Software Version:	3.9.2.0
Unit SN:	10000200
Spectrometer SN:	6960
Date:	3/14/2024 1:42:37 PM
Data Line Index:	25
Spectral Points:	2048
Integration time (ms):	125
Averages:	20
Delay (ms):	30000
Sequence Number:	1
Processing:	dark subtract
Laser Power (mW):	300
Laser Current (mA):	825
Laser Diode Temp (C):	25
Laser Case Temp (C):	28.7
System Temp (C):	28.7
Spectrometer Temp (C):	26.5
CCD Temp (C):	0.008
Secondary Temp (C):	20.007
Heatsink Temp (C):	24.69
CCDPCB Temp (C):	38.241
SecondaryPCB Temp (C):	35.718

Wavelength	RamanShift	Raw Counts	Dark Subtracted
787.061	30.1047	469.95	56.75
787.2016	32.3739	469.15	59.15
787.3422	34.6426	473.1	60.35
787.4828	36.9109	479.2	67.55
787.6235	39.1787	492.8	74.95
787.7642	41.4461	499	77.3
787.9049	43.7131	508.05	83.1
788.0456	45.9796	520.25	91.15
788.1863	48.2456	529.5	97.35
788.3271	50.5112	541.3	105.45
788.4679	52.7764	553.25	112.85
788.6087	55.0411	561.3	118.85
788.7496	57.3054	573.1	126.9
788.8904	59.5692	584.95	135.75
789.0313	61.8326	595.5	142.75
789.1722	64.0955	612.1	154.1
789.3132	66.3579	631.15	168.9
789.4541	68.6199	652.5	186.4
789.5951	70.8815	689.65	223.1
789.7361	73.1426	773	301.5
789.8771	75.4032	1000.25	524.45
790.0181	77.6634	1530.9	1048.3
790.1592	79.9231	2801	2310.75
790.3003	82.1824	5618.8	5118.75
790.4414	84.4412	10799.7	10282.2
790.5825	86.6995	18086.75	17543.4
790.7237	88.9574	25354.05	24791.9
790.8648	91.2148	30457	29877.75
791.006	93.4717	32882	32296.2
791.1472	95.7282	33447.15	32853.1
791.2885	97.9842	33385.65	32785.9
791.4297	100.2398	32793.85	32196.7
791.571	102.4949	32141.75	31540.4
791.7123	104.7495	31336.65	30732.95
791.8536	107.0036	30472.6	29862.5
791.9949	109.2573	29710.2	29103
792.1363	111.5105	28926.95	28322.7
792.2777	113.7632	28202.05	27590.95
792.4191	116.0154	27576	26954.3
792.5605	118.2672	27172.9	26559.3
792.7019	120.5185	26719.9	26104.9
792.8434	122.7693	26373.35	25756.25
792.9849	125.0197	26088.4	25470.8
793.1264	127.2696	25823.25	25203.2
793.2679	129.519	25636.65	25010.25
793.4094	131.7679	25374.4	24745.8
793.551	134.0163	25186.35	24553.5
793.6926	136.2642	24944.3	24306.65
793.8342	138.5117	24670.7	24026.45
793.9758	140.7587	24348.2	23709
794.1175	143.0052	24136.35	23495
794.2591	145.2512	23816.25	23175.4
794.4008	147.4967	23510.9	22866.4
794.5425	149.7417	23361.3	22714.85
794.6842	151.9863	23198.85	22553.2
794.826	154.2304	23129.9	22479.5
794.9677	156.4739	22965.1	22306.05
795.1095	158.717	22889.15	22231.95
795.2513	160.9596	22695.65	22034.95
795.3931	163.2017	22421.3	21755.1
795.535	165.4433	22094.05	21429.35
795.6768	167.6844	21697.7	21031.05
795.8187	169.925	21417.45	20746.95
795.9606	172.1651	21019.05	20343.95
796.1025	174.4047	20700.05	20024.5
796.2445	176.6439	20455.95	19774.65
796.3864	178.8825	20205.85	19525.65
796.5284	181.1206	20025.5	19340.25
796.6704	183.3582	19850.05	19162.2
796.8124	185.5954	19748.65	19061.85
796.9544	187.832	19679.8	18984.7
797.0965	190.0681	19604.05	18910.05
797.2386	192.3037	19617.65	18919
797.3806	194.5388	19544	18844.55
797.5228	196.7734	19602.2	18901.15
797.6649	199.0075	19650.15	18941.6
797.807	201.2411	19819.75	19110.9
797.9492	203.4742	19853.7	19145.85
798.0914	205.7068	20021.45	19313.6
798.2336	207.9389	20139.9	19430.55
798.3758	210.1704	20274.95	19566
798.518	212.4015	20370.6	19653.55
798.6603	214.632	20556.55	19841.75
798.8025	216.862	20680.4	19971.6
798.9448	219.0915	20835.8	20138.7
799.0871	221.3205	20994	20292.1
799.2294	223.549	21176.15	20483.5
799.3718	225.777	21407.25	20711.8
799.5141	228.0044	21681.1	20985.4
799.6565	230.2314	22032.85	21340.85
799.7989	232.4578	22343.2	21648.05
799.9413	234.6837	22622.55	21919.15
800.0837	236.909	22817	22114.7
800.2262	239.1339	22814.1	22083.8
800.3687	241.3582	22626.1	21914.5
800.5111	243.582	22356.1	21616.1
800.6536	245.8053	22108.65	21375.95
800.7961	248.0281	21876.45	21147.65
800.9387	250.2503	21666.35	20932.5
801.0812	252.472	21617	20881.85
801.2238	254.6932	21632.35	20893
801.3664	256.9139	21576.65	20832.85
801.509	259.134	21635.2	20892.2
801.6516	261.3536	21722.3	20981.6
801.7942	263.5727	21891.4	21148.7
801.9369	265.7912	21932.6	21192.45
802.0795	268.0092	22058.9	21317.2
802.2222	270.2267	22079.3	21334.4
802.3649	272.4436	22097.75	21349.95
802.5076	274.6601	22024.3	21272.75
802.6504	276.8759	21929.45	21183.45
802.7931	279.0913	21852.65	21102.4
802.9359	281.3061	21737.5	20986.75
803.0787	283.5204	21750.15	20999.25
803.2215	285.7341	21757.2	20999.2
803.3643	287.9473	21849.8	21081.65
803.5071	290.16	22044.9	21280.1
803.6499	292.3721	22254.35	21499.4
803.7928	294.5837	22599.2	21843.2
803.9357	296.7947	22923.3	22162.85
804.0786	299.0052	23145.1	22389.5
804.2215	301.2152	22982.5	22219.35
804.3644	303.4246	22675.5	21915.6
804.5074	305.6334	22122.7	21364.8
804.6503	307.8418	21609	20845.75
804.7933	310.0495	21191.25	20429.6
804.9363	312.2568	20785.85	20026.35
805.0793	314.4635	20496.5	19733.6
805.2223	316.6696	20293.9	19531.25
805.3653	318.8752	20156.4	19385
805.5084	321.0802	20171.2	19406.85
805.6514	323.2847	20260.85	19492.7
805.7945	325.4887	20300.5	19535.6
805.9376	327.692	20219.1	19453.75
806.0807	329.8949	20128.05	19359
806.2238	332.0972	19847.75	19075.7
806.367	334.2989	19621.5	18846.6
806.5101	336.5001	19312.65	18535.7
806.6533	338.7007	19075.7	18300
806.7965	340.9008	18947.8	18171.4
806.9397	343.1003	18813.9	18036.4
807.0829	345.2992	18726.15	17947.2
807.2261	347.4976	18633.75	17851.7
807.3693	349.6955	18601.6	17815.85
807.5126	351.8927	18630.6	17844.6
807.6559	354.0895	18591.2	17796.15
807.7991	356.2856	18598.15	17812.95
807.9424	358.4812	18534.1	17749.65
808.0857	360.6763	18565.85	17778.65
808.2291	362.8707	18550.25	17762.8
808.3724	365.0646	18579.8	17790.2
808.5158	367.258	18591.45	17798.2
808.6591	369.4508	18598.25	17802.25
808.8025	371.643	18659.1	17864.75
808.9459	373.8346	18656.1	17857.15
809.0893	376.0257	18652.65	17850.15
809.2327	378.2162	18592.1	17787.2
809.3762	380.4062	18506	17701.75
809.5196	382.5956	18362.25	17556.2
809.6631	384.7844	18197.95	17391.35
809.8066	386.9726	18071.45	17262.15
809.9501	389.1603	17978.25	17169.45
810.0936	391.3474	17970.15	17129.45
810.2371	393.5339	17934.2	17128.8
810.3806	395.7199	17835.75	17034.95
810.5241	397.9052	17864.75	17069.9
810.6677	400.09	17861.4	17064.1
810.8113	402.2743	17952.55	17158.75
810.9548	404.4579	18044.15	17249.45
811.0984	406.641	18242.75	17446.8
811.2421	408.8235	18456.3	17661.7
811.3857	411.0054	18698.7	17899.25
811.5293	413.1868	19055.4	18256.35
811.673	415.3675	19250.55	18449.35
811.8166	417.5477	19369.65	18566.25
811.9603	419.7273	19392.25	18588.3
812.104	421.9064	19270.3	18456.6
812.2477	424.0848	19110.6	18299.1
812.3914	426.2627	18920.5	18110.65
812.5351	428.4399	18616.2	17804.55
812.6788	430.6166	18262.85	17449.2
812.8226	432.7928	17892.15	17077.9
812.9663	434.9683	17542.95	16726.15
813.1101	437.1432	17262.8	16444.15
813.2539	439.3176	17083.05	16263.9
813.3977	441.4914	16924.1	16103.45
813.5415	443.6645	16896	16074.45
813.6853	445.8371	16839.15	16017.25
813.8291	448.0091	16757.95	15937
813.973	450.1806	16705.65	15885.3
814.1168	452.3514	16633.15	15808.4
814.2607	454.5216	16660.25	15829.15
814.4046	456.6913	16596.7	15775.15
814.5485	458.8603	16585.2	15762.1
814.6924	461.0288	16672.1	15847.4
814.8363	463.1967	16624.9	15802.3
814.9802	465.3639	16715.65	15891.25
815.1241	467.5306	16747.8	15919.75
815.2681	469.6967	16869.85	16045.65
815.412	471.8622	16953.95	16128.3
815.556	474.0271	17043.5	16218.85
815.7	476.1914	17088.1	16261.6
815.844	478.3551	17062.55	16234.4
815.988	480.5182	17026.55	16196.25
816.132	482.6807	17074.85	16246.5
816.276	484.8426	17225.95	16398.9
816.4201	487.0039	17511.05	16684.35
816.5641	489.1647	17903.75	17073.9
816.7082	491.3248	18337.95	17507.85
816.8522	493.4843	18486.85	17657.05
816.9963	495.6432	18447.75	17617.45
817.1404	497.8015	18285.5	17452.8
817.2845	499.9592	18221.75	17392
817.4286	502.1163	18117.65	17288.1
817.5727	504.2728	17805	16969.65
817.7168	506.4287	17484.4	16650.7
817.861	508.5839	17101.65	16267.25
818.0051	510.7386	16803.95	15970.8
818.1493	512.8927	16619.35	15780.8
818.2935	515.0461	16500.9	15670
818.4377	517.199	16488.65	15656.3
818.5818	519.3512	16527	15694.75
818.726	521.5029	16673.8	15832.25
818.8703	523.6539	16829.3	15993.45
819.0145	525.8043	16876.75	16038
819.1587	527.9541	16859.75	16019.35
819.303	530.1033	16742.5	15906.8
819.4472	532.2519	16666.55	15827.75
819.5915	534.3999	16714.95	15873.5
819.7357	536.5472	16913.3	16073.3
819.88	538.694	17299.65	16457.9
820.0243	540.8401	17773.8	16930
820.1686	542.9856	18177	17333.8
820.3129	545.1305	18278.3	17432.1
820.4572	547.2748	18117.55	17273
820.6016	549.4185	17792	16942.75
820.7459	551.5615	17446.4	16603.05
820.8902	553.704	17388.95	16542.9
821.0346	555.8458	17333.25	16491.7
821.1789	557.987	17405.1	16563.5
821.3233	560.1276	17490.65	16646.55
821.4677	562.2675	17594.75	16752.55
821.6121	564.4069	17784.2	16941.5
821.7565	566.5456	17929	17088.9
821.9009	568.6837	17967.65	17122.2
822.0453	570.8212	17618.95	16778.65
822.1897	572.958	17134.35	16290.55
822.3342	575.0942	16693.45	15852.65
822.4786	577.2299	16370.55	15529.85
822.6231	579.3648	16265.85	15422.05
822.7675	581.4992	16253.4	15411.3
822.912	583.6329	16402.45	15562.35
823.0565	585.766	16627.5	15780
823.201	587.8985	16715	15871.85
823.3454	590.0304	16758.35	15887.4
823.4899	592.1616	16677.55	15826.75
823.6345	594.2922	16527.3	15679.7
823.779	596.4222	16313.6	15464.5
823.9235	598.5515	16108.7	15261.1
824.068	600.6802	15924.35	15076.1
824.2126	602.8083	15710.05	14862.2
824.3571	604.9358	15700.2	14849.55
824.5017	607.0626	15604.6	14755.2
824.6462	609.1888	15627.45	14776.15
824.7908	611.3144	15620.6	14772.55
824.9354	613.4393	15578.5	14727.65
825.08	615.5636	15574.7	14724.45
825.2246	617.6873	15521.15	14671.65
825.3692	619.8103	15415.6	14562.95
825.5138	621.9327	15286.85	14434.4
825.6584	624.0544	15153.55	14301
825.803	626.1756	15063.95	14212.1
825.9477	628.2961	14986.95	14135.7
826.0923	630.4159	14867.75	14015.55
826.237	632.5351	14848.8	13995.95
826.3816	634.6537	14785.3	13933.8
826.5263	636.7716	14771.2	13915
826.6709	638.8889	14777.2	13922.55
826.8156	641.0056	14741	13885.3
826.9603	643.1216	14718.2	13863.3
827.105	645.237	14738.15	13881.55
827.2497	647.3518	14677.15	13821.4
827.3944	649.4659	14646.05	13792.7
827.5391	651.5793	14620.7	13763.7
827.6838	653.6922	14578.5	13721.5
827.8285	655.8043	14520.9	13665
827.9733	657.9159	14498.2	13641.4
828.118	660.0268	14430.4	13575.8
828.2627	662.137	14397.65	13538.65
828.4075	664.2466	14370.15	13511.2
828.5522	666.3556	14337.1	13482.15
828.697	668.4639	14324.4	13461.7
828.8418	670.5716	14298.2	13441.2
828.9865	672.6786	14303	13444.45
829.1313	674.785	14315.65	13453.45
829.2761	676.8907	14344.3	13484.95
829.4209	678.9958	14385.75	13526.5
829.5657	681.1002	14368.45	13507.7
829.7105	683.204	14349.25	13485.45
829.8553	685.3072	14277.9	13417.15
830.0001	687.4097	14195.15	13332.1
830.1449	689.5115	14149.15	13283.55
830.2898	691.6127	14107.2	13249.25
830.4346	693.7132	14075.7	13215.05
830.5794	695.8131	14024.75	13149.55
830.7243	697.9123	14006.05	13144.15
830.8691	700.0109	13944.5	13081.05
831.014	702.1089	13937.75	13076.75
831.1588	704.2061	13974.3	13109.75
831.3037	706.3028	13959.4	13094.65
831.4486	708.3987	14009.95	13150.1
831.5935	710.4941	14032.8	13170.95
831.7383	712.5887	14165.75	13301.7
831.8832	714.6827	14360.25	13491.95
832.0281	716.7761	14651.85	13790.55
832.173	718.8688	14941.1	14074.8
832.3179	720.9608	15102.15	14233.6
832.4628	723.0522	15156.45	14287.5
832.6077	725.1429	15072.8	14207.75
832.7527	727.233	14904.85	14040.35
832.8976	729.3224	14770.7	13904.15
833.0425	731.4112	14524.3	13655.5
833.1874	733.4993	14318.7	13451.65
833.3324	735.5867	14112.65	13245.85
833.4773	737.6735	13938.55	13068.35
833.6222	739.7596	13817.8	12951.05
833.7672	741.845	13726.7	12860
833.9122	743.9298	13650.35	12782.4
834.0571	746.014	13619.95	12752.7
834.2021	748.0974	13582.35	12713.1
834.347	750.1802	13552.75	12684.5
834.492	752.2624	13606.9	12739.95
834.637	754.3439	13617.5	12748.6
834.782	756.4247	13698.25	12822.5
834.9269	758.5048	13815.25	12946.8
835.0719	760.5843	14064.9	13198
835.2169	762.6631	14422.45	13555.2
835.3619	764.7413	14909.4	14043
835.5069	766.8188	15559	14687.6
835.6519	768.8956	16071.85	15199.7
835.7969	770.9718	16366.55	15497.1
835.9419	773.0473	16263.85	15394.05
836.0869	775.1221	15946.35	15076.35
836.232	777.1962	15559.45	14690.15
836.377	779.2697	15373.3	14501.35
836.522	781.3426	15431.5	14554.15
836.667	783.4147	15574.65	14705.95
836.8121	785.4862	15837.1	14967.75
836.9571	787.557	15740.85	14870.85
837.1021	789.6271	15347.55	14474.7
837.2472	791.6966	14731.55	13862.65
837.3922	793.7654	14142.85	13269.25
837.5373	795.8335	13766	12895.55
837.6823	797.901	13474.3	12606.1
837.8274	799.9678	13350.15	12478.75
837.9724	802.0339	13309.35	12442.45
838.1175	804.0993	13291.35	12410.7
838.2626	806.1641	13232.8	12363.15
838.4076	808.2282	13176.25	12306.4
838.5527	810.2916	13063.15	12188.95
838.6978	812.3544	12966.55	12096.4
838.8428	814.4164	12874.1	12005.3
838.9879	816.4778	12895.55	12021.9
839.133	818.5385	12906.4	12036
839.2781	820.5986	12999.1	12128.65
839.4232	822.658	13135.6	12262.85
839.5682	824.7166	13293.5	12422.5
839.7133	826.7747	13638.3	12767.05
839.8584	828.832	13973.3	13103.5
840.0035	830.8886	14202	13327.9
840.1486	832.9446	14329.2	13457.2
840.2937	834.9999	14276.25	13404.7
840.4388	837.0545	14165.5	13288.9
840.5839	839.1085	14016.35	13144.85
840.729	841.1618	13855.55	12981.25
840.8741	843.2143	13723.2	12851.1
841.0192	845.2662	13571.5	12698.45
841.1643	847.3175	13463.7	12591.2
841.3095	849.368	13327.4	12453.1
841.4546	851.4179	13205.3	12334.65
841.5997	853.467	13038.05	12163.45
841.7448	855.5155	12942.55	12068.1
841.8899	857.5633	12837.6	11961.45
842.0351	859.6105	12723.8	11851.75
842.1802	861.6569	12623.35	11747.75
842.3253	863.7027	12540.4	11665.25
842.4704	865.7478	12485.7	11613.45
842.6156	867.7922	12479.1	11605.2
842.7607	869.8359	12463.4	11589.95
842.9058	871.8789	12524.85	11648.4
843.0509	873.9212	12717.55	11809.4
843.1961	875.9629	12809.2	11933.35
843.3412	878.0039	12984.15	12106.75
843.4863	880.0441	13047.85	12174.25
843.6315	882.0837	13059.7	12183.45
843.7766	884.1226	12997.85	12122.95
843.9218	886.1609	12948.55	12073.65
844.0669	888.1984	12911.95	12038
844.212	890.2352	12916.4	12043.45
844.3572	892.2714	12906.8	12028.75
844.5023	894.3069	12843.5	11967.95
844.6475	896.3416	12737	11862.05
844.7926	898.3757	12618.6	11743.5
844.9377	900.4091	12577	11702.3
845.0829	902.4418	12574.45	11694.05
845.228	904.4739	12569.3	11689.2
845.3732	906.5052	12609.15	11732.05
845.5183	908.5358	12507.2	11632.75
845.6635	910.5658	12343.95	11467.05
845.8086	912.595	12155.15	11279.5
845.9538	914.6236	11962.2	11087.65
846.0989	916.6515	11868.75	10993.6
846.2441	918.6786	11808.2	10930.15
846.3892	920.7051	11853.3	10976
846.5344	922.7309	11898.8	11022.45
846.6795	924.756	11912.05	11034.45
846.8246	926.7804	12014.3	11133.45
846.9698	928.8041	11977.6	11097.45
847.1149	930.8272	12009.9	11133.5
847.2601	932.8495	11928.4	11047.55
847.4052	934.8711	11909.7	11032.15
847.5504	936.892	11774.7	10896.9
847.6955	938.9123	11645.6	10768
847.8407	940.9318	11583.15	10704.7
847.9858	942.9506	11502.9	10622.35
848.131	944.9688	11396.1	10517.4
848.2761	946.9862	11322.65	10444.05
848.4213	949.003	11217.9	10338.85
848.5664	951.019	11176.15	10298.4
848.7115	953.0344	11157.15	10280.1
848.8567	955.0491	11149.5	10270.8
849.0018	957.063	11206.85	10330.8
849.147	959.0763	11295.1	10417.05
849.2921	961.0888	11346.9	10465.4
849.4373	963.1007	11386.6	10507.65
849.5824	965.1119	11413.65	10535.45
849.7275	967.1223	11409	10531.05
849.8727	969.1321	11412.15	10533.35
850.0178	971.1412	11389.45	10510
850.1629	973.1495	11418.55	10540
850.3081	975.1572	11450.5	10536.2
850.4532	977.1641	11439.35	10560.85
850.5983	979.1704	11407.3	10527.95
850.7435	981.1759	11372.05	10489.8
850.8886	983.1808	11405.8	10524.1
851.0337	985.1849	11458	10568.5
851.1788	987.1884	11555.2	10673.9
851.324	989.1911	11734.2	10851.75
851.4691	991.1932	11823	10941.3
851.6142	993.1945	11841.95	10962.75
851.7593	995.1951	11787.9	10906.7
851.9045	997.1951	11763.65	10875.6
852.0496	999.1943	11690.4	10812.4
852.1947	1001.1928	11673.2	10791.75
852.3398	1003.1906	11671.55	10793.1
852.4849	1005.1877	11756.5	10876
852.63	1007.1841	11767.15	10887.2
852.7751	1009.1798	11720.5	10842.8
852.9202	1011.1748	11522.4	10643.1
853.0653	1013.1691	11357.5	10476.1
853.2104	1015.1627	11135.35	10254.15
853.3555	1017.1556	10875.2	9997.25
853.5006	1019.1477	10784.65	9902.85
853.6457	1021.1392	10660.55	9780.85
853.7908	1023.1299	10630.4	9751.3
853.9359	1025.12	10684.8	9800.75
854.081	1027.1093	10696.5	9817.55
854.2261	1029.0979	10799.6	9921.15
854.3712	1031.0859	10869.2	9990.2
854.5163	1033.0731	10905.35	10025.65
854.6613	1035.0596	10830.7	9954.3
854.8064	1037.0454	10676.85	9795.2
854.9515	1039.0304	10560.75	9679.9
855.0965	1041.0148	10405.6	9523.3
855.2416	1042.9985	10326.45	9446.5
855.3867	1044.9814	10241.55	9362.55
855.5317	1046.9636	10200.8	9316.95
855.6768	1048.9452	10168.85	9288.65
855.8219	1050.926	10191.25	9311.3
855.9669	1052.9061	10189.75	9310.8
856.112	1054.8855	10180.65	9298.35
856.257	1056.8642	10211	9329.85
856.4021	1058.8421	10248.2	9366.8
856.5471	1060.8194	10281.1	9402.05
856.6921	1062.7959	10309	9428.75
856.8372	1064.7717	10326.4	9444.2
856.9822	1066.7469	10380.4	9495.7
857.1272	1068.7213	10409.55	9525.45
857.2723	1070.695	10419.75	9538.15
857.4173	1072.6679	10366.85	9486.55
857.5623	1074.6402	10384.15	9503.3
857.7073	1076.6117	10339.6	9450.7
857.8523	1078.5826	10258.35	9377.45
857.9973	1080.5527	10204.7	9321.65
858.1423	1082.5221	10224.15	9342.5
858.2873	1084.4908	10334.75	9452.35
858.4323	1086.4587	10456.45	9573.6
858.5773	1088.426	10558.65	9676.25
858.7223	1090.3925	10545.3	9658.9
858.8673	1092.3584	10501	9622.25
859.0123	1094.3235	10426.1	9546.25
859.1573	1096.2879	10410.8	9530.9
859.3022	1098.2515	10469.4	9588.7
859.4472	1100.2145	10544	9660.25
859.5922	1102.1767	10662.9	9779.6
859.7371	1104.1382	10864.45	9982.8
859.8821	1106.099	11059.75	10173.1
860.027	1108.0591	11292.65	10409.35
860.172	1110.0185	11434.5	10549.95
860.3169	1111.9771	11496.7	10615.1
860.4619	1113.9351	11330.8	10450.35
860.6068	1115.8923	11090.15	10208.5
860.7517	1117.8488	10823.25	9941.75
860.8967	1119.8045	10605.15	9722.65
861.0416	1121.7596	10445.95	9563.8
861.1865	1123.7139	10362.95	9481.95
861.3314	1125.6675	10319.35	9435.75
861.4763	1127.6204	10357.35	9474.8
861.6212	1129.5726	10326.15	9439.7
861.7661	1131.524	10280.95	9401.55
861.911	1133.4748	10225.55	9342.3
862.0559	1135.4248	10106.6	9222
862.2008	1137.3741	10035.35	9153.75
862.3457	1139.3226	9961.35	9078.45
862.4905	1141.2705	9885.7	9003
862.6354	1143.2176	9792.95	8904.75
862.7803	1145.164	9786.5	8902.4
862.9251	1147.1097	9748.25	8865.2
863.07	1149.0546	9678.9	8794.25
863.2148	1150.9989	9613.5	8732.45
863.3597	1152.9424	9443.9	8561.45
863.5045	1154.8852	9318.55	8435.45
863.6493	1156.8272	9216.75	8334.8
863.7942	1158.7686	9200.95	8310.95
863.939	1160.7092	9168.7	8284.1
864.0838	1162.6491	9180.05	8295.2
864.2286	1164.5883	9268.6	8388
864.3734	1166.5267	9379.4	8496.55
864.5182	1168.4644	9513.8	8630.3
864.663	1170.4014	9699.3	8814.65
864.8078	1172.3377	9942.25	9060.95
864.9526	1174.2732	10188.5	9306.1
865.0974	1176.2081	10537.4	9655.15
865.2421	1178.1421	10876.15	9989.9
865.3869	1180.0755	11207.9	10326.6
865.5317	1182.0082	11457.95	10575
865.6764	1183.9401	11534.8	10650.35
865.8212	1185.8713	11369.4	10489.15
865.9659	1187.8017	11118.65	10235
866.1106	1189.7315	10800.75	9918.3
866.2554	1191.6605	10506.95	9595.05
866.4001	1193.5888	10209.45	9326.1
866.5448	1195.5163	10101.7	9217.75
866.6895	1197.4432	9991.55	9106.85
866.8342	1199.3693	9939.6	9057.35
866.9789	1201.2947	9913.35	9024.9
867.1236	1203.2193	9876.6	8994.1
867.2683	1205.1432	9902	9018.4
867.413	1207.0664	9892.6	9009.3
867.5576	1208.9889	9891.35	9004.1
867.7023	1210.9106	9907.85	9024.85
867.847	1212.8316	9915.55	9032.85
867.9916	1214.7519	9969.7	9076.05
868.1363	1216.6715	9986.1	9105.75
868.2809	1218.5903	10041.6	9159.75
868.4255	1220.5084	10036	9153.8
868.5701	1222.4257	10098.4	9212.45
868.7148	1224.3424	10062.75	9180.5
868.8594	1226.2583	10124.1	9237.45
869.004	1228.1735	10239.55	9354
869.1486	1230.0879	10349.2	9463.85
869.2932	1232.0016	10465.65	9583.65
869.4377	1233.9146	10538.2	9652.25
869.5823	1235.8269	10474.85	9591.35
869.7269	1237.7384	10359	9477.1
869.8715	1239.6492	10187.45	9304.25
870.016	1241.5592	10118.85	9237
870.1606	1243.4686	10067.45	9183.75
870.3051	1245.3772	10089.8	9207.5
870.4496	1247.285	10130.9	9247.45
870.5941	1249.1922	10157.5	9273.15
870.7387	1251.0986	10200.35	9319.7
870.8832	1253.0042	10214.6	9331.65
871.0277	1254.9092	10276.1	9392.7
871.1722	1256.8134	10386	9502.7
871.3167	1258.7169	10500.9	9616.2
871.4611	1260.6196	10675.95	9792.95
871.6056	1262.5216	10896.5	10011.9
871.7501	1264.4229	11085.95	10203.1
871.8945	1266.3234	11266.65	10379.8
872.039	1268.2232	11359.65	10475.55
872.1834	1270.1223	11361.5	10477.2
872.3278	1272.0207	11372.95	10489.4
872.4723	1273.9183	11338.95	10449.35
872.6167	1275.8151	11261.15	10378.45
872.7611	1277.7113	11219.45	10333.85
872.9055	1279.6067	11125.85	10242
873.0499	1281.5014	11165.95	10279.7
873.1943	1283.3953	11287.35	10400.9
873.3386	1285.2885	11471.5	10587.9
873.483	1287.181	11658.55	10775.05
873.6274	1289.0727	11913.2	11029.8
873.7717	1290.9637	12072.05	11186.4
873.9161	1292.854	12215.95	11333.1
874.0604	1294.7435	12269.45	11386.15
874.2047	1296.6323	12336.9	11455.75
874.349	1298.5204	12401.1	11514.1
874.4933	1300.4077	12427.8	11544.2
874.6376	1302.2943	12432.15	11549.7
874.7819	1304.1802	12356.65	11475.25
874.9262	1306.0653	12120.05	11233.55
875.0705	1307.9497	11825.4	10940.15
875.2147	1309.8333	11575.55	10692.05
875.359	1311.7162	11382.25	10498.85
875.5032	1313.5984	11331.8	10445.25
875.6475	1315.4798	11323.3	10428.55
875.7917	1317.3605	11355.55	10456.15
875.9359	1319.2405	11351.55	10463.95
876.0801	1321.1197	11264.55	10378.05
876.2243	1322.9982	11094.55	10205.1
876.3685	1324.876	10933.8	10050.9
876.5127	1326.753	10751.95	9866.85
876.6569	1328.6293	10672.15	9786.3
876.801	1330.5048	10619	9733.05
876.9452	1332.3796	10537.1	9651.75
877.0893	1334.2537	10504.85	9593.85
877.2335	1336.127	10430.55	9544.8
877.3776	1337.9996	10407.95	9523.9
877.5217	1339.8714	10402.45	9518.55
877.6658	1341.7426	10418.85	9487.7
877.8099	1343.6129	10393.4	9508.85
877.954	1345.4826	10367.75	9483.95
878.0981	1347.3515	10395.3	9508.8
878.2422	1349.2196	10299.1	9413.15
878.3862	1351.087	10319.25	9433.15
878.5303	1352.9537	10397.7	9512.15
878.6743	1354.8197	10512.75	9629.1
878.8184	1356.6849	10674.55	9789.55
878.9624	1358.5493	10793.1	9908.3
879.1064	1360.4131	10925.6	10038.75
879.2504	1362.276	10972.5	10087.55
879.3944	1364.1383	10877.55	9994.1
879.5384	1365.9998	10647.35	9757.05
879.6823	1367.8606	10323.45	9439.6
879.8263	1369.7206	9976.5	9089.4
879.9702	1371.5799	9668.3	8780.35
880.1142	1373.4384	9433.8	8548.55
880.2581	1375.2962	9259.95	8373.7
880.402	1377.1533	8975.8	8091.6
880.5459	1379.0096	8656.9	7771.7
880.6898	1380.8652	8314.9	7430.65
880.8337	1382.7201	8038.8	7153.9
880.9776	1384.5742	7809.7	6926.25
881.1215	1386.4275	7616.8	6731.65
881.2653	1388.2802	7467.6	6583.5
881.4092	1390.132	7350.45	6466.2
881.553	1391.9832	7292.3	6407.2
881.6968	1393.8336	7217.25	6331.75
881.8406	1395.6832	7173.55	6285.75
881.9844	1397.5322	7152.15	6266.6
882.1282	1399.3803	7136.35	6246.05
882.272	1401.2278	7086.95	6200.6
882.4158	1403.0745	7080.4	6194.9
882.5595	1404.9204	7087.55	6203.15
882.7033	1406.7656	7094.9	6209.6
882.847	1408.6101	7130.5	6243.7
882.9908	1410.4538	7159.75	6274.85
883.1345	1412.2968	7196.2	6312.5
883.2782	1414.139	7233.8	6348.15
883.4219	1415.9805	7330.3	6443.7
883.5656	1417.8213	7451.25	6559
883.7092	1419.6613	7546.2	6661.05
883.8529	1421.5006	7719.7	6834
883.9965	1423.3391	7964.3	7080.1
884.1402	1425.1769	8244.5	7358.75
884.2838	1427.0139	8754.85	7868.7
884.4274	1428.8502	9310.5	8424.55
884.571	1430.6858	9887.75	9002.55
884.7146	1432.5206	10292.9	9408.95
884.8582	1434.3547	10545.85	9660.3
885.0018	1436.188	10577.35	9693.75
885.1453	1438.0206	10483.95	9597.85
885.2889	1439.8524	10312.05	9426.05
885.4324	1441.6835	10199.6	9314
885.5759	1443.5139	10097.65	9207.15
885.7194	1445.3435	10034.3	9148.25
885.8629	1447.1724	9996.45	9112.75
886.0064	1449.0005	9910.65	9025.45
886.1499	1450.8279	9837.05	8949.9
886.2933	1452.6545	9810.7	8924.85
886.4368	1454.4804	9859.65	8974.65
886.5802	1456.3056	9847	8951.75
886.7237	1458.13	9723.3	8839.35
886.8671	1459.9536	9564.55	8680.4
887.0105	1461.7766	9241.15	8357.55
887.1539	1463.5987	8858.9	7972.9
887.2972	1465.4202	8497.5	7613.95
887.4406	1467.2409	8162.45	7275.2
887.584	1469.0608	7858.75	6973.1
887.7273	1470.88	7582.9	6696.95
887.8706	1472.6984	7353.45	6469.35
888.0139	1474.5161	7137.35	6248.5
888.1572	1476.3331	6978.9	6095.9
888.3005	1478.1493	6846.65	5960.85
888.4438	1479.9648	6754.6	5868.6
888.5871	1481.7795	6666.9	5781.75
888.7303	1483.5935	6594.3	5709.5
888.8736	1485.4067	6540.35	5655.5
889.0168	1487.2192	6469.1	5583.85
889.16	1489.031	6451.75	5565.9
889.3032	1490.842	6401.15	5515.5
889.4464	1492.6522	6366.05	5481.55
889.5896	1494.4618	6293.55	5405.45
889.7327	1496.2705	6291.55	5407.85
889.8759	1498.0785	6253.75	5367.1
890.019	1499.8858	6223	5336.65
890.1622	1501.6924	6190.4	5307.05
890.3053	1503.4981	6152.2	5267.05
890.4484	1505.3032	6137.1	5252.2
890.5914	1507.1075	6087.85	5204
890.7345	1508.911	6057.1	5174.1
890.8776	1510.7138	6015.55	5130.5
891.0206	1512.5159	5983.2	5096.15
891.1637	1514.3172	5939.2	5053.25
891.3067	1516.1178	5890	5006.6
891.4497	1517.9176	5879.55	4990.75
891.5927	1519.7166	5838.35	4954.25
891.7357	1521.515	5839.35	4946
891.8786	1523.3126	5785.25	4898.55
892.0216	1525.1094	5769.95	4883.9
892.1645	1526.9055	5752.1	4867.8
892.3074	1528.7008	5724.4	4839.6
892.4503	1530.4954	5707.6	4820.75
892.5932	1532.2893	5704.15	4819.7
892.7361	1534.0824	5675.05	4785.8
892.879	1535.8747	5663.8	4777.5
893.0218	1537.6663	5661.75	4775.8
893.1647	1539.4572	5636.5	4749.5
893.3075	1541.2473	5662.7	4776.5
893.4503	1543.0367	5641.45	4758.85
893.5931	1544.8253	5654.65	4767.2
893.7359	1546.6132	5663.45	4775.85
893.8787	1548.4003	5666.4	4772.25
894.0214	1550.1867	5705.65	4810.35
894.1642	1551.9723	5735.7	4844.7
894.3069	1553.7572	5782.55	4896
894.4496	1555.5414	5862.4	4977.95
894.5923	1557.3247	5953.55	5068.5
894.735	1559.1074	6078.35	5193.45
894.8777	1560.8893	6189.95	5307.5
895.0204	1562.6705	6300.85	5415.15
895.163	1564.4509	6398.7	5515.7
895.3056	1566.2305	6460.2	5575.7
895.4482	1568.0094	6530.7	5646.75
895.5908	1569.7876	6554.7	5669.5
895.7334	1571.565	6555.25	5670.4
895.876	1573.3417	6549.2	5663.65
896.0186	1575.1176	6524.65	5639.65
896.1611	1576.8928	6523	5636.75
896.3036	1578.6672	6456.35	5571.2
896.4461	1580.4409	6412.7	5530.7
896.5886	1582.2138	6354.8	5466.2
896.7311	1583.986	6299.25	5415.65
896.8736	1585.7575	6297.85	5414.9
897.0161	1587.5282	6290.7	5407.05
897.1585	1589.2981	6313.9	5430.9
897.3009	1591.0673	6308.25	5422.25
897.4433	1592.8358	6365	5484.85
897.5857	1594.6035	6416.1	5527.8
897.7281	1596.3704	6459.8	5574.65
897.8705	1598.1366	6517.45	5633.45
898.0128	1599.9021	6582.4	5696.1
898.1551	1601.6668	6649.4	5762.75
898.2975	1603.4308	6755.85	5868.85
898.4398	1605.194	6896.2	6004.85
898.5821	1606.9564	7059.2	6175.35
898.7243	1608.7182	7244.55	6357.85
898.8666	1610.4791	7477.95	6592.6
899.0088	1612.2394	7694.5	6811
899.1511	1613.9988	7950.4	7064.15
899.2933	1615.7576	8196.95	7313.7
899.4355	1617.5156	8407.85	7519
899.5776	1619.2728	8543.1	7661.4
899.7198	1621.0293	8578	7693.3
899.862	1622.785	8547.55	7658.15
900.0041	1624.54	8399.8	7512.85
900.1462	1626.2942	8203.4	7316.4
900.2883	1628.0477	7899.15	7011.75
900.4304	1629.8005	7632.7	6746
900.5725	1631.5525	7413.1	6526.65
900.7145	1633.3037	7192.85	6310.1
900.8566	1635.0542	7017.65	6131.3
900.9986	1636.804	6913.5	6029.95
901.1406	1638.553	6902.4	5936.85
901.2826	1640.3013	6785.2	5902.55
901.4245	1642.0488	6764.4	5879.05
901.5665	1643.7955	6799.5	5916.7
901.7085	1645.5416	6869	5983.95
901.8504	1647.2868	6970.3	6085.25
901.9923	1649.0313	7059.7	6176.4
902.1342	1650.7751	7196.05	6309.1
902.2761	1652.5181	7389.15	6505.8
902.4179	1654.2604	7595.95	6713.25
902.5598	1656.0019	7824.3	6939.6
902.7016	1657.7427	8133.7	7250.6
902.8434	1659.4828	8427.75	7544.55
902.9852	1661.222	8589.3	7704
903.127	1662.9606	8573.4	7691
903.2687	1664.6984	8349.85	7464.75
903.4105	1666.4354	7947.15	7061.55
903.5522	1668.1717	7400.7	6516.55
903.6939	1669.9072	6861.75	5978.4
903.8356	1671.642	6389.1	5502.15
903.9773	1673.3761	6010.3	5128.75
904.119	1675.1094	5719.95	4835.1
904.2606	1676.8419	5465.5	4581.6
904.4022	1678.5737	5295.55	4411.9
904.5439	1680.3048	5164.85	4282.85
904.6855	1682.0351	5055.95	4173.55
904.827	1683.7646	4961.3	4073.7
904.9686	1685.4934	4879.3	3997.15
905.1101	1687.2215	4809.4	3923.3
905.2517	1688.9488	4747.15	3863.15
905.3932	1690.6754	4694.5	3812.5
905.5347	1692.4012	4679.25	3797.4
905.6761	1694.1263	4644.9	3760.3
905.8176	1695.8506	4605.4	3721.2
905.9591	1697.5742	4562.45	3678.85
906.1005	1699.297	4542.1	3659.4
906.2419	1701.0191	4505.15	3622.5
906.3833	1702.7404	4476.7	3593.55
906.5246	1704.461	4443.45	3557.8
906.666	1706.1808	4429.45	3543
906.8073	1707.8999	4399.9	3515.3
906.9487	1709.6182	4363.55	3478.45
907.09	1711.3358	4362.05	3478.8
907.2313	1713.0527	4328.6	3446.15
907.3725	1714.7688	4299.5	3408.45
907.5138	1716.4841	4275.8	3390.65
907.655	1718.1987	4272.7	3385.55
907.7962	1719.9126	4250.3	3368.85
907.9374	1721.6257	4234.15	3348.5
908.0786	1723.338	4229.75	3345.85
908.2198	1725.0496	4189.5	3306.5
908.3609	1726.7605	4193.55	3311.5
908.502	1728.4706	4181.7	3298.5
908.6431	1730.18	4163.65	3278.1
908.7842	1731.8886	4147.15	3263.05
908.9253	1733.5964	4138.5	3251.05
909.0664	1735.3036	4137.7	3252.9
909.2074	1737.0099	4099.65	3216.85
909.3484	1738.7156	4104	3220.65
909.4894	1740.4204	4075.8	3188.9
909.6304	1742.1246	4057.9	3172.2
909.7714	1743.8279	4029.15	3147.2
909.9123	1745.5306	4023.35	3139.2
910.0532	1747.2325	4004.7	3119.45
910.1941	1748.9336	3988.5	3105.65
910.335	1750.634	3976.35	3092.85
910.4759	1752.3336	3962.25	3078.65
910.6168	1754.0325	3959.1	3076.95
910.7576	1755.7307	3959.6	3075.45
910.8984	1757.4281	3951.95	3068.15
911.0392	1759.1247	3933.05	3041.85
911.18	1760.8206	3906.5	3018.75
911.3208	1762.5158	3910.3	3024
911.4615	1764.2102	3893.25	3011.5
911.6022	1765.9039	3881.8	2996.2
911.7429	1767.5968	3876.4	2994.4
911.8836	1769.289	3872.1	2987.75
912.0243	1770.9804	3858.35	2976.55
912.1649	1772.6711	3869.15	2984.85
912.3056	1774.361	3841.1	2958.25
912.4462	1776.0502	3840.4	2956.5
912.5868	1777.7386	3817.35	2932
912.7274	1779.4263	3812.45	2927
912.8679	1781.1132	3804.4	2922.3
913.0084	1782.7994	3806.05	2920.7
913.149	1784.4849	3781.8	2900.35
913.2895	1786.1696	3800.5	2898.05
913.4299	1787.8535	3783.35	2899.75
913.5704	1789.5367	3757.95	2872.85
913.7108	1791.2192	3762.55	2879.7
913.8513	1792.9009	3746.25	2850.2
913.9917	1794.5818	3742.3	2857.85
914.132	1796.2621	3736.4	2854.3
914.2724	1797.9415	3730.7	2845.85
914.4128	1799.6202	3705.6	2822.05
914.5531	1801.2982	3701.45	2816.7
914.6934	1802.9755	3690.5	2804.9
914.8337	1804.6519	3692.8	2809.35
914.9739	1806.3277	3687.5	2804.7
915.1142	1808.0027	3678.7	2796.45
915.2544	1809.6769	3693	2808.55
915.3946	1811.3504	3657.55	2773.75
915.5348	1813.0231	3642.7	2759
915.675	1814.6951	3659.55	2775.95
915.8151	1816.3664	3660.2	2774.55
915.9553	1818.0369	3643.6	2759.3
916.0954	1819.7067	3642.9	2759.15
916.2355	1821.3757	3631.15	2746.6
916.3755	1823.044	3623.9	2739.4
916.5156	1824.7115	3624.45	2741.95
916.6556	1826.3783	3608.95	2727.8
916.7956	1828.0443	3597.5	2716.35
916.9356	1829.7096	3597.95	2713.35
917.0756	1831.3741	3596.95	2711.4
917.2155	1833.0379	3579	2697.3
917.3555	1834.701	3572.85	2687.95
917.4954	1836.3633	3564.35	2677.9
917.6353	1838.0248	3560.35	2674.7
917.7751	1839.6856	3554.1	2669.75
917.915	1841.3457	3549.4	2667.55
918.0548	1843.005	3545.55	2663.1
918.1946	1844.6636	3545.3	2662.95
918.3344	1846.3214	3534.25	2649.65
918.4742	1847.9785	3542.7	2662
918.6139	1849.6349	3537.35	2651.9
918.7537	1851.2904	3534.3	2642.7
918.8934	1852.9453	3524.35	2640.8
919.0331	1854.5994	3511.4	2625.9
919.1727	1856.2528	3523.65	2635.2
919.3124	1857.9054	3497.85	2615.2
919.452	1859.5572	3484.3	2602.1
919.5916	1861.2083	3493.4	2609.9
919.7312	1862.8587	3492.85	2610.45
919.8708	1864.5084	3487.1	2605
920.0103	1866.1572	3476.4	2594.8
920.1498	1867.8054	3457.35	2574.75
920.2893	1869.4528	3452.5	2568.7
920.4288	1871.0994	3442.15	2558.65
920.5683	1872.7453	3431.1	2547.15
920.7077	1874.3905	3455.3	2554.65
920.8471	1876.0349	3428.85	2544.35
920.9865	1877.6786	3430.4	2545.45
921.1259	1879.3215	3425.55	2542
921.2653	1880.9637	3406.1	2520.85
921.4046	1882.6051	3404.65	2521.55
921.5439	1884.2458	3392.4	2506.1
921.6832	1885.8858	3376.2	2491.75
921.8225	1887.525	3376.9	2490.7
921.9617	1889.1634	3374.2	2491.25
922.101	1890.8011	3358.2	2474
922.2402	1892.4381	3361	2477.6
922.3794	1894.0743	3359.85	2477.55
922.5185	1895.7098	3343.25	2460.9
922.6577	1897.3446	3326.55	2440.95
922.7968	1898.9786	3339.1	2453.25
922.9359	1900.6118	3340.6	2460.1
923.075	1902.2443	3313.55	2429.35
923.214	1903.8761	3314.05	2432.1
923.3531	1905.5071	3302.95	2416.55
923.4921	1907.1374	3297	2413.1
923.6311	1908.7669	3281.95	2400.2
923.77	1910.3957	3291.05	2409.65
923.909	1912.0237	3267.95	2384.25
924.0479	1913.651	3266.3	2382.6
924.1868	1915.2776	3271.15	2389.6
924.3257	1916.9034	3250.55	2367.7
924.4646	1918.5285	3233.7	2352.75
924.6034	1920.1528	3230.1	2348.05
924.7422	1921.7764	3230.15	2348.25
924.881	1923.3992	3225.95	2346.35
925.0198	1925.0213	3201.4	2317.4
925.1586	1926.6427	3196.3	2314.1
925.2973	1928.2633	3387.65	2268.1
925.436	1929.8832	3227.15	2339.5
925.5747	1931.5023	3188.9	2306.5
925.7134	1933.1207	3173.3	2290.85
925.852	1934.7383	3173.3	2292.75
925.9906	1936.3552	3173.15	2289.95
926.1292	1937.9714	3153.55	2269.65
926.2678	1939.5868	3144.85	2262.3
926.4064	1941.2015	3122.85	2237.6
926.5449	1942.8154	3125.4	2243.15
926.6834	1944.4286	3114.4	2229.65
926.8219	1946.041	3121.7	2213.95
926.9604	1947.6528	3100.35	2212.45
927.0988	1949.2637	3088.75	2208.25
927.2372	1950.8739	3080.15	2196.2
927.3756	1952.4834	3070.65	2188.9
927.514	1954.0921	3073	2188.7
927.6523	1955.7001	3075.75	2188.3
927.7907	1957.3074	3066.45	2183.6
927.929	1958.9139	3048.9	2163.7
928.0673	1960.5197	3033.15	2148
928.2055	1962.1247	3023.5	2140.85
928.3438	1963.729	3021.25	2140.1
928.482	1965.3325	3039.25	2133.15
928.6202	1966.9353	3007.65	2125.85
928.7584	1968.5374	2999.7	2115.9
928.8965	1970.1387	2990.85	2106.05
929.0346	1971.7393	2996.15	2113.4
929.1727	1973.3392	2964.95	2081.1
929.3108	1974.9383	2965.75	2083.95
929.4489	1976.5366	2960.45	2074.65
929.5869	1978.1342	2965.85	2081.85
929.7249	1979.7311	2956.75	2071.85
929.8629	1981.3273	2950.9	2070.65
930.0009	1982.9227	2949.05	2066.65
930.1388	1984.5173	2934.45	2050
930.2767	1986.1112	2927.35	2042.7
930.4146	1987.7044	2921.1	2039.4
930.5525	1989.2968	2913.8	2028.8
930.6904	1990.8885	2919.15	2031.4
930.8282	1992.4795	2914.25	2028.6
930.966	1994.0697	2898.8	2014.75
931.1038	1995.6592	2898.5	2015.65
931.2415	1997.2479	2884.3	2000.45
931.3793	1998.8359	2885.85	2003.8
931.517	2000.4232	2876.1	1993.95
931.6547	2002.0097	2863.5	1982.65
931.7923	2003.5955	2844.4	1962.2
931.93	2005.1805	2860.35	1974.25
932.0676	2006.7648	2842.95	1959.35
932.2052	2008.3484	2840.4	1955.15
932.3427	2009.9312	2851.35	1963.85
932.4803	2011.5133	2834.9	1952.55
932.6178	2013.0946	2828.45	1944.55
932.7553	2014.6752	2830.95	1949.8
932.8928	2016.2551	2826.85	1944.2
933.0302	2017.8342	2827.5	1943.95
933.1676	2019.4126	2808.85	1925.25
933.305	2020.9902	2806.4	1922.55
933.4424	2022.5672	2800.35	1915.5
933.5798	2024.1433	2797.1	1908.6
933.7171	2025.7188	2782.55	1900.7
933.8544	2027.2935	2775.2	1890.45
933.9917	2028.8674	2773.4	1892.4
934.129	2030.4406	2774.25	1891.2
934.2662	2032.0131	2753.1	1871.65
934.4034	2033.5849	2773.6	1879.55
934.5406	2035.1559	2755.1	1870.65
934.6778	2036.7261	2756.15	1873.95
934.8149	2038.2957	2736.35	1852.35
934.952	2039.8645	2746.05	1864.25
935.0891	2041.4325	2751.7	1865.65
935.2262	2042.9998	2725.4	1842.4
935.3632	2044.5664	2733.6	1849.45
935.5002	2046.1323	2723.2	1837.9
935.6372	2047.6974	2710.8	1829.4
935.7742	2049.2617	2713.5	1831.65
935.9111	2050.8254	2733.05	1815.65
936.048	2052.3883	2714.25	1831.65
936.1849	2053.9504	2710.6	1826.5
936.3218	2055.5118	2705.45	1821.9
936.4586	2057.0725	2680.35	1791.6
936.5955	2058.6325	2690.35	1805.75
936.7323	2060.1917	2681	1797.8
936.869	2061.7502	2676.05	1790.95
937.0058	2063.3079	2656.45	1775
937.1425	2064.8649	2665.75	1777.55
937.2792	2066.4212	2661.75	1778.7
937.4159	2067.9767	2646.3	1764
937.5525	2069.5315	2644.15	1759.1
937.6891	2071.0856	2627.05	1742.25
937.8257	2072.6389	2629.6	1746.65
937.9623	2074.1915	2621.95	1740.55
938.0989	2075.7433	2616.85	1731.95
938.2354	2077.2945	2621.35	1739.5
938.3719	2078.8448	2598.6	1714.05
938.5084	2080.3945	2602.05	1721.05
938.6448	2081.9434	2596	1712.95
938.7812	2083.4916	2592.85	1709.3
938.9176	2085.039	2591.65	1708.85
939.054	2086.5857	2585.4	1700.2
939.1903	2088.1317	2572.65	1691.25
939.3267	2089.677	2576.3	1692.8
939.463	2091.2215	2569.9	1686.3
939.5992	2092.7652	2561.1	1676.5
939.7355	2094.3083	2555.9	1671.1
939.8717	2095.8506	2559.45	1678.6
940.0079	2097.3921	2552.55	1669.35
940.1441	2098.933	2554.7	1673.25
940.2802	2100.4731	2547.75	1664.5
940.4163	2102.0124	2567.65	1666.4
940.5524	2103.5511	2536.8	1652.65
940.6885	2105.089	2529.05	1645.25
940.8245	2106.6261	2532.35	1648.65
940.9606	2108.1626	2526.55	1641.8
941.0965	2109.6983	2551.95	1641
941.2325	2111.2332	2523.85	1640.15
941.3684	2112.7675	2513.45	1629
941.5044	2114.301	2514.25	1629
941.6403	2115.8337	2500.8	1615.9
941.7761	2117.3657	2503.2	1619.7
941.912	2118.897	2500.55	1617.05
942.0478	2120.4276	2482.65	1594.05
942.1835	2121.9575	2479	1596.2
942.3193	2123.4866	2498.35	1601.25
942.455	2125.0149	2487.15	1600.6
942.5907	2126.5426	2471.9	1588.55
942.7264	2128.0695	2478.95	1592.05
942.8621	2129.5956	2468.6	1584.35
942.9977	2131.1211	2472.8	1584.85
943.1333	2132.6458	2461.05	1577.55
943.2689	2134.1698	2462.3	1579
943.4044	2135.693	2444.8	1559.55
943.54	2137.2155	2449.5	1562.05
943.6755	2138.7373	2446.15	1564
943.8109	2140.2584	2426.65	1543
943.9464	2141.7787	2434.95	1547.85
944.0818	2143.2983	2424.15	1541.2
944.2172	2144.8171	2425	1542.5
944.3526	2146.3353	2430.9	1544.9
944.4879	2147.8527	2411.85	1526.75
944.6232	2149.3693	2401.55	1517.3
944.7585	2150.8853	2408.4	1524.7
944.8938	2152.4005	2401.3	1518.25
945.029	2153.9149	2399.6	1518.65
945.1642	2155.4287	2389.75	1508.15
945.2994	2156.9417	2391.3	1507.15
945.4346	2158.454	2391.45	1505.1
945.5697	2159.9655	2382.6	1499.45
945.7048	2161.4764	2378.55	1495
945.8399	2162.9865	2371.85	1490.25
945.9749	2164.4958	2369.5	1484.05
946.1099	2166.0045	2369.9	1483.7
946.2449	2167.5124	2359.2	1474.85
946.3799	2169.0195	2359.2	1477.7
946.5148	2170.526	2347.4	1463.8
946.6498	2172.0317	2355.7	1472.5
946.7846	2173.5367	2357.05	1473.5
946.9195	2175.0409	2344.95	1461.55
947.0543	2176.5445	2346.7	1463.95
947.1891	2178.0473	2342.8	1458.3
947.3239	2179.5494	2339.65	1454.3
947.4587	2181.0507	2332.2	1448.85
947.5934	2182.5513	2319.5	1436.05
947.7281	2184.0512	2323.5	1440.65
947.8628	2185.5504	2314.35	1431.45
947.9974	2187.0488	2313.75	1430.15
948.132	2188.5465	2306.7	1423
948.2666	2190.0435	2296.85	1412.55
948.4012	2191.5397	2299.85	1417.1
948.5357	2193.0353	2291.6	1408.4
948.6702	2194.5301	2292.3	1408.9
948.8047	2196.0241	2287.25	1405.6
948.9392	2197.5175	2286.3	1402.3
949.0736	2199.0101	2295.85	1409.2
949.208	2200.502	2277.85	1395.25
949.3424	2201.9931	2258.55	1375.35
949.4767	2203.4835	2255.45	1371.15
949.611	2204.9733	2257.95	1367.55
949.7453	2206.4622	2250.95	1368.1
949.8796	2207.9505	2240.25	1353.35
950.0138	2209.438	2247.3	1367.1
950.148	2210.9248	2240.95	1355.7
950.2822	2212.4109	2231.95	1347.75
950.4164	2213.8962	2229	1344.85
950.5505	2215.3809	2231	1347.45
950.6846	2216.8648	2228.25	1344.7
950.8186	2218.3479	2234.15	1347.2
950.9527	2219.8304	2227.2	1341.1
951.0867	2221.3121	2214.25	1329.3
951.2207	2222.7931	2207.35	1323.5
951.3546	2224.2733	2197	1312.45
951.4886	2225.7529	2191.65	1307.6
951.6225	2227.2317	2184.2	1298.05
951.7563	2228.7098	2184.65	1301.4
951.8902	2230.1872	2179	1295.65
952.024	2231.6638	2184.2	1299.1
952.1578	2233.1397	2179.9	1288.55
952.2916	2234.6149	2165.95	1281.75
952.4253	2236.0894	2170.8	1285.65
952.559	2237.5632	2174.9	1281.05
952.6927	2239.0362	2160.1	1276.4
952.8263	2240.5085	2166.2	1282.15
952.9599	2241.9801	2145.1	1261.55
953.0935	2243.4509	2143.6	1260.95
953.2271	2244.921	2143.9	1262.15
953.3606	2246.3904	2133.1	1246.5
953.4941	2247.8591	2121.85	1237.75
953.6276	2249.3271	2138.8	1255.3
953.7611	2250.7943	2124.55	1239.75
953.8945	2252.2608	2121.3	1238.1
954.0279	2253.7266	2108.1	1226
954.1612	2255.1917	2111.95	1228.95
954.2946	2256.656	2106.7	1221.7
954.4279	2258.1197	2103.9	1219.45
954.5612	2259.5826	2093.15	1207.65
954.6944	2261.0447	2099.75	1214.85
954.8276	2262.5062	2095.9	1211.4
954.9608	2263.9669	2100.25	1216.4
955.094	2265.4269	2087.6	1203.95
955.2271	2266.8862	2086.9	1203.2
955.3602	2268.3448	2084.5	1200
955.4933	2269.8026	2085.95	1202.05
955.6264	2271.2598	2075.25	1188.75
955.7594	2272.7162	2067.9	1186.2
955.8924	2274.1719	2065.65	1183.5
956.0253	2275.6268	2066.4	1184.1
956.1583	2277.0811	2065.6	1181.05
956.2912	2278.5346	2061.5	1180.85
956.4241	2279.9874	2059.8	1176.3
956.5569	2281.4395	2054.05	1170.95
956.6897	2282.8908	2069	1179.05
956.8225	2284.3414	2062.7	1177.35
956.9553	2285.7914	2047.3	1166.8
957.088	2287.2406	2048.65	1162.6
957.2207	2288.689	2032.95	1149.75
957.3534	2290.1368	2036.1	1153.5
957.486	2291.5838	2034.05	1149.15
957.6186	2293.0302	2036.6	1151.25
957.7512	2294.4758	2035	1151.25
957.8838	2295.9206	2032.2	1147.1
958.0163	2297.3648	2012.8	1127.55
958.1488	2298.8082	2021.05	1136.65
958.2813	2300.251	2015	1130.9
958.4137	2301.693	2013.5	1128.45
958.5461	2303.1343	2010.9	1126.1
958.6785	2304.5748	2006.6	1124.9
958.8108	2306.0147	2006.65	1121.75
958.9432	2307.4538	2002.05	1115.6
959.0754	2308.8922	1994.9	1112.25
959.2077	2310.3299	1996.6	1112.95
959.3399	2311.7669	1989.9	1104.9
959.4721	2313.2031	1987	1101.8
959.6043	2314.6387	1982.9	1101.2
959.7365	2316.0735	1973.8	1090.75
959.8686	2317.5076	1977.25	1093.65
960.0006	2318.941	1969.2	1085.6
960.1327	2320.3737	1965.95	1082.5
960.2647	2321.8056	1974.1	1088.2
960.3967	2323.2369	1958.9	1074.5
960.5287	2324.6674	1963.45	1077.15
960.6606	2326.0972	1962.25	1075.7
960.7925	2327.5263	1953.4	1069.95
960.9244	2328.9547	1947.3	1062.35
961.0562	2330.3823	1952.15	1065.95
961.1881	2331.8092	1953.1	1066.35
961.3198	2333.2355	1961.55	1077.95
961.4516	2334.661	1945.15	1060.45
961.5833	2336.0858	1935.75	1053
961.715	2337.5098	1941.95	1057.4
961.8467	2338.9332	1928.55	1044.3
961.9783	2340.3558	1930.4	1043.1
962.1099	2341.7778	1929.8	1045.2
962.2415	2343.199	1929.65	1045.15
962.373	2344.6195	1923.3	1039.75
962.5045	2346.0393	1914.9	1031.85
962.636	2347.4583	1929.45	1044.3
962.7675	2348.8767	1919.35	1035.5
962.8989	2350.2943	1919.6	1034.65
963.0303	2351.7113	1925.3	1042
963.1617	2353.1275	1911.7	1030.15
963.293	2354.543	1926.4	1020.05
963.4243	2355.9578	1911.1	1026.4
963.5556	2357.3718	1900.6	1018.4
963.6868	2358.7852	1900.55	1011.55
963.818	2360.1978	1891.55	1007.1
963.9492	2361.6098	1888.5	1004.6
964.0803	2363.021	1893.65	1003.4
964.2114	2364.4315	1878.2	993.9
964.3425	2365.8413	1890.9	1006.2
964.4736	2367.2504	1885.7	1004.95
964.6046	2368.6587	1869.85	984.5
964.7356	2370.0664	1868.9	985.2
964.8666	2371.4733	1864.4	981.05
964.9975	2372.8795	1864.55	981.95
965.1284	2374.285	1862.4	978.2
965.2593	2375.6899	1858.85	977.3
965.3901	2377.0939	1852.1	966.15
965.5209	2378.4973	1845.3	962.95
965.6517	2379.9	1844.65	958.15
965.7825	2381.3019	1846.15	963.3
965.9132	2382.7032	1845.6	961.9
966.0439	2384.1037	1844.35	962.4
966.1745	2385.5035	1842.05	959.05
966.3051	2386.9027	1835.1	952
966.4357	2388.3011	1832.05	945.65
966.5663	2389.6987	1829.15	948
966.6968	2391.0957	1826.3	943.55
966.8273	2392.492	1830.5	948.3
966.9578	2393.8876	1815.3	931.85
967.0882	2395.2824	1820.15	935.5
967.2186	2396.6765	1807	926.8
967.349	2398.07	1801.9	917.45
967.4793	2399.4627	1805.1	921.75
967.6097	2400.8547	1800.5	918.35
967.7399	2402.246	1798.85	910.25
967.8702	2403.6366	1796.75	913.1
968.0004	2405.0265	1798.5	915.25
968.1306	2406.4156	1797.1	909.45
968.2607	2407.8041	1783.2	896.5
968.3909	2409.1918	1793.65	908.7
968.521	2410.5789	1786	904.45
968.651	2411.9652	1786.6	900.1
968.781	2413.3508	1768.7	887.65
968.911	2414.7358	1781.45	896.5
969.041	2416.12	1776.75	896.2
969.1709	2417.5035	1766.95	884.55
969.3008	2418.8863	1776	893.25
969.4307	2420.2684	1768.1	886
969.5606	2421.6497	1770.65	886.5
969.6904	2423.0304	1758	875.5
969.8201	2424.4104	1756.35	873.3
969.9499	2425.7896	1745.8	860.75
970.0796	2427.1682	1745.55	863.75
970.2093	2428.546	1748	863.95
970.3389	2429.9232	1737.7	854.1
970.4685	2431.2996	1741.9	858.5
970.5981	2432.6753	1738.25	856.8
970.7277	2434.0503	1741.15	858
970.8572	2435.4246	1731	849.45
970.9867	2436.7982	1735.35	850.95
971.1161	2438.1711	1718.5	836.95
971.2456	2439.5433	1724.5	842.7
971.375	2440.9148	1722.45	834.5
971.5043	2442.2856	1716.8	834.85
971.6336	2443.6557	1713.9	827.05
971.7629	2445.025	1716.5	832.4
971.8922	2446.3937	1708.2	824
972.0214	2447.7617	1699.7	816.5
972.1506	2449.1289	1716.25	834.25
972.2798	2450.4955	1703.55	817.65
972.4089	2451.8613	1704.9	824.2
972.538	2453.2265	1705.15	821.55
972.6671	2454.5909	1696.75	813.05
972.7961	2455.9546	1701.7	819.75
972.9251	2457.3177	1692.45	809.4
973.0541	2458.68	1687.6	802.65
973.1831	2460.0416	1701.05	817.7
973.312	2461.4025	1696	810.75
973.4408	2462.7627	1703.65	808
973.5697	2464.1222	1698.6	815.3
973.6985	2465.4811	1687	804.1
973.8273	2466.8392	1692.85	808.15
973.956	2468.1966	1688.85	804.15
974.0847	2469.5533	1684.05	798.6
974.2134	2470.9093	1686.1	800.65
974.3421	2472.2645	1689.75	802.75
974.4707	2473.6191	1677	794.35
974.5993	2474.973	1674.65	790
974.7278	2476.3262	1675.45	789.75
974.8563	2477.6787	1671.15	788.25
974.9848	2479.0305	1673.1	789.8
975.1132	2480.3816	1664.1	778.8
975.2417	2481.7319	1664.8	782.2
975.37	2483.0816	1659.1	773.15
975.4984	2484.4306	1668.25	785.4
975.6267	2485.7789	1661.2	779.8
975.755	2487.1264	1650.1	765.2
975.8833	2488.4733	1656.5	773.95
976.0115	2489.8195	1659.3	759.1
976.1397	2491.165	1641.15	751.2
976.2678	2492.5097	1646.7	761.9
976.3959	2493.8538	1638	754.9
976.524	2495.1972	1632.35	748.4
976.6521	2496.5398	1635.9	749.45
976.7801	2497.8818	1637.95	753.3
976.9081	2499.2231	1626.3	743.7
977.036	2500.5637	1630.55	742.45
977.164	2501.9035	1624.7	739.5
977.2918	2503.2427	1616.75	731.25
977.4197	2504.5812	1622.45	739.2
977.5475	2505.919	1624.5	740.1
977.6753	2507.256	1618.5	734.9
977.8031	2508.5924	1620.4	736.65
977.9308	2509.9281	1620	730.95
978.0585	2511.2631	1613.15	730.95
978.1861	2512.5974	1611.7	728.35
978.3137	2513.9309	1605.8	723.1
978.4413	2515.2638	1632.85	723.55
978.5689	2516.596	1609.5	724.9
978.6964	2517.9275	1610.55	725.6
978.8239	2519.2583	1605	720.85
978.9513	2520.5884	1595.75	709.6
979.0788	2521.9178	1599.55	714.8
979.2062	2523.2465	1590.9	708
979.3335	2524.5745	1591.05	706.9
979.4608	2525.9018	1581.05	697.95
979.5881	2527.2284	1592.55	712.5
979.7154	2528.5543	1582.6	701.7
979.8426	2529.8796	1586.25	702.1
979.9698	2531.2041	1588.5	706.15
980.0969	2532.5279	1584.35	701.75
980.224	2533.851	1582.55	698.95
980.3511	2535.1735	1584.1	700.45
980.4781	2536.4952	1582.85	700.75
980.6052	2537.8163	1592.9	709.55
980.7321	2539.1366	1582.55	701
980.8591	2540.4562	1575.05	690.4
980.986	2541.7752	1571.2	687.4
981.1129	2543.0935	1572.7	689.2
981.2397	2544.411	1579.95	696.35
981.3665	2545.7279	1574.15	690.75
981.4933	2547.0441	1573.85	691.25
981.62	2548.3596	1577.45	693.2
981.7467	2549.6744	1565.45	682.55
981.8734	2550.9885	1564.4	679.55
982.0001	2552.3019	1556.35	673.1
982.1267	2553.6146	1560.95	676.35
982.2532	2554.9266	1550.15	667.3
982.3798	2556.2379	1563.1	677.1
982.5063	2557.5485	1561.7	678.25
982.6327	2558.8585	1556.1	664.1
982.7592	2560.1677	1561.05	672.95
982.8856	2561.4762	1547.45	663.85
983.0119	2562.7841	1562.6	676.5
983.1383	2564.0913	1546.55	663.75
983.2646	2565.3977	1552.45	671
983.3908	2566.7035	1538.85	655.2
983.517	2568.0086	1549.75	665.7
983.6432	2569.313	1540.6	658.5
983.7694	2570.6167	1554.05	667.65
983.8955	2571.9197	1546.15	662.85
984.0216	2573.222	1539.7	653.5
984.1476	2574.5236	1537.9	653.1
984.2737	2575.8246	1544.9	657.4
984.3996	2577.1248	1540.6	653.35
984.5256	2578.4244	1541.75	658.4
984.6515	2579.7232	1537.3	654.7
984.7774	2581.0214	1571.8	655.8
984.9032	2582.3189	1540.75	658.75
985.029	2583.6157	1541.7	653.3
985.1548	2584.9118	1533.6	650.65
985.2806	2586.2072	1533.4	647.95
985.4063	2587.5019	1537.3	653.85
985.5319	2588.7959	1539.7	655.65
985.6576	2590.0893	1539.25	654.55
985.7832	2591.3819	1541.7	657.3
985.9087	2592.6739	1542.35	659.3
986.0343	2593.9652	1536.05	651.4
986.1597	2595.2557	1548.1	666.55
986.2852	2596.5456	1543	656.35
986.4106	2597.8348	1537.35	657.75
986.536	2599.1234	1532.3	649.75
986.6614	2600.4112	1543.75	659.25
986.7867	2601.6983	1546.7	658.35
986.912	2602.9848	1533.8	649.15
987.0372	2604.2705	1544.15	652.8
987.1624	2605.5556	1529.35	644.9
987.2876	2606.84	1535.7	653.6
987.4128	2608.1237	1535.15	650.25
987.5379	2609.4067	1526.4	642.45
987.6629	2610.689	1545.15	651.45
987.788	2611.9707	1535.15	650.15
987.913	2613.2516	1531.8	644.55
988.0379	2614.5319	1523.85	641.15
988.1629	2615.8115	1516.45	631.85
988.2878	2617.0903	1513.6	630.8
988.4126	2618.3685	1517.05	633.2
988.5375	2619.6461	1511.6	629.2
988.6622	2620.9229	1509.45	627.7
988.787	2622.199	1512.55	629.15
988.9117	2623.4745	1503	618.5
989.0364	2624.7493	1507.2	625.55
989.161	2626.0234	1505.95	622.35
989.2857	2627.2968	1507.15	624.45
989.4102	2628.5695	1507.5	624.2
989.5348	2629.8415	1501.35	618
989.6593	2631.1128	1504.8	621.45
989.7837	2632.3835	1505.35	623.65
989.9082	2633.6535	1502.65	618.15
990.0326	2634.9228	1503.9	620.1
990.1569	2636.1914	1503.25	620.5
990.2812	2637.4593	1493.4	607.7
990.4055	2638.7265	1500.1	615.75
990.5298	2639.9931	1493.3	612.3
990.654	2641.259	1494.8	611.4
990.7782	2642.5242	1501.2	616.8
990.9023	2643.7887	1493.4	610.6
991.0264	2645.0525	1490.2	607.2
991.1505	2646.3156	1492.55	606.55
991.2745	2647.5781	1483	600.8
991.3985	2648.8398	1475.5	592.85
991.5225	2650.1009	1515.05	592.6
991.6464	2651.3613	1482.75	599.1
991.7703	2652.6211	1481.8	597.25
991.8942	2653.8801	1479.45	595.45
992.018	2655.1385	1481.05	596.5
992.1418	2656.3961	1481.35	598.2
992.2655	2657.6531	1480.15	596.85
992.3892	2658.9094	1477	593.5
992.5129	2660.1651	1477.75	594.3
992.6366	2661.42	1479.55	595.9
992.7602	2662.6743	1484.05	596.9
992.8837	2663.9279	1477.15	594.9
993.0073	2665.1808	1482.15	598.95
993.1307	2666.433	1487.95	602.9
993.2542	2667.6846	1495.05	612.6
993.3776	2668.9354	1491.8	604.35
993.501	2670.1856	1492.85	608.6
993.6244	2671.4351	1494.4	611.45
993.7477	2672.6839	1502.7	619.25
993.8709	2673.9321	1489.1	606.2
993.9942	2675.1795	1495.05	610.9
994.1174	2676.4263	1498.6	615.95
994.2405	2677.6724	1499.6	615.2
994.3637	2678.9179	1504.55	622.35
994.4868	2680.1626	1502.2	618.65
994.6098	2681.4067	1496.05	611.65
994.7328	2682.6501	1503.1	618.35
994.8558	2683.8928	1489.45	605.3
994.9788	2685.1348	1493.2	610.3
995.1017	2686.3761	1489.85	606.85
995.2245	2687.6168	1477.8	594.05
995.3474	2688.8568	1480.2	596.55
995.4702	2690.0961	1474.55	591.2
995.5929	2691.3348	1483.7	599.95
995.7156	2692.5727	1481.2	597.8
995.8383	2693.81	1467.25	583.55
995.961	2695.0466	1465.65	583.35
996.0836	2696.2826	1465.4	579.45
996.2062	2697.5178	1484.55	583.9
996.3287	2698.7524	1465.3	581.55
996.4512	2699.9863	1473.2	589.3
996.5737	2701.2195	1473.4	591.5
996.6961	2702.452	1475.35	589.95
996.8185	2703.6839	1480.9	596.05
996.9408	2704.9151	1484.4	603
997.0631	2706.1456	1487.1	603.6
997.1854	2707.3755	1489.95	606.15
997.3077	2708.6046	1505.6	618.65
997.4299	2709.8331	1498.1	614.25
997.552	2711.0609	1512	629.5
997.6742	2712.2881	1515.5	631.85
997.7963	2713.5145	1533.25	647.55
997.9183	2714.7403	1531.25	649.05
998.0403	2715.9654	1545.9	660.2
998.1623	2717.1899	1572.5	675.75
998.2842	2718.4136	1573.6	691.15
998.4062	2719.6367	1571.05	687.35
998.528	2720.8591	1599.55	709.35
998.6498	2722.0809	1591.55	708.1
998.7716	2723.3019	1610.85	724.75
998.8934	2724.5223	1627.5	742.05
999.0151	2725.7421	1629.1	745.65
999.1368	2726.9611	1629.75	743.25
999.2584	2728.1795	1638	748.6
999.38	2729.3972	1622.45	738.6
999.5016	2730.6142	1619.25	723.5
999.6231	2731.8306	1592.7	707.65
999.7446	2733.0462	1584.4	699.4
999.8661	2734.2612	1562.8	673.2
999.9875	2735.4756	1550.35	664.5
1000.1089	2736.6892	1524.25	639.7
1000.2302	2737.9022	1512.5	631.05
1000.3515	2739.1145	1499.35	614.95
1000.4728	2740.3262	1509.05	617.35
1000.594	2741.5372	1488.45	604.5
1000.7152	2742.7475	1470.15	586.85
1000.8363	2743.9571	1456.8	570.7
1000.9575	2745.1661	1446.3	557.8
1001.0785	2746.3744	1436.7	553.1
1001.1996	2747.582	1433.95	549.45
1001.3206	2748.7889	1429.6	543.6
1001.4415	2749.9952	1418.8	534.35
1001.5625	2751.2008	1418.35	532
1001.6833	2752.4057	1414.3	529.2
1001.8042	2753.61	1404.1	518.9
1001.925	2754.8136	1405.95	519.7
1002.0458	2756.0165	1403.05	517.85
1002.1665	2757.2188	1398.2	516.7
1002.2872	2758.4204	1399.4	516.4
1002.4078	2759.6213	1397.5	515.05
1002.5285	2760.8215	1404.8	515.4
1002.649	2762.0211	1403.2	517
1002.7696	2763.22	1403.8	516.3
1002.8901	2764.4182	1390.35	506.35
1003.0106	2765.6158	1395.75	512.1
1003.131	2766.8127	1381.1	497.4
1003.2514	2768.009	1384.9	501.8
1003.3717	2769.2045	1382.55	497.3
1003.492	2770.3994	1392	506.35
1003.6123	2771.5936	1375.6	492.3
1003.7325	2772.7872	1369.45	487.65
1003.8527	2773.9801	1370.05	486.35
1003.9729	2775.1723	1388.4	485.55
1004.093	2776.3639	1368.1	484.3
1004.2131	2777.5548	1374.75	488.8
1004.3331	2778.745	1374.25	491.05
1004.4531	2779.9346	1374.05	490
1004.5731	2781.1235	1379.85	494.9
1004.693	2782.3117	1380.65	496.95
1004.8129	2783.4992	1383.65	500.1
1004.9328	2784.6861	1386.55	505.45
1005.0526	2785.8723	1390.35	505.95
1005.1723	2787.0579	1392.8	511.1
1005.2921	2788.2428	1401.6	518.05
1005.4118	2789.427	1406.4	523.35
1005.5314	2790.6106	1415.75	533.55
1005.651	2791.7935	1422.5	539.35
1005.7706	2792.9757	1432.1	550.1
1005.8902	2794.1573	1446.25	561.25
1006.0097	2795.3382	1448.85	564.95
1006.1291	2796.5184	1462.05	578.9
1006.2485	2797.698	1474.05	588
1006.3679	2798.8769	1493.95	610.8
1006.4873	2800.0551	1509.55	627.05
1006.6066	2801.2327	1524.3	638.65
1006.7258	2802.4096	1533.65	649.5
1006.8451	2803.5859	1554.7	670.6
1006.9642	2804.7615	1581.9	696.4
1007.0834	2805.9364	1598.85	717.35
1007.2025	2807.1106	1621.95	739.35
1007.3216	2808.2842	1654.7	769.2
1007.4406	2809.4572	1675.35	791.4
1007.5596	2810.6294	1717.35	833.1
1007.6785	2811.801	1751.65	870.5
1007.7975	2812.972	1793.75	911.05
1007.9163	2814.1423	1825.6	940.75
1008.0352	2815.3119	1873.1	989.35
1008.154	2816.4808	1930.6	1046.5
1008.2727	2817.6491	1968.1	1083.8
1008.3914	2818.8167	2024.65	1143.15
1008.5101	2819.9837	2084.15	1195.65
1008.6288	2821.15	2115.2	1231.8
1008.7474	2822.3157	2171.45	1287.6
1008.8659	2823.4807	2231.8	1349.25
1008.9844	2824.645	2285.15	1399.85
1009.1029	2825.8086	2334.2	1452.55
1009.2214	2826.9716	2379	1495.45
1009.3398	2828.134	2433.4	1551.7
1009.4581	2829.2957	2482.8	1603
1009.5764	2830.4567	2513.3	1631.1
1009.6947	2831.617	2527.95	1644.2
1009.813	2832.7767	2549.85	1668.2
1009.9312	2833.9358	2547.7	1664.9
1010.0493	2835.0941	2541.95	1656.55
1010.1675	2836.2519	2525.3	1642.8
1010.2855	2837.4089	2509.25	1623.9
1010.4036	2838.5653	2494.85	1613.5
1010.5216	2839.7211	2488.1	1605.35
1010.6396	2840.8761	2488.6	1603.9
1010.7575	2842.0306	2494.2	1613.1
1010.8754	2843.1843	2526.2	1643.75
1010.9932	2844.3374	2568.95	1685.35
1011.111	2845.4899	2612.6	1727.05
1011.2288	2846.6417	2666.5	1781.65
1011.3465	2847.7928	2733.3	1848.6
1011.4642	2848.9433	2813.15	1930.45
1011.5818	2850.0931	2890.75	2008.05
1011.6995	2851.2422	2948.4	2064.15
1011.817	2852.3907	3032.55	2150.55
1011.9345	2853.5385	3083.1	2198.55
1012.052	2854.6857	3151.95	2241.85
1012.1695	2855.8323	3199.95	2319.75
1012.2869	2856.9781	3254	2369.45
1012.4042	2858.1233	3276.05	2392.5
1012.5216	2859.2679	3347.7	2463.75
1012.6389	2860.4118	3398.4	2517.1
1012.7561	2861.555	3437.85	2548.3
1012.8733	2862.6976	3470.3	2586.35
1012.9905	2863.8395	3509.2	2626.4
1013.1076	2864.9808	3543.9	2661.4
1013.2247	2866.1214	3548.5	2666.3
1013.3417	2867.2614	3574.45	2691.25
1013.4587	2868.4007	3594.5	2707.35
1013.5757	2869.5393	3612.5	2728.75
1013.6926	2870.6773	3614.95	2730.35
1013.8095	2871.8146	3641.9	2756
1013.9263	2872.9513	3630.4	2746.15
1014.0431	2874.0874	3616.35	2734.25
1014.1599	2875.2227	3625.1	2741.75
1014.2766	2876.3574	3605.4	2720.85
1014.3933	2877.4915	3569.35	2686.4
1014.51	2878.6249	3557.7	2675.05
1014.6266	2879.7577	3525.5	2642.3
1014.7431	2880.8898	3518.65	2620.8
1014.8596	2882.0212	3490.8	2607.15
1014.9761	2883.152	3468.9	2585.75
1015.0925	2884.2821	3475.5	2591.9
1015.2089	2885.4116	3459.25	2576.4
1015.3253	2886.5405	3454.45	2570.15
1015.4416	2887.6686	3467.6	2579.6
1015.5579	2888.7962	3464.1	2584.15
1015.6741	2889.923	3473.8	2591.2
1015.7903	2891.0493	3479.25	2598.8
1015.9065	2892.1748	3507.35	2624.2
1016.0226	2893.2997	3504.5	2621
1016.1387	2894.424	3528.1	2645.9
1016.2547	2895.5476	3538.35	2655.15
1016.3707	2896.6706	3572.55	2691.3
1016.4866	2897.7929	3577.85	2691.8
1016.6025	2898.9145	3621.75	2739.7
1016.7184	2900.0355	3636.25	2752.55
1016.8342	2901.1559	3650.8	2764.85
1016.95	2902.2756	3698.55	2816.2
1017.0658	2903.3946	3741.4	2858.45
1017.1815	2904.513	3765.3	2879.65
1017.2971	2905.6308	3785.95	2904.35
1017.4127	2906.7479	3806	2923.25
1017.5283	2907.8643	3844.7	2961.3
1017.6439	2908.9801	3857.15	2974.5
1017.7594	2910.0953	3868.85	2988.65
1017.8748	2911.2098	3864.25	2978.9
1017.9902	2912.3236	3857.45	2965.55
1018.1056	2913.4368	3868.55	2984.15
1018.2209	2914.5494	3845.95	2962.5
1018.3362	2915.6613	3797.25	2905.45
1018.4515	2916.7725	3768.3	2882.25
1018.5667	2917.8831	3736.15	2852.8
1018.6819	2918.9931	3726.2	2840.75
1018.797	2920.1024	3683.8	2799
1018.9121	2921.211	3660	2778.4
1019.0271	2922.319	3629.95	2747.7
1019.1421	2923.4264	3629.7	2747.7
1019.2571	2924.5331	3615.15	2731.45
1019.372	2925.6391	3616.5	2732.9
1019.4869	2926.7445	3595.3	2715.2
1019.6017	2927.8493	3603.65	2721
1019.7165	2928.9534	3573.25	2690.1
1019.8313	2930.0569	3606.9	2721.25
1019.946	2931.1597	3594.25	2708.9
1020.0606	2932.2619	3594.55	2711.5
1020.1753	2933.3634	3586.45	2704.25
1020.2899	2934.4643	3586.55	2695.75
1020.4044	2935.5645	3586.15	2695.95
1020.5189	2936.6641	3559.75	2671.65
1020.6334	2937.763	3525.9	2643.35
1020.7478	2938.8613	3469.55	2587.4
1020.8622	2939.959	3428.8	2539.1
1020.9765	2941.056	3372.3	2490.95
1021.0908	2942.1523	3289.2	2402.9
1021.2051	2943.248	3206.95	2322.9
1021.3193	2944.3431	3096.75	2213.05
1021.4334	2945.4375	3006.5	2124.25
1021.5476	2946.5313	2903.8	2022.3
1021.6617	2947.6244	2813.1	1929.15
1021.7757	2948.7169	2702.5	1818
1021.8897	2949.8087	2623.1	1741.05
1022.0037	2950.8999	2517.15	1633.35
1022.1176	2951.9904	2437.2	1556.05
1022.2315	2953.0803	2359.6	1475.35
1022.3453	2954.1696	2298.2	1415.75
1022.4591	2955.2582	2243.5	1360.3
1022.5728	2956.3462	2210.15	1326
1022.6865	2957.4335	2158.8	1276.25
1022.8002	2958.5202	2125.3	1239.25
1022.9138	2959.6062	2095.5	1213.75
1023.0274	2960.6916	2078.8	1196.25
1023.141	2961.7764	2049.7	1165.4
1023.2545	2962.8605	2038.55	1154.25
1023.3679	2963.9439	2028.8	1145.55
1023.4813	2965.0267	2010.45	1126.9
1023.5947	2966.1089	2020.9	1115.1
1023.708	2967.1905	1998.1	1116.65
1023.8213	2968.2714	2003.85	1121.45
1023.9346	2969.3516	1986.55	1103.3
1024.0478	2970.4312	2007.2	1115.8
1024.1609	2971.5102	1994.05	1111.55
1024.274	2972.5885	1996	1112.8
1024.3871	2973.6662	2005.4	1119
1024.5002	2974.7432	2000.4	1118.3
1024.6132	2975.8196	1996.95	1114.9
1024.7261	2976.8954	1996.65	1114.95
1024.839	2977.9705	1972.6	1089.3
1024.9519	2979.045	1962.8	1081.15
1025.0647	2980.1188	1948.45	1064.6
1025.1775	2981.192	1933.75	1051
1025.2902	2982.2645	1913.4	1029.45
1025.4029	2983.3364	1899.8	1017.2
1025.5156	2984.4077	1865.2	981.95
1025.6282	2985.4783	1843.35	954.4
1025.7407	2986.5483	1805.2	922.3
1025.8532	2987.6177	1771.9	892.85
1025.9657	2988.6864	1744.8	862.05
1026.0782	2989.7545	1704.85	820.5
1026.1906	2990.8219	1677.4	793.7
1026.3029	2991.8887	1644.25	758.5
1026.4152	2992.9548	1609.2	725.05
1026.5275	2994.0204	1579.55	697.45
1026.6397	2995.0852	1546.7	662.95
1026.7519	2996.1495	1514.4	629.5
1026.864	2997.2131	1498.25	616.3
1026.9761	2998.276	1472.55	589.9
1027.0882	2999.3383	1459.3	574.35
1027.2002	3000.4	1437.5	552.2
1027.3122	3001.4611	1419.85	536.15
1027.4241	3002.5215	1406.3	522.15
1027.536	3003.5812	1383.45	499.75
1027.6478	3004.6404	1376.2	493.35
1027.7596	3005.6989	1363.75	480.9
1027.8714	3006.7567	1350.45	468.15
1027.9831	3007.8139	1373.35	466.3
1028.0947	3008.8705	1332.1	449.2
1028.2064	3009.9264	1345.15	444.45
1028.3179	3010.9818	1320.75	439.65
1028.4295	3012.0364	1311.6	427.05
1028.541	3013.0905	1309.9	425.85
1028.6524	3014.1439	1304	421.7
1028.7638	3015.1966	1300.65	417.7
1028.8752	3016.2487	1301.25	418
1028.9865	3017.3002	1302.35	415.35
1029.0978	3018.3511	1293.65	412.2
1029.209	3019.4013	1296.95	414.4
1029.3202	3020.4509	1292.9	409.95
1029.4314	3021.4998	1297.4	414.85
1029.5425	3022.5481	1284.65	402.7
1029.6535	3023.5958	1291.5	408.85
1029.7645	3024.6428	1290.5	408.2
1029.8755	3025.6892	1291.3	407.35
1029.9864	3026.735	1293.4	411.05
1030.0973	3027.7802	1295.9	411.1
1030.2082	3028.8247	1296.55	413.25
1030.319	3029.8685	1293	411.45
1030.4297	3030.9118	1305.85	423.25
1030.5404	3031.9544	1300.2	418.8
1030.6511	3032.9963	1304.9	421.95
1030.7617	3034.0376	1312.3	429.65
1030.8723	3035.0783	1321.45	435.45
1030.9829	3036.1184	1322.55	438.4
1031.0934	3037.1578	1327.9	446.8
1031.2038	3038.1966	1325.85	443
1031.3142	3039.2348	1316.7	434.4
1031.4246	3040.2723	1329.05	438.15
1031.5349	3041.3092	1322.85	441.15
1031.6452	3042.3455	1322.4	439.05
1031.7554	3043.3811	1314.65	430.45
1031.8656	3044.4161	1316.25	430.35
1031.9758	3045.4505	1318.05	437.05
1032.0859	3046.4842	1314.35	430.45
1032.1959	3047.5173	1304.05	422.15
1032.3059	3048.5498	1304	421.7
1032.4159	3049.5816	1292.5	409.25
1032.5258	3050.6128	1299.1	416.4
1032.6357	3051.6434	1290.4	407.4
1032.7455	3052.6734	1282.25	399.65
1032.8553	3053.7027	1285.6	400.4
1032.9651	3054.7314	1277.25	397.85
1033.0748	3055.7594	1272	390.1
1033.1845	3056.7868	1268.55	384.55
1033.2941	3057.8136	1259.95	378.65
1033.4037	3058.8398	1259.65	378.45
1033.5132	3059.8653	1254.8	372.45
1033.6227	3060.8902	1253.65	372.95
1033.7321	3061.9145	1247.65	364.9
1033.8415	3062.9381	1243.8	360.75
1033.9509	3063.9612	1259.3	362.15
1034.0602	3064.9835	1232.35	350.55
1034.1694	3066.0053	1232.6	347.8
1034.2787	3067.0264	1223.35	341
1034.3878	3068.0469	1224.05	337.2
1034.497	3069.0668	1221.95	338.15
1034.6061	3070.086	1201.95	320.75
1034.7151	3071.1046	1197.05	311.85
1034.8241	3072.1226	1193.45	309.75
1034.9331	3073.1399	1189.2	305.6
1035.042	3074.1567	1182.25	298.8
1035.1508	3075.1727	1169.5	284.2
1035.2597	3076.1882	1165.4	283.9
1035.3684	3077.203	1152.8	269.4
1035.4772	3078.2173	1149.6	266.3
1035.5859	3079.2308	1149.3	263.95
1035.6945	3080.2438	1133.4	249.05
1035.8031	3081.2561	1126.95	243.3
1035.9117	3082.2678	1121.25	240.25
1036.0202	3083.2789	1116.35	233.2
1036.1286	3084.2893	1109.6	226.95
1036.2371	3085.2991	1105.3	221.75
1036.3454	3086.3083	1106.1	220.4
1036.4538	3087.3169	1093.2	209.7
1036.562	3088.3248	1092.1	208.6
1036.6703	3089.3321	1088.7	203.9
1036.7785	3090.3388	1081.9	199
1036.8866	3091.3449	1079.9	197.35
1036.9948	3092.3503	1075.95	191.2
1037.1028	3093.3551	1069.85	190.45
1037.2108	3094.3593	1069.3	187.65
1037.3188	3095.3629	1066.9	185.05
1037.4267	3096.3658	1061.25	175.25
1037.5346	3097.3681	1062.05	180.3
1037.6425	3098.3698	1053.1	167.95
1037.7503	3099.3708	1063.9	176.25
1037.858	3100.3713	1052.35	168.95
1037.9657	3101.3711	1051.4	167.75
1038.0734	3102.3702	1181.05	158.05
1038.181	3103.3688	1046.55	160.3
1038.2886	3104.3667	1041	159.55
1038.3961	3105.364	1037.4	155.3
1038.5036	3106.3607	1043.2	157.95
1038.611	3107.3568	1034.9	151.1
1038.7184	3108.3522	1029.9	149.45
1038.8257	3109.347	1035.65	153.3
1038.933	3110.3412	1033.6	145.35
1039.0403	3111.3348	1029.4	149.25
1039.1475	3112.3277	1025.8	142.25
1039.2547	3113.32	1026.15	144.4
1039.3618	3114.3117	1024.5	140.15
1039.4689	3115.3028	1024.15	141.65
1039.5759	3116.2932	1024.8	138.75
1039.6829	3117.2831	1024	136.1
1039.7898	3118.2723	1018.6	135.75
1039.8967	3119.2608	1015.45	132.9
1040.0035	3120.2488	1019.05	135.4
1040.1103	3121.2361	1016	133.35
1040.2171	3122.2229	1009.35	127.25
1040.3238	3123.209	1010.95	127
1040.4305	3124.1944	1010.35	129.95
1040.5371	3125.1793	1009.4	125.6
1040.6437	3126.1635	1011.5	129.4
1040.7502	3127.1471	1006.85	124.15
1040.8567	3128.1301	1010.6	128.75
1040.9631	3129.1125	1004.1	123.1
1041.0695	3130.0942	1003.8	121.1
1041.1759	3131.0753	1012.65	122.15
1041.2822	3132.0558	1005.3	119.4
1041.3884	3133.0357	1001.2	117.45
1041.4946	3134.015	1002.7	120.3
1041.6008	3134.9936	1001.4	116.8
1041.7069	3135.9716	1020.15	117.55
1041.813	3136.949	995.3	112.4
1041.919	3137.9258	1013.65	112.8
1042.025	3138.902	1000.75	114.5
1042.1309	3139.8775	995.7	113.95
1042.2368	3140.8524	990.1	106.65
1042.3427	3141.8267	993.1	109
1042.4485	3142.8004	989.8	106.4
1042.5542	3143.7735	1000.05	109
1042.6599	3144.7459	990.3	106.45
1042.7656	3145.7178	987.4	104.6
1042.8712	3146.689	987.25	107.7
1042.9768	3147.6596	992.45	107.15
1043.0823	3148.6295	986.5	103.15
1043.1878	3149.5989	986.3	100.65
1043.2932	3150.5676	983.65	101.2
1043.3986	3151.5357	981.05	98.5
1043.5039	3152.5032	981.45	100.6
1043.6092	3153.4701	979.85	100
1043.7145	3154.4364	988	101.35
1043.8197	3155.402	978.05	96.8
1043.9248	3156.367	981.75	98.7
1044.03	3157.3315	1009.85	96.1
1044.135	3158.2952	980.15	97.7
1044.24	3159.2584	977.4	95.05
1044.345	3160.221	976.9	92.45
1044.4499	3161.1829	974.45	93.35
1044.5548	3162.1442	976.6	94.15
1044.6596	3163.105	979	98.95
1044.7644	3164.065	972.25	88.5
1044.8692	3165.0245	976.05	89.95
1044.9739	3165.9834	970.15	88.6
1045.0785	3166.9416	972.6	89.9
1045.1831	3167.8993	969.7	87.35
1045.2877	3168.8563	971.3	89.65
1045.3922	3169.8127	969.55	86.35
1045.4966	3170.7684	969.95	89
1045.6011	3171.7236	968.2	85.65
1045.7054	3172.6782	970.5	85.9
1045.8098	3173.6321	971.2	87.8
1045.914	3174.5854	971.05	82.9
1046.0183	3175.5381	970.05	88.5
1046.1224	3176.4902	965.5	83.05
1046.2266	3177.4417	964.45	80.05
1046.3307	3178.3926	966.45	85.5
1046.4347	3179.3428	963.5	80.95
1046.5387	3180.2924	962.4	83.2
1046.6427	3181.2415	965.2	82.9
1046.7466	3182.1899	963.85	78.15
1046.8504	3183.1377	962.9	82.2
1046.9542	3184.0848	969.75	83.15
1047.058	3185.0314	962.9	79.6
1047.1617	3185.9773	959.4	74.3
1047.2654	3186.9227	961.4	78.4
1047.369	3187.8674	959.8	75.3
1047.4726	3188.8115	960.85	73.4
1047.5761	3189.755	957.7	75.8
1047.6796	3190.6979	957.4	72.85
1047.783	3191.6402	958	76
1047.8864	3192.5818	958.6	74.75
1047.9898	3193.5229	977.1	72.9
1048.0931	3194.4633	955.75	73.75
1048.1963	3195.4031	957.5	74.55
1048.2995	3196.3423	955.7	72.55
1048.4027	3197.2809	956.95	74.2
1048.5058	3198.2189	956.45	73.45
1048.6089	3199.1563	972.05	73.65
1048.7119	3200.0931	957.45	74.9
1048.8148	3201.0292	952.3	69.75
1048.9178	3201.9648	950.85	69.1
1049.0206	3202.8997	955.35	70.2
1049.1235	3203.834	952.75	70.8
1049.2262	3204.7677	952.15	69.55
1049.329	3205.7008	950.95	66.9
1049.4317	3206.6333	951.3	67.35
1049.5343	3207.5652	951.75	66.15
1049.6369	3208.4964	953.75	71.9
1049.7394	3209.4271	947.95	67.25
1049.8419	3210.3571	948.25	67.85
1049.9444	3211.2865	952.15	70
1050.0468	3212.2154	951.45	70.65
1050.1491	3213.1436	950.5	65.75
1050.2514	3214.0712	952.45	61.25
1050.3537	3214.9982	949.1	65.7
1050.4559	3215.9246	949.3	68.65
1050.5581	3216.8503	947.85	67.15
1050.6602	3217.7755	947.35	64.15
1050.7623	3218.7001	945.65	62.95
1050.8643	3219.624	945.85	61.95
1050.9663	3220.5473	946.35	62.5
1051.0682	3221.4701	948.65	64.7
1051.1701	3222.3922	946.7	63.7
1051.2719	3223.3137	944.1	61.4
1051.3737	3224.2346	946.95	65.6
1051.4754	3225.1549	944.15	63
1051.5771	3226.0746	940.75	58.55
1051.6788	3226.9937	944.05	63.55
1051.7804	3227.9121	943	60.3
1051.8819	3228.83	943.85	62.05
1051.9834	3229.7473	943.55	62
1052.0849	3230.6639	942.35	60
1052.1863	3231.5799	940.35	57.6
1052.2876	3232.4954	940.7	56.7
1052.3889	3233.4102	942.65	60.3
1052.4902	3234.3244	938.5	55.15
1052.5914	3235.238	940	59.05
1052.6926	3236.151	960.8	55.1
1052.7937	3237.0634	938.3	56.2
1052.8948	3237.9752	942.15	58.6
1052.9958	3238.8864	940.65	58.75
1053.0968	3239.797	939.65	57.5
1053.1977	3240.7069	938.8	56.85
1053.2986	3241.6163	940.4	54.9
1053.3994	3242.5251	937.3	55.6
1053.5002	3243.4332	938.55	56.2
1053.6009	3244.3408	937.95	55.35
1053.7016	3245.2477	936.6	55.35
1053.8022	3246.154	935.55	51.55
1053.9028	3247.0598	937.7	55.8
1054.0034	3247.9649	934.55	52.65
1054.1039	3248.8694	935.15	54
1054.2043	3249.7733	933.35	49.25
1054.3047	3250.6766	931.5	49.3
1054.4051	3251.5793	937.2	49.5
1054.5054	3252.4814	933	51.9
1054.6056	3253.3829	932	51.45
1054.7058	3254.2838	930.95	48.8
1054.806	3255.1841	931.7	50.3
1054.9061	3256.0838	930.35	45.7
1055.0061	3256.9829	931.55	52.65
1055.1062	3257.8814	932.15	48.35
1055.2061	3258.7792	931.65	47.65
1055.306	3259.6765	931.5	50.1
1055.4059	3260.5731	930.5	48.6
1055.5057	3261.4692	930	47.75
1055.6055	3262.3647	926.15	42.05
1055.7052	3263.2595	925.3	42.15
1055.8049	3264.1538	927.55	44.65
1055.9045	3265.0474	923.95	40.35
1056.0041	3265.9404	925.4	44.5
1056.1036	3266.8329	922.7	40.75
1056.2031	3267.7247	935.05	42.05
1056.3025	3268.616	921.8	41.1
1056.4019	3269.5066	920.6	39.1
1056.5013	3270.3966	921.3	36.6
1056.6005	3271.286	918.6	37.75
