Software Version:	3.9.2.0
Unit SN:	10000200
Spectrometer SN:	6960
Date:	3/14/2024 12:44:46 PM
Data Line Index:	25
Spectral Points:	2048
Integration time (ms):	125
Averages:	20
Delay (ms):	30000
Sequence Number:	1
Processing:	dark subtract
Laser Power (mW):	300
Laser Current (mA):	823
Laser Diode Temp (C):	25.1
Laser Case Temp (C):	27.3
System Temp (C):	27.3
Spectrometer Temp (C):	24.9
CCD Temp (C):	0.01
Secondary Temp (C):	20.01
Heatsink Temp (C):	23.246
CCDPCB Temp (C):	36.985
SecondaryPCB Temp (C):	34.184

Wavelength	RamanShift	Raw Counts	Dark Subtracted
787.061	30.1047	418.85	6.75
787.2016	32.3739	417.15	7.45
787.3422	34.6426	420.6	9.5
787.4828	36.9109	422.05	9.2
787.6235	39.1787	424.2	6.1
787.7642	41.4461	429.35	6.65
787.9049	43.7131	435.05	9.6
788.0456	45.9796	436.3	8.4
788.1863	48.2456	443.3	11.15
788.3271	50.5112	445.75	7.15
788.4679	52.7764	449.7	9.95
788.6087	55.0411	451.2	9.55
788.7496	57.3054	459.5	14.6
788.8904	59.5692	459.25	10.75
789.0313	61.8326	465.2	9.95
789.1722	64.0955	472.45	14.3
789.3132	66.3579	479.15	16.55
789.4541	68.6199	486.7	22.05
789.5951	70.8815	493.05	24.25
789.7361	73.1426	505.9	34.55
789.8771	75.4032	535	58.4
790.0181	77.6634	594.95	115.15
790.1592	79.9231	733.5	249.4
790.3003	82.1824	1018.15	527.25
790.4414	84.4412	1513.1	1015.8
790.5825	86.6995	2157.1	1651.25
790.7237	88.9574	2779.75	2267.85
790.8648	91.2148	3236.5	2719.75
791.006	93.4717	3449	2928.25
791.1472	95.7282	3505.5	2980.05
791.2885	97.9842	3509.35	2980.65
791.4297	100.2398	3490.1	2961.8
791.571	102.4949	3479.3	2944.9
791.7123	104.7495	3458.3	2918.9
791.8536	107.0036	3429.55	2891.2
791.9949	109.2573	3391.9	2856.2
792.1363	111.5105	3356.95	2817.2
792.2777	113.7632	3286.6	2745.5
792.4191	116.0154	3231.6	2680.15
792.5605	118.2672	3183.35	2637.45
792.7019	120.5185	3125.65	2579.15
792.8434	122.7693	3060.6	2512.05
792.9849	125.0197	3014.6	2464.5
793.1264	127.2696	2971.45	2419.7
793.2679	129.519	2956.35	2401.35
793.4094	131.7679	2924.6	2364.9
793.551	134.0163	2936.8	2374.6
793.6926	136.2642	2932.4	2365.3
793.8342	138.5117	2931.25	2360.75
793.9758	140.7587	2912.7	2340.95
794.1175	143.0052	2876	2300.9
794.2591	145.2512	2855.8	2281.5
794.4008	147.4967	2825.1	2247.8
794.5425	149.7417	2780.8	2201.45
794.6842	151.9863	2756.65	2175.15
794.826	154.2304	2761.1	2176.1
794.9677	156.4739	2754.9	2163.75
795.1095	158.717	2760	2170.05
795.2513	160.9596	2772.7	2178.15
795.3931	163.2017	2782.9	2185.15
795.535	165.4433	2789.05	2188.45
795.6768	167.6844	2785.6	2183.35
795.8187	169.925	2777.35	2174.5
795.9606	172.1651	2743.1	2134.55
796.1025	174.4047	2722.9	2109.95
796.2445	176.6439	2684.85	2071.3
796.3864	178.8825	2668.65	2050.3
796.5284	181.1206	2662.1	2043.4
796.6704	183.3582	2639.9	2017.6
796.8124	185.5954	2639.3	2012.25
796.9544	187.832	2647	2017.95
797.0965	190.0681	2642	2010.95
797.2386	192.3037	2650.9	2016.95
797.3806	194.5388	2641	2004.25
797.5228	196.7734	2650.6	2011.5
797.6649	199.0075	2661.1	2018.95
797.807	201.2411	2679.8	2033.45
797.9492	203.4742	2680.55	2033.55
798.0914	205.7068	2708.3	2061.75
798.2336	207.9389	2713.65	2064.5
798.3758	210.1704	2710.75	2060.7
798.518	212.4015	2710.1	2056.25
798.6603	214.632	2713.45	2060.7
798.8025	216.862	2715.05	2067.15
798.9448	219.0915	2710.25	2065.65
799.0871	221.3205	2690.5	2052.8
799.2294	223.549	2703.8	2070.45
799.3718	225.777	2695.35	2062.25
799.5141	228.0044	2697.35	2059.95
799.6565	230.2314	2691.85	2058.55
799.7989	232.4578	2681.9	2044.7
799.9413	234.6837	2668.35	2024.75
800.0837	236.909	2678.75	2036.3
800.2262	239.1339	2675.1	2006.75
800.3687	241.3582	2655.45	2004.65
800.5111	243.582	2675	1995.9
800.6536	245.8053	2665.55	1994.45
800.7961	248.0281	2669.8	2002.1
800.9387	250.2503	2663.1	1988.85
801.0812	252.472	2683.1	2002
801.2238	254.6932	2683.85	2004.05
801.3664	256.9139	2675.35	1993.25
801.509	259.134	2679.65	1993.3
801.6516	261.3536	2686.6	2003.35
801.7942	263.5727	2696.4	2009.95
801.9369	265.7912	2716.1	2029.5
802.0795	268.0092	2767.75	2080.8
802.2222	270.2267	2798.55	2109.35
802.3649	272.4436	2806.1	2118.6
802.5076	274.6601	2822.65	2124.9
802.6504	276.8759	2840.8	2149.75
802.7931	279.0913	2859.65	2166.65
802.9359	281.3061	2857.9	2164.5
803.0787	283.5204	2872.35	2173.5
803.2215	285.7341	2880.6	2180.65
803.3643	287.9473	2888.9	2186.65
803.5071	290.16	2891.65	2185.35
803.6499	292.3721	2860.2	2157.7
803.7928	294.5837	2839.75	2134.6
803.9357	296.7947	2812.4	2108.1
804.0786	299.0052	2800.2	2094.9
804.2215	301.2152	2791.9	2083.1
804.3644	303.4246	2774.5	2069.05
804.5074	305.6334	2755.4	2048.65
804.6503	307.8418	2752.8	2042.8
804.7933	310.0495	2734.15	2024.55
804.9363	312.2568	2716.9	2008.15
805.0793	314.4635	2678.5	1968.3
805.2223	316.6696	2654.4	1942.4
805.3653	318.8752	2614.1	1893.45
805.5084	321.0802	2592.55	1877.75
805.6514	323.2847	2592.25	1877.55
805.7945	325.4887	2581.05	1864.85
805.9376	327.692	2601.8	1885.4
806.0807	329.8949	2621.55	1904.6
806.2238	332.0972	2645.9	1924.85
806.367	334.2989	2671.05	1947.05
806.5101	336.5001	2652.35	1930.3
806.6533	338.7007	2634.75	1909.8
806.7965	340.9008	2611.9	1886.5
806.9397	343.1003	2567.95	1840.85
807.0829	345.2992	2532.25	1804.75
807.2261	347.4976	2510.6	1778.6
807.3693	349.6955	2503.35	1767.45
807.5126	351.8927	2492	1756.2
807.6559	354.0895	2488.2	1742.05
807.7991	356.2856	2463.5	1726.35
807.9424	358.4812	2443.35	1704.95
808.0857	360.6763	2436.5	1697.35
808.2291	362.8707	2449.65	1709.15
808.3724	365.0646	2442.55	1699.75
808.5158	367.258	2437.8	1692.55
808.6591	369.4508	2448.1	1699.25
808.8025	371.643	2466.15	1721.3
808.9459	373.8346	2477.35	1730.65
809.0893	376.0257	2503	1748.7
809.2327	378.2162	2510.45	1756.4
809.3762	380.4062	2518	1762
809.5196	382.5956	2510.65	1754.05
809.6631	384.7844	2468.45	1715.1
809.8066	386.9726	2454.85	1697.4
809.9501	389.1603	2437.1	1678.8
810.0936	391.3474	2430.5	1642.65
810.2371	393.5339	2402.9	1646.55
810.3806	395.7199	2392.7	1640.3
810.5241	397.9052	2402.8	1650.8
810.6677	400.09	2422.3	1670.3
810.8113	402.2743	2452.3	1701
810.9548	404.4579	2476.5	1725.3
811.0984	406.641	2509.6	1757.9
811.2421	408.8235	2525.3	1773
811.3857	411.0054	2557.3	1803.85
811.5293	413.1868	2629.45	1874.2
811.673	415.3675	2690.45	1929.55
811.8166	417.5477	2720.4	1958.3
811.9603	419.7273	2641.3	1878.8
812.104	421.9064	2554.05	1784.35
812.2477	424.0848	2503.9	1737.6
812.3914	426.2627	2456.25	1683.8
812.5351	428.4399	2426.25	1656.6
812.6788	430.6166	2377.2	1603.3
812.8226	432.7928	2353.9	1580.55
812.9663	434.9683	2318.15	1542
813.1101	437.1432	2297.55	1521.4
813.2539	439.3176	2280.75	1506.5
813.3977	441.4914	2269.35	1491.85
813.5415	443.6645	2280.35	1499.3
813.6853	445.8371	2273.4	1490.9
813.8291	448.0091	2278.25	1498.9
813.973	450.1806	2276.85	1497
814.1168	452.3514	2261.85	1479
814.2607	454.5216	2251	1460.25
814.4046	456.6913	2251.05	1466.2
814.5485	458.8603	2243.5	1460.35
814.6924	461.0288	2245.3	1462.6
814.8363	463.1967	2251.4	1466.9
814.9802	465.3639	2239.5	1453.7
815.1241	467.5306	2237	1449.25
815.2681	469.6967	2227.7	1439.7
815.412	471.8622	2213.5	1426.2
815.556	474.0271	2220.7	1433.05
815.7	476.1914	2223.65	1431.85
815.844	478.3551	2209.15	1421.65
815.988	480.5182	2206.35	1414.55
816.132	482.6807	2209.7	1418.65
816.276	484.8426	2229.55	1439.5
816.4201	487.0039	2241.35	1450.2
816.5641	489.1647	2268.7	1476.15
816.7082	491.3248	2299.85	1508.9
816.8522	493.4843	2315.15	1522.3
816.9963	495.6432	2291.6	1498.35
817.1404	497.8015	2282.25	1485.6
817.2845	499.9592	2254.6	1458.25
817.4286	502.1163	2232	1435.85
817.5727	504.2728	2188.4	1392.3
817.7168	506.4287	2170.25	1374.95
817.861	508.5839	2160	1363.8
818.0051	510.7386	2157.95	1362.4
818.1493	512.8927	2167.7	1362.4
818.2935	515.0461	2170	1370.15
818.4377	517.199	2163.3	1364.75
818.5818	519.3512	2195.9	1395.55
818.726	521.5029	2232.9	1428.1
818.8703	523.6539	2261.35	1461.05
819.0145	525.8043	2263.35	1460.3
819.1587	527.9541	2249.45	1443.15
819.303	530.1033	2190.6	1386.35
819.4472	532.2519	2160.8	1356.05
819.5915	534.3999	2155.25	1349.4
819.7357	536.5472	2140.8	1335.55
819.88	538.694	2148.8	1344.65
820.0243	540.8401	2150.9	1343.1
820.1686	542.9856	2163.35	1355
820.3129	545.1305	2168.5	1360.7
820.4572	547.2748	2188	1382.35
820.6016	549.4185	2186.9	1376.95
820.7459	551.5615	2186.85	1380.35
820.8902	553.704	2188.5	1380.2
821.0346	555.8458	2202.9	1395.3
821.1789	557.987	2206.9	1398.35
821.3233	560.1276	2217.4	1405.95
821.4677	562.2675	2251.75	1444.1
821.6121	564.4069	2291.9	1482.9
821.7565	566.5456	2317.5	1510.05
821.9009	568.6837	2301.5	1488.3
822.0453	570.8212	2254.45	1442.1
822.1897	572.958	2225	1412.2
822.3342	575.0942	2193.9	1383.1
822.4786	577.2299	2176.8	1361
822.6231	579.3648	2143.7	1327.8
822.7675	581.4992	2122.9	1307.1
822.912	583.6329	2129.9	1313.4
823.0565	585.766	2136.3	1321.2
823.201	587.8985	2165.8	1352.3
823.3454	590.0304	2189.6	1361.05
823.4899	592.1616	2203.95	1383.35
823.6345	594.2922	2200.1	1383.3
823.779	596.4222	2196.05	1378.15
823.9235	598.5515	2152.55	1334.4
824.068	600.6802	2110.95	1291.75
824.2126	602.8083	2094.9	1274.6
824.3571	604.9358	2073.45	1253.3
824.5017	607.0626	2063.8	1243.85
824.6462	609.1888	2068.45	1245.35
824.7908	611.3144	2082.45	1262.55
824.9354	613.4393	2100.2	1279.3
825.08	615.5636	2143.75	1322.25
825.2246	617.6873	2161.8	1340.4
825.3692	619.8103	2197.5	1376.05
825.5138	621.9327	2189.9	1363.7
825.6584	624.0544	2163.95	1340.1
825.803	626.1756	2134.7	1313.2
825.9477	628.2961	2092.2	1266.8
826.0923	630.4159	2082.4	1258.05
826.237	632.5351	2070.55	1245.65
826.3816	634.6537	2073.05	1248.2
826.5263	636.7716	2056.55	1230.3
826.6709	638.8889	2060.1	1232.65
826.8156	641.0056	2061.3	1233.8
826.9603	643.1216	2069.9	1242.95
827.105	645.237	2083.05	1254.6
827.2497	647.3518	2062.55	1232.25
827.3944	649.4659	2042.9	1215
827.5391	651.5793	2031.4	1202.45
827.6838	653.6922	2033.7	1204.15
827.8285	655.8043	2003.2	1172.15
827.9733	657.9159	2010.85	1180.15
828.118	660.0268	2000.45	1166.95
828.2627	662.137	1995.4	1164.25
828.4075	664.2466	2001.15	1166.1
828.5522	666.3556	1989.75	1156.75
828.697	668.4639	1999.6	1165.15
828.8418	670.5716	1988.65	1155.4
828.9865	672.6786	1977.5	1143.9
829.1313	674.785	1983.8	1147.2
829.2761	676.8907	1974.2	1137.65
829.4209	678.9958	1968.85	1135.85
829.5657	681.1002	1963.4	1127.8
829.7105	683.204	1980.05	1143.7
829.8553	685.3072	1961.95	1124.55
830.0001	687.4097	1963.25	1129.1
830.1449	689.5115	1977.8	1138.75
830.2898	691.6127	1961.3	1124.9
830.4346	693.7132	1962.3	1124.45
830.5794	695.8131	1977.65	1126.35
830.7243	697.9123	1966.35	1127.55
830.8691	700.0109	1964.3	1124.7
831.014	702.1089	1963.4	1124.9
831.1588	704.2061	1981.35	1143.35
831.3037	706.3028	1983.1	1142.55
831.4486	708.3987	2003.2	1165.25
831.5935	710.4941	2004.4	1164.7
831.7383	712.5887	2014.6	1175.25
831.8832	714.6827	2012.5	1166.7
832.0281	716.7761	1997	1156.4
832.173	718.8688	1999.25	1157.9
832.3179	720.9608	1997.95	1152.35
832.4628	723.0522	2008.85	1162.55
832.6077	725.1429	2018.2	1177.75
832.7527	727.233	2043.1	1202.55
832.8976	729.3224	2077.55	1234.3
833.0425	731.4112	2101.1	1257.65
833.1874	733.4993	2116.65	1270.3
833.3324	735.5867	2093.8	1248.2
833.4773	737.6735	2054.95	1209.6
833.6222	739.7596	2019.4	1173.35
833.7672	741.845	2012.45	1167.15
833.9122	743.9298	2011.45	1165
834.0571	746.014	2027.85	1184.35
834.2021	748.0974	2040.45	1193.3
834.347	750.1802	2034.45	1188.9
834.492	752.2624	2021.3	1174.5
834.637	754.3439	2003.9	1157
834.782	756.4247	1991.65	1133.75
834.9269	758.5048	1993.15	1144.15
835.0719	760.5843	2000.75	1153.25
835.2169	762.6631	2001	1154.4
835.3619	764.7413	2022.1	1175.85
835.5069	766.8188	2080.9	1232.6
835.6519	768.8956	2113.2	1264
835.7969	770.9718	2148.2	1298.25
835.9419	773.0473	2152.05	1304
836.0869	775.1221	2130.65	1282.45
836.232	777.1962	2116.1	1265.15
836.377	779.2697	2147.85	1297.6
836.522	781.3426	2211.4	1347.9
836.667	783.4147	2242.65	1392.55
836.8121	785.4862	2248.85	1399.55
836.9571	787.557	2187.65	1340.2
837.1021	789.6271	2120.2	1270.25
837.2472	791.6966	2025.45	1174.55
837.3922	793.7654	1986.4	1135.1
837.5373	795.8335	1953.75	1101.9
837.6823	797.901	1912	1060.45
837.8274	799.9678	1919.15	1067.05
837.9724	802.0339	1904.45	1055.55
838.1175	804.0993	1921.3	1061.85
838.2626	806.1641	1911.3	1057.7
838.4076	808.2282	1896.25	1044.95
838.5527	810.2916	1883.35	1028.8
838.6978	812.3544	1882.7	1032.3
838.8428	814.4164	1867.4	1015.3
838.9879	816.4778	1879.65	1023.55
839.133	818.5385	1877.3	1024.7
839.2781	820.5986	1905	1052.95
839.4232	822.658	1934.5	1079.25
839.5682	824.7166	1963.8	1112.15
839.7133	826.7747	2013.45	1160
839.8584	828.832	2062.45	1207.8
840.0035	830.8886	2096.6	1240.15
840.1486	832.9446	2117.9	1260.8
840.2937	834.9999	2093.35	1239.6
840.4388	837.0545	2055.55	1196.7
840.5839	839.1085	1998.25	1143.25
840.729	841.1618	1947.65	1090.75
840.8741	843.2143	1914.65	1058.55
841.0192	845.2662	1889.65	1036.8
841.1643	847.3175	1883.9	1030.8
841.3095	849.368	1879.7	1022.8
841.4546	851.4179	1871.6	1016
841.5997	853.467	1861.4	1004.85
841.7448	855.5155	1874.15	1018.25
841.8899	857.5633	1872	1014.9
842.0351	859.6105	1872.2	1014.95
842.1802	861.6569	1856.65	1000.1
842.3253	863.7027	1851.8	994.25
842.4704	865.7478	1847.45	990.45
842.6156	867.7922	1842.3	985.6
842.7607	869.8359	1831.9	974.7
842.9058	871.8789	1831.9	974
843.0509	873.9212	1858.05	965.7
843.1961	875.9629	1830.55	971.5
843.3412	878.0039	1834.05	974.85
843.4863	880.0441	1836.1	976.1
843.6315	882.0837	1859.3	999.3
843.7766	884.1226	1867	1005.95
843.9218	886.1609	1883.85	1027.3
844.0669	888.1984	1913.3	1055.2
844.212	890.2352	1947.35	1088.25
844.3572	892.2714	1942.7	1081.55
844.5023	894.3069	1934.65	1073.05
844.6475	896.3416	1894.85	1033.2
844.7926	898.3757	1883.95	1023.6
844.9377	900.4091	1855.8	997
845.0829	902.4418	1854.65	990.2
845.228	904.4739	1872.1	1008.4
845.3732	906.5052	1880.25	1017.05
845.5183	908.5358	1870.15	1010.05
845.6635	910.5658	1861.2	998.05
845.8086	912.595	1845.85	983.85
845.9538	914.6236	1816.1	955.15
846.0989	916.6515	1793.6	932.65
846.2441	918.6786	1780.6	919
846.3892	920.7051	1778.95	916.4
846.5344	922.7309	1774.05	914.9
846.6795	924.756	1778.1	914.4
846.8246	926.7804	1782.35	915.4
846.9698	928.8041	1784.85	918.3
847.1149	930.8272	1791.95	930.3
847.2601	932.8495	1793	929.25
847.4052	934.8711	1803.55	938.75
847.5504	936.892	1801.95	937.45
847.6955	938.9123	1813.85	949.4
847.8407	940.9318	1830	967.2
847.9858	942.9506	1837.35	973.2
848.131	944.9688	1831.4	966.9
848.2761	946.9862	1806.05	941
848.4213	949.003	1782.2	915.15
848.5664	951.019	1779.6	913.95
848.7115	953.0344	1764	900.9
848.8567	955.0491	1759.15	893
849.0018	957.063	1746.25	880.55
849.147	959.0763	1749.2	884.75
849.2921	961.0888	1750.05	881.95
849.4373	963.1007	1746.05	881.35
849.5824	965.1119	1740.3	876.2
849.7275	967.1223	1733.95	868.45
849.8727	969.1321	1729.35	864.6
850.0178	971.1412	1720.65	856.6
850.1629	973.1495	1719.5	853.4
850.3081	975.1572	1759.9	841.2
850.4532	977.1641	1729	863.25
850.5983	979.1704	1720.1	853.95
850.7435	981.1759	1718.4	848.4
850.8886	983.1808	1710.7	841.35
851.0337	985.1849	1716.05	837.25
851.1788	987.1884	1690.7	820.35
851.324	989.1911	1702.85	832.75
851.4691	991.1932	1709.9	840.2
851.6142	993.1945	1696.75	828.65
851.7593	995.1951	1703.05	834.6
851.9045	997.1951	1704.6	831.75
852.0496	999.1943	1691.55	823.1
852.1947	1001.1928	1694.2	824.8
852.3398	1003.1906	1701.2	833.5
852.4849	1005.1877	1705.55	835.45
852.63	1007.1841	1721.5	852.4
852.7751	1009.1798	1732.25	865.15
852.9202	1011.1748	1720.5	853.55
853.0653	1013.1691	1705.55	835.1
853.2104	1015.1627	1688.2	818.7
853.3555	1017.1556	1663.3	794.55
853.5006	1019.1477	1656	786.7
853.6457	1021.1392	1630.15	762.1
853.7908	1023.1299	1637.35	768.1
853.9359	1025.12	1636.95	765.7
854.081	1027.1093	1636.75	766.8
854.2261	1029.0979	1640.55	773.65
854.3712	1031.0859	1652.4	783.65
854.5163	1033.0731	1671.35	802.1
854.6613	1035.0596	1661.85	794.8
854.8064	1037.0454	1656.25	785
854.9515	1039.0304	1638.95	767.85
855.0965	1041.0148	1632.4	761.65
855.2416	1042.9985	1619.85	749
855.3867	1044.9814	1606.75	738.25
855.5317	1046.9636	1602.45	731.55
855.6768	1048.9452	1605.05	733.2
855.8219	1050.926	1611.15	742.15
855.9669	1052.9061	1618.35	747.1
856.112	1054.8855	1629.15	758.05
856.257	1056.8642	1623.45	754.15
856.4021	1058.8421	1621.4	744
856.5471	1060.8194	1618.05	745.75
856.6921	1062.7959	1617.75	746.45
856.8372	1064.7717	1615.95	743.65
856.9822	1066.7469	1597.6	726.75
857.1272	1068.7213	1610.6	738.15
857.2723	1070.695	1610.3	739.1
857.4173	1072.6679	1629.25	758.5
857.5623	1074.6402	1650.45	780.15
857.7073	1076.6117	1650.8	775.35
857.8523	1078.5826	1630.45	756.7
857.9973	1080.5527	1614.2	739.15
858.1423	1082.5221	1581.9	708.5
858.2873	1084.4908	1573.7	701.75
858.4323	1086.4587	1560.3	689.4
858.5773	1088.426	1560.25	685.55
858.7223	1090.3925	1551.35	674
858.8673	1092.3584	1554.4	680.85
859.0123	1094.3235	1545.2	673.8
859.1573	1096.2879	1560.4	688.3
859.3022	1098.2515	1582.65	708.5
859.4472	1100.2145	1597.45	724.65
859.5922	1102.1767	1612.85	737.8
859.7371	1104.1382	1631.7	756.9
859.8821	1106.099	1658.05	781.4
860.027	1108.0591	1674.8	801.55
860.172	1110.0185	1703.7	826.85
860.3169	1111.9771	1723.9	850.4
860.4619	1113.9351	1752.35	878.9
860.6068	1115.8923	1784.25	908.55
860.7517	1117.8488	1800.35	923.55
860.8967	1119.8045	1769.5	894.45
861.0416	1121.7596	1719.65	844
861.1865	1123.7139	1656.95	784.95
861.3314	1125.6675	1625.4	753.55
861.4763	1127.6204	1616.1	741.2
861.6212	1129.5726	1624.55	748.2
861.7661	1131.524	1634.8	760.35
861.911	1133.4748	1609.9	734.2
862.0559	1135.4248	1573.95	698.85
862.2008	1137.3741	1551.25	676.05
862.3457	1139.3226	1528	651.25
862.4905	1141.2705	1529.8	654.35
862.6354	1143.2176	1537.85	656.35
862.7803	1145.164	1535.8	660.95
862.9251	1147.1097	1540.1	663.4
863.07	1149.0546	1525	646.9
863.2148	1150.9989	1510.6	636.25
863.3597	1152.9424	1498.65	621.35
863.5045	1154.8852	1482.2	607.35
863.6493	1156.8272	1473.85	598.3
863.7942	1158.7686	1482.75	600.35
863.939	1160.7092	1478.65	603.75
864.0838	1162.6491	1483.9	606.55
864.2286	1164.5883	1482.6	607.15
864.3734	1166.5267	1496	618.1
864.5182	1168.4644	1507.75	632.3
864.663	1170.4014	1522.95	642.05
864.8078	1172.3377	1536.75	663
864.9526	1174.2732	1567.9	692.4
865.0974	1176.2081	1615.85	739.9
865.2421	1178.1421	1671.85	792
865.3869	1180.0755	1743.95	868.55
865.5317	1182.0082	1786.1	909.75
865.6764	1183.9401	1773.05	894.9
865.8212	1185.8713	1713.6	836.9
865.9659	1187.8017	1643.6	767.95
866.1106	1189.7315	1584.5	707.4
866.2554	1191.6605	1560.6	655.75
866.4001	1193.5888	1507.35	631.05
866.5448	1195.5163	1495.45	620.4
866.6895	1197.4432	1478.75	599.6
866.8342	1199.3693	1467.65	590.5
866.9789	1201.2947	1467.2	582.2
867.1236	1203.2193	1454.8	578.7
867.2683	1205.1432	1448.85	572.05
867.413	1207.0664	1449.6	570.8
867.5576	1208.9889	1458	578.8
867.7023	1210.9106	1445	568.95
867.847	1212.8316	1441.75	564.65
867.9916	1214.7519	1462	572.5
868.1363	1216.6715	1453.25	576.45
868.2809	1218.5903	1468.25	591.95
868.4255	1220.5084	1468.15	591.6
868.5701	1222.4257	1475.75	597.85
868.7148	1224.3424	1482.05	604.85
868.8594	1226.2583	1490.7	610.65
869.004	1228.1735	1515.95	636.45
869.1486	1230.0879	1518.3	638.65
869.2932	1232.0016	1539.35	663.85
869.4377	1233.9146	1559	679.25
869.5823	1235.8269	1566.3	689.75
869.7269	1237.7384	1565.2	686.75
869.8715	1239.6492	1563.9	686.45
870.016	1241.5592	1579.35	700.7
870.1606	1243.4686	1600.65	722.2
870.3051	1245.3772	1637.4	761.3
870.4496	1247.285	1683.6	804.05
870.5941	1249.1922	1725.7	847.15
870.7387	1251.0986	1763.45	886.6
870.8832	1253.0042	1793.6	915.05
871.0277	1254.9092	1846.2	968.05
871.1722	1256.8134	1890.45	1011.95
871.3167	1258.7169	1935	1054.35
871.4611	1260.6196	1963.1	1086.25
871.6056	1262.5216	1970.9	1091.8
871.7501	1264.4229	1967.65	1090.25
871.8945	1266.3234	1947.25	1067.55
872.039	1268.2232	1925	1045.75
872.1834	1270.1223	1889	1008.55
872.3278	1272.0207	1859.95	980.5
872.4723	1273.9183	1855.75	971.6
872.6167	1275.8151	1857.15	980.25
872.7611	1277.7113	1874.45	992.85
872.9055	1279.6067	1923.9	1044.4
873.0499	1281.5014	1992	1107.3
873.1943	1283.3953	2089.05	1208.2
873.3386	1285.2885	2198.85	1320.35
873.483	1287.181	2272.85	1393.15
873.6274	1289.0727	2296.8	1418.15
873.7717	1290.9637	2276.4	1397.05
873.9161	1292.854	2214.75	1336.65
874.0604	1294.7435	2144.35	1263.75
874.2047	1296.6323	2085.2	1203.1
874.349	1298.5204	2036.35	1152.15
874.4933	1300.4077	1980.3	1099.15
874.6376	1302.2943	1952.35	1071.6
874.7819	1304.1802	1945.25	1065.45
874.9262	1306.0653	1919.45	1039.5
875.0705	1307.9497	1905.15	1025.1
875.2147	1309.8333	1888.65	1009
875.359	1311.7162	1869.9	989.45
875.5032	1313.5984	1860.25	977.25
875.6475	1315.4798	1847.85	954.8
875.7917	1317.3605	1856.1	958.75
875.9359	1319.2405	1837.7	954.7
876.0801	1321.1197	1841.15	956.85
876.2243	1322.9982	1818.25	933.75
876.3685	1324.876	1770.65	890.85
876.5127	1326.753	1727.5	846.85
876.6569	1328.6293	1677.65	797.05
876.801	1330.5048	1628	745.3
876.9452	1332.3796	1588	708
877.0893	1334.2537	1583.4	678.85
877.2335	1336.127	1522.2	640
877.3776	1337.9996	1507.5	626.5
877.5217	1339.8714	1500.55	621.35
877.6658	1341.7426	1530.8	605.8
877.8099	1343.6129	1490.45	609.45
877.954	1345.4826	1480.9	598.9
878.0981	1347.3515	1462.85	579.65
878.2422	1349.2196	1461.2	580.25
878.3862	1351.087	1451.6	570.45
878.5303	1352.9537	1455.5	573.35
878.6743	1354.8197	1454.1	573.3
878.8184	1356.6849	1459.2	578.5
878.9624	1358.5493	1468.2	586.05
879.1064	1360.4131	1476.55	596.55
879.2504	1362.276	1494.75	613.85
879.3944	1364.1383	1516.75	634.5
879.5384	1365.9998	1527.35	642.7
879.6823	1367.8606	1519.3	637.4
879.8263	1369.7206	1514.9	634.25
879.9702	1371.5799	1508.3	625.2
880.1142	1373.4384	1507.95	627.85
880.2581	1375.2962	1496.45	612.7
880.402	1377.1533	1458.8	579.25
880.5459	1379.0096	1434.45	551.95
880.6898	1380.8652	1410.85	530.1
880.8337	1382.7201	1401.1	519.2
880.9776	1384.5742	1387.55	504.6
881.1215	1386.4275	1375.4	493.35
881.2653	1388.2802	1368.65	488.15
881.4092	1390.132	1356.85	474.4
881.553	1391.9832	1352.95	468.15
881.6968	1393.8336	1350.7	468.55
881.8406	1395.6832	1346.75	460.4
881.9844	1397.5322	1338.2	457.35
882.1282	1399.3803	1334.55	446.8
882.272	1401.2278	1327.55	449
882.4158	1403.0745	1323.15	440.9
882.5595	1404.9204	1315.05	434.75
882.7033	1406.7656	1311.45	430
882.847	1408.6101	1307.55	424.25
882.9908	1410.4538	1308	426.2
883.1345	1412.2968	1305.25	422.4
883.2782	1414.139	1306.4	424.6
883.4219	1415.9805	1302.15	421.25
883.5656	1417.8213	1316.6	427.15
883.7092	1419.6613	1320.35	440.35
883.8529	1421.5006	1343.2	460.1
883.9965	1423.3391	1350.7	467.45
884.1402	1425.1769	1382.9	500.15
884.2838	1427.0139	1417.25	533.85
884.4274	1428.8502	1466.95	584.95
884.571	1430.6858	1504.45	621.3
884.7146	1432.5206	1516.45	637.2
884.8582	1434.3547	1519.7	638.05
885.0018	1436.188	1499.6	617.85
885.1453	1438.0206	1498.2	616.4
885.2889	1439.8524	1487.1	604
885.4324	1441.6835	1482.25	598.25
885.5759	1443.5139	1492.55	608.5
885.7194	1445.3435	1489.2	605.8
885.8629	1447.1724	1491.1	607.6
886.0064	1449.0005	1483.8	601.25
886.1499	1450.8279	1482.65	599.45
886.2933	1452.6545	1475.35	593.4
886.4368	1454.4804	1474.2	593
886.5802	1456.3056	1476.6	587.7
886.7237	1458.13	1453.3	569.9
886.8671	1459.9536	1441.65	558.75
887.0105	1461.7766	1428.7	545.2
887.1539	1463.5987	1404.25	520.1
887.2972	1465.4202	1390.4	508.15
887.4406	1467.2409	1360.9	477.45
887.584	1469.0608	1349.7	467.9
887.7273	1470.88	1329.45	445.85
887.8706	1472.6984	1319.3	437.4
888.0139	1474.5161	1305.35	420.25
888.1572	1476.3331	1297.05	413.5
888.3005	1478.1493	1293.5	410.5
888.4438	1479.9648	1289.15	406.85
888.5871	1481.7795	1284.95	401.45
888.7303	1483.5935	1290.8	410.2
888.8736	1485.4067	1282.15	398.85
889.0168	1487.2192	1285.8	402.15
889.16	1489.031	1290.6	403.3
889.3032	1490.842	1286.35	403.2
889.4464	1492.6522	1278.25	396.65
889.5896	1494.4618	1281	396.4
889.7327	1496.2705	1274.4	392.75
889.8759	1498.0785	1277.5	395.5
890.019	1499.8858	1268.95	385.1
890.1622	1501.6924	1270.5	388.55
890.3053	1503.4981	1262.1	380.15
890.4484	1505.3032	1264.05	380.7
890.5914	1507.1075	1261.2	378.4
890.7345	1508.911	1254.25	370.7
890.8776	1510.7138	1252.05	367.45
891.0206	1512.5159	1245.95	362.65
891.1637	1514.3172	1246.25	360.5
891.3067	1516.1178	1238.5	357.05
891.4497	1517.9176	1233.15	345
891.5927	1519.7166	1231.4	350.75
891.7357	1521.515	1235.75	345.5
891.8786	1523.3126	1227.05	343.55
892.0216	1525.1094	1222.95	336.95
892.1645	1526.9055	1222.8	341
892.3074	1528.7008	1220.45	336.45
892.4503	1530.4954	1220.75	334.55
892.5932	1532.2893	1215.25	333.5
892.7361	1534.0824	1215.1	326.05
892.879	1535.8747	1209.65	325.55
893.0218	1537.6663	1208.1	324.15
893.1647	1539.4572	1208.3	324.25
893.3075	1541.2473	1201.15	317.6
893.4503	1543.0367	1204.85	320.95
893.5931	1544.8253	1211.9	322.3
893.7359	1546.6132	1208.35	322.35
893.8787	1548.4003	1216.25	324.05
894.0214	1550.1867	1221.1	329.65
894.1642	1551.9723	1220.05	331.5
894.3069	1553.7572	1219.35	334.95
894.4496	1555.5414	1229.55	344.55
894.5923	1557.3247	1239.75	355.05
894.735	1559.1074	1259.65	375.7
894.8777	1560.8893	1272.05	389.35
895.0204	1562.6705	1293.9	407.75
895.163	1564.4509	1307.05	425.2
895.3056	1566.2305	1308.3	425.75
895.4482	1568.0094	1313.4	428.45
895.5908	1569.7876	1315.4	433.4
895.7334	1571.565	1310.15	425.2
895.876	1573.3417	1306.1	422.5
896.0186	1575.1176	1313.45	431.2
896.1611	1576.8928	1320.65	433.4
896.3036	1578.6672	1319.9	435.7
896.4461	1580.4409	1332.75	449.2
896.5886	1582.2138	1357.2	469.25
896.7311	1583.986	1378.5	494.8
896.8736	1585.7575	1384.5	499.1
897.0161	1587.5282	1408.4	525.9
897.1585	1589.2981	1416.25	531.1
897.3009	1591.0673	1420.35	536.45
897.4433	1592.8358	1421.5	538
897.5857	1594.6035	1425.45	538.5
897.7281	1596.3704	1418.1	534.95
897.8705	1598.1366	1401.75	518.6
898.0128	1599.9021	1393.3	510.4
898.1551	1601.6668	1378.65	493.65
898.2975	1603.4308	1372.15	485.25
898.4398	1605.194	1376.85	486.15
898.5821	1606.9564	1378.4	493.25
898.7243	1608.7182	1412.65	524.15
898.8666	1610.4791	1445.2	562.1
899.0088	1612.2394	1493.8	608.1
899.1511	1613.9988	1542.9	657.9
899.2933	1615.7576	1583.2	699.4
899.4355	1617.5156	1601.85	712.2
899.5776	1619.2728	1583.7	701.65
899.7198	1621.0293	1536.75	653.05
899.862	1622.785	1482.5	594.35
900.0041	1624.54	1420.65	533.1
900.1462	1626.2942	1374.2	486.6
900.2883	1628.0477	1321.35	434.9
900.4304	1629.8005	1287.75	398.35
900.5725	1631.5525	1252.45	367.35
900.7145	1633.3037	1222.75	337.95
900.8566	1635.0542	1202.8	317.65
900.9986	1636.804	1187.8	303.5
901.1406	1638.553	1237.5	289.85
901.2826	1640.3013	1167.9	284.85
901.4245	1642.0488	1161.85	276
901.5665	1643.7955	1145.3	262.15
901.7085	1645.5416	1146.85	263.35
901.8504	1647.2868	1135.15	250.15
901.9923	1649.0313	1135.65	250.4
902.1342	1650.7751	1133.05	244.05
902.2761	1652.5181	1129.6	244.25
902.4179	1654.2604	1127.35	241.95
902.5598	1656.0019	1132.15	248.25
902.7016	1657.7427	1132.95	248.75
902.8434	1659.4828	1144.55	258.15
902.9852	1661.222	1154.55	269.55
903.127	1662.9606	1174.35	290.8
903.2687	1664.6984	1181.05	297
903.4105	1666.4354	1191.45	306.3
903.5522	1668.1717	1186.1	301.65
903.6939	1669.9072	1163.05	278.9
903.8356	1671.642	1146.85	261.15
903.9773	1673.3761	1122	238.15
904.119	1675.1094	1109.25	227
904.2606	1676.8419	1101.45	217.75
904.4022	1678.5737	1096.5	210.4
904.5439	1680.3048	1090.15	204.35
904.6855	1682.0351	1084.2	199.85
904.827	1683.7646	1086.5	197.55
904.9686	1685.4934	1078.9	194.9
905.1101	1687.2215	1080.15	195.1
905.2517	1688.9488	1074.65	190.5
905.3932	1690.6754	1070.25	187.95
905.5347	1692.4012	1072.45	187.2
905.6761	1694.1263	1071.65	188.6
905.8176	1695.8506	1064.55	180.6
905.9591	1697.5742	1067	182.05
906.1005	1699.297	1068.9	183.5
906.2419	1701.0191	1063.15	178.65
906.3833	1702.7404	1067.2	183.45
906.5246	1704.461	1058.55	169.9
906.666	1706.1808	1061.65	175.1
906.8073	1707.8999	1062.55	175.3
906.9487	1709.6182	1056.35	170
907.09	1711.3358	1060.3	173.5
907.2313	1713.0527	1056.7	171.85
907.3725	1714.7688	1061.6	167.6
907.5138	1716.4841	1054	168
907.655	1718.1987	1058.05	169.9
907.7962	1719.9126	1048.95	166
907.9374	1721.6257	1053.85	165.75
908.0786	1723.338	1055.85	169.8
908.2198	1725.0496	1051.4	165.85
908.3609	1726.7605	1048.3	163.55
908.502	1728.4706	1050.05	164.8
908.6431	1730.18	1051.8	162.7
908.7842	1731.8886	1047.15	161.6
908.9253	1733.5964	1070.1	165.75
909.0664	1735.3036	1052.9	167.8
909.2074	1737.0099	1048.45	166
909.3484	1738.7156	1047.5	161.7
909.4894	1740.4204	1047.8	159.15
909.6304	1742.1246	1047	159.7
909.7714	1743.8279	1047.5	162.3
909.9123	1745.5306	1044.25	158.55
910.0532	1747.2325	1046.4	160.55
910.1941	1748.9336	1047.25	163.4
910.335	1750.634	1045.6	158.95
910.4759	1752.3336	1043.7	157.15
910.6168	1754.0325	1041.75	159.25
910.7576	1755.7307	1040.85	157.2
910.8984	1757.4281	1045.7	159.75
911.0392	1759.1247	1053.55	161.65
911.18	1760.8206	1045.3	155.95
911.3208	1762.5158	1048.1	159
911.4615	1764.2102	1037.25	152.6
911.6022	1765.9039	1038.35	151.2
911.7429	1767.5968	1038.5	152.15
911.8836	1769.289	1041.6	157.85
912.0243	1770.9804	1041.2	153.5
912.1649	1772.6711	1039	155.85
912.3056	1774.361	1037.8	151.4
912.4462	1776.0502	1043.95	159.65
912.5868	1777.7386	1038.15	150.4
912.7274	1779.4263	1039.35	152.65
912.8679	1781.1132	1037.3	151.7
913.0084	1782.7994	1039.55	151.2
913.149	1784.4849	1037.8	151.6
913.2895	1786.1696	1051.2	146.6
913.4299	1787.8535	1034.25	150.45
913.5704	1789.5367	1037.3	153.05
913.7108	1791.2192	1031.15	143.95
913.8513	1792.9009	1048.75	151.8
913.9917	1794.5818	1035.35	148.95
914.132	1796.2621	1029.55	146.7
914.2724	1797.9415	1029.15	141.55
914.4128	1799.6202	1035	150.05
914.5531	1801.2982	1030.35	145.9
914.6934	1802.9755	1034.95	147.95
914.8337	1804.6519	1029.6	142.75
914.9739	1806.3277	1030.4	145.6
915.1142	1808.0027	1032.05	147.3
915.2544	1809.6769	1034.7	149
915.3946	1811.3504	1029.75	143.15
915.5348	1813.0231	1027.3	140.65
915.675	1814.6951	1029.8	146.25
915.8151	1816.3664	1030.2	142.05
915.9553	1818.0369	1025.7	140.05
916.0954	1819.7067	1027.4	141.85
916.2355	1821.3757	1028	140.75
916.3755	1823.044	1027.8	143.9
916.5156	1824.7115	1025.85	138.6
916.6556	1826.3783	1024	140
916.7956	1828.0443	1025.1	141.15
916.9356	1829.7096	1024.6	137.5
917.0756	1831.3741	1030.3	141.75
917.2155	1833.0379	1025.95	139.65
917.3555	1834.701	1025.2	137.15
917.4954	1836.3633	1027.4	143.25
917.6353	1838.0248	1024.3	136.9
917.7751	1839.6856	1023.85	138.45
917.915	1841.3457	1020	136.1
918.0548	1843.005	1022.5	135.95
918.1946	1844.6636	1021.05	134.4
918.3344	1846.3214	1023.4	137.35
918.4742	1847.9785	1021	135.8
918.6139	1849.6349	1023.7	135.1
918.7537	1851.2904	1028	132.8
918.8934	1852.9453	1018.9	133.05
919.0331	1854.5994	1020.45	133.4
919.1727	1856.2528	1028	137.95
919.3124	1857.9054	1017.95	131.35
919.452	1859.5572	1013.8	129.65
919.5916	1861.2083	1021.45	132.85
919.7312	1862.8587	1017.9	133.2
919.8708	1864.5084	1023.2	136.55
920.0103	1866.1572	1016.45	132.65
920.1498	1867.8054	1018.1	132.15
920.2893	1869.4528	1017.5	133.05
920.4288	1871.0994	1019.4	134.2
920.5683	1872.7453	1012.65	125.95
920.7077	1874.3905	1022.4	130.3
920.8471	1876.0349	1010.25	123.4
920.9865	1877.6786	1015.1	127.85
921.1259	1879.3215	1011.9	125.9
921.2653	1880.9637	1017.4	130.75
921.4046	1882.6051	1014.45	128.25
921.5439	1884.2458	1013.65	126.45
921.6832	1885.8858	1014.1	130.35
921.8225	1887.525	1010.95	124.95
921.9617	1889.1634	1008.65	122.45
922.101	1890.8011	1012.8	125.7
922.2402	1892.4381	1014.2	128.75
922.3794	1894.0743	1008.9	125.1
922.5185	1895.7098	1010.85	126.1
922.6577	1897.3446	1010.85	124.4
922.7968	1898.9786	1012.9	124.8
922.9359	1900.6118	1004.85	119.15
923.075	1902.2443	1014.85	126.75
923.214	1903.8761	1006.85	121.55
923.3531	1905.5071	1008.1	121.05
923.4921	1907.1374	1013.15	127.1
923.6311	1908.7669	1007.85	122.05
923.77	1910.3957	1008.35	123.35
923.909	1912.0237	1007.55	120.55
924.0479	1913.651	1010.25	122.2
924.1868	1915.2776	1007.55	123.35
924.3257	1916.9034	1007.1	121.35
924.4646	1918.5285	1003.25	118.85
924.6034	1920.1528	1006.7	121.55
924.7422	1921.7764	1002.9	118
924.881	1923.3992	1008.1	125.85
925.0198	1925.0213	1004.45	117.55
925.1586	1926.6427	1000.45	114.8
925.2973	1928.2633	1117.05	121.2
925.436	1929.8832	1002.7	113.3
925.5747	1931.5023	999.75	115.3
925.7134	1933.1207	1000.75	114.6
925.852	1934.7383	1002.65	115.4
925.9906	1936.3552	1001	119.1
926.1292	1937.9714	999.7	114.15
926.2678	1939.5868	1004.35	117.3
926.4064	1941.2015	1002.55	116.45
926.5449	1942.8154	1003.35	118.45
926.6834	1944.4286	999.7	114.95
926.8219	1946.041	1020.6	110.75
926.9604	1947.6528	1004.1	113.45
927.0988	1949.2637	998.05	113.65
927.2372	1950.8739	1000.1	114.25
927.3756	1952.4834	1000.8	116.1
927.514	1954.0921	1002.05	114.7
927.6523	1955.7001	1000.05	111.25
927.7907	1957.3074	997.05	111.7
927.929	1958.9139	995.05	111.2
928.0673	1960.5197	999	113.4
928.2055	1962.1247	997.6	113
928.3438	1963.729	993.85	109.3
928.482	1965.3325	1018.45	107.3
928.6202	1966.9353	998.95	112.45
928.7584	1968.5374	993.45	107.1
928.8965	1970.1387	994.45	108.15
929.0346	1971.7393	991.5	103.6
929.1727	1973.3392	991.75	106.1
929.3108	1974.9383	994	108.5
929.4489	1976.5366	994.3	108.3
929.5869	1978.1342	995.15	108.7
929.7249	1979.7311	996	109.7
929.8629	1981.3273	994.85	107.5
930.0009	1982.9227	997.55	110.9
930.1388	1984.5173	990.7	106.1
930.2767	1986.1112	993.05	108.4
930.4146	1987.7044	989.6	104.45
930.5525	1989.2968	993	105.45
930.6904	1990.8885	997.4	108.8
930.8282	1992.4795	997.15	109.45
930.966	1994.0697	995.45	109.55
931.1038	1995.6592	993.8	106.95
931.2415	1997.2479	994.05	107.8
931.3793	1998.8359	989.35	103.9
931.517	2000.4232	990.4	105.75
931.6547	2002.0097	987.95	102.65
931.7923	2003.5955	990.65	103.1
931.93	2005.1805	992.7	106
932.0676	2006.7648	990.4	103.8
932.2052	2008.3484	991.6	105.3
932.3427	2009.9312	992.4	102.75
932.4803	2011.5133	987.3	100.85
932.6178	2013.0946	989.2	103.4
932.7553	2014.6752	991.75	105.95
932.8928	2016.2551	989.7	103.05
933.0302	2017.8342	992.6	106.6
933.1676	2019.4126	990.85	107.2
933.305	2020.9902	988.05	101.3
933.4424	2022.5672	990.95	103.35
933.5798	2024.1433	991.85	98.8
933.7171	2025.7188	990	103.9
933.8544	2027.2935	990.45	104.6
933.9917	2028.8674	992.7	107.9
934.129	2030.4406	987.6	102.4
934.2662	2032.0131	985	102.35
934.4034	2033.5849	991.6	100.45
934.5406	2035.1559	988.1	102.35
934.6778	2036.7261	990.5	105.1
934.8149	2038.2957	987.1	101.55
934.952	2039.8645	987.25	101.1
935.0891	2041.4325	990.5	101.65
935.2262	2042.9998	989.05	103.35
935.3632	2044.5664	988.7	102.25
935.5002	2046.1323	985.65	100.25
935.6372	2047.6974	986.9	101.55
935.7742	2049.2617	984.6	99.05
935.9111	2050.8254	1022.45	101.6
936.048	2052.3883	988.9	100.8
936.1849	2053.9504	986.75	100.95
936.3218	2055.5118	987.7	102.65
936.4586	2057.0725	988.4	97.35
936.5955	2058.6325	985.5	99.05
936.7323	2060.1917	985.65	100.15
936.869	2061.7502	985.9	98.4
937.0058	2063.3079	984.4	99.95
937.1425	2064.8649	989.2	98.8
937.2792	2066.4212	986.45	97.5
937.4159	2067.9767	986.75	101.6
937.5525	2069.5315	988.75	103.65
937.6891	2071.0856	986.6	101.7
937.8257	2072.6389	988.2	101.7
937.9623	2074.1915	983.35	97.8
938.0989	2075.7433	986.15	99.8
938.2354	2077.2945	984.6	100.9
938.3719	2078.8448	983.2	99.25
938.5084	2080.3945	985.85	99.45
938.6448	2081.9434	985.45	100.85
938.7812	2083.4916	985.35	99.85
938.9176	2085.039	984.25	97.25
939.054	2086.5857	984.05	98.05
939.1903	2088.1317	985.45	100.8
939.3267	2089.677	983.55	99.2
939.463	2091.2215	984.4	99.55
939.5992	2092.7652	980.85	93.85
939.7355	2094.3083	981.7	94.1
939.8717	2095.8506	982.9	100.35
940.0079	2097.3921	982.65	97.85
940.1441	2098.933	979	93.25
940.2802	2100.4731	984.45	98.25
940.4163	2102.0124	990.9	98.85
940.5524	2103.5511	981.15	94.05
940.6885	2105.089	983.1	96.5
940.8245	2106.6261	985.3	98.95
940.9606	2108.1626	985.35	98.5
941.0965	2109.6983	1010.35	97.5
941.2325	2111.2332	983.55	97.35
941.3684	2112.7675	984.55	98.4
941.5044	2114.301	985.15	97.25
941.6403	2115.8337	983	98.55
941.7761	2117.3657	982.6	96.45
941.912	2118.897	982.1	97.3
942.0478	2120.4276	986.25	94.85
942.1835	2121.9575	981.85	95.95
942.3193	2123.4866	997.9	99.85
942.455	2125.0149	987.65	95.55
942.5907	2126.5426	981.7	96.45
942.7264	2128.0695	985.6	95
942.8621	2129.5956	982.55	97.1
942.9977	2131.1211	984	94.9
943.1333	2132.6458	982.05	97.95
943.2689	2134.1698	977.9	92.5
943.4044	2135.693	982.2	94.85
943.54	2137.2155	984.6	96.1
943.6755	2138.7373	978.45	93.5
943.8109	2140.2584	980.1	93.9
943.9464	2141.7787	985.9	96.4
944.0818	2143.2983	980.35	94.85
944.2172	2144.8171	978.7	94.35
944.3526	2146.3353	980.35	91.7
944.4879	2147.8527	977.45	91.35
944.6232	2149.3693	980.1	94.95
944.7585	2150.8853	980.15	95
944.8938	2152.4005	977.8	91.15
945.029	2153.9149	979.15	91.65
945.1642	2155.4287	977.45	90.3
945.2994	2156.9417	979.8	92.65
945.4346	2158.454	981.9	95.7
945.5697	2159.9655	979.65	92.35
945.7048	2161.4764	978.6	92.1
945.8399	2162.9865	974.05	86.4
945.9749	2164.4958	981.65	95.05
946.1099	2166.0045	984.55	96.5
946.2449	2167.5124	978.35	93.65
946.3799	2169.0195	977.75	91.2
946.5148	2170.526	976.75	88
946.6498	2172.0317	978.25	92.2
946.7846	2173.5367	977.55	91.65
946.9195	2175.0409	979.15	93.65
947.0543	2176.5445	977.6	93.85
947.1891	2178.0473	976.6	89.45
947.3239	2179.5494	981.4	93.2
947.4587	2181.0507	976.75	89.6
947.5934	2182.5513	975.6	88.1
947.7281	2184.0512	976	89.95
947.8628	2185.5504	975.35	89.35
947.9974	2187.0488	977.75	91.75
948.132	2188.5465	976.5	92.4
948.2666	2190.0435	976.65	90.65
948.4012	2191.5397	977.1	90.65
948.5357	2193.0353	974.3	89.55
948.6702	2194.5301	972.55	86.35
948.8047	2196.0241	975.9	89.35
948.9392	2197.5175	979.5	93.05
949.0736	2199.0101	976.85	86.5
949.208	2200.502	971.35	86.55
949.3424	2201.9931	974.15	89.2
949.4767	2203.4835	978.05	89.85
949.611	2204.9733	979.9	90.2
949.7453	2206.4622	970.6	84.65
949.8796	2207.9505	977.05	88.3
950.0138	2209.438	975.55	89.9
950.148	2210.9248	975.65	87.75
950.2822	2212.4109	970.75	84.75
950.4164	2213.8962	973.55	86.4
950.5505	2215.3809	972.35	86.1
950.6846	2216.8648	969.8	83.45
950.8186	2218.3479	975	85.9
950.9527	2219.8304	973.2	84.45
951.0867	2221.3121	969.8	81.95
951.2207	2222.7931	974.5	90.5
951.3546	2224.2733	973.65	86.2
951.4886	2225.7529	972.2	86
951.6225	2227.2317	974.25	85.15
951.7563	2228.7098	970.05	83.7
951.8902	2230.1872	971.15	86.15
952.024	2231.6638	972.45	86.35
952.1578	2233.1397	971.6	83.95
952.2916	2234.6149	971.4	88.05
952.4253	2236.0894	969.65	83.6
952.559	2237.5632	978.65	83.65
952.6927	2239.0362	970.7	84.85
952.8263	2240.5085	970.1	85.3
952.9599	2241.9801	966.7	80.3
953.0935	2243.4509	966.9	81.15
953.2271	2244.921	966.55	80.55
953.3606	2246.3904	973.5	85.75
953.4941	2247.8591	966.45	80.25
953.6276	2249.3271	965.3	79.5
953.7611	2250.7943	967.5	82.2
953.8945	2252.2608	969.55	84.35
954.0279	2253.7266	966.25	80.75
954.1612	2255.1917	966.2	79.35
954.2946	2256.656	965.4	76.9
954.4279	2258.1197	965.4	80.35
954.5612	2259.5826	969.15	81.75
954.6944	2261.0447	964.8	78.8
954.8276	2262.5062	968.4	80.05
954.9608	2263.9669	967.2	79.3
955.094	2265.4269	966.75	81.45
955.2271	2266.8862	963.9	79.25
955.3602	2268.3448	964.6	79
955.4933	2269.8026	965.55	78.45
955.6264	2271.2598	967.7	81
955.7594	2272.7162	962.05	77.45
955.8924	2274.1719	965.55	78.2
956.0253	2275.6268	964.75	79.15
956.1583	2277.0811	964.85	78.95
956.2912	2278.5346	965.35	80.4
956.4241	2279.9874	961.6	76.45
956.5569	2281.4395	964.1	79
956.6897	2282.8908	969.65	77.65
956.8225	2284.3414	965	76.3
956.9553	2285.7914	962.7	75.9
957.088	2287.2406	964.85	75.8
957.2207	2288.689	962.7	78.55
957.3534	2290.1368	963.2	77.25
957.486	2291.5838	963.6	77.15
957.6186	2293.0302	962.45	76.3
957.7512	2294.4758	964.85	79.65
957.8838	2295.9206	965.7	78.15
958.0163	2297.3648	960.4	76.75
958.1488	2298.8082	964.6	78.05
958.2813	2300.251	959.75	74.05
958.4137	2301.693	963.15	74.15
958.5461	2303.1343	961.15	75.45
958.6785	2304.5748	961.75	75.5
958.8108	2306.0147	963.75	77.8
958.9432	2307.4538	965.3	77.6
959.0754	2308.8922	958.95	73.5
959.2077	2310.3299	960.65	77.15
959.3399	2311.7669	961.4	75.35
959.4721	2313.2031	960.6	74.75
959.6043	2314.6387	960.3	74.2
959.7365	2316.0735	957	71.5
959.8686	2317.5076	959.15	73.35
960.0006	2318.941	960.15	74.25
960.1327	2320.3737	959.25	72.4
960.2647	2321.8056	959.25	72.45
960.3967	2323.2369	961.5	74.6
960.5287	2324.6674	966.25	78.85
960.6606	2326.0972	963.7	77.3
960.7925	2327.5263	965.15	78.95
960.9244	2328.9547	968.2	82.7
961.0562	2330.3823	965	78.75
961.1881	2331.8092	963.75	75.5
961.3198	2333.2355	957.65	70.35
961.4516	2334.661	957.3	69.65
961.5833	2336.0858	959.3	73.95
961.715	2337.5098	956.05	68.85
961.8467	2338.9332	957.6	71.9
961.9783	2340.3558	958.85	70.8
962.1099	2341.7778	960	74.1
962.2415	2343.199	957.6	69
962.373	2344.6195	955.15	70.15
962.5045	2346.0393	954.85	71.55
962.636	2347.4583	954.45	66.45
962.7675	2348.8767	954.4	67.05
962.8989	2350.2943	951.2	64.55
963.0303	2351.7113	956.2	69.8
963.1617	2353.1275	951.5	65.6
963.293	2354.543	963.3	69.75
963.4243	2355.9578	958.2	73.1
963.5556	2357.3718	952.6	66.5
963.6868	2358.7852	955.5	65.9
963.818	2360.1978	956.15	68.2
963.9492	2361.6098	951.7	66.95
964.0803	2363.021	958.9	70.55
964.2114	2364.4315	955.85	70.55
964.3425	2365.8413	953.5	65.05
964.4736	2367.2504	952	67.3
964.6046	2368.6587	953.4	67.95
964.7356	2370.0664	951.8	66.3
964.8666	2371.4733	949.8	62.15
964.9975	2372.8795	952.2	66.5
965.1284	2374.285	951.1	66.3
965.2593	2375.6899	951.3	64.45
965.3901	2377.0939	950.05	65.55
965.5209	2378.4973	952.9	68.25
965.6517	2379.9	952.05	65.25
965.7825	2381.3019	951.85	67.4
965.9132	2382.7032	950.55	63.2
966.0439	2384.1037	948.35	62.05
966.1745	2385.5035	950.25	63.55
966.3051	2386.9027	951	66.4
966.4357	2388.3011	954.35	65.85
966.5663	2389.6987	950.15	63.75
966.6968	2391.0957	948.8	65
966.8273	2392.492	948.45	62.2
966.9578	2393.8876	945.65	61.7
967.0882	2395.2824	949.9	63.45
967.2186	2396.6765	948.75	65.45
967.349	2398.07	949.3	64.65
967.4793	2399.4627	950.15	63.6
967.6097	2400.8547	946.8	58.7
967.7399	2402.246	953.5	58.95
967.8702	2403.6366	947.15	59.65
968.0004	2405.0265	946.35	62.4
968.1306	2406.4156	949.1	59.35
968.2607	2407.8041	948.5	60.8
968.3909	2409.1918	951.25	63.25
968.521	2410.5789	946.35	60.75
968.651	2411.9652	947.1	58.8
968.781	2413.3508	945.45	59.15
968.911	2414.7358	947.9	60.6
969.041	2416.12	944.75	59.45
969.1709	2417.5035	944.85	59.75
969.3008	2418.8863	944.55	56.65
969.4307	2420.2684	945	60.45
969.5606	2421.6497	947.05	61.1
969.6904	2423.0304	944	59.05
969.8201	2424.4104	944.5	58.25
969.9499	2425.7896	950.85	58.7
970.0796	2427.1682	946	57.95
970.2093	2428.546	944.75	57.5
970.3389	2429.9232	943.85	56.15
970.4685	2431.2996	942.5	55.95
970.5981	2432.6753	944	57
970.7277	2434.0503	941.4	55.7
970.8572	2435.4246	941.8	55.5
970.9867	2436.7982	944.85	56.6
971.1161	2438.1711	940.75	54.75
971.2456	2439.5433	943.3	56.5
971.375	2440.9148	949	56.05
971.5043	2442.2856	940.75	53.1
971.6336	2443.6557	940.8	53.4
971.7629	2445.025	942.95	57.75
971.8922	2446.3937	943.25	57.2
972.0214	2447.7617	940.65	54.35
972.1506	2449.1289	938.5	52.7
972.2798	2450.4955	944.85	54.95
972.4089	2451.8613	938.25	52.55
972.538	2453.2265	939.4	53.7
972.6671	2454.5909	941.75	55.9
972.7961	2455.9546	939.95	53.95
972.9251	2457.3177	940.6	55.5
973.0541	2458.68	942	53.05
973.1831	2460.0416	938.4	54.2
973.312	2461.4025	942.4	55.35
973.4408	2462.7627	952.55	53.7
973.5697	2464.1222	940.45	55.9
973.6985	2465.4811	942.35	55.35
973.8273	2466.8392	938.3	50.15
973.956	2468.1966	942.5	54.55
974.0847	2469.5533	943.85	55.75
974.2134	2470.9093	941.05	55.65
974.3421	2472.2645	941.9	49.2
974.4707	2473.6191	940.9	54.8
974.5993	2474.973	941.2	54.15
974.7278	2476.3262	943.85	56.95
974.8563	2477.6787	936.05	52.65
974.9848	2479.0305	935.15	49.3
975.1132	2480.3816	937.7	49.3
975.2417	2481.7319	935.3	50.6
975.37	2483.0816	940.3	51.55
975.4984	2484.4306	937.9	51.4
975.6267	2485.7789	935.7	53.1
975.755	2487.1264	940.85	51.05
975.8833	2488.4733	935.35	53.65
976.0115	2489.8195	954.5	51.45
976.1397	2491.165	939.75	51.15
976.2678	2492.5097	942.8	53.55
976.3959	2493.8538	937.5	52.45
976.524	2495.1972	940.65	54.6
976.6521	2496.5398	938.4	50.8
976.7801	2497.8818	939.1	50.15
976.9081	2499.2231	934.35	48.1
977.036	2500.5637	935.5	46.15
977.164	2501.9035	935.9	50.2
977.2918	2503.2427	940.6	50.6
977.4197	2504.5812	936.9	49.65
977.5475	2505.919	936.95	48.8
977.6753	2507.256	935.45	50.85
977.8031	2508.5924	936.7	50.4
977.9308	2509.9281	940.3	49
978.0585	2511.2631	933.85	47.2
978.1861	2512.5974	935.85	49.35
978.3137	2513.9309	934.05	47.45
978.4413	2515.2638	965.6	48.7
978.5689	2516.596	934.3	48.7
978.6964	2517.9275	936.65	50.55
978.8239	2519.2583	937.65	49.3
978.9513	2520.5884	935.95	46.6
979.0788	2521.9178	933.05	45.05
979.2062	2523.2465	935.4	51.55
979.3335	2524.5745	933.5	47.1
979.4608	2525.9018	935.4	50.1
979.5881	2527.2284	929.7	46.6
979.7154	2528.5543	933.05	47.8
979.8426	2529.8796	935.2	49.2
979.9698	2531.2041	932.55	45.7
980.0969	2532.5279	931.4	47.3
980.224	2533.851	932	42.5
980.3511	2535.1735	932.05	46.2
980.4781	2536.4952	932	44.35
980.6052	2537.8163	929.95	43.65
980.7321	2539.1366	930.3	46.65
980.8591	2540.4562	933.2	46.15
980.986	2541.7752	931.6	46.4
981.1129	2543.0935	930.5	47.95
981.2397	2544.411	930.8	43.7
981.3665	2545.7279	927.5	43.65
981.4933	2547.0441	932.4	46.15
981.62	2548.3596	934.25	43.35
981.7467	2549.6744	931.7	44.25
981.8734	2550.9885	931.35	41.85
982.0001	2552.3019	933.6	46.95
982.1267	2553.6146	931.45	45.5
982.2532	2554.9266	933	47.5
982.3798	2556.2379	930.95	43.35
982.5063	2557.5485	929.75	43.65
982.6327	2558.8585	939.15	44.55
982.7592	2560.1677	934.7	43.35
982.8856	2561.4762	930.9	44.15
983.0119	2562.7841	935.3	45.3
983.1383	2564.0913	927.15	41.5
983.2646	2565.3977	929.1	42.85
983.3908	2566.7035	928.75	41.95
983.517	2568.0086	931.6	44.95
983.6432	2569.313	930.8	45.45
983.7694	2570.6167	932.9	43.05
983.8955	2571.9197	928.2	41.95
984.0216	2573.222	932.35	41.35
984.1476	2574.5236	928.75	42.05
984.2737	2575.8246	930.35	42.55
984.3996	2577.1248	930.15	42.7
984.5256	2578.4244	928.35	43.1
984.6515	2579.7232	928.25	41.65
984.7774	2581.0214	959	42.75
984.9032	2582.3189	927.1	42.5
985.029	2583.6157	934.4	44.6
985.1548	2584.9118	926.55	41.05
985.2806	2586.2072	927.2	41.85
985.4063	2587.5019	925.15	38.5
985.5319	2588.7959	926.8	39.9
985.6576	2590.0893	928.15	40.75
985.7832	2591.3819	928.4	44.75
985.9087	2592.6739	929.2	43.3
986.0343	2593.9652	929.95	40.35
986.1597	2595.2557	928.75	44.2
986.2852	2596.5456	930.15	42.45
986.4106	2597.8348	926.65	41.6
986.536	2599.1234	925.3	40.45
986.6614	2600.4112	928.25	39.7
986.7867	2601.6983	929.55	39.9
986.912	2602.9848	929.1	41.15
987.0372	2604.2705	934.45	42.4
987.1624	2605.5556	928.4	42.55
987.2876	2606.84	926.9	41.85
987.4128	2608.1237	929.75	41.3
987.5379	2609.4067	928.05	41.55
987.6629	2610.689	932.85	38.7
987.788	2611.9707	931.35	42.05
987.913	2613.2516	930.65	39.55
988.0379	2614.5319	924.55	39.05
988.1629	2615.8115	926.6	41
988.2878	2617.0903	927.2	39
988.4126	2618.3685	926.45	41.2
988.5375	2619.6461	927.45	41.1
988.6622	2620.9229	924.95	40.8
988.787	2622.199	926.1	40.15
988.9117	2623.4745	925.05	38.9
989.0364	2624.7493	925.1	38.85
989.161	2626.0234	920.8	34.65
989.2857	2627.2968	925.05	40.05
989.4102	2628.5695	925.35	38.85
989.5348	2629.8415	923.8	39.35
989.6593	2631.1128	927.65	39.3
989.7837	2632.3835	924.65	38.4
989.9082	2633.6535	925.45	39.75
990.0326	2634.9228	922.1	36.25
990.1569	2636.1914	922.65	36.4
990.2812	2637.4593	930	39.9
990.4055	2638.7265	921.65	32.55
990.5298	2639.9931	923.05	36.75
990.654	2641.259	920.9	32.85
990.7782	2642.5242	925.15	38
990.9023	2643.7887	923.65	37
991.0264	2645.0525	923.15	38.3
991.1505	2646.3156	922.9	34.7
991.2745	2647.5781	921.15	36.75
991.3985	2648.8398	922.2	37.4
991.5225	2650.1009	957.75	32.5
991.6464	2651.3613	922.05	35
991.7703	2652.6211	921	33.65
991.8942	2653.8801	920.4	36.65
992.018	2655.1385	923.5	33.85
992.1418	2656.3961	915.7	29
992.2655	2657.6531	923.6	36.8
992.3892	2658.9094	921.05	33.4
992.5129	2660.1651	921.8	35.9
992.6366	2661.42	919.65	32.1
992.7602	2662.6743	923.15	36.3
992.8837	2663.9279	918.25	32.05
993.0073	2665.1808	920.3	31.1
993.1307	2666.433	922.1	33.3
993.2542	2667.6846	918.65	31.85
993.3776	2668.9354	924.9	36.15
993.501	2670.1856	922.65	33.9
993.6244	2671.4351	922.15	35.45
993.7477	2672.6839	924.55	37.05
993.8709	2673.9321	920.85	34.3
993.9942	2675.1795	920	34.25
994.1174	2676.4263	921	34.45
994.2405	2677.6724	920.7	36.1
994.3637	2678.9179	918.4	30.2
994.4868	2680.1626	920.35	34.8
994.6098	2681.4067	919.45	33.35
994.7328	2682.6501	920.65	35.55
994.8558	2683.8928	920.05	33.3
994.9788	2685.1348	919.25	32.4
995.1017	2686.3761	919.1	32.6
995.2245	2687.6168	917.95	33.8
995.3474	2688.8568	918.75	34.45
995.4702	2690.0961	917.65	32.8
995.5929	2691.3348	918.6	31.95
995.7156	2692.5727	919.95	32.45
995.8383	2693.81	919.95	34.75
995.961	2695.0466	919.35	33.55
996.0836	2696.2826	922.95	36.5
996.2062	2697.5178	923.45	34.8
996.3287	2698.7524	919.25	31.25
996.4512	2699.9863	917.45	29.05
996.5737	2701.2195	918.8	33.25
996.6961	2702.452	917.95	31.35
996.8185	2703.6839	917.95	30.55
996.9408	2704.9151	920.9	36.85
997.0631	2706.1456	917.9	31.15
997.1854	2707.3755	918.95	33.45
997.3077	2708.6046	920.8	32.25
997.4299	2709.8331	918.65	32.7
997.552	2711.0609	919.3	31.75
997.6742	2712.2881	921.55	36.75
997.7963	2713.5145	923	33.6
997.9183	2714.7403	920.25	34.4
998.0403	2715.9654	918.4	32.15
998.1623	2717.1899	921.45	34.25
998.2842	2718.4136	921.55	37.5
998.4062	2719.6367	921.7	32.85
998.528	2720.8591	930.75	36.2
998.6498	2722.0809	923.7	36.8
998.7716	2723.3019	924.85	36.25
998.8934	2724.5223	926.5	39.55
999.0151	2725.7421	924.8	38.2
999.1368	2726.9611	925.2	36.6
999.2584	2728.1795	924.35	34.75
999.38	2729.3972	921.2	35.05
999.5016	2730.6142	931.95	32.25
999.6231	2731.8306	920.65	31.85
999.7446	2733.0462	918.9	30.35
999.8661	2734.2612	924.75	34.35
999.9875	2735.4756	921.7	32.5
1000.1089	2736.6892	918.7	32.55
1000.2302	2737.9022	918.85	33.7
1000.3515	2739.1145	915.3	28.8
1000.4728	2740.3262	923.45	28
1000.594	2741.5372	918.75	32.55
1000.7152	2742.7475	917.8	32.35
1000.8363	2743.9571	915.75	28
1000.9575	2745.1661	922.6	32.3
1001.0785	2746.3744	915.95	27.95
1001.1996	2747.582	915.2	30.9
1001.3206	2748.7889	916.55	27.4
1001.4415	2749.9952	914	28.05
1001.5625	2751.2008	916.75	27.6
1001.6833	2752.4057	915.95	29.15
1001.8042	2753.61	915.1	28.6
1001.925	2754.8136	914.6	24.85
1002.0458	2756.0165	913.9	28.95
1002.1665	2757.2188	914.2	28.65
1002.2872	2758.4204	912.5	26.45
1002.4078	2759.6213	914.3	25.95
1002.5285	2760.8215	919.25	26.25
1002.649	2762.0211	913.9	26
1002.7696	2763.22	917.9	28.95
1002.8901	2764.4182	914.55	26.55
1003.0106	2765.6158	911.95	26.05
1003.131	2766.8127	914.6	28.7
1003.2514	2768.009	915.1	28.25
1003.3717	2769.2045	914.7	26.95
1003.492	2770.3994	912.8	25.55
1003.6123	2771.5936	916.05	29.9
1003.7325	2772.7872	910.55	25.25
1003.8527	2773.9801	912.15	23.4
1003.9729	2775.1723	928.4	22.25
1004.093	2776.3639	910.15	23.5
1004.2131	2777.5548	912.5	23.95
1004.3331	2778.745	913.65	27.3
1004.4531	2779.9346	909.55	23.4
1004.5731	2781.1235	912.95	26.2
1004.693	2782.3117	909.15	23.25
1004.8129	2783.4992	907.2	21.85
1004.9328	2784.6861	911.35	24.5
1005.0526	2785.8723	913.5	26
1005.1723	2787.0579	913.35	26.7
1005.2921	2788.2428	910.45	23.45
1005.4118	2789.427	908.7	24.45
1005.5314	2790.6106	911.7	25.35
1005.651	2791.7935	910.5	24.3
1005.7706	2792.9757	909.45	24.45
1005.8902	2794.1573	915.45	27.7
1006.0097	2795.3382	909.95	24.85
1006.1291	2796.5184	909.2	24.1
1006.2485	2797.698	910.85	22.8
1006.3679	2798.8769	911.3	25.1
1006.4873	2800.0551	910.45	25.65
1006.6066	2801.2327	914.85	24.65
1006.7258	2802.4096	911.25	25.95
1006.8451	2803.5859	911.7	24.2
1006.9642	2804.7615	914.05	27.05
1007.0834	2805.9364	909.15	23.3
1007.2025	2807.1106	912.95	28.05
1007.3216	2808.2842	913.75	27.1
1007.4406	2809.4572	914.15	28.35
1007.5596	2810.6294	916.05	28.9
1007.6785	2811.801	913.25	28.6
1007.7975	2812.972	911.45	26.5
1007.9163	2814.1423	918.3	30.35
1008.0352	2815.3119	919.35	34.55
1008.154	2816.4808	916.35	30.85
1008.2727	2817.6491	922.65	35.35
1008.3914	2818.8167	921.05	37.55
1008.5101	2819.9837	930.75	40.25
1008.6288	2821.15	925.95	38.95
1008.7474	2822.3157	926.85	43.4
1008.8659	2823.4807	928.25	42.25
1008.9844	2824.645	933.05	46.2
1009.1029	2825.8086	938.6	51.5
1009.2214	2826.9716	942.5	57.6
1009.3398	2828.134	942.8	56.15
1009.4581	2829.2957	948.2	61.2
1009.5764	2830.4567	949.45	63.55
1009.6947	2831.617	949.5	61.85
1009.813	2832.7767	953.9	67.8
1009.9312	2833.9358	951.8	66.85
1010.0493	2835.0941	955.9	68.1
1010.1675	2836.2519	951.85	66.55
1010.2855	2837.4089	952.85	65.65
1010.4036	2838.5653	945.45	60
1010.5216	2839.7211	943.05	55.1
1010.6396	2840.8761	946.1	59
1010.7575	2842.0306	942.9	59.45
1010.8754	2843.1843	945.4	60.15
1010.9932	2844.3374	944.8	58
1011.111	2845.4899	945.45	58.95
1011.2288	2846.6417	946.55	61.1
1011.3465	2847.7928	947.75	61.55
1011.4642	2848.9433	948.1	63.05
1011.5818	2850.0931	947.9	61.7
1011.6995	2851.2422	949.6	61.55
1011.817	2852.3907	952.3	64.7
1011.9345	2853.5385	954.35	66.9
1012.052	2854.6857	978.15	64.65
1012.1695	2855.8323	952.45	66.4
1012.2869	2856.9781	951.65	66.85
1012.4042	2858.1233	950.8	62.7
1012.5216	2859.2679	953.45	67.15
1012.6389	2860.4118	953.45	67.45
1012.7561	2861.555	962.6	72.95
1012.8733	2862.6976	960.15	73.05
1012.9905	2863.8395	960	74.85
1013.1076	2864.9808	960.85	75.95
1013.2247	2866.1214	961.3	77.15
1013.3417	2867.2614	960.4	72.85
1013.4587	2868.4007	961.45	74.55
1013.5757	2869.5393	964.65	76.35
1013.6926	2870.6773	966.2	77.8
1013.8095	2871.8146	966.3	76.7
1013.9263	2872.9513	965.05	76.2
1014.0431	2874.0874	963.75	78.4
1014.1599	2875.2227	967.6	82.3
1014.2766	2876.3574	966.85	81
1014.3933	2877.4915	967.15	79.95
1014.51	2878.6249	968.15	81.2
1014.6266	2879.7577	974.65	87.6
1014.7431	2880.8898	988	91.55
1014.8596	2882.0212	972.05	88
1014.9761	2883.152	973.4	85.55
1015.0925	2884.2821	972.3	87.2
1015.2089	2885.4116	974.3	88.7
1015.3253	2886.5405	977.8	91.85
1015.4416	2887.6686	980.5	90.6
1015.5579	2888.7962	976.25	91.8
1015.6741	2889.923	973.6	86.9
1015.7903	2891.0493	979.75	93.85
1015.9065	2892.1748	978.65	92.2
1016.0226	2893.2997	980.85	94.15
1016.1387	2894.424	976.6	91.8
1016.2547	2895.5476	975.4	88.6
1016.3707	2896.6706	974.45	91.2
1016.4866	2897.7929	978.65	90.7
1016.6025	2898.9145	977.85	91.4
1016.7184	2900.0355	978.95	92.6
1016.8342	2901.1559	977.5	88.5
1016.95	2902.2756	978.15	87.25
1017.0658	2903.3946	973.85	87.55
1017.1815	2904.513	978.1	87.65
1017.2971	2905.6308	973.45	88.1
1017.4127	2906.7479	980.05	93.05
1017.5283	2907.8643	973.35	85
1017.6439	2908.9801	972.75	86.7
1017.7594	2910.0953	972.7	85.7
1017.8748	2911.2098	978.25	90.75
1017.9902	2912.3236	982.55	86.9
1018.1056	2913.4368	977.7	88.15
1018.2209	2914.5494	975.35	87.3
1018.3362	2915.6613	979.55	89.6
1018.4515	2916.7725	972.6	82.35
1018.5667	2917.8831	970.95	83.05
1018.6819	2918.9931	972.45	82.7
1018.797	2920.1024	970.3	84.4
1018.9121	2921.211	966.7	80.9
1019.0271	2922.319	965.65	78.65
1019.1421	2923.4264	965.6	80.45
1019.2571	2924.5331	964.9	79.05
1019.372	2925.6391	967.1	80.8
1019.4869	2926.7445	965	79.05
1019.6017	2927.8493	964.25	77.4
1019.7165	2928.9534	963.8	76.85
1019.8313	2930.0569	967.3	75.45
1019.946	2931.1597	968.95	82.2
1020.0606	2932.2619	966.45	79.7
1020.1753	2933.3634	963.8	77.85
1020.2899	2934.4643	976.4	85.05
1020.4044	2935.5645	978	85.6
1020.5189	2936.6641	975.4	84.9
1020.6334	2937.763	969.5	82.55
1020.7478	2938.8613	970.35	84.95
1020.8622	2939.959	975.4	83.2
1020.9765	2941.056	965.75	80.45
1021.0908	2942.1523	964.85	77.4
1021.2051	2943.248	960.9	73.3
1021.3193	2944.3431	958.75	73.8
1021.4334	2945.4375	953.05	65.65
1021.5476	2946.5313	947.55	63.9
1021.6617	2947.6244	948.95	61.55
1021.7757	2948.7169	945.7	57.75
1021.8897	2949.8087	940.85	54.35
1022.0037	2950.8999	938.1	54.25
1022.1176	2951.9904	933.1	45.65
1022.2315	2953.0803	931.3	45.4
1022.3453	2954.1696	930.6	46.6
1022.4591	2955.2582	930.5	44.1
1022.5728	2956.3462	930.7	46.75
1022.6865	2957.4335	930.6	43.1
1022.8002	2958.5202	932.75	44.25
1022.9138	2959.6062	929.75	43.95
1023.0274	2960.6916	928	41.45
1023.141	2961.7764	928.3	41.5
1023.2545	2962.8605	930	42.05
1023.3679	2963.9439	928.5	41.85
1023.4813	2965.0267	929.35	42.7
1023.5947	2966.1089	952.1	41.6
1023.708	2967.1905	927.3	41.05
1023.8213	2968.2714	926.55	41.45
1023.9346	2969.3516	926.2	41.8
1024.0478	2970.4312	934.65	41.05
1024.1609	2971.5102	927.85	42.55
1024.274	2972.5885	926.1	41.2
1024.3871	2973.6662	932.35	42.65
1024.5002	2974.7432	926.15	39.5
1024.6132	2975.8196	929.15	42.65
1024.7261	2976.8954	927.2	39.15
1024.839	2977.9705	925.95	39.75
1024.9519	2979.045	928.8	41.5
1025.0647	2980.1188	925.9	37.9
1025.1775	2981.192	923.55	37.75
1025.2902	2982.2645	928.3	39.55
1025.4029	2983.3364	926.05	42.1
1025.5156	2984.4077	921.05	35.6
1025.6282	2985.4783	927.25	35.75
1025.7407	2986.5483	922.35	37.35
1025.8532	2987.6177	919.35	33.85
1025.9657	2988.6864	920.7	34.25
1026.0782	2989.7545	921.65	33.85
1026.1906	2990.8219	916.5	29.6
1026.3029	2991.8887	920.75	31.85
1026.4152	2992.9548	917.5	30.2
1026.5275	2994.0204	915.3	30.1
1026.6397	2995.0852	913.45	29.6
1026.7519	2996.1495	911.25	24.1
1026.864	2997.2131	909.5	22.9
1026.9761	2998.276	908.6	22.5
1027.0882	2999.3383	906.8	19.75
1027.2002	3000.4	908.25	22.35
1027.3122	3001.4611	907.8	20.75
1027.4241	3002.5215	904.6	16.55
1027.536	3003.5812	907.25	20.4
1027.6478	3004.6404	906.05	18.2
1027.7596	3005.6989	905.55	19.75
1027.8714	3006.7567	904.5	18.85
1027.9831	3007.8139	934.35	19.35
1028.0947	3008.8705	903.85	16.45
1028.2064	3009.9264	919.4	15.7
1028.3179	3010.9818	901.2	14.9
1028.4295	3012.0364	902.75	15.35
1028.541	3013.0905	903.4	19.4
1028.6524	3014.1439	903.35	17.2
1028.7638	3015.1966	900.4	13.45
1028.8752	3016.2487	901.2	13.6
1028.9865	3017.3002	906.05	13.45
1029.0978	3018.3511	900.8	16.15
1029.209	3019.4013	901.7	15.65
1029.3202	3020.4509	900.8	14.25
1029.4314	3021.4998	900.55	13.45
1029.5425	3022.5481	899	14.15
1029.6535	3023.5958	900.5	14.45
1029.7645	3024.6428	903.05	16.85
1029.8755	3025.6892	899.75	14.05
1029.9864	3026.735	902.7	17.25
1030.0973	3027.7802	901.65	16.1
1030.2082	3028.8247	900.8	14.8
1030.319	3029.8685	902.25	15.55
1030.4297	3030.9118	901.8	13.95
1030.5404	3031.9544	899.55	13.95
1030.6511	3032.9963	899	10.6
1030.7617	3034.0376	898.3	14.45
1030.8723	3035.0783	904.3	15.85
1030.9829	3036.1184	902.7	14.4
1031.0934	3037.1578	901.05	17.1
1031.2038	3038.1966	901.4	13.8
1031.3142	3039.2348	900.15	14.45
1031.4246	3040.2723	907.35	12.25
1031.5349	3041.3092	899.85	13.95
1031.6452	3042.3455	900.2	13.6
1031.7554	3043.3811	900.4	14
1031.8656	3044.4161	899.3	11.65
1031.9758	3045.4505	900.05	17.3
1032.0859	3046.4842	900.75	12.9
1032.1959	3047.5173	900.25	14.65
1032.3059	3048.5498	899.45	12.75
1032.4159	3049.5816	900.75	15.95
1032.5258	3050.6128	904.8	16.9
1032.6357	3051.6434	902.25	15.3
1032.7455	3052.6734	902.3	15.8
1032.8553	3053.7027	902.15	17.6
1032.9651	3054.7314	897.55	12.55
1033.0748	3055.7594	901.6	15.6
1033.1845	3056.7868	900.35	12.1
1033.2941	3057.8136	901.05	15
1033.4037	3058.8398	901.25	15
1033.5132	3059.8653	900.45	13.5
1033.6227	3060.8902	899.85	14.5
1033.7321	3061.9145	899.95	13.55
1033.8415	3062.9381	902.75	17.4
1033.9509	3063.9612	919.25	15.85
1034.0602	3064.9835	901.2	15.05
1034.1694	3066.0053	903.25	16
1034.2787	3067.0264	902.4	15.7
1034.3878	3068.0469	900.65	15
1034.497	3069.0668	904.45	14.7
1034.6061	3070.086	899.65	13.65
1034.7151	3071.1046	904.95	17.55
1034.8241	3072.1226	900.3	12.95
1034.9331	3073.1399	901	16.25
1035.042	3074.1567	900.95	14.1
1035.1508	3075.1727	900.6	12
1035.2597	3076.1882	899.35	13.8
1035.3684	3077.203	901.1	13.75
1035.4772	3078.2173	901.3	13.9
1035.5859	3079.2308	902.85	12.4
1035.6945	3080.2438	899.2	11.1
1035.8031	3081.2561	898.95	12.95
1035.9117	3082.2678	899.85	14.4
1036.0202	3083.2789	897.7	11.35
1036.1286	3084.2893	896.2	11.4
1036.2371	3085.2991	896.25	9.45
1036.3454	3086.3083	901.1	10.45
1036.4538	3087.3169	900.8	12.4
1036.562	3088.3248	900.75	14.6
1036.6703	3089.3321	900.25	11.55
1036.7785	3090.3388	896.95	12.25
1036.8866	3091.3449	896.1	10.7
1036.9948	3092.3503	899.25	12.15
1037.1028	3093.3551	895.3	12.9
1037.2108	3094.3593	896.85	13.5
1037.3188	3095.3629	896.1	11.25
1037.4267	3096.3658	897.5	9.9
1037.5346	3097.3681	897.85	12.1
1037.6425	3098.3698	899	11.55
1037.7503	3099.3708	898.2	9.5
1037.858	3100.3713	895.25	7.3
1037.9657	3101.3711	897.65	9.75
1038.0734	3102.3702	1033.5	8.55
1038.181	3103.3688	898.5	9.7
1038.2886	3104.3667	894.75	9.2
1038.3961	3105.364	894.15	8.65
1038.5036	3106.3607	896.6	10.35
1038.611	3107.3568	895.65	8.8
1038.7184	3108.3522	894	8.85
1038.8257	3109.347	897.25	8.7
1038.933	3110.3412	899.3	7.9
1039.0403	3111.3348	895.1	10.15
1039.1475	3112.3277	894.05	8.85
1039.2547	3113.32	892.45	7.75
1039.3618	3114.3117	895.5	9
1039.4689	3115.3028	893.6	9.25
1039.5759	3116.2932	897.6	8.55
1039.6829	3117.2831	901	8.6
1039.7898	3118.2723	895.1	10.5
1039.8967	3119.2608	896.45	9.3
1040.0035	3120.2488	894.9	7.7
1040.1103	3121.2361	894.5	8.7
1040.2171	3122.2229	894.5	9.6
1040.3238	3123.209	893.65	7.25
1040.4305	3124.1944	894.2	8.05
1040.5371	3125.1793	896.3	9.35
1040.6437	3126.1635	893	7.2
1040.7502	3127.1471	893.8	9.75
1040.8567	3128.1301	893.25	5.75
1040.9631	3129.1125	895.05	9.55
1041.0695	3130.0942	893.9	6.1
1041.1759	3131.0753	902.25	8.95
1041.2822	3132.0558	898.55	9.3
1041.3884	3133.0357	893.9	5.45
1041.4946	3134.015	893.65	7.7
1041.6008	3134.9936	895.15	6.7
1041.7069	3135.9716	915.8	7.95
1041.813	3136.949	892.75	5.2
1041.919	3137.9258	910.45	5.85
1042.025	3138.902	897.6	4.45
1042.1309	3139.8775	894.5	9.2
1042.2368	3140.8524	892.7	5.05
1042.3427	3141.8267	895.75	6.15
1042.4485	3142.8004	892.75	4.55
1042.5542	3143.7735	898.7	5.1
1042.6599	3144.7459	893.5	5.55
1042.7656	3145.7178	892.85	4.6
1042.8712	3146.689	892.75	7.8
1042.9768	3147.6596	895.15	8.15
1043.0823	3148.6295	893.45	5.05
1043.1878	3149.5989	893.05	6.55
1043.2932	3150.5676	891.7	7.45
1043.3986	3151.5357	891.85	7.5
1043.5039	3152.5032	890.5	6.4
1043.6092	3153.4701	891.65	5.55
1043.7145	3154.4364	894.2	4.3
1043.8197	3155.402	890.65	3.95
1043.9248	3156.367	894.2	6.2
1044.03	3157.3315	913.1	-4.3
1044.135	3158.2952	892.95	6.65
1044.24	3159.2584	893.7	8.25
1044.345	3160.221	892.2	5.5
1044.4499	3161.1829	892.4	5.1
1044.5548	3162.1442	891	6.4
1044.6596	3163.105	893.05	6.35
1044.7644	3164.065	892.55	5.2
1044.8692	3165.0245	895.25	6.95
1044.9739	3165.9834	891.15	7.9
1045.0785	3166.9416	890.4	4.3
1045.1831	3167.8993	891.4	3.95
1045.2877	3168.8563	891.65	4.3
1045.3922	3169.8127	890.9	5.9
1045.4966	3170.7684	893.5	6.8
1045.6011	3171.7236	894.55	7.5
1045.7054	3172.6782	891.8	5.6
1045.8098	3173.6321	893.15	7.55
1045.914	3174.5854	897.6	7.85
1046.0183	3175.5381	890.05	2.8
1046.1224	3176.4902	892.15	6.7
1046.2266	3177.4417	892.25	8.1
1046.3307	3178.3926	890.25	5.45
1046.4347	3179.3428	890.3	5.25
1046.5387	3180.2924	892.35	5.9
1046.6427	3181.2415	892.95	5.9
1046.7466	3182.1899	894	4.1
1046.8504	3183.1377	891.75	5.55
1046.9542	3184.0848	895.4	6.3
1047.058	3185.0314	891.05	5.55
1047.1617	3185.9773	891.7	5.55
1047.2654	3186.9227	892.8	5.55
1047.369	3187.8674	894.1	8.2
1047.4726	3188.8115	894.8	4.35
1047.5761	3189.755	891.5	4.55
1047.6796	3190.6979	891.15	5.6
1047.783	3191.6402	889.5	3.3
1047.8864	3192.5818	890.6	5
1047.9898	3193.5229	896.6	4.55
1048.0931	3194.4633	889.2	2.45
1048.1963	3195.4031	892.05	6.1
1048.2995	3196.3423	889.6	3.55
1048.4027	3197.2809	889.9	3.85
1048.5058	3198.2189	889.2	3.55
1048.6089	3199.1563	895.15	2.95
1048.7119	3200.0931	893.1	6.3
1048.8148	3201.0292	889.6	4.5
1048.9178	3201.9648	893.1	6.75
1049.0206	3202.8997	892.65	4.8
1049.1235	3203.834	889.5	4.3
1049.2262	3204.7677	890.75	6.45
1049.329	3205.7008	892	3.3
1049.4317	3206.6333	890.2	4.3
1049.5343	3207.5652	892.55	4.35
1049.6369	3208.4964	890.7	4.65
1049.7394	3209.4271	891.95	6.4
1049.8419	3210.3571	891.05	5.45
1049.9444	3211.2865	890.1	3.1
1050.0468	3212.2154	890.95	2.95
1050.1491	3213.1436	893.05	3.15
1050.2514	3214.0712	896.35	4.3
1050.3537	3214.9982	890.55	3.15
1050.4559	3215.9246	889.35	3.9
1050.5581	3216.8503	890.4	5.05
1050.6602	3217.7755	892.1	6.5
1050.7623	3218.7001	890.5	6.6
1050.8643	3219.624	891.1	3.55
1050.9663	3220.5473	891.75	6.2
1051.0682	3221.4701	890.7	3.3
1051.1701	3222.3922	892.55	2.4
1051.2719	3223.3137	890.2	4.1
1051.3737	3224.2346	889.6	2.45
1051.4754	3225.1549	891.55	4.1
1051.5771	3226.0746	888.7	2.9
1051.6788	3226.9937	889.65	5.25
1051.7804	3227.9121	890.55	5.8
1051.8819	3228.83	891.15	5.4
1051.9834	3229.7473	889.5	2.8
1052.0849	3230.6639	891.55	4.75
1052.1863	3231.5799	890.6	2.95
1052.2876	3232.4954	892.95	6.45
1052.3889	3233.4102	890.3	2.95
1052.4902	3234.3244	893.15	5.8
1052.5914	3235.238	891.8	6.55
1052.6926	3236.151	913.15	3.25
1052.7937	3237.0634	889.85	5.75
1052.8948	3237.9752	889.55	4.75
1052.9958	3238.8864	890.65	6.15
1053.0968	3239.797	889.2	4.65
1053.1977	3240.7069	891.2	5.75
1053.2986	3241.6163	895.15	7.15
1053.3994	3242.5251	889.15	3.75
1053.5002	3243.4332	889.1	3.2
1053.6009	3244.3408	891.15	4.8
1053.7016	3245.2477	889.95	4.8
1053.8022	3246.154	892.25	5
1053.9028	3247.0598	890.6	3.45
1054.0034	3247.9649	889.25	3.75
1054.1039	3248.8694	889.3	2.55
1054.2043	3249.7733	889.3	3
1054.3047	3250.6766	891.4	5
1054.4051	3251.5793	890.9	3.05
1054.5054	3252.4814	890.05	3.8
1054.6056	3253.3829	888.2	-0.2
1054.7058	3254.2838	888.1	1.85
1054.806	3255.1841	889.35	1.55
1054.9061	3256.0838	888.95	3.35
1055.0061	3256.9829	888.5	2.95
1055.1062	3257.8814	890.7	2.85
1055.2061	3258.7792	892.1	4.05
1055.306	3259.6765	893.8	6.75
1055.4059	3260.5731	889.9	2.5
1055.5057	3261.4692	889.3	2.3
1055.6055	3262.3647	889.7	0
1055.7052	3263.2595	889.45	3.05
1055.8049	3264.1538	889.9	3.95
1055.9045	3265.0474	890.7	3.25
1056.0041	3265.9404	889.3	3.7
1056.1036	3266.8329	890.45	6.95
1056.2031	3267.7247	898.9	2.05
1056.3025	3268.616	888.25	3.9
1056.4019	3269.5066	889.5	2.65
1056.5013	3270.3966	890.8	3.8
1056.6005	3271.286	888.45	5.35
