Software Version:	3.9.2.0
Unit SN:	10000200
Spectrometer SN:	6960
Date:	3/14/2024 2:04:40 PM
Data Line Index:	25
Spectral Points:	2048
Integration time (ms):	125
Averages:	20
Delay (ms):	30000
Sequence Number:	1
Processing:	dark subtract
Laser Power (mW):	300
Laser Current (mA):	824
Laser Diode Temp (C):	25.1
Laser Case Temp (C):	29
System Temp (C):	29
Spectrometer Temp (C):	26.9
CCD Temp (C):	0.008
Secondary Temp (C):	20.01
Heatsink Temp (C):	24.664
CCDPCB Temp (C):	37.997
SecondaryPCB Temp (C):	36.007

Wavelength	RamanShift	Raw Counts	Dark Subtracted
787.061	30.1047	450.05	39.05
787.2016	32.3739	449.6	39.65
787.3422	34.6426	454.35	43.75
787.4828	36.9109	461.8	47
787.6235	39.1787	466.9	49.7
787.7642	41.4461	474.05	52.35
787.9049	43.7131	483.9	59.5
788.0456	45.9796	492.5	62.9
788.1863	48.2456	498.75	66.7
788.3271	50.5112	509.85	74.35
788.4679	52.7764	517.15	79
788.6087	55.0411	524.9	83.6
788.7496	57.3054	535.45	88.05
788.8904	59.5692	540.85	92
789.0313	61.8326	552.5	98.9
789.1722	64.0955	567.55	111.2
789.3132	66.3579	580.9	118.9
789.4541	68.6199	599.15	135.45
789.5951	70.8815	627.6	159.6
789.7361	73.1426	687.8	215.15
789.8771	75.4032	845.85	368.25
790.0181	77.6634	1235.95	754.55
790.1592	79.9231	2153.45	1663.9
790.3003	82.1824	4175.6	3675.1
790.4414	84.4412	7874.2	7357.85
790.5825	86.6995	13121.95	12582.7
790.7237	88.9574	18459.6	17901.35
790.8648	91.2148	22306.25	21732.55
791.006	93.4717	24197.5	23614.65
791.1472	95.7282	24706.55	24121.05
791.2885	97.9842	24762.85	24170.9
791.4297	100.2398	24395	23800.35
791.571	102.4949	23953.45	23354.8
791.7123	104.7495	23329.45	22728.25
791.8536	107.0036	22682.3	22078.45
791.9949	109.2573	22020.5	21419.85
792.1363	111.5105	21333.1	20732.8
792.2777	113.7632	20666.95	20064.1
792.4191	116.0154	20084.8	19470.95
792.5605	118.2672	19673.2	19064.3
792.7019	120.5185	19185.9	18575.15
792.8434	122.7693	18857.1	18245.75
792.9849	125.0197	18596.2	17981.45
793.1264	127.2696	18332.15	17714.25
793.2679	129.519	18228.3	17607.8
793.4094	131.7679	18071.2	17450.5
793.551	134.0163	17983.4	17354.2
793.6926	136.2642	17854.45	17222.45
793.8342	138.5117	17691.05	17051.2
793.9758	140.7587	17561.2	16928.8
794.1175	143.0052	17424.65	16783.4
794.2591	145.2512	17252.65	16614.4
794.4008	147.4967	17056.1	16415.9
794.5425	149.7417	16982.05	16343.7
794.6842	151.9863	16869.35	16227.9
794.826	154.2304	16823.55	16178.05
794.9677	156.4739	16672.05	16018.75
795.1095	158.717	16632.75	15981.55
795.2513	160.9596	16494.15	15837.65
795.3931	163.2017	16271.9	15613.25
795.535	165.4433	16008.4	15346.9
795.6768	167.6844	15738.65	15074.55
795.8187	169.925	15447.75	14784.65
795.9606	172.1651	15095.85	14426.9
796.1025	174.4047	14865.05	14192.75
796.2445	176.6439	14570.75	13899.95
796.3864	178.8825	14382.2	13705.85
796.5284	181.1206	14242.25	13563.6
796.6704	183.3582	14069.05	13383.65
796.8124	185.5954	13941.75	13258.55
796.9544	187.832	13872.65	13182.1
797.0965	190.0681	13811.55	13124.65
797.2386	192.3037	13776.95	13083.4
797.3806	194.5388	13766.15	13068.8
797.5228	196.7734	13817.55	13122.2
797.6649	199.0075	13881.95	13183.5
797.807	201.2411	13970.75	13267.05
797.9492	203.4742	13988.5	13286.3
798.0914	205.7068	14110.8	13405.8
798.2336	207.9389	14183	13476.25
798.3758	210.1704	14304.8	13595.75
798.518	212.4015	14380.35	13668.45
798.6603	214.632	14519.95	13808.55
798.8025	216.862	14697.6	13998.6
798.9448	219.0915	14811.9	14115.15
799.0871	221.3205	15016.75	14324.6
799.2294	223.549	15264.7	14578.35
799.3718	225.777	15572.65	14886.75
799.5141	228.0044	15944.5	15252.95
799.6565	230.2314	16434.75	15747.1
799.7989	232.4578	16832.25	16140.9
799.9413	234.6837	17214.7	16518.25
800.0837	236.909	17387.75	16690.35
800.2262	239.1339	17334.85	16611.1
800.3687	241.3582	17095.85	16387.8
800.5111	243.582	16697.9	15961.95
800.6536	245.8053	16311.25	15585.5
800.7961	248.0281	15933.7	15210.4
800.9387	250.2503	15686.1	14956.2
801.0812	252.472	15477.6	14745.35
801.2238	254.6932	15374.95	14640.45
801.3664	256.9139	15230.7	14494.1
801.509	259.134	15165.1	14427.2
801.6516	261.3536	15067	14328.45
801.7942	263.5727	15010.15	14269.7
801.9369	265.7912	14890.65	14153.3
802.0795	268.0092	14837.7	14104.5
802.2222	270.2267	14761.75	14021.8
802.3649	272.4436	14697.4	13956.55
802.5076	274.6601	14631.7	13884.4
802.6504	276.8759	14575.45	13827.45
802.7931	279.0913	14556.55	13812.5
802.9359	281.3061	14594.1	13848.05
803.0787	283.5204	14677.25	13927.05
803.2215	285.7341	14764.45	14010.75
803.3643	287.9473	14960	14195.45
803.5071	290.16	15180.3	14418.75
803.6499	292.3721	15491.5	14740.5
803.7928	294.5837	15892.4	15137.15
803.9357	296.7947	16216.7	15464.8
804.0786	299.0052	16378.55	15624.95
804.2215	301.2152	16184.5	15426.4
804.3644	303.4246	15853.3	15098.05
804.5074	305.6334	15333.25	14579.6
804.6503	307.8418	14862.9	14103.5
804.7933	310.0495	14491.7	13733.35
804.9363	312.2568	14212.25	13455.2
805.0793	314.4635	14027.2	13268.85
805.2223	316.6696	13990.85	13231.15
805.3653	318.8752	13998.05	13230.65
805.5084	321.0802	14051.3	13290.45
805.6514	323.2847	14156.35	13393.3
805.7945	325.4887	14223.1	13458.05
805.9376	327.692	14164.2	13404
806.0807	329.8949	14021	13253.95
806.2238	332.0972	13794.4	13027.15
806.367	334.2989	13517.25	12747.3
806.5101	336.5001	13253.25	12483.1
806.6533	338.7007	13072.7	12301.25
806.7965	340.9008	12949.1	12177.65
806.9397	343.1003	12841.25	12066.65
807.0829	345.2992	12802.45	12026.25
807.2261	347.4976	12772.2	11997
807.3693	349.6955	12758.6	11980.7
807.5126	351.8927	12840.75	12059.7
807.6559	354.0895	12850.8	12058.35
807.7991	356.2856	12853.45	12072.5
807.9424	358.4812	12841.85	12061.6
808.0857	360.6763	12852.1	12069.55
808.2291	362.8707	12824.8	12039.8
808.3724	365.0646	12861.2	12075
808.5158	367.258	12842.65	12056.15
808.6591	369.4508	12828.3	12036.7
808.8025	371.643	12842.1	12049.5
808.9459	373.8346	12813.5	12020.55
809.0893	376.0257	12756.15	11959.4
809.2327	378.2162	12709.5	11911.45
809.3762	380.4062	12576.45	11778.55
809.5196	382.5956	12438.45	11640.9
809.6631	384.7844	12357.1	11558.7
809.8066	386.9726	12206.95	11405.15
809.9501	389.1603	12205.75	11404.85
810.0936	391.3474	12186.8	11351.65
810.2371	393.5339	12133.85	11334.9
810.3806	395.7199	12071.2	11276.55
810.5241	397.9052	12097.35	11305.5
810.6677	400.09	12050.8	11260.85
810.8113	402.2743	12128.9	11339
810.9548	404.4579	12142.35	11353.85
811.0984	406.641	12246.8	11455.15
811.2421	408.8235	12460.6	11668.65
811.3857	411.0054	12761.2	11968.05
811.5293	413.1868	13192.85	12398.7
811.673	415.3675	13509	12710.55
811.8166	417.5477	13686.2	12891.55
811.9603	419.7273	13738.35	12937.8
812.104	421.9064	13614.15	12806.2
812.2477	424.0848	13464.25	12657.3
812.3914	426.2627	13239.15	12434.45
812.5351	428.4399	12964.25	12154.15
812.6788	430.6166	12648.55	11838.65
812.8226	432.7928	12337.25	11526.35
812.9663	434.9683	12036.85	11225.45
813.1101	437.1432	11853.65	11041.25
813.2539	439.3176	11670.2	10856.5
813.3977	441.4914	11608.4	10795.65
813.5415	443.6645	11576.9	10761.1
813.6853	445.8371	11515.25	10698.8
813.8291	448.0091	11433.85	10619.65
813.973	450.1806	11386.8	10571.15
814.1168	452.3514	11327.1	10510.4
814.2607	454.5216	11327.9	10502.35
814.4046	456.6913	11228.5	10409.45
814.5485	458.8603	11250.85	10433.2
814.6924	461.0288	11292.45	10471.95
814.8363	463.1967	11293.5	10474.8
814.9802	465.3639	11442.65	10621.1
815.1241	467.5306	11556.5	10734
815.2681	469.6967	11699.4	10879.35
815.412	471.8622	11829.95	11007.55
815.556	474.0271	11988.05	11166.65
815.7	476.1914	12035.9	11211.35
815.844	478.3551	12002	11179.55
815.988	480.5182	11953.95	11132.55
816.132	482.6807	11917.35	11092.65
816.276	484.8426	11956.8	11134.05
816.4201	487.0039	12147.2	11323.75
816.5641	489.1647	12502.75	11677.9
816.7082	491.3248	12868.9	12046.2
816.8522	493.4843	13053.3	12229.05
816.9963	495.6432	13035.4	12210.95
817.1404	497.8015	12977.05	12149.8
817.2845	499.9592	12978.65	12151.7
817.4286	502.1163	12976.75	12152.3
817.5727	504.2728	12789.15	11958.6
817.7168	506.4287	12515.35	11691.6
817.861	508.5839	12100.5	11272.35
818.0051	510.7386	11804.8	10975.95
818.1493	512.8927	11622.75	10788.95
818.2935	515.0461	11458.1	10628.55
818.4377	517.199	11346.45	10515.85
818.5818	519.3512	11286.3	10459.8
818.726	521.5029	11276.25	10442.15
818.8703	523.6539	11279.3	10447.1
819.0145	525.8043	11296.25	10464.35
819.1587	527.9541	11320.2	10487.4
819.303	530.1033	11349.4	10515.2
819.4472	532.2519	11438.45	10605.35
819.5915	534.3999	11551.7	10714.55
819.7357	536.5472	11839.85	11006.45
819.88	538.694	12272.4	11438.95
820.0243	540.8401	12856.8	12020.1
820.1686	542.9856	13360.65	12525.25
820.3129	545.1305	13496.7	12660.2
820.4572	547.2748	13323.45	12487.85
820.6016	549.4185	12946.15	12106.4
820.7459	551.5615	12574.65	11736.05
820.8902	553.704	12385.5	11546.6
821.0346	555.8458	12293.3	11455.65
821.1789	557.987	12269.45	11433.25
821.3233	560.1276	12125.2	11288.55
821.4677	562.2675	12030.3	11190.95
821.6121	564.4069	11919.3	11082.65
821.7565	566.5456	11771.75	10933.85
821.9009	568.6837	11661.05	10822
822.0453	570.8212	11430.25	10589.35
822.1897	572.958	11253.95	10413.85
822.3342	575.0942	11135.15	10297.7
822.4786	577.2299	11028.45	10187.6
822.6231	579.3648	11040.55	10202.1
822.7675	581.4992	11129.55	10288.25
822.912	583.6329	11317.1	10477.8
823.0565	585.766	11528.3	10689.95
823.201	587.8985	11630.9	10790.85
823.3454	590.0304	11653	10802.05
823.4899	592.1616	11558.3	10717.45
823.6345	594.2922	11478.25	10635.5
823.779	596.4222	11347.75	10505.5
823.9235	598.5515	11206.45	10364
824.068	600.6802	11037.25	10195.5
824.2126	602.8083	10876.45	10034.45
824.3571	604.9358	10823.15	9978.4
824.5017	607.0626	10726.95	9882.25
824.6462	609.1888	10636.55	9790.65
824.7908	611.3144	10508.4	9665.25
824.9354	613.4393	10343.65	9501.15
825.08	615.5636	10222.15	9376.85
825.2246	617.6873	10125.25	9280.35
825.3692	619.8103	10064.45	9216
825.5138	621.9327	10012.9	9163.25
825.6584	624.0544	10007.1	9163.15
825.803	626.1756	10013.35	9166.05
825.9477	628.2961	9991.9	9146.15
826.0923	630.4159	9938	9091.05
826.237	632.5351	9903.5	9056.65
826.3816	634.6537	9828.25	8980.3
826.5263	636.7716	9789.7	8939.5
826.6709	638.8889	9771.1	8921.7
826.8156	641.0056	9787.4	8937.65
826.9603	643.1216	9768	8915.05
827.105	645.237	9826.85	8975.05
827.2497	647.3518	9800.4	8947.5
827.3944	649.4659	9821.5	8972.2
827.5391	651.5793	9808.75	8956.55
827.6838	653.6922	9782.95	8934.3
827.8285	655.8043	9770.9	8922.5
827.9733	657.9159	9753.6	8899.55
828.118	660.0268	9665.2	8809.35
828.2627	662.137	9588.05	8734.25
828.4075	664.2466	9559.5	8704.8
828.5522	666.3556	9536	8682.9
828.697	668.4639	9543.55	8686.35
828.8418	670.5716	9546.85	8695.8
828.9865	672.6786	9624.15	8771.9
829.1313	674.785	9683.15	8829.95
829.2761	676.8907	9744.6	8891.1
829.4209	678.9958	9796.8	8945.7
829.5657	681.1002	9778.75	8922.95
829.7105	683.204	9734.7	8876.55
829.8553	685.3072	9697.9	8843.05
830.0001	687.4097	9627.5	8771.75
830.1449	689.5115	9588.7	8733.6
830.2898	691.6127	9464.6	8610.1
830.4346	693.7132	9412.15	8557.15
830.5794	695.8131	9362.5	8479.75
830.7243	697.9123	9289.3	8431.6
830.8691	700.0109	9270.45	8413.55
831.014	702.1089	9225.75	8369.4
831.1588	704.2061	9247.3	8391.3
831.3037	706.3028	9249.8	8389.15
831.4486	708.3987	9263.4	8405.05
831.5935	710.4941	9337.9	8481.4
831.7383	712.5887	9522.5	8664.1
831.8832	714.6827	9790.6	8929.35
832.0281	716.7761	10149.45	9289.7
832.173	718.8688	10438.95	9577.15
832.3179	720.9608	10647.1	9786.1
832.4628	723.0522	10620.85	9758.15
832.6077	725.1429	10381.8	9522.6
832.7527	727.233	10055.5	9197.15
832.8976	729.3224	9744.35	8883.4
833.0425	731.4112	9452.25	8588.95
833.1874	733.4993	9261.85	8398.65
833.3324	735.5867	9131.5	8268.45
833.4773	737.6735	9080.9	8217.55
833.6222	739.7596	9025.85	8161.7
833.7672	741.845	8985.7	8123.65
833.9122	743.9298	9009.45	8144.55
834.0571	746.014	9009.55	8149.75
834.2021	748.0974	9019	8156.6
834.347	750.1802	8967.3	8104.3
834.492	752.2624	8975.55	8113.1
834.637	754.3439	8987.8	8120.2
834.782	756.4247	9020.4	8152.6
834.9269	758.5048	9097.35	8235.9
835.0719	760.5843	9218.5	8354.1
835.2169	762.6631	9447.75	8584.8
835.3619	764.7413	9803.7	8942.25
835.5069	766.8188	10274.5	9411.2
835.6519	768.8956	10672.4	9806.75
835.7969	770.9718	10893.55	10029.15
835.9419	773.0473	10794.05	9933.15
836.0869	775.1221	10509.65	9647.05
836.232	777.1962	10157.6	9291.7
836.377	779.2697	10003.45	9137.2
836.522	781.3426	10069.15	9185.65
836.667	783.4147	10320.95	9458.35
836.8121	785.4862	10596.3	9732.8
836.9571	787.557	10638.2	9773.5
837.1021	789.6271	10315.75	9450.95
837.2472	791.6966	9808.8	8941.15
837.3922	793.7654	9382.9	8515.7
837.5373	795.8335	9091.85	8225.7
837.6823	797.901	8929.3	8063.3
837.8274	799.9678	8889.35	8021.6
837.9724	802.0339	8901	8035.3
838.1175	804.0993	8975.65	8100.85
838.2626	806.1641	8939.75	8075.1
838.4076	808.2282	8892.05	8026.6
838.5527	810.2916	8771.5	7903.7
838.6978	812.3544	8703.6	7838.55
838.8428	814.4164	8613.6	7748.05
838.9879	816.4778	8586.9	7720.95
839.133	818.5385	8578.55	7711.85
839.2781	820.5986	8608.7	7743.35
839.4232	822.658	8642.8	7775.9
839.5682	824.7166	8662.25	7795.4
839.7133	826.7747	8756.05	7888.55
839.8584	828.832	8862.9	7995.75
840.0035	830.8886	8931.05	8062.45
840.1486	832.9446	9055.9	8190.2
840.2937	834.9999	9114	8248.45
840.4388	837.0545	9172.85	8301.75
840.5839	839.1085	9235.9	8366.35
840.729	841.1618	9230.3	8360.3
840.8741	843.2143	9244.15	8377.2
841.0192	845.2662	9185.7	8319.15
841.1643	847.3175	9139.2	8272.75
841.3095	849.368	9018.3	8151.25
841.4546	851.4179	8899.1	8031.1
841.5997	853.467	8757.35	7890.15
841.7448	855.5155	8673.6	7806.45
841.8899	857.5633	8572.95	7703.85
842.0351	859.6105	8466.45	7597.1
842.1802	861.6569	8392.9	7525
842.3253	863.7027	8330.3	7462
842.4704	865.7478	8317.3	7447.1
842.6156	867.7922	8318.45	7447.85
842.7607	869.8359	8400.3	7531.6
842.9058	871.8789	8495.2	7623.5
843.0509	873.9212	8641.3	7736.5
843.1961	875.9629	8769.25	7898.2
843.3412	878.0039	8916.9	8045.35
843.4863	880.0441	8983.15	8114.65
843.6315	882.0837	8968.5	8098.55
843.7766	884.1226	8860.55	7986.25
843.9218	886.1609	8713.5	7843.65
844.0669	888.1984	8602.45	7731.3
844.212	890.2352	8524.55	7658.05
844.3572	892.2714	8473.7	7599.6
844.5023	894.3069	8446.8	7575.5
844.6475	896.3416	8389.15	7516.65
844.7926	898.3757	8349.75	7477.75
844.9377	900.4091	8359.35	7488.65
845.0829	902.4418	8377.2	7501.8
845.228	904.4739	8361.4	7488.35
845.3732	906.5052	8340.45	7469.45
845.5183	908.5358	8209.2	7338.65
845.6635	910.5658	8107.25	7233.85
845.8086	912.595	7970.15	7098.1
845.9538	914.6236	7853.05	6980.95
846.0989	916.6515	7823.25	6951.95
846.2441	918.6786	7818.9	6945.8
846.3892	920.7051	7885.75	7011.25
846.5344	922.7309	7961.15	7086.5
846.6795	924.756	8023.3	7148.3
846.8246	926.7804	8088.6	7213.35
846.9698	928.8041	8064.1	7190.75
847.1149	930.8272	8071	7197.7
847.2601	932.8495	8017.2	7142.55
847.4052	934.8711	7940	7066.35
847.5504	936.892	7794.75	6921.65
847.6955	938.9123	7659.3	6782.35
847.8407	940.9318	7550.55	6676.35
847.9858	942.9506	7425.55	6552.45
848.131	944.9688	7335.25	6461.25
848.2761	946.9862	7306.05	6432.7
848.4213	949.003	7265.6	6394.6
848.5664	951.019	7267.65	6394.25
848.7115	953.0344	7285.85	6411.6
848.8567	955.0491	7310.55	6436.8
849.0018	957.063	7376.35	6501.45
849.147	959.0763	7451.4	6579.35
849.2921	961.0888	7490.15	6613.05
849.4373	963.1007	7547.7	6672.95
849.5824	965.1119	7572	6698.05
849.7275	967.1223	7605.6	6731.2
849.8727	969.1321	7611.05	6736.45
850.0178	971.1412	7660.6	6787.45
850.1629	973.1495	7648.35	6772.6
850.3081	975.1572	7708.35	6799.1
850.4532	977.1641	7704.75	6830.6
850.5983	979.1704	7680.05	6803.75
850.7435	981.1759	7666.85	6789.15
850.8886	983.1808	7745.25	6870.55
851.0337	985.1849	7827.05	6942.35
851.1788	987.1884	7964.8	7090.2
851.324	989.1911	8131.95	7254.75
851.4691	991.1932	8261.5	7382.95
851.6142	993.1945	8299.9	7424.3
851.7593	995.1951	8273.9	7398
851.9045	997.1951	8192.6	7311.1
852.0496	999.1943	8138.3	7264.05
852.1947	1001.1928	8098.25	7221.5
852.3398	1003.1906	8092.05	7216.85
852.4849	1005.1877	8122.3	7243.9
852.63	1007.1841	8066.65	7190.25
852.7751	1009.1798	7978.9	7103.8
852.9202	1011.1748	7815.5	6937.1
853.0653	1013.1691	7627.4	6749.85
853.2104	1015.1627	7450.05	6573.2
853.3555	1017.1556	7288.9	6412.2
853.5006	1019.1477	7220	6344.5
853.6457	1021.1392	7153.35	6277.4
853.7908	1023.1299	7145.85	6270.2
853.9359	1025.12	7188.6	6311.5
854.081	1027.1093	7212.2	6336.55
854.2261	1029.0979	7295.85	6422.75
854.3712	1031.0859	7324.65	6448.45
854.5163	1033.0731	7319.8	6444.8
854.6613	1035.0596	7245.85	6369.25
854.8064	1037.0454	7121.55	6244.5
854.9515	1039.0304	7022.5	6146.45
855.0965	1041.0148	6922.6	6045.75
855.2416	1042.9985	6848.75	5971.35
855.3867	1044.9814	6801.85	5927
855.5317	1046.9636	6770.85	5892.6
855.6768	1048.9452	6741.4	5868.3
855.8219	1050.926	6740.85	5865.75
855.9669	1052.9061	6718	5842.6
856.112	1054.8855	6734.05	5857.85
856.257	1056.8642	6717	5840.35
856.4021	1058.8421	6784.9	5906.25
856.5471	1060.8194	6782.3	5904.3
856.6921	1062.7959	6808.15	5931
856.8372	1064.7717	6803.65	5924.5
856.9822	1066.7469	6812.75	5935.4
857.1272	1068.7213	6770.2	5890.55
857.2723	1070.695	6746.35	5868.75
857.4173	1072.6679	6673.05	5797.3
857.5623	1074.6402	6633.25	5754.9
857.7073	1076.6117	6641	5760.6
857.8523	1078.5826	6635.2	5758.65
857.9973	1080.5527	6681.9	5801.05
858.1423	1082.5221	6826.75	5947.95
858.2873	1084.4908	7000.5	6124.25
858.4323	1086.4587	7211.35	6333.15
858.5773	1088.426	7332.35	6455.2
858.7223	1090.3925	7324.6	6442.05
858.8673	1092.3584	7260.25	6381.85
859.0123	1094.3235	7138.4	6260.6
859.1573	1096.2879	7018.2	6139.95
859.3022	1098.2515	6973.45	6095.75
859.4472	1100.2145	6981.6	6102.6
859.5922	1102.1767	7038.1	6157.8
859.7371	1104.1382	7163.5	6285.25
859.8821	1106.099	7301.9	6421.25
860.027	1108.0591	7481	6602.9
860.172	1110.0185	7603.3	6724.85
860.3169	1111.9771	7614.05	6735.5
860.4619	1113.9351	7385.35	6508.65
860.6068	1115.8923	7119.5	6241.8
860.7517	1117.8488	6825.45	5943.95
860.8967	1119.8045	6591.45	5714.95
861.0416	1121.7596	6479.05	5600.15
861.1865	1123.7139	6401.65	5523.85
861.3314	1125.6675	6415.85	5536.2
861.4763	1127.6204	6461.85	5582.65
861.6212	1129.5726	6474.05	5593.8
861.7661	1131.524	6509.9	5632.75
861.911	1133.4748	6547.1	5669.7
862.0559	1135.4248	6593.1	5714.25
862.2008	1137.3741	6604.45	5726.15
862.3457	1139.3226	6582	5701.85
862.4905	1141.2705	6533.6	5655.2
862.6354	1143.2176	6500.2	5618.1
862.7803	1145.164	6497	5618.55
862.9251	1147.1097	6510.75	5630.85
863.07	1149.0546	6523.45	5643.5
863.2148	1150.9989	6421.25	5541.95
863.3597	1152.9424	6286.1	5407.4
863.5045	1154.8852	6098.4	5218.6
863.6493	1156.8272	5981.35	5104.35
863.7942	1158.7686	5933.25	5049.55
863.939	1160.7092	5880.7	5002.45
864.0838	1162.6491	5884.1	5003.35
864.2286	1164.5883	5942.3	5063.7
864.3734	1166.5267	6009.05	5128.15
864.5182	1168.4644	6110.6	5233.25
864.663	1170.4014	6281.55	5397.2
864.8078	1172.3377	6451.2	5573.8
864.9526	1174.2732	6620.9	5744.4
865.0974	1176.2081	6794.6	5915.25
865.2421	1178.1421	6924.25	6044.4
865.3869	1180.0755	7017.2	6142.25
865.5317	1182.0082	7010.95	6131.8
865.6764	1183.9401	6965.45	6086.15
865.8212	1185.8713	6791.75	5913.9
865.9659	1187.8017	6566.3	5685.35
866.1106	1189.7315	6362.35	5483.3
866.2554	1191.6605	6156.55	5250.75
866.4001	1193.5888	6010.45	5130.7
866.5448	1195.5163	5901.05	5021.95
866.6895	1197.4432	5818.7	4937.25
866.8342	1199.3693	5757	4879.25
866.9789	1201.2947	5723.05	4842.25
867.1236	1203.2193	5723.4	4845.95
867.2683	1205.1432	5728.05	4846.9
867.413	1207.0664	5782.6	4901.3
867.5576	1208.9889	5844.45	4961.3
867.7023	1210.9106	5922.95	5043.9
867.847	1212.8316	5980.9	5102.25
867.9916	1214.7519	6050.35	5160.45
868.1363	1216.6715	6055.85	5176.7
868.2809	1218.5903	6041.15	5162.6
868.4255	1220.5084	6000.4	5120.65
868.5701	1222.4257	5981.9	5102.4
868.7148	1224.3424	5931.05	5050.9
868.8594	1226.2583	5983.95	5098.95
869.004	1228.1735	6062.9	5182.6
869.1486	1230.0879	6169.6	5289.15
869.2932	1232.0016	6273.9	5394.4
869.4377	1233.9146	6302.9	5419.25
869.5823	1235.8269	6221.3	5343.1
869.7269	1237.7384	6084.25	5201.75
869.8715	1239.6492	5943.15	5064.35
870.016	1241.5592	5863.8	4985.5
870.1606	1243.4686	5773.25	4893.35
870.3051	1245.3772	5712.9	4835.55
870.4496	1247.285	5685.75	4806.25
870.5941	1249.1922	5644.6	4764.85
870.7387	1251.0986	5631.5	4753.6
870.8832	1253.0042	5648.35	4769.15
871.0277	1254.9092	5686.1	4806.65
871.1722	1256.8134	5777.25	4899.3
871.3167	1258.7169	5919.05	5036.95
871.4611	1260.6196	6018.6	5140.15
871.6056	1262.5216	6180.25	5299.55
871.7501	1264.4229	6296.15	5417.85
871.8945	1266.3234	6370.35	5489.2
872.039	1268.2232	6412.6	5531.8
872.1834	1270.1223	6370.9	5487.75
872.3278	1272.0207	6346.65	5466.25
872.4723	1273.9183	6307.2	5420.8
872.6167	1275.8151	6265.4	5387.8
872.7611	1277.7113	6177.25	5295
872.9055	1279.6067	6044.75	5166.7
873.0499	1281.5014	5915.6	5034.2
873.1943	1283.3953	5813.9	4930.55
873.3386	1285.2885	5725.15	4846.7
873.483	1287.181	5665.3	4781.85
873.6274	1289.0727	5654.6	4776.1
873.7717	1290.9637	5696.3	4814.7
873.9161	1292.854	5794.35	4914.5
874.0604	1294.7435	5920.85	5040.05
874.2047	1296.6323	6079.9	5199.8
874.349	1298.5204	6318.5	5434.3
874.4933	1300.4077	6530.7	5651.45
874.6376	1302.2943	6688.65	5809.4
874.7819	1304.1802	6747.3	5867.85
874.9262	1306.0653	6690.4	5806
875.0705	1307.9497	6597.05	5718.4
875.2147	1309.8333	6529.9	5649.9
875.359	1311.7162	6513	5631.45
875.5032	1313.5984	6592.6	5709.3
875.6475	1315.4798	6721.45	5830.05
875.7917	1317.3605	6890.7	5993.7
875.9359	1319.2405	7007	6125.65
876.0801	1321.1197	7025.2	6140.5
876.2243	1322.9982	6993.75	6108.45
876.3685	1324.876	6976.45	6096.2
876.5127	1326.753	6956.95	6075.2
876.6569	1328.6293	6992.85	6111.8
876.801	1330.5048	7012.9	6132.15
876.9452	1332.3796	6959.15	6079.5
877.0893	1334.2537	6956.1	6051.15
877.2335	1336.127	6906.25	6024.5
877.3776	1337.9996	6858.85	5980.1
877.5217	1339.8714	6817.95	5934.7
877.6658	1341.7426	6809.1	5883.95
877.8099	1343.6129	6741.8	5860.65
877.954	1345.4826	6678.35	5794.95
878.0981	1347.3515	6612.6	5730.25
878.2422	1349.2196	6569.45	5687.65
878.3862	1351.087	6557	5674.75
878.5303	1352.9537	6619.65	5736.45
878.6743	1354.8197	6716.65	5833.75
878.8184	1356.6849	6821.2	5942.15
878.9624	1358.5493	6922.05	6039.45
879.1064	1360.4131	6901.5	6019.45
879.2504	1362.276	6819.9	5939.7
879.3944	1364.1383	6704.9	5822.25
879.5384	1365.9998	6507.4	5620.75
879.6823	1367.8606	6268.5	5387.05
879.8263	1369.7206	6089.55	5207.9
879.9702	1371.5799	5949.7	5065.75
880.1142	1373.4384	5872.1	4991.4
880.2581	1375.2962	5789.4	4906.3
880.402	1377.1533	5583.55	4701.7
880.5459	1379.0096	5369.1	4487.95
880.6898	1380.8652	5144.75	4262.4
880.8337	1382.7201	4954.75	4075.35
880.9776	1384.5742	4796.65	3913.7
881.1215	1386.4275	4689.55	3807.1
881.2653	1388.2802	4586.05	3707.05
881.4092	1390.132	4515.95	3635
881.553	1391.9832	4491.55	3610.15
881.6968	1393.8336	4425.25	3544.7
881.8406	1395.6832	4410.85	3528
881.9844	1397.5322	4381.9	3499.3
882.1282	1399.3803	4372.85	3486.05
882.272	1401.2278	4347.25	3466.15
882.4158	1403.0745	4355.3	3473.3
882.5595	1404.9204	4335.9	3455.6
882.7033	1406.7656	4365.4	3483.8
882.847	1408.6101	4368.65	3486.4
882.9908	1410.4538	4384.45	3502.45
883.1345	1412.2968	4427.95	3547.3
883.2782	1414.139	4469.5	3589.8
883.4219	1415.9805	4550.95	3670.85
883.5656	1417.8213	4615.6	3727.35
883.7092	1419.6613	4734.55	3853.95
883.8529	1421.5006	4889.85	4009.45
883.9965	1423.3391	5111.4	4229.4
884.1402	1425.1769	5441.15	4559.85
884.2838	1427.0139	5849.2	4967.3
884.4274	1428.8502	6375.1	5493.75
884.571	1430.6858	6866.9	5984.65
884.7146	1432.5206	7238.8	6358.7
884.8582	1434.3547	7431.8	6549.95
885.0018	1436.188	7460.4	6579.9
885.1453	1438.0206	7401.9	6519
885.2889	1439.8524	7284.15	6403.35
885.4324	1441.6835	7202.9	6319.2
885.5759	1443.5139	7131.35	6244.3
885.7194	1445.3435	7075.8	6192.95
885.8629	1447.1724	7046.55	6165.25
886.0064	1449.0005	6973.95	6091.2
886.1499	1450.8279	6886.65	6003.05
886.2933	1452.6545	6868	5985.55
886.4368	1454.4804	6890.3	6010.25
886.5802	1456.3056	6882.35	5994.45
886.7237	1458.13	6796.25	5914.75
886.8671	1459.9536	6598.15	5715.05
887.0105	1461.7766	6294.6	5411.95
887.1539	1463.5987	5950.4	5067.95
887.2972	1465.4202	5616.25	4734.5
887.4406	1467.2409	5321.35	4440.4
887.584	1469.0608	5085.6	4206.4
887.7273	1470.88	4881.4	4001.25
887.8706	1472.6984	4714.05	3832.85
888.0139	1474.5161	4546.6	3660.85
888.1572	1476.3331	4430.65	3550.65
888.3005	1478.1493	4331.6	3447.15
888.4438	1479.9648	4249.2	3369.7
888.5871	1481.7795	4188.65	3306.85
888.7303	1483.5935	4134	3254.45
888.8736	1485.4067	4060.35	3178.05
889.0168	1487.2192	4034.55	3153
889.16	1489.031	4004.1	3118.4
889.3032	1490.842	3987.9	3107.35
889.4464	1492.6522	3948.85	3067.2
889.5896	1494.4618	3917.7	3035.5
889.7327	1496.2705	3893.6	3014.3
889.8759	1498.0785	3885.65	3003.3
890.019	1499.8858	3861.4	2979.1
890.1622	1501.6924	3857.5	2976.1
890.3053	1503.4981	3838.85	2957.1
890.4484	1505.3032	3818.35	2937
890.5914	1507.1075	3802.55	2921.3
890.7345	1508.911	3788.85	2906.6
890.8776	1510.7138	3767.6	2885.6
891.0206	1512.5159	3744.65	2860.1
891.1637	1514.3172	3697.95	2814.85
891.3067	1516.1178	3679.7	2797.3
891.4497	1517.9176	3658.4	2773.85
891.5927	1519.7166	3635.85	2755.6
891.7357	1521.515	3644.8	2757.45
891.8786	1523.3126	3625.1	2742.1
892.0216	1525.1094	3600.4	2718.05
892.1645	1526.9055	3568.1	2687.7
892.3074	1528.7008	3568.9	2687.5
892.4503	1530.4954	3554.9	2673.45
892.5932	1532.2893	3544.1	2664.8
892.7361	1534.0824	3532	2645.1
892.879	1535.8747	3534.55	2652.85
893.0218	1537.6663	3525.85	2641.15
893.1647	1539.4572	3522.65	2639.15
893.3075	1541.2473	3521.05	2637.85
893.4503	1543.0367	3498.15	2617.6
893.5931	1544.8253	3495.4	2609.95
893.7359	1546.6132	3506.15	2621.7
893.8787	1548.4003	3517.25	2624.45
894.0214	1550.1867	3519.15	2628.1
894.1642	1551.9723	3536	2648.3
894.3069	1553.7572	3539.15	2657.45
894.4496	1555.5414	3577.4	2693.25
894.5923	1557.3247	3586.45	2702.65
894.735	1559.1074	3621.7	2742.4
894.8777	1560.8893	3658.5	2779.25
895.0204	1562.6705	3719.8	2838.8
895.163	1564.4509	3758.1	2877.4
895.3056	1566.2305	3839.85	2958.45
895.4482	1568.0094	3908.3	3027.5
895.5908	1569.7876	3983.4	3102
895.7334	1571.565	4036.65	3154.9
895.876	1573.3417	4075	3194.95
896.0186	1575.1176	4094.4	3212.8
896.1611	1576.8928	4065.65	3182.7
896.3036	1578.6672	4006.05	3125.55
896.4461	1580.4409	3904.35	3020.95
896.5886	1582.2138	3821.45	2936.8
896.7311	1583.986	3715.55	2830.9
896.8736	1585.7575	3628.3	2747.5
897.0161	1587.5282	3568.95	2689.35
897.1585	1589.2981	3534.1	2654.3
897.3009	1591.0673	3494.75	2615
897.4433	1592.8358	3479.35	2598.95
897.5857	1594.6035	3477.1	2593.8
897.7281	1596.3704	3463.15	2582.85
897.8705	1598.1366	3471.5	2588.95
898.0128	1599.9021	3485.35	2604.15
898.1551	1601.6668	3517.7	2631.25
898.2975	1603.4308	3550.65	2669.85
898.4398	1605.194	3599.55	2715.1
898.5821	1606.9564	3670.8	2790.9
898.7243	1608.7182	3768.05	2881.25
898.8666	1610.4791	3861.55	2979.1
899.0088	1612.2394	3999.3	3116.85
899.1511	1613.9988	4145.55	3263.05
899.2933	1615.7576	4348.65	3468.3
899.4355	1617.5156	4530	3643.55
899.5776	1619.2728	4743.1	3861.75
899.7198	1621.0293	4865.7	3986.75
899.862	1622.785	4920.5	4034.55
900.0041	1624.54	4911.5	4028.7
900.1462	1626.2942	4790.45	3906.55
900.2883	1628.0477	4581.25	3697.75
900.4304	1629.8005	4377.8	3493.5
900.5725	1631.5525	4181.5	3298.3
900.7145	1633.3037	4029.9	3148.7
900.8566	1635.0542	3893.9	3012.85
900.9986	1636.804	3804.65	2924.7
901.1406	1638.553	3784.8	2833.5
901.2826	1640.3013	3699.45	2820.25
901.4245	1642.0488	3643.1	2761.35
901.5665	1643.7955	3645.85	2766.5
901.7085	1645.5416	3662.4	2779.5
901.8504	1647.2868	3708.95	2828
901.9923	1649.0313	3766.55	2884.9
902.1342	1650.7751	3892.5	3006.9
902.2761	1652.5181	4040	3159.7
902.4179	1654.2604	4224.4	3342.2
902.5598	1656.0019	4484.05	3603.75
902.7016	1657.7427	4789.65	3907.15
902.8434	1659.4828	5082.7	4202.45
902.9852	1661.222	5273.5	4392.5
903.127	1662.9606	5294.45	4415.05
903.2687	1664.6984	5160.9	4279.25
903.4105	1666.4354	4891.05	4011.05
903.5522	1668.1717	4503.8	3622.6
903.6939	1669.9072	4141.3	3262.2
903.8356	1671.642	3860.15	2978.45
903.9773	1673.3761	3614.4	2733.35
904.119	1675.1094	3445.55	2566.4
904.2606	1676.8419	3301.05	2420.9
904.4022	1678.5737	3196	2314.2
904.5439	1680.3048	3135.6	2255.9
904.6855	1682.0351	3086.75	2208.05
904.827	1683.7646	3031.8	2149.95
904.9686	1685.4934	2996.8	2118.65
905.1101	1687.2215	2960.85	2080.35
905.2517	1688.9488	2943	2063.05
905.3932	1690.6754	2925	2045.55
905.5347	1692.4012	2911.3	2031.7
905.6761	1694.1263	2885.1	2006.2
905.8176	1695.8506	2869.65	1990.25
905.9591	1697.5742	2859.15	1978.75
906.1005	1699.297	2836.75	1955.8
906.2419	1701.0191	2817.75	1937.25
906.3833	1702.7404	2809.65	1929.7
906.5246	1704.461	2787.45	1905.15
906.666	1706.1808	2781.8	1899.25
906.8073	1707.8999	2773	1891.3
906.9487	1709.6182	2763.8	1884.2
907.09	1711.3358	2743	1860.55
907.2313	1713.0527	2734.3	1855.35
907.3725	1714.7688	2730.15	1845.75
907.5138	1716.4841	2713.15	1833
907.655	1718.1987	2723.55	1838.1
907.7962	1719.9126	2695.5	1815.35
907.9374	1721.6257	2692.1	1809.1
908.0786	1723.338	2692.95	1814.4
908.2198	1725.0496	2674.55	1791.85
908.3609	1726.7605	2658.95	1777.4
908.502	1728.4706	2660.2	1780.05
908.6431	1730.18	2647.65	1765.7
908.7842	1731.8886	2630.45	1751.85
908.9253	1733.5964	2629.6	1743.1
909.0664	1735.3036	2630.6	1747.85
909.2074	1737.0099	2612.5	1732.25
909.3484	1738.7156	2601.75	1721.85
909.4894	1740.4204	2608.85	1724.55
909.6304	1742.1246	2594.85	1712.05
909.7714	1743.8279	2587.65	1709.05
909.9123	1745.5306	2597.35	1717.5
910.0532	1747.2325	2574.55	1693.35
910.1941	1748.9336	2569.95	1691.75
910.335	1750.634	2559.5	1677.05
910.4759	1752.3336	2569.05	1691.95
910.6168	1754.0325	2566.45	1686
910.7576	1755.7307	2560.25	1678.85
910.8984	1757.4281	2549.55	1669.6
911.0392	1759.1247	2555.85	1669.3
911.18	1760.8206	2543.8	1658.7
911.3208	1762.5158	2552.15	1669.55
911.4615	1764.2102	2528.1	1650.9
911.6022	1765.9039	2512.45	1630.7
911.7429	1767.5968	2510.3	1631.2
911.8836	1769.289	2509.45	1628.7
912.0243	1770.9804	2513.05	1632.35
912.1649	1772.6711	2502.95	1622
912.3056	1774.361	2502.55	1622.15
912.4462	1776.0502	2492.45	1611.7
912.5868	1777.7386	2485.75	1602.25
912.7274	1779.4263	2479.15	1598.55
912.8679	1781.1132	2479.4	1598.55
913.0084	1782.7994	2467.45	1584.2
913.149	1784.4849	2462.45	1582.85
913.2895	1786.1696	2468.3	1567.4
913.4299	1787.8535	2460.3	1580.1
913.5704	1789.5367	2454.4	1571.8
913.7108	1791.2192	2453	1571.7
913.8513	1792.9009	2480.5	1574.95
913.9917	1794.5818	2441.9	1561.05
914.132	1796.2621	2436.95	1558.4
914.2724	1797.9415	2438.25	1559.2
914.4128	1799.6202	2420.4	1541.05
914.5531	1801.2982	2427.4	1547.1
914.6934	1802.9755	2423.75	1541.65
914.8337	1804.6519	2416.25	1535.8
914.9739	1806.3277	2411.05	1531.85
915.1142	1808.0027	2397.85	1518.4
915.2544	1809.6769	2415.6	1534.2
915.3946	1811.3504	2415.05	1535.35
915.5348	1813.0231	2401.65	1521.5
915.675	1814.6951	2396.3	1514.5
915.8151	1816.3664	2393.45	1511.8
915.9553	1818.0369	2383.35	1504.7
916.0954	1819.7067	2373.05	1493.35
916.2355	1821.3757	2388.3	1507.45
916.3755	1823.044	2382.45	1502.5
916.5156	1824.7115	2377.5	1498.65
916.6556	1826.3783	2359.9	1481.75
916.7956	1828.0443	2361.15	1482.35
916.9356	1829.7096	2356	1475.35
917.0756	1831.3741	2363.45	1478.65
917.2155	1833.0379	2355.25	1475.35
917.3555	1834.701	2341.95	1461.7
917.4954	1836.3633	2344.8	1463.45
917.6353	1838.0248	2346.05	1463.8
917.7751	1839.6856	2345.25	1464.95
917.915	1841.3457	2344.25	1465.35
918.0548	1843.005	2344.1	1465.65
918.1946	1844.6636	2339.85	1458.35
918.3344	1846.3214	2334.55	1455.6
918.4742	1847.9785	2317.55	1438.55
918.6139	1849.6349	2327.7	1446.5
918.7537	1851.2904	2326.75	1436.25
918.8934	1852.9453	2312.4	1430.95
919.0331	1854.5994	2312.35	1431.4
919.1727	1856.2528	2319.4	1432.1
919.3124	1857.9054	2316.75	1436.65
919.452	1859.5572	2318.05	1439.85
919.5916	1861.2083	2302.5	1420.4
919.7312	1862.8587	2301.45	1424
919.8708	1864.5084	2299.1	1419.15
920.0103	1866.1572	2285.95	1406.9
920.1498	1867.8054	2277.8	1398.5
920.2893	1869.4528	2277.95	1397.3
920.4288	1871.0994	2267.2	1385.6
920.5683	1872.7453	2272.1	1391.9
920.7077	1874.3905	2276.4	1387
920.8471	1876.0349	2265.35	1384.45
920.9865	1877.6786	2264.45	1382.7
921.1259	1879.3215	2250.6	1372.6
921.2653	1880.9637	2254.7	1374.15
921.4046	1882.6051	2248.45	1369.15
921.5439	1884.2458	2251.1	1368.8
921.6832	1885.8858	2243.7	1362.9
921.8225	1887.525	2241.2	1358.8
921.9617	1889.1634	2225.75	1345.5
922.101	1890.8011	2215.75	1335
922.2402	1892.4381	2221.15	1341.05
922.3794	1894.0743	2226	1346.5
922.5185	1895.7098	2224.15	1345.5
922.6577	1897.3446	2218.75	1337.45
922.7968	1898.9786	2212.95	1328.2
922.9359	1900.6118	2207.05	1328.25
923.075	1902.2443	2193.6	1309.55
923.214	1903.8761	2198.7	1318.55
923.3531	1905.5071	2189.95	1308.75
923.4921	1907.1374	2192.9	1312.75
923.6311	1908.7669	2195.55	1315.35
923.77	1910.3957	2191.15	1312.35
923.909	1912.0237	2183.1	1301.95
924.0479	1913.651	2185.8	1304.6
924.1868	1915.2776	2172.1	1292.2
924.3257	1916.9034	2173.45	1294.25
924.4646	1918.5285	2165.2	1287.55
924.6034	1920.1528	2154.65	1273.25
924.7422	1921.7764	2160.5	1280.9
924.881	1923.3992	2146	1265.7
925.0198	1925.0213	2143.35	1264.9
925.1586	1926.6427	2137.2	1259.9
925.2973	1928.2633	2339.1	1229.8
925.436	1929.8832	2159.2	1276.9
925.5747	1931.5023	2135.15	1254.95
925.7134	1933.1207	2126.95	1248.05
925.852	1934.7383	2133.5	1253.9
925.9906	1936.3552	2120.7	1242.75
926.1292	1937.9714	2105.15	1225.15
926.2678	1939.5868	2108.5	1225.45
926.4064	1941.2015	2109.15	1228.2
926.5449	1942.8154	2101.95	1221.5
926.6834	1944.4286	2093.95	1213.9
926.8219	1946.041	2111	1207.4
926.9604	1947.6528	2088.65	1204.9
927.0988	1949.2637	2077.25	1197.75
927.2372	1950.8739	2076.8	1197
927.3756	1952.4834	2064.85	1184.65
927.514	1954.0921	2066.8	1186.65
927.6523	1955.7001	2067.8	1182
927.7907	1957.3074	2049.3	1170.3
927.929	1958.9139	2052.7	1174.65
928.0673	1960.5197	2051.15	1169.65
928.2055	1962.1247	2036.85	1157.25
928.3438	1963.729	2037.7	1158.65
928.482	1965.3325	2053.9	1151.75
928.6202	1966.9353	2033.1	1154.55
928.7584	1968.5374	2034.5	1154.95
928.8965	1970.1387	2019.1	1138.55
929.0346	1971.7393	2017.45	1138.8
929.1727	1973.3392	2012.45	1129.4
929.3108	1974.9383	2012.15	1132
929.4489	1976.5366	2005.65	1126.2
929.5869	1978.1342	2002.65	1123.3
929.7249	1979.7311	1991.65	1109.55
929.8629	1981.3273	1999.05	1118.35
930.0009	1982.9227	1991.95	1106.6
930.1388	1984.5173	1989.05	1110.55
930.2767	1986.1112	1987.2	1107.1
930.4146	1987.7044	1996.85	1118.9
930.5525	1989.2968	1976.9	1095.75
930.6904	1990.8885	1984.2	1101.1
930.8282	1992.4795	1982.1	1101.65
930.966	1994.0697	1962.55	1082.2
931.1038	1995.6592	1971.2	1090.1
931.2415	1997.2479	1953.85	1073.95
931.3793	1998.8359	1962	1082.15
931.517	2000.4232	1970.45	1089.35
931.6547	2002.0097	1944.65	1066.95
931.7923	2003.5955	1956.35	1074.1
931.93	2005.1805	1951.1	1069.4
932.0676	2006.7648	1948.05	1066.8
932.2052	2008.3484	1947.65	1065.35
932.3427	2009.9312	1949.75	1066.7
932.4803	2011.5133	1933.05	1052.45
932.6178	2013.0946	1932.35	1052.85
932.7553	2014.6752	1931.4	1053.65
932.8928	2016.2551	1932.4	1052.75
933.0302	2017.8342	1923.75	1042.85
933.1676	2019.4126	1929.3	1049.65
933.305	2020.9902	1919.8	1038.75
933.4424	2022.5672	1924.25	1042.4
933.5798	2024.1433	1923.85	1039.25
933.7171	2025.7188	1904	1025.3
933.8544	2027.2935	1903.3	1022.6
933.9917	2028.8674	1897.25	1016.3
934.129	2030.4406	1900.35	1018.75
934.2662	2032.0131	1891.2	1012.9
934.4034	2033.5849	1896.4	1007.25
934.5406	2035.1559	1899.2	1019.3
934.6778	2036.7261	1899.3	1017.9
934.8149	2038.2957	1886.25	1007.4
934.952	2039.8645	1877.6	999.2
935.0891	2041.4325	1886.9	1004.55
935.2262	2042.9998	1874.3	997.85
935.3632	2044.5664	1881.55	998.2
935.5002	2046.1323	1875.75	997.8
935.6372	2047.6974	1871.75	991.75
935.7742	2049.2617	1867.8	988.45
935.9111	2050.8254	1891.1	987.5
936.048	2052.3883	1871.4	989.35
936.1849	2053.9504	1867.55	987.3
936.3218	2055.5118	1866.85	984.05
936.4586	2057.0725	1863.45	980.1
936.5955	2058.6325	1849	969.65
936.7323	2060.1917	1853.35	972.45
936.869	2061.7502	1848.75	966.6
937.0058	2063.3079	1843.9	964.6
937.1425	2064.8649	1845	961.05
937.2792	2066.4212	1839.35	959.1
937.4159	2067.9767	1829.6	949.95
937.5525	2069.5315	1835.3	957.2
937.6891	2071.0856	1818.2	936.7
937.8257	2072.6389	1825.9	944.25
937.9623	2074.1915	1819.5	939.8
938.0989	2075.7433	1816.05	933.75
938.2354	2077.2945	1806.7	929.5
938.3719	2078.8448	1815.8	936.2
938.5084	2080.3945	1794.7	915.3
938.6448	2081.9434	1801.9	922.85
938.7812	2083.4916	1805.4	923.75
938.9176	2085.039	1801.7	919.75
939.054	2086.5857	1793.55	914.6
939.1903	2088.1317	1788.05	909.05
939.3267	2089.677	1789.85	909.3
939.463	2091.2215	1787.6	907.9
939.5992	2092.7652	1787.6	906.3
939.7355	2094.3083	1783.55	902.6
939.8717	2095.8506	1784.45	906.65
940.0079	2097.3921	1789.85	908.7
940.1441	2098.933	1779.7	900.05
940.2802	2100.4731	1773.9	892.8
940.4163	2102.0124	1773.15	885.8
940.5524	2103.5511	1778	898.9
940.6885	2105.089	1771.7	890.65
940.8245	2106.6261	1767	886.8
940.9606	2108.1626	1760.5	878.6
941.0965	2109.6983	1793.9	881.8
941.2325	2111.2332	1755.55	873.95
941.3684	2112.7675	1750.25	870.15
941.5044	2114.301	1760.1	880.7
941.6403	2115.8337	1751.2	870.65
941.7761	2117.3657	1753.4	872.75
941.912	2118.897	1752.05	871.4
942.0478	2120.4276	1754.95	868.35
942.1835	2121.9575	1745.9	863.55
942.3193	2123.4866	1760	864.6
942.455	2125.0149	1741.15	858.05
942.5907	2126.5426	1739.6	858.2
942.7264	2128.0695	1744.1	860.9
942.8621	2129.5956	1733.75	855
942.9977	2131.1211	1735.4	851.95
943.1333	2132.6458	1736.75	857.55
943.2689	2134.1698	1730.55	850.3
943.4044	2135.693	1725.3	844.9
943.54	2137.2155	1726.1	842.95
943.6755	2138.7373	1735.85	854.95
943.8109	2140.2584	1713.8	832.8
943.9464	2141.7787	1727.9	840.65
944.0818	2143.2983	1717.25	838.65
944.2172	2144.8171	1705	824.65
944.3526	2146.3353	1708.35	827.2
944.4879	2147.8527	1709.85	830.85
944.6232	2149.3693	1710.15	830.65
944.7585	2150.8853	1707.15	826.25
944.8938	2152.4005	1710.3	827.4
945.029	2153.9149	1695.8	816.25
945.1642	2155.4287	1693.45	812.9
945.2994	2156.9417	1682.05	800
945.4346	2158.454	1693.9	810.75
945.5697	2159.9655	1688.1	807.5
945.7048	2161.4764	1682.9	801.15
945.8399	2162.9865	1683.65	802.2
945.9749	2164.4958	1689.25	807.05
946.1099	2166.0045	1689.65	804.75
946.2449	2167.5124	1672.5	791.15
946.3799	2169.0195	1680.05	802.05
946.5148	2170.526	1682.55	800.15
946.6498	2172.0317	1676.6	795.1
946.7846	2173.5367	1670.15	790.05
946.9195	2175.0409	1666.45	788.3
947.0543	2176.5445	1670.6	790.7
947.1891	2178.0473	1666.3	785.95
947.3239	2179.5494	1671.35	785.8
947.4587	2181.0507	1659.05	779.3
947.5934	2182.5513	1664.25	784.35
947.7281	2184.0512	1660.5	780.05
947.8628	2185.5504	1658.15	775.8
947.9974	2187.0488	1658.65	775.45
948.132	2188.5465	1649.85	769.65
948.2666	2190.0435	1647.2	765.55
948.4012	2191.5397	1644.65	763.75
948.5357	2193.0353	1643.25	763.65
948.6702	2194.5301	1639.25	756.8
948.8047	2196.0241	1639.1	757.35
948.9392	2197.5175	1639.85	759.3
949.0736	2199.0101	1635.75	751
949.208	2200.502	1629.15	750.8
949.3424	2201.9931	1630	748.15
949.4767	2203.4835	1625.45	740.7
949.611	2204.9733	1626.05	740.2
949.7453	2206.4622	1621.85	741.4
949.8796	2207.9505	1621.05	737.2
950.0138	2209.438	1609.1	729.85
950.148	2210.9248	1609.8	728.75
950.2822	2212.4109	1608.4	728.95
950.4164	2213.8962	1606.45	722.45
950.5505	2215.3809	1602	719.5
950.6846	2216.8648	1605.6	724.5
950.8186	2218.3479	1600.2	714.7
950.9527	2219.8304	1594.1	711.6
951.0867	2221.3121	1602.25	720.9
951.2207	2222.7931	1590.8	710.7
951.3546	2224.2733	1587.7	706.3
951.4886	2225.7529	1594.3	712.2
951.6225	2227.2317	1587.55	705.1
951.7563	2228.7098	1593.7	713.2
951.8902	2230.1872	1582.55	701.5
952.024	2231.6638	1572	692.1
952.1578	2233.1397	1578.75	693.15
952.2916	2234.6149	1571.85	690.75
952.4253	2236.0894	1576.75	691.3
952.559	2237.5632	1581.85	690.75
952.6927	2239.0362	1572.7	691.75
952.8263	2240.5085	1568.1	686.5
952.9599	2241.9801	1568.2	686.6
953.0935	2243.4509	1568.95	688.15
953.2271	2244.921	1556.9	677
953.3606	2246.3904	1561.95	679.6
953.4941	2247.8591	1555.85	677.35
953.6276	2249.3271	1553	672.95
953.7611	2250.7943	1549.35	668.6
953.8945	2252.2608	1549.65	669.05
954.0279	2253.7266	1543.25	661.45
954.1612	2255.1917	1544.45	663.65
954.2946	2256.656	1540.95	659.35
954.4279	2258.1197	1537.1	656.9
954.5612	2259.5826	1534.4	650.95
954.6944	2261.0447	1541.95	659.65
954.8276	2262.5062	1539.1	655.7
954.9608	2263.9669	1527.85	646.4
955.094	2265.4269	1534.1	653.4
955.2271	2266.8862	1533.55	652
955.3602	2268.3448	1535.9	654.7
955.4933	2269.8026	1535.45	654.3
955.6264	2271.2598	1529.5	647.55
955.7594	2272.7162	1525	646.9
955.8924	2274.1719	1519.65	639.9
956.0253	2275.6268	1521.1	640.55
956.1583	2277.0811	1523.8	643.65
956.2912	2278.5346	1514.6	635.85
956.4241	2279.9874	1522.4	641.85
956.5569	2281.4395	1514.8	635.4
956.6897	2282.8908	1518.95	634.5
956.8225	2284.3414	1518.85	637.1
956.9553	2285.7914	1507.15	627.8
957.088	2287.2406	1513.65	630.85
957.2207	2288.689	1513.3	632.1
957.3534	2290.1368	1506.55	624.8
957.486	2291.5838	1505.1	622.3
957.6186	2293.0302	1505.55	625.3
957.7512	2294.4758	1506.1	627.1
957.8838	2295.9206	1504.5	620.7
958.0163	2297.3648	1494.2	613.6
958.1488	2298.8082	1494.95	612.45
958.2813	2300.251	1494.25	612.4
958.4137	2301.693	1502.35	618.6
958.5461	2303.1343	1497	616.55
958.6785	2304.5748	1485.5	604.6
958.8108	2306.0147	1487.35	604.95
958.9432	2307.4538	1482.35	598.75
959.0754	2308.8922	1480.3	600.7
959.2077	2310.3299	1483.5	602.35
959.3399	2311.7669	1477.45	598.7
959.4721	2313.2031	1482.9	600.95
959.6043	2314.6387	1469.8	590.75
959.7365	2316.0735	1472.35	591.45
959.8686	2317.5076	1466.65	585.5
960.0006	2318.941	1471.8	590.95
960.1327	2320.3737	1473.4	592.65
960.2647	2321.8056	1468.15	588.3
960.3967	2323.2369	1464.5	582.25
960.5287	2324.6674	1472	588.9
960.6606	2326.0972	1463.45	580.5
960.7925	2327.5263	1467.85	587.2
960.9244	2328.9547	1464	582.75
961.0562	2330.3823	1459.3	577.9
961.1881	2331.8092	1468.5	581.3
961.3198	2333.2355	1454.25	575.05
961.4516	2334.661	1454.8	575.3
961.5833	2336.0858	1454.15	571.5
961.715	2337.5098	1454.45	573.5
961.8467	2338.9332	1452.55	571.5
961.9783	2340.3558	1457.25	572.45
962.1099	2341.7778	1446.65	564.8
962.2415	2343.199	1449.5	565.1
962.373	2344.6195	1447.35	566.9
962.5045	2346.0393	1446.5	565.05
962.636	2347.4583	1440.85	560.85
962.7675	2348.8767	1441.25	559.25
962.8989	2350.2943	1443.8	564.1
963.0303	2351.7113	1447.2	564.15
963.1617	2353.1275	1440.5	557.95
963.293	2354.543	1461.55	556.65
963.4243	2355.9578	1443.35	560.95
963.5556	2357.3718	1427.65	547.05
963.6868	2358.7852	1435.15	553.45
963.818	2360.1978	1432.9	551.1
963.9492	2361.6098	1425.75	546.65
964.0803	2363.021	1432.4	547.6
964.2114	2364.4315	1428.9	549.45
964.3425	2365.8413	1426.75	544.05
964.4736	2367.2504	1426.2	545.45
964.6046	2368.6587	1422.95	541.8
964.7356	2370.0664	1408.55	528.3
964.8666	2371.4733	1417.25	536.25
964.9975	2372.8795	1414.5	537.1
965.1284	2374.285	1410.9	530
965.2593	2375.6899	1413.15	534.7
965.3901	2377.0939	1412.85	534.5
965.5209	2378.4973	1406.4	525.5
965.6517	2379.9	1410.1	529.65
965.7825	2381.3019	1405.05	525.45
965.9132	2382.7032	1398.25	519.15
966.0439	2384.1037	1398.35	516.6
966.1745	2385.5035	1397.9	515.85
966.3051	2386.9027	1394.45	515.3
966.4357	2388.3011	1405.35	522.75
966.5663	2389.6987	1388.85	509
966.6968	2391.0957	1391	510.65
966.8273	2392.492	1393.5	512
966.9578	2393.8876	1385.4	505.4
967.0882	2395.2824	1379.6	500.3
967.2186	2396.6765	1382.1	502.55
967.349	2398.07	1382.75	503.8
967.4793	2399.4627	1387.7	505.7
967.6097	2400.8547	1378.45	498.7
967.7399	2402.246	1384	498.85
967.8702	2403.6366	1375.65	496.4
968.0004	2405.0265	1376.25	496.05
968.1306	2406.4156	1381.4	497.1
968.2607	2407.8041	1373	488.75
968.3909	2409.1918	1368.95	486.55
968.521	2410.5789	1373.5	492.15
968.651	2411.9652	1372.5	490.4
968.781	2413.3508	1368.75	490.35
968.911	2414.7358	1370.1	490.3
969.041	2416.12	1370	492.55
969.1709	2417.5035	1374.55	495.8
969.3008	2418.8863	1366.95	486.6
969.4307	2420.2684	1362	481.95
969.5606	2421.6497	1356.6	476.15
969.6904	2423.0304	1353.15	472.5
969.8201	2424.4104	1352.8	472.2
969.9499	2425.7896	1362.2	478.15
970.0796	2427.1682	1355.65	476.8
970.2093	2428.546	1364.95	483.95
970.3389	2429.9232	1352.3	471.95
970.4685	2431.2996	1351.1	472.35
970.5981	2432.6753	1348.4	468.4
970.7277	2434.0503	1356.6	476
970.8572	2435.4246	1351.65	472.1
970.9867	2436.7982	1348.1	466.45
971.1161	2438.1711	1342.45	462.25
971.2456	2439.5433	1338.8	457.35
971.375	2440.9148	1346.4	460.65
971.5043	2442.2856	1336.9	459.05
971.6336	2443.6557	1340.9	459.55
971.7629	2445.025	1329	448.3
971.8922	2446.3937	1330.85	450.1
972.0214	2447.7617	1339.1	458.95
972.1506	2449.1289	1334.5	456.75
972.2798	2450.4955	1337	453.7
972.4089	2451.8613	1329.15	450.35
972.538	2453.2265	1329.6	449.6
972.6671	2454.5909	1332.85	451.2
972.7961	2455.9546	1328.65	449.1
972.9251	2457.3177	1331.4	451
973.0541	2458.68	1330.25	448.35
973.1831	2460.0416	1331	451.9
973.312	2461.4025	1320.65	438.25
973.4408	2462.7627	1342.95	451.5
973.5697	2464.1222	1326.8	447.8
973.6985	2465.4811	1321.6	439.55
973.8273	2466.8392	1329	447.3
973.956	2468.1966	1329.05	446.15
974.0847	2469.5533	1323.6	440.55
974.2134	2470.9093	1329.7	448.05
974.3421	2472.2645	1327.2	446.35
974.4707	2473.6191	1328.6	449.8
974.5993	2474.973	1323.85	444.65
974.7278	2476.3262	1320.25	438.75
974.8563	2477.6787	1320.2	440.25
974.9848	2479.0305	1309.2	429.3
975.1132	2480.3816	1317.3	438.15
975.2417	2481.7319	1316.8	435.75
975.37	2483.0816	1320.35	437.65
975.4984	2484.4306	1311.15	430.95
975.6267	2485.7789	1305.1	425.7
975.755	2487.1264	1306.25	423.85
975.8833	2488.4733	1305.1	424.9
976.0115	2489.8195	1322.25	423.75
976.1397	2491.165	1307.5	422.8
976.2678	2492.5097	1298.9	416.75
976.3959	2493.8538	1300.3	419.9
976.524	2495.1972	1295.5	413.9
976.6521	2496.5398	1297.65	414.7
976.7801	2497.8818	1296.35	414.15
976.9081	2499.2231	1293.5	412.9
977.036	2500.5637	1296.15	414.75
977.164	2501.9035	1295.25	417.45
977.2918	2503.2427	1297.55	412.35
977.4197	2504.5812	1289.6	412.5
977.5475	2505.919	1294	410.3
977.6753	2507.256	1297.3	418.55
977.8031	2508.5924	1289.95	410.4
977.9308	2509.9281	1288.25	402.95
978.0585	2511.2631	1280.55	403.05
978.1861	2512.5974	1280.2	399.25
978.3137	2513.9309	1283.35	403.1
978.4413	2515.2638	1313	399.1
978.5689	2516.596	1291.95	412.75
978.6964	2517.9275	1282.1	400.75
978.8239	2519.2583	1281.45	400.75
978.9513	2520.5884	1282.15	400.85
979.0788	2521.9178	1283.3	403.2
979.2062	2523.2465	1279.45	399.05
979.3335	2524.5745	1277.5	398
979.4608	2525.9018	1276.5	395.25
979.5881	2527.2284	1281.2	403.45
979.7154	2528.5543	1275.05	397.1
979.8426	2529.8796	1276.1	393.4
979.9698	2531.2041	1275.1	397.1
980.0969	2532.5279	1274.8	394.8
980.224	2533.851	1272.35	392
980.3511	2535.1735	1270.25	391.05
980.4781	2536.4952	1271.15	393.15
980.6052	2537.8163	1276.15	395.5
980.7321	2539.1366	1265.8	385.6
980.8591	2540.4562	1272.55	390.05
980.986	2541.7752	1267.7	387.25
981.1129	2543.0935	1266.9	386.5
981.2397	2544.411	1267.9	385.6
981.3665	2545.7279	1256.7	377.15
981.4933	2547.0441	1260.6	379.8
981.62	2548.3596	1265.7	382.7
981.7467	2549.6744	1261.65	382.25
981.8734	2550.9885	1266.5	377.8
982.0001	2552.3019	1263.15	381.8
982.1267	2553.6146	1257.45	375.85
982.2532	2554.9266	1263.2	380.05
982.3798	2556.2379	1255.95	372.5
982.5063	2557.5485	1254.65	375.4
982.6327	2558.8585	1257.1	369.1
982.7592	2560.1677	1258.15	374.95
982.8856	2561.4762	1250	370.85
983.0119	2562.7841	1253.55	369.25
983.1383	2564.0913	1250.6	370.2
983.2646	2565.3977	1250.45	370.4
983.3908	2566.7035	1255.35	373.3
983.517	2568.0086	1249.75	369.8
983.6432	2569.313	1247.35	365.4
983.7694	2570.6167	1250.05	366.45
983.8955	2571.9197	1242.95	364.3
984.0216	2573.222	1244.25	360.85
984.1476	2574.5236	1246.2	366.75
984.2737	2575.8246	1247.65	362.85
984.3996	2577.1248	1245.15	363.95
984.5256	2578.4244	1241.5	363.7
984.6515	2579.7232	1245.3	363.8
984.7774	2581.0214	1275.65	363.9
984.9032	2582.3189	1245.25	366.9
985.029	2583.6157	1256.9	371.65
985.1548	2584.9118	1250.55	369.9
985.2806	2586.2072	1248.85	366.5
985.4063	2587.5019	1246.35	365.95
985.5319	2588.7959	1256.15	374.4
985.6576	2590.0893	1250.5	370.4
985.7832	2591.3819	1253.1	374.7
985.9087	2592.6739	1248.75	368.05
986.0343	2593.9652	1264.25	384
986.1597	2595.2557	1256.95	376.1
986.2852	2596.5456	1258.95	376.6
986.4106	2597.8348	1263.5	382.8
986.536	2599.1234	1257.55	375.35
986.6614	2600.4112	1257.05	377.8
986.7867	2601.6983	1259.15	374.45
986.912	2602.9848	1261.85	380.85
987.0372	2604.2705	1269.8	382.9
987.1624	2605.5556	1266.65	387.3
987.2876	2606.84	1257.45	377.3
987.4128	2608.1237	1259.6	377.75
987.5379	2609.4067	1254	371.6
987.6629	2610.689	1261.95	371.9
987.788	2611.9707	1259.55	373.85
987.913	2613.2516	1257.6	374.4
988.0379	2614.5319	1252.95	373.1
988.1629	2615.8115	1247.05	366.2
988.2878	2617.0903	1251.55	369.85
988.4126	2618.3685	1254.5	374.8
988.5375	2619.6461	1254.3	376.05
988.6622	2620.9229	1249.65	370.9
988.787	2622.199	1256.1	373.65
988.9117	2623.4745	1247.2	366.6
989.0364	2624.7493	1251.45	371.4
989.161	2626.0234	1254.15	373.55
989.2857	2627.2968	1252.65	372.55
989.4102	2628.5695	1249.6	367.9
989.5348	2629.8415	1246.45	366.15
989.6593	2631.1128	1259.85	378.1
989.7837	2632.3835	1251.55	369.55
989.9082	2633.6535	1250.95	372.1
990.0326	2634.9228	1251.85	371.35
990.1569	2636.1914	1248.1	367.85
990.2812	2637.4593	1252.4	370.15
990.4055	2638.7265	1247.95	367.05
990.5298	2639.9931	1252.25	372.9
990.654	2641.259	1253.05	372.75
990.7782	2642.5242	1244.55	362.35
990.9023	2643.7887	1251.55	370.6
991.0264	2645.0525	1242.9	361.05
991.1505	2646.3156	1238.8	358.05
991.2745	2647.5781	1239.35	358.9
991.3985	2648.8398	1238.85	358.75
991.5225	2650.1009	1249.7	361.3
991.6464	2651.3613	1239.35	361.75
991.7703	2652.6211	1236.5	353.95
991.8942	2653.8801	1230.2	350.4
992.018	2655.1385	1238.5	354.3
992.1418	2656.3961	1244.05	364.45
992.2655	2657.6531	1237.05	356.8
992.3892	2658.9094	1240.5	359.15
992.5129	2660.1651	1239.3	357.9
992.6366	2661.42	1236.3	356.25
992.7602	2662.6743	1246.65	365.15
992.8837	2663.9279	1235.75	354.55
993.0073	2665.1808	1242.1	361.7
993.1307	2666.433	1252.05	368.95
993.2542	2667.6846	1246.05	366.05
993.3776	2668.9354	1247.35	364.3
993.501	2670.1856	1251.1	369.5
993.6244	2671.4351	1259.4	380
993.7477	2672.6839	1256.2	374.9
993.8709	2673.9321	1257.25	378.15
993.9942	2675.1795	1261.2	381.2
994.1174	2676.4263	1259.65	379.6
994.2405	2677.6724	1262.95	382.5
994.3637	2678.9179	1262.4	383.25
994.4868	2680.1626	1260.65	382.55
994.6098	2681.4067	1266.65	386.85
994.7328	2682.6501	1267.2	384.85
994.8558	2683.8928	1260.9	379.45
994.9788	2685.1348	1256.35	377.05
995.1017	2686.3761	1253.85	373.85
995.2245	2687.6168	1257.8	376.7
995.3474	2688.8568	1253.45	372.45
995.4702	2690.0961	1249.4	368.9
995.5929	2691.3348	1249.35	366.65
995.7156	2692.5727	1250.5	368.45
995.8383	2693.81	1242.15	360.25
995.961	2695.0466	1247.5	367.95
996.0836	2696.2826	1243.1	360.15
996.2062	2697.5178	1248.6	363.85
996.3287	2698.7524	1244.4	363.45
996.4512	2699.9863	1246	362.8
996.5737	2701.2195	1244.75	364.75
996.6961	2702.452	1251.35	368.8
996.8185	2703.6839	1255	373.8
996.9408	2704.9151	1255.3	374.7
997.0631	2706.1456	1265.6	384.45
997.1854	2707.3755	1272.7	390.75
997.3077	2708.6046	1274.5	391.25
997.4299	2709.8331	1280.85	399.35
997.552	2711.0609	1286.5	404.7
997.6742	2712.2881	1291.95	412.2
997.7963	2713.5145	1306.8	422.35
997.9183	2714.7403	1304.7	425.75
998.0403	2715.9654	1313.95	431.45
998.1623	2717.1899	1340.35	444.15
998.2842	2718.4136	1332.3	452.45
998.4062	2719.6367	1352.15	471
998.528	2720.8591	1360.65	473.3
998.6498	2722.0809	1364.6	483.2
998.7716	2723.3019	1373.65	490.35
998.8934	2724.5223	1374.6	494.2
999.0151	2725.7421	1386.1	505.2
999.1368	2726.9611	1381.05	498.4
999.2584	2728.1795	1390.65	505.75
999.38	2729.3972	1376.25	495.7
999.5016	2730.6142	1377.4	483.7
999.6231	2731.8306	1354.85	473.25
999.7446	2733.0462	1342.1	457.5
999.8661	2734.2612	1340.85	454.4
999.9875	2735.4756	1327.25	446.75
1000.1089	2736.6892	1303.85	421.5
1000.2302	2737.9022	1297.1	417.15
1000.3515	2739.1145	1285.4	404.4
1000.4728	2740.3262	1284.4	396.05
1000.594	2741.5372	1268.7	391.05
1000.7152	2742.7475	1253.25	373.8
1000.8363	2743.9571	1259.95	376.2
1000.9575	2745.1661	1246.9	362
1001.0785	2746.3744	1242.75	362.6
1001.1996	2747.582	1227.25	347
1001.3206	2748.7889	1224.35	342.25
1001.4415	2749.9952	1223.6	343.95
1001.5625	2751.2008	1215.65	333.95
1001.6833	2752.4057	1219.5	337.1
1001.8042	2753.61	1210.2	327.85
1001.925	2754.8136	1212.75	330
1002.0458	2756.0165	1211.7	332.7
1002.1665	2757.2188	1210.95	331.85
1002.2872	2758.4204	1209.75	328
1002.4078	2759.6213	1210.8	326.4
1002.5285	2760.8215	1211.8	326
1002.649	2762.0211	1213.75	330.55
1002.7696	2763.22	1205.35	320.65
1002.8901	2764.4182	1206.55	321.4
1003.0106	2765.6158	1203	320.95
1003.131	2766.8127	1197.7	314.35
1003.2514	2768.009	1194.75	317.1
1003.3717	2769.2045	1200.05	319.2
1003.492	2770.3994	1197.9	316.05
1003.6123	2771.5936	1200.2	318.85
1003.7325	2772.7872	1197.55	317.7
1003.8527	2773.9801	1194.9	312.65
1003.9729	2775.1723	1208.5	312.2
1004.093	2776.3639	1190.4	310.95
1004.2131	2777.5548	1196	312.4
1004.3331	2778.745	1197.45	312.85
1004.4531	2779.9346	1194	313.95
1004.5731	2781.1235	1204.4	323.2
1004.693	2782.3117	1204.55	325.55
1004.8129	2783.4992	1212.85	333.65
1004.9328	2784.6861	1210.2	329.8
1005.0526	2785.8723	1225.05	342.45
1005.1723	2787.0579	1224.5	342.8
1005.2921	2788.2428	1224.25	342
1005.4118	2789.427	1237.1	356.35
1005.5314	2790.6106	1247.75	366.55
1005.651	2791.7935	1257.4	376.7
1005.7706	2792.9757	1267.9	388.25
1005.8902	2794.1573	1275.55	389.45
1006.0097	2795.3382	1290.6	409.7
1006.1291	2796.5184	1305.3	425.8
1006.2485	2797.698	1312.35	430.2
1006.3679	2798.8769	1335.35	455.4
1006.4873	2800.0551	1350.4	470.05
1006.6066	2801.2327	1359.95	475.25
1006.7258	2802.4096	1376.85	496.45
1006.8451	2803.5859	1403.7	520.5
1006.9642	2804.7615	1410.05	528.15
1007.0834	2805.9364	1434.45	554.55
1007.2025	2807.1106	1461.3	579.15
1007.3216	2808.2842	1485.9	604.05
1007.4406	2809.4572	1514.7	633.9
1007.5596	2810.6294	1545.85	664.85
1007.6785	2811.801	1566.35	685.7
1007.7975	2812.972	1613.85	736.05
1007.9163	2814.1423	1649.4	767.45
1008.0352	2815.3119	1689.5	808.05
1008.154	2816.4808	1730.05	850.45
1008.2727	2817.6491	1772.6	891.55
1008.3914	2818.8167	1799.7	920.1
1008.5101	2819.9837	1851.5	966.8
1008.6288	2821.15	1893.35	1011.5
1008.7474	2822.3157	1921.65	1040.8
1008.8659	2823.4807	1956.25	1075.2
1008.9844	2824.645	1995.45	1113.4
1009.1029	2825.8086	2027.2	1145.2
1009.2214	2826.9716	2053.3	1173.4
1009.3398	2828.134	2102.2	1220.65
1009.4581	2829.2957	2120.05	1238.55
1009.5764	2830.4567	2137.3	1257.5
1009.6947	2831.617	2158.5	1278.35
1009.813	2832.7767	2167.25	1286.8
1009.9312	2833.9358	2157.5	1277.25
1010.0493	2835.0941	2161.6	1279.2
1010.1675	2836.2519	2150.1	1269.25
1010.2855	2837.4089	2146.75	1264.15
1010.4036	2838.5653	2137.4	1258.2
1010.5216	2839.7211	2137.55	1260.35
1010.6396	2840.8761	2134.65	1251.25
1010.7575	2842.0306	2161.25	1282.45
1010.8754	2843.1843	2190	1310
1010.9932	2844.3374	2226.65	1346.3
1011.111	2845.4899	2285.05	1402.45
1011.2288	2846.6417	2346.35	1467.6
1011.3465	2847.7928	2424.85	1546.1
1011.4642	2848.9433	2477.85	1598.2
1011.5818	2850.0931	2541.75	1661.65
1011.6995	2851.2422	2598.65	1717.2
1011.817	2852.3907	2668.45	1785.4
1011.9345	2853.5385	2722.4	1840.1
1012.052	2854.6857	2809.25	1902.2
1012.1695	2855.8323	2825.2	1945.7
1012.2869	2856.9781	2867.45	1988.45
1012.4042	2858.1233	2905.95	2023.7
1012.5216	2859.2679	2944.05	2063.1
1012.6389	2860.4118	2970.25	2089.25
1012.7561	2861.555	3004.4	2120.55
1012.8733	2862.6976	3026.65	2146.05
1012.9905	2863.8395	3057.2	2177.25
1013.1076	2864.9808	3082.75	2201.55
1013.2247	2866.1214	3089.65	2208.75
1013.3417	2867.2614	3102	2220.6
1013.4587	2868.4007	3108.45	2228.85
1013.5757	2869.5393	3109.35	2226.15
1013.6926	2870.6773	3127.85	2245.65
1013.8095	2871.8146	3142.35	2258
1013.9263	2872.9513	3139.25	2255.6
1014.0431	2874.0874	3145.05	2264.2
1014.1599	2875.2227	3138.1	2256.9
1014.2766	2876.3574	3106.55	2224.8
1014.3933	2877.4915	3105.8	2225.65
1014.51	2878.6249	3081.3	2200.8
1014.6266	2879.7577	3071.1	2190.15
1014.7431	2880.8898	3053.25	2161.1
1014.8596	2882.0212	3029.65	2149.55
1014.9761	2883.152	3035.3	2151.95
1015.0925	2884.2821	3013.05	2133.25
1015.2089	2885.4116	3013.25	2132.55
1015.3253	2886.5405	3006.15	2125.8
1015.4416	2887.6686	3010.5	2126.55
1015.5579	2888.7962	3041.65	2163.6
1015.6741	2889.923	3030.95	2151.4
1015.7903	2891.0493	3031.65	2152.4
1015.9065	2892.1748	3043.75	2163.2
1016.0226	2893.2997	3059.05	2178.05
1016.1387	2894.424	3081.1	2203.55
1016.2547	2895.5476	3091.45	2211.45
1016.3707	2896.6706	3110.55	2230.7
1016.4866	2897.7929	3129.25	2249.05
1016.6025	2898.9145	3159.2	2278.75
1016.7184	2900.0355	3185	2304.35
1016.8342	2901.1559	3211.05	2331.75
1016.95	2902.2756	3237.2	2356.05
1017.0658	2903.3946	3268.75	2388.6
1017.1815	2904.513	3301.8	2416.65
1017.2971	2905.6308	3301.5	2423.2
1017.4127	2906.7479	3347.75	2466.45
1017.5283	2907.8643	3356.4	2474.95
1017.6439	2908.9801	3372.25	2490.4
1017.7594	2910.0953	3374.3	2494.95
1017.8748	2911.2098	3361.9	2478.95
1017.9902	2912.3236	3374.95	2485.6
1018.1056	2913.4368	3358.5	2474.75
1018.2209	2914.5494	3342.35	2461.65
1018.3362	2915.6613	3318.05	2430.85
1018.4515	2916.7725	3307.4	2424.6
1018.5667	2917.8831	3273.65	2391.25
1018.6819	2918.9931	3250.5	2366.2
1018.797	2920.1024	3227.65	2346.95
1018.9121	2921.211	3220.95	2341.45
1019.0271	2922.319	3206.95	2326.3
1019.1421	2923.4264	3182.95	2301.35
1019.2571	2924.5331	3172.75	2294.65
1019.372	2925.6391	3157.75	2279.2
1019.4869	2926.7445	3144.25	2265
1019.6017	2927.8493	3158.15	2275.75
1019.7165	2928.9534	3139.6	2258.75
1019.8313	2930.0569	3140.75	2256.2
1019.946	2931.1597	3132.3	2250.35
1020.0606	2932.2619	3129.35	2248.6
1020.1753	2933.3634	3108.6	2228.65
1020.2899	2934.4643	3109.05	2222
1020.4044	2935.5645	3104.2	2218.7
1020.5189	2936.6641	3074.7	2188.25
1020.6334	2937.763	3022.05	2142.9
1020.7478	2938.8613	2981.9	2101.35
1020.8622	2939.959	2936.2	2050.75
1020.9765	2941.056	2868.5	1988.9
1021.0908	2942.1523	2811.8	1930.6
1021.2051	2943.248	2734.5	1853.4
1021.3193	2944.3431	2650.45	1770.2
1021.4334	2945.4375	2562.9	1681.1
1021.5476	2946.5313	2481.25	1601.75
1021.6617	2947.6244	2397.85	1517.15
1021.7757	2948.7169	2308.15	1426
1021.8897	2949.8087	2237.7	1357.05
1022.0037	2950.8999	2158.75	1277.8
1022.1176	2951.9904	2097.35	1217.1
1022.2315	2953.0803	2032.45	1151
1022.3453	2954.1696	1993.25	1112.3
1022.4591	2955.2582	1940.8	1061.65
1022.5728	2956.3462	1912.85	1033.8
1022.6865	2957.4335	1867.8	988
1022.8002	2958.5202	1853.95	971.5
1022.9138	2959.6062	1832	950.15
1023.0274	2960.6916	1801.4	921.7
1023.141	2961.7764	1795.75	914.05
1023.2545	2962.8605	1783.3	901.7
1023.3679	2963.9439	1776.75	896.75
1023.4813	2965.0267	1770.75	889.25
1023.5947	2966.1089	1782.45	879.05
1023.708	2967.1905	1756.2	876.45
1023.8213	2968.2714	1753.3	873.95
1023.9346	2969.3516	1754.25	874.65
1024.0478	2970.4312	1760.35	872.4
1024.1609	2971.5102	1756.5	876.55
1024.274	2972.5885	1756.5	877.5
1024.3871	2973.6662	1761.95	876.2
1024.5002	2974.7432	1747.65	868.4
1024.6132	2975.8196	1745.2	864.85
1024.7261	2976.8954	1740.15	861.25
1024.839	2977.9705	1737.7	856.3
1024.9519	2979.045	1721.5	843.45
1025.0647	2980.1188	1702.7	823.2
1025.1775	2981.192	1693.85	814.25
1025.2902	2982.2645	1675.7	794
1025.4029	2983.3364	1653.35	771.7
1025.5156	2984.4077	1630	749.45
1025.6282	2985.4783	1613.3	727.45
1025.7407	2986.5483	1580.65	700.2
1025.8532	2987.6177	1549.65	670.2
1025.9657	2988.6864	1526.55	645.65
1026.0782	2989.7545	1496.25	612.65
1026.1906	2990.8219	1468.3	589.75
1026.3029	2991.8887	1445.5	563.05
1026.4152	2992.9548	1416.45	535.2
1026.5275	2994.0204	1385.65	505.2
1026.6397	2995.0852	1369.1	489.65
1026.7519	2996.1495	1346.95	464.15
1026.864	2997.2131	1332.15	451.35
1026.9761	2998.276	1322.35	441.7
1027.0882	2999.3383	1301.8	420.45
1027.2002	3000.4	1287.65	405.9
1027.3122	3001.4611	1274.2	392.7
1027.4241	3002.5215	1260.45	379.95
1027.536	3003.5812	1252.2	372.55
1027.6478	3004.6404	1243.85	364.65
1027.7596	3005.6989	1238.5	355.3
1027.8714	3006.7567	1230.35	350.7
1027.9831	3007.8139	1249.3	343.6
1028.0947	3008.8705	1219.25	340.05
1028.2064	3009.9264	1217.2	332.8
1028.3179	3010.9818	1212.25	330.5
1028.4295	3012.0364	1211.7	331
1028.541	3013.0905	1207.15	327.45
1028.6524	3014.1439	1205.6	326.5
1028.7638	3015.1966	1205.25	325.2
1028.8752	3016.2487	1207.9	326.75
1028.9865	3017.3002	1205.2	320.6
1029.0978	3018.3511	1207.95	327.45
1029.209	3019.4013	1203.45	323.9
1029.3202	3020.4509	1206.6	328.7
1029.4314	3021.4998	1203.9	324.1
1029.5425	3022.5481	1208.25	329.05
1029.6535	3023.5958	1210.95	329.4
1029.7645	3024.6428	1211.2	328.65
1029.8755	3025.6892	1207.5	328.25
1029.9864	3026.735	1212.75	331.05
1030.0973	3027.7802	1219.75	339.8
1030.2082	3028.8247	1220.15	339.6
1030.319	3029.8685	1222.4	340.45
1030.4297	3030.9118	1230.35	349.5
1030.5404	3031.9544	1227.05	349.7
1030.6511	3032.9963	1235.6	356.25
1030.7617	3034.0376	1238.85	360.15
1030.8723	3035.0783	1243.75	361.4
1030.9829	3036.1184	1248.9	370.1
1031.0934	3037.1578	1248.55	371.1
1031.2038	3038.1966	1251.2	369.55
1031.3142	3039.2348	1250.8	373.2
1031.4246	3040.2723	1259.5	370.6
1031.5349	3041.3092	1250.4	371.7
1031.6452	3042.3455	1241.45	362
1031.7554	3043.3811	1244.1	363.95
1031.8656	3044.4161	1239.1	359.2
1031.9758	3045.4505	1234.8	356.35
1032.0859	3046.4842	1234.4	353.8
1032.1959	3047.5173	1226.35	346.95
1032.3059	3048.5498	1221.5	340.3
1032.4159	3049.5816	1214.5	336.5
1032.5258	3050.6128	1205.5	323.1
1032.6357	3051.6434	1207.35	327.45
1032.7455	3052.6734	1203.8	320.75
1032.8553	3053.7027	1193.85	312.05
1032.9651	3054.7314	1186.95	307.75
1033.0748	3055.7594	1189.2	309.95
1033.1845	3056.7868	1185.8	304.05
1033.2941	3057.8136	1174.45	295.75
1033.4037	3058.8398	1172.05	293.05
1033.5132	3059.8653	1166.6	287.9
1033.6227	3060.8902	1161.05	280.7
1033.7321	3061.9145	1160.7	279.6
1033.8415	3062.9381	1157.5	276.45
1033.9509	3063.9612	1166.25	269.05
1034.0602	3064.9835	1147.9	268.45
1034.1694	3066.0053	1145.15	263.05
1034.2787	3067.0264	1134.05	253.05
1034.3878	3068.0469	1128.2	246.4
1034.497	3069.0668	1123.35	240
1034.6061	3070.086	1117.6	239.5
1034.7151	3071.1046	1113.35	229.65
1034.8241	3072.1226	1103.1	221.8
1034.9331	3073.1399	1094.7	213.85
1035.042	3074.1567	1087.15	206.1
1035.1508	3075.1727	1087.75	207.75
1035.2597	3076.1882	1073.55	194.6
1035.3684	3077.203	1066.75	187.1
1035.4772	3078.2173	1063.25	183.7
1035.5859	3079.2308	1057	173.85
1035.6945	3080.2438	1050	167.4
1035.8031	3081.2561	1044.15	163.3
1035.9117	3082.2678	1033.4	153
1036.0202	3083.2789	1037.3	157.1
1036.1286	3084.2893	1030.5	149
1036.2371	3085.2991	1025.7	144.95
1036.3454	3086.3083	1027	143.25
1036.4538	3087.3169	1013.35	132.05
1036.562	3088.3248	1014.25	129.45
1036.6703	3089.3321	1008.6	128.65
1036.7785	3090.3388	1004.05	123.95
1036.8866	3091.3449	995.45	115.8
1036.9948	3092.3503	999.15	116.65
1037.1028	3093.3551	996.65	117.95
1037.2108	3094.3593	992.7	110.45
1037.3188	3095.3629	989.5	110.7
1037.4267	3096.3658	991.5	109.95
1037.5346	3097.3681	987.05	106.05
1037.6425	3098.3698	986.1	102.8
1037.7503	3099.3708	989.85	104.95
1037.858	3100.3713	980.25	99.3
1037.9657	3101.3711	980.35	98.85
1038.0734	3102.3702	1117.5	93.3
1038.181	3103.3688	979.2	95.6
1038.2886	3104.3667	972.2	92.7
1038.3961	3105.364	973.8	95.45
1038.5036	3106.3607	974.8	95.05
1038.611	3107.3568	975.1	94.8
1038.7184	3108.3522	971.95	93.75
1038.8257	3109.347	971.35	90.2
1038.933	3110.3412	973.8	89.7
1039.0403	3111.3348	967.95	88.25
1039.1475	3112.3277	969	87.6
1039.2547	3113.32	964.55	84.65
1039.3618	3114.3117	964.2	83.1
1039.4689	3115.3028	963.1	83.45
1039.5759	3116.2932	966.75	84.7
1039.6829	3117.2831	971.75	85.55
1039.7898	3118.2723	963.1	84.2
1039.8967	3119.2608	965	85.4
1040.0035	3120.2488	959.3	76.95
1040.1103	3121.2361	958.95	79.1
1040.2171	3122.2229	959.55	79.4
1040.3238	3123.209	957.85	75.65
1040.4305	3124.1944	955.55	75.95
1040.5371	3125.1793	958.7	73.55
1040.6437	3126.1635	957.9	79.25
1040.7502	3127.1471	957.15	76.95
1040.8567	3128.1301	955.15	76.3
1040.9631	3129.1125	954.55	74
1041.0695	3130.0942	953.8	74.1
1041.1759	3131.0753	960.9	72.6
1041.2822	3132.0558	954	70.6
1041.3884	3133.0357	951.4	70.15
1041.4946	3134.015	951.85	71.95
1041.6008	3134.9936	949.45	66.45
1041.7069	3135.9716	967.5	65.4
1041.813	3136.949	949.65	71
1041.919	3137.9258	963.55	64.2
1042.025	3138.902	953.85	69.35
1042.1309	3139.8775	944.1	64.15
1042.2368	3140.8524	943	64.2
1042.3427	3141.8267	946.25	63.35
1042.4485	3142.8004	943.2	60.65
1042.5542	3143.7735	946.25	60.1
1042.6599	3144.7459	944.1	60.7
1042.7656	3145.7178	940.8	60.85
1042.8712	3146.689	940.45	61.6
1042.9768	3147.6596	941.15	58.25
1043.0823	3148.6295	942	62.35
1043.1878	3149.5989	940	58.9
1043.2932	3150.5676	938.4	62.05
1043.3986	3151.5357	935.1	56.7
1043.5039	3152.5032	936.9	56.45
1043.6092	3153.4701	937.3	58.8
1043.7145	3154.4364	938.8	55.25
1043.8197	3155.402	934.55	55.4
1043.9248	3156.367	936.85	55.65
1044.03	3157.3315	968.35	50.95
1044.135	3158.2952	935.25	55.8
1044.24	3159.2584	934.05	55.05
1044.345	3160.221	934.7	53.1
1044.4499	3161.1829	932.85	53
1044.5548	3162.1442	932.15	54.75
1044.6596	3163.105	931.55	51.85
1044.7644	3164.065	931.45	53.45
1044.8692	3165.0245	934.95	53.15
1044.9739	3165.9834	928.45	50.6
1045.0785	3166.9416	928.6	48.6
1045.1831	3167.8993	929.3	48.7
1045.2877	3168.8563	930.5	50.55
1045.3922	3169.8127	925.75	46.25
1045.4966	3170.7684	926.55	48.7
1045.6011	3171.7236	929.65	48.85
1045.7054	3172.6782	926.5	47.9
1045.8098	3173.6321	928	45.85
1045.914	3174.5854	932.5	48.75
1046.0183	3175.5381	928.55	50.1
1046.1224	3176.4902	926.45	45.45
1046.2266	3177.4417	924.75	44.75
1046.3307	3178.3926	921.9	42.25
1046.4347	3179.3428	927.6	49.3
1046.5387	3180.2924	924.3	45.6
1046.6427	3181.2415	924.45	43.85
1046.7466	3182.1899	922.4	41.35
1046.8504	3183.1377	925.15	46.6
1046.9542	3184.0848	928.1	42.85
1047.058	3185.0314	925.5	45.1
1047.1617	3185.9773	924.05	40.25
1047.2654	3186.9227	924.4	41.95
1047.369	3187.8674	924.95	45.95
1047.4726	3188.8115	925.35	41.15
1047.5761	3189.755	922.15	43.55
1047.6796	3190.6979	921.15	40.95
1047.783	3191.6402	921.35	41.25
1047.8864	3192.5818	920.5	40.65
1047.9898	3193.5229	952.6	45.05
1048.0931	3194.4633	919.8	40.4
1048.1963	3195.4031	922.3	43
1048.2995	3196.3423	920.05	39.85
1048.4027	3197.2809	919.65	38.25
1048.5058	3198.2189	920.4	42.8
1048.6089	3199.1563	937.6	40
1048.7119	3200.0931	921.35	42.85
1048.8148	3201.0292	918.25	39.6
1048.9178	3201.9648	920.05	40.25
1049.0206	3202.8997	923.45	41.75
1049.1235	3203.834	916.4	37.2
1049.2262	3204.7677	917.3	36.3
1049.329	3205.7008	918.75	37.8
1049.4317	3206.6333	917.15	39.7
1049.5343	3207.5652	920.2	37.8
1049.6369	3208.4964	915.6	35.15
1049.7394	3209.4271	917.2	40.05
1049.8419	3210.3571	916.7	37.25
1049.9444	3211.2865	914.55	34.9
1050.0468	3212.2154	917.55	35.4
1050.1491	3213.1436	918.2	35.35
1050.2514	3214.0712	923.6	37.3
1050.3537	3214.9982	918.4	38.55
1050.4559	3215.9246	915.1	35.7
1050.5581	3216.8503	913.8	33.6
1050.6602	3217.7755	915.85	36.95
1050.7623	3218.7001	914	32.85
1050.8643	3219.624	916.5	36.2
1050.9663	3220.5473	914.25	36.3
1051.0682	3221.4701	915.3	34
1051.1701	3222.3922	916	35.15
1051.2719	3223.3137	914.2	33.55
1051.3737	3224.2346	913.05	34.1
1051.4754	3225.1549	914.15	35.7
1051.5771	3226.0746	911.25	32.25
1051.6788	3226.9937	911.95	33.15
1051.7804	3227.9121	909.1	32.55
1051.8819	3228.83	913.45	34.6
1051.9834	3229.7473	915	33.55
1052.0849	3230.6639	912.5	32
1052.1863	3231.5799	912.25	33.9
1052.2876	3232.4954	913.55	32.7
1052.3889	3233.4102	913.2	33.5
1052.4902	3234.3244	915.15	33.95
1052.5914	3235.238	909.85	31.9
1052.6926	3236.151	936.8	33.2
1052.7937	3237.0634	908.2	31.45
1052.8948	3237.9752	911.6	32.8
1052.9958	3238.8864	909.55	28.9
1053.0968	3239.797	908.2	28.3
1053.1977	3240.7069	910.85	31.4
1053.2986	3241.6163	914.05	34.35
1053.3994	3242.5251	909.6	31.4
1053.5002	3243.4332	909.6	31.1
1053.6009	3244.3408	911	30.1
1053.7016	3245.2477	909.8	29.85
1053.8022	3246.154	914.45	37.75
1053.9028	3247.0598	913.5	33.9
1054.0034	3247.9649	908.55	31.8
1054.1039	3248.8694	907.8	28.4
1054.2043	3249.7733	911.1	31.35
1054.3047	3250.6766	906.4	24.6
1054.4051	3251.5793	908.2	27.2
1054.5054	3252.4814	906.75	28.3
1054.6056	3253.3829	906.9	29.55
1054.7058	3254.2838	906.4	25.2
1054.806	3255.1841	905.7	26.85
1054.9061	3256.0838	908.6	29.3
1055.0061	3256.9829	903.6	25.85
1055.1062	3257.8814	906.8	23.9
1055.2061	3258.7792	905.4	24.5
1055.306	3259.6765	905.25	24.55
1055.4059	3260.5731	904.05	25.1
1055.5057	3261.4692	905.8	25.5
1055.6055	3262.3647	902.35	22.65
1055.7052	3263.2595	904.35	24.3
1055.8049	3264.1538	901.3	20.6
1055.9045	3265.0474	900.35	17.7
1056.0041	3265.9404	900.85	22.35
1056.1036	3266.8329	900.4	22.55
1056.2031	3267.7247	913.05	21.5
1056.3025	3268.616	901.15	24.95
1056.4019	3269.5066	900.9	21.15
1056.5013	3270.3966	900.5	20.85
1056.6005	3271.286	897.9	20.85
