Software Version:	3.9.2.0
Unit SN:	10000200
Spectrometer SN:	6960
Date:	3/14/2024 12:32:08 PM
Data Line Index:	25
Spectral Points:	2048
Integration time (ms):	125
Averages:	20
Delay (ms):	30000
Sequence Number:	1
Processing:	dark subtract
Laser Power (mW):	300
Laser Current (mA):	822
Laser Diode Temp (C):	25.1
Laser Case Temp (C):	26.2
System Temp (C):	26.1
Spectrometer Temp (C):	23.7
CCD Temp (C):	0.008
Secondary Temp (C):	20.025
Heatsink Temp (C):	22.658
CCDPCB Temp (C):	36.374
SecondaryPCB Temp (C):	32.672

Wavelength	RamanShift	Raw Counts	Dark Subtracted
787.061	30.1047	417.35	3.75
787.2016	32.3739	417	5
787.3422	34.6426	420.05	8
787.4828	36.9109	419.8	4.9
787.6235	39.1787	424.9	7.25
787.7642	41.4461	430.2	9.1
787.9049	43.7131	433.95	9.85
788.0456	45.9796	434.8	6.05
788.1863	48.2456	438.95	5.85
788.3271	50.5112	445.7	9.55
788.4679	52.7764	449.9	11.45
788.6087	55.0411	453.1	14.05
788.7496	57.3054	457.65	11.15
788.8904	59.5692	461.5	12
789.0313	61.8326	465.45	12.35
789.1722	64.0955	471.65	15.75
789.3132	66.3579	480.2	17.25
789.4541	68.6199	483.8	19.25
789.5951	70.8815	494.15	27.5
789.7361	73.1426	511.2	40.35
789.8771	75.4032	540.65	66.1
790.0181	77.6634	614.3	135.65
790.1592	79.9231	767.9	284.3
790.3003	82.1824	1092.85	606
790.4414	84.4412	1646.4	1153.1
790.5825	86.6995	2352.5	1853
790.7237	88.9574	3055.65	2552.1
790.8648	91.2148	3565.5	3058.3
791.006	93.4717	3797.9	3286.7
791.1472	95.7282	3876.7	3362.7
791.2885	97.9842	3879.75	3361.45
791.4297	100.2398	3847.75	3326.4
791.571	102.4949	3823.15	3301.05
791.7123	104.7495	3774.25	3245.75
791.8536	107.0036	3758.35	3228.25
791.9949	109.2573	3707.75	3180.85
792.1363	111.5105	3635	3107.65
792.2777	113.7632	3569.9	3040.05
792.4191	116.0154	3506.2	2964.9
792.5605	118.2672	3426.45	2893.2
792.7019	120.5185	3355.25	2818.9
792.8434	122.7693	3289.05	2748.55
792.9849	125.0197	3205.25	2665.25
793.1264	127.2696	3156.75	2614.2
793.2679	129.519	3101.9	2555.85
793.4094	131.7679	3079.3	2529.4
793.551	134.0163	3048.5	2494.75
793.6926	136.2642	3057.1	2498.25
793.8342	138.5117	3048	2486.75
793.9758	140.7587	3037.15	2474.8
794.1175	143.0052	3000.5	2434.8
794.2591	145.2512	2957.95	2392.5
794.4008	147.4967	2921.6	2353.85
794.5425	149.7417	2879.75	2311.75
794.6842	151.9863	2835.85	2262.95
794.826	154.2304	2831.05	2256.8
794.9677	156.4739	2822.3	2241.4
795.1095	158.717	2835.3	2255.05
795.2513	160.9596	2847.05	2262.05
795.3931	163.2017	2855.7	2267.55
795.535	165.4433	2895.5	2304.35
795.6768	167.6844	2892	2298.8
795.8187	169.925	2868.85	2273.65
795.9606	172.1651	2839.05	2239
796.1025	174.4047	2793.3	2189.8
796.2445	176.6439	2758.55	2154.55
796.3864	178.8825	2745.1	2138.35
796.5284	181.1206	2707.35	2097.2
796.6704	183.3582	2715.1	2100.1
796.8124	185.5954	2692	2077.85
796.9544	187.832	2685.55	2064.7
797.0965	190.0681	2697.75	2077.1
797.2386	192.3037	2703.9	2079.4
797.3806	194.5388	2699.8	2072.3
797.5228	196.7734	2708.05	2079.25
797.6649	199.0075	2716.7	2083.45
797.807	201.2411	2735.4	2100.95
797.9492	203.4742	2751.95	2117.75
798.0914	205.7068	2773.8	2134.6
798.2336	207.9389	2782.2	2144.25
798.3758	210.1704	2786.05	2144.45
798.518	212.4015	2791.15	2148.1
798.6603	214.632	2787.25	2142.2
798.8025	216.862	2791.1	2153
798.9448	219.0915	2778	2147.45
799.0871	221.3205	2791.8	2162.95
799.2294	223.549	2807.2	2185.55
799.3718	225.777	2805.35	2181.25
799.5141	228.0044	2808.6	2181.65
799.6565	230.2314	2794.05	2171.4
799.7989	232.4578	2781.65	2154.15
799.9413	234.6837	2754.1	2119.3
800.0837	236.909	2757.75	2121.85
800.2262	239.1339	2771.75	2109.5
800.3687	241.3582	2753.55	2108.35
800.5111	243.582	2761.15	2088.55
800.6536	245.8053	2750.75	2086.05
800.7961	248.0281	2763.4	2104.15
800.9387	250.2503	2758.5	2091.9
801.0812	252.472	2775.85	2107.1
801.2238	254.6932	2769.35	2099.05
801.3664	256.9139	2781.5	2106.45
801.509	259.134	2790.45	2113.05
801.6516	261.3536	2786.75	2112
801.7942	263.5727	2823.25	2143.65
801.9369	265.7912	2839.8	2162.35
802.0795	268.0092	2909.1	2234.5
802.2222	270.2267	2934.75	2255.65
802.3649	272.4436	2980.85	2297.8
802.5076	274.6601	3001.8	2312.3
802.6504	276.8759	3009.95	2325.55
802.7931	279.0913	3027	2341.65
802.9359	281.3061	3043.6	2356.05
803.0787	283.5204	3060.8	2370.4
803.2215	285.7341	3076.8	2383.2
803.3643	287.9473	3121.65	2427.2
803.5071	290.16	3122.65	2422.45
803.6499	292.3721	3063.3	2368.9
803.7928	294.5837	3038.2	2341.35
803.9357	296.7947	3001.8	2305.5
804.0786	299.0052	2977	2279.9
804.2215	301.2152	2957.4	2257.45
804.3644	303.4246	2955.6	2259.1
804.5074	305.6334	2936.5	2238.6
804.6503	307.8418	2925.15	2224.6
804.7933	310.0495	2910.3	2207.2
804.9363	312.2568	2895.4	2193.8
805.0793	314.4635	2843.15	2140.2
805.2223	316.6696	2818.6	2115.3
805.3653	318.8752	2782.3	2070.55
805.5084	321.0802	2724.2	2021
805.6514	323.2847	2734.3	2024.95
805.7945	325.4887	2726	2017.2
805.9376	327.692	2731.8	2020.95
806.0807	329.8949	2760.85	2052
806.2238	332.0972	2818.5	2108.1
806.367	334.2989	2848.55	2131.65
806.5101	336.5001	2847.65	2132.1
806.6533	338.7007	2826.85	2110.75
806.7965	340.9008	2787.2	2067.45
806.9397	343.1003	2738.55	2017.65
807.0829	345.2992	2692.95	1970.55
807.2261	347.4976	2649.75	1925.7
807.3693	349.6955	2611.3	1883.3
807.5126	351.8927	2604.05	1874.4
807.6559	354.0895	2594.2	1854.25
807.7991	356.2856	2588.7	1858.3
807.9424	358.4812	2570.25	1840.55
808.0857	360.6763	2558.7	1826.55
808.2291	362.8707	2536.75	1804.65
808.3724	365.0646	2552.95	1819.05
808.5158	367.258	2551.65	1815.15
808.6591	369.4508	2555.1	1814.1
808.8025	371.643	2591.8	1851.5
808.9459	373.8346	2608.4	1867.45
809.0893	376.0257	2642.45	1896.55
809.2327	378.2162	2675.75	1929.1
809.3762	380.4062	2680.25	1929.45
809.5196	382.5956	2662.55	1914.1
809.6631	384.7844	2649.05	1899.4
809.8066	386.9726	2590	1837.15
809.9501	389.1603	2560.5	1808.55
810.0936	391.3474	2565.6	1787.65
810.2371	393.5339	2545.05	1792.15
810.3806	395.7199	2533.2	1784.7
810.5241	397.9052	2547.55	1802.3
810.6677	400.09	2574.7	1828.4
810.8113	402.2743	2610.85	1866.65
810.9548	404.4579	2636.35	1893.75
811.0984	406.641	2679.8	1934.25
811.2421	408.8235	2715.55	1969.2
811.3857	411.0054	2758	2010.05
811.5293	413.1868	2819.65	2070.5
811.673	415.3675	2898.2	2148.2
811.8166	417.5477	2910.6	2158.55
811.9603	419.7273	2843.05	2088.1
812.104	421.9064	2769.15	2007.25
812.2477	424.0848	2699.35	1940.5
812.3914	426.2627	2643.25	1882.15
812.5351	428.4399	2588.2	1825.3
812.6788	430.6166	2536.75	1769.1
812.8226	432.7928	2506.4	1737.3
812.9663	434.9683	2458.6	1689.9
813.1101	437.1432	2433.85	1662.6
813.2539	439.3176	2412.95	1643.05
813.3977	441.4914	2401.9	1631.6
813.5415	443.6645	2401.15	1628.6
813.6853	445.8371	2398.15	1625
813.8291	448.0091	2391.95	1620.1
813.973	450.1806	2387.3	1611.15
814.1168	452.3514	2378.2	1603.25
814.2607	454.5216	2394.15	1609.4
814.4046	456.6913	2376.2	1598
814.5485	458.8603	2379.5	1601.35
814.6924	461.0288	2394.85	1617.15
814.8363	463.1967	2380.1	1602.2
814.9802	465.3639	2390.05	1610.5
815.1241	467.5306	2377.45	1597.2
815.2681	469.6967	2361.3	1580.8
815.412	471.8622	2366.6	1585.5
815.556	474.0271	2355.5	1574.35
815.7	476.1914	2361.1	1575.55
815.844	478.3551	2351.4	1567.85
815.988	480.5182	2352	1566.65
816.132	482.6807	2344.15	1558.25
816.276	484.8426	2371.25	1587.45
816.4201	487.0039	2405.1	1618.6
816.5641	489.1647	2436.75	1650.35
816.7082	491.3248	2475.95	1691.55
816.8522	493.4843	2491.15	1704.15
816.9963	495.6432	2492.7	1704.25
817.1404	497.8015	2461.25	1672.95
817.2845	499.9592	2429.4	1640.4
817.4286	502.1163	2374.95	1585.55
817.5727	504.2728	2340.85	1547.6
817.7168	506.4287	2323.15	1532.05
817.861	508.5839	2313	1520.45
818.0051	510.7386	2287	1496.55
818.1493	512.8927	2308.25	1509
818.2935	515.0461	2303.35	1511.55
818.4377	517.199	2323.15	1530
818.5818	519.3512	2340.85	1546.25
818.726	521.5029	2398.7	1599.7
818.8703	523.6539	2454.1	1658.85
819.0145	525.8043	2472.8	1676.1
819.1587	527.9541	2433.75	1636.25
819.303	530.1033	2368.8	1569.65
819.4472	532.2519	2330.95	1532.4
819.5915	534.3999	2302.75	1502.7
819.7357	536.5472	2291.8	1490.1
819.88	538.694	2294.2	1495.55
820.0243	540.8401	2297.9	1495.9
820.1686	542.9856	2308.95	1506.8
820.3129	545.1305	2332.65	1527.7
820.4572	547.2748	2342.75	1539.2
820.6016	549.4185	2344.95	1541.05
820.7459	551.5615	2345.9	1544.7
820.8902	553.704	2358.9	1554.45
821.0346	555.8458	2358.65	1553.7
821.1789	557.987	2382.15	1577.7
821.3233	560.1276	2410.55	1603.9
821.4677	562.2675	2459.8	1654
821.6121	564.4069	2530	1724.95
821.7565	566.5456	2561.2	1755.6
821.9009	568.6837	2561.75	1756.2
822.0453	570.8212	2493.5	1686.2
822.1897	572.958	2421.75	1613.1
822.3342	575.0942	2362	1556
822.4786	577.2299	2322.3	1512.9
822.6231	579.3648	2308.6	1499.65
822.7675	581.4992	2285.85	1476.95
822.912	583.6329	2292.35	1483.1
823.0565	585.766	2302.85	1492.7
823.201	587.8985	2336.55	1526.45
823.3454	590.0304	2401.55	1578.15
823.4899	592.1616	2412.85	1597.95
823.6345	594.2922	2434.85	1622.7
823.779	596.4222	2397.5	1585.3
823.9235	598.5515	2353.15	1539
824.068	600.6802	2294.9	1479.85
824.2126	602.8083	2250.75	1436.25
824.3571	604.9358	2243.3	1426.65
824.5017	607.0626	2227.15	1411.05
824.6462	609.1888	2229.95	1412.75
824.7908	611.3144	2252.35	1433.5
824.9354	613.4393	2280.45	1464.5
825.08	615.5636	2322.1	1505.55
825.2246	617.6873	2371.9	1554.8
825.3692	619.8103	2407.75	1585.7
825.5138	621.9327	2397	1576.45
825.6584	624.0544	2371.6	1553.8
825.803	626.1756	2334.2	1516.4
825.9477	628.2961	2282.8	1462.4
826.0923	630.4159	2247.2	1428.2
826.237	632.5351	2242.95	1424.05
826.3816	634.6537	2242.8	1419.8
826.5263	636.7716	2228.5	1406.75
826.6709	638.8889	2228.55	1404.5
826.8156	641.0056	2226.75	1402.35
826.9603	643.1216	2245.9	1420.55
827.105	645.237	2246.5	1420.6
827.2497	647.3518	2238	1413.35
827.3944	649.4659	2226.6	1402.05
827.5391	651.5793	2185.15	1360.6
827.6838	653.6922	2173.45	1348.55
827.8285	655.8043	2164.9	1340.85
827.9733	657.9159	2161.95	1333.95
828.118	660.0268	2150.6	1318.75
828.2627	662.137	2145.55	1316.55
828.4075	664.2466	2145.6	1317.2
828.5522	666.3556	2148.25	1319.8
828.697	668.4639	2143.15	1311.5
828.8418	670.5716	2138.1	1309.65
828.9865	672.6786	2126.85	1295.55
829.1313	674.785	2124.45	1293.4
829.2761	676.8907	2115.95	1286.55
829.4209	678.9958	2126.55	1297
829.5657	681.1002	2120.7	1290.5
829.7105	683.204	2127.55	1292.9
829.8553	685.3072	2114.35	1280.65
830.0001	687.4097	2112.8	1280.85
830.1449	689.5115	2113.8	1278.95
830.2898	691.6127	2111.05	1280.5
830.4346	693.7132	2112.8	1279.25
830.5794	695.8131	2117.3	1276.9
830.7243	697.9123	2119.15	1283.8
830.8691	700.0109	2109.65	1275.9
831.014	702.1089	2113.05	1278.35
831.1588	704.2061	2136.25	1300.4
831.3037	706.3028	2156.6	1318.85
831.4486	708.3987	2167.05	1331.1
831.5935	710.4941	2177.3	1341.25
831.7383	712.5887	2197.7	1360.85
831.8832	714.6827	2197.2	1358.95
832.0281	716.7761	2165.2	1326.75
832.173	718.8688	2168.55	1327.1
832.3179	720.9608	2161.7	1319.4
832.4628	723.0522	2187.95	1345.95
832.6077	725.1429	2195.5	1357.4
832.7527	727.233	2224.95	1386.8
832.8976	729.3224	2263.45	1423.85
833.0425	731.4112	2326.2	1485.25
833.1874	733.4993	2344.25	1500.05
833.3324	735.5867	2309.55	1467.5
833.4773	737.6735	2252.6	1411.3
833.6222	739.7596	2201.85	1358
833.7672	741.845	2172.35	1330.3
833.9122	743.9298	2168.65	1324.25
834.0571	746.014	2168.7	1327.6
834.2021	748.0974	2198.5	1353.65
834.347	750.1802	2184.6	1339.05
834.492	752.2624	2162.3	1319.2
834.637	754.3439	2173.6	1327.95
834.782	756.4247	2162.85	1310.7
834.9269	758.5048	2147.45	1304.3
835.0719	760.5843	2169.3	1323.95
835.2169	762.6631	2183.75	1339.7
835.3619	764.7413	2214.3	1370.05
835.5069	766.8188	2283.75	1438.15
835.6519	768.8956	2354.1	1508.3
835.7969	770.9718	2412.5	1567.1
835.9419	773.0473	2402.4	1559.35
836.0869	775.1221	2371.4	1524.6
836.232	777.1962	2349.3	1502.45
836.377	779.2697	2392.55	1544.25
836.522	781.3426	2499.45	1643.45
836.667	783.4147	2563.6	1714.35
836.8121	785.4862	2555.45	1710.7
836.9571	787.557	2493	1646.5
837.1021	789.6271	2393.2	1545.75
837.2472	791.6966	2265.9	1418.3
837.3922	793.7654	2173.4	1323.25
837.5373	795.8335	2127.35	1278.35
837.6823	797.901	2089.6	1240.55
837.8274	799.9678	2094.65	1243.4
837.9724	802.0339	2074.8	1226.1
838.1175	804.0993	2082.05	1221.85
838.2626	806.1641	2073.3	1222.4
838.4076	808.2282	2068.55	1217.75
838.5527	810.2916	2056.75	1204.1
838.6978	812.3544	2033.05	1183.5
838.8428	814.4164	2027.8	1179.65
838.9879	816.4778	2039.35	1188.7
839.133	818.5385	2039.15	1187.25
839.2781	820.5986	2063.6	1213.5
839.4232	822.658	2113.8	1259.65
839.5682	824.7166	2166.45	1316.1
839.7133	826.7747	2238.35	1388.15
839.8584	828.832	2296.45	1445.9
840.0035	830.8886	2346.45	1492.2
840.1486	832.9446	2378.8	1527.55
840.2937	834.9999	2358.75	1508.95
840.4388	837.0545	2312.1	1457.35
840.5839	839.1085	2234.55	1382.45
840.729	841.1618	2163.7	1305.7
840.8741	843.2143	2121	1267
841.0192	845.2662	2082.1	1227.45
841.1643	847.3175	2051.35	1198.1
841.3095	849.368	2049.6	1197.05
841.4546	851.4179	2048.15	1194.25
841.5997	853.467	2035.25	1181.4
841.7448	855.5155	2052.05	1198.5
841.8899	857.5633	2042.9	1187.55
842.0351	859.6105	2037.55	1182.5
842.1802	861.6569	2032.7	1178.3
842.3253	863.7027	2018.85	1164.25
842.4704	865.7478	2006.2	1151.05
842.6156	867.7922	1994.55	1138.8
842.7607	869.8359	1987.6	1131.4
842.9058	871.8789	1978.5	1122.25
843.0509	873.9212	2007.15	1118.8
843.1961	875.9629	1986.8	1130.85
843.3412	878.0039	1995.3	1136.9
843.4863	880.0441	1999.25	1143.7
843.6315	882.0837	2018.2	1159.2
843.7766	884.1226	2036.15	1177.05
843.9218	886.1609	2062.05	1208.2
844.0669	888.1984	2104.55	1247
844.212	890.2352	2142.15	1285.25
844.3572	892.2714	2160.95	1299.95
844.5023	894.3069	2154.85	1297.8
844.6475	896.3416	2095.15	1236.1
844.7926	898.3757	2060.9	1202.7
844.9377	900.4091	2032.25	1174.25
845.0829	902.4418	2029.75	1166.2
845.228	904.4739	2050.95	1189
845.3732	906.5052	2083.5	1223.65
845.5183	908.5358	2073.1	1215.9
845.6635	910.5658	2060.3	1198.4
845.8086	912.595	2020.2	1160.6
845.9538	914.6236	1990.9	1132.65
846.0989	916.6515	1965.7	1107.2
846.2441	918.6786	1950.3	1090.3
846.3892	920.7051	1937.65	1076.25
846.5344	922.7309	1931.45	1073.2
846.6795	924.756	1927	1066.65
846.8246	926.7804	1941.4	1078.4
846.9698	928.8041	1944	1079.35
847.1149	930.8272	1958.6	1097.95
847.2601	932.8495	1970.8	1108.4
847.4052	934.8711	1973.7	1110.05
847.5504	936.892	1974.25	1111.95
847.6955	938.9123	1991.7	1128.4
847.8407	940.9318	2015	1152.5
847.9858	942.9506	2034.65	1170.45
848.131	944.9688	2027.5	1163.1
848.2761	946.9862	1992.85	1128.15
848.4213	949.003	1972.15	1107.55
848.5664	951.019	1949.7	1087.35
848.7115	953.0344	1946.75	1082.25
848.8567	955.0491	1920.2	1054.7
849.0018	957.063	1917.7	1054.75
849.147	959.0763	1913.2	1049.55
849.2921	961.0888	1912.7	1047.4
849.4373	963.1007	1896.05	1031.8
849.5824	965.1119	1894.1	1031.55
849.7275	967.1223	1879.4	1014.55
849.8727	969.1321	1873.05	1008.85
850.0178	971.1412	1871.5	1006.45
850.1629	973.1495	1865.75	1000.4
850.3081	975.1572	1908.85	997
850.4532	977.1641	1873.95	1010.5
850.5983	979.1704	1875.25	1009.5
850.7435	981.1759	1870.9	1001.1
850.8886	983.1808	1864.6	998.65
851.0337	985.1849	1860.35	985.45
851.1788	987.1884	1841.1	972.65
851.324	989.1911	1857.45	989.55
851.4691	991.1932	1865.3	998.1
851.6142	993.1945	1859.85	995.05
851.7593	995.1951	1860	993.95
851.9045	997.1951	1857.65	985.25
852.0496	999.1943	1849.75	985.25
852.1947	1001.1928	1838.6	970.75
852.3398	1003.1906	1856.8	991.65
852.4849	1005.1877	1877.85	1007.8
852.63	1007.1841	1894.6	1027.85
852.7751	1009.1798	1906.7	1040.85
852.9202	1011.1748	1908.35	1041.35
853.0653	1013.1691	1883.35	1014.65
853.2104	1015.1627	1843.6	974.75
853.3555	1017.1556	1825.55	959.05
853.5006	1019.1477	1801.4	933.4
853.6457	1021.1392	1783.2	917.1
853.7908	1023.1299	1776.75	908.9
853.9359	1025.12	1773.2	901
854.081	1027.1093	1777.55	909.35
854.2261	1029.0979	1797.25	929.25
854.3712	1031.0859	1803.85	936.4
854.5163	1033.0731	1822.3	953.75
854.6613	1035.0596	1831.4	963.9
854.8064	1037.0454	1812.8	944.2
854.9515	1039.0304	1805.75	935.8
855.0965	1041.0148	1784.2	914.7
855.2416	1042.9985	1761.85	892.45
855.3867	1044.9814	1746.65	880.1
855.5317	1046.9636	1743.55	870.3
855.6768	1048.9452	1746.7	878.65
855.8219	1050.926	1769.05	900.8
855.9669	1052.9061	1775.4	905.65
856.112	1054.8855	1782.1	911.6
856.257	1056.8642	1788.9	918.05
856.4021	1058.8421	1782.75	912.75
856.5471	1060.8194	1768.55	896.9
856.6921	1062.7959	1778.8	909.45
856.8372	1064.7717	1770.5	899.3
856.9822	1066.7469	1765.5	894.25
857.1272	1068.7213	1774.35	900.35
857.2723	1070.695	1767.5	896.25
857.4173	1072.6679	1795.1	922.95
857.5623	1074.6402	1811.15	939.25
857.7073	1076.6117	1830.3	953.95
857.8523	1078.5826	1815.85	945.65
857.9973	1080.5527	1785	911.35
858.1423	1082.5221	1754.9	882.3
858.2873	1084.4908	1721.95	850
858.4323	1086.4587	1708	836.1
858.5773	1088.426	1689.6	817.35
858.7223	1090.3925	1695.35	818
858.8673	1092.3584	1702.55	832.3
859.0123	1094.3235	1695.3	825.8
859.1573	1096.2879	1705.75	832.15
859.3022	1098.2515	1720.1	849.15
859.4472	1100.2145	1750.1	878.35
859.5922	1102.1767	1773.75	896.95
859.7371	1104.1382	1803.2	926.8
859.8821	1106.099	1856.7	979.05
860.027	1108.0591	1891.95	1018.75
860.172	1110.0185	1926.25	1052.6
860.3169	1111.9771	1950.9	1079.6
860.4619	1113.9351	1991.5	1116.95
860.6068	1115.8923	2062.2	1186.95
860.7517	1117.8488	2098.75	1223.95
860.8967	1119.8045	2070.8	1198.25
861.0416	1121.7596	1984.9	1110.3
861.1865	1123.7139	1892.55	1018.85
861.3314	1125.6675	1819.35	945.85
861.4763	1127.6204	1818.1	944.3
861.6212	1129.5726	1837.1	963.25
861.7661	1131.524	1837.15	964.5
861.911	1133.4748	1808.05	936.25
862.0559	1135.4248	1748.15	872.3
862.2008	1137.3741	1709.65	837.3
862.3457	1139.3226	1689.25	814.05
862.4905	1141.2705	1681.35	807.15
862.6354	1143.2176	1678.7	797.75
862.7803	1145.164	1699.7	824.45
862.9251	1147.1097	1695.4	822.15
863.07	1149.0546	1682.6	807.55
863.2148	1150.9989	1664.6	789.05
863.3597	1152.9424	1644.2	768.35
863.5045	1154.8852	1630.55	754.45
863.6493	1156.8272	1617.6	743.35
863.7942	1158.7686	1625.4	743.5
863.939	1160.7092	1621.6	744.95
864.0838	1162.6491	1620.55	742.7
864.2286	1164.5883	1619.65	744.5
864.3734	1166.5267	1630.05	754.45
864.5182	1168.4644	1649.05	774
864.663	1170.4014	1674.25	792.4
864.8078	1172.3377	1701.15	827.65
864.9526	1174.2732	1741.15	867.05
865.0974	1176.2081	1808.05	934.65
865.2421	1178.1421	1897.75	1018.25
865.3869	1180.0755	2014.25	1139.8
865.5317	1182.0082	2080.95	1205.95
865.6764	1183.9401	2091.95	1214.6
865.8212	1185.8713	2018.2	1142.9
865.9659	1187.8017	1920	1043.35
866.1106	1189.7315	1809.7	935.05
866.2554	1191.6605	1761.75	856.25
866.4001	1193.5888	1707.25	831.7
866.5448	1195.5163	1661.65	784.75
866.6895	1197.4432	1638.1	759.5
866.8342	1199.3693	1623.45	745.75
866.9789	1201.2947	1625.85	743.1
867.1236	1203.2193	1599.6	722.8
867.2683	1205.1432	1600.8	725
867.413	1207.0664	1588.65	713.9
867.5576	1208.9889	1594.35	714.35
867.7023	1210.9106	1594.75	719.25
867.847	1212.8316	1584.7	709.55
867.9916	1214.7519	1611.1	722.75
868.1363	1216.6715	1613.2	735.75
868.2809	1218.5903	1618.35	741.1
868.4255	1220.5084	1626.4	750.75
868.5701	1222.4257	1632.9	754.3
868.7148	1224.3424	1634.5	756.65
868.8594	1226.2583	1654.3	770.05
869.004	1228.1735	1670.65	793.15
869.1486	1230.0879	1699.45	819.7
869.2932	1232.0016	1734.2	856.7
869.4377	1233.9146	1750.05	869.7
869.5823	1235.8269	1783.2	905.6
869.7269	1237.7384	1771.85	894.75
869.8715	1239.6492	1767.35	890.55
870.016	1241.5592	1788.75	910.55
870.1606	1243.4686	1805.9	929.5
870.3051	1245.3772	1860.4	981.4
870.4496	1247.285	1934.4	1055.65
870.5941	1249.1922	1998.65	1119.85
870.7387	1251.0986	2056.25	1179.55
870.8832	1253.0042	2107.95	1229.15
871.0277	1254.9092	2175.8	1296.65
871.1722	1256.8134	2258.9	1381.95
871.3167	1258.7169	2341.45	1461.35
871.4611	1260.6196	2405.25	1527.1
871.6056	1262.5216	2449.2	1568.7
871.7501	1264.4229	2444.85	1568
871.8945	1266.3234	2428.4	1551.25
872.039	1268.2232	2385.5	1505.85
872.1834	1270.1223	2335.6	1456.4
872.3278	1272.0207	2294.7	1415.8
872.4723	1273.9183	2274.6	1390.85
872.6167	1275.8151	2257.95	1380.6
872.7611	1277.7113	2282.85	1402.95
872.9055	1279.6067	2355.5	1475.8
873.0499	1281.5014	2460.1	1579.55
873.1943	1283.3953	2615.7	1734.95
873.3386	1285.2885	2780.75	1902.2
873.483	1287.181	2936.05	2055
873.6274	1289.0727	3006.9	2127.8
873.7717	1290.9637	2980.3	2099.9
873.9161	1292.854	2880.45	2000.7
874.0604	1294.7435	2754.7	1873.5
874.2047	1296.6323	2636.65	1758.35
874.349	1298.5204	2545.05	1662.15
874.4933	1300.4077	2448.35	1568.85
874.6376	1302.2943	2397	1514.8
874.7819	1304.1802	2366.5	1488.1
874.9262	1306.0653	2337.85	1457.15
875.0705	1307.9497	2310.65	1430.4
875.2147	1309.8333	2287.45	1408
875.359	1311.7162	2261.5	1381.8
875.5032	1313.5984	2253.25	1370.95
875.6475	1315.4798	2241.8	1351.9
875.7917	1317.3605	2246.05	1349.95
875.9359	1319.2405	2249.75	1370.35
876.0801	1321.1197	2254.95	1371.75
876.2243	1322.9982	2235.75	1351.35
876.3685	1324.876	2195.7	1314.65
876.5127	1326.753	2122.75	1240.2
876.6569	1328.6293	2047.6	1163.85
876.801	1330.5048	1961.4	1079.35
876.9452	1332.3796	1882.2	1003.95
877.0893	1334.2537	1855.45	951.5
877.2335	1336.127	1790.8	912.4
877.3776	1337.9996	1748.6	867.9
877.5217	1339.8714	1728.25	847.85
877.6658	1341.7426	1746.7	821.15
877.8099	1343.6129	1701.7	821.25
877.954	1345.4826	1682.8	801.25
878.0981	1347.3515	1660.5	776.25
878.2422	1349.2196	1654.75	774.5
878.3862	1351.087	1641.95	761.65
878.5303	1352.9537	1641.15	761.35
878.6743	1354.8197	1646.6	767.05
878.8184	1356.6849	1647.2	765.65
878.9624	1358.5493	1651.3	770.15
879.1064	1360.4131	1678.75	797.45
879.2504	1362.276	1699.05	819.2
879.3944	1364.1383	1729.2	848.35
879.5384	1365.9998	1756.15	870.65
879.6823	1367.8606	1745.9	864.55
879.8263	1369.7206	1749.05	867.9
879.9702	1371.5799	1749.25	866.2
880.1142	1373.4384	1732.95	852.15
880.2581	1375.2962	1714	833.35
880.402	1377.1533	1675.85	794.4
880.5459	1379.0096	1638.6	757.3
880.6898	1380.8652	1609.85	728.05
880.8337	1382.7201	1583.2	702.8
880.9776	1384.5742	1561	678.35
881.1215	1386.4275	1539.1	656.5
881.2653	1388.2802	1529.75	649.5
881.4092	1390.132	1506	624.25
881.553	1391.9832	1506.1	621.6
881.6968	1393.8336	1495.15	612.2
881.8406	1395.6832	1492.25	607.6
881.9844	1397.5322	1486.3	604.8
882.1282	1399.3803	1484.15	598.2
882.272	1401.2278	1471.9	590.5
882.4158	1403.0745	1468.8	587.35
882.5595	1404.9204	1457.5	577.15
882.7033	1406.7656	1448.8	569.15
882.847	1408.6101	1441.1	559.25
882.9908	1410.4538	1445.8	562.75
883.1345	1412.2968	1442.55	561.75
883.2782	1414.139	1446.9	567.9
883.4219	1415.9805	1449.4	568.6
883.5656	1417.8213	1462.15	573.85
883.7092	1419.6613	1465.9	584.9
883.8529	1421.5006	1491.65	607.55
883.9965	1423.3391	1521.75	639.9
884.1402	1425.1769	1555	671.55
884.2838	1427.0139	1626.8	744
884.4274	1428.8502	1696.2	814.3
884.571	1430.6858	1761.35	877.95
884.7146	1432.5206	1778.15	896.75
884.8582	1434.3547	1780.4	897.1
885.0018	1436.188	1762.5	881.35
885.1453	1438.0206	1744.9	863.5
885.2889	1439.8524	1738.1	855.15
885.4324	1441.6835	1740.95	856.55
885.5759	1443.5139	1741.25	855.2
885.7194	1445.3435	1732.2	848.6
885.8629	1447.1724	1736.4	852.4
886.0064	1449.0005	1742	861.2
886.1499	1450.8279	1722.8	839.3
886.2933	1452.6545	1731.15	849.75
886.4368	1454.4804	1725.35	843.05
886.5802	1456.3056	1722.1	832.4
886.7237	1458.13	1700.5	818.85
886.8671	1459.9536	1687.2	803.55
887.0105	1461.7766	1649.65	768.95
887.1539	1463.5987	1623.45	738.35
887.2972	1465.4202	1591.35	709.4
887.4406	1467.2409	1558.95	675.9
887.584	1469.0608	1531.8	650.2
887.7273	1470.88	1500.3	614.9
887.8706	1472.6984	1482.2	599.05
888.0139	1474.5161	1456.8	571.55
888.1572	1476.3331	1440.95	558.3
888.3005	1478.1493	1443.4	560.55
888.4438	1479.9648	1433.15	551.5
888.5871	1481.7795	1436.9	553.95
888.7303	1483.5935	1427.85	544.85
888.8736	1485.4067	1427.85	542.4
889.0168	1487.2192	1430.3	545.35
889.16	1489.031	1436.85	552.05
889.3032	1490.842	1426.85	543
889.4464	1492.6522	1431.05	549.75
889.5896	1494.4618	1430	545.55
889.7327	1496.2705	1434.9	553.75
889.8759	1498.0785	1421.95	538.95
890.019	1499.8858	1421.15	537.2
890.1622	1501.6924	1414.4	533
890.3053	1503.4981	1409.75	525.6
890.4484	1505.3032	1411.2	527.4
890.5914	1507.1075	1399.25	515.9
890.7345	1508.911	1391.8	506.2
890.8776	1510.7138	1391.15	507.95
891.0206	1512.5159	1379.1	495.5
891.1637	1514.3172	1386.4	503.7
891.3067	1516.1178	1368.65	487.5
891.4497	1517.9176	1363.7	475.25
891.5927	1519.7166	1364.95	482.4
891.7357	1521.515	1367.45	477.6
891.8786	1523.3126	1354.05	470.5
892.0216	1525.1094	1342.7	455.1
892.1645	1526.9055	1343.6	461.45
892.3074	1528.7008	1338.65	454.7
892.4503	1530.4954	1338	448.2
892.5932	1532.2893	1332.35	450.5
892.7361	1534.0824	1335.55	445.8
892.879	1535.8747	1330.6	445.2
893.0218	1537.6663	1331.45	446.6
893.1647	1539.4572	1328.1	444.95
893.3075	1541.2473	1326.9	442.2
893.4503	1543.0367	1329.7	446.05
893.5931	1544.8253	1331.05	441.05
893.7359	1546.6132	1334.55	448.35
893.8787	1548.4003	1343.75	450.95
894.0214	1550.1867	1344.35	451.55
894.1642	1551.9723	1350.75	463.7
894.3069	1553.7572	1359.5	473.4
894.4496	1555.5414	1365.8	481.05
894.5923	1557.3247	1382.15	498.35
894.735	1559.1074	1412.05	528.05
894.8777	1560.8893	1440.95	557.25
895.0204	1562.6705	1473.4	589.95
895.163	1564.4509	1492.1	605.1
895.3056	1566.2305	1506.25	623.1
895.4482	1568.0094	1516	633.4
895.5908	1569.7876	1509.4	626.1
895.7334	1571.565	1516.05	630.8
895.876	1573.3417	1512.75	631.7
896.0186	1575.1176	1508.75	626.95
896.1611	1576.8928	1526.85	642.55
896.3036	1578.6672	1541.6	658.3
896.4461	1580.4409	1560.85	677.2
896.5886	1582.2138	1592.5	704.95
896.7311	1583.986	1625.4	740.9
896.8736	1585.7575	1660.5	776.45
897.0161	1587.5282	1679.25	796.1
897.1585	1589.2981	1702.95	819.8
897.3009	1591.0673	1724.55	839.45
897.4433	1592.8358	1733.5	851.05
897.5857	1594.6035	1732.45	843.1
897.7281	1596.3704	1714.15	829.45
897.8705	1598.1366	1695.45	812
898.0128	1599.9021	1673.45	789.45
898.1551	1601.6668	1655.7	768.15
898.2975	1603.4308	1632.45	746.45
898.4398	1605.194	1628.15	739
898.5821	1606.9564	1633.9	749.3
898.7243	1608.7182	1684.2	792.95
898.8666	1610.4791	1735.35	849.9
899.0088	1612.2394	1817.85	932.75
899.1511	1613.9988	1910.3	1025.45
899.2933	1615.7576	1987.25	1103.85
899.4355	1617.5156	2036.15	1146.35
899.5776	1619.2728	2040.6	1156.4
899.7198	1621.0293	1970.7	1084.05
899.862	1622.785	1885.8	996.05
900.0041	1624.54	1778.3	890.1
900.1462	1626.2942	1692.55	805.55
900.2883	1628.0477	1590.75	701.15
900.4304	1629.8005	1512.65	620.75
900.5725	1631.5525	1457.2	570.9
900.7145	1633.3037	1412.35	528.55
900.8566	1635.0542	1377.3	492.55
900.9986	1636.804	1354.05	468.35
901.1406	1638.553	1384.65	433.45
901.2826	1640.3013	1313.05	429.55
901.4245	1642.0488	1291.85	405.65
901.5665	1643.7955	1276.95	392.65
901.7085	1645.5416	1274.05	387.35
901.8504	1647.2868	1266.25	381.7
901.9923	1649.0313	1260.4	375.05
902.1342	1650.7751	1258.5	369
902.2761	1652.5181	1252.55	367.2
902.4179	1654.2604	1242.7	356.95
902.5598	1656.0019	1247.7	363.2
902.7016	1657.7427	1250.8	366.9
902.8434	1659.4828	1264.65	378.4
902.9852	1661.222	1285.95	397.5
903.127	1662.9606	1315.7	431.2
903.2687	1664.6984	1343.3	458.25
903.4105	1666.4354	1367.4	480.8
903.5522	1668.1717	1355.95	471.3
903.6939	1669.9072	1335.6	450.7
903.8356	1671.642	1301.05	415
903.9773	1673.3761	1262.2	377.75
904.119	1675.1094	1235.65	351.45
904.2606	1676.8419	1218.25	333.8
904.4022	1678.5737	1202.15	316.9
904.5439	1680.3048	1192.1	306.15
904.6855	1682.0351	1184.95	301.95
904.827	1683.7646	1183.6	295.95
904.9686	1685.4934	1176.4	292.05
905.1101	1687.2215	1178	291.95
905.2517	1688.9488	1164.75	279.45
905.3932	1690.6754	1162.2	278.75
905.5347	1692.4012	1165.4	280.85
905.6761	1694.1263	1161.7	278.3
905.8176	1695.8506	1160.8	274.3
905.9591	1697.5742	1159.95	275.05
906.1005	1699.297	1149.45	264.45
906.2419	1701.0191	1149.35	263.3
906.3833	1702.7404	1148.6	263.45
906.5246	1704.461	1152.4	266.6
906.666	1706.1808	1151.1	265.05
906.8073	1707.8999	1145.5	258.9
906.9487	1709.6182	1147.7	261.65
907.09	1711.3358	1147.65	262.1
907.2313	1713.0527	1138.45	254
907.3725	1714.7688	1145.7	254.6
907.5138	1716.4841	1137	250.85
907.655	1718.1987	1144.35	253.45
907.7962	1719.9126	1138.35	254.9
907.9374	1721.6257	1135	245.75
908.0786	1723.338	1132.4	245
908.2198	1725.0496	1131.85	245.35
908.3609	1726.7605	1132.45	247.55
908.502	1728.4706	1135.7	247.55
908.6431	1730.18	1132.8	244.5
908.7842	1731.8886	1126.15	240.15
908.9253	1733.5964	1152.2	246.9
909.0664	1735.3036	1129.4	242.75
909.2074	1737.0099	1131	245.7
909.3484	1738.7156	1120.45	236
909.4894	1740.4204	1130.1	239.65
909.6304	1742.1246	1129.15	242.7
909.7714	1743.8279	1122.2	237.55
909.9123	1745.5306	1122.4	235.15
910.0532	1747.2325	1118.05	233.5
910.1941	1748.9336	1124.75	239.5
910.335	1750.634	1125.4	237.85
910.4759	1752.3336	1119.7	233.8
910.6168	1754.0325	1116.4	232.3
910.7576	1755.7307	1118.2	232.85
910.8984	1757.4281	1115.85	229.2
911.0392	1759.1247	1127.95	235.7
911.18	1760.8206	1117.75	228.7
911.3208	1762.5158	1118.85	230
911.4615	1764.2102	1113.75	228.25
911.6022	1765.9039	1110.5	223.05
911.7429	1767.5968	1112.95	229.2
911.8836	1769.289	1115.45	229.9
912.0243	1770.9804	1114.45	226.65
912.1649	1772.6711	1110.6	225.15
912.3056	1774.361	1115.6	228.8
912.4462	1776.0502	1112.5	225.95
912.5868	1777.7386	1111.9	222.05
912.7274	1779.4263	1107.9	222.8
912.8679	1781.1132	1105.55	220.75
913.0084	1782.7994	1110.6	221.15
913.149	1784.4849	1110.25	224.2
913.2895	1786.1696	1116.3	224.05
913.4299	1787.8535	1111.15	225.7
913.5704	1789.5367	1106.05	219.65
913.7108	1791.2192	1112.5	227.15
913.8513	1792.9009	1116.95	216.45
913.9917	1794.5818	1103.75	216.2
914.132	1796.2621	1098.35	215.3
914.2724	1797.9415	1104.65	218.65
914.4128	1799.6202	1103.85	217.35
914.5531	1801.2982	1102.15	217.9
914.6934	1802.9755	1103.55	217.1
914.8337	1804.6519	1102.25	215.4
914.9739	1806.3277	1102.35	216.8
915.1142	1808.0027	1098.7	212.85
915.2544	1809.6769	1096.9	210.1
915.3946	1811.3504	1100.8	213
915.5348	1813.0231	1097.65	211.55
915.675	1814.6951	1098.7	213.35
915.8151	1816.3664	1100.4	212.9
915.9553	1818.0369	1098.15	212.2
916.0954	1819.7067	1099.75	215.45
916.2355	1821.3757	1096.3	207.6
916.3755	1823.044	1095.4	210.6
916.5156	1824.7115	1094.35	207.3
916.6556	1826.3783	1093.35	207.45
916.7956	1828.0443	1092.35	210
916.9356	1829.7096	1097.05	210.45
917.0756	1831.3741	1094.3	205.25
917.2155	1833.0379	1091.6	207.45
917.3555	1834.701	1087.95	198.15
917.4954	1836.3633	1095	206.9
917.6353	1838.0248	1089.95	203.1
917.7751	1839.6856	1091	203.4
917.915	1841.3457	1084.1	200
918.0548	1843.005	1086.15	201.45
918.1946	1844.6636	1085.55	201.75
918.3344	1846.3214	1091.9	206.4
918.4742	1847.9785	1086.05	198.9
918.6139	1849.6349	1088.4	201.25
918.7537	1851.2904	1099.75	204.4
918.8934	1852.9453	1086.25	200.05
919.0331	1854.5994	1085.85	196.95
919.1727	1856.2528	1091.55	202.4
919.3124	1857.9054	1087.4	201.05
919.452	1859.5572	1084.9	200.65
919.5916	1861.2083	1082.95	195.55
919.7312	1862.8587	1083.8	197.55
919.8708	1864.5084	1084.8	197.15
920.0103	1866.1572	1085.5	200.7
920.1498	1867.8054	1080.55	195
920.2893	1869.4528	1082.05	197.15
920.4288	1871.0994	1080.95	196
920.5683	1872.7453	1085.25	198.85
920.7077	1874.3905	1088.85	196.7
920.8471	1876.0349	1078.35	191.45
920.9865	1877.6786	1082.4	195.8
921.1259	1879.3215	1077.45	192.4
921.2653	1880.9637	1082	195.6
921.4046	1882.6051	1078.65	193.2
921.5439	1884.2458	1077.65	188.2
921.6832	1885.8858	1078.3	193.1
921.8225	1887.525	1083.85	198.2
921.9617	1889.1634	1073	186.15
922.101	1890.8011	1076.8	190.4
922.2402	1892.4381	1073.05	187.25
922.3794	1894.0743	1070.9	185.4
922.5185	1895.7098	1073.15	187.55
922.6577	1897.3446	1077.7	190.6
922.7968	1898.9786	1079.05	190.35
922.9359	1900.6118	1074.6	189.1
923.075	1902.2443	1073.3	185.3
923.214	1903.8761	1071.15	185.05
923.3531	1905.5071	1076.3	188.25
923.4921	1907.1374	1067.1	181.75
923.6311	1908.7669	1070.15	183.6
923.77	1910.3957	1068.1	181.55
923.909	1912.0237	1068.55	182.3
924.0479	1913.651	1067.85	181.55
924.1868	1915.2776	1061	176.8
924.3257	1916.9034	1063.9	178.45
924.4646	1918.5285	1064.2	179.5
924.6034	1920.1528	1066.65	179.9
924.7422	1921.7764	1064.35	179.25
924.881	1923.3992	1063.95	177.25
925.0198	1925.0213	1064.15	177.2
925.1586	1926.6427	1061.2	176.8
925.2973	1928.2633	1147.65	174.75
925.436	1929.8832	1066.75	178.8
925.5747	1931.5023	1063.35	176.95
925.7134	1933.1207	1063.75	179.75
925.852	1934.7383	1063.45	176.1
925.9906	1936.3552	1056.45	169.95
926.1292	1937.9714	1064.75	177.55
926.2678	1939.5868	1057.7	171
926.4064	1941.2015	1058.45	171.8
926.5449	1942.8154	1062.85	176.3
926.6834	1944.4286	1055.1	166.75
926.8219	1946.041	1078.8	166.6
926.9604	1947.6528	1057.95	166.4
927.0988	1949.2637	1055.2	170.05
927.2372	1950.8739	1054.8	167.3
927.3756	1952.4834	1059.3	173.45
927.514	1954.0921	1055.4	167.1
927.6523	1955.7001	1057.7	167.35
927.7907	1957.3074	1054.75	169.9
927.929	1958.9139	1048.95	164.5
928.0673	1960.5197	1052.7	166.95
928.2055	1962.1247	1049.2	161.1
928.3438	1963.729	1046.5	161.45
928.482	1965.3325	1077.95	166.95
928.6202	1966.9353	1055.2	168
928.7584	1968.5374	1049.5	162.05
928.8965	1970.1387	1050.2	163.15
929.0346	1971.7393	1050.85	164.95
929.1727	1973.3392	1046.7	160.9
929.3108	1974.9383	1044.8	160.9
929.4489	1976.5366	1050.95	164.95
929.5869	1978.1342	1050.35	162.2
929.7249	1979.7311	1047.55	160
929.8629	1981.3273	1048.45	161.3
930.0009	1982.9227	1047.75	160
930.1388	1984.5173	1043.8	158.25
930.2767	1986.1112	1045.9	157.85
930.4146	1987.7044	1042.25	156.7
930.5525	1989.2968	1046.55	158.45
930.6904	1990.8885	1050.75	161.3
930.8282	1992.4795	1052.85	164.25
930.966	1994.0697	1046.4	158.15
931.1038	1995.6592	1044.8	157.4
931.2415	1997.2479	1043.3	155.55
931.3793	1998.8359	1039.4	152.8
931.517	2000.4232	1046.35	160.15
931.6547	2002.0097	1041.4	156.45
931.7923	2003.5955	1044.95	158.45
931.93	2005.1805	1045.25	156.45
932.0676	2006.7648	1043.75	158.25
932.2052	2008.3484	1041.7	153.95
932.3427	2009.9312	1041.55	153.85
932.4803	2011.5133	1039.4	153.35
932.6178	2013.0946	1038.05	152.5
932.7553	2014.6752	1035.8	150.6
932.8928	2016.2551	1040.4	152
933.0302	2017.8342	1038.5	151.8
933.1676	2019.4126	1037.2	151.1
933.305	2020.9902	1035.9	151.55
933.4424	2022.5672	1037.8	149.55
933.5798	2024.1433	1040.85	149.5
933.7171	2025.7188	1034.6	149.8
933.8544	2027.2935	1038.35	151.25
933.9917	2028.8674	1036.9	149.2
934.129	2030.4406	1030.45	144.15
934.2662	2032.0131	1034.75	151.05
934.4034	2033.5849	1040.95	151.35
934.5406	2035.1559	1036.25	151.85
934.6778	2036.7261	1030.6	145.45
934.8149	2038.2957	1035.35	149.65
934.952	2039.8645	1034.9	149.7
935.0891	2041.4325	1040.4	151.3
935.2262	2042.9998	1033.2	147.05
935.3632	2044.5664	1036.3	146.35
935.5002	2046.1323	1035.45	149.15
935.6372	2047.6974	1035.5	149.85
935.7742	2049.2617	1031.4	147.15
935.9111	2050.8254	1069.15	150.6
936.048	2052.3883	1035.5	146.7
936.1849	2053.9504	1036.15	149.45
936.3218	2055.5118	1029.95	141.5
936.4586	2057.0725	1035.8	144.95
936.5955	2058.6325	1034.1	145.25
936.7323	2060.1917	1031	145.2
936.869	2061.7502	1032.35	143.65
937.0058	2063.3079	1032.8	147.7
937.1425	2064.8649	1033.45	145.5
937.2792	2066.4212	1036.95	149.1
937.4159	2067.9767	1032.9	147.2
937.5525	2069.5315	1025.5	137.2
937.6891	2071.0856	1031.1	146
937.8257	2072.6389	1032.4	143.8
937.9623	2074.1915	1027.4	141.85
938.0989	2075.7433	1030.35	140.5
938.2354	2077.2945	1022.9	137.95
938.3719	2078.8448	1026.85	142.8
938.5084	2080.3945	1029.4	142.8
938.6448	2081.9434	1031.4	146.1
938.7812	2083.4916	1025.6	137.3
938.9176	2085.039	1029.6	142.5
939.054	2086.5857	1030.95	142.3
939.1903	2088.1317	1028.05	142.3
939.3267	2089.677	1026.15	139.75
939.463	2091.2215	1022.8	138.05
939.5992	2092.7652	1025.45	138.05
939.7355	2094.3083	1027.9	141.8
939.8717	2095.8506	1026.1	141.1
940.0079	2097.3921	1024.4	137.3
940.1441	2098.933	1022.2	134.9
940.2802	2100.4731	1024.65	138.3
940.4163	2102.0124	1032.55	139.2
940.5524	2103.5511	1030.7	143.9
940.6885	2105.089	1026.05	140
940.8245	2106.6261	1023.85	137.65
940.9606	2108.1626	1022.75	135.9
941.0965	2109.6983	1053.7	137.1
941.2325	2111.2332	1026.5	138.85
941.3684	2112.7675	1025.55	137.55
941.5044	2114.301	1026.15	138.7
941.6403	2115.8337	1023.05	136.35
941.7761	2117.3657	1025.3	138.95
941.912	2118.897	1026.8	140.35
942.0478	2120.4276	1030.2	138.9
942.1835	2121.9575	1024.85	140.4
942.3193	2123.4866	1033.8	134.65
942.455	2125.0149	1025.25	135.9
942.5907	2126.5426	1025.7	139.2
942.7264	2128.0695	1028.9	138.75
942.8621	2129.5956	1021.35	135.95
942.9977	2131.1211	1027.45	136.35
943.1333	2132.6458	1025.4	138.9
943.2689	2134.1698	1020.8	135.65
943.4044	2135.693	1022.55	134.45
943.54	2137.2155	1022.85	135.25
943.6755	2138.7373	1022.45	135.3
943.8109	2140.2584	1019.15	131.25
943.9464	2141.7787	1025.5	133.6
944.0818	2143.2983	1021.5	134.7
944.2172	2144.8171	1018.75	133.4
944.3526	2146.3353	1023	134.4
944.4879	2147.8527	1018.5	133.8
944.6232	2149.3693	1023.5	137.75
944.7585	2150.8853	1017.15	131.9
944.8938	2152.4005	1019.6	132.45
945.029	2153.9149	1018.35	132.4
945.1642	2155.4287	1020.1	134.7
945.2994	2156.9417	1018.45	131.7
945.4346	2158.454	1021.55	131
945.5697	2159.9655	1020.75	133.45
945.7048	2161.4764	1019.85	134.45
945.8399	2162.9865	1015.5	128.35
945.9749	2164.4958	1017.6	130.6
946.1099	2166.0045	1017.9	129.45
946.2449	2167.5124	1017.15	129.8
946.3799	2169.0195	1015.8	129.2
946.5148	2170.526	1015.3	128.95
946.6498	2172.0317	1014.5	129
946.7846	2173.5367	1014.7	127.95
946.9195	2175.0409	1017	131.55
947.0543	2176.5445	1012.55	127.3
947.1891	2178.0473	1014.65	128.2
947.3239	2179.5494	1020.8	129.95
947.4587	2181.0507	1014.7	126.85
947.5934	2182.5513	1014.05	127.7
947.7281	2184.0512	1013.4	127.2
947.8628	2185.5504	1014.75	129.2
947.9974	2187.0488	1010.8	123.5
948.132	2188.5465	1016.65	129.4
948.2666	2190.0435	1015.2	127.6
948.4012	2191.5397	1014.6	127.15
948.5357	2193.0353	1012.65	127.2
948.6702	2194.5301	1014.6	126.75
948.8047	2196.0241	1011.7	125.7
948.9392	2197.5175	1011.7	125.05
949.0736	2199.0101	1017.65	129.4
949.208	2200.502	1011.35	126.75
949.3424	2201.9931	1010.1	122.6
949.4767	2203.4835	1012.8	125.3
949.611	2204.9733	1017.1	125.55
949.7453	2206.4622	1010.25	121.8
949.8796	2207.9505	1014.05	124.35
950.0138	2209.438	1009.95	123.95
950.148	2210.9248	1010.4	122.3
950.2822	2212.4109	1005.95	120.1
950.4164	2213.8962	1008.55	120.6
950.5505	2215.3809	1007.8	120.5
950.6846	2216.8648	1005.75	118.25
950.8186	2218.3479	1009.15	120.15
950.9527	2219.8304	1008.6	119.2
951.0867	2221.3121	1008.45	118.65
951.2207	2222.7931	1004.7	118.8
951.3546	2224.2733	1007.6	121.3
951.4886	2225.7529	1008.25	122.05
951.6225	2227.2317	1005.65	117.75
951.7563	2228.7098	1001.25	113.85
951.8902	2230.1872	1001.65	116
952.024	2231.6638	1005.6	120.25
952.1578	2233.1397	1008.3	117.1
952.2916	2234.6149	1007.1	119.9
952.4253	2236.0894	1006.05	118.7
952.559	2237.5632	1014.6	117.65
952.6927	2239.0362	1003.95	117
952.8263	2240.5085	1003.35	117.3
952.9599	2241.9801	1004.5	116.85
953.0935	2243.4509	1000.65	115.6
953.2271	2244.921	1001.3	116.05
953.3606	2246.3904	1001.4	112.65
953.4941	2247.8591	1000.3	113.7
953.6276	2249.3271	995.35	107.9
953.7611	2250.7943	999.65	113.85
953.8945	2252.2608	1000.7	116.1
954.0279	2253.7266	996.6	109.75
954.1612	2255.1917	995	109.85
954.2946	2256.656	1002.15	116.1
954.4279	2258.1197	998.75	113.35
954.5612	2259.5826	998.7	111.9
954.6944	2261.0447	996.5	108.2
954.8276	2262.5062	995.55	105.3
954.9608	2263.9669	999.75	112.4
955.094	2265.4269	998.2	111.85
955.2271	2266.8862	997.1	111.15
955.3602	2268.3448	998.9	111.5
955.4933	2269.8026	996.8	110.55
955.6264	2271.2598	997.3	111.25
955.7594	2272.7162	994.7	109.65
955.8924	2274.1719	996.35	110.65
956.0253	2275.6268	998.4	111.85
956.1583	2277.0811	994.35	106.55
956.2912	2278.5346	993.4	107.25
956.4241	2279.9874	993.6	106.3
956.5569	2281.4395	995.45	108.65
956.6897	2282.8908	1000.35	107.35
956.8225	2284.3414	996.3	109.05
956.9553	2285.7914	991.95	107.2
957.088	2287.2406	993.45	106.5
957.2207	2288.689	993.55	107.5
957.3534	2290.1368	994	107.1
957.486	2291.5838	996.6	109.35
957.6186	2293.0302	993.8	106.35
957.7512	2294.4758	992.2	105.25
957.8838	2295.9206	993.6	106.3
958.0163	2297.3648	991.45	104.3
958.1488	2298.8082	991.15	103.1
958.2813	2300.251	988.8	100.7
958.4137	2301.693	990.65	102.9
958.5461	2303.1343	994.15	108.2
958.6785	2304.5748	989.6	103.4
958.8108	2306.0147	988.6	103
958.9432	2307.4538	992.9	104.15
959.0754	2308.8922	988.05	101
959.2077	2310.3299	989.95	102.9
959.3399	2311.7669	989.25	103.25
959.4721	2313.2031	986.95	101.4
959.6043	2314.6387	990.45	105.35
959.7365	2316.0735	986.4	98.7
959.8686	2317.5076	991.5	106.55
960.0006	2318.941	988	103.75
960.1327	2320.3737	987.9	102.35
960.2647	2321.8056	991.3	104.75
960.3967	2323.2369	992.15	105.5
960.5287	2324.6674	994.15	104.5
960.6606	2326.0972	991.6	104.05
960.7925	2327.5263	998.15	113.15
960.9244	2328.9547	994.8	106.55
961.0562	2330.3823	995.9	109.45
961.1881	2331.8092	994.35	104.75
961.3198	2333.2355	989.25	104.5
961.4516	2334.661	989.05	99.6
961.5833	2336.0858	986.2	96.85
961.715	2337.5098	983.35	97.5
961.8467	2338.9332	984.75	100.05
961.9783	2340.3558	990.8	101.7
962.1099	2341.7778	985.6	98.05
962.2415	2343.199	984.9	96.8
962.373	2344.6195	981.05	95.9
962.5045	2346.0393	980.7	95.35
962.636	2347.4583	985.65	98.15
962.7675	2348.8767	980.8	92.55
962.8989	2350.2943	984.4	98
963.0303	2351.7113	984.5	97.5
963.1617	2353.1275	981.3	94.15
963.293	2354.543	1008.4	97.65
963.4243	2355.9578	981.75	93.55
963.5556	2357.3718	983	96
963.6868	2358.7852	983.1	94.45
963.818	2360.1978	984.3	95.1
963.9492	2361.6098	981.55	95.85
964.0803	2363.021	984.65	93.8
964.2114	2364.4315	980.4	93.85
964.3425	2365.8413	981.35	93.9
964.4736	2367.2504	981	95.15
964.6046	2368.6587	983.2	95.85
964.7356	2370.0664	977.3	91.35
964.8666	2371.4733	979.55	93.7
964.9975	2372.8795	979.8	93.6
965.1284	2374.285	978.8	91.65
965.2593	2375.6899	975.55	90.15
965.3901	2377.0939	975.75	90.45
965.5209	2378.4973	977.9	92.1
965.6517	2379.9	977.3	89.7
965.7825	2381.3019	977.8	89.8
965.9132	2382.7032	977.95	90.7
966.0439	2384.1037	977	91.6
966.1745	2385.5035	977.05	89.65
966.3051	2386.9027	976.7	91
966.4357	2388.3011	979.8	89.8
966.5663	2389.6987	973.85	87.6
966.6968	2391.0957	976.7	92.35
966.8273	2392.492	970.2	83.75
966.9578	2393.8876	977.3	93.35
967.0882	2395.2824	969.6	81.5
967.2186	2396.6765	971.1	85.8
967.349	2398.07	972.3	85.75
967.4793	2399.4627	977.4	90.4
967.6097	2400.8547	971.9	85.9
967.7399	2402.246	979.65	86.3
967.8702	2403.6366	972.7	83.85
968.0004	2405.0265	969.2	81.35
968.1306	2406.4156	974.95	82.95
968.2607	2407.8041	973.75	85.25
968.3909	2409.1918	979.15	89.4
968.521	2410.5789	971.95	85.85
968.651	2411.9652	973.2	83.55
968.781	2413.3508	970.95	85.55
968.911	2414.7358	973.8	85.7
969.041	2416.12	968.7	84.8
969.1709	2417.5035	970.75	85.9
969.3008	2418.8863	970.9	82.85
969.4307	2420.2684	971	83.9
969.5606	2421.6497	971.05	83.55
969.6904	2423.0304	971.25	85.9
969.8201	2424.4104	967.1	80.35
969.9499	2425.7896	977.05	84.2
970.0796	2427.1682	969.6	83.85
970.2093	2428.546	970.6	82.9
970.3389	2429.9232	969.5	81.4
970.4685	2431.2996	964.45	79.1
970.5981	2432.6753	968.35	81.7
970.7277	2434.0503	966.75	80.9
970.8572	2435.4246	967.45	82.95
970.9867	2436.7982	969.5	79.9
971.1161	2438.1711	965.4	79.2
971.2456	2439.5433	969.7	82.85
971.375	2440.9148	970.9	78.55
971.5043	2442.2856	965.45	79.5
971.6336	2443.6557	968.8	81.25
971.7629	2445.025	966.2	80.1
971.8922	2446.3937	966.9	78.55
972.0214	2447.7617	966.5	79.55
972.1506	2449.1289	964.75	77.05
972.2798	2450.4955	965.35	73.75
972.4089	2451.8613	961.1	75.9
972.538	2453.2265	966.35	80.8
972.6671	2454.5909	965.25	77.3
972.7961	2455.9546	963	77.8
972.9251	2457.3177	959.1	74.4
973.0541	2458.68	965.85	76.95
973.1831	2460.0416	962	76.05
973.312	2461.4025	966.7	78.5
973.4408	2462.7627	973.7	77.4
973.5697	2464.1222	961.4	75.4
973.6985	2465.4811	959.3	69.45
973.8273	2466.8392	963.4	77.3
973.956	2468.1966	965.6	77.2
974.0847	2469.5533	964.45	75.85
974.2134	2470.9093	960.8	74
974.3421	2472.2645	963.7	76.6
974.4707	2473.6191	960.85	73.9
974.5993	2474.973	960	73.35
974.7278	2476.3262	963.15	75.8
974.8563	2477.6787	959.8	73.4
974.9848	2479.0305	961.6	75.6
975.1132	2480.3816	964.2	75.6
975.2417	2481.7319	961.45	76.8
975.37	2483.0816	959.6	71.4
975.4984	2484.4306	962.4	75.45
975.6267	2485.7789	959.5	73.45
975.755	2487.1264	959.6	71.3
975.8833	2488.4733	959.9	73.65
976.0115	2489.8195	976.55	71.65
976.1397	2491.165	963.4	72.5
976.2678	2492.5097	960.9	71.3
976.3959	2493.8538	955.6	68.95
976.524	2495.1972	959.2	74.7
976.6521	2496.5398	958.5	70.3
976.7801	2497.8818	961.35	72.6
976.9081	2499.2231	957.65	70.35
977.036	2500.5637	959.15	68.1
977.164	2501.9035	959.1	71.65
977.2918	2503.2427	961.25	71.15
977.4197	2504.5812	958.05	71.15
977.5475	2505.919	958.1	69.9
977.6753	2507.256	954.6	68.55
977.8031	2508.5924	958.4	73.15
977.9308	2509.9281	962.9	69.2
978.0585	2511.2631	957.9	71.7
978.1861	2512.5974	957.4	70.55
978.3137	2513.9309	952.35	64.45
978.4413	2515.2638	984.1	68.85
978.5689	2516.596	953.15	65.4
978.6964	2517.9275	954.45	66
978.8239	2519.2583	957.55	70.15
978.9513	2520.5884	952.4	63.35
979.0788	2521.9178	957.65	73.35
979.2062	2523.2465	954.85	68.15
979.3335	2524.5745	953.45	67.3
979.4608	2525.9018	952.1	64.3
979.5881	2527.2284	952.2	67.2
979.7154	2528.5543	955.7	71.5
979.8426	2529.8796	951.65	63
979.9698	2531.2041	951.85	65.15
980.0969	2532.5279	952.35	65.7
980.224	2533.851	954.4	68.95
980.3511	2535.1735	953.25	67.45
980.4781	2536.4952	952.25	66.1
980.6052	2537.8163	950.5	62.8
980.7321	2539.1366	954.5	70.55
980.8591	2540.4562	954.9	68.65
980.986	2541.7752	951.15	65.1
981.1129	2543.0935	952.3	66.15
981.2397	2544.411	954	67.9
981.3665	2545.7279	952.1	62.95
981.4933	2547.0441	951	64.4
981.62	2548.3596	951.8	63.55
981.7467	2549.6744	951.7	65.4
981.8734	2550.9885	954.9	66.4
982.0001	2552.3019	948.55	63.55
982.1267	2553.6146	953.7	66.45
982.2532	2554.9266	951.05	64.8
982.3798	2556.2379	950.95	62.45
982.5063	2557.5485	947.4	61.55
982.6327	2558.8585	957.75	64.3
982.7592	2560.1677	956.65	63.4
982.8856	2561.4762	948.95	62.55
983.0119	2562.7841	953.9	64.4
983.1383	2564.0913	949.15	64.15
983.2646	2565.3977	950.05	63.05
983.3908	2566.7035	948.9	61.75
983.517	2568.0086	951.35	63.95
983.6432	2569.313	948.35	59.7
983.7694	2570.6167	952.05	62.7
983.8955	2571.9197	945.75	60.95
984.0216	2573.222	950.15	59.45
984.1476	2574.5236	947.5	60.4
984.2737	2575.8246	952.6	63.7
984.3996	2577.1248	953.4	62.7
984.5256	2578.4244	950.85	64.75
984.6515	2579.7232	946.15	57
984.7774	2581.0214	981.9	65.3
984.9032	2582.3189	946.85	63.45
985.029	2583.6157	951.35	61.15
985.1548	2584.9118	949.25	62.75
985.2806	2586.2072	950.95	64.95
985.4063	2587.5019	946.8	60.15
985.5319	2588.7959	947.55	60.5
985.6576	2590.0893	949.3	62.1
985.7832	2591.3819	947.1	60.9
985.9087	2592.6739	946.95	61.7
986.0343	2593.9652	951.55	63.65
986.1597	2595.2557	946.7	60.6
986.2852	2596.5456	946.4	57.3
986.4106	2597.8348	951.95	68.1
986.536	2599.1234	947.8	60.75
986.6614	2600.4112	950.45	63
986.7867	2601.6983	950.25	61.35
986.912	2602.9848	949.55	61.45
987.0372	2604.2705	953.3	60.8
987.1624	2605.5556	947.5	61.85
987.2876	2606.84	948.5	61.4
987.4128	2608.1237	945.9	58.9
987.5379	2609.4067	946.4	60.55
987.6629	2610.689	955.35	60.95
987.788	2611.9707	951.1	61
987.913	2613.2516	951.05	61.65
988.0379	2614.5319	944.05	58.3
988.1629	2615.8115	946.7	59.35
988.2878	2617.0903	946.45	58.85
988.4126	2618.3685	946.95	59.05
988.5375	2619.6461	943.15	53.95
988.6622	2620.9229	946.05	59.95
988.787	2622.199	943.4	54.45
988.9117	2623.4745	943.35	55.85
989.0364	2624.7493	942.75	55.85
989.161	2626.0234	942.3	56.85
989.2857	2627.2968	946.2	60.5
989.4102	2628.5695	944.45	55.25
989.5348	2629.8415	940.9	52.75
989.6593	2631.1128	945.65	59.5
989.7837	2632.3835	943.4	54.8
989.9082	2633.6535	942.7	55.1
990.0326	2634.9228	943.85	56.85
990.1569	2636.1914	941.9	56.05
990.2812	2637.4593	946.15	52.65
990.4055	2638.7265	942.7	54.8
990.5298	2639.9931	941.45	54.65
990.654	2641.259	941.45	55.25
990.7782	2642.5242	942.95	53.65
990.9023	2643.7887	942.3	56.4
991.0264	2645.0525	939.95	53.35
991.1505	2646.3156	941.2	56.15
991.2745	2647.5781	941.45	57.35
991.3985	2648.8398	940.25	52.25
991.5225	2650.1009	977.7	53.2
991.6464	2651.3613	941.7	53.85
991.7703	2652.6211	941	55.4
991.8942	2653.8801	940.2	53.45
992.018	2655.1385	941.8	50.7
992.1418	2656.3961	938.3	52.5
992.2655	2657.6531	938.4	51.5
992.3892	2658.9094	936.7	51
992.5129	2660.1651	939	51.7
992.6366	2661.42	940.5	52.6
992.7602	2662.6743	939.05	51.95
992.8837	2663.9279	941.65	54.6
993.0073	2665.1808	941.15	54.65
993.1307	2666.433	938.75	50.1
993.2542	2667.6846	936.6	51.8
993.3776	2668.9354	943.2	54.05
993.501	2670.1856	940.5	53.5
993.6244	2671.4351	939.95	54.4
993.7477	2672.6839	940.8	50.6
993.8709	2673.9321	940.45	54.25
993.9942	2675.1795	939.35	51.7
994.1174	2676.4263	941.8	55.8
994.2405	2677.6724	941.1	56.1
994.3637	2678.9179	940.8	54.6
994.4868	2680.1626	938.65	51.5
994.6098	2681.4067	940.6	55.2
994.7328	2682.6501	937.6	50.8
994.8558	2683.8928	940	54.55
994.9788	2685.1348	937.75	49.75
995.1017	2686.3761	936.85	49.05
995.2245	2687.6168	937.3	50.7
995.3474	2688.8568	935.7	49.85
995.4702	2690.0961	935.45	49.6
995.5929	2691.3348	933.85	46.75
995.7156	2692.5727	937.2	51.85
995.8383	2693.81	937.85	51.35
995.961	2695.0466	934.7	49.7
996.0836	2696.2826	936.95	51.05
996.2062	2697.5178	936.1	47
996.3287	2698.7524	935.6	48.7
996.4512	2699.9863	934.7	45.65
996.5737	2701.2195	933.1	47.85
996.6961	2702.452	937.15	48.1
996.8185	2703.6839	935.05	46
996.9408	2704.9151	933.1	45.8
997.0631	2706.1456	938.1	50.15
997.1854	2707.3755	936.3	49.75
997.3077	2708.6046	939.1	50.1
997.4299	2709.8331	940.05	53.15
997.552	2711.0609	941.7	55.3
997.6742	2712.2881	939.05	51.05
997.7963	2713.5145	939.35	50.4
997.9183	2714.7403	942.25	56.3
998.0403	2715.9654	939.3	51.75
998.1623	2717.1899	954.4	52
998.2842	2718.4136	940.95	53.25
998.4062	2719.6367	942	54.85
998.528	2720.8591	949.1	55.25
998.6498	2722.0809	942.65	53.95
998.7716	2723.3019	945.45	55.05
998.8934	2724.5223	944.75	55.2
999.0151	2725.7421	944	56.8
999.1368	2726.9611	945.7	57.05
999.2584	2728.1795	946.05	55.05
999.38	2729.3972	942.4	57.55
999.5016	2730.6142	951.75	49.45
999.6231	2731.8306	940.3	52.35
999.7446	2733.0462	938.15	49.35
999.8661	2734.2612	940.45	48.8
999.9875	2735.4756	938.55	49
1000.1089	2736.6892	936.4	49.05
1000.2302	2737.9022	932.9	47.45
1000.3515	2739.1145	935	47.3
1000.4728	2740.3262	943.1	48.15
1000.594	2741.5372	933.75	45.6
1000.7152	2742.7475	934.8	48.5
1000.8363	2743.9571	931.55	43.35
1000.9575	2745.1661	938.05	47.55
1001.0785	2746.3744	932.15	45.85
1001.1996	2747.582	929.85	44.3
1001.3206	2748.7889	932	42.15
1001.4415	2749.9952	929.1	43.25
1001.5625	2751.2008	929.55	41.85
1001.6833	2752.4057	933.75	45.05
1001.8042	2753.61	931.85	44.05
1001.925	2754.8136	933	44.8
1002.0458	2756.0165	928.3	43.15
1002.1665	2757.2188	928.3	42.35
1002.2872	2758.4204	926.75	41.45
1002.4078	2759.6213	930.2	41.8
1002.5285	2760.8215	933.45	40.75
1002.649	2762.0211	929.4	40.9
1002.7696	2763.22	931.2	41.1
1002.8901	2764.4182	929.5	41.2
1003.0106	2765.6158	928.3	40.8
1003.131	2766.8127	927.9	40.3
1003.2514	2768.009	924.8	39.45
1003.3717	2769.2045	927.2	39.85
1003.492	2770.3994	931.45	41.9
1003.6123	2771.5936	925.75	38.2
1003.7325	2772.7872	925	38.1
1003.8527	2773.9801	924.85	36.2
1003.9729	2775.1723	944.25	42.05
1004.093	2776.3639	924.6	37.1
1004.2131	2777.5548	926.5	38.1
1004.3331	2778.745	926.15	38.15
1004.4531	2779.9346	926.3	39.65
1004.5731	2781.1235	925.45	36.95
1004.693	2782.3117	926.35	40.2
1004.8129	2783.4992	924.25	37.25
1004.9328	2784.6861	924.7	38
1005.0526	2785.8723	927.65	39.35
1005.1723	2787.0579	925.25	35.9
1005.2921	2788.2428	924.9	38.6
1005.4118	2789.427	923.2	37.75
1005.5314	2790.6106	926	39.2
1005.651	2791.7935	926.75	38.45
1005.7706	2792.9757	924.35	38.65
1005.8902	2794.1573	928.05	37.95
1006.0097	2795.3382	927.25	41.15
1006.1291	2796.5184	924.7	38.95
1006.2485	2797.698	926.4	36.45
1006.3679	2798.8769	925.45	37.55
1006.4873	2800.0551	925.1	37.3
1006.6066	2801.2327	928.6	38.4
1006.7258	2802.4096	924.7	38.5
1006.8451	2803.5859	926.95	39.95
1006.9642	2804.7615	924.6	37.55
1007.0834	2805.9364	925.8	40.75
1007.2025	2807.1106	928.25	41
1007.3216	2808.2842	926.8	38.95
1007.4406	2809.4572	927.6	40.65
1007.5596	2810.6294	935.35	48.5
1007.6785	2811.801	931.05	43.75
1007.7975	2812.972	931.4	44.4
1007.9163	2814.1423	933.4	47.35
1008.0352	2815.3119	935	47.7
1008.154	2816.4808	934.65	49.25
1008.2727	2817.6491	940.2	52.1
1008.3914	2818.8167	941.3	55.35
1008.5101	2819.9837	949.3	56.3
1008.6288	2821.15	948.75	61.95
1008.7474	2822.3157	949.8	64.2
1008.8659	2823.4807	957.5	71.8
1008.9844	2824.645	966.85	79.15
1009.1029	2825.8086	971.8	84.45
1009.2214	2826.9716	974.85	88.8
1009.3398	2828.134	985.55	98.85
1009.4581	2829.2957	985.85	99.2
1009.5764	2830.4567	995.45	109.25
1009.6947	2831.617	993.8	107.1
1009.813	2832.7767	996.85	110.4
1009.9312	2833.9358	1000.15	115.2
1010.0493	2835.0941	999.5	110.9
1010.1675	2836.2519	995.85	108.45
1010.2855	2837.4089	992.6	103.7
1010.4036	2838.5653	991.05	103.3
1010.5216	2839.7211	987.7	103.15
1010.6396	2840.8761	989.05	98.9
1010.7575	2842.0306	981.45	97.6
1010.8754	2843.1843	984.35	97.1
1010.9932	2844.3374	984.8	98.75
1011.111	2845.4899	988.4	100.1
1011.2288	2846.6417	986	98.35
1011.3465	2847.7928	992.15	105.4
1011.4642	2848.9433	993.4	106.05
1011.5818	2850.0931	991.05	104.9
1011.6995	2851.2422	991.8	102
1011.817	2852.3907	995.05	108.45
1011.9345	2853.5385	993.15	105.25
1012.052	2854.6857	1019.45	106.55
1012.1695	2855.8323	995.3	108.45
1012.2869	2856.9781	998.65	110.95
1012.4042	2858.1233	993.95	105
1012.5216	2859.2679	1001.15	114.55
1012.6389	2860.4118	1004.3	117.05
1012.7561	2861.555	1012.55	118.95
1012.8733	2862.6976	1010.45	122.1
1012.9905	2863.8395	1008.6	122.45
1013.1076	2864.9808	1010.15	125.3
1013.2247	2866.1214	1015.25	127.9
1013.3417	2867.2614	1015.15	127.85
1013.4587	2868.4007	1020	131.35
1013.5757	2869.5393	1018.4	131.85
1013.6926	2870.6773	1022.75	133.5
1013.8095	2871.8146	1028.2	138.45
1013.9263	2872.9513	1025.05	135.1
1014.0431	2874.0874	1021.9	134.75
1014.1599	2875.2227	1027.45	140.35
1014.2766	2876.3574	1029.65	143.6
1014.3933	2877.4915	1030.6	144.9
1014.51	2878.6249	1029.1	141.65
1014.6266	2879.7577	1033.85	147.2
1014.7431	2880.8898	1050.35	153.2
1014.8596	2882.0212	1039.6	153.9
1014.9761	2883.152	1044.15	157.6
1015.0925	2884.2821	1041.7	156.25
1015.2089	2885.4116	1044.05	158.9
1015.3253	2886.5405	1042.35	154
1015.4416	2887.6686	1048.95	160.05
1015.5579	2888.7962	1045.3	158.75
1015.6741	2889.923	1044.05	156.5
1015.7903	2891.0493	1044.8	158.55
1015.9065	2892.1748	1046.45	160.05
1016.0226	2893.2997	1044.7	159.15
1016.1387	2894.424	1042.75	157.4
1016.2547	2895.5476	1045.85	161.1
1016.3707	2896.6706	1046.25	159.65
1016.4866	2897.7929	1045	156.2
1016.6025	2898.9145	1042.9	155.45
1016.7184	2900.0355	1045.35	156.25
1016.8342	2901.1559	1046.55	157.7
1016.95	2902.2756	1040.5	153.05
1017.0658	2903.3946	1042.05	155.65
1017.1815	2904.513	1044.6	155.35
1017.2971	2905.6308	1041.4	155.25
1017.4127	2906.7479	1041.4	152.6
1017.5283	2907.8643	1041.85	154.6
1017.6439	2908.9801	1038.55	153.4
1017.7594	2910.0953	1040.6	153.75
1017.8748	2911.2098	1039.5	150.75
1017.9902	2912.3236	1045.65	148.2
1018.1056	2913.4368	1045.35	157.05
1018.2209	2914.5494	1040.3	152.7
1018.3362	2915.6613	1041.9	149.05
1018.4515	2916.7725	1035.05	145.3
1018.5667	2917.8831	1033	144.25
1018.6819	2918.9931	1029.9	141.05
1018.797	2920.1024	1028.25	141.35
1018.9121	2921.211	1026.5	139.7
1019.0271	2922.319	1023.45	136.7
1019.1421	2923.4264	1024	136.85
1019.2571	2924.5331	1021	136.9
1019.372	2925.6391	1022.7	135.7
1019.4869	2926.7445	1020.2	132.5
1019.6017	2927.8493	1023.5	135.8
1019.7165	2928.9534	1020	134.35
1019.8313	2930.0569	1023.75	133.15
1019.946	2931.1597	1027.75	140.2
1020.0606	2932.2619	1022.55	135.2
1020.1753	2933.3634	1022.65	136.85
1020.2899	2934.4643	1034.05	140.25
1020.4044	2935.5645	1030.75	137.4
1020.5189	2936.6641	1034.85	143.25
1020.6334	2937.763	1032.9	147.8
1020.7478	2938.8613	1030.3	143.4
1020.8622	2939.959	1036.7	145.2
1020.9765	2941.056	1024.05	138.9
1021.0908	2942.1523	1022.65	134.6
1021.2051	2943.248	1011.75	125.35
1021.3193	2944.3431	1010.3	124.2
1021.4334	2945.4375	1005.55	117.35
1021.5476	2946.5313	998.7	113
1021.6617	2947.6244	994.8	106.1
1021.7757	2948.7169	989.85	102.5
1021.8897	2949.8087	986.3	100.1
1022.0037	2950.8999	977.35	89.35
1022.1176	2951.9904	974.85	86.85
1022.2315	2953.0803	969.4	81.75
1022.3453	2954.1696	966.35	79
1022.4591	2955.2582	963	77.05
1022.5728	2956.3462	964.4	75.35
1022.6865	2957.4335	961	74.2
1022.8002	2958.5202	962.5	73.35
1022.9138	2959.6062	961.4	75.65
1023.0274	2960.6916	957.65	70.05
1023.141	2961.7764	956.95	68.15
1023.2545	2962.8605	958.55	71.3
1023.3679	2963.9439	957.6	72.2
1023.4813	2965.0267	959.4	71.1
1023.5947	2966.1089	981.25	71.25
1023.708	2967.1905	955.6	67.05
1023.8213	2968.2714	959.3	72.15
1023.9346	2969.3516	960.05	75.55
1024.0478	2970.4312	963.8	66.9
1024.1609	2971.5102	956.2	68.45
1024.274	2972.5885	955	68.95
1024.3871	2973.6662	962.75	71.1
1024.5002	2974.7432	956.35	71.5
1024.6132	2975.8196	958.05	70.75
1024.7261	2976.8954	954.9	69.1
1024.839	2977.9705	955.65	71.15
1024.9519	2979.045	955.75	72.1
1025.0647	2980.1188	957.25	70.65
1025.1775	2981.192	953.35	68.5
1025.2902	2982.2645	955.8	66.05
1025.4029	2983.3364	953.3	66.5
1025.5156	2984.4077	950.75	64.1
1025.6282	2985.4783	953.9	59.4
1025.7407	2986.5483	945.4	57.85
1025.8532	2987.6177	944.15	59.65
1025.9657	2988.6864	943.75	55.5
1026.0782	2989.7545	944.6	56
1026.1906	2990.8219	937.75	51.35
1026.3029	2991.8887	939.85	48.85
1026.4152	2992.9548	936.55	49.15
1026.5275	2994.0204	935.35	48.35
1026.6397	2995.0852	931.35	45.75
1026.7519	2996.1495	929.55	42.35
1026.864	2997.2131	930.3	42.45
1026.9761	2998.276	928.85	41.35
1027.0882	2999.3383	926.05	40.25
1027.2002	3000.4	926	38.2
1027.3122	3001.4611	923.85	35.7
1027.4241	3002.5215	920.5	33.5
1027.536	3003.5812	921.1	34.8
1027.6478	3004.6404	917.35	30.35
1027.7596	3005.6989	917.65	28.45
1027.8714	3006.7567	916.65	29.45
1027.9831	3007.8139	945.7	26.7
1028.0947	3008.8705	916	27.65
1028.2064	3009.9264	933.25	30.8
1028.3179	3010.9818	914.45	27.95
1028.4295	3012.0364	913.3	26.3
1028.541	3013.0905	912.7	27.95
1028.6524	3014.1439	912.2	25.25
1028.7638	3015.1966	909.9	24.8
1028.8752	3016.2487	908.8	20.2
1028.9865	3017.3002	915.5	26
1029.0978	3018.3511	909.5	24.65
1029.209	3019.4013	912.6	26.6
1029.3202	3020.4509	909	22.45
1029.4314	3021.4998	910.8	23.45
1029.5425	3022.5481	911.75	24.9
1029.6535	3023.5958	910.55	24.95
1029.7645	3024.6428	913.95	24.4
1029.8755	3025.6892	908.45	22.35
1029.9864	3026.735	908.15	22.2
1030.0973	3027.7802	910.7	23.9
1030.2082	3028.8247	909.85	24.1
1030.319	3029.8685	910.5	22.5
1030.4297	3030.9118	911.8	24.8
1030.5404	3031.9544	907.35	19.4
1030.6511	3032.9963	909.5	22.5
1030.7617	3034.0376	911	23.85
1030.8723	3035.0783	912.35	21.85
1030.9829	3036.1184	911.9	25.1
1031.0934	3037.1578	906.9	21.05
1031.2038	3038.1966	913.15	25.85
1031.3142	3039.2348	909.95	23.3
1031.4246	3040.2723	918.8	23.8
1031.5349	3041.3092	910.85	25.35
1031.6452	3042.3455	908.4	22.1
1031.7554	3043.3811	912.95	25.75
1031.8656	3044.4161	912.2	27
1031.9758	3045.4505	909.45	21.8
1032.0859	3046.4842	913	25.55
1032.1959	3047.5173	908.75	23.9
1032.3059	3048.5498	910.25	24.45
1032.4159	3049.5816	909.8	24.25
1032.5258	3050.6128	910.95	22.95
1032.6357	3051.6434	911.15	23.25
1032.7455	3052.6734	911.65	24.35
1032.8553	3053.7027	909.25	21.5
1032.9651	3054.7314	908	22.6
1033.0748	3055.7594	910.6	25.75
1033.1845	3056.7868	912.25	24.05
1033.2941	3057.8136	910.8	23.75
1033.4037	3058.8398	908.55	20.65
1033.5132	3059.8653	911.6	23.2
1033.6227	3060.8902	909.05	23.35
1033.7321	3061.9145	912.4	25.95
1033.8415	3062.9381	912.85	25.5
1033.9509	3063.9612	928	25.1
1034.0602	3064.9835	912.2	25.4
1034.1694	3066.0053	912.95	23.2
1034.2787	3067.0264	911.8	25.8
1034.3878	3068.0469	912.15	24.2
1034.497	3069.0668	913.35	23.05
1034.6061	3070.086	910.55	25.6
1034.7151	3071.1046	913.7	24.55
1034.8241	3072.1226	913.65	24.95
1034.9331	3073.1399	912.25	24.85
1035.042	3074.1567	912.2	24.75
1035.1508	3075.1727	910.15	21.5
1035.2597	3076.1882	909.9	22.95
1035.3684	3077.203	910.35	24.05
1035.4772	3078.2173	909.15	20.15
1035.5859	3079.2308	910.95	20.9
1035.6945	3080.2438	911.35	23.25
1035.8031	3081.2561	907.75	20.75
1035.9117	3082.2678	905.8	19.3
1036.0202	3083.2789	904.75	16.9
1036.1286	3084.2893	905.1	17.8
1036.2371	3085.2991	905.25	17.55
1036.3454	3086.3083	910.35	18.8
1036.4538	3087.3169	907.9	20.4
1036.562	3088.3248	905.15	16
1036.6703	3089.3321	905.2	16.9
1036.7785	3090.3388	905.15	19.55
1036.8866	3091.3449	906.2	19.5
1036.9948	3092.3503	906.35	17.55
1037.1028	3093.3551	903.05	18.2
1037.2108	3094.3593	905.3	21.85
1037.3188	3095.3629	904.65	18.75
1037.4267	3096.3658	904.75	16.2
1037.5346	3097.3681	902.1	16.4
1037.6425	3098.3698	903.95	17.75
1037.7503	3099.3708	903.45	15.7
1037.858	3100.3713	901.65	14.2
1037.9657	3101.3711	903.45	14.95
1038.0734	3102.3702	1042.6	12.2
1038.181	3103.3688	905	15.8
1038.2886	3104.3667	900.05	13.75
1038.3961	3105.364	902.5	16.55
1038.5036	3106.3607	903.25	14.9
1038.611	3107.3568	901.65	14.3
1038.7184	3108.3522	899.55	14.2
1038.8257	3109.347	900.55	13.6
1038.933	3110.3412	906	14.85
1039.0403	3111.3348	899.3	13.25
1039.1475	3112.3277	901.55	15.2
1039.2547	3113.32	899.6	14.55
1039.3618	3114.3117	902.1	16.5
1039.4689	3115.3028	902.45	15.85
1039.5759	3116.2932	902.2	14.15
1039.6829	3117.2831	905.2	13.1
1039.7898	3118.2723	900.15	12.85
1039.8967	3119.2608	898.3	11.65
1040.0035	3120.2488	901.85	14.85
1040.1103	3121.2361	900.35	12.65
1040.2171	3122.2229	898.4	9.95
1040.3238	3123.209	902.05	14.35
1040.4305	3124.1944	898.25	11.7
1040.5371	3125.1793	899.45	11.65
1040.6437	3126.1635	898.2	12.85
1040.7502	3127.1471	897.9	10.85
1040.8567	3128.1301	898.1	11.8
1040.9631	3129.1125	898.5	12.3
1041.0695	3130.0942	898.45	11.2
1041.1759	3131.0753	906.1	12.05
1041.2822	3132.0558	901.15	10.5
1041.3884	3133.0357	899.7	12.55
1041.4946	3134.015	898.8	12.45
1041.6008	3134.9936	899.15	9.25
1041.7069	3135.9716	919.65	12.5
1041.813	3136.949	897.85	11.6
1041.919	3137.9258	916	9.75
1042.025	3138.902	902.45	9.2
1042.1309	3139.8775	895.8	10.6
1042.2368	3140.8524	898.75	11.5
1042.3427	3141.8267	900.25	11.3
1042.4485	3142.8004	898.55	12.8
1042.5542	3143.7735	906.4	13.25
1042.6599	3144.7459	899.95	9.95
1042.7656	3145.7178	898.45	11.05
1042.8712	3146.689	893.4	6.35
1042.9768	3147.6596	897.75	10.05
1043.0823	3148.6295	895.1	7.75
1043.1878	3149.5989	895.15	8
1043.2932	3150.5676	897.45	12.45
1043.3986	3151.5357	895.7	10.95
1043.5039	3152.5032	896.85	9.4
1043.6092	3153.4701	897.05	10.3
1043.7145	3154.4364	897.7	8.45
1043.8197	3155.402	896.25	9.8
1043.9248	3156.367	897.95	8.95
1044.03	3157.3315	931.9	7.45
1044.135	3158.2952	894.45	7.85
1044.24	3159.2584	896.5	12.05
1044.345	3160.221	895.75	9.2
1044.4499	3161.1829	898.05	9.6
1044.5548	3162.1442	896.05	8.45
1044.6596	3163.105	895.05	9.05
1044.7644	3164.065	896.2	9.15
1044.8692	3165.0245	898.9	7.9
1044.9739	3165.9834	895.95	10.5
1045.0785	3166.9416	895.1	6.05
1045.1831	3167.8993	895.95	11.1
1045.2877	3168.8563	895.85	10.9
1045.3922	3169.8127	895.05	9.9
1045.4966	3170.7684	896.65	11.75
1045.6011	3171.7236	897	6.9
1045.7054	3172.6782	894.95	8.1
1045.8098	3173.6321	895.05	6.3
1045.914	3174.5854	898.4	5.9
1046.0183	3175.5381	898.2	11.65
1046.1224	3176.4902	895.55	10.3
1046.2266	3177.4417	893.95	8.7
1046.3307	3178.3926	895	9.25
1046.4347	3179.3428	894	8.4
1046.5387	3180.2924	892.4	7.95
1046.6427	3181.2415	894.4	6.55
1046.7466	3182.1899	896.45	9.2
1046.8504	3183.1377	897	11.15
1046.9542	3184.0848	899	7.95
1047.058	3185.0314	896.1	8.55
1047.1617	3185.9773	894.65	7.5
1047.2654	3186.9227	896.7	8.15
1047.369	3187.8674	895.6	7.35
1047.4726	3188.8115	897.85	7.2
1047.5761	3189.755	894.75	6
1047.6796	3190.6979	894.85	8.05
1047.783	3191.6402	893.1	8.6
1047.8864	3192.5818	893.7	6
1047.9898	3193.5229	899.75	7.2
1048.0931	3194.4633	896.75	8.45
1048.1963	3195.4031	894.45	8.45
1048.2995	3196.3423	895.35	7.25
1048.4027	3197.2809	895.45	7.8
1048.5058	3198.2189	894.5	7.6
1048.6089	3199.1563	901.35	9.3
1048.7119	3200.0931	893.2	6.85
1048.8148	3201.0292	892.3	7.45
1048.9178	3201.9648	894.55	8.6
1049.0206	3202.8997	897.2	7.05
1049.1235	3203.834	894.2	7.1
1049.2262	3204.7677	893.95	6.4
1049.329	3205.7008	896.1	7.05
1049.4317	3206.6333	892	6.8
1049.5343	3207.5652	897.25	8.25
1049.6369	3208.4964	892.95	6
1049.7394	3209.4271	891.65	6.25
1049.8419	3210.3571	893.3	7.8
1049.9444	3211.2865	894.7	7.4
1050.0468	3212.2154	895.2	7.8
1050.1491	3213.1436	895.15	4.45
1050.2514	3214.0712	901	7.7
1050.3537	3214.9982	895.25	9.15
1050.4559	3215.9246	897.65	10.55
1050.5581	3216.8503	892.95	8.8
1050.6602	3217.7755	894	7.35
1050.7623	3218.7001	893.2	7.5
1050.8643	3219.624	893	6.5
1050.9663	3220.5473	895.05	10.35
1051.0682	3221.4701	894.65	6.5
1051.1701	3222.3922	896.2	6
1051.2719	3223.3137	893.5	4.75
1051.3737	3224.2346	894.2	6.05
1051.4754	3225.1549	891.35	4.6
1051.5771	3226.0746	894	8.4
1051.6788	3226.9937	892.85	5.65
1051.7804	3227.9121	893	7.2
1051.8819	3228.83	893.1	7.75
1051.9834	3229.7473	891.45	3.95
1052.0849	3230.6639	893.6	5.3
1052.1863	3231.5799	894.5	6.35
1052.2876	3232.4954	894.55	7.1
1052.3889	3233.4102	893.95	5.65
1052.4902	3234.3244	892.5	5.75
1052.5914	3235.238	894.3	8.85
1052.6926	3236.151	918.85	7.9
1052.7937	3237.0634	892.75	7.9
1052.8948	3237.9752	892.4	4.3
1052.9958	3238.8864	892.2	3.15
1053.0968	3239.797	893.05	6.75
1053.1977	3240.7069	894	3.3
1053.2986	3241.6163	894.45	5.6
1053.3994	3242.5251	893.25	6.9
1053.5002	3243.4332	891.95	6.35
1053.6009	3244.3408	893.1	4.85
1053.7016	3245.2477	893.25	6.65
1053.8022	3246.154	892.4	5.2
1053.9028	3247.0598	891.9	6.85
1054.0034	3247.9649	891.45	2.9
1054.1039	3248.8694	893.5	6.95
1054.2043	3249.7733	893.55	7.3
1054.3047	3250.6766	894.35	9.7
1054.4051	3251.5793	893.1	7
1054.5054	3252.4814	892.45	6.85
1054.6056	3253.3829	891.85	2.9
1054.7058	3254.2838	892.55	5.7
1054.806	3255.1841	893.15	7
1054.9061	3256.0838	892.75	5.3
1055.0061	3256.9829	890.5	6.8
1055.1062	3257.8814	894.2	5.7
1055.2061	3258.7792	896.05	7.75
1055.306	3259.6765	891.4	3.85
1055.4059	3260.5731	892.15	6.5
1055.5057	3261.4692	892.15	4.3
1055.6055	3262.3647	892.4	4.65
1055.7052	3263.2595	891.75	5.15
1055.8049	3264.1538	891.4	3.45
1055.9045	3265.0474	889.75	2.75
1056.0041	3265.9404	890.3	5.65
1056.1036	3266.8329	890.1	4.8
1056.2031	3267.7247	901.85	5.2
1056.3025	3268.616	890.65	5.1
1056.4019	3269.5066	893	6.2
1056.5013	3270.3966	891.55	2.8
1056.6005	3271.286	890.05	5.9
