Software Version:	3.9.2.0
Unit SN:	10000200
Spectrometer SN:	6960
Date:	3/14/2024 1:35:32 PM
Data Line Index:	25
Spectral Points:	2048
Integration time (ms):	125
Averages:	20
Delay (ms):	30000
Sequence Number:	1
Processing:	dark subtract
Laser Power (mW):	300
Laser Current (mA):	824
Laser Diode Temp (C):	25
Laser Case Temp (C):	28.6
System Temp (C):	28.6
Spectrometer Temp (C):	26.4
CCD Temp (C):	0.001
Secondary Temp (C):	20.007
Heatsink Temp (C):	24.605
CCDPCB Temp (C):	37.885
SecondaryPCB Temp (C):	35.729

Wavelength	RamanShift	Raw Counts	Dark Subtracted
787.061	30.1047	466.3	56.5
787.2016	32.3739	467.45	60.65
787.3422	34.6426	475.75	67.6
787.4828	36.9109	481.05	68.55
787.6235	39.1787	488.75	73.5
787.7642	41.4461	495.95	75.4
787.9049	43.7131	509.8	85
788.0456	45.9796	519.8	92.65
788.1863	48.2456	528.5	96.3
788.3271	50.5112	541.55	105.25
788.4679	52.7764	548.25	109.9
788.6087	55.0411	555.6	114.55
788.7496	57.3054	572.15	124.05
788.8904	59.5692	577.2	126.25
789.0313	61.8326	595.6	141.15
789.1722	64.0955	611.2	153.45
789.3132	66.3579	626.65	163.5
789.4541	68.6199	648.25	181.4
789.5951	70.8815	685.7	217.8
789.7361	73.1426	769.05	295.35
789.8771	75.4032	979.3	502.75
790.0181	77.6634	1520.6	1036.65
790.1592	79.9231	2793.05	2303.85
790.3003	82.1824	5592.25	5093.85
790.4414	84.4412	10721.7	10204.65
790.5825	86.6995	17865.25	17320.75
790.7237	88.9574	24953.8	24387.65
790.8648	91.2148	29937.65	29354.4
791.006	93.4717	32271.05	31677.7
791.1472	95.7282	32713.1	32114.35
791.2885	97.9842	32641.4	32036.55
791.4297	100.2398	31989.45	31384.3
791.571	102.4949	31281.85	30670.65
791.7123	104.7495	30379.9	29766.65
791.8536	107.0036	29497.4	28884.5
791.9949	109.2573	28718.25	28105.35
792.1363	111.5105	28017.65	27403.45
792.2777	113.7632	27300.45	26685.2
792.4191	116.0154	26759.05	26133.2
792.5605	118.2672	26369.35	25747.7
792.7019	120.5185	25946	25326.3
792.8434	122.7693	25620.4	24998.5
792.9849	125.0197	25351.45	24724.5
793.1264	127.2696	25110.45	24482.7
793.2679	129.519	24904.05	24269.95
793.4094	131.7679	24662	24029.4
793.551	134.0163	24410.4	23773.65
793.6926	136.2642	24127.9	23485.3
793.8342	138.5117	23811.3	23159.05
793.9758	140.7587	23487.1	22843.25
794.1175	143.0052	23186.4	22540.55
794.2591	145.2512	22872.1	22224.4
794.4008	147.4967	22541.25	21892.85
794.5425	149.7417	22346.75	21696.05
794.6842	151.9863	22195.8	21540.45
794.826	154.2304	22096.65	21437
794.9677	156.4739	21928	21266.5
795.1095	158.717	21836.85	21176.25
795.2513	160.9596	21694.15	21029.3
795.3931	163.2017	21395.45	20727.9
795.535	165.4433	21086.55	20417
795.6768	167.6844	20750.55	20080.15
795.8187	169.925	20441.8	19766
795.9606	172.1651	20078.5	19403.2
796.1025	174.4047	19798.25	19115.8
796.2445	176.6439	19524.15	18843.1
796.3864	178.8825	19273.95	18588.8
796.5284	181.1206	19151.3	18462.6
796.6704	183.3582	18999	18305.15
796.8124	185.5954	18886.25	18190.15
796.9544	187.832	18803.45	18106.1
797.0965	190.0681	18803.5	18103.85
797.2386	192.3037	18765.1	18062.1
797.3806	194.5388	18754.15	18046.95
797.5228	196.7734	18752.2	18046.25
797.6649	199.0075	18824.1	18113.95
797.807	201.2411	18980	18265.35
797.9492	203.4742	19015.2	18298.1
798.0914	205.7068	19199.15	18481.45
798.2336	207.9389	19320.35	18604.65
798.3758	210.1704	19450.9	18731.75
798.518	212.4015	19549.5	18826.35
798.6603	214.632	19680.25	18956.9
798.8025	216.862	19855.75	19139.95
798.9448	219.0915	19928.35	19224.45
799.0871	221.3205	20046.85	19341.15
799.2294	223.549	20157.2	19455.15
799.3718	225.777	20342.2	19642.4
799.5141	228.0044	20534.45	19829.9
799.6565	230.2314	20755.35	20056.9
799.7989	232.4578	20993.75	20295.85
799.9413	234.6837	21172.25	20464.05
800.0837	236.909	21309.45	20601.15
800.2262	239.1339	21310	20577.3
800.3687	241.3582	21185.5	20471.3
800.5111	243.582	20999.9	20254.2
800.6536	245.8053	20817.75	20078.3
800.7961	248.0281	20680.85	19947.25
800.9387	250.2503	20583.45	19847.85
801.0812	252.472	20574.7	19832.8
801.2238	254.6932	20650	19905.15
801.3664	256.9139	20685.8	19938.4
801.509	259.134	20839.3	20089.9
801.6516	261.3536	20980.15	20233.05
801.7942	263.5727	21195.05	20444.9
801.9369	265.7912	21338.8	20588.65
802.0795	268.0092	21537.95	20790
802.2222	270.2267	21676	20923.4
802.3649	272.4436	21727.1	20973.55
802.5076	274.6601	21686	20927.25
802.6504	276.8759	21584.6	20833.4
802.7931	279.0913	21504.05	20749.05
802.9359	281.3061	21356	20598.3
803.0787	283.5204	21321.2	20561.15
803.2215	285.7341	21320.5	20556.4
803.3643	287.9473	21418.75	20648
803.5071	290.16	21478	20708.5
803.6499	292.3721	21663.9	20900.8
803.7928	294.5837	21909.8	21144.7
803.9357	296.7947	22184.85	21420.55
804.0786	299.0052	22340.3	21576.35
804.2215	301.2152	22259.95	21494.9
804.3644	303.4246	22002.95	21238.05
804.5074	305.6334	21566	20802.1
804.6503	307.8418	21106.95	20339.55
804.7933	310.0495	20678.35	19914.25
804.9363	312.2568	20257	19492.35
805.0793	314.4635	19881.95	19114
805.2223	316.6696	19629.05	18859.3
805.3653	318.8752	19439.9	18664.8
805.5084	321.0802	19408	18637.55
805.6514	323.2847	19464.2	18691.65
805.7945	325.4887	19496	18724.65
805.9376	327.692	19448.3	18676.55
806.0807	329.8949	19385.6	18609.65
806.2238	332.0972	19170	18391.65
806.367	334.2989	18924	18145.6
806.5101	336.5001	18606.1	17829.15
806.6533	338.7007	18418.95	17640
806.7965	340.9008	18301.6	17518.35
806.9397	343.1003	18090.95	17307.05
807.0829	345.2992	18018.6	17231.75
807.2261	347.4976	17933.8	17149.8
807.3693	349.6955	17893.55	17107.2
807.5126	351.8927	17907.85	17118.75
807.6559	354.0895	17798	16999.55
807.7991	356.2856	17796.2	17004.7
807.9424	358.4812	17730.65	16941.65
808.0857	360.6763	17769.75	16975.25
808.2291	362.8707	17733.8	16942.55
808.3724	365.0646	17748.85	16953.65
808.5158	367.258	17782.05	16985.05
808.6591	369.4508	17789.2	16987.85
808.8025	371.643	17888.65	17087.35
808.9459	373.8346	17920.3	17115.5
809.0893	376.0257	17983.35	17175.25
809.2327	378.2162	17932.6	17125.5
809.3762	380.4062	17871.6	17064.35
809.5196	382.5956	17728.85	16918.8
809.6631	384.7844	17632.85	16825.25
809.8066	386.9726	17493.35	16681.6
809.9501	389.1603	17390.2	16582.85
810.0936	391.3474	17321.7	16478.05
810.2371	393.5339	17280	16473.15
810.3806	395.7199	17186.6	16386.2
810.5241	397.9052	17208.1	16408.2
810.6677	400.09	17251.95	16452.05
810.8113	402.2743	17364.75	16566.2
810.9548	404.4579	17480.15	16680.65
811.0984	406.641	17702.45	16904
811.2421	408.8235	17848.8	17048.75
811.3857	411.0054	18018.75	17216.55
811.5293	413.1868	18296.35	17493.85
811.673	415.3675	18440.5	17633.3
811.8166	417.5477	18481.05	17675.3
811.9603	419.7273	18454.8	17644.3
812.104	421.9064	18355.85	17537.4
812.2477	424.0848	18263.45	17450.95
812.3914	426.2627	18072.9	17257.45
812.5351	428.4399	17823.9	17009.8
812.6788	430.6166	17448.5	16629.9
812.8226	432.7928	17130.1	16311.35
812.9663	434.9683	16765.7	15943.2
813.1101	437.1432	16500.45	15677.2
813.2539	439.3176	16328	15504.4
813.3977	441.4914	16233.2	15407.8
813.5415	443.6645	16208.25	15377.95
813.6853	445.8371	16070.15	15243.75
813.8291	448.0091	16017	15195.5
813.973	450.1806	16000.5	15179.45
814.1168	452.3514	15925.35	15096.95
814.2607	454.5216	15985.65	15149.65
814.4046	456.6913	15882	15053.15
814.5485	458.8603	15917.15	15089.45
814.6924	461.0288	15962.2	15132.85
814.8363	463.1967	15966.8	15136.65
814.9802	465.3639	16016.65	15186.25
815.1241	467.5306	15977.1	15148.6
815.2681	469.6967	16015.1	15184.8
815.412	471.8622	16051.3	15219.35
815.556	474.0271	16150.15	15324.5
815.7	476.1914	16179.45	15345.1
815.844	478.3551	16157.95	15327.3
815.988	480.5182	16197	15365.6
816.132	482.6807	16225	15395.5
816.276	484.8426	16408.15	15579.3
816.4201	487.0039	16691.6	15856
816.5641	489.1647	17089.5	16255.15
816.7082	491.3248	17448.85	16614.55
816.8522	493.4843	17544.25	16713.3
816.9963	495.6432	17514.1	16683.05
817.1404	497.8015	17349	16512.35
817.2845	499.9592	17286	16450.7
817.4286	502.1163	17089.2	16254.8
817.5727	504.2728	16785.2	15949.45
817.7168	506.4287	16484.75	15648.6
817.861	508.5839	16123.25	15286.9
818.0051	510.7386	15901.6	15062.95
818.1493	512.8927	15760.65	14915.45
818.2935	515.0461	15687.15	14848.55
818.4377	517.199	15706.45	14869.2
818.5818	519.3512	15782.8	14944.9
818.726	521.5029	16046.75	15202.15
818.8703	523.6539	16200.8	15358.55
819.0145	525.8043	16271.55	15431.35
819.1587	527.9541	16246.7	15404.2
819.303	530.1033	16069	15226.15
819.4472	532.2519	15961.4	15119.35
819.5915	534.3999	15962.65	15119.85
819.7357	536.5472	16052.95	15208.75
819.88	538.694	16327.35	15482.2
820.0243	540.8401	16690.3	15845.45
820.1686	542.9856	16994.3	16148.6
820.3129	545.1305	17051.7	16203.5
820.4572	547.2748	16925.8	16081.45
820.6016	549.4185	16657.05	15809.85
820.7459	551.5615	16443.6	15595.05
820.8902	553.704	16384.45	15538.4
821.0346	555.8458	16417.45	15572.5
821.1789	557.987	16516.25	15669.8
821.3233	560.1276	16643.8	15795.6
821.4677	562.2675	16928.9	16082.65
821.6121	564.4069	17277.95	16432.7
821.7565	566.5456	17585	16740
821.9009	568.6837	17644.75	16795.9
822.0453	570.8212	17282.6	16436.85
822.1897	572.958	16687.4	15839.6
822.3342	575.0942	16139.85	15294.1
822.4786	577.2299	15725.25	14878.95
822.6231	579.3648	15548.45	14700.2
822.7675	581.4992	15537.9	14690.55
822.912	583.6329	15648.75	14798.9
823.0565	585.766	15851.65	15003.95
823.201	587.8985	15923.35	15076.65
823.3454	590.0304	15967.65	15092.65
823.4899	592.1616	15900.95	15049.95
823.6345	594.2922	15750.2	14901.1
823.779	596.4222	15553.6	14702.85
823.9235	598.5515	15376.5	14525.55
824.068	600.6802	15146.65	14294.5
824.2126	602.8083	14987.6	14138.6
824.3571	604.9358	14955.5	14103
824.5017	607.0626	14899	14043.95
824.6462	609.1888	14966.85	14113.15
824.7908	611.3144	15047.3	14192.95
824.9354	613.4393	15125.65	14273.4
825.08	615.5636	15146.3	14293.7
825.2246	617.6873	15117.35	14264.15
825.3692	619.8103	15051.25	14194.35
825.5138	621.9327	14889.9	14034.3
825.6584	624.0544	14689.75	13835.35
825.803	626.1756	14528.05	13675.35
825.9477	628.2961	14420.6	13568
826.0923	630.4159	14301	13445.65
826.237	632.5351	14266.3	13411.3
826.3816	634.6537	14243.1	13389.65
826.5263	636.7716	14276.3	13417.95
826.6709	638.8889	14230	13374
826.8156	641.0056	14258	13400.6
826.9603	643.1216	14227.1	13368.3
827.105	645.237	14178.3	13318.2
827.2497	647.3518	14107.35	13250.05
827.3944	649.4659	14057.5	13198.85
827.5391	651.5793	14019.55	13160.1
827.6838	653.6922	13974.95	13116.4
827.8285	655.8043	13936.05	13076.35
827.9733	657.9159	13915.5	13055.3
828.118	660.0268	13855.75	12994.35
828.2627	662.137	13849.65	12989.5
828.4075	664.2466	13824.15	12963.65
828.5522	666.3556	13785.8	12926.15
828.697	668.4639	13745.05	12879.2
828.8418	670.5716	13728.95	12867.85
828.9865	672.6786	13734.4	12871.1
829.1313	674.785	13700.45	12838.7
829.2761	676.8907	13664.85	12803.45
829.4209	678.9958	13721.25	12860.65
829.5657	681.1002	13660.25	12796.9
829.7105	683.204	13642	12778
829.8553	685.3072	13607.8	12743.35
830.0001	687.4097	13543.45	12682.5
830.1449	689.5115	13532.8	12669.75
830.2898	691.6127	13521.6	12657.65
830.4346	693.7132	13437.65	12572.65
830.5794	695.8131	13463.95	12584.7
830.7243	697.9123	13430.4	12566.35
830.8691	700.0109	13419.1	12554.05
831.014	702.1089	13413.2	12549.15
831.1588	704.2061	13429.4	12562.65
831.3037	706.3028	13472.7	12607.6
831.4486	708.3987	13490.85	12628.5
831.5935	710.4941	13541.45	12677.3
831.7383	712.5887	13601.35	12736.15
831.8832	714.6827	13746.3	12878.85
832.0281	716.7761	13915.3	13050.5
832.173	718.8688	14161.95	13293.35
832.3179	720.9608	14316.15	13444.45
832.4628	723.0522	14416.8	13545.3
832.6077	725.1429	14385.9	13520.2
832.7527	727.233	14310.05	13444.65
832.8976	729.3224	14307.95	13442.35
833.0425	731.4112	14162.55	13292.95
833.1874	733.4993	13966.6	13095.7
833.3324	735.5867	13760.65	12889.4
833.4773	737.6735	13530.95	12661.35
833.6222	739.7596	13349.65	12477.7
833.7672	741.845	13242.9	12371.9
833.9122	743.9298	13146.7	12274.3
834.0571	746.014	13090.7	12222.55
834.2021	748.0974	13098.1	12228.45
834.347	750.1802	13103.25	12235.5
834.492	752.2624	13114.6	12247.3
834.637	754.3439	13147.85	12278.35
834.782	756.4247	13204.3	12324.1
834.9269	758.5048	13339.8	12472.15
835.0719	760.5843	13620.1	12749.9
835.2169	762.6631	13981.75	13108.15
835.3619	764.7413	14504.4	13636.1
835.5069	766.8188	15193.45	14323.1
835.6519	768.8956	15733.75	14864.25
835.7969	770.9718	16075.65	15204.65
835.9419	773.0473	15988.15	15114.95
836.0869	775.1221	15681.25	14811.75
836.232	777.1962	15364.75	14492.75
836.377	779.2697	15209.5	14337.25
836.522	781.3426	15245.7	14362.3
836.667	783.4147	15378.75	14507.05
836.8121	785.4862	15474.4	14603.5
836.9571	787.557	15424.25	14551.8
837.1021	789.6271	14976.7	14106.45
837.2472	791.6966	14334.95	13460.85
837.3922	793.7654	13749.25	12874.85
837.5373	795.8335	13329.75	12455.5
837.6823	797.901	13038.75	12164.7
837.8274	799.9678	12875.2	11998.55
837.9724	802.0339	12791.3	11920.35
838.1175	804.0993	12796.9	11913.6
838.2626	806.1641	12719.1	11845.9
838.4076	808.2282	12639.85	11767.3
838.5527	810.2916	12543.75	11668.75
838.6978	812.3544	12441.8	11567.45
838.8428	814.4164	12391.7	11519
838.9879	816.4778	12408.15	11534.05
839.133	818.5385	12420.55	11549.6
839.2781	820.5986	12533.5	11658.6
839.4232	822.658	12724.7	11851.9
839.5682	824.7166	12964.05	12093.05
839.7133	826.7747	13384.6	12512.2
839.8584	828.832	13844	12969.15
840.0035	830.8886	14111.8	13237.8
840.1486	832.9446	14258.55	13383.05
840.2937	834.9999	14197.8	13325.15
840.4388	837.0545	13947.6	13068.2
840.5839	839.1085	13705.8	12832.5
840.729	841.1618	13450.4	12570.95
840.8741	843.2143	13249.85	12377.35
841.0192	845.2662	13070.05	12193.1
841.1643	847.3175	12935.6	12062.4
841.3095	849.368	12794.2	11919.55
841.4546	851.4179	12685.6	11810.7
841.5997	853.467	12548.4	11673.25
841.7448	855.5155	12509.3	11634.35
841.8899	857.5633	12419.1	11545.45
842.0351	859.6105	12264.25	11388.1
842.1802	861.6569	12205.75	11333.35
842.3253	863.7027	12096.85	11220.6
842.4704	865.7478	12042.15	11165
842.6156	867.7922	12026.5	11151.4
842.7607	869.8359	11998.85	11123.3
842.9058	871.8789	12069.65	11192.85
843.0509	873.9212	12181.2	11268.8
843.1961	875.9629	12236.6	11359.7
843.3412	878.0039	12386.1	11508.95
843.4863	880.0441	12452.5	11575.45
843.6315	882.0837	12484.75	11609.35
843.7766	884.1226	12476.85	11599.65
843.9218	886.1609	12468.15	11592.9
844.0669	888.1984	12488	11610.8
844.212	890.2352	12573.3	11695.65
844.3572	892.2714	12545.35	11665.55
844.5023	894.3069	12510.7	11633.35
844.6475	896.3416	12360.1	11481.5
844.7926	898.3757	12221.65	11342.55
844.9377	900.4091	12136.65	11259.1
845.0829	902.4418	12115.4	11232.2
845.228	904.4739	12147.7	11267.45
845.3732	906.5052	12193.65	11316.5
845.5183	908.5358	12132.1	11256.1
845.6635	910.5658	11963.2	11084
845.8086	912.595	11784.5	10908.85
845.9538	914.6236	11545.95	10669.25
846.0989	916.6515	11464.15	10587.9
846.2441	918.6786	11373.9	10496.15
846.3892	920.7051	11374.55	10492.35
846.5344	922.7309	11415.5	10538.45
846.6795	924.756	11421.05	10542.35
846.8246	926.7804	11522.55	10642.6
846.9698	928.8041	11488.7	10607.85
847.1149	930.8272	11550.1	10670.45
847.2601	932.8495	11473.75	10593.25
847.4052	934.8711	11441	10563.95
847.5504	936.892	11356.85	10475.95
847.6955	938.9123	11310.1	10428.45
847.8407	940.9318	11302.9	10421.55
847.9858	942.9506	11238.6	10357
848.131	944.9688	11153.75	10271.2
848.2761	946.9862	11069.1	10188.9
848.4213	949.003	10936.55	10058
848.5664	951.019	10851.5	9973.45
848.7115	953.0344	10794.1	9911.65
848.8567	955.0491	10787.4	9906.3
849.0018	957.063	10827.2	9947.65
849.147	959.0763	10914.1	10035.1
849.2921	961.0888	10931.95	10048.5
849.4373	963.1007	10991.85	10112.45
849.5824	965.1119	11021.05	10140.6
849.7275	967.1223	11001.4	10124.3
849.8727	969.1321	10976.6	10094.5
850.0178	971.1412	10971.45	10090.35
850.1629	973.1495	10948.9	10069.45
850.3081	975.1572	10986.8	10072
850.4532	977.1641	11000.9	10120.25
850.5983	979.1704	10974.05	10095.2
850.7435	981.1759	10929.1	10045.4
850.8886	983.1808	10926.4	10045.4
851.0337	985.1849	10942.1	10050.55
851.1788	987.1884	11037.65	10153.65
851.324	989.1911	11163.7	10278.85
851.4691	991.1932	11248	10364.5
851.6142	993.1945	11256.95	10375.55
851.7593	995.1951	11206.5	10326.85
851.9045	997.1951	11176.15	10288.85
852.0496	999.1943	11140.65	10262.3
852.1947	1001.1928	11088.5	10207.5
852.3398	1003.1906	11098.85	10219.55
852.4849	1005.1877	11226.55	10342.65
852.63	1007.1841	11267.8	10388.8
852.7751	1009.1798	11281.35	10401.55
852.9202	1011.1748	11142.8	10259.25
853.0653	1013.1691	10956.45	10077.95
853.2104	1015.1627	10735.55	9853.85
853.3555	1017.1556	10537.85	9657.8
853.5006	1019.1477	10407.8	9524.85
853.6457	1021.1392	10312.7	9435
853.7908	1023.1299	10279.6	9397.7
853.9359	1025.12	10283.35	9403.75
854.081	1027.1093	10332.05	9451.65
854.2261	1029.0979	10430.85	9551.6
854.3712	1031.0859	10509.85	9629.3
854.5163	1033.0731	10513.1	9627.35
854.6613	1035.0596	10473	9593
854.8064	1037.0454	10307.05	9424.1
854.9515	1039.0304	10197.35	9315.25
855.0965	1041.0148	10070.1	9190.15
855.2416	1042.9985	10002.6	9123.05
855.3867	1044.9814	9919.35	9040.2
855.5317	1046.9636	9853.75	8972.35
855.6768	1048.9452	9831.45	8949.85
855.8219	1050.926	9855.9	8975.05
855.9669	1052.9061	9858.85	8975.35
856.112	1054.8855	9871.3	8991.15
856.257	1056.8642	9909.05	9028.4
856.4021	1058.8421	9955.25	9068.7
856.5471	1060.8194	9991.15	9110.25
856.6921	1062.7959	9993.95	9112.15
856.8372	1064.7717	10069.45	9187.05
856.9822	1066.7469	10094.95	9211.8
857.1272	1068.7213	10156.8	9272.95
857.2723	1070.695	10207.4	9327.7
857.4173	1072.6679	10198.15	9314.45
857.5623	1074.6402	10191.65	9307.85
857.7073	1076.6117	10164.8	9276.3
857.8523	1078.5826	10073.1	9190.2
857.9973	1080.5527	9959.85	9073.5
858.1423	1082.5221	9930	9047.35
858.2873	1084.4908	9977.75	9093.75
858.4323	1086.4587	10040.4	9158.5
858.5773	1088.426	10108.35	9227.9
858.7223	1090.3925	10092.05	9204
858.8673	1092.3584	10098.7	9216
859.0123	1094.3235	10043.2	9160.55
859.1573	1096.2879	10064.3	9180.2
859.3022	1098.2515	10154.65	9271.65
859.4472	1100.2145	10270.3	9388.65
859.5922	1102.1767	10422.95	9536.35
859.7371	1104.1382	10645.25	9762
859.8821	1106.099	10877.6	9992.8
860.027	1108.0591	11094.95	10211.4
860.172	1110.0185	11293.5	10410.7
860.3169	1111.9771	11311.75	10430.3
860.4619	1113.9351	11168.8	10286.65
860.6068	1115.8923	11001.35	10116.95
860.7517	1117.8488	10788.55	9901.6
860.8967	1119.8045	10586.55	9704.8
861.0416	1121.7596	10445.05	9561.35
861.1865	1123.7139	10346.7	9465.35
861.3314	1125.6675	10315.2	9432.25
861.4763	1127.6204	10330.5	9446.65
861.6212	1129.5726	10300.65	9418.55
861.7661	1131.524	10225.65	9344.55
861.911	1133.4748	10112.5	9227.95
862.0559	1135.4248	9965.3	9080.15
862.2008	1137.3741	9826.4	8942.55
862.3457	1139.3226	9770.15	8886.1
862.4905	1141.2705	9660.35	8774.4
862.6354	1143.2176	9567.55	8681.15
862.7803	1145.164	9524.3	8639.2
862.9251	1147.1097	9480.3	8596
863.07	1149.0546	9422.05	8537.85
863.2148	1150.9989	9303.25	8418.9
863.3597	1152.9424	9218.8	8334.7
863.5045	1154.8852	9094.5	8211.5
863.6493	1156.8272	9031.55	8147.4
863.7942	1158.7686	9022.95	8132.65
863.939	1160.7092	9000.8	8116.05
864.0838	1162.6491	9023.95	8139.9
864.2286	1164.5883	9156.3	8272.05
864.3734	1166.5267	9214.05	8330.15
864.5182	1168.4644	9372.65	8487.6
864.663	1170.4014	9547.8	8662.15
864.8078	1172.3377	9830.5	8947.05
864.9526	1174.2732	10096.9	9214.55
865.0974	1176.2081	10463.8	9578.55
865.2421	1178.1421	10872.7	9985.65
865.3869	1180.0755	11314.35	10430.25
865.5317	1182.0082	11639.35	10755.7
865.6764	1183.9401	11758.75	10874.95
865.8212	1185.8713	11623.65	10742.2
865.9659	1187.8017	11357.8	10472.65
866.1106	1189.7315	10958.05	10076.1
866.2554	1191.6605	10607.1	9694.25
866.4001	1193.5888	10350.35	9466
866.5448	1195.5163	10185.6	9301.75
866.6895	1197.4432	10089.25	9205.35
866.8342	1199.3693	10034.65	9151.9
866.9789	1201.2947	10020.3	9129.15
867.1236	1203.2193	9954.95	9071.35
867.2683	1205.1432	9968.15	9084.65
867.413	1207.0664	9942.2	9059.15
867.5576	1208.9889	9952.2	9066.8
867.7023	1210.9106	9931.7	9048
867.847	1212.8316	9931.8	9051.5
867.9916	1214.7519	9975	9084.1
868.1363	1216.6715	9983.1	9100.25
868.2809	1218.5903	10031.05	9148.3
868.4255	1220.5084	10075.55	9192
868.5701	1222.4257	10176.1	9293.6
868.7148	1224.3424	10194.4	9311.3
868.8594	1226.2583	10297.2	9408.2
869.004	1228.1735	10424.95	9538.8
869.1486	1230.0879	10559.55	9675.8
869.2932	1232.0016	10688.1	9805.3
869.4377	1233.9146	10802.05	9917.65
869.5823	1235.8269	10759.55	9875.4
869.7269	1237.7384	10684.55	9799.95
869.8715	1239.6492	10536	9651.45
870.016	1241.5592	10479.35	9593.5
870.1606	1243.4686	10465.7	9584.25
870.3051	1245.3772	10576.65	9695.55
870.4496	1247.285	10738.4	9853.25
870.5941	1249.1922	10830.1	9947.35
870.7387	1251.0986	10925.5	10042.5
870.8832	1253.0042	10971.4	10088.9
871.0277	1254.9092	11062.55	10175.4
871.1722	1256.8134	11128.85	10243.45
871.3167	1258.7169	11273.6	10387.65
871.4611	1260.6196	11448.9	10567.05
871.6056	1262.5216	11673.65	10788.2
871.7501	1264.4229	11860.65	10979.65
871.8945	1266.3234	12072.05	11187.6
872.039	1268.2232	12170.5	11284.55
872.1834	1270.1223	12186.15	11300.9
872.3278	1272.0207	12229.95	11344.95
872.4723	1273.9183	12206.7	11316.15
872.6167	1275.8151	12143.65	11260.05
872.7611	1277.7113	12122.15	11235.8
872.9055	1279.6067	12108.2	11224.6
873.0499	1281.5014	12241.5	11353.5
873.1943	1283.3953	12472.4	11584.6
873.3386	1285.2885	12873.75	11991.1
873.483	1287.181	13263.05	12377.95
873.6274	1289.0727	13653.5	12769.5
873.7717	1290.9637	13898.9	13015.35
873.9161	1292.854	14082.2	13197.05
874.0604	1294.7435	14074.15	13190.8
874.2047	1296.6323	14053.65	13167.15
874.349	1298.5204	13969.3	13082.35
874.4933	1300.4077	13890.05	13005.9
874.6376	1302.2943	13743.65	12858.65
874.7819	1304.1802	13512.35	12630.25
874.9262	1306.0653	13185.2	12297.95
875.0705	1307.9497	12753.15	11867.55
875.2147	1309.8333	12435.6	11552.6
875.359	1311.7162	12158.25	11273.75
875.5032	1313.5984	12001.6	11115.8
875.6475	1315.4798	11948.7	11046.4
875.7917	1317.3605	11920.85	11020.55
875.9359	1319.2405	11885.6	10998.95
876.0801	1321.1197	11692.75	10806.4
876.2243	1322.9982	11419.15	10530.3
876.3685	1324.876	11195.2	10311.55
876.5127	1326.753	10963.25	10080.55
876.6569	1328.6293	10805.15	9920.35
876.801	1330.5048	10678.35	9792.3
876.9452	1332.3796	10552.75	9668.45
877.0893	1334.2537	10491.1	9575.95
877.2335	1336.127	10424.65	9538.9
877.3776	1337.9996	10386	9499.1
877.5217	1339.8714	10381.05	9496.45
877.6658	1341.7426	10408.85	9477.25
877.8099	1343.6129	10380.7	9497.05
877.954	1345.4826	10351.4	9466.95
878.0981	1347.3515	10399.2	9511.6
878.2422	1349.2196	10349.3	9464.2
878.3862	1351.087	10377.45	9492.1
878.5303	1352.9537	10450.25	9564.35
878.6743	1354.8197	10558.7	9673.05
878.8184	1356.6849	10705.05	9819.45
878.9624	1358.5493	10854.3	9969.25
879.1064	1360.4131	11022.5	10138.05
879.2504	1362.276	11091	10205.95
879.3944	1364.1383	11089.3	10205.15
879.5384	1365.9998	10887.65	9997.9
879.6823	1367.8606	10555	9670
879.8263	1369.7206	10205.9	9320.95
879.9702	1371.5799	9892	9004.95
880.1142	1373.4384	9619.1	8732.15
880.2581	1375.2962	9390.2	8503.8
880.402	1377.1533	9090.85	8203.7
880.5459	1379.0096	8736.65	7850.65
880.6898	1380.8652	8387.4	7501.65
880.8337	1382.7201	8118.2	7232.55
880.9776	1384.5742	7876.4	6992.7
881.1215	1386.4275	7692.3	6806.6
881.2653	1388.2802	7539.25	6654.05
881.4092	1390.132	7425.85	6540.45
881.553	1391.9832	7376	6489.7
881.6968	1393.8336	7276.25	6389.05
881.8406	1395.6832	7245.85	6358.85
881.9844	1397.5322	7205.35	6319.35
882.1282	1399.3803	7195.55	6303.65
882.272	1401.2278	7152.7	6266.6
882.4158	1403.0745	7139.5	6254.9
882.5595	1404.9204	7122.65	6238.7
882.7033	1406.7656	7139.6	6254.8
882.847	1408.6101	7175.1	6288.3
882.9908	1410.4538	7187.35	6301.25
883.1345	1412.2968	7240.75	6354.7
883.2782	1414.139	7285.2	6399.85
883.4219	1415.9805	7385.05	6499.05
883.5656	1417.8213	7456.35	6562.45
883.7092	1419.6613	7549.5	6663.5
883.8529	1421.5006	7703.85	6818.65
883.9965	1423.3391	7937.4	7051.35
884.1402	1425.1769	8217.95	7330.75
884.2838	1427.0139	8660	7774.15
884.4274	1428.8502	9203.45	8317.25
884.571	1430.6858	9758.45	8873.35
884.7146	1432.5206	10152.2	9265.6
884.8582	1434.3547	10394.05	9509.35
885.0018	1436.188	10393.8	9506.75
885.1453	1438.0206	10313.15	9426.9
885.2889	1439.8524	10121.35	9235.85
885.4324	1441.6835	10026.65	9139.1
885.5759	1443.5139	9933.6	9044.5
885.7194	1445.3435	9851.1	8965.4
885.8629	1447.1724	9826.3	8940.4
886.0064	1449.0005	9744.65	8859.1
886.1499	1450.8279	9668.7	8780.55
886.2933	1452.6545	9683.25	8795.4
886.4368	1454.4804	9715.2	8831.7
886.5802	1456.3056	9698.95	8805.3
886.7237	1458.13	9616.5	8730.5
886.8671	1459.9536	9451.95	8567.1
887.0105	1461.7766	9168.15	8283.95
887.1539	1463.5987	8817.25	7931.95
887.2972	1465.4202	8482.75	7599.1
887.4406	1467.2409	8133.55	7247.1
887.584	1469.0608	7883.4	6997.65
887.7273	1470.88	7616.05	6727.8
887.8706	1472.6984	7372.3	6485.4
888.0139	1474.5161	7186.9	6301.2
888.1572	1476.3331	7007.9	6121.95
888.3005	1478.1493	6888.25	6002.5
888.4438	1479.9648	6818.65	5934.05
888.5871	1481.7795	6723.85	5841.2
888.7303	1483.5935	6673.7	5788.4
888.8736	1485.4067	6609.6	5724.4
889.0168	1487.2192	6555.2	5670.65
889.16	1489.031	6516.55	5628.6
889.3032	1490.842	6467.1	5581.8
889.4464	1492.6522	6451.1	5564.5
889.5896	1494.4618	6395.85	5511.95
889.7327	1496.2705	6376.15	5489.65
889.8759	1498.0785	6347.6	5461.8
890.019	1499.8858	6281.15	5394.35
890.1622	1501.6924	6257.7	5373.55
890.3053	1503.4981	6227.25	5343.2
890.4484	1505.3032	6191.45	5305
890.5914	1507.1075	6160.9	5274.3
890.7345	1508.911	6131.75	5246.35
890.8776	1510.7138	6084.4	5199.5
891.0206	1512.5159	6028.25	5143.3
891.1637	1514.3172	5993.35	5108.35
891.3067	1516.1178	5955.05	5071.05
891.4497	1517.9176	5944.3	5058.2
891.5927	1519.7166	5917.55	5033.8
891.7357	1521.515	5891.85	4999.45
891.8786	1523.3126	5842.05	4955.5
892.0216	1525.1094	5831.15	4942.25
892.1645	1526.9055	5800.35	4918.6
892.3074	1528.7008	5786.95	4901.95
892.4503	1530.4954	5744.8	4857.9
892.5932	1532.2893	5740.9	4858.4
892.7361	1534.0824	5722.25	4833.55
892.879	1535.8747	5727.8	4843.45
893.0218	1537.6663	5696.5	4809.15
893.1647	1539.4572	5698.6	4811.25
893.3075	1541.2473	5707.65	4820.75
893.4503	1543.0367	5704.6	4820.85
893.5931	1544.8253	5704.4	4814.75
893.7359	1546.6132	5728.85	4840.9
893.8787	1548.4003	5762.55	4866.8
894.0214	1550.1867	5807.2	4913.3
894.1642	1551.9723	5862	4971.65
894.3069	1553.7572	5921.3	5033.5
894.4496	1555.5414	6025.3	5139.3
894.5923	1557.3247	6123.4	5238.05
894.735	1559.1074	6281.5	5397.65
894.8777	1560.8893	6411.05	5528.2
895.0204	1562.6705	6559.75	5674.1
895.163	1564.4509	6679.8	5795.2
895.3056	1566.2305	6766	5881.85
895.4482	1568.0094	6795.5	5911.15
895.5908	1569.7876	6802.75	5916.55
895.7334	1571.565	6775.6	5890.45
895.876	1573.3417	6790.8	5905.1
896.0186	1575.1176	6775.6	5891.55
896.1611	1576.8928	6766.45	5882.55
896.3036	1578.6672	6733.35	5847.75
896.4461	1580.4409	6705.3	5822.6
896.5886	1582.2138	6695.4	5808.6
896.7311	1583.986	6720.35	5834.75
896.8736	1585.7575	6753.5	5869.9
897.0161	1587.5282	6772.6	5890.1
897.1585	1589.2981	6866.85	5982.85
897.3009	1591.0673	6932.1	6049.55
897.4433	1592.8358	7012.2	6128.65
897.5857	1594.6035	7091.1	6204.9
897.7281	1596.3704	7156	6273.55
897.8705	1598.1366	7229.9	6344.9
898.0128	1599.9021	7300.9	6415.15
898.1551	1601.6668	7393.35	6504.7
898.2975	1603.4308	7521.5	6635
898.4398	1605.194	7679.3	6788.65
898.5821	1606.9564	7859.4	6974.15
898.7243	1608.7182	8075.1	7185.3
898.8666	1610.4791	8346.2	7462.3
899.0088	1612.2394	8607.45	7723.9
899.1511	1613.9988	8895.2	8010.55
899.2933	1615.7576	9182.1	8296.75
899.4355	1617.5156	9393.7	8506.05
899.5776	1619.2728	9482.25	8595.65
899.7198	1621.0293	9484.7	8601.6
899.862	1622.785	9340.35	8451.55
900.0041	1624.54	9082.5	8195.55
900.1462	1626.2942	8792.35	7907.1
900.2883	1628.0477	8455.5	7570.3
900.4304	1629.8005	8135	7247.4
900.5725	1631.5525	7831.35	6947.15
900.7145	1633.3037	7616.2	6729.65
900.8566	1635.0542	7428.65	6546.1
900.9986	1636.804	7243.4	6358.7
901.1406	1638.553	7192.05	6254.3
901.2826	1640.3013	7080.3	6195.5
901.4245	1642.0488	7057	6172.2
901.5665	1643.7955	7088.75	6205.35
901.7085	1645.5416	7144.15	6258.15
901.8504	1647.2868	7256.4	6373.35
901.9923	1649.0313	7371.5	6486.55
902.1342	1650.7751	7532.45	6647.1
902.2761	1652.5181	7654.45	6769.4
902.4179	1654.2604	7841.65	6956.95
902.5598	1656.0019	8072.85	7189.05
902.7016	1657.7427	8345	7460.4
902.8434	1659.4828	8590.1	7706.8
902.9852	1661.222	8732.45	7847
903.127	1662.9606	8733.7	7849.6
903.2687	1664.6984	8506.3	7622.2
903.4105	1666.4354	8096.4	7210.55
903.5522	1668.1717	7553.55	6670.75
903.6939	1669.9072	6996.35	6114.2
903.8356	1671.642	6523.45	5638.85
903.9773	1673.3761	6160	5277.95
904.119	1675.1094	5844.05	4960.95
904.2606	1676.8419	5600.95	4717.9
904.4022	1678.5737	5420.1	4536.4
904.5439	1680.3048	5276.2	4392.55
904.6855	1682.0351	5152.5	4269.9
904.827	1683.7646	5057.45	4170.55
904.9686	1685.4934	4979.35	4097.15
905.1101	1687.2215	4881.9	3998.75
905.2517	1688.9488	4825.1	3941.65
905.3932	1690.6754	4776.3	3894.95
905.5347	1692.4012	4730.1	3847.3
905.6761	1694.1263	4681.95	3799.95
905.8176	1695.8506	4658.65	3775.1
905.9591	1697.5742	4601.15	3718.55
906.1005	1699.297	4579.45	3697.85
906.2419	1701.0191	4542.1	3657.5
906.3833	1702.7404	4519.2	3634.75
906.5246	1704.461	4478.7	3594.55
906.666	1706.1808	4444.85	3562.15
906.8073	1707.8999	4433.4	3549.7
906.9487	1709.6182	4412.3	3527.4
907.09	1711.3358	4378	3493.9
907.2313	1713.0527	4354.05	3471.7
907.3725	1714.7688	4340.6	3451.75
907.5138	1716.4841	4313.15	3429.05
907.655	1718.1987	4308.65	3422.25
907.7962	1719.9126	4272.8	3391.75
907.9374	1721.6257	4248.45	3361.95
908.0786	1723.338	4253.65	3369.8
908.2198	1725.0496	4220.75	3335.25
908.3609	1726.7605	4226.25	3342.35
908.502	1728.4706	4211.35	3327.3
908.6431	1730.18	4180.05	3294.15
908.7842	1731.8886	4167.55	3283.25
908.9253	1733.5964	4151.2	3265.1
909.0664	1735.3036	4146.4	3261.05
909.2074	1737.0099	4123.55	3241.7
909.3484	1738.7156	4104.85	3221.85
909.4894	1740.4204	4075.35	3189.1
909.6304	1742.1246	4065.4	3181.8
909.7714	1743.8279	4041.4	3157.95
909.9123	1745.5306	4038.45	3154.65
910.0532	1747.2325	4004.2	3120.9
910.1941	1748.9336	3993	3111
910.335	1750.634	3978.1	3093.65
910.4759	1752.3336	3964.55	3083.3
910.6168	1754.0325	3963.45	3080.8
910.7576	1755.7307	3957	3073.8
910.8984	1757.4281	3956.4	3075.05
911.0392	1759.1247	3937.75	3046.35
911.18	1760.8206	3916.2	3027.7
911.3208	1762.5158	3927.05	3041.1
911.4615	1764.2102	3911.9	3030.6
911.6022	1765.9039	3886.1	3001.55
911.7429	1767.5968	3889.15	3005.15
911.8836	1769.289	3864.35	2982.65
912.0243	1770.9804	3865.2	2982.3
912.1649	1772.6711	3863.6	2981.75
912.3056	1774.361	3846.65	2961.75
912.4462	1776.0502	3842.4	2959.55
912.5868	1777.7386	3832.1	2945.9
912.7274	1779.4263	3822.05	2938.15
912.8679	1781.1132	3803.6	2921.2
913.0084	1782.7994	3798.55	2913.05
913.149	1784.4849	3791	2908.95
913.2895	1786.1696	3809.05	2905.95
913.4299	1787.8535	3783.5	2902.45
913.5704	1789.5367	3769.6	2885.7
913.7108	1791.2192	3756.1	2871.9
913.8513	1792.9009	3776.3	2878.25
913.9917	1794.5818	3759.15	2873.75
914.132	1796.2621	3738.7	2857.95
914.2724	1797.9415	3733.45	2850.3
914.4128	1799.6202	3728.15	2844.75
914.5531	1801.2982	3715.45	2833
914.6934	1802.9755	3712.55	2828.55
914.8337	1804.6519	3714.05	2828.9
914.9739	1806.3277	3693.7	2812.95
915.1142	1808.0027	3675.4	2790.55
915.2544	1809.6769	3672.65	2790.4
915.3946	1811.3504	3681.6	2797.7
915.5348	1813.0231	3668.85	2785.2
915.675	1814.6951	3663.85	2782.2
915.8151	1816.3664	3664.75	2778.1
915.9553	1818.0369	3658.95	2778.05
916.0954	1819.7067	3656.9	2774.6
916.2355	1821.3757	3647.15	2762.4
916.3755	1823.044	3633.15	2749.7
916.5156	1824.7115	3619	2735.45
916.6556	1826.3783	3607.75	2725.15
916.7956	1828.0443	3605.6	2723.7
916.9356	1829.7096	3602.45	2717.05
917.0756	1831.3741	3603	2717.25
917.2155	1833.0379	3593	2709.65
917.3555	1834.701	3578.15	2690.95
917.4954	1836.3633	3553.5	2669.6
917.6353	1838.0248	3566.15	2681.65
917.7751	1839.6856	3558.05	2675.25
917.915	1841.3457	3568.15	2688.1
918.0548	1843.005	3552.05	2670.85
918.1946	1844.6636	3552.9	2672.2
918.3344	1846.3214	3551.1	2667.85
918.4742	1847.9785	3542.25	2660.4
918.6139	1849.6349	3536.35	2652.4
918.7537	1851.2904	3541.95	2649.75
918.8934	1852.9453	3535.95	2653.3
919.0331	1854.5994	3520.25	2633.6
919.1727	1856.2528	3507.8	2619.55
919.3124	1857.9054	3513.25	2630.75
919.452	1859.5572	3495.65	2614
919.5916	1861.2083	3481.8	2600.55
919.7312	1862.8587	3489.95	2608.85
919.8708	1864.5084	3483.6	2601.45
920.0103	1866.1572	3476.5	2595.9
920.1498	1867.8054	3464.15	2581.2
920.2893	1869.4528	3450.05	2567.9
920.4288	1871.0994	3438.35	2555.45
920.5683	1872.7453	3453.1	2569.6
920.7077	1874.3905	3449.55	2548.55
920.8471	1876.0349	3424.15	2539.9
920.9865	1877.6786	3443.35	2557.85
921.1259	1879.3215	3423.75	2541.5
921.2653	1880.9637	3423.15	2537.35
921.4046	1882.6051	3417.75	2535.4
921.5439	1884.2458	3393.7	2508.25
921.6832	1885.8858	3399.8	2517.05
921.8225	1887.525	3399.9	2516.2
921.9617	1889.1634	3383.9	2500.3
922.101	1890.8011	3369.4	2486
922.2402	1892.4381	3368.5	2485.45
922.3794	1894.0743	3367.95	2486.85
922.5185	1895.7098	3357.35	2475.75
922.6577	1897.3446	3356.65	2472.85
922.7968	1898.9786	3353.6	2467.55
922.9359	1900.6118	3337.7	2454.75
923.075	1902.2443	3327.5	2441.75
923.214	1903.8761	3317.75	2437.5
923.3531	1905.5071	3304	2418.45
923.4921	1907.1374	3308.75	2424.8
923.6311	1908.7669	3294.65	2409.4
923.77	1910.3957	3288.8	2407.75
923.909	1912.0237	3273.75	2391.65
924.0479	1913.651	3281.35	2396.2
924.1868	1915.2776	3278.3	2396.05
924.3257	1916.9034	3269.9	2388.45
924.4646	1918.5285	3246.35	2364.55
924.6034	1920.1528	3233.45	2350.75
924.7422	1921.7764	3240.45	2359
924.881	1923.3992	3238.9	2356.85
925.0198	1925.0213	3204	2322.65
925.1586	1926.6427	3213.15	2332
925.2973	1928.2633	3297.15	2308.65
925.436	1929.8832	3204.6	2319.1
925.5747	1931.5023	3192.35	2309.45
925.7134	1933.1207	3186.65	2304.2
925.852	1934.7383	3182.7	2298.7
925.9906	1936.3552	3170	2289.95
926.1292	1937.9714	3162	2280.2
926.2678	1939.5868	3156.1	2270.3
926.4064	1941.2015	3138.1	2253.25
926.5449	1942.8154	3143.75	2261.5
926.6834	1944.4286	3129.35	2247.25
926.8219	1946.041	3134.7	2229.4
926.9604	1947.6528	3108.55	2222.25
927.0988	1949.2637	3100.05	2218.95
927.2372	1950.8739	3112.3	2228.9
927.3756	1952.4834	3084.2	2202.35
927.514	1954.0921	3074.8	2192.05
927.6523	1955.7001	3084.05	2198.3
927.7907	1957.3074	3067.7	2186.5
927.929	1958.9139	3050.45	2169.55
928.0673	1960.5197	3052.4	2166.45
928.2055	1962.1247	3037.3	2154.15
928.3438	1963.729	3019.95	2138.95
928.482	1965.3325	3047.7	2142.35
928.6202	1966.9353	3034.55	2152.5
928.7584	1968.5374	3021.05	2137.05
928.8965	1970.1387	3005.65	2124.4
929.0346	1971.7393	2999.45	2117.55
929.1727	1973.3392	2983.25	2100.5
929.3108	1974.9383	2979.65	2096.45
929.4489	1976.5366	2969.75	2087.75
929.5869	1978.1342	2968.35	2084.45
929.7249	1979.7311	2963.4	2078.8
929.8629	1981.3273	2961.85	2077.7
930.0009	1982.9227	2944.25	2058.65
930.1388	1984.5173	2938.9	2054.9
930.2767	1986.1112	2935.9	2051.5
930.4146	1987.7044	2928.35	2047.1
930.5525	1989.2968	2928.75	2043.9
930.6904	1990.8885	2929.3	2042.9
930.8282	1992.4795	2927.35	2042.7
930.966	1994.0697	2899.35	2016.65
931.1038	1995.6592	2906.9	2024.15
931.2415	1997.2479	2899.4	2015.1
931.3793	1998.8359	2889.75	2007.35
931.517	2000.4232	2891.1	2009.55
931.6547	2002.0097	2881.05	2000.35
931.7923	2003.5955	2871.85	1987.8
931.93	2005.1805	2876.75	1991.9
932.0676	2006.7648	2853.65	1971.25
932.2052	2008.3484	2858.55	1972.5
932.3427	2009.9312	2866.15	1981
932.4803	2011.5133	2844.95	1963.25
932.6178	2013.0946	2841.45	1958.4
932.7553	2014.6752	2844.4	1960.15
932.8928	2016.2551	2835.8	1952.6
933.0302	2017.8342	2823.15	1940.55
933.1676	2019.4126	2828.6	1946.5
933.305	2020.9902	2808.65	1927.45
933.4424	2022.5672	2816.85	1934.05
933.5798	2024.1433	2825.2	1935.8
933.7171	2025.7188	2798.25	1917.15
933.8544	2027.2935	2799.9	1915.35
933.9917	2028.8674	2789.3	1905.05
934.129	2030.4406	2779.8	1897.5
934.2662	2032.0131	2771.35	1888.9
934.4034	2033.5849	2771.3	1883.7
934.5406	2035.1559	2756.85	1875.8
934.6778	2036.7261	2762.8	1880.75
934.8149	2038.2957	2758.3	1876
934.952	2039.8645	2747.2	1863.9
935.0891	2041.4325	2752.95	1866.9
935.2262	2042.9998	2730.25	1848.45
935.3632	2044.5664	2737.35	1852.25
935.5002	2046.1323	2735.7	1854.4
935.6372	2047.6974	2730.65	1846.95
935.7742	2049.2617	2712.9	1829.2
935.9111	2050.8254	2757.6	1842.25
936.048	2052.3883	2720.65	1835.35
936.1849	2053.9504	2706.7	1826.35
936.3218	2055.5118	2701.9	1818
936.4586	2057.0725	2704.7	1817.35
936.5955	2058.6325	2693.25	1810.85
936.7323	2060.1917	2693.6	1809.35
936.869	2061.7502	2679	1793.15
937.0058	2063.3079	2676.6	1794.85
937.1425	2064.8649	2679.6	1791.8
937.2792	2066.4212	2662.25	1780.7
937.4159	2067.9767	2660.6	1777.1
937.5525	2069.5315	2663.65	1779.35
937.6891	2071.0856	2646.65	1764.6
937.8257	2072.6389	2642.45	1756.85
937.9623	2074.1915	2643.7	1761.3
938.0989	2075.7433	2625.25	1739.8
938.2354	2077.2945	2622.45	1741.4
938.3719	2078.8448	2616.15	1732.2
938.5084	2080.3945	2609.7	1726.65
938.6448	2081.9434	2609.95	1727.6
938.7812	2083.4916	2593	1707.35
938.9176	2085.039	2590.35	1704.7
939.054	2086.5857	2595.5	1714.25
939.1903	2088.1317	2589.05	1705.25
939.3267	2089.677	2584	1700.8
939.463	2091.2215	2581.1	1698.65
939.5992	2092.7652	2570.7	1686.7
939.7355	2094.3083	2574.3	1691.6
939.8717	2095.8506	2566.05	1682.7
940.0079	2097.3921	2556.3	1674.75
940.1441	2098.933	2560.9	1676.8
940.2802	2100.4731	2549	1665.65
940.4163	2102.0124	2568.6	1666.85
940.5524	2103.5511	2547.55	1663.75
940.6885	2105.089	2547.7	1664.1
940.8245	2106.6261	2549.55	1666.6
940.9606	2108.1626	2541.4	1657.4
941.0965	2109.6983	2553.85	1644.25
941.2325	2111.2332	2536.45	1652
941.3684	2112.7675	2529	1644.3
941.5044	2114.301	2514	1628.6
941.6403	2115.8337	2503.65	1621.1
941.7761	2117.3657	2507.75	1626.35
941.912	2118.897	2509.55	1626.25
942.0478	2120.4276	2516.2	1626.3
942.1835	2121.9575	2500.4	1615.9
942.3193	2123.4866	2503.15	1605.4
942.455	2125.0149	2502.65	1616.55
942.5907	2126.5426	2484.95	1603.05
942.7264	2128.0695	2489.3	1601.3
942.8621	2129.5956	2477.6	1595.8
942.9977	2131.1211	2473.25	1584.85
943.1333	2132.6458	2469.45	1586.1
943.2689	2134.1698	2467.65	1585.15
943.4044	2135.693	2464.3	1578.1
943.54	2137.2155	2459.75	1576.65
943.6755	2138.7373	2450.3	1564.6
943.8109	2140.2584	2442.8	1559.25
943.9464	2141.7787	2450.95	1562.25
944.0818	2143.2983	2444.05	1560.35
944.2172	2144.8171	2428.2	1544.85
944.3526	2146.3353	2421	1535.65
944.4879	2147.8527	2418.15	1536.35
944.6232	2149.3693	2422.85	1539.55
944.7585	2150.8853	2420	1536.75
944.8938	2152.4005	2406.9	1523.7
945.029	2153.9149	2402.5	1519.95
945.1642	2155.4287	2399.85	1517.15
945.2994	2156.9417	2399.95	1515.85
945.4346	2158.454	2392.85	1506.95
945.5697	2159.9655	2397.5	1515.35
945.7048	2161.4764	2387.55	1503.95
945.8399	2162.9865	2388.8	1506.05
945.9749	2164.4958	2385.7	1501.3
946.1099	2166.0045	2379.1	1493.45
946.2449	2167.5124	2364.6	1481.5
946.3799	2169.0195	2369.15	1485.5
946.5148	2170.526	2361	1478.8
946.6498	2172.0317	2362.85	1480.1
946.7846	2173.5367	2356.8	1470.85
946.9195	2175.0409	2364.25	1482.15
947.0543	2176.5445	2353.55	1472.55
947.1891	2178.0473	2352.7	1469.85
947.3239	2179.5494	2345.2	1459.6
947.4587	2181.0507	2344.35	1461.95
947.5934	2182.5513	2337.4	1453.05
947.7281	2184.0512	2333.1	1450.05
947.8628	2185.5504	2321.6	1437.95
947.9974	2187.0488	2318.8	1435
948.132	2188.5465	2306.75	1424.3
948.2666	2190.0435	2299	1414.8
948.4012	2191.5397	2314.6	1431.95
948.5357	2193.0353	2309.1	1425.65
948.6702	2194.5301	2307.75	1421.7
948.8047	2196.0241	2293.9	1411.4
948.9392	2197.5175	2293.45	1410.9
949.0736	2199.0101	2290.65	1404.65
949.208	2200.502	2288.75	1408.4
949.3424	2201.9931	2282.15	1398.4
949.4767	2203.4835	2271.25	1387.85
949.611	2204.9733	2273.1	1384.45
949.7453	2206.4622	2268.05	1382.85
949.8796	2207.9505	2248	1360.8
950.0138	2209.438	2241	1359
950.148	2210.9248	2250.9	1367.85
950.2822	2212.4109	2255.25	1371.65
950.4164	2213.8962	2235.15	1349.15
950.5505	2215.3809	2230.35	1345.3
950.6846	2216.8648	2238.15	1355.25
950.8186	2218.3479	2241	1354
950.9527	2219.8304	2220	1334
951.0867	2221.3121	2218.6	1335
951.2207	2222.7931	2213.4	1331.15
951.3546	2224.2733	2211.8	1328.15
951.4886	2225.7529	2205.95	1322.1
951.6225	2227.2317	2202.25	1314.15
951.7563	2228.7098	2205.85	1323.85
951.8902	2230.1872	2195.2	1310.2
952.024	2231.6638	2186.35	1303.05
952.1578	2233.1397	2182.6	1293.45
952.2916	2234.6149	2183.45	1300.45
952.4253	2236.0894	2171.45	1286.95
952.559	2237.5632	2177.7	1283.7
952.6927	2239.0362	2167.3	1285.25
952.8263	2240.5085	2174.2	1290.95
952.9599	2241.9801	2165.05	1279.9
953.0935	2243.4509	2156.65	1273.4
953.2271	2244.921	2147.35	1262.9
953.3606	2246.3904	2144.95	1258.55
953.4941	2247.8591	2136.65	1254.2
953.6276	2249.3271	2142.05	1259.75
953.7611	2250.7943	2126.5	1242.05
953.8945	2252.2608	2121.1	1239.2
954.0279	2253.7266	2130.1	1247.85
954.1612	2255.1917	2127	1243.55
954.2946	2256.656	2107.05	1221.85
954.4279	2258.1197	2106.9	1222.05
954.5612	2259.5826	2105.8	1221.2
954.6944	2261.0447	2104.55	1220.35
954.8276	2262.5062	2107.15	1221.2
954.9608	2263.9669	2104.95	1221.2
955.094	2265.4269	2096	1214.7
955.2271	2266.8862	2093.65	1213.05
955.3602	2268.3448	2089.55	1203.95
955.4933	2269.8026	2101.2	1216
955.6264	2271.2598	2085.1	1200.3
955.7594	2272.7162	2086.1	1202.15
955.8924	2274.1719	2086.45	1203.55
956.0253	2275.6268	2080.25	1198.3
956.1583	2277.0811	2069.9	1188.3
956.2912	2278.5346	2074.35	1192.1
956.4241	2279.9874	2078.85	1193.9
956.5569	2281.4395	2067.7	1184.45
956.6897	2282.8908	2070.7	1182.05
956.8225	2284.3414	2070.8	1185.75
956.9553	2285.7914	2059.3	1176.6
957.088	2287.2406	2059.7	1174.1
957.2207	2288.689	2062.7	1180.4
957.3534	2290.1368	2051.05	1165.25
957.486	2291.5838	2040.5	1157
957.6186	2293.0302	2041.25	1158.2
957.7512	2294.4758	2030.15	1147.8
957.8838	2295.9206	2044.05	1159.2
958.0163	2297.3648	2029.6	1147.2
958.1488	2298.8082	2034.85	1153.3
958.2813	2300.251	2030.2	1146.9
958.4137	2301.693	2029.35	1144.4
958.5461	2303.1343	2017.05	1132.5
958.6785	2304.5748	2023.95	1140.5
958.8108	2306.0147	2009.75	1125.75
958.9432	2307.4538	2016.6	1132.3
959.0754	2308.8922	2006.15	1125.15
959.2077	2310.3299	2003.15	1119.2
959.3399	2311.7669	2001.85	1118.1
959.4721	2313.2031	1996.6	1114.55
959.6043	2314.6387	1988	1103.6
959.7365	2316.0735	1984.3	1101.9
959.8686	2317.5076	1989.3	1104.3
960.0006	2318.941	1985.2	1101.95
960.1327	2320.3737	1981.5	1099.15
960.2647	2321.8056	1985.45	1100.45
960.3967	2323.2369	1970.9	1087.9
960.5287	2324.6674	1981.5	1095.2
960.6606	2326.0972	1972.95	1088.95
960.7925	2327.5263	1966.55	1081.25
960.9244	2328.9547	1958	1074.5
961.0562	2330.3823	1963.05	1078.1
961.1881	2331.8092	1963.95	1078.45
961.3198	2333.2355	1947.3	1063.4
961.4516	2334.661	1960.8	1076.3
961.5833	2336.0858	1954.4	1071.2
961.715	2337.5098	1943.05	1060.6
961.8467	2338.9332	1948.25	1065.15
961.9783	2340.3558	1937.45	1051.45
962.1099	2341.7778	1935.3	1049.7
962.2415	2343.199	1933.9	1048.1
962.373	2344.6195	1935.4	1052.05
962.5045	2346.0393	1929.95	1048.15
962.636	2347.4583	1933.3	1049.45
962.7675	2348.8767	1934	1050.35
962.8989	2350.2943	1927.95	1043.15
963.0303	2351.7113	1932.2	1048.25
963.1617	2353.1275	1927	1044
963.293	2354.543	1945.85	1038.8
963.4243	2355.9578	1914.4	1031.8
963.5556	2357.3718	1910.8	1028.65
963.6868	2358.7852	1908.4	1023.35
963.818	2360.1978	1904.1	1020.4
963.9492	2361.6098	1911.5	1028.2
964.0803	2363.021	1913.5	1024.5
964.2114	2364.4315	1897.85	1016
964.3425	2365.8413	1900.4	1015.15
964.4736	2367.2504	1887.5	1005.05
964.6046	2368.6587	1887.45	1004.6
964.7356	2370.0664	1882.4	999.3
964.8666	2371.4733	1881.55	997.5
964.9975	2372.8795	1875	993.5
965.1284	2374.285	1877.9	992.9
965.2593	2375.6899	1872.6	990.35
965.3901	2377.0939	1872.25	989.4
965.5209	2378.4973	1865.25	984.1
965.6517	2379.9	1865.45	979.75
965.7825	2381.3019	1858.5	976.2
965.9132	2382.7032	1859.4	977.35
966.0439	2384.1037	1847.7	965.65
966.1745	2385.5035	1841.95	957.45
966.3051	2386.9027	1841.95	960.6
966.4357	2388.3011	1846.15	958.5
966.5663	2389.6987	1846.85	964.25
966.6968	2391.0957	1843.85	959.3
966.8273	2392.492	1830.4	949.45
966.9578	2393.8876	1817.95	933.7
967.0882	2395.2824	1812.65	931.4
967.2186	2396.6765	1819	937.05
967.349	2398.07	1818.95	938.05
967.4793	2399.4627	1810.4	926.55
967.6097	2400.8547	1807.4	924.65
967.7399	2402.246	1811.95	922.85
967.8702	2403.6366	1818.2	934.65
968.0004	2405.0265	1800.95	919.1
968.1306	2406.4156	1800.05	913
968.2607	2407.8041	1801.05	914.8
968.3909	2409.1918	1790.9	904.25
968.521	2410.5789	1790.2	907.3
968.651	2411.9652	1791.85	906.4
968.781	2413.3508	1786.95	904.15
968.911	2414.7358	1786.35	904.15
969.041	2416.12	1777.55	897.25
969.1709	2417.5035	1779.9	899.05
969.3008	2418.8863	1769.4	885.5
969.4307	2420.2684	1779.65	897.35
969.5606	2421.6497	1773.05	887.25
969.6904	2423.0304	1760.25	878.45
969.8201	2424.4104	1778.1	895.65
969.9499	2425.7896	1762.55	877.85
970.0796	2427.1682	1759.95	875.95
970.2093	2428.546	1755.6	871.4
970.3389	2429.9232	1758.2	873.65
970.4685	2431.2996	1758.25	876.15
970.5981	2432.6753	1753.1	871.65
970.7277	2434.0503	1747.6	865.4
970.8572	2435.4246	1746.3	863.65
970.9867	2436.7982	1737.35	853.15
971.1161	2438.1711	1736.7	854.85
971.2456	2439.5433	1742.3	858.5
971.375	2440.9148	1743.8	854.15
971.5043	2442.2856	1737.3	853.8
971.6336	2443.6557	1727.7	842.35
971.7629	2445.025	1722.5	840.1
971.8922	2446.3937	1723.9	838.7
972.0214	2447.7617	1722.2	839.95
972.1506	2449.1289	1721	838.15
972.2798	2450.4955	1724.75	840
972.4089	2451.8613	1720.3	838.6
972.538	2453.2265	1715.2	832.4
972.6671	2454.5909	1710.15	827.25
972.7961	2455.9546	1708.9	826.1
972.9251	2457.3177	1715.35	832.4
973.0541	2458.68	1702.4	819.55
973.1831	2460.0416	1698.55	814.45
973.312	2461.4025	1699.7	816.45
973.4408	2462.7627	1713	818.55
973.5697	2464.1222	1704.4	822.5
973.6985	2465.4811	1708.8	825.85
973.8273	2466.8392	1689.95	806.75
973.956	2468.1966	1698.95	811.7
974.0847	2469.5533	1696.3	810.55
974.2134	2470.9093	1699.4	815.7
974.3421	2472.2645	1691.25	806.45
974.4707	2473.6191	1682.4	800.95
974.5993	2474.973	1683.35	798.5
974.7278	2476.3262	1686.65	802.6
974.8563	2477.6787	1677.9	796.25
974.9848	2479.0305	1675.9	794.05
975.1132	2480.3816	1681.55	796.9
975.2417	2481.7319	1669.8	787.1
975.37	2483.0816	1665.85	781.2
975.4984	2484.4306	1672	788.6
975.6267	2485.7789	1666.25	783.35
975.755	2487.1264	1667.3	782
975.8833	2488.4733	1666.05	784.1
976.0115	2489.8195	1675.9	774.75
976.1397	2491.165	1663.75	778.4
976.2678	2492.5097	1651.25	765.6
976.3959	2493.8538	1649.5	767.45
976.524	2495.1972	1641.15	757.15
976.6521	2496.5398	1647.1	762.15
976.7801	2497.8818	1636.9	753.6
976.9081	2499.2231	1645.85	763.35
977.036	2500.5637	1636.35	751.2
977.164	2501.9035	1636.5	752.5
977.2918	2503.2427	1637.1	750.8
977.4197	2504.5812	1626.9	744.5
977.5475	2505.919	1628.2	745.7
977.6753	2507.256	1623.8	742.65
977.8031	2508.5924	1626.35	742.35
977.9308	2509.9281	1629.1	740.2
978.0585	2511.2631	1628.05	743.75
978.1861	2512.5974	1628.15	747.15
978.3137	2513.9309	1620.3	735.2
978.4413	2515.2638	1639.25	724.8
978.5689	2516.596	1613.65	731.95
978.6964	2517.9275	1608.7	724.95
978.8239	2519.2583	1610.1	725.95
978.9513	2520.5884	1611.7	726
979.0788	2521.9178	1608.5	725.3
979.2062	2523.2465	1599.8	716.7
979.3335	2524.5745	1589.95	707
979.4608	2525.9018	1598.5	714.5
979.5881	2527.2284	1609	726.4
979.7154	2528.5543	1594.45	713.95
979.8426	2529.8796	1597.65	713.8
979.9698	2531.2041	1597.45	713.95
980.0969	2532.5279	1590.75	708.65
980.224	2533.851	1589.65	705.95
980.3511	2535.1735	1590.2	706.25
980.4781	2536.4952	1593.75	712.55
980.6052	2537.8163	1587.35	702.9
980.7321	2539.1366	1589.3	707.45
980.8591	2540.4562	1586.7	700.15
980.986	2541.7752	1587.65	706.1
981.1129	2543.0935	1585.8	702.1
981.2397	2544.411	1591.05	707.7
981.3665	2545.7279	1584	701.8
981.4933	2547.0441	1581.6	698
981.62	2548.3596	1580.85	691.95
981.7467	2549.6744	1577.1	695.25
981.8734	2550.9885	1571	687.35
982.0001	2552.3019	1572.8	692.05
982.1267	2553.6146	1575.1	691.95
982.2532	2554.9266	1568	684.85
982.3798	2556.2379	1567.3	680.7
982.5063	2557.5485	1566.65	685.7
982.6327	2558.8585	1571.5	680.7
982.7592	2560.1677	1573.85	687.85
982.8856	2561.4762	1565.35	680.55
983.0119	2562.7841	1576.25	690.3
983.1383	2564.0913	1560.4	677.7
983.2646	2565.3977	1551.5	669.3
983.3908	2566.7035	1550.3	668.15
983.517	2568.0086	1560.5	675.5
983.6432	2569.313	1561.3	675.05
983.7694	2570.6167	1557.2	671.7
983.8955	2571.9197	1551.8	671.1
984.0216	2573.222	1552.55	667.9
984.1476	2574.5236	1548.25	665.95
984.2737	2575.8246	1557.8	671.35
984.3996	2577.1248	1537.15	652.05
984.5256	2578.4244	1555.8	672.35
984.6515	2579.7232	1549.15	665.7
984.7774	2581.0214	1580.95	666.65
984.9032	2582.3189	1550.3	668.95
985.029	2583.6157	1551.2	664.05
985.1548	2584.9118	1552.95	670.05
985.2806	2586.2072	1553.25	672
985.4063	2587.5019	1541.3	659.45
985.5319	2588.7959	1542.85	661.3
985.6576	2590.0893	1553.45	669.55
985.7832	2591.3819	1552.9	671.2
985.9087	2592.6739	1548.7	666.4
986.0343	2593.9652	1545.45	659.95
986.1597	2595.2557	1552.2	668.5
986.2852	2596.5456	1548.8	663.3
986.4106	2597.8348	1551.2	670.8
986.536	2599.1234	1540.4	658.6
986.6614	2600.4112	1545.45	661.45
986.7867	2601.6983	1550.65	665.7
986.912	2602.9848	1544.7	661.5
987.0372	2604.2705	1541.7	652.1
987.1624	2605.5556	1546.05	663.85
987.2876	2606.84	1548.7	664.15
987.4128	2608.1237	1541.7	658.85
987.5379	2609.4067	1537.55	653.05
987.6629	2610.689	1544.75	653.95
987.788	2611.9707	1535.2	647.6
987.913	2613.2516	1536.3	648.1
988.0379	2614.5319	1524	642.15
988.1629	2615.8115	1521.8	638.05
988.2878	2617.0903	1518.25	633.95
988.4126	2618.3685	1518.2	636.25
988.5375	2619.6461	1511.3	628.25
988.6622	2620.9229	1519.95	636.25
988.787	2622.199	1518.8	636.35
988.9117	2623.4745	1504.9	621.1
989.0364	2624.7493	1513	629.85
989.161	2626.0234	1508.95	627.9
989.2857	2627.2968	1514.3	630.5
989.4102	2628.5695	1516.45	632.9
989.5348	2629.8415	1504.55	620.95
989.6593	2631.1128	1512.55	627.15
989.7837	2632.3835	1514.4	630.75
989.9082	2633.6535	1503.75	618.75
990.0326	2634.9228	1506.85	625.65
990.1569	2636.1914	1496.55	614.2
990.2812	2637.4593	1502.85	619.85
990.4055	2638.7265	1502.95	620.8
990.5298	2639.9931	1494.9	613.45
990.654	2641.259	1497.75	612.7
990.7782	2642.5242	1490.95	608.05
990.9023	2643.7887	1492.35	607.4
991.0264	2645.0525	1490.75	606.95
991.1505	2646.3156	1496.15	611.85
991.2745	2647.5781	1490.1	608.45
991.3985	2648.8398	1483.35	600.95
991.5225	2650.1009	1515.2	595.6
991.6464	2651.3613	1480.5	598.15
991.7703	2652.6211	1483.1	601.5
991.8942	2653.8801	1481.75	600.3
992.018	2655.1385	1480.5	595.65
992.1418	2656.3961	1480.15	598.3
992.2655	2657.6531	1482.85	598.65
992.3892	2658.9094	1482.15	599.75
992.5129	2660.1651	1478.45	596.05
992.6366	2661.42	1478.5	594.45
992.7602	2662.6743	1487.05	603
992.8837	2663.9279	1483.85	602.3
993.0073	2665.1808	1481.1	598.65
993.1307	2666.433	1491.1	606.55
993.2542	2667.6846	1481.95	600.55
993.3776	2668.9354	1494.8	606.2
993.501	2670.1856	1487.75	603.3
993.6244	2671.4351	1481.5	596.5
993.7477	2672.6839	1493.9	609.75
993.8709	2673.9321	1496.75	614.45
993.9942	2675.1795	1499.05	616.3
994.1174	2676.4263	1502.3	619.85
994.2405	2677.6724	1497.25	615.6
994.3637	2678.9179	1496.25	612.85
994.4868	2680.1626	1503	621.8
994.6098	2681.4067	1497.25	613.35
994.7328	2682.6501	1499.45	616.85
994.8558	2683.8928	1501.45	618.65
994.9788	2685.1348	1487.2	603.95
995.1017	2686.3761	1493	609.55
995.2245	2687.6168	1484.05	600.9
995.3474	2688.8568	1479.75	595.8
995.4702	2690.0961	1471.55	589.15
995.5929	2691.3348	1473.45	591.35
995.7156	2692.5727	1469.4	588.65
995.8383	2693.81	1463.4	580.15
995.961	2695.0466	1462.55	580.4
996.0836	2696.2826	1460.3	573.85
996.2062	2697.5178	1473.4	588.35
996.3287	2698.7524	1467.9	584.75
996.4512	2699.9863	1467.5	582.45
996.5737	2701.2195	1463.65	581.15
996.6961	2702.452	1483	597.85
996.8185	2703.6839	1473.8	590.3
996.9408	2704.9151	1487.7	606.05
997.0631	2706.1456	1483.05	600.1
997.1854	2707.3755	1494.5	611.25
997.3077	2708.6046	1506.15	620.3
997.4299	2709.8331	1502.75	620.05
997.552	2711.0609	1510.6	628.15
997.6742	2712.2881	1518.2	633.3
997.7963	2713.5145	1518	632.7
997.9183	2714.7403	1535.1	652.25
998.0403	2715.9654	1540.2	657.55
998.1623	2717.1899	1570.85	673.8
998.2842	2718.4136	1557.95	676.3
998.4062	2719.6367	1566.35	684.35
998.528	2720.8591	1581.55	691.75
998.6498	2722.0809	1591.95	708.45
998.7716	2723.3019	1607.95	723.4
998.8934	2724.5223	1608	723.5
999.0151	2725.7421	1617.9	733
999.1368	2726.9611	1615.25	728.95
999.2584	2728.1795	1626.05	737.5
999.38	2729.3972	1609.05	727.15
999.5016	2730.6142	1613.8	718.3
999.6231	2731.8306	1579.65	696.9
999.7446	2733.0462	1576.3	691.85
999.8661	2734.2612	1556.75	668.55
999.9875	2735.4756	1540.6	656.1
1000.1089	2736.6892	1518.6	635.55
1000.2302	2737.9022	1501.95	621
1000.3515	2739.1145	1500.2	615.7
1000.4728	2740.3262	1496.55	604.95
1000.594	2741.5372	1466.6	584.8
1000.7152	2742.7475	1461.5	576.85
1000.8363	2743.9571	1453.45	569.65
1000.9575	2745.1661	1455.15	569.15
1001.0785	2746.3744	1432.85	548.8
1001.1996	2747.582	1428.7	545.85
1001.3206	2748.7889	1420.65	535.45
1001.4415	2749.9952	1412.75	529.3
1001.5625	2751.2008	1404.6	519.55
1001.6833	2752.4057	1412.2	526.7
1001.8042	2753.61	1406.3	521.45
1001.925	2754.8136	1404.3	518.25
1002.0458	2756.0165	1393.35	510.75
1002.1665	2757.2188	1395.4	514.35
1002.2872	2758.4204	1398.35	513.6
1002.4078	2759.6213	1395.8	512.35
1002.5285	2760.8215	1406.35	515.55
1002.649	2762.0211	1396.35	512.3
1002.7696	2763.22	1398.35	511.35
1002.8901	2764.4182	1401.35	517
1003.0106	2765.6158	1386.6	502.85
1003.131	2766.8127	1386.7	504.2
1003.2514	2768.009	1381.7	497.8
1003.3717	2769.2045	1389.8	506.8
1003.492	2770.3994	1373.8	489.3
1003.6123	2771.5936	1377.55	492.65
1003.7325	2772.7872	1379.1	496.3
1003.8527	2773.9801	1374.3	489.6
1003.9729	2775.1723	1384.3	486.25
1004.093	2776.3639	1368.9	487.45
1004.2131	2777.5548	1373.3	487.2
1004.3331	2778.745	1366.75	480.7
1004.4531	2779.9346	1367.65	486.3
1004.5731	2781.1235	1371.3	486
1004.693	2782.3117	1371.85	489
1004.8129	2783.4992	1376.35	493.8
1004.9328	2784.6861	1377.9	495.7
1005.0526	2785.8723	1389.6	507.1
1005.1723	2787.0579	1380.65	496.55
1005.2921	2788.2428	1395.3	511.5
1005.4118	2789.427	1393.6	510.15
1005.5314	2790.6106	1399.65	515.75
1005.651	2791.7935	1413.6	527.6
1005.7706	2792.9757	1415.2	534.25
1005.8902	2794.1573	1425.1	539.7
1006.0097	2795.3382	1429.7	548
1006.1291	2796.5184	1445.75	563.65
1006.2485	2797.698	1456.15	571.9
1006.3679	2798.8769	1466	581.95
1006.4873	2800.0551	1469.85	587.2
1006.6066	2801.2327	1484.6	599.45
1006.7258	2802.4096	1503.85	621.15
1006.8451	2803.5859	1516.8	633
1006.9642	2804.7615	1540.8	657.75
1007.0834	2805.9364	1554.1	670.2
1007.2025	2807.1106	1578	695.6
1007.3216	2808.2842	1597.5	715.65
1007.4406	2809.4572	1620.9	736.7
1007.5596	2810.6294	1663.95	780.8
1007.6785	2811.801	1698.95	817.55
1007.7975	2812.972	1739.95	855.95
1007.9163	2814.1423	1770.3	888.75
1008.0352	2815.3119	1812.35	929.5
1008.154	2816.4808	1860.2	978.45
1008.2727	2817.6491	1907.3	1022.9
1008.3914	2818.8167	1962.3	1082.1
1008.5101	2819.9837	2021.85	1133.45
1008.6288	2821.15	2063.7	1182.25
1008.7474	2822.3157	2113.8	1233.5
1008.8659	2823.4807	2167.45	1283.75
1008.9844	2824.645	2226.15	1342.5
1009.1029	2825.8086	2273.6	1392.15
1009.2214	2826.9716	2325.7	1442.85
1009.3398	2828.134	2379.05	1497.3
1009.4581	2829.2957	2429.4	1545.9
1009.5764	2830.4567	2451.75	1569.55
1009.6947	2831.617	2469.05	1586.4
1009.813	2832.7767	2491.8	1610.4
1009.9312	2833.9358	2488.5	1606.15
1010.0493	2835.0941	2485.8	1600.45
1010.1675	2836.2519	2478.1	1594.15
1010.2855	2837.4089	2443.6	1558.85
1010.4036	2838.5653	2425.05	1542.25
1010.5216	2839.7211	2414.4	1532.85
1010.6396	2840.8761	2399.15	1515.35
1010.7575	2842.0306	2423.5	1540.95
1010.8754	2843.1843	2439.2	1557.7
1010.9932	2844.3374	2484.45	1601.4
1011.111	2845.4899	2524.1	1642.05
1011.2288	2846.6417	2575.35	1695
1011.3465	2847.7928	2639.15	1756.6
1011.4642	2848.9433	2696.75	1814.85
1011.5818	2850.0931	2765.95	1882.4
1011.6995	2851.2422	2817.05	1932.9
1011.817	2852.3907	2881.35	1995.95
1011.9345	2853.5385	2948.35	2064.25
1012.052	2854.6857	3017.25	2106.6
1012.1695	2855.8323	3045.7	2161.95
1012.2869	2856.9781	3090.7	2209.25
1012.4042	2858.1233	3143	2262.7
1012.5216	2859.2679	3181.2	2298.4
1012.6389	2860.4118	3240.95	2359.55
1012.7561	2861.555	3292.3	2405.25
1012.8733	2862.6976	3319.75	2435.4
1012.9905	2863.8395	3354.3	2473.5
1013.1076	2864.9808	3376.1	2492.3
1013.2247	2866.1214	3396.05	2515.5
1013.3417	2867.2614	3425.95	2540.75
1013.4587	2868.4007	3433.65	2551.9
1013.5757	2869.5393	3448.55	2563.1
1013.6926	2870.6773	3460.35	2575.55
1013.8095	2871.8146	3481.3	2596.3
1013.9263	2872.9513	3488.1	2605.35
1014.0431	2874.0874	3487.5	2605.05
1014.1599	2875.2227	3474.3	2592.4
1014.2766	2876.3574	3455.9	2570.65
1014.3933	2877.4915	3424.95	2544.55
1014.51	2878.6249	3385.2	2503.55
1014.6266	2879.7577	3375.6	2491.85
1014.7431	2880.8898	3367.25	2473.25
1014.8596	2882.0212	3333.5	2452.7
1014.9761	2883.152	3327.65	2445.9
1015.0925	2884.2821	3302.55	2421.4
1015.2089	2885.4116	3292.05	2410.55
1015.3253	2886.5405	3302.65	2419.5
1015.4416	2887.6686	3310.85	2425.05
1015.5579	2888.7962	3312.35	2429.75
1015.6741	2889.923	3313.2	2430.7
1015.7903	2891.0493	3342.85	2462.05
1015.9065	2892.1748	3341.55	2460.7
1016.0226	2893.2997	3339.65	2456
1016.1387	2894.424	3362.15	2478.95
1016.2547	2895.5476	3379.8	2497.1
1016.3707	2896.6706	3411.1	2530
1016.4866	2897.7929	3429.45	2545.2
1016.6025	2898.9145	3460.65	2577.55
1016.7184	2900.0355	3483.6	2600.05
1016.8342	2901.1559	3518.55	2635.6
1016.95	2902.2756	3544.35	2661.75
1017.0658	2903.3946	3562.35	2681.45
1017.1815	2904.513	3587	2700.75
1017.2971	2905.6308	3622.15	2741.4
1017.4127	2906.7479	3645.3	2761.5
1017.5283	2907.8643	3666.4	2783.15
1017.6439	2908.9801	3673.35	2791.5
1017.7594	2910.0953	3692.9	2810.55
1017.8748	2911.2098	3685.25	2800.75
1017.9902	2912.3236	3685.45	2790.75
1018.1056	2913.4368	3668.5	2781.15
1018.2209	2914.5494	3661.75	2780.9
1018.3362	2915.6613	3631.4	2743.15
1018.4515	2916.7725	3595.45	2710.55
1018.5667	2917.8831	3563.8	2680.5
1018.6819	2918.9931	3538.55	2651.3
1018.797	2920.1024	3486.9	2604
1018.9121	2921.211	3480.05	2598.5
1019.0271	2922.319	3463.85	2579.3
1019.1421	2923.4264	3461.95	2579.55
1019.2571	2924.5331	3451.85	2570.8
1019.372	2925.6391	3437.75	2554.9
1019.4869	2926.7445	3439.3	2557.65
1019.6017	2927.8493	3434.55	2550.15
1019.7165	2928.9534	3430.7	2547.45
1019.8313	2930.0569	3439.8	2552.55
1019.946	2931.1597	3442.5	2559.65
1020.0606	2932.2619	3447.3	2565.25
1020.1753	2933.3634	3441.7	2557.95
1020.2899	2934.4643	3459.95	2571.8
1020.4044	2935.5645	3442.8	2553.3
1020.5189	2936.6641	3422.15	2534.95
1020.6334	2937.763	3388.9	2507.1
1020.7478	2938.8613	3346.9	2462.45
1020.8622	2939.959	3315.3	2427.3
1020.9765	2941.056	3230.15	2347.95
1021.0908	2942.1523	3170.2	2286.3
1021.2051	2943.248	3098.75	2217.55
1021.3193	2944.3431	3005.25	2123.3
1021.4334	2945.4375	2930.65	2047.4
1021.5476	2946.5313	2820.95	1940.15
1021.6617	2947.6244	2724.2	1842.65
1021.7757	2948.7169	2638.6	1755.25
1021.8897	2949.8087	2542.45	1661.35
1022.0037	2950.8999	2448.65	1566.55
1022.1176	2951.9904	2369.1	1486.8
1022.2315	2953.0803	2301.35	1415.9
1022.3453	2954.1696	2246.1	1364.6
1022.4591	2955.2582	2203.95	1320.85
1022.5728	2956.3462	2145.3	1262.6
1022.6865	2957.4335	2099.1	1216.25
1022.8002	2958.5202	2075.65	1191.15
1022.9138	2959.6062	2045.4	1162.1
1023.0274	2960.6916	2020.95	1138.35
1023.141	2961.7764	2003.25	1119
1023.2545	2962.8605	1980.2	1096.35
1023.3679	2963.9439	1976.55	1094.4
1023.4813	2965.0267	1969.95	1085.8
1023.5947	2966.1089	1986.5	1080.05
1023.708	2967.1905	1955.2	1072.05
1023.8213	2968.2714	1945.3	1063.8
1023.9346	2969.3516	1951.45	1067.7
1024.0478	2970.4312	1970.2	1078.15
1024.1609	2971.5102	1952.55	1069
1024.274	2972.5885	1956.65	1075.4
1024.3871	2973.6662	1963.55	1076.95
1024.5002	2974.7432	1954.6	1072.55
1024.6132	2975.8196	1956.25	1074.65
1024.7261	2976.8954	1952.75	1071.35
1024.839	2977.9705	1937.95	1055.1
1024.9519	2979.045	1941	1059.5
1025.0647	2980.1188	1917.35	1030.95
1025.1775	2981.192	1899.05	1018.4
1025.2902	2982.2645	1883.9	999.65
1025.4029	2983.3364	1854.3	970.85
1025.5156	2984.4077	1840.05	959.8
1025.6282	2985.4783	1814.9	926.55
1025.7407	2986.5483	1788.75	907.8
1025.8532	2987.6177	1749.95	866.95
1025.9657	2988.6864	1716.85	834.35
1026.0782	2989.7545	1683.55	800.25
1026.1906	2990.8219	1659.1	776.55
1026.3029	2991.8887	1627.8	742.65
1026.4152	2992.9548	1590.95	707.7
1026.5275	2994.0204	1554.85	672.95
1026.6397	2995.0852	1539.45	659.6
1026.7519	2996.1495	1508.5	622.6
1026.864	2997.2131	1484.35	602.05
1026.9761	2998.276	1460.6	578.45
1027.0882	2999.3383	1437.45	554.6
1027.2002	3000.4	1420	538.1
1027.3122	3001.4611	1409.3	527.75
1027.4241	3002.5215	1384.6	500.35
1027.536	3003.5812	1371.35	489.5
1027.6478	3004.6404	1356.05	475.05
1027.7596	3005.6989	1349.35	463.4
1027.8714	3006.7567	1336.75	455.5
1027.9831	3007.8139	1350.75	440.9
1028.0947	3008.8705	1311.55	431
1028.2064	3009.9264	1326.35	425.4
1028.3179	3010.9818	1305.5	424.9
1028.4295	3012.0364	1300.8	417.35
1028.541	3013.0905	1295.3	411.9
1028.6524	3014.1439	1291.1	410.95
1028.7638	3015.1966	1285.6	403.25
1028.8752	3016.2487	1283.45	401.15
1028.9865	3017.3002	1279.05	390.75
1029.0978	3018.3511	1273.4	392.3
1029.209	3019.4013	1270.7	389.45
1029.3202	3020.4509	1275.8	394.4
1029.4314	3021.4998	1272.05	390.9
1029.5425	3022.5481	1260.8	376.8
1029.6535	3023.5958	1268.45	385.1
1029.7645	3024.6428	1273.2	390.3
1029.8755	3025.6892	1263.15	380.7
1029.9864	3026.735	1265	381.3
1030.0973	3027.7802	1268.45	388.5
1030.2082	3028.8247	1267.4	382.85
1030.319	3029.8685	1269.3	388.75
1030.4297	3030.9118	1274	392.05
1030.5404	3031.9544	1269.9	387.6
1030.6511	3032.9963	1271.7	390.4
1030.7617	3034.0376	1280.1	397.25
1030.8723	3035.0783	1284.6	399.9
1030.9829	3036.1184	1281.8	398.3
1031.0934	3037.1578	1278.8	398.7
1031.2038	3038.1966	1285.65	400.7
1031.3142	3039.2348	1291.3	409.45
1031.4246	3040.2723	1296.7	405.65
1031.5349	3041.3092	1285.7	405
1031.6452	3042.3455	1282.35	399.25
1031.7554	3043.3811	1293	412.35
1031.8656	3044.4161	1284.5	400.4
1031.9758	3045.4505	1284.25	402.8
1032.0859	3046.4842	1281.6	397.25
1032.1959	3047.5173	1279	397.45
1032.3059	3048.5498	1274.55	391.6
1032.4159	3049.5816	1268.5	385.95
1032.5258	3050.6128	1265.45	380.3
1032.6357	3051.6434	1267.2	383.4
1032.7455	3052.6734	1258.2	374.25
1032.8553	3053.7027	1252.3	370.1
1032.9651	3054.7314	1254.6	372.3
1033.0748	3055.7594	1252.55	369.7
1033.1845	3056.7868	1247.65	362.9
1033.2941	3057.8136	1247.6	367.75
1033.4037	3058.8398	1235.25	354.5
1033.5132	3059.8653	1240.85	360.55
1033.6227	3060.8902	1234.75	352.55
1033.7321	3061.9145	1236.45	353
1033.8415	3062.9381	1233.65	349.75
1033.9509	3063.9612	1237.45	338.85
1034.0602	3064.9835	1217.85	336
1034.1694	3066.0053	1220.5	334.5
1034.2787	3067.0264	1213.3	331.6
1034.3878	3068.0469	1212.6	329.1
1034.497	3069.0668	1200.9	314.4
1034.6061	3070.086	1197.35	315.9
1034.7151	3071.1046	1196.05	311.65
1034.8241	3072.1226	1188.25	303.1
1034.9331	3073.1399	1182.1	299.85
1035.042	3074.1567	1167.7	286.1
1035.1508	3075.1727	1169.6	287.15
1035.2597	3076.1882	1164.1	281.5
1035.3684	3077.203	1152.6	270.85
1035.4772	3078.2173	1153.1	268.9
1035.5859	3079.2308	1139.85	254.95
1035.6945	3080.2438	1133.45	251.05
1035.8031	3081.2561	1123.85	242.9
1035.9117	3082.2678	1126.95	244.7
1036.0202	3083.2789	1115.1	231.1
1036.1286	3084.2893	1106.5	226.45
1036.2371	3085.2991	1107.15	222.65
1036.3454	3086.3083	1108.55	221.45
1036.4538	3087.3169	1093.95	209.55
1036.562	3088.3248	1095.8	211.65
1036.6703	3089.3321	1092.05	207.3
1036.7785	3090.3388	1086.1	204.4
1036.8866	3091.3449	1079.95	197.9
1036.9948	3092.3503	1078.4	193.85
1037.1028	3093.3551	1071.55	190.5
1037.2108	3094.3593	1063.45	181.55
1037.3188	3095.3629	1065.1	183.45
1037.4267	3096.3658	1069.95	187.4
1037.5346	3097.3681	1061.2	179.8
1037.6425	3098.3698	1063.55	177.95
1037.7503	3099.3708	1061.15	171.15
1037.858	3100.3713	1057	174.15
1037.9657	3101.3711	1052.8	167.15
1038.0734	3102.3702	1189.15	165.95
1038.181	3103.3688	1051.25	165.9
1038.2886	3104.3667	1046.15	164.85
1038.3961	3105.364	1041.35	159.15
1038.5036	3106.3607	1040.8	157.55
1038.611	3107.3568	1043.15	159.5
1038.7184	3108.3522	1038.85	158.15
1038.8257	3109.347	1038.95	154.95
1038.933	3110.3412	1037.8	152.05
1039.0403	3111.3348	1033.85	150.9
1039.1475	3112.3277	1034.05	153.45
1039.2547	3113.32	1031.3	149.15
1039.3618	3114.3117	1030	146.2
1039.4689	3115.3028	1024.65	143
1039.5759	3116.2932	1026.7	143.65
1039.6829	3117.2831	1028.9	141.25
1039.7898	3118.2723	1020.15	138.85
1039.8967	3119.2608	1022	139
1040.0035	3120.2488	1020	137.55
1040.1103	3121.2361	1017.25	135.15
1040.2171	3122.2229	1016.75	132.15
1040.3238	3123.209	1017.25	133.45
1040.4305	3124.1944	1011.55	127.2
1040.5371	3125.1793	1016.65	131.5
1040.6437	3126.1635	1010.65	129
1040.7502	3127.1471	1008.05	127.45
1040.8567	3128.1301	1011.2	129.85
1040.9631	3129.1125	1005.45	124.3
1041.0695	3130.0942	1006.6	124.6
1041.1759	3131.0753	1013.75	123.45
1041.2822	3132.0558	1007.3	122.65
1041.3884	3133.0357	1003.9	122.05
1041.4946	3134.015	1003.6	120.2
1041.6008	3134.9936	1001.85	117.05
1041.7069	3135.9716	1024.45	119.3
1041.813	3136.949	1000.4	117.85
1041.919	3137.9258	1017.9	117.5
1042.025	3138.902	1000.95	113.65
1042.1309	3139.8775	994.4	113.15
1042.2368	3140.8524	995.15	112.2
1042.3427	3141.8267	998	115.4
1042.4485	3142.8004	997.45	116.8
1042.5542	3143.7735	998.8	110.1
1042.6599	3144.7459	997.65	113.45
1042.7656	3145.7178	994.3	110.85
1042.8712	3146.689	991.6	109.6
1042.9768	3147.6596	988.25	101.9
1043.0823	3148.6295	985.9	104.55
1043.1878	3149.5989	989.4	108.4
1043.2932	3150.5676	984.3	103.4
1043.3986	3151.5357	984.6	105.55
1043.5039	3152.5032	982.8	100.25
1043.6092	3153.4701	987.15	107.1
1043.7145	3154.4364	985.65	101.9
1043.8197	3155.402	984.5	103.8
1043.9248	3156.367	980.85	96.4
1044.03	3157.3315	1012.5	98.3
1044.135	3158.2952	977.5	93.95
1044.24	3159.2584	977.8	97
1044.345	3160.221	979.45	97.4
1044.4499	3161.1829	979.65	98.3
1044.5548	3162.1442	975.55	92.9
1044.6596	3163.105	979.4	97.55
1044.7644	3164.065	975.5	93.05
1044.8692	3165.0245	977.3	92.15
1044.9739	3165.9834	975.7	94.55
1045.0785	3166.9416	974.45	91.35
1045.1831	3167.8993	974.95	91.5
1045.2877	3168.8563	976.9	93.6
1045.3922	3169.8127	968.55	85.05
1045.4966	3170.7684	972.3	92.55
1045.6011	3171.7236	971.8	88.5
1045.7054	3172.6782	969.15	86.85
1045.8098	3173.6321	973.9	91.95
1045.914	3174.5854	975.5	88.45
1046.0183	3175.5381	969.8	86.05
1046.1224	3176.4902	966.5	83.55
1046.2266	3177.4417	965.85	82.9
1046.3307	3178.3926	970.1	87.3
1046.4347	3179.3428	962.25	80.25
1046.5387	3180.2924	967.85	87.8
1046.6427	3181.2415	971.15	89.05
1046.7466	3182.1899	968.6	84.25
1046.8504	3183.1377	966.1	84
1046.9542	3184.0848	967.65	82.05
1047.058	3185.0314	965.95	84.4
1047.1617	3185.9773	963.3	80.35
1047.2654	3186.9227	965.4	81.45
1047.369	3187.8674	964.5	81.45
1047.4726	3188.8115	962.45	76.35
1047.5761	3189.755	963.15	84.45
1047.6796	3190.6979	961.3	79.25
1047.783	3191.6402	959.6	78.1
1047.8864	3192.5818	961	81.05
1047.9898	3193.5229	981.05	77.45
1048.0931	3194.4633	959.8	77.55
1048.1963	3195.4031	958.05	75.9
1048.2995	3196.3423	956.75	75.15
1048.4027	3197.2809	957	74.95
1048.5058	3198.2189	957.8	74.95
1048.6089	3199.1563	971.8	70.8
1048.7119	3200.0931	957.75	76.85
1048.8148	3201.0292	955.4	74.45
1048.9178	3201.9648	956.8	75.8
1049.0206	3202.8997	957.65	72.7
1049.1235	3203.834	954.8	73.4
1049.2262	3204.7677	956.05	73.95
1049.329	3205.7008	959.75	75.75
1049.4317	3206.6333	950.9	69.85
1049.5343	3207.5652	955.9	71.7
1049.6369	3208.4964	953.9	69.8
1049.7394	3209.4271	950.8	70.55
1049.8419	3210.3571	951.75	70.85
1049.9444	3211.2865	951	67.2
1050.0468	3212.2154	951.65	68.9
1050.1491	3213.1436	955.3	70.75
1050.2514	3214.0712	955.6	67.05
1050.3537	3214.9982	950.95	68.55
1050.4559	3215.9246	952	67.8
1050.5581	3216.8503	947.55	68.55
1050.6602	3217.7755	950	66.95
1050.7623	3218.7001	951.65	70.9
1050.8643	3219.624	947.8	65.2
1050.9663	3220.5473	949.95	66.25
1051.0682	3221.4701	949.05	65.4
1051.1701	3222.3922	947.7	64.5
1051.2719	3223.3137	944.7	62.75
1051.3737	3224.2346	948.65	66.9
1051.4754	3225.1549	944.35	63.8
1051.5771	3226.0746	943.95	62
1051.6788	3226.9937	943.65	60.5
1051.7804	3227.9121	944.55	64.9
1051.8819	3228.83	946.2	63.95
1051.9834	3229.7473	945.85	65.4
1052.0849	3230.6639	945.55	65.25
1052.1863	3231.5799	944.2	61.85
1052.2876	3232.4954	945.05	64.3
1052.3889	3233.4102	940.85	58.05
1052.4902	3234.3244	943.05	59.05
1052.5914	3235.238	941.2	60.5
1052.6926	3236.151	963.35	56.6
1052.7937	3237.0634	940.5	60.2
1052.8948	3237.9752	940.65	59.35
1052.9958	3238.8864	943.75	60.55
1053.0968	3239.797	938.3	56.25
1053.1977	3240.7069	940.6	59.1
1053.2986	3241.6163	942.85	58.45
1053.3994	3242.5251	935	52.65
1053.5002	3243.4332	938	55.25
1053.6009	3244.3408	940.3	58.55
1053.7016	3245.2477	936.55	54.15
1053.8022	3246.154	941.95	58.1
1053.9028	3247.0598	938.65	56.45
1054.0034	3247.9649	937.85	54.5
1054.1039	3248.8694	935.55	53.35
1054.2043	3249.7733	935.5	52.05
1054.3047	3250.6766	934.35	51.95
1054.4051	3251.5793	934.95	52.3
1054.5054	3252.4814	933.05	52.8
1054.6056	3253.3829	933.75	52.5
1054.7058	3254.2838	934	50.9
1054.806	3255.1841	932.55	51.65
1054.9061	3256.0838	936.25	53.9
1055.0061	3256.9829	931.15	50.7
1055.1062	3257.8814	932.75	47.55
1055.2061	3258.7792	933.6	50.55
1055.306	3259.6765	933.7	51.55
1055.4059	3260.5731	930.6	48.65
1055.5057	3261.4692	930.15	45.55
1055.6055	3262.3647	930.95	49.9
1055.7052	3263.2595	929.4	48.85
1055.8049	3264.1538	925.35	45.4
1055.9045	3265.0474	925.65	42.3
1056.0041	3265.9404	924.75	42.95
1056.1036	3266.8329	926.55	45.35
1056.2031	3267.7247	931.1	38.35
1056.3025	3268.616	919.4	37.75
1056.4019	3269.5066	921.1	38.3
1056.5013	3270.3966	922.4	38.05
1056.6005	3271.286	921.1	40.45
