Software Version:	3.9.2.0
Unit SN:	10000200
Spectrometer SN:	6960
Date:	3/14/2024 2:01:31 PM
Data Line Index:	25
Spectral Points:	2048
Integration time (ms):	125
Averages:	20
Delay (ms):	30000
Sequence Number:	1
Processing:	dark subtract
Laser Power (mW):	305
Laser Current (mA):	824
Laser Diode Temp (C):	25.1
Laser Case Temp (C):	29
System Temp (C):	29
Spectrometer Temp (C):	26.8
CCD Temp (C):	0.008
Secondary Temp (C):	20.006
Heatsink Temp (C):	24.784
CCDPCB Temp (C):	38.074
SecondaryPCB Temp (C):	36.096

Wavelength	RamanShift	Raw Counts	Dark Subtracted
787.061	30.1047	451.6	41.05
787.2016	32.3739	454.7	44.9
787.3422	34.6426	458.5	47.6
787.4828	36.9109	463.55	52.1
787.6235	39.1787	471.1	56.45
787.7642	41.4461	481.1	59.95
787.9049	43.7131	489.3	65.9
788.0456	45.9796	495.5	68.9
788.1863	48.2456	506.8	75.5
788.3271	50.5112	512.5	76.3
788.4679	52.7764	521.1	84.35
788.6087	55.0411	533	91.6
788.7496	57.3054	541.25	94.25
788.8904	59.5692	552.1	102.75
789.0313	61.8326	562.85	108.85
789.1722	64.0955	574.35	116.8
789.3132	66.3579	590.15	126.7
789.4541	68.6199	606.1	141.6
789.5951	70.8815	633.9	165.55
789.7361	73.1426	700.2	227.15
789.8771	75.4032	866.9	389.85
790.0181	77.6634	1278.4	795.2
790.1592	79.9231	2237.3	1748.75
790.3003	82.1824	4364.3	3865.6
790.4414	84.4412	8267.6	7750.15
790.5825	86.6995	13770.85	13230.35
790.7237	88.9574	19348.7	18787.55
790.8648	91.2148	23395	22819.85
791.006	93.4717	25382.8	24798.85
791.1472	95.7282	25946.35	25354.65
791.2885	97.9842	26023.1	25428.35
791.4297	100.2398	25604.55	25006.95
791.571	102.4949	25187.9	24588.6
791.7123	104.7495	24513.6	23907.05
791.8536	107.0036	23817.6	23210.25
791.9949	109.2573	23140.9	22536.9
792.1363	111.5105	22491.7	21886.6
792.2777	113.7632	21822.9	21213.25
792.4191	116.0154	21264.6	20647.7
792.5605	118.2672	20809.65	20197.85
792.7019	120.5185	20352.65	19741.15
792.8434	122.7693	20007	19390.35
792.9849	125.0197	19728.25	19111.85
793.1264	127.2696	19495.75	18875.3
793.2679	129.519	19368.55	18744.7
793.4094	131.7679	19198.25	18571.9
793.551	134.0163	19112.2	18482.3
793.6926	136.2642	18961.95	18326.6
793.8342	138.5117	18830.5	18186.6
793.9758	140.7587	18670.3	18031.85
794.1175	143.0052	18553.05	17911.45
794.2591	145.2512	18372.45	17732.05
794.4008	147.4967	18172.3	17528.35
794.5425	149.7417	18068	17423.85
794.6842	151.9863	17933.3	17284.45
794.826	154.2304	17922.2	17277.1
794.9677	156.4739	17779.9	17124.9
795.1095	158.717	17703.75	17048.45
795.2513	160.9596	17540.8	16882.15
795.3931	163.2017	17334.7	16674.45
795.535	165.4433	17085.1	16424.4
795.6768	167.6844	16759.7	16097.5
795.8187	169.925	16483.05	15815.5
795.9606	172.1651	16146.6	15476.75
796.1025	174.4047	15901.7	15226.6
796.2445	176.6439	15653.45	14976.8
796.3864	178.8825	15414.2	14736.1
796.5284	181.1206	15249.3	14566.45
796.6704	183.3582	15071.15	14389.05
796.8124	185.5954	14975.05	14291.3
796.9544	187.832	14906.9	14215.8
797.0965	190.0681	14846	14155
797.2386	192.3037	14832.9	14137.95
797.3806	194.5388	14770.65	14074.35
797.5228	196.7734	14801.95	14102.85
797.6649	199.0075	14867.35	14161.45
797.807	201.2411	14975.7	14270.6
797.9492	203.4742	15025.35	14320.4
798.0914	205.7068	15140.35	14436
798.2336	207.9389	15202.2	14494.2
798.3758	210.1704	15332.15	14621.2
798.518	212.4015	15423	14709.5
798.6603	214.632	15566.95	14851.4
798.8025	216.862	15705.4	14997.5
798.9448	219.0915	15889	15189.8
799.0871	221.3205	16069.2	15375.5
799.2294	223.549	16351.35	15658.9
799.3718	225.777	16627.05	15939.3
799.5141	228.0044	17041.75	16348.2
799.6565	230.2314	17484.45	16791.75
799.7989	232.4578	17917.1	17222.65
799.9413	234.6837	18293	17591.55
800.0837	236.909	18508.15	17803.9
800.2262	239.1339	18474.4	17749.55
800.3687	241.3582	18194.15	17482.5
800.5111	243.582	17799.75	17063.1
800.6536	245.8053	17436.75	16706.35
800.7961	248.0281	17058.3	16333.75
800.9387	250.2503	16775.65	16043.75
801.0812	252.472	16579.6	15846.7
801.2238	254.6932	16464	15728.05
801.3664	256.9139	16319	15580.95
801.509	259.134	16293.95	15554
801.6516	261.3536	16187.45	15450.5
801.7942	263.5727	16118.55	15375.95
801.9369	265.7912	16025.85	15285.15
802.0795	268.0092	15948.35	15209.85
802.2222	270.2267	15850.1	15108.45
802.3649	272.4436	15772.25	15031.05
802.5076	274.6601	15727.9	14977.95
802.6504	276.8759	15666.1	14917.95
802.7931	279.0913	15669.85	14921.35
802.9359	281.3061	15692.65	14945.85
803.0787	283.5204	15778.45	15025
803.2215	285.7341	15895.55	15137.85
803.3643	287.9473	16044.55	15281.05
803.5071	290.16	16288.7	15525.95
803.6499	292.3721	16597.1	15840.35
803.7928	294.5837	16986.8	16232.8
803.9357	296.7947	17345.5	16589.95
804.0786	299.0052	17490.8	16734.7
804.2215	301.2152	17351.3	16590.75
804.3644	303.4246	16969.5	16213.5
804.5074	305.6334	16444.55	15686.7
804.6503	307.8418	15949.8	15190.75
804.7933	310.0495	15526.75	14765.05
804.9363	312.2568	15273.6	14516.95
805.0793	314.4635	15107.7	14346.55
805.2223	316.6696	15057.35	14294.6
805.3653	318.8752	15068.7	14298
805.5084	321.0802	15099.85	14335.55
805.6514	323.2847	15202.45	14436.55
805.7945	325.4887	15231.55	14465.1
805.9376	327.692	15164.7	14397.05
806.0807	329.8949	15067.85	14299.9
806.2238	332.0972	14836.9	14066.5
806.367	334.2989	14551.5	13778.65
806.5101	336.5001	14282.5	13509.55
806.6533	338.7007	14086.45	13313.15
806.7965	340.9008	13973.4	13198.15
806.9397	343.1003	13859.5	13083.1
807.0829	345.2992	13820.4	13044.4
807.2261	347.4976	13765.35	12987.3
807.3693	349.6955	13795.4	13012.4
807.5126	351.8927	13841	13056.7
807.6559	354.0895	13866.15	13072.05
807.7991	356.2856	13890.65	13107.05
807.9424	358.4812	13850.25	13065.9
808.0857	360.6763	13881.25	13097.1
808.2291	362.8707	13843.45	13057.6
808.3724	365.0646	13843.85	13052.8
808.5158	367.258	13847.35	13057.6
808.6591	369.4508	13823.75	13030.7
808.8025	371.643	13870.85	13078
808.9459	373.8346	13845.4	13051.45
809.0893	376.0257	13793.8	12997.25
809.2327	378.2162	13727.45	12927.1
809.3762	380.4062	13611.4	12806.45
809.5196	382.5956	13444.9	12640.45
809.6631	384.7844	13330.45	12526.15
809.8066	386.9726	13237.05	12431.85
809.9501	389.1603	13187.55	12385.35
810.0936	391.3474	13168.8	12335.5
810.2371	393.5339	13109.8	12306.4
810.3806	395.7199	13067.85	12270.15
810.5241	397.9052	13061.2	12269.05
810.6677	400.09	13041.35	12245.9
810.8113	402.2743	13088.55	12296.45
810.9548	404.4579	13110.75	12320.6
811.0984	406.641	13268.65	12475.5
811.2421	408.8235	13437.5	12642.6
811.3857	411.0054	13765.15	12970.55
811.5293	413.1868	14197.75	13401.2
811.673	415.3675	14531.75	13732.05
811.8166	417.5477	14746	13944.75
811.9603	419.7273	14740.85	13939.15
812.104	421.9064	14611.45	13802.85
812.2477	424.0848	14495.7	13690
812.3914	426.2627	14248.65	13440.85
812.5351	428.4399	13979.65	13167.1
812.6788	430.6166	13657	12843.45
812.8226	432.7928	13265.7	12449.1
812.9663	434.9683	12990.3	12178.2
813.1101	437.1432	12807.75	11993.4
813.2539	439.3176	12657.3	11840.95
813.3977	441.4914	12575.8	11761.25
813.5415	443.6645	12542.65	11721.6
813.6853	445.8371	12458.2	11639.3
813.8291	448.0091	12381.4	11565.6
813.973	450.1806	12345.1	11525.7
814.1168	452.3514	12270.1	11450.55
814.2607	454.5216	12271.9	11443.85
814.4046	456.6913	12159.5	11337.95
814.5485	458.8603	12172.7	11352.55
814.6924	461.0288	12237.85	11417.85
814.8363	463.1967	12251.8	11430.3
814.9802	465.3639	12373.45	11547.6
815.1241	467.5306	12509.4	11684.5
815.2681	469.6967	12652.85	11828.65
815.412	471.8622	12810.7	11986.25
815.556	474.0271	12934.8	12111.6
815.7	476.1914	12997.9	12174
815.844	478.3551	12955.25	12130.5
815.988	480.5182	12894.2	12069.05
816.132	482.6807	12853.75	12028.25
816.276	484.8426	12900.9	12074.9
816.4201	487.0039	13109.9	12283.5
816.5641	489.1647	13446.45	12618.65
816.7082	491.3248	13829	13005
816.8522	493.4843	14010.9	13182.75
816.9963	495.6432	14024.3	13196.95
817.1404	497.8015	13938.7	13108.45
817.2845	499.9592	13952.6	13124.45
817.4286	502.1163	13921.7	13095.85
817.5727	504.2728	13734.45	12902.6
817.7168	506.4287	13456.05	12627.7
817.861	508.5839	13064.2	12233.95
818.0051	510.7386	12735.4	11905.75
818.1493	512.8927	12523.45	11684.55
818.2935	515.0461	12401.25	11568.65
818.4377	517.199	12263.7	11430.15
818.5818	519.3512	12208.2	11374.85
818.726	521.5029	12215	11375.15
818.8703	523.6539	12217.5	11384.85
819.0145	525.8043	12216.2	11381.35
819.1587	527.9541	12254.85	11417.9
819.303	530.1033	12286.25	11450.7
819.4472	532.2519	12330.85	11494.8
819.5915	534.3999	12481.35	11641.45
819.7357	536.5472	12774.1	11937.05
819.88	538.694	13239.6	12398.35
820.0243	540.8401	13825	12986
820.1686	542.9856	14293.05	13453.15
820.3129	545.1305	14447.75	13607.1
820.4572	547.2748	14285.95	13446.85
820.6016	549.4185	13887.1	13046.15
820.7459	551.5615	13521.85	12680.7
820.8902	553.704	13336	12491.55
821.0346	555.8458	13234.45	12393.9
821.1789	557.987	13181	12340.15
821.3233	560.1276	13061.45	12220.55
821.4677	562.2675	12971.35	12129.65
821.6121	564.4069	12894.85	12053.15
821.7565	566.5456	12766.2	11926.8
821.9009	568.6837	12612.5	11773.25
822.0453	570.8212	12397.6	11557.35
822.1897	572.958	12229.35	11386.4
822.3342	575.0942	12009.2	11169.05
822.4786	577.2299	11914.25	11072.45
822.6231	579.3648	11944	11103.95
822.7675	581.4992	12017.5	11176
822.912	583.6329	12229.1	11386.55
823.0565	585.766	12439	11597.85
823.201	587.8985	12540.15	11698
823.3454	590.0304	12553.3	11701.05
823.4899	592.1616	12457.6	11612.2
823.6345	594.2922	12352.6	11510.75
823.779	596.4222	12235.5	11388.3
823.9235	598.5515	12085.2	11243
824.068	600.6802	11912.5	11065.9
824.2126	602.8083	11774	10930.35
824.3571	604.9358	11703.05	10854.8
824.5017	607.0626	11611.4	10762.7
824.6462	609.1888	11510.85	10662.55
824.7908	611.3144	11396.7	10549.7
824.9354	613.4393	11266.75	10420.1
825.08	615.5636	11112.8	10262.1
825.2246	617.6873	11029.7	10182.55
825.3692	619.8103	10933.7	10081.75
825.5138	621.9327	10884	10032.05
825.6584	624.0544	10846.6	9997.5
825.803	626.1756	10882.7	10034.35
825.9477	628.2961	10854.75	10005.3
826.0923	630.4159	10784.85	9937.3
826.237	632.5351	10745.95	9895.55
826.3816	634.6537	10684.55	9834.75
826.5263	636.7716	10629.75	9777.75
826.6709	638.8889	10621.75	9771.25
826.8156	641.0056	10649.95	9799.6
826.9603	643.1216	10632.15	9779.55
827.105	645.237	10645.2	9792.4
827.2497	647.3518	10630.9	9777.8
827.3944	649.4659	10655.25	9798.4
827.5391	651.5793	10655.4	9799.4
827.6838	653.6922	10638.7	9786.7
827.8285	655.8043	10631.1	9778.15
827.9733	657.9159	10597	9742.85
828.118	660.0268	10507.35	9650.75
828.2627	662.137	10434	9579
828.4075	664.2466	10384.9	9528.4
828.5522	666.3556	10346.8	9490.9
828.697	668.4639	10333.7	9475.95
828.8418	670.5716	10396.45	9540.55
828.9865	672.6786	10465.4	9606.9
829.1313	674.785	10526.05	9669.8
829.2761	676.8907	10586.8	9730.15
829.4209	678.9958	10663	9809.05
829.5657	681.1002	10631.9	9776.6
829.7105	683.204	10591.5	9732.7
829.8553	685.3072	10515.15	9658.05
830.0001	687.4097	10441.85	9586.15
830.1449	689.5115	10392.65	9534.4
830.2898	691.6127	10328.6	9471.75
830.4346	693.7132	10245.2	9387.6
830.5794	695.8131	10198.15	9321.5
830.7243	697.9123	10126.3	9269.05
830.8691	700.0109	10083.35	9224.95
831.014	702.1089	10052.7	9193.9
831.1588	704.2061	10034.85	9176.5
831.3037	706.3028	10075.8	9215.6
831.4486	708.3987	10130.65	9271.7
831.5935	710.4941	10170.25	9310.25
831.7383	712.5887	10345.6	9483.45
831.8832	714.6827	10616.1	9750.5
832.0281	716.7761	10963.25	10101.5
832.173	718.8688	11311.8	10452.9
832.3179	720.9608	11493.2	10629.95
832.4628	723.0522	11469.15	10605.55
832.6077	725.1429	11220.1	10356.95
832.7527	727.233	10912.75	10050.7
832.8976	729.3224	10565.75	9702.45
833.0425	731.4112	10302.35	9438.25
833.1874	733.4993	10103.15	9236.55
833.3324	735.5867	9956.95	9093.4
833.4773	737.6735	9875.3	9010.65
833.6222	739.7596	9807.25	8942.1
833.7672	741.845	9819.35	8953.7
833.9122	743.9298	9806.15	8939.9
834.0571	746.014	9790.15	8925.35
834.2021	748.0974	9803.25	8937.25
834.347	750.1802	9814.1	8950.7
834.492	752.2624	9775.2	8912.8
834.637	754.3439	9773.5	8908.75
834.782	756.4247	9816.35	8942.25
834.9269	758.5048	9916.5	9053.35
835.0719	760.5843	10051.35	9185.2
835.2169	762.6631	10276.4	9411.5
835.3619	764.7413	10662.4	9797.7
835.5069	766.8188	11113.7	10246.45
835.6519	768.8956	11534.9	10669.3
835.7969	770.9718	11795.45	10930.7
835.9419	773.0473	11644.15	10779.2
836.0869	775.1221	11351	10487
836.232	777.1962	11016.55	10151.35
836.377	779.2697	10820.25	9952.7
836.522	781.3426	10899.3	10015
836.667	783.4147	11164.25	10295.55
836.8121	785.4862	11419.75	10555
836.9571	787.557	11461.35	10594.4
837.1021	789.6271	11134.75	10267.95
837.2472	791.6966	10643	9776.25
837.3922	793.7654	10184.6	9317.8
837.5373	795.8335	9899.7	9031.8
837.6823	797.901	9745.6	8876.65
837.8274	799.9678	9685.15	8817.55
837.9724	802.0339	9680.15	8815.4
838.1175	804.0993	9727.55	8852.55
838.2626	806.1641	9714.05	8843.75
838.4076	808.2282	9666.9	8799.2
838.5527	810.2916	9562.4	8690.75
838.6978	812.3544	9440.7	8571.9
838.8428	814.4164	9374.1	8504.75
838.9879	816.4778	9380.05	8512.25
839.133	818.5385	9336.2	8468.5
839.2781	820.5986	9374.6	8506.95
839.4232	822.658	9426.25	8557.1
839.5682	824.7166	9450.2	8583.4
839.7133	826.7747	9579.8	8712.95
839.8584	828.832	9645.65	8777.7
840.0035	830.8886	9711.2	8839.95
840.1486	832.9446	9844.55	8974.75
840.2937	834.9999	9895.75	9028.45
840.4388	837.0545	9978.5	9104.45
840.5839	839.1085	10017.6	9146.95
840.729	841.1618	10010	9137.15
840.8741	843.2143	10006.05	9134.05
841.0192	845.2662	9965.2	9094.75
841.1643	847.3175	9896.45	9029.8
841.3095	849.368	9778.1	8910.8
841.4546	851.4179	9678.05	8808.4
841.5997	853.467	9536.35	8666.75
841.7448	855.5155	9423.75	8550.7
841.8899	857.5633	9338.8	8469.85
842.0351	859.6105	9250.9	8379.5
842.1802	861.6569	9168.05	8296.2
842.3253	863.7027	9074.45	8200.1
842.4704	865.7478	9065.1	8192.4
842.6156	867.7922	9068.6	8199.4
842.7607	869.8359	9116.55	8248.35
842.9058	871.8789	9218.65	8346.95
843.0509	873.9212	9385.2	8480.4
843.1961	875.9629	9512.95	8640.7
843.3412	878.0039	9687	8814.05
843.4863	880.0441	9755.3	8886.25
843.6315	882.0837	9706.75	8831.9
843.7766	884.1226	9604.5	8730.55
843.9218	886.1609	9466.25	8592.1
844.0669	888.1984	9335.7	8461
844.212	890.2352	9263.5	8391.5
844.3572	892.2714	9207.6	8331.6
844.5023	894.3069	9182.25	8310.5
844.6475	896.3416	9103.45	8232.35
844.7926	898.3757	9087.55	8216.85
844.9377	900.4091	9107.5	8234.65
845.0829	902.4418	9119.75	8240.9
845.228	904.4739	9105.15	8231.1
845.3732	906.5052	9066.65	8191.65
845.5183	908.5358	8985.55	8113.25
845.6635	910.5658	8825.35	7951.2
845.8086	912.595	8692.45	7819.9
845.9538	914.6236	8567.7	7697.55
846.0989	916.6515	8563.55	7691.95
846.2441	918.6786	8542.1	7666.2
846.3892	920.7051	8591.05	7716.85
846.5344	922.7309	8702.2	7828.2
846.6795	924.756	8759.1	7884.95
846.8246	926.7804	8835.55	7957.65
846.9698	928.8041	8797.1	7918.95
847.1149	930.8272	8790.8	7914.25
847.2601	932.8495	8713.35	7838.65
847.4052	934.8711	8643.55	7767.4
847.5504	936.892	8499.4	7626.2
847.6955	938.9123	8371.65	7497.75
847.8407	940.9318	8224.45	7348.95
847.9858	942.9506	8115.75	7238.9
848.131	944.9688	8025.1	7149.4
848.2761	946.9862	7986.9	7113.2
848.4213	949.003	7942.4	7065.3
848.5664	951.019	7945.4	7071.1
848.7115	953.0344	7961.1	7086.25
848.8567	955.0491	7994.9	7119.1
849.0018	957.063	8061.25	7185.15
849.147	959.0763	8114.1	7240.15
849.2921	961.0888	8161	7284.55
849.4373	963.1007	8230.3	7352.45
849.5824	965.1119	8278.25	7400.7
849.7275	967.1223	8310.6	7434.25
849.8727	969.1321	8326.1	7451.95
850.0178	971.1412	8344.95	7469.05
850.1629	973.1495	8347.5	7470.6
850.3081	975.1572	8387.65	7476
850.4532	977.1641	8415.05	7539.65
850.5983	979.1704	8381.35	7503.25
850.7435	981.1759	8369.45	7490.65
850.8886	983.1808	8430.35	7552.75
851.0337	985.1849	8506.9	7618.2
851.1788	987.1884	8659.65	7780.75
851.324	989.1911	8810.05	7930.55
851.4691	991.1932	8934.25	8056.7
851.6142	993.1945	8968.15	8092.15
851.7593	995.1951	8944.6	8068.1
851.9045	997.1951	8922.35	8040.25
852.0496	999.1943	8846.9	7972.15
852.1947	1001.1928	8791.6	7915.3
852.3398	1003.1906	8765.6	7887.65
852.4849	1005.1877	8785.8	7906.05
852.63	1007.1841	8755.8	7877.25
852.7751	1009.1798	8646.15	7769.9
852.9202	1011.1748	8484.95	7610.85
853.0653	1013.1691	8293.05	7413.75
853.2104	1015.1627	8105.05	7230.1
853.3555	1017.1556	7945.1	7066.75
853.5006	1019.1477	7862.9	6982.5
853.6457	1021.1392	7786.4	6909.85
853.7908	1023.1299	7816.25	6936.75
853.9359	1025.12	7815.5	6937.3
854.081	1027.1093	7862.85	6986.4
854.2261	1029.0979	7924.25	7047.2
854.3712	1031.0859	7973.75	7097.05
854.5163	1033.0731	7957.2	7077.55
854.6613	1035.0596	7895.65	7019.35
854.8064	1037.0454	7756.25	6880.7
854.9515	1039.0304	7637.1	6758.35
855.0965	1041.0148	7546.75	6668.55
855.2416	1042.9985	7450.9	6571.15
855.3867	1044.9814	7430.65	6556.85
855.5317	1046.9636	7379.75	6499.5
855.6768	1048.9452	7363.95	6487.3
855.8219	1050.926	7366.65	6490.15
855.9669	1052.9061	7352	6474.55
856.112	1054.8855	7337.35	6458.05
856.257	1056.8642	7360.85	6482.15
856.4021	1058.8421	7377.15	6496
856.5471	1060.8194	7409.35	6531.95
856.6921	1062.7959	7419.25	6541.1
856.8372	1064.7717	7444.15	6566.4
856.9822	1066.7469	7422.6	6543.35
857.1272	1068.7213	7389.6	6508.45
857.2723	1070.695	7362.45	6484.3
857.4173	1072.6679	7292.35	6413.8
857.5623	1074.6402	7260.35	6380.85
857.7073	1076.6117	7224.4	6343.95
857.8523	1078.5826	7230.45	6350.45
857.9973	1080.5527	7295.95	6415.25
858.1423	1082.5221	7427.25	6546.2
858.2873	1084.4908	7585.4	6707
858.4323	1086.4587	7804.8	6928.3
858.5773	1088.426	7935.9	7056.55
858.7223	1090.3925	7942.9	7060.55
858.8673	1092.3584	7848.75	6971.05
859.0123	1094.3235	7715.85	6838.8
859.1573	1096.2879	7629.95	6750.8
859.3022	1098.2515	7583.05	6703.7
859.4472	1100.2145	7589.7	6711.75
859.5922	1102.1767	7636.9	6757.15
859.7371	1104.1382	7769.55	6893.5
859.8821	1106.099	7952.85	7071.2
860.027	1108.0591	8135.45	7258.4
860.172	1110.0185	8250.35	7369.65
860.3169	1111.9771	8217.55	7337.55
860.4619	1113.9351	8032.45	7151.85
860.6068	1115.8923	7748.35	6867.95
860.7517	1117.8488	7438.15	6556.6
860.8967	1119.8045	7191.2	6314.55
861.0416	1121.7596	7071.85	6191.5
861.1865	1123.7139	7012.6	6134.8
861.3314	1125.6675	7013.4	6135.25
861.4763	1127.6204	7071.9	6193.8
861.6212	1129.5726	7077.2	6195.95
861.7661	1131.524	7095.1	6217.1
861.911	1133.4748	7125.1	6245.95
862.0559	1135.4248	7159.2	6279.5
862.2008	1137.3741	7180.8	6301.4
862.3457	1139.3226	7138	6257.15
862.4905	1141.2705	7126.6	6245.9
862.6354	1143.2176	7055.65	6170.9
862.7803	1145.164	7072.45	6191.1
862.9251	1147.1097	7098.75	6218.8
863.07	1149.0546	7079.95	6197.85
863.2148	1150.9989	7001.8	6121.85
863.3597	1152.9424	6835.5	5955.6
863.5045	1154.8852	6663.4	5784.75
863.6493	1156.8272	6537.25	5659.6
863.7942	1158.7686	6502.85	5616.25
863.939	1160.7092	6436.8	5556.7
864.0838	1162.6491	6432.6	5551
864.2286	1164.5883	6500.35	5620.15
864.3734	1166.5267	6586.15	5704.75
864.5182	1168.4644	6696.25	5816.6
864.663	1170.4014	6831.7	5948.85
864.8078	1172.3377	7029.15	6148.45
864.9526	1174.2732	7192.05	6313.4
865.0974	1176.2081	7372.15	6493.2
865.2421	1178.1421	7509.75	6626.6
865.3869	1180.0755	7614.5	6735.3
865.5317	1182.0082	7649.5	6767.7
865.6764	1183.9401	7582.3	6698.6
865.8212	1185.8713	7400.9	6521.25
865.9659	1187.8017	7186.9	6307.95
866.1106	1189.7315	6967.15	6088.05
866.2554	1191.6605	6770.5	5860.05
866.4001	1193.5888	6586.2	5704
866.5448	1195.5163	6474.9	5593.55
866.6895	1197.4432	6400.15	5518.55
866.8342	1199.3693	6336.65	5455.7
866.9789	1201.2947	6297.75	5413.05
867.1236	1203.2193	6286.4	5406.25
867.2683	1205.1432	6318.95	5437.75
867.413	1207.0664	6344.95	5466.1
867.5576	1208.9889	6422.1	5537.75
867.7023	1210.9106	6477.55	5596.35
867.847	1212.8316	6547.75	5671.1
867.9916	1214.7519	6626.45	5735.85
868.1363	1216.6715	6630.9	5750.9
868.2809	1218.5903	6617.4	5738
868.4255	1220.5084	6558.85	5678
868.5701	1222.4257	6530.75	5651.45
868.7148	1224.3424	6477.6	5596.9
868.8594	1226.2583	6515.2	5632.1
869.004	1228.1735	6633.3	5750.2
869.1486	1230.0879	6712.75	5830.65
869.2932	1232.0016	6842.3	5962.85
869.4377	1233.9146	6855.25	5971.35
869.5823	1235.8269	6796.7	5915.65
869.7269	1237.7384	6665.05	5784.05
869.8715	1239.6492	6505.8	5623.65
870.016	1241.5592	6400.35	5518.95
870.1606	1243.4686	6319.5	5437.95
870.3051	1245.3772	6262.9	5383.5
870.4496	1247.285	6208.45	5328.45
870.5941	1249.1922	6197.1	5315.85
870.7387	1251.0986	6164.05	5285.35
870.8832	1253.0042	6176.9	5293.55
871.0277	1254.9092	6222.25	5340.85
871.1722	1256.8134	6312.9	5432.8
871.3167	1258.7169	6445.3	5563.05
871.4611	1260.6196	6570.5	5691.85
871.6056	1262.5216	6746.05	5862.8
871.7501	1264.4229	6830.05	5949.95
871.8945	1266.3234	6931.15	6050
872.039	1268.2232	6956.95	6073.6
872.1834	1270.1223	6925.7	6044.4
872.3278	1272.0207	6892.55	6010.35
872.4723	1273.9183	6868.3	5981.8
872.6167	1275.8151	6790.5	5909.15
872.7611	1277.7113	6727.65	5844.55
872.9055	1279.6067	6596.9	5718.2
873.0499	1281.5014	6456.6	5574.25
873.1943	1283.3953	6337.8	5454.35
873.3386	1285.2885	6268.95	5387.3
873.483	1287.181	6223.25	5342.05
873.6274	1289.0727	6227.35	5349.6
873.7717	1290.9637	6243.4	5360.3
873.9161	1292.854	6364.55	5484.15
874.0604	1294.7435	6467.45	5586.25
874.2047	1296.6323	6680.25	5800.05
874.349	1298.5204	6894.65	6009.45
874.4933	1300.4077	7112.75	6229.55
874.6376	1302.2943	7261.1	6380.05
874.7819	1304.1802	7331.75	6451.05
874.9262	1306.0653	7255.7	6371.95
875.0705	1307.9497	7155.05	6272.45
875.2147	1309.8333	7084.85	6202.3
875.359	1311.7162	7067.85	6187.1
875.5032	1313.5984	7147.65	6264.95
875.6475	1315.4798	7278.85	6387.45
875.7917	1317.3605	7424.5	6525.75
875.9359	1319.2405	7545	6661.3
876.0801	1321.1197	7588	6703.3
876.2243	1322.9982	7561.45	6675.55
876.3685	1324.876	7521.65	6640.35
876.5127	1326.753	7496.65	6613.95
876.6569	1328.6293	7523.85	6638.4
876.801	1330.5048	7528.85	6644.55
876.9452	1332.3796	7484.8	6603.9
877.0893	1334.2537	7479.8	6570.65
877.2335	1336.127	7437.1	6553.65
877.3776	1337.9996	7383.5	6503.5
877.5217	1339.8714	7360.5	6477.05
877.6658	1341.7426	7326.15	6402.05
877.8099	1343.6129	7254.4	6370.8
877.954	1345.4826	7185.5	6302.8
878.0981	1347.3515	7140.6	6254.95
878.2422	1349.2196	7101.8	6218.25
878.3862	1351.087	7092.8	6211.65
878.5303	1352.9537	7148.15	6264.75
878.6743	1354.8197	7248.35	6366.4
878.8184	1356.6849	7376.65	6495.55
878.9624	1358.5493	7444.8	6561.1
879.1064	1360.4131	7434	6552.7
879.2504	1362.276	7389.25	6507.3
879.3944	1364.1383	7223.75	6342.15
879.5384	1365.9998	7038.1	6149
879.6823	1367.8606	6807.8	5923.55
879.8263	1369.7206	6600.1	5717.15
879.9702	1371.5799	6456.3	5570.25
880.1142	1373.4384	6365.05	5480.8
880.2581	1375.2962	6262.85	5380.25
880.402	1377.1533	6083.75	5202.75
880.5459	1379.0096	5835.7	4952.45
880.6898	1380.8652	5600.2	4717.4
880.8337	1382.7201	5414.95	4533.4
880.9776	1384.5742	5249.6	4367.9
881.1215	1386.4275	5122.35	4237.1
881.2653	1388.2802	5018.65	4137.8
881.4092	1390.132	4950.4	4067.9
881.553	1391.9832	4921.05	4035.95
881.6968	1393.8336	4858.2	3976.7
881.8406	1395.6832	4827.5	3941.9
881.9844	1397.5322	4787.6	3903.45
882.1282	1399.3803	4786.75	3899.2
882.272	1401.2278	4773.8	3892.65
882.4158	1403.0745	4782.75	3901.55
882.5595	1404.9204	4761.55	3881.4
882.7033	1406.7656	4768.4	3886.9
882.847	1408.6101	4786.95	3904.25
882.9908	1410.4538	4813.05	3930.6
883.1345	1412.2968	4844.6	3963.15
883.2782	1414.139	4886.55	4002.35
883.4219	1415.9805	4960.4	4078.75
883.5656	1417.8213	5044.85	4155.9
883.7092	1419.6613	5167.6	4284.5
883.8529	1421.5006	5311.45	4428.85
883.9965	1423.3391	5550.05	4666.9
884.1402	1425.1769	5869	4985.45
884.2838	1427.0139	6304.2	5422.1
884.4274	1428.8502	6829.45	5942.75
884.571	1430.6858	7351.3	6468.45
884.7146	1432.5206	7725.7	6844.75
884.8582	1434.3547	7928.75	7044.1
885.0018	1436.188	7953.75	7071.45
885.1453	1438.0206	7870.3	6986.4
885.2889	1439.8524	7767.2	6885.6
885.4324	1441.6835	7686	6803.15
885.5759	1443.5139	7611.25	6723.75
885.7194	1445.3435	7543	6662.75
885.8629	1447.1724	7492.4	6607.25
886.0064	1449.0005	7424.95	6543.75
886.1499	1450.8279	7336	6451.25
886.2933	1452.6545	7329.15	6447.55
886.4368	1454.4804	7346.25	6465.45
886.5802	1456.3056	7356.2	6464.7
886.7237	1458.13	7259.9	6378.1
886.8671	1459.9536	7082.3	6199.35
887.0105	1461.7766	6728.8	5847.45
887.1539	1463.5987	6382.55	5499.1
887.2972	1465.4202	6065.65	5182.9
887.4406	1467.2409	5754.5	4871.8
887.584	1469.0608	5515.5	4634.1
887.7273	1470.88	5299.25	4415.75
887.8706	1472.6984	5110.45	4228.65
888.0139	1474.5161	4945.5	4059.95
888.1572	1476.3331	4812.15	3930.55
888.3005	1478.1493	4715.35	3831.55
888.4438	1479.9648	4625.8	3742.55
888.5871	1481.7795	4566.25	3683
888.7303	1483.5935	4490.05	3611.1
888.8736	1485.4067	4446.4	3565.85
889.0168	1487.2192	4407.65	3525
889.16	1489.031	4387.65	3501.15
889.3032	1490.842	4336.5	3455.45
889.4464	1492.6522	4312.45	3430.7
889.5896	1494.4618	4272.3	3388.35
889.7327	1496.2705	4277.5	3398.5
889.8759	1498.0785	4251.5	3369.45
890.019	1499.8858	4226.65	3345.3
890.1622	1501.6924	4223.85	3342.25
890.3053	1503.4981	4184.7	3301.8
890.4484	1505.3032	4184.2	3299.95
890.5914	1507.1075	4173	3291.7
890.7345	1508.911	4150.4	3266.1
890.8776	1510.7138	4124.95	3242.9
891.0206	1512.5159	4083.5	3199.5
891.1637	1514.3172	4059.8	3177.9
891.3067	1516.1178	4028.1	3148.1
891.4497	1517.9176	4009.95	3123.8
891.5927	1519.7166	3991.85	3112.25
891.7357	1521.515	3988	3099
891.8786	1523.3126	3968.85	3088
892.0216	1525.1094	3947.95	3062.95
892.1645	1526.9055	3933.65	3053.15
892.3074	1528.7008	3924.9	3041.95
892.4503	1530.4954	3889.2	3005.1
892.5932	1532.2893	3888.6	3009.3
892.7361	1534.0824	3877.4	2989.2
892.879	1535.8747	3870.7	2985.45
893.0218	1537.6663	3869.65	2987.9
893.1647	1539.4572	3852.65	2968.35
893.3075	1541.2473	3849.85	2966.3
893.4503	1543.0367	3845.85	2964.45
893.5931	1544.8253	3837.55	2950.65
893.7359	1546.6132	3844.45	2959.05
893.8787	1548.4003	3855.05	2962.25
894.0214	1550.1867	3883.75	2994
894.1642	1551.9723	3877.3	2991.9
894.3069	1553.7572	3889.6	3004.1
894.4496	1555.5414	3890.1	3007.05
894.5923	1557.3247	3938.75	3059
894.735	1559.1074	3971.1	3088.6
894.8777	1560.8893	4028.1	3147.45
895.0204	1562.6705	4077.75	3193.3
895.163	1564.4509	4136.1	3256
895.3056	1566.2305	4187.9	3305.95
895.4482	1568.0094	4276.45	3395.3
895.5908	1569.7876	4333	3449.45
895.7334	1571.565	4375.45	3491.6
895.876	1573.3417	4426.65	3544.65
896.0186	1575.1176	4425.7	3542.95
896.1611	1576.8928	4422.85	3539.5
896.3036	1578.6672	4338.35	3457.1
896.4461	1580.4409	4253	3370.15
896.5886	1582.2138	4147.95	3263.6
896.7311	1583.986	4047.3	3164.9
896.8736	1585.7575	3962.1	3081.65
897.0161	1587.5282	3900.7	3019.65
897.1585	1589.2981	3859.85	2978.65
897.3009	1591.0673	3833.95	2950.1
897.4433	1592.8358	3815.8	2934.05
897.5857	1594.6035	3806.3	2923.3
897.7281	1596.3704	3792.05	2909
897.8705	1598.1366	3809.4	2929
898.0128	1599.9021	3837.6	2955.25
898.1551	1601.6668	3861.8	2977
898.2975	1603.4308	3896.65	3013.85
898.4398	1605.194	3952.2	3064.7
898.5821	1606.9564	4022.95	3140.6
898.7243	1608.7182	4119.55	3235.4
898.8666	1610.4791	4215.9	3333.95
899.0088	1612.2394	4351.85	3471.7
899.1511	1613.9988	4521.6	3638.2
899.2933	1615.7576	4703.85	3822.7
899.4355	1617.5156	4915.35	4026.8
899.5776	1619.2728	5096.9	4215
899.7198	1621.0293	5254	4372.35
899.862	1622.785	5303.95	4419.55
900.0041	1624.54	5276.65	4389.7
900.1462	1626.2942	5146.75	4261.15
900.2883	1628.0477	4963.1	4077.65
900.4304	1629.8005	4743.65	3859.4
900.5725	1631.5525	4554.55	3673.05
900.7145	1633.3037	4381.45	3498.1
900.8566	1635.0542	4251.05	3370.95
900.9986	1636.804	4147.15	3265.65
901.1406	1638.553	4144.7	3193.3
901.2826	1640.3013	4042.9	3160.1
901.4245	1642.0488	4003.9	3120.45
901.5665	1643.7955	4008.7	3128.3
901.7085	1645.5416	4019.75	3137.2
901.8504	1647.2868	4068.4	3187.3
901.9923	1649.0313	4141.2	3258.55
902.1342	1650.7751	4255.9	3371.1
902.2761	1652.5181	4428.7	3549.4
902.4179	1654.2604	4625.3	3742.45
902.5598	1656.0019	4894.65	4013
902.7016	1657.7427	5187.95	4304
902.8434	1659.4828	5481.85	4600.3
902.9852	1661.222	5665.05	4782.75
903.127	1662.9606	5713.3	4832.15
903.2687	1664.6984	5554.85	4673
903.4105	1666.4354	5267.35	4384.2
903.5522	1668.1717	4879.8	3999.35
903.6939	1669.9072	4494.55	3613.95
903.8356	1671.642	4190.7	3307.35
903.9773	1673.3761	3949.75	3070.85
904.119	1675.1094	3744.4	2862.9
904.2606	1676.8419	3601.2	2718.05
904.4022	1678.5737	3514	2634.35
904.5439	1680.3048	3430.3	2547
904.6855	1682.0351	3370.1	2490.4
904.827	1683.7646	3332.7	2449.05
904.9686	1685.4934	3283.55	2403.25
905.1101	1687.2215	3251.4	2368.5
905.2517	1688.9488	3221.9	2340.2
905.3932	1690.6754	3194.25	2314.65
905.5347	1692.4012	3179.7	2299.65
905.6761	1694.1263	3160.6	2278.8
905.8176	1695.8506	3150.25	2269.25
905.9591	1697.5742	3132.75	2253.7
906.1005	1699.297	3098.3	2218.85
906.2419	1701.0191	3081	2200.2
906.3833	1702.7404	3076.2	2193.65
906.5246	1704.461	3057.4	2174.35
906.666	1706.1808	3051.05	2169.25
906.8073	1707.8999	3031.55	2148.55
906.9487	1709.6182	3019.5	2138
907.09	1711.3358	3010.4	2126.6
907.2313	1713.0527	2995.9	2117.15
907.3725	1714.7688	2988.6	2102.05
907.5138	1716.4841	2958.35	2076.5
907.655	1718.1987	2968.1	2082.8
907.7962	1719.9126	2948.25	2067
907.9374	1721.6257	2945.45	2059.95
908.0786	1723.338	2931.25	2047.7
908.2198	1725.0496	2916.45	2035.3
908.3609	1726.7605	2906.2	2024.15
908.502	1728.4706	2909.55	2025.7
908.6431	1730.18	2896.3	2012.6
908.7842	1731.8886	2884.3	2004.6
908.9253	1733.5964	2874.3	1988.6
909.0664	1735.3036	2877.25	1993.7
909.2074	1737.0099	2872.75	1993.4
909.3484	1738.7156	2853.05	1970.1
909.4894	1740.4204	2840.6	1955.6
909.6304	1742.1246	2832.55	1948.75
909.7714	1743.8279	2837	1956.7
909.9123	1745.5306	2835.1	1952.7
910.0532	1747.2325	2807.15	1925.4
910.1941	1748.9336	2810.05	1932.8
910.335	1750.634	2802.1	1919.35
910.4759	1752.3336	2811	1930.95
910.6168	1754.0325	2795.35	1912.8
910.7576	1755.7307	2777.75	1897.2
910.8984	1757.4281	2779.6	1898.1
911.0392	1759.1247	2786.2	1895.6
911.18	1760.8206	2774.75	1888.55
911.3208	1762.5158	2765.15	1879.9
911.4615	1764.2102	2760.4	1881.15
911.6022	1765.9039	2749.25	1868.8
911.7429	1767.5968	2752.6	1871.6
911.8836	1769.289	2739.35	1858.15
912.0243	1770.9804	2731.4	1847.9
912.1649	1772.6711	2737.1	1855.25
912.3056	1774.361	2729.8	1847.85
912.4462	1776.0502	2729.75	1848.15
912.5868	1777.7386	2718.95	1836.25
912.7274	1779.4263	2705.3	1823
912.8679	1781.1132	2707	1826.6
913.0084	1782.7994	2699.45	1816.05
913.149	1784.4849	2704.3	1820.9
913.2895	1786.1696	2710.5	1811.7
913.4299	1787.8535	2706.45	1826.7
913.5704	1789.5367	2675.95	1792.15
913.7108	1791.2192	2680	1798.25
913.8513	1792.9009	2689.4	1780.9
913.9917	1794.5818	2663.35	1780.5
914.132	1796.2621	2668.1	1789.65
914.2724	1797.9415	2661.85	1780.45
914.4128	1799.6202	2654.55	1773.1
914.5531	1801.2982	2656.7	1775.95
914.6934	1802.9755	2641.6	1761.1
914.8337	1804.6519	2646.25	1768.05
914.9739	1806.3277	2642.05	1759.8
915.1142	1808.0027	2621.35	1741.15
915.2544	1809.6769	2626	1747
915.3946	1811.3504	2611.5	1728.4
915.5348	1813.0231	2620.2	1739.25
915.675	1814.6951	2615.6	1734.1
915.8151	1816.3664	2618.9	1734.15
915.9553	1818.0369	2607.15	1726.4
916.0954	1819.7067	2607	1726.45
916.2355	1821.3757	2603.45	1720.4
916.3755	1823.044	2594.8	1714.25
916.5156	1824.7115	2584.5	1703.85
916.6556	1826.3783	2575.1	1695.25
916.7956	1828.0443	2577.65	1698.2
916.9356	1829.7096	2566.35	1684.1
917.0756	1831.3741	2578.3	1693.7
917.2155	1833.0379	2569.6	1690.45
917.3555	1834.701	2551	1668.3
917.4954	1836.3633	2558.75	1677.55
917.6353	1838.0248	2565.55	1684.65
917.7751	1839.6856	2547.45	1666.05
917.915	1841.3457	2546.55	1666.1
918.0548	1843.005	2544.35	1664.8
918.1946	1844.6636	2544	1662.2
918.3344	1846.3214	2556.25	1674.15
918.4742	1847.9785	2546.3	1666.15
918.6139	1849.6349	2536.1	1656.3
918.7537	1851.2904	2532.05	1642.6
918.8934	1852.9453	2530.1	1650.2
919.0331	1854.5994	2520.75	1636.9
919.1727	1856.2528	2527.85	1642.4
919.3124	1857.9054	2519.75	1636.95
919.452	1859.5572	2514.45	1634.65
919.5916	1861.2083	2517.05	1635.7
919.7312	1862.8587	2509.8	1629.7
919.8708	1864.5084	2501.8	1620.85
920.0103	1866.1572	2491.2	1611.45
920.1498	1867.8054	2485.5	1605.75
920.2893	1869.4528	2486.3	1605.55
920.4288	1871.0994	2490.1	1609.7
920.5683	1872.7453	2484.75	1604.1
920.7077	1874.3905	2469.35	1580.4
920.8471	1876.0349	2451.25	1570.65
920.9865	1877.6786	2465.45	1582.95
921.1259	1879.3215	2453.05	1571.95
921.2653	1880.9637	2451.65	1569.05
921.4046	1882.6051	2455.85	1573.55
921.5439	1884.2458	2454.55	1570.35
921.6832	1885.8858	2447.25	1566.65
921.8225	1887.525	2442.3	1559.45
921.9617	1889.1634	2426.75	1547.3
922.101	1890.8011	2418.5	1538.3
922.2402	1892.4381	2420.55	1540.8
922.3794	1894.0743	2429	1548.95
922.5185	1895.7098	2413.7	1533.25
922.6577	1897.3446	2415.4	1534.55
922.7968	1898.9786	2410	1523.75
922.9359	1900.6118	2405.8	1525.75
923.075	1902.2443	2402.3	1517.05
923.214	1903.8761	2391	1510.7
923.3531	1905.5071	2382.55	1500.3
923.4921	1907.1374	2388.15	1507.2
923.6311	1908.7669	2385.6	1506.15
923.77	1910.3957	2381.7	1502.25
923.909	1912.0237	2363.85	1483.6
924.0479	1913.651	2359.35	1478.7
924.1868	1915.2776	2361.7	1481.35
924.3257	1916.9034	2364.5	1483.95
924.4646	1918.5285	2347.55	1466.25
924.6034	1920.1528	2342.1	1461.2
924.7422	1921.7764	2345.45	1466.7
924.881	1923.3992	2340.15	1460.95
925.0198	1925.0213	2329.1	1449.75
925.1586	1926.6427	2322.45	1441.95
925.2973	1928.2633	2526.95	1418.05
925.436	1929.8832	2335.05	1451.15
925.5747	1931.5023	2318.2	1437.6
925.7134	1933.1207	2307.9	1427.9
925.852	1934.7383	2308.65	1425.55
925.9906	1936.3552	2298.75	1419.05
926.1292	1937.9714	2292.35	1409.8
926.2678	1939.5868	2292.65	1411.85
926.4064	1941.2015	2286.45	1404.2
926.5449	1942.8154	2282.85	1403.5
926.6834	1944.4286	2271.95	1391.15
926.8219	1946.041	2284.95	1380.2
926.9604	1947.6528	2270.65	1385.55
927.0988	1949.2637	2247.05	1368.6
927.2372	1950.8739	2244.55	1363.4
927.3756	1952.4834	2247.6	1368.05
927.514	1954.0921	2240.9	1357.85
927.6523	1955.7001	2244.2	1357.75
927.7907	1957.3074	2240.2	1359.3
927.929	1958.9139	2222.85	1344.2
928.0673	1960.5197	2222.45	1339.45
928.2055	1962.1247	2216.15	1335.5
928.3438	1963.729	2209.15	1331
928.482	1965.3325	2225.5	1319.1
928.6202	1966.9353	2200.75	1319.95
928.7584	1968.5374	2188.9	1307.3
928.8965	1970.1387	2178.15	1298.35
929.0346	1971.7393	2187.05	1306.75
929.1727	1973.3392	2184.15	1300.25
929.3108	1974.9383	2173.9	1294.35
929.4489	1976.5366	2185.35	1306.2
929.5869	1978.1342	2163.95	1283.3
929.7249	1979.7311	2167.4	1285.5
929.8629	1981.3273	2170.95	1288.95
930.0009	1982.9227	2167	1283.25
930.1388	1984.5173	2156	1275.55
930.2767	1986.1112	2147	1267.45
930.4146	1987.7044	2141.35	1260.05
930.5525	1989.2968	2148.95	1265.4
930.6904	1990.8885	2139.85	1255.4
930.8282	1992.4795	2137.8	1255.3
930.966	1994.0697	2137.45	1258.9
931.1038	1995.6592	2124.75	1242.4
931.2415	1997.2479	2125.4	1244.3
931.3793	1998.8359	2129.9	1250.15
931.517	2000.4232	2106.5	1225.85
931.6547	2002.0097	2113.8	1235.2
931.7923	2003.5955	2105.75	1223.15
931.93	2005.1805	2102.4	1220.1
932.0676	2006.7648	2105.2	1224.6
932.2052	2008.3484	2104.65	1221.1
932.3427	2009.9312	2100.2	1217.05
932.4803	2011.5133	2104	1223.35
932.6178	2013.0946	2089.9	1208.4
932.7553	2014.6752	2090.85	1212.15
932.8928	2016.2551	2093.95	1213.6
933.0302	2017.8342	2085.85	1203.9
933.1676	2019.4126	2077.35	1197.15
933.305	2020.9902	2070.3	1189.7
933.4424	2022.5672	2073.05	1192
933.5798	2024.1433	2087.1	1197.8
933.7171	2025.7188	2060.15	1179.8
933.8544	2027.2935	2057.15	1174.2
933.9917	2028.8674	2054.7	1175.8
934.129	2030.4406	2059.15	1179.45
934.2662	2032.0131	2042.4	1163
934.4034	2033.5849	2055.65	1172.35
934.5406	2035.1559	2046.9	1167.3
934.6778	2036.7261	2043.7	1165.45
934.8149	2038.2957	2031.7	1152.2
934.952	2039.8645	2037.45	1158.7
935.0891	2041.4325	2035.4	1150.25
935.2262	2042.9998	2027.85	1148.2
935.3632	2044.5664	2029.55	1147.3
935.5002	2046.1323	2024.3	1144.65
935.6372	2047.6974	2016.15	1134.6
935.7742	2049.2617	2005.2	1124.35
935.9111	2050.8254	2032.65	1130.5
936.048	2052.3883	2015.5	1133.15
936.1849	2053.9504	2007.1	1126.8
936.3218	2055.5118	2004.85	1120.55
936.4586	2057.0725	1995.1	1109.7
936.5955	2058.6325	2005.25	1125.15
936.7323	2060.1917	1986.95	1104.9
936.869	2061.7502	1989.55	1104.55
937.0058	2063.3079	1979.75	1099.7
937.1425	2064.8649	1972.65	1089.35
937.2792	2066.4212	1994.1	1111.6
937.4159	2067.9767	1977.7	1096.2
937.5525	2069.5315	1974.2	1094.45
937.6891	2071.0856	1980.55	1097.7
937.8257	2072.6389	1968.2	1084.8
937.9623	2074.1915	1956.8	1077.75
938.0989	2075.7433	1959	1076.15
938.2354	2077.2945	1941.15	1060.3
938.3719	2078.8448	1946.8	1064.55
938.5084	2080.3945	1952.6	1071.5
938.6448	2081.9434	1945.55	1065
938.7812	2083.4916	1938.05	1057.7
938.9176	2085.039	1938.05	1054.6
939.054	2086.5857	1931.35	1050.3
939.1903	2088.1317	1934.15	1054.65
939.3267	2089.677	1924.95	1043.7
939.463	2091.2215	1924.45	1042.3
939.5992	2092.7652	1920.2	1036.8
939.7355	2094.3083	1921.4	1040.4
939.8717	2095.8506	1918.5	1039.6
940.0079	2097.3921	1923.8	1042.9
940.1441	2098.933	1917.85	1036.75
940.2802	2100.4731	1910.65	1031.65
940.4163	2102.0124	1916.85	1028.7
940.5524	2103.5511	1919.65	1039.6
940.6885	2105.089	1904.3	1022.85
940.8245	2106.6261	1902.9	1020.95
940.9606	2108.1626	1895.25	1012.5
941.0965	2109.6983	1926.6	1018.8
941.2325	2111.2332	1905.45	1022.8
941.3684	2112.7675	1895.7	1011.9
941.5044	2114.301	1879.35	997.25
941.6403	2115.8337	1890.95	1010.2
941.7761	2117.3657	1880.6	1000.15
941.912	2118.897	1888.7	1009.3
942.0478	2120.4276	1876.55	990.75
942.1835	2121.9575	1874.9	991.6
942.3193	2123.4866	1890.1	993.05
942.455	2125.0149	1882.1	997.6
942.5907	2126.5426	1867.25	984.5
942.7264	2128.0695	1869.7	983.45
942.8621	2129.5956	1857.45	978.55
942.9977	2131.1211	1851.15	966.55
943.1333	2132.6458	1847.6	967
943.2689	2134.1698	1854.75	971.75
943.4044	2135.693	1859.2	974
943.54	2137.2155	1848.7	967.4
943.6755	2138.7373	1847.95	966.45
943.8109	2140.2584	1841.7	961.2
943.9464	2141.7787	1850.25	961.8
944.0818	2143.2983	1832.15	951.85
944.2172	2144.8171	1836.9	958.5
944.3526	2146.3353	1841.5	957.35
944.4879	2147.8527	1830.15	946.5
944.6232	2149.3693	1832.45	950.85
944.7585	2150.8853	1827.6	946.9
944.8938	2152.4005	1823.7	941.9
945.029	2153.9149	1822.3	940.25
945.1642	2155.4287	1821.7	940.65
945.2994	2156.9417	1814.55	933
945.4346	2158.454	1810.35	924.6
945.5697	2159.9655	1814.1	933
945.7048	2161.4764	1803.9	922.2
945.8399	2162.9865	1803.85	922.3
945.9749	2164.4958	1801.4	918.5
946.1099	2166.0045	1805.1	919.45
946.2449	2167.5124	1805.8	925.2
946.3799	2169.0195	1797.25	915.95
946.5148	2170.526	1796.5	913.15
946.6498	2172.0317	1796.6	916.55
946.7846	2173.5367	1792.2	911.75
946.9195	2175.0409	1792.3	912.65
947.0543	2176.5445	1792.85	911.95
947.1891	2178.0473	1783.3	901.3
947.3239	2179.5494	1794.55	907.9
947.4587	2181.0507	1781.25	899.95
947.5934	2182.5513	1781.7	902
947.7281	2184.0512	1776.9	896.05
947.8628	2185.5504	1773.8	892.3
947.9974	2187.0488	1762.95	881.45
948.132	2188.5465	1767.5	886.65
948.2666	2190.0435	1762.35	881.55
948.4012	2191.5397	1759.55	878.25
948.5357	2193.0353	1765.55	885.5
948.6702	2194.5301	1755.4	873.35
948.8047	2196.0241	1755.4	873.25
948.9392	2197.5175	1748.6	867.4
949.0736	2199.0101	1753.95	869.8
949.208	2200.502	1736.65	855.95
949.3424	2201.9931	1731.4	850.4
949.4767	2203.4835	1730.7	845.2
949.611	2204.9733	1740.5	852.3
949.7453	2206.4622	1738.55	855.6
949.8796	2207.9505	1720.95	836.85
950.0138	2209.438	1725.35	845.15
950.148	2210.9248	1728.65	846.55
950.2822	2212.4109	1724.5	843.85
950.4164	2213.8962	1720.65	836.65
950.5505	2215.3809	1712.9	830.5
950.6846	2216.8648	1723.25	841.55
950.8186	2218.3479	1726.2	841.9
950.9527	2219.8304	1711.4	828.25
951.0867	2221.3121	1704.3	822.25
951.2207	2222.7931	1691.65	812.6
951.3546	2224.2733	1699.25	817.55
951.4886	2225.7529	1704.85	822.5
951.6225	2227.2317	1703.1	818.15
951.7563	2228.7098	1693.15	813.45
951.8902	2230.1872	1692.65	811.65
952.024	2231.6638	1690.25	808.8
952.1578	2233.1397	1690.2	802.75
952.2916	2234.6149	1685.85	805.8
952.4253	2236.0894	1681.95	798.7
952.559	2237.5632	1688.55	797.35
952.6927	2239.0362	1677.3	794.45
952.8263	2240.5085	1667.6	784.75
952.9599	2241.9801	1661.95	777.45
953.0935	2243.4509	1664	784.7
953.2271	2244.921	1663.3	783.5
953.3606	2246.3904	1659.6	778.15
953.4941	2247.8591	1654	775.5
953.6276	2249.3271	1656.85	774.05
953.7611	2250.7943	1644.85	766.15
953.8945	2252.2608	1648.85	767.9
954.0279	2253.7266	1645.7	765.6
954.1612	2255.1917	1646.35	764.2
954.2946	2256.656	1637.85	755.55
954.4279	2258.1197	1638.65	759.15
954.5612	2259.5826	1635.35	751.2
954.6944	2261.0447	1637.8	758.15
954.8276	2262.5062	1637.65	754.6
954.9608	2263.9669	1629.1	746.1
955.094	2265.4269	1633.95	753.95
955.2271	2266.8862	1634	753.45
955.3602	2268.3448	1632.65	751
955.4933	2269.8026	1618.4	735.45
955.6264	2271.2598	1624	741.8
955.7594	2272.7162	1624.05	743.95
955.8924	2274.1719	1618.35	735.7
956.0253	2275.6268	1631.8	749.85
956.1583	2277.0811	1623.9	741.65
956.2912	2278.5346	1616.35	737.2
956.4241	2279.9874	1612.65	730.55
956.5569	2281.4395	1612.9	733.1
956.6897	2282.8908	1615.2	727.6
956.8225	2284.3414	1607.9	724.15
956.9553	2285.7914	1613.3	733.15
957.088	2287.2406	1612.45	729.2
957.2207	2288.689	1604	723
957.3534	2290.1368	1596.95	715.65
957.486	2291.5838	1599.55	717.15
957.6186	2293.0302	1593.8	709.85
957.7512	2294.4758	1593.55	712.85
957.8838	2295.9206	1583.7	700.45
958.0163	2297.3648	1589.15	708.85
958.1488	2298.8082	1585.85	704.3
958.2813	2300.251	1587.85	706.8
958.4137	2301.693	1588.3	704.55
958.5461	2303.1343	1581.75	699.85
958.6785	2304.5748	1584	703.6
958.8108	2306.0147	1581.75	700.7
958.9432	2307.4538	1584.6	698.05
959.0754	2308.8922	1576.05	696.9
959.2077	2310.3299	1572.75	691.2
959.3399	2311.7669	1563.05	681.55
959.4721	2313.2031	1574.6	691.95
959.6043	2314.6387	1564.7	682.05
959.7365	2316.0735	1556.4	674.9
959.8686	2317.5076	1563.05	682
960.0006	2318.941	1558.6	677.05
960.1327	2320.3737	1548.65	669.05
960.2647	2321.8056	1554.25	672.15
960.3967	2323.2369	1552	668.9
960.5287	2324.6674	1555.9	670.65
960.6606	2326.0972	1551.85	668
960.7925	2327.5263	1547.15	667.05
960.9244	2328.9547	1545.35	662.35
961.0562	2330.3823	1545.1	662.15
961.1881	2331.8092	1544.8	659.65
961.3198	2333.2355	1537.6	658.65
961.4516	2334.661	1542.65	659.4
961.5833	2336.0858	1540.15	657.7
961.715	2337.5098	1532.2	650.15
961.8467	2338.9332	1536.5	653.9
961.9783	2340.3558	1539.25	654.7
962.1099	2341.7778	1529.3	647.65
962.2415	2343.199	1531.8	647.25
962.373	2344.6195	1536.7	655.85
962.5045	2346.0393	1532.65	653.45
962.636	2347.4583	1529	645.65
962.7675	2348.8767	1533.45	652
962.8989	2350.2943	1522.6	640.65
963.0303	2351.7113	1522.35	638.9
963.1617	2353.1275	1510.3	630.3
963.293	2354.543	1541.6	636.8
963.4243	2355.9578	1515.5	634.6
963.5556	2357.3718	1512.25	631
963.6868	2358.7852	1514.15	631.9
963.818	2360.1978	1512.2	631.6
963.9492	2361.6098	1512.05	629.8
964.0803	2363.021	1508.3	623.6
964.2114	2364.4315	1511	630.25
964.3425	2365.8413	1514	630.55
964.4736	2367.2504	1499.35	619.65
964.6046	2368.6587	1503.25	622.4
964.7356	2370.0664	1497.65	617.9
964.8666	2371.4733	1503.85	623.65
964.9975	2372.8795	1489.05	607.45
965.1284	2374.285	1496.2	616.35
965.2593	2375.6899	1479.85	597.55
965.3901	2377.0939	1485.3	605.25
965.5209	2378.4973	1484.75	606.1
965.6517	2379.9	1485.7	603.95
965.7825	2381.3019	1482	602.2
965.9132	2382.7032	1483.25	601.7
966.0439	2384.1037	1478.25	599.05
966.1745	2385.5035	1479.75	600.45
966.3051	2386.9027	1478.85	598.45
966.4357	2388.3011	1481.25	595.7
966.5663	2389.6987	1473.7	593.25
966.6968	2391.0957	1470.2	588.75
966.8273	2392.492	1457.8	578.8
966.9578	2393.8876	1466.45	584.4
967.0882	2395.2824	1462.05	581.85
967.2186	2396.6765	1456.1	576.7
967.349	2398.07	1454.2	575.6
967.4793	2399.4627	1458.65	575.6
967.6097	2400.8547	1451.4	571.8
967.7399	2402.246	1457.7	571.85
967.8702	2403.6366	1445.4	565.3
968.0004	2405.0265	1447.95	568.05
968.1306	2406.4156	1446.85	562.95
968.2607	2407.8041	1448.85	564.2
968.3909	2409.1918	1448.5	566.75
968.521	2410.5789	1443.95	563.7
968.651	2411.9652	1437.05	551.75
968.781	2413.3508	1441.15	560.8
968.911	2414.7358	1439.95	557.25
969.041	2416.12	1437.1	558.15
969.1709	2417.5035	1426.5	547.7
969.3008	2418.8863	1430.75	547.9
969.4307	2420.2684	1435.35	555.25
969.5606	2421.6497	1433.65	551.05
969.6904	2423.0304	1435.05	556.8
969.8201	2424.4104	1432.6	550.3
969.9499	2425.7896	1426.35	539.35
970.0796	2427.1682	1421.1	539.8
970.2093	2428.546	1427.9	546.8
970.3389	2429.9232	1417	535.7
970.4685	2431.2996	1426.55	546.1
970.5981	2432.6753	1418.6	537.95
970.7277	2434.0503	1420	540
970.8572	2435.4246	1410.55	530.65
970.9867	2436.7982	1413.4	532.25
971.1161	2438.1711	1416.4	537.1
971.2456	2439.5433	1413.4	530.8
971.375	2440.9148	1413.45	527.85
971.5043	2442.2856	1405.7	526.25
971.6336	2443.6557	1405.35	524.7
971.7629	2445.025	1404.4	523.75
971.8922	2446.3937	1400.95	519.2
972.0214	2447.7617	1397.6	515.35
972.1506	2449.1289	1402.3	520.8
972.2798	2450.4955	1394.85	512.05
972.4089	2451.8613	1396.8	517.8
972.538	2453.2265	1401.55	520.35
972.6671	2454.5909	1399.25	521.4
972.7961	2455.9546	1390.9	510.45
972.9251	2457.3177	1391.35	510.45
973.0541	2458.68	1384.4	502.05
973.1831	2460.0416	1389.35	509.15
973.312	2461.4025	1390.6	507.6
973.4408	2462.7627	1405.85	513
973.5697	2464.1222	1387.5	508.35
973.6985	2465.4811	1386.2	504.2
973.8273	2466.8392	1384.8	503.2
973.956	2468.1966	1389.2	505
974.0847	2469.5533	1391.8	508.75
974.2134	2470.9093	1381.9	500.95
974.3421	2472.2645	1393.35	510.5
974.4707	2473.6191	1385.75	503.65
974.5993	2474.973	1382.8	500.65
974.7278	2476.3262	1380.65	499.8
974.8563	2477.6787	1372.65	491.45
974.9848	2479.0305	1378.55	498.65
975.1132	2480.3816	1382.55	500
975.2417	2481.7319	1374.75	493.25
975.37	2483.0816	1371.85	487.95
975.4984	2484.4306	1373.35	492.2
975.6267	2485.7789	1366.35	485.4
975.755	2487.1264	1375.45	492.45
975.8833	2488.4733	1359.65	480
976.0115	2489.8195	1387.05	490
976.1397	2491.165	1366.45	483.25
976.2678	2492.5097	1360.7	478.05
976.3959	2493.8538	1358.7	477.45
976.524	2495.1972	1358.1	476.5
976.6521	2496.5398	1356.7	474.15
976.7801	2497.8818	1365.3	482.55
976.9081	2499.2231	1357	475.9
977.036	2500.5637	1352.35	468.55
977.164	2501.9035	1344.6	463.8
977.2918	2503.2427	1358.7	474.6
977.4197	2504.5812	1351.35	472
977.5475	2505.919	1355.15	472.8
977.6753	2507.256	1352.8	472.95
977.8031	2508.5924	1346.45	465.65
977.9308	2509.9281	1361.25	472
978.0585	2511.2631	1343.4	461.5
978.1861	2512.5974	1346.2	465.45
978.3137	2513.9309	1340.1	457.75
978.4413	2515.2638	1369.4	460.95
978.5689	2516.596	1340.45	460.9
978.6964	2517.9275	1347.2	465.9
978.8239	2519.2583	1333.15	452.95
978.9513	2520.5884	1337.35	453.35
979.0788	2521.9178	1334.45	453.5
979.2062	2523.2465	1335.75	455.3
979.3335	2524.5745	1336.9	454.45
979.4608	2525.9018	1333.35	451.45
979.5881	2527.2284	1333.4	450.75
979.7154	2528.5543	1330.9	451.75
979.8426	2529.8796	1334.85	453.55
979.9698	2531.2041	1332.55	450.8
980.0969	2532.5279	1329	448.75
980.224	2533.851	1324.9	442.85
980.3511	2535.1735	1326.4	444.4
980.4781	2536.4952	1320.75	440.55
980.6052	2537.8163	1321.7	439.85
980.7321	2539.1366	1317.6	438.45
980.8591	2540.4562	1320.4	437.6
980.986	2541.7752	1319.1	437
981.1129	2543.0935	1314.75	434.1
981.2397	2544.411	1320	437.3
981.3665	2545.7279	1311.45	431.8
981.4933	2547.0441	1314.35	434.7
981.62	2548.3596	1315.5	432.1
981.7467	2549.6744	1316.25	437
981.8734	2550.9885	1314.65	423.7
982.0001	2552.3019	1311.75	432.7
982.1267	2553.6146	1306.65	423.75
982.2532	2554.9266	1308.9	430.25
982.3798	2556.2379	1307.65	425.9
982.5063	2557.5485	1300.9	421.85
982.6327	2558.8585	1308.35	420.15
982.7592	2560.1677	1313.65	430.45
982.8856	2561.4762	1304.05	421.35
983.0119	2562.7841	1299.6	414.95
983.1383	2564.0913	1298.45	419.3
983.2646	2565.3977	1306.35	425.65
983.3908	2566.7035	1297.7	415.45
983.517	2568.0086	1299	416.85
983.6432	2569.313	1299.55	416.9
983.7694	2570.6167	1297.3	413.35
983.8955	2571.9197	1297.65	418.65
984.0216	2573.222	1299.85	414.3
984.1476	2574.5236	1298.6	417
984.2737	2575.8246	1291.7	409.2
984.3996	2577.1248	1294.6	411.85
984.5256	2578.4244	1296.05	414
984.6515	2579.7232	1295.3	413
984.7774	2581.0214	1329.55	417.8
984.9032	2582.3189	1294.4	413.25
985.029	2583.6157	1300.6	414.35
985.1548	2584.9118	1301.75	419.9
985.2806	2586.2072	1298.05	417.25
985.4063	2587.5019	1294.35	414.4
985.5319	2588.7959	1299.75	418.9
985.6576	2590.0893	1303	420.9
985.7832	2591.3819	1305.95	427.45
985.9087	2592.6739	1300.5	420.7
986.0343	2593.9652	1305.3	424.1
986.1597	2595.2557	1308.1	426.4
986.2852	2596.5456	1308.55	424.3
986.4106	2597.8348	1310.8	430.15
986.536	2599.1234	1303.4	422.3
986.6614	2600.4112	1303.7	422.15
986.7867	2601.6983	1300.7	417.5
986.912	2602.9848	1316.8	433.35
987.0372	2604.2705	1309.3	420
987.1624	2605.5556	1307.7	426.6
987.2876	2606.84	1304.5	423.75
987.4128	2608.1237	1306.95	424.9
987.5379	2609.4067	1304.15	423.4
987.6629	2610.689	1315.95	426.3
987.788	2611.9707	1310.6	425.4
987.913	2613.2516	1305.3	419.35
988.0379	2614.5319	1296.9	415.25
988.1629	2615.8115	1300.65	419.4
988.2878	2617.0903	1296.8	414.35
988.4126	2618.3685	1298.35	417.3
988.5375	2619.6461	1293.2	412.15
988.6622	2620.9229	1296.9	416.9
988.787	2622.199	1298.85	416.6
988.9117	2623.4745	1304.2	424.3
989.0364	2624.7493	1299.7	417
989.161	2626.0234	1289.4	409
989.2857	2627.2968	1296.35	413.65
989.4102	2628.5695	1294.85	412.6
989.5348	2629.8415	1296	415.4
989.6593	2631.1128	1291.45	410
989.7837	2632.3835	1299.35	419.15
989.9082	2633.6535	1297.55	415.9
990.0326	2634.9228	1295.6	414.95
990.1569	2636.1914	1299.2	417.35
990.2812	2637.4593	1297	414.7
990.4055	2638.7265	1298.95	415.7
990.5298	2639.9931	1299	418.3
990.654	2641.259	1290.5	408.95
990.7782	2642.5242	1289.9	407.85
990.9023	2643.7887	1286.1	405.05
991.0264	2645.0525	1283.4	403.85
991.1505	2646.3156	1289.7	406.8
991.2745	2647.5781	1282.5	401.95
991.3985	2648.8398	1287.45	408
991.5225	2650.1009	1287.95	400.05
991.6464	2651.3613	1277.5	396.45
991.7703	2652.6211	1282.9	401.1
991.8942	2653.8801	1279.05	398.85
992.018	2655.1385	1280.4	395.15
992.1418	2656.3961	1280.8	399.15
992.2655	2657.6531	1273	392.2
992.3892	2658.9094	1276.5	394.95
992.5129	2660.1651	1283.1	402.05
992.6366	2661.42	1287.25	407.05
992.7602	2662.6743	1285.9	401.65
992.8837	2663.9279	1286.15	403.95
993.0073	2665.1808	1287.75	403.35
993.1307	2666.433	1282.1	399
993.2542	2667.6846	1281.55	402.5
993.3776	2668.9354	1294.65	409.8
993.501	2670.1856	1290.9	409.15
993.6244	2671.4351	1295.15	414.6
993.7477	2672.6839	1296.6	413.2
993.8709	2673.9321	1297.6	418.3
993.9942	2675.1795	1303.15	421.05
994.1174	2676.4263	1303.75	422.7
994.2405	2677.6724	1300.35	419.7
994.3637	2678.9179	1297.9	417.45
994.4868	2680.1626	1310.7	431.1
994.6098	2681.4067	1304.75	424.05
994.7328	2682.6501	1306.85	424.5
994.8558	2683.8928	1302.3	419.4
994.9788	2685.1348	1301.6	420.6
995.1017	2686.3761	1291.45	408.5
995.2245	2687.6168	1296.9	415.15
995.3474	2688.8568	1296.7	417.05
995.4702	2690.0961	1284.9	407.7
995.5929	2691.3348	1290.7	408.5
995.7156	2692.5727	1284.2	403.05
995.8383	2693.81	1284.65	404.2
995.961	2695.0466	1283.15	404.05
996.0836	2696.2826	1281.55	399.8
996.2062	2697.5178	1289.2	403.8
996.3287	2698.7524	1282.4	401.25
996.4512	2699.9863	1286.85	403.25
996.5737	2701.2195	1287.1	406.55
996.6961	2702.452	1291.4	408.6
996.8185	2703.6839	1292.95	408.85
996.9408	2704.9151	1295.9	416.95
997.0631	2706.1456	1305.8	425.35
997.1854	2707.3755	1312.7	428.25
997.3077	2708.6046	1317.9	434.5
997.4299	2709.8331	1324.1	443.1
997.552	2711.0609	1324.75	443.15
997.6742	2712.2881	1328.9	446.35
997.7963	2713.5145	1340.35	455.55
997.9183	2714.7403	1345.35	467.6
998.0403	2715.9654	1353.7	471.45
998.1623	2717.1899	1387.6	494.25
998.2842	2718.4136	1378.35	496.75
998.4062	2719.6367	1391.2	510.85
998.528	2720.8591	1400.1	510.6
998.6498	2722.0809	1411.25	529.15
998.7716	2723.3019	1419.3	533.6
998.8934	2724.5223	1419.45	536.6
999.0151	2725.7421	1418.6	536.75
999.1368	2726.9611	1426.75	543.45
999.2584	2728.1795	1426.85	540.75
999.38	2729.3972	1425.55	545.05
999.5016	2730.6142	1426.8	532.3
999.6231	2731.8306	1395.15	511.85
999.7446	2733.0462	1386.6	502.6
999.8661	2734.2612	1379.7	492.3
999.9875	2735.4756	1353.3	468.85
1000.1089	2736.6892	1346.4	464.75
1000.2302	2737.9022	1332.8	452.25
1000.3515	2739.1145	1321.6	440.75
1000.4728	2740.3262	1321.65	432.9
1000.594	2741.5372	1307.2	424.75
1000.7152	2742.7475	1287.5	403.7
1000.8363	2743.9571	1284.7	400.3
1000.9575	2745.1661	1278.3	391.1
1001.0785	2746.3744	1280.85	397.55
1001.1996	2747.582	1263.75	383.95
1001.3206	2748.7889	1258.2	375.55
1001.4415	2749.9952	1252.35	372.15
1001.5625	2751.2008	1251.45	369.65
1001.6833	2752.4057	1250.5	366.45
1001.8042	2753.61	1246.1	363.7
1001.925	2754.8136	1247.85	364.65
1002.0458	2756.0165	1249.8	368.25
1002.1665	2757.2188	1239.3	360.1
1002.2872	2758.4204	1244.4	362.2
1002.4078	2759.6213	1243.6	359.7
1002.5285	2760.8215	1250.65	362.9
1002.649	2762.0211	1242.95	359.65
1002.7696	2763.22	1241.05	355.75
1002.8901	2764.4182	1245.05	359.8
1003.0106	2765.6158	1232.7	352.05
1003.131	2766.8127	1232	350.8
1003.2514	2768.009	1233.7	352.55
1003.3717	2769.2045	1230.1	347.9
1003.492	2770.3994	1233.85	350.3
1003.6123	2771.5936	1226.05	343.7
1003.7325	2772.7872	1231.6	350.7
1003.8527	2773.9801	1221.8	339.25
1003.9729	2775.1723	1239.1	340.8
1004.093	2776.3639	1220.55	340.75
1004.2131	2777.5548	1227	344.25
1004.3331	2778.745	1228.7	345.7
1004.4531	2779.9346	1227.1	344.35
1004.5731	2781.1235	1234.85	352.55
1004.693	2782.3117	1235.05	353.75
1004.8129	2783.4992	1235.35	351.05
1004.9328	2784.6861	1246.55	364.1
1005.0526	2785.8723	1241.7	359.9
1005.1723	2787.0579	1259.25	377.4
1005.2921	2788.2428	1262.25	380.15
1005.4118	2789.427	1273.75	391.75
1005.5314	2790.6106	1279.75	397.85
1005.651	2791.7935	1288.45	406.1
1005.7706	2792.9757	1301.1	421.5
1005.8902	2794.1573	1312.65	428.95
1006.0097	2795.3382	1326.9	445.15
1006.1291	2796.5184	1337.15	456.45
1006.2485	2797.698	1352.55	470.95
1006.3679	2798.8769	1372.25	491.8
1006.4873	2800.0551	1379	497.95
1006.6066	2801.2327	1397.35	511.1
1006.7258	2802.4096	1405.4	524.95
1006.8451	2803.5859	1431.25	549.8
1006.9642	2804.7615	1451.05	569.8
1007.0834	2805.9364	1469.4	590.4
1007.2025	2807.1106	1485.7	603.75
1007.3216	2808.2842	1523.05	640.3
1007.4406	2809.4572	1554.4	672.55
1007.5596	2810.6294	1576.75	693.9
1007.6785	2811.801	1607.3	727.65
1007.7975	2812.972	1651.8	770.95
1007.9163	2814.1423	1687.3	804.85
1008.0352	2815.3119	1720.9	838.45
1008.154	2816.4808	1775.75	897.2
1008.2727	2817.6491	1816.75	933.15
1008.3914	2818.8167	1847.2	968.8
1008.5101	2819.9837	1899.9	1013.75
1008.6288	2821.15	1931.75	1051.55
1008.7474	2822.3157	1970.95	1090.3
1008.8659	2823.4807	2009.2	1128.05
1008.9844	2824.645	2046.55	1164.4
1009.1029	2825.8086	2079.6	1199.95
1009.2214	2826.9716	2108.85	1227.6
1009.3398	2828.134	2151.4	1269.65
1009.4581	2829.2957	2182.65	1300.45
1009.5764	2830.4567	2194.7	1312.95
1009.6947	2831.617	2214.75	1334.75
1009.813	2832.7767	2215.45	1335.35
1009.9312	2833.9358	2223.75	1343.3
1010.0493	2835.0941	2217.6	1335.45
1010.1675	2836.2519	2210.45	1331.35
1010.2855	2837.4089	2194.5	1312.6
1010.4036	2838.5653	2187.9	1306.2
1010.5216	2839.7211	2194.45	1315.15
1010.6396	2840.8761	2198.65	1314.45
1010.7575	2842.0306	2214.7	1335.35
1010.8754	2843.1843	2242.15	1360.1
1010.9932	2844.3374	2284.25	1403.15
1011.111	2845.4899	2342.85	1463.1
1011.2288	2846.6417	2400.05	1518.6
1011.3465	2847.7928	2476	1596.1
1011.4642	2848.9433	2538.3	1657.1
1011.5818	2850.0931	2609.9	1729.15
1011.6995	2851.2422	2670.6	1787.8
1011.817	2852.3907	2722.75	1841.9
1011.9345	2853.5385	2793.65	1909.8
1012.052	2854.6857	2860.05	1950
1012.1695	2855.8323	2890.05	2010.75
1012.2869	2856.9781	2922.6	2040.75
1012.4042	2858.1233	2965.55	2084.6
1012.5216	2859.2679	3014.6	2133.95
1012.6389	2860.4118	3047.15	2165.65
1012.7561	2861.555	3075.4	2191.35
1012.8733	2862.6976	3118.5	2235.65
1012.9905	2863.8395	3128.25	2247.95
1013.1076	2864.9808	3158.6	2277.6
1013.2247	2866.1214	3169.75	2289.1
1013.3417	2867.2614	3187	2305.15
1013.4587	2868.4007	3183.1	2300.2
1013.5757	2869.5393	3211.25	2329.05
1013.6926	2870.6773	3214.5	2330.55
1013.8095	2871.8146	3220.4	2334.55
1013.9263	2872.9513	3240.25	2355.65
1014.0431	2874.0874	3223.65	2343.5
1014.1599	2875.2227	3233.55	2353.2
1014.2766	2876.3574	3215.4	2334.1
1014.3933	2877.4915	3183.75	2304.8
1014.51	2878.6249	3154.4	2275.2
1014.6266	2879.7577	3139.5	2258.7
1014.7431	2880.8898	3129.8	2237.8
1014.8596	2882.0212	3115.9	2234.3
1014.9761	2883.152	3109.65	2228.25
1015.0925	2884.2821	3095.3	2214.95
1015.2089	2885.4116	3086.6	2206.3
1015.3253	2886.5405	3092.7	2214.1
1015.4416	2887.6686	3106.1	2220.95
1015.5579	2888.7962	3097.6	2218.85
1015.6741	2889.923	3115.65	2236.95
1015.7903	2891.0493	3116.15	2235.7
1015.9065	2892.1748	3129.6	2249.25
1016.0226	2893.2997	3133.05	2251.2
1016.1387	2894.424	3160.15	2280.7
1016.2547	2895.5476	3175.6	2291.55
1016.3707	2896.6706	3181.25	2301.45
1016.4866	2897.7929	3209.15	2328.2
1016.6025	2898.9145	3232.95	2353.85
1016.7184	2900.0355	3268.95	2386.5
1016.8342	2901.1559	3313.3	2431.95
1016.95	2902.2756	3330.6	2449.05
1017.0658	2903.3946	3344.4	2464
1017.1815	2904.513	3378.15	2493.35
1017.2971	2905.6308	3388.1	2506.7
1017.4127	2906.7479	3421.35	2538.7
1017.5283	2907.8643	3453.35	2571.65
1017.6439	2908.9801	3459.75	2580.15
1017.7594	2910.0953	3464.3	2581.65
1017.8748	2911.2098	3455.7	2573.3
1017.9902	2912.3236	3461.85	2572.7
1018.1056	2913.4368	3442.5	2558.75
1018.2209	2914.5494	3444.9	2563.55
1018.3362	2915.6613	3424.3	2536.3
1018.4515	2916.7725	3389.6	2504.9
1018.5667	2917.8831	3358.1	2475.15
1018.6819	2918.9931	3326.65	2443.35
1018.797	2920.1024	3312.1	2429.2
1018.9121	2921.211	3294.9	2413.4
1019.0271	2922.319	3277.45	2395.9
1019.1421	2923.4264	3260.7	2379.7
1019.2571	2924.5331	3251.7	2371.65
1019.372	2925.6391	3233.15	2350.35
1019.4869	2926.7445	3231.9	2350.95
1019.6017	2927.8493	3227.7	2344.1
1019.7165	2928.9534	3218.6	2337.55
1019.8313	2930.0569	3212.25	2327.7
1019.946	2931.1597	3214.9	2332.05
1020.0606	2932.2619	3203.8	2322.7
1020.1753	2933.3634	3196.1	2314.05
1020.2899	2934.4643	3195.35	2306.15
1020.4044	2935.5645	3151.8	2264.1
1020.5189	2936.6641	3140.8	2255.3
1020.6334	2937.763	3094.3	2212.95
1020.7478	2938.8613	3055.95	2174.5
1020.8622	2939.959	3008.5	2121.2
1020.9765	2941.056	2947.65	2066.6
1021.0908	2942.1523	2875.8	1992.7
1021.2051	2943.248	2786.25	1904.5
1021.3193	2944.3431	2713.9	1833.5
1021.4334	2945.4375	2635.15	1754.85
1021.5476	2946.5313	2546.45	1665.2
1021.6617	2947.6244	2458.25	1575.25
1021.7757	2948.7169	2371.6	1491.2
1021.8897	2949.8087	2296.5	1416.45
1022.0037	2950.8999	2221.7	1343.35
1022.1176	2951.9904	2148.15	1266.75
1022.2315	2953.0803	2077.3	1196.35
1022.3453	2954.1696	2036.2	1155.7
1022.4591	2955.2582	1993.75	1111.7
1022.5728	2956.3462	1960.5	1078.85
1022.6865	2957.4335	1925.8	1040.05
1022.8002	2958.5202	1890.1	1006.65
1022.9138	2959.6062	1873.95	992.9
1023.0274	2960.6916	1856.95	975.6
1023.141	2961.7764	1836.5	954.85
1023.2545	2962.8605	1826	944.55
1023.3679	2963.9439	1818.95	939.4
1023.4813	2965.0267	1798.25	915.25
1023.5947	2966.1089	1820.25	916.55
1023.708	2967.1905	1793.3	912.4
1023.8213	2968.2714	1796	915.2
1023.9346	2969.3516	1792.05	911.05
1024.0478	2970.4312	1799.4	909.75
1024.1609	2971.5102	1796.7	916.9
1024.274	2972.5885	1791.3	910.9
1024.3871	2973.6662	1800.45	915.8
1024.5002	2974.7432	1789.65	909.8
1024.6132	2975.8196	1786.2	906.1
1024.7261	2976.8954	1775.1	893.5
1024.839	2977.9705	1765.2	884.25
1024.9519	2979.045	1750.35	872.4
1025.0647	2980.1188	1744.1	863.15
1025.1775	2981.192	1732.3	852
1025.2902	2982.2645	1705.05	823.2
1025.4029	2983.3364	1686.7	806.15
1025.5156	2984.4077	1655.9	775.7
1025.6282	2985.4783	1646.1	757.35
1025.7407	2986.5483	1616.65	736.7
1025.8532	2987.6177	1579.75	699.95
1025.9657	2988.6864	1547.1	665.25
1026.0782	2989.7545	1521.75	641.1
1026.1906	2990.8219	1494.35	613.85
1026.3029	2991.8887	1471.7	588
1026.4152	2992.9548	1439.95	558
1026.5275	2994.0204	1410.75	530.3
1026.6397	2995.0852	1397.5	518.4
1026.7519	2996.1495	1369.95	487.95
1026.864	2997.2131	1355.5	476.2
1026.9761	2998.276	1338.35	457.9
1027.0882	2999.3383	1323.65	441.95
1027.2002	3000.4	1306	425.75
1027.3122	3001.4611	1294.5	413.55
1027.4241	3002.5215	1290.2	409.6
1027.536	3003.5812	1267.05	386.45
1027.6478	3004.6404	1264.7	383.25
1027.7596	3005.6989	1258.4	375.65
1027.8714	3006.7567	1242.8	361.9
1027.9831	3007.8139	1267.3	360.4
1028.0947	3008.8705	1237.1	356.1
1028.2064	3009.9264	1234.2	350.7
1028.3179	3010.9818	1236.1	356.5
1028.4295	3012.0364	1228.65	345.25
1028.541	3013.0905	1228.25	346.3
1028.6524	3014.1439	1224.6	343.3
1028.7638	3015.1966	1219.35	338.3
1028.8752	3016.2487	1221.35	341.2
1028.9865	3017.3002	1228.55	344.6
1029.0978	3018.3511	1223.4	346.45
1029.209	3019.4013	1219.85	339.85
1029.3202	3020.4509	1225.15	343.35
1029.4314	3021.4998	1225.2	344.3
1029.5425	3022.5481	1222.35	340
1029.6535	3023.5958	1222.25	340.4
1029.7645	3024.6428	1224.5	342.4
1029.8755	3025.6892	1233.8	354.7
1029.9864	3026.735	1227.55	347.05
1030.0973	3027.7802	1235.95	355.9
1030.2082	3028.8247	1235.5	356.85
1030.319	3029.8685	1234.05	353
1030.4297	3030.9118	1243.2	362.3
1030.5404	3031.9544	1247	367.2
1030.6511	3032.9963	1252.9	374.85
1030.7617	3034.0376	1250.8	368.45
1030.8723	3035.0783	1259.8	375.8
1030.9829	3036.1184	1266.45	385.45
1031.0934	3037.1578	1264.75	384.1
1031.2038	3038.1966	1270.85	387.35
1031.3142	3039.2348	1267.9	388.45
1031.4246	3040.2723	1276.9	387.6
1031.5349	3041.3092	1267.1	390.8
1031.6452	3042.3455	1268.8	387.4
1031.7554	3043.3811	1261.3	379.5
1031.8656	3044.4161	1260.95	381.25
1031.9758	3045.4505	1254.85	373.95
1032.0859	3046.4842	1253.95	370.85
1032.1959	3047.5173	1239.25	360.15
1032.3059	3048.5498	1242.8	362.65
1032.4159	3049.5816	1233.25	354.65
1032.5258	3050.6128	1230.4	349.2
1032.6357	3051.6434	1219.9	336.75
1032.7455	3052.6734	1217.4	334.8
1032.8553	3053.7027	1212.35	330.75
1032.9651	3054.7314	1197.45	317.2
1033.0748	3055.7594	1196.4	314.45
1033.1845	3056.7868	1198.25	313.5
1033.2941	3057.8136	1195.45	315.15
1033.4037	3058.8398	1186.7	306.75
1033.5132	3059.8653	1180.95	301.65
1033.6227	3060.8902	1181.95	300.15
1033.7321	3061.9145	1172.2	292.45
1033.8415	3062.9381	1172.25	291.1
1033.9509	3063.9612	1184.7	288.9
1034.0602	3064.9835	1161	280.9
1034.1694	3066.0053	1163.75	282.4
1034.2787	3067.0264	1148.6	266.85
1034.3878	3068.0469	1147.5	264.15
1034.497	3069.0668	1144.3	261.05
1034.6061	3070.086	1130.15	251.05
1034.7151	3071.1046	1125.9	242.3
1034.8241	3072.1226	1123	241
1034.9331	3073.1399	1111.4	230.3
1035.042	3074.1567	1105.15	223.45
1035.1508	3075.1727	1094.15	210.85
1035.2597	3076.1882	1086.5	206
1035.3684	3077.203	1086.55	205.6
1035.4772	3078.2173	1079.05	196.65
1035.5859	3079.2308	1073.9	191.05
1035.6945	3080.2438	1062.25	177.55
1035.8031	3081.2561	1052.3	172.35
1035.9117	3082.2678	1050	168.65
1036.0202	3083.2789	1044.95	162.55
1036.1286	3084.2893	1038.3	158
1036.2371	3085.2991	1034.65	154.85
1036.3454	3086.3083	1039	153.7
1036.4538	3087.3169	1024.3	140.65
1036.562	3088.3248	1023.05	141.7
1036.6703	3089.3321	1026.4	143.75
1036.7785	3090.3388	1017.65	136.95
1036.8866	3091.3449	1011.1	131.15
1036.9948	3092.3503	1013.6	131.5
1037.1028	3093.3551	1004.6	125.75
1037.2108	3094.3593	1004.8	125.15
1037.3188	3095.3629	999.2	118.15
1037.4267	3096.3658	1001.45	119
1037.5346	3097.3681	995.4	115.8
1037.6425	3098.3698	999.2	117.4
1037.7503	3099.3708	998.85	112.5
1037.858	3100.3713	990.7	110.15
1037.9657	3101.3711	989	106.25
1038.0734	3102.3702	1126.4	103.05
1038.181	3103.3688	986.6	104.95
1038.2886	3104.3667	986.45	108.2
1038.3961	3105.364	983.3	103.9
1038.5036	3106.3607	980.2	98.7
1038.611	3107.3568	982.45	100.3
1038.7184	3108.3522	981.6	101.6
1038.8257	3109.347	980.45	100.4
1038.933	3110.3412	982.8	100.45
1039.0403	3111.3348	979.3	97.35
1039.1475	3112.3277	976.2	95.65
1039.2547	3113.32	974.6	95.25
1039.3618	3114.3117	973.9	95
1039.4689	3115.3028	972.45	90.5
1039.5759	3116.2932	971.05	90
1039.6829	3117.2831	978.6	92.55
1039.7898	3118.2723	970.1	89.45
1039.8967	3119.2608	970.55	89.65
1040.0035	3120.2488	967.35	86
1040.1103	3121.2361	970.35	90.75
1040.2171	3122.2229	966.5	84.4
1040.3238	3123.209	966.6	86.1
1040.4305	3124.1944	965.8	86.55
1040.5371	3125.1793	968.45	86.1
1040.6437	3126.1635	961.75	81.6
1040.7502	3127.1471	963.6	82.85
1040.8567	3128.1301	961.15	80.05
1040.9631	3129.1125	961.65	80.45
1041.0695	3130.0942	961.5	80.9
1041.1759	3131.0753	970.75	80.85
1041.2822	3132.0558	962.1	79.6
1041.3884	3133.0357	958.05	78.9
1041.4946	3134.015	958.2	78.05
1041.6008	3134.9936	956.05	74.5
1041.7069	3135.9716	978.8	77.15
1041.813	3136.949	955.85	76.6
1041.919	3137.9258	974.75	74.75
1042.025	3138.902	959.9	73.55
1042.1309	3139.8775	953.05	72.3
1042.2368	3140.8524	953.45	73.45
1042.3427	3141.8267	954.35	72.2
1042.4485	3142.8004	952.3	71.25
1042.5542	3143.7735	958.35	69.95
1042.6599	3144.7459	952.1	69.4
1042.7656	3145.7178	949.55	70.1
1042.8712	3146.689	946.1	66.25
1042.9768	3147.6596	949.15	68
1043.0823	3148.6295	949.5	70.15
1043.1878	3149.5989	948.45	68.25
1043.2932	3150.5676	941.7	62.65
1043.3986	3151.5357	945.3	66.3
1043.5039	3152.5032	944.2	63.15
1043.6092	3153.4701	945.45	65.75
1043.7145	3154.4364	945.9	62.25
1043.8197	3155.402	941.25	62.15
1043.9248	3156.367	945.5	63.75
1044.03	3157.3315	976.55	60.8
1044.135	3158.2952	939.2	59.35
1044.24	3159.2584	940.05	60.6
1044.345	3160.221	938.35	56.75
1044.4499	3161.1829	941.6	60.5
1044.5548	3162.1442	936.85	56.15
1044.6596	3163.105	937.75	55.45
1044.7644	3164.065	937.05	56.65
1044.8692	3165.0245	939.4	54.1
1044.9739	3165.9834	936.5	56.4
1045.0785	3166.9416	935.95	55.75
1045.1831	3167.8993	935.95	54.7
1045.2877	3168.8563	935.05	54.25
1045.3922	3169.8127	934.4	55.1
1045.4966	3170.7684	936.95	57.2
1045.6011	3171.7236	930.45	50.45
1045.7054	3172.6782	933.1	52.95
1045.8098	3173.6321	934.35	53.5
1045.914	3174.5854	936.85	53.35
1046.0183	3175.5381	933.8	52.65
1046.1224	3176.4902	931.95	49.75
1046.2266	3177.4417	932.15	51.15
1046.3307	3178.3926	932.95	53
1046.4347	3179.3428	932.2	52.15
1046.5387	3180.2924	929.9	50
1046.6427	3181.2415	932	51.55
1046.7466	3182.1899	933.5	53.1
1046.8504	3183.1377	932	51.15
1046.9542	3184.0848	933	50.05
1047.058	3185.0314	929.05	49.8
1047.1617	3185.9773	929.2	47.5
1047.2654	3186.9227	927.25	45.1
1047.369	3187.8674	930.95	51.1
1047.4726	3188.8115	931.55	47.45
1047.5761	3189.755	930.45	50.95
1047.6796	3190.6979	926.7	47.75
1047.783	3191.6402	924.75	45.05
1047.8864	3192.5818	927.5	48.4
1047.9898	3193.5229	956.95	47.85
1048.0931	3194.4633	927.15	48.05
1048.1963	3195.4031	927.8	46.55
1048.2995	3196.3423	923.75	44.6
1048.4027	3197.2809	926.5	45.95
1048.5058	3198.2189	925.35	44.05
1048.6089	3199.1563	943.2	45.8
1048.7119	3200.0931	923.2	44.1
1048.8148	3201.0292	923.7	43.2
1048.9178	3201.9648	922.7	42.1
1049.0206	3202.8997	926.7	43.7
1049.1235	3203.834	924	44.5
1049.2262	3204.7677	924.45	42.25
1049.329	3205.7008	925.1	43.4
1049.4317	3206.6333	922.35	42.9
1049.5343	3207.5652	925.45	43.6
1049.6369	3208.4964	920.85	40.1
1049.7394	3209.4271	921.8	42.25
1049.8419	3210.3571	920.2	41.05
1049.9444	3211.2865	920.45	40.3
1050.0468	3212.2154	924.25	43.35
1050.1491	3213.1436	924.95	42.35
1050.2514	3214.0712	928.55	40.85
1050.3537	3214.9982	920.55	42.25
1050.4559	3215.9246	922.35	42.3
1050.5581	3216.8503	919.75	38.95
1050.6602	3217.7755	919.15	39.2
1050.7623	3218.7001	921.45	41.45
1050.8643	3219.624	918.1	39.15
1050.9663	3220.5473	919.45	39.55
1051.0682	3221.4701	919.4	37.75
1051.1701	3222.3922	921.05	38.2
1051.2719	3223.3137	920.65	38.3
1051.3737	3224.2346	918.65	37.2
1051.4754	3225.1549	918.1	38.6
1051.5771	3226.0746	916.9	36.45
1051.6788	3226.9937	919.8	38.6
1051.7804	3227.9121	917.35	38.1
1051.8819	3228.83	919.15	39.7
1051.9834	3229.7473	918.05	39.55
1052.0849	3230.6639	917.4	36.5
1052.1863	3231.5799	917.3	36.85
1052.2876	3232.4954	918.5	38.85
1052.3889	3233.4102	918.25	38.45
1052.4902	3234.3244	916.1	35.85
1052.5914	3235.238	916.25	37.15
1052.6926	3236.151	943.95	40.4
1052.7937	3237.0634	913.55	35.2
1052.8948	3237.9752	915.35	34.7
1052.9958	3238.8864	914.85	34.6
1053.0968	3239.797	915.55	34.9
1053.1977	3240.7069	917.1	36.7
1053.2986	3241.6163	916.65	37.05
1053.3994	3242.5251	915.4	35.55
1053.5002	3243.4332	912.5	32.4
1053.6009	3244.3408	914.9	34.2
1053.7016	3245.2477	912.75	32.4
1053.8022	3246.154	914.05	32.75
1053.9028	3247.0598	914.55	33.9
1054.0034	3247.9649	914.8	34.9
1054.1039	3248.8694	912.45	31.55
1054.2043	3249.7733	912	31.15
1054.3047	3250.6766	913.1	33.65
1054.4051	3251.5793	912.4	27.9
1054.5054	3252.4814	910.45	29.75
1054.6056	3253.3829	910.55	31.4
1054.7058	3254.2838	909.35	31.05
1054.806	3255.1841	908.35	28.45
1054.9061	3256.0838	910.3	30.7
1055.0061	3256.9829	907.6	27.7
1055.1062	3257.8814	910.7	29.35
1055.2061	3258.7792	912.3	30
1055.306	3259.6765	910.65	29.9
1055.4059	3260.5731	908.75	28.6
1055.5057	3261.4692	907	24.15
1055.6055	3262.3647	907.9	27.2
1055.7052	3263.2595	907.2	26.75
1055.8049	3264.1538	906.1	25.85
1055.9045	3265.0474	907.5	27.35
1056.0041	3265.9404	904.25	26.15
1056.1036	3266.8329	904.5	26.75
1056.2031	3267.7247	913.95	24.15
1056.3025	3268.616	903.65	24.7
1056.4019	3269.5066	904.9	24.75
1056.5013	3270.3966	905.85	22.95
1056.6005	3271.286	901.6	23.35
