Software Version:	3.9.2.0
Unit SN:	10000200
Spectrometer SN:	6960
Date:	3/14/2024 1:26:02 PM
Data Line Index:	25
Spectral Points:	2048
Integration time (ms):	125
Averages:	20
Delay (ms):	30000
Sequence Number:	1
Processing:	dark subtract
Laser Power (mW):	305
Laser Current (mA):	825
Laser Diode Temp (C):	25
Laser Case Temp (C):	28.5
System Temp (C):	28.5
Spectrometer Temp (C):	26.2
CCD Temp (C):	0.013
Secondary Temp (C):	20.007
Heatsink Temp (C):	24.274
CCDPCB Temp (C):	37.752
SecondaryPCB Temp (C):	35.373

Wavelength	RamanShift	Raw Counts	Dark Subtracted
787.061	30.1047	465.2	53.9
787.2016	32.3739	467.55	58.4
787.3422	34.6426	473.9	62.85
787.4828	36.9109	484.5	72
787.6235	39.1787	490.9	75.85
787.7642	41.4461	501.5	79.95
787.9049	43.7131	509.1	84.5
788.0456	45.9796	517.55	90.2
788.1863	48.2456	529.45	97.3
788.3271	50.5112	540.45	102.1
788.4679	52.7764	548.45	109.05
788.6087	55.0411	559	116.25
788.7496	57.3054	568.6	121.55
788.8904	59.5692	584.35	134.1
789.0313	61.8326	593.4	138.65
789.1722	64.0955	609.55	152.95
789.3132	66.3579	632.3	169.3
789.4541	68.6199	649.45	185.2
789.5951	70.8815	685.65	218.7
789.7361	73.1426	775.9	304.15
789.8771	75.4032	998.2	521.3
790.0181	77.6634	1541.7	1057.95
790.1592	79.9231	2840.8	2352.05
790.3003	82.1824	5700.55	5201.6
790.4414	84.4412	10895.25	10378.85
790.5825	86.6995	18144	17602.6
790.7237	88.9574	25321.15	24755.05
790.8648	91.2148	30289.2	29707.6
791.006	93.4717	32603.65	32013.55
791.1472	95.7282	33052.35	32460.35
791.2885	97.9842	32870.65	32271.7
791.4297	100.2398	32186.75	31583.35
791.571	102.4949	31418.6	30809.95
791.7123	104.7495	30498.8	29889.15
791.8536	107.0036	29631	29016.4
791.9949	109.2573	28817.95	28211.95
792.1363	111.5105	28067.75	27455.95
792.2777	113.7632	27436.15	26825.55
792.4191	116.0154	26880.25	26258.15
792.5605	118.2672	26563.9	25950.8
792.7019	120.5185	26132.6	25513.25
792.8434	122.7693	25894.2	25273.85
792.9849	125.0197	25680	25055.2
793.1264	127.2696	25414.4	24789.05
793.2679	129.519	25263.3	24634.1
793.4094	131.7679	24986.5	24356.85
793.551	134.0163	24749.45	24117.75
793.6926	136.2642	24422	23781.15
793.8342	138.5117	24061.6	23415.3
793.9758	140.7587	23674.2	23035.75
794.1175	143.0052	23359.25	22715.45
794.2591	145.2512	22986.6	22341.05
794.4008	147.4967	22690.65	22045.75
794.5425	149.7417	22468.75	21820.9
794.6842	151.9863	22281.35	21631.75
794.826	154.2304	22173.5	21519.2
794.9677	156.4739	21964.25	21304.1
795.1095	158.717	21906.8	21250.75
795.2513	160.9596	21725.85	21059.15
795.3931	163.2017	21452	20788.9
795.535	165.4433	21173.4	20505.8
795.6768	167.6844	20881.3	20213.6
795.8187	169.925	20538.25	19867.75
795.9606	172.1651	20183.05	19509.9
796.1025	174.4047	19966.2	19284.5
796.2445	176.6439	19664.75	18983.6
796.3864	178.8825	19479	18791.25
796.5284	181.1206	19335.45	18647.65
796.6704	183.3582	19161.9	18474.9
796.8124	185.5954	19086.9	18399.05
796.9544	187.832	19025.15	18331.4
797.0965	190.0681	19000.3	18306.2
797.2386	192.3037	18961.5	18261.25
797.3806	194.5388	18952.65	18250.05
797.5228	196.7734	18988.1	18284.1
797.6649	199.0075	19056.2	18348.75
797.807	201.2411	19209.5	18496.15
797.9492	203.4742	19258.75	18551.1
798.0914	205.7068	19423.4	18708.55
798.2336	207.9389	19518.9	18805.2
798.3758	210.1704	19674.1	18955.15
798.518	212.4015	19796.75	19078.4
798.6603	214.632	19937.3	19216.9
798.8025	216.862	20066.85	19352.55
798.9448	219.0915	20136.35	19428.95
799.0871	221.3205	20208.75	19504.9
799.2294	223.549	20296.8	19598.9
799.3718	225.777	20412.7	19717.3
799.5141	228.0044	20473.55	19773.65
799.6565	230.2314	20605.65	19906.3
799.7989	232.4578	20700.9	20000.8
799.9413	234.6837	20819.15	20112.9
800.0837	236.909	20879.85	20174.4
800.2262	239.1339	20863.65	20130.55
800.3687	241.3582	20802.5	20088.75
800.5111	243.582	20687.55	19944.45
800.6536	245.8053	20648.75	19912.95
800.7961	248.0281	20549.1	19822.9
800.9387	250.2503	20545.25	19805.7
801.0812	252.472	20593.95	19855.85
801.2238	254.6932	20738.75	19993.9
801.3664	256.9139	20791.4	20046.55
801.509	259.134	21021.8	20274.9
801.6516	261.3536	21225.85	20477.5
801.7942	263.5727	21540.7	20791.75
801.9369	265.7912	21795.55	21051.1
802.0795	268.0092	22080.3	21334.1
802.2222	270.2267	22256.35	21506.5
802.3649	272.4436	22384.4	21633.55
802.5076	274.6601	22401.8	21642.55
802.6504	276.8759	22277.7	21523.65
802.7931	279.0913	22198.35	21446.95
802.9359	281.3061	22070.55	21317.7
803.0787	283.5204	22026.2	21269.85
803.2215	285.7341	22005.8	21245.25
803.3643	287.9473	21993	21221.7
803.5071	290.16	22040.05	21273.45
803.6499	292.3721	22133.1	21374.4
803.7928	294.5837	22320.9	21558.9
803.9357	296.7947	22525.4	21764.3
804.0786	299.0052	22683.9	21924.8
804.2215	301.2152	22645.65	21882
804.3644	303.4246	22496.7	21733
804.5074	305.6334	22128.3	21371.15
804.6503	307.8418	21726.95	20960.7
804.7933	310.0495	21317.05	20551.35
804.9363	312.2568	20852.35	20085.65
805.0793	314.4635	20444.1	19676.35
805.2223	316.6696	20147.65	19378.3
805.3653	318.8752	19853	19076.15
805.5084	321.0802	19726.5	18957.45
805.6514	323.2847	19751.75	18980.25
805.7945	325.4887	19793.7	19024.25
805.9376	327.692	19733	18962.35
806.0807	329.8949	19748.65	18974.75
806.2238	332.0972	19554.8	18783
806.367	334.2989	19346.3	18567.9
806.5101	336.5001	19075	18298.75
806.6533	338.7007	18873.4	18094.65
806.7965	340.9008	18719.45	17938.7
806.9397	343.1003	18539.6	17759.75
807.0829	345.2992	18409.65	17627.85
807.2261	347.4976	18298.5	17513.9
807.3693	349.6955	18207.4	17418.3
807.5126	351.8927	18183.35	17396.35
807.6559	354.0895	18097.35	17301.4
807.7991	356.2856	18029.7	17239.6
807.9424	358.4812	17997	17208.1
808.0857	360.6763	18014.65	17220.2
808.2291	362.8707	17939.55	17148.45
808.3724	365.0646	17986.65	17196.1
808.5158	367.258	17985.75	17188.7
808.6591	369.4508	18025.2	17227.8
808.8025	371.643	18177.2	17378
808.9459	373.8346	18227.65	17427.65
809.0893	376.0257	18292.35	17488.6
809.2327	378.2162	18324.85	17522.35
809.3762	380.4062	18284.2	17477.85
809.5196	382.5956	18142.45	17333.25
809.6631	384.7844	18063.9	17259.25
809.8066	386.9726	17880.1	17072.5
809.9501	389.1603	17769.3	16961.55
810.0936	391.3474	17727.8	16883.05
810.2371	393.5339	17677.3	16869.15
810.3806	395.7199	17620.2	16814.6
810.5241	397.9052	17625.5	16825.45
810.6677	400.09	17711.4	16912.25
810.8113	402.2743	17840.1	17041.95
810.9548	404.4579	17947.3	17148.7
811.0984	406.641	18139.05	17334.9
811.2421	408.8235	18342.35	17542.25
811.3857	411.0054	18470.1	17668.05
811.5293	413.1868	18630.35	17828.1
811.673	415.3675	18675.15	17872.55
811.8166	417.5477	18660.9	17854.2
811.9603	419.7273	18599.7	17791.95
812.104	421.9064	18493.95	17680.15
812.2477	424.0848	18390.8	17582.2
812.3914	426.2627	18257.25	17445.1
812.5351	428.4399	17995.85	17180.15
812.6788	430.6166	17657.75	16839
812.8226	432.7928	17308.35	16489
812.9663	434.9683	16972.85	16154.85
813.1101	437.1432	16768.4	15948.05
813.2539	439.3176	16586.5	15764.65
813.3977	441.4914	16478	15654.1
813.5415	443.6645	16410.5	15589.9
813.6853	445.8371	16278.85	15454.5
813.8291	448.0091	16232.9	15414.35
813.973	450.1806	16194.9	15370.95
814.1168	452.3514	16155.4	15330.35
814.2607	454.5216	16212.3	15378.7
814.4046	456.6913	16157.7	15328.7
814.5485	458.8603	16171.35	15349.45
814.6924	461.0288	16230.2	15403.45
814.8363	463.1967	16241.9	15416.45
814.9802	465.3639	16236.6	15410.85
815.1241	467.5306	16195.65	15366.35
815.2681	469.6967	16172.85	15346.9
815.412	471.8622	16183.6	15355.25
815.556	474.0271	16205.35	15376.55
815.7	476.1914	16221.05	15391
815.844	478.3551	16226.95	15394.9
815.988	480.5182	16279.6	15449.35
816.132	482.6807	16337	15504
816.276	484.8426	16514.65	15682.75
816.4201	487.0039	16837.95	16007.2
816.5641	489.1647	17209.95	16376.75
816.7082	491.3248	17523.05	16690.4
816.8522	493.4843	17598.45	16768.6
816.9963	495.6432	17553.25	16719.2
817.1404	497.8015	17380.85	16545.9
817.2845	499.9592	17243.7	16409.2
817.4286	502.1163	17077.45	16244.4
817.5727	504.2728	16724.25	15886.9
817.7168	506.4287	16451.3	15615.75
817.861	508.5839	16113.85	15279.25
818.0051	510.7386	15891.7	15058
818.1493	512.8927	15811.95	14970
818.2935	515.0461	15779.45	14943.6
818.4377	517.199	15842.9	15009.25
818.5818	519.3512	16005.95	15168.4
818.726	521.5029	16276.45	15433.5
818.8703	523.6539	16528.15	15688.9
819.0145	525.8043	16619.75	15781.35
819.1587	527.9541	16564.45	15723.35
819.303	530.1033	16367.7	15529.7
819.4472	532.2519	16145.7	15305.25
819.5915	534.3999	16093.05	15250.85
819.7357	536.5472	16116.4	15274.7
819.88	538.694	16287.3	15446.9
820.0243	540.8401	16527.85	15686.4
820.1686	542.9856	16745.7	15899.35
820.3129	545.1305	16771.25	15926.65
820.4572	547.2748	16671.9	15829.05
820.6016	549.4185	16495.95	15650.15
820.7459	551.5615	16342.45	15500.2
820.8902	553.704	16312.7	15467.5
821.0346	555.8458	16364.05	15519.5
821.1789	557.987	16560.75	15713
821.3233	560.1276	16780.8	15933.7
821.4677	562.2675	17147.3	16302.5
821.6121	564.4069	17654.7	16811.5
821.7565	566.5456	18097.1	17251.3
821.9009	568.6837	18249.1	17405.55
822.0453	570.8212	17834	16990.45
822.1897	572.958	17147.4	16300.1
822.3342	575.0942	16494.9	15649.15
822.4786	577.2299	15984.3	15138.35
822.6231	579.3648	15759.75	14911.2
822.7675	581.4992	15710.65	14861.55
822.912	583.6329	15746.2	14899.45
823.0565	585.766	15933.2	15085
823.201	587.8985	16050.4	15203.35
823.3454	590.0304	16098.05	15225.45
823.4899	592.1616	16019.3	15168.6
823.6345	594.2922	15899.85	15051
823.779	596.4222	15699.9	14851.05
823.9235	598.5515	15479.15	14627.7
824.068	600.6802	15290.15	14438.8
824.2126	602.8083	15136.2	14286.35
824.3571	604.9358	15086.7	14234.1
824.5017	607.0626	15061.65	14210.5
824.6462	609.1888	15180.3	14327.35
824.7908	611.3144	15329.9	14478.05
824.9354	613.4393	15451.7	14599.95
825.08	615.5636	15570.85	14715.4
825.2246	617.6873	15568.5	14715.2
825.3692	619.8103	15528.65	14676.9
825.5138	621.9327	15318.25	14463.4
825.6584	624.0544	15069.45	14215.95
825.803	626.1756	14844.45	13994.45
825.9477	628.2961	14710.8	13856.15
826.0923	630.4159	14622.75	13769.55
826.237	632.5351	14585.9	13732.65
826.3816	634.6537	14542.7	13689.75
826.5263	636.7716	14541.35	13686.65
826.6709	638.8889	14559.65	13703.75
826.8156	641.0056	14563.2	13706.65
826.9603	643.1216	14542.55	13687.7
827.105	645.237	14508.5	13648.55
827.2497	647.3518	14401.4	13543.55
827.3944	649.4659	14327.4	13470.65
827.5391	651.5793	14245.3	13387.8
827.6838	653.6922	14185.8	13330.35
827.8285	655.8043	14170.05	13313.1
827.9733	657.9159	14159.85	13300.7
828.118	660.0268	14125.45	13265.3
828.2627	662.137	14116.75	13257.05
828.4075	664.2466	14144.75	13282.65
828.5522	666.3556	14091.3	13235
828.697	668.4639	14036.8	13174.55
828.8418	670.5716	13977.4	13118.55
828.9865	672.6786	13947.9	13086.6
829.1313	674.785	13881.75	13020.05
829.2761	676.8907	13815.55	12956.85
829.4209	678.9958	13824.45	12963.75
829.5657	681.1002	13754.9	12893.05
829.7105	683.204	13750.25	12884.65
829.8553	685.3072	13740.55	12876.55
830.0001	687.4097	13693.75	12831.25
830.1449	689.5115	13664.4	12800.3
830.2898	691.6127	13671.3	12811.25
830.4346	693.7132	13638.85	12774.8
830.5794	695.8131	13639.75	12762.7
830.7243	697.9123	13633.95	12771.4
830.8691	700.0109	13670.65	12805.75
831.014	702.1089	13680.35	12817.95
831.1588	704.2061	13705.75	12839.65
831.3037	706.3028	13765.4	12901.6
831.4486	708.3987	13826.6	12963.55
831.5935	710.4941	13823	12959.75
831.7383	712.5887	13861.25	12993.6
831.8832	714.6827	13930.35	13060.35
832.0281	716.7761	14022.2	13157.85
832.173	718.8688	14198.1	13330.05
832.3179	720.9608	14323.6	13456.1
832.4628	723.0522	14459.85	13589.9
832.6077	725.1429	14505.6	13641.85
832.7527	727.233	14593.75	13726.3
832.8976	729.3224	14644.9	13777.4
833.0425	731.4112	14572.2	13706.9
833.1874	733.4993	14417.4	13547.2
833.3324	735.5867	14136.75	13269.05
833.4773	737.6735	13915.35	13042.7
833.6222	739.7596	13697	12828.85
833.7672	741.845	13531.55	12665.9
833.9122	743.9298	13445.8	12576.4
834.0571	746.014	13381.55	12513.6
834.2021	748.0974	13370.95	12500.45
834.347	750.1802	13361.85	12491.55
834.492	752.2624	13365.75	12499.3
834.637	754.3439	13385.7	12516.8
834.782	756.4247	13472.2	12592.6
834.9269	758.5048	13618.35	12751.15
835.0719	760.5843	13905.75	13034.3
835.2169	762.6631	14287.25	13414.4
835.3619	764.7413	14869.2	14001.85
835.5069	766.8188	15537.25	14668.15
835.6519	768.8956	16103.2	15230.35
835.7969	770.9718	16524.8	15656.65
835.9419	773.0473	16480.4	15613.15
836.0869	775.1221	16212.3	15342.5
836.232	777.1962	15933.9	15066
836.377	779.2697	15843.7	14971.4
836.522	781.3426	15920.9	15038.1
836.667	783.4147	16043.1	15172.3
836.8121	785.4862	16086.7	15219.05
836.9571	787.557	15893.65	15022.35
837.1021	789.6271	15380.75	14509.65
837.2472	791.6966	14718.6	13848.9
837.3922	793.7654	14078.55	13204.65
837.5373	795.8335	13633.05	12760.55
837.6823	797.901	13327.35	12456.95
837.8274	799.9678	13130	12257.3
837.9724	802.0339	13043.65	12173.85
838.1175	804.0993	12997.4	12114.65
838.2626	806.1641	12912.9	12039.45
838.4076	808.2282	12794.75	11921.6
838.5527	810.2916	12726.25	11852.65
838.6978	812.3544	12660.15	11790.55
838.8428	814.4164	12558.4	11687.75
838.9879	816.4778	12589.7	11715.35
839.133	818.5385	12616.45	11741.95
839.2781	820.5986	12777.35	11906.55
839.4232	822.658	13017.4	12145.7
839.5682	824.7166	13324.4	12455.15
839.7133	826.7747	13857.35	12986.9
839.8584	828.832	14420.5	13548.45
840.0035	830.8886	14780.2	13904.35
840.1486	832.9446	15005.4	14129.3
840.2937	834.9999	14837.6	13965.75
840.4388	837.0545	14534.6	13659.8
840.5839	839.1085	14147.85	13274.15
840.729	841.1618	13782.3	12906.2
840.8741	843.2143	13497.65	12625.35
841.0192	845.2662	13277.4	12404.35
841.1643	847.3175	13130.9	12259.65
841.3095	849.368	13010.3	12140.1
841.4546	851.4179	12890.55	12017.3
841.5997	853.467	12798.6	11927.5
841.7448	855.5155	12760.85	11885.8
841.8899	857.5633	12623.5	11749.9
842.0351	859.6105	12532.4	11658.9
842.1802	861.6569	12456.55	11582.8
842.3253	863.7027	12340.05	11463.7
842.4704	865.7478	12311.95	11437
842.6156	867.7922	12230.4	11354.9
842.7607	869.8359	12188.1	11313.05
842.9058	871.8789	12207.15	11328.45
843.0509	873.9212	12286.2	11377.2
843.1961	875.9629	12338.55	11461.9
843.3412	878.0039	12436.2	11559.15
843.4863	880.0441	12514.9	11638.85
843.6315	882.0837	12605.65	11729.8
843.7766	884.1226	12630.3	11751.1
843.9218	886.1609	12648.95	11773.1
844.0669	888.1984	12764.8	11889.65
844.212	890.2352	12929.15	12053.5
844.3572	892.2714	12934.2	12054.3
844.5023	894.3069	12854.5	11977.2
844.6475	896.3416	12683.6	11806.7
844.7926	898.3757	12532.45	11655.6
844.9377	900.4091	12417.9	11542.55
845.0829	902.4418	12374.15	11492.2
845.228	904.4739	12376.95	11498.1
845.3732	906.5052	12432.65	11556.5
845.5183	908.5358	12391.8	11516.15
845.6635	910.5658	12288.75	11409.3
845.8086	912.595	12038.25	11162.4
845.9538	914.6236	11837.75	10960.95
846.0989	916.6515	11683.5	10807.8
846.2441	918.6786	11603.9	10726
846.3892	920.7051	11582.25	10701.25
846.5344	922.7309	11605.6	10725.85
846.6795	924.756	11575.65	10698.7
846.8246	926.7804	11645.25	10766.95
846.9698	928.8041	11628.25	10749.15
847.1149	930.8272	11700.7	10821.35
847.2601	932.8495	11665.45	10786.6
847.4052	934.8711	11664.15	10785.95
847.5504	936.892	11595.25	10717.7
847.6955	938.9123	11580.65	10699.7
847.8407	940.9318	11588.5	10709.95
847.9858	942.9506	11583.35	10702.95
848.131	944.9688	11506.65	10627.3
848.2761	946.9862	11412.35	10531
848.4213	949.003	11239.25	10362.95
848.5664	951.019	11129.6	10249.5
848.7115	953.0344	11087.85	10209.3
848.8567	955.0491	11034.55	10153.95
849.0018	957.063	11071.65	10190.75
849.147	959.0763	11124.3	10246.55
849.2921	961.0888	11118.7	10236.3
849.4373	963.1007	11201.45	10321.85
849.5824	965.1119	11224.95	10346.05
849.7275	967.1223	11195.55	10314.85
849.8727	969.1321	11153	10274.75
850.0178	971.1412	11159.65	10278.95
850.1629	973.1495	11100.9	10222.6
850.3081	975.1572	11139.75	10226.1
850.4532	977.1641	11122.3	10243
850.5983	979.1704	11086.25	10207.55
850.7435	981.1759	11056.2	10174.05
850.8886	983.1808	11046.3	10165.65
851.0337	985.1849	11049.95	10158.65
851.1788	987.1884	11100.7	10219.55
851.324	989.1911	11173.55	10288.95
851.4691	991.1932	11233.45	10350
851.6142	993.1945	11267.5	10389.2
851.7593	995.1951	11200.95	10321.3
851.9045	997.1951	11168	10284
852.0496	999.1943	11130.9	10251.1
852.1947	1001.1928	11133.7	10252.65
852.3398	1003.1906	11150.8	10272.5
852.4849	1005.1877	11278.05	10395.95
852.63	1007.1841	11371.4	10491.6
852.7751	1009.1798	11380.85	10501.55
852.9202	1011.1748	11285.85	10405.7
853.0653	1013.1691	11135.3	10256.05
853.2104	1015.1627	10916.1	10032.75
853.3555	1017.1556	10691.45	9810.75
853.5006	1019.1477	10549.3	9666.7
853.6457	1021.1392	10431.65	9552.8
853.7908	1023.1299	10408.25	9528.85
853.9359	1025.12	10418.5	9536.75
854.081	1027.1093	10442.85	9560.05
854.2261	1029.0979	10589.55	9709.6
854.3712	1031.0859	10620.3	9740.05
854.5163	1033.0731	10660.05	9778
854.6613	1035.0596	10600.95	9722.45
854.8064	1037.0454	10470	9588.35
854.9515	1039.0304	10386.8	9506.4
855.0965	1041.0148	10270.6	9390.95
855.2416	1042.9985	10148.7	9268.35
855.3867	1044.9814	10078.2	9198.8
855.5317	1046.9636	10008.05	9124.3
855.6768	1048.9452	10019.7	9138.7
855.8219	1050.926	10052.95	9173.65
855.9669	1052.9061	10053.7	9173.7
856.112	1054.8855	10046.35	9164.8
856.257	1056.8642	10099.3	9219.35
856.4021	1058.8421	10164	9281
856.5471	1060.8194	10186.8	9305.15
856.6921	1062.7959	10219.9	9340
856.8372	1064.7717	10252.1	9368.7
856.9822	1066.7469	10315.8	9435
857.1272	1068.7213	10404.35	9519.6
857.2723	1070.695	10484.35	9604
857.4173	1072.6679	10527.6	9643.9
857.5623	1074.6402	10562.1	9680.95
857.7073	1076.6117	10506.55	9621
857.8523	1078.5826	10381.55	9499.7
857.9973	1080.5527	10227.85	9343.1
858.1423	1082.5221	10119.2	9237.25
858.2873	1084.4908	10065.15	9182.85
858.4323	1086.4587	10069.1	9185.5
858.5773	1088.426	10071.15	9188.85
858.7223	1090.3925	10102.7	9216.4
858.8673	1092.3584	10144.9	9265.2
859.0123	1094.3235	10154	9271.35
859.1573	1096.2879	10178	9293.65
859.3022	1098.2515	10325.25	9444.45
859.4472	1100.2145	10514.4	9633.2
859.5922	1102.1767	10689.2	9806.55
859.7371	1104.1382	10921.75	10038.3
859.8821	1106.099	11166.5	10283.6
860.027	1108.0591	11394.45	10511.35
860.172	1110.0185	11553.6	10671.45
860.3169	1111.9771	11624.9	10743.65
860.4619	1113.9351	11518.95	10636.6
860.6068	1115.8923	11429.05	10545
860.7517	1117.8488	11293.4	10410.8
860.8967	1119.8045	11087.55	10203.5
861.0416	1121.7596	10938.6	10057.05
861.1865	1123.7139	10779.35	9896.25
861.3314	1125.6675	10701.2	9817.1
861.4763	1127.6204	10714.4	9831.2
861.6212	1129.5726	10670.25	9785.9
861.7661	1131.524	10584.75	9701.6
861.911	1133.4748	10441.15	9558.8
862.0559	1135.4248	10240.6	9355.75
862.2008	1137.3741	10107.6	9225.7
862.3457	1139.3226	9959.45	9075.55
862.4905	1141.2705	9903.45	9022.2
862.6354	1143.2176	9788.75	8900.8
862.7803	1145.164	9753.45	8870.65
862.9251	1147.1097	9678.55	8795.6
863.07	1149.0546	9555.45	8671.15
863.2148	1150.9989	9444.2	8560.9
863.3597	1152.9424	9334.25	8453.15
863.5045	1154.8852	9257.15	8372.45
863.6493	1156.8272	9221.15	8340.25
863.7942	1158.7686	9224.25	8334
863.939	1160.7092	9227.95	8344.2
864.0838	1162.6491	9263.65	8380.35
864.2286	1164.5883	9371.25	8490.15
864.3734	1166.5267	9494.05	8609.4
864.5182	1168.4644	9670.1	8788.35
864.663	1170.4014	9838.5	8952.45
864.8078	1172.3377	10093.9	9213
864.9526	1174.2732	10382.3	9500.65
865.0974	1176.2081	10804.5	9923
865.2421	1178.1421	11330.35	10443.6
865.3869	1180.0755	11878.65	10997.85
865.5317	1182.0082	12256.9	11371.85
865.6764	1183.9401	12463.35	11578.5
865.8212	1185.8713	12309.45	11425.75
865.9659	1187.8017	11957.45	11075.5
866.1106	1189.7315	11539.35	10657.3
866.2554	1191.6605	11098	10186.55
866.4001	1193.5888	10768	9887.2
866.5448	1195.5163	10568.9	9686.75
866.6895	1197.4432	10476.45	9593.85
866.8342	1199.3693	10376.7	9493.45
866.9789	1201.2947	10371.75	9482.25
867.1236	1203.2193	10341.4	9461.45
867.2683	1205.1432	10284.5	9400.35
867.413	1207.0664	10263.8	9379.1
867.5576	1208.9889	10264.2	9377.6
867.7023	1210.9106	10238.4	9354.55
867.847	1212.8316	10194.4	9311.25
867.9916	1214.7519	10253.25	9359.5
868.1363	1216.6715	10283.75	9402.95
868.2809	1218.5903	10372.7	9488
868.4255	1220.5084	10446.5	9561.35
868.5701	1222.4257	10565.1	9682.55
868.7148	1224.3424	10626.1	9742.75
868.8594	1226.2583	10742.6	9853.2
869.004	1228.1735	10921.7	10038.05
869.1486	1230.0879	11055.8	10172.95
869.2932	1232.0016	11282.55	10401.9
869.4377	1233.9146	11389.8	10504.35
869.5823	1235.8269	11418.75	10536.3
869.7269	1237.7384	11388.25	10503.9
869.8715	1239.6492	11249.8	10367.55
870.016	1241.5592	11243.3	10357.05
870.1606	1243.4686	11251.8	10370.05
870.3051	1245.3772	11440.05	10558.8
870.4496	1247.285	11699.05	10815.75
870.5941	1249.1922	11932.85	11050.6
870.7387	1251.0986	12092.7	11210.65
870.8832	1253.0042	12229.75	11346.1
871.0277	1254.9092	12370.2	11485.2
871.1722	1256.8134	12422.85	11541
871.3167	1258.7169	12560.7	11676.05
871.4611	1260.6196	12720.1	11839
871.6056	1262.5216	12955.6	12069.85
871.7501	1264.4229	13132.9	12251.15
871.8945	1266.3234	13343.55	12461.1
872.039	1268.2232	13487.9	12602.1
872.1834	1270.1223	13552	12665.25
872.3278	1272.0207	13568.55	12685.25
872.4723	1273.9183	13534.35	12645.35
872.6167	1275.8151	13469.95	12589.95
872.7611	1277.7113	13452.25	12569.1
872.9055	1279.6067	13539.95	12657.3
873.0499	1281.5014	13816.2	12931.2
873.1943	1283.3953	14269.85	13385.75
873.3386	1285.2885	14875.4	13992.65
873.483	1287.181	15458.4	14574.3
873.6274	1289.0727	16046.7	15164.15
873.7717	1290.9637	16433.25	15548.25
873.9161	1292.854	16707	15825
874.0604	1294.7435	16672.55	15789.8
874.2047	1296.6323	16509.4	15624.95
874.349	1298.5204	16288.45	15401.05
874.4933	1300.4077	15985.75	15101.35
874.6376	1302.2943	15682.15	14801.05
874.7819	1304.1802	15329.55	14445.65
874.9262	1306.0653	14802.15	13919.25
875.0705	1307.9497	14263	13380.2
875.2147	1309.8333	13817.85	12931.85
875.359	1311.7162	13446.65	12563.35
875.5032	1313.5984	13206.25	12320.35
875.6475	1315.4798	13069.15	12166.4
875.7917	1317.3605	12977.6	12077.55
875.9359	1319.2405	12853.2	11966.85
876.0801	1321.1197	12580.25	11694.1
876.2243	1322.9982	12223.4	11334.45
876.3685	1324.876	11936.25	11052.7
876.5127	1326.753	11624.05	10738.45
876.6569	1328.6293	11348.4	10464.15
876.801	1330.5048	11141.6	10257.7
876.9452	1332.3796	10953.3	10068.55
877.0893	1334.2537	10868.6	9959.5
877.2335	1336.127	10763.65	9877.6
877.3776	1337.9996	10707.55	9823.5
877.5217	1339.8714	10694.35	9809.65
877.6658	1341.7426	10715.05	9787.5
877.8099	1343.6129	10691	9806.45
877.954	1345.4826	10664.5	9780.1
878.0981	1347.3515	10658.85	9773.1
878.2422	1349.2196	10641	9757.1
878.3862	1351.087	10698.85	9813.85
878.5303	1352.9537	10730.95	9844.6
878.6743	1354.8197	10827.9	9943.15
878.8184	1356.6849	10997.2	10113.95
878.9624	1358.5493	11192.1	10306.4
879.1064	1360.4131	11365	10481.35
879.2504	1362.276	11524.6	10643.55
879.3944	1364.1383	11585.35	10700.7
879.5384	1365.9998	11405	10515.35
879.6823	1367.8606	11113.25	10231.1
879.8263	1369.7206	10724.05	9839.1
879.9702	1371.5799	10418.25	9530.65
880.1142	1373.4384	10134.8	9249.95
880.2581	1375.2962	9871.4	8985.6
880.402	1377.1533	9522	8636.2
880.5459	1379.0096	9160.6	8275.15
880.6898	1380.8652	8812.35	7925.55
880.8337	1382.7201	8524.3	7639.45
880.9776	1384.5742	8286.4	7402.6
881.1215	1386.4275	8113.95	7229.45
881.2653	1388.2802	7937.2	7052.9
881.4092	1390.132	7827.45	6942.05
881.553	1391.9832	7764.35	6881.85
881.6968	1393.8336	7670.85	6786.7
881.8406	1395.6832	7627.7	6742.35
881.9844	1397.5322	7590.35	6705.15
882.1282	1399.3803	7563.6	6675.7
882.272	1401.2278	7513.95	6628.1
882.4158	1403.0745	7512.15	6630.3
882.5595	1404.9204	7456.4	6573.65
882.7033	1406.7656	7468.45	6584.45
882.847	1408.6101	7487.75	6603.25
882.9908	1410.4538	7501.25	6618.5
883.1345	1412.2968	7534.95	6649.5
883.2782	1414.139	7576.8	6693.9
883.4219	1415.9805	7660.65	6776.5
883.5656	1417.8213	7706.05	6814.55
883.7092	1419.6613	7825.65	6942.7
883.8529	1421.5006	7985.4	7099
883.9965	1423.3391	8158.3	7273.85
884.1402	1425.1769	8437.75	7552.25
884.2838	1427.0139	8868.05	7983.05
884.4274	1428.8502	9393.35	8506.95
884.571	1430.6858	9919.9	9035.35
884.7146	1432.5206	10300.8	9415.8
884.8582	1434.3547	10506.25	9621.1
885.0018	1436.188	10562.9	9678.25
885.1453	1438.0206	10446.3	9559.4
885.2889	1439.8524	10278.25	9392.55
885.4324	1441.6835	10171.95	9285.9
885.5759	1443.5139	10063.7	9174.45
885.7194	1445.3435	9996.5	9112
885.8629	1447.1724	9946.35	9062.85
886.0064	1449.0005	9950.9	9065.35
886.1499	1450.8279	9872.35	8987.85
886.2933	1452.6545	9876	8990.85
886.4368	1454.4804	9893.9	9010.8
886.5802	1456.3056	9886.4	8993.2
886.7237	1458.13	9833.7	8950.5
886.8671	1459.9536	9634.35	8750
887.0105	1461.7766	9403.6	8518.95
887.1539	1463.5987	9106.35	8219.3
887.2972	1465.4202	8773.55	7888.35
887.4406	1467.2409	8467.1	7582.35
887.584	1469.0608	8194.4	7311.45
887.7273	1470.88	7930.4	7045.25
887.8706	1472.6984	7685.1	6800.35
888.0139	1474.5161	7479.15	6590.35
888.1572	1476.3331	7346	6463.55
888.3005	1478.1493	7235	6349
888.4438	1479.9648	7139.4	6255.95
888.5871	1481.7795	7082.75	6199.75
888.7303	1483.5935	7009.3	6127.5
888.8736	1485.4067	6965.1	6080.4
889.0168	1487.2192	6917.7	6033.9
889.16	1489.031	6879.65	5990.8
889.3032	1490.842	6846.1	5962.2
889.4464	1492.6522	6810.55	5926
889.5896	1494.4618	6763	5880.25
889.7327	1496.2705	6740.45	5857.5
889.8759	1498.0785	6690.45	5807.8
890.019	1499.8858	6656.5	5771.35
890.1622	1501.6924	6585.7	5704.15
890.3053	1503.4981	6571.35	5688.8
890.4484	1505.3032	6553.9	5670.3
890.5914	1507.1075	6502.3	5616.5
890.7345	1508.911	6460.1	5577.4
890.8776	1510.7138	6418.9	5535.85
891.0206	1512.5159	6363.2	5481.4
891.1637	1514.3172	6330.85	5445.3
891.3067	1516.1178	6277.8	5395.1
891.4497	1517.9176	6248.5	5361.85
891.5927	1519.7166	6210.7	5328.85
891.7357	1521.515	6195.5	5303.9
891.8786	1523.3126	6153	5269.55
892.0216	1525.1094	6136.95	5250.3
892.1645	1526.9055	6131.75	5248.7
892.3074	1528.7008	6094.7	5208.85
892.4503	1530.4954	6057.55	5173.95
892.5932	1532.2893	6056.7	5173.9
892.7361	1534.0824	6025	5138.15
892.879	1535.8747	6032.3	5148
893.0218	1537.6663	6021.55	5136.05
893.1647	1539.4572	6023.5	5139.4
893.3075	1541.2473	6022.25	5137.5
893.4503	1543.0367	6010.45	5129.9
893.5931	1544.8253	6026.35	5137.45
893.7359	1546.6132	6052.5	5163.6
893.8787	1548.4003	6089.8	5197.2
894.0214	1550.1867	6150.2	5257.4
894.1642	1551.9723	6199.5	5310.35
894.3069	1553.7572	6280.2	5396.45
894.4496	1555.5414	6393.95	5507.65
894.5923	1557.3247	6538.7	5656
894.735	1559.1074	6701	5815.45
894.8777	1560.8893	6894.65	6013.55
895.0204	1562.6705	7078.95	6193.75
895.163	1564.4509	7221.75	6338.05
895.3056	1566.2305	7289.4	6407.45
895.4482	1568.0094	7355.15	6470.05
895.5908	1569.7876	7345	6460.1
895.7334	1571.565	7319.65	6437.4
895.876	1573.3417	7310.9	6427.35
896.0186	1575.1176	7315.3	6432.7
896.1611	1576.8928	7331.55	6444.7
896.3036	1578.6672	7338.45	6455.2
896.4461	1580.4409	7332.1	6450.6
896.5886	1582.2138	7408.65	6522.85
896.7311	1583.986	7468.5	6584
896.8736	1585.7575	7558.75	6675.75
897.0161	1587.5282	7675.65	6793.35
897.1585	1589.2981	7792.95	6910.5
897.3009	1591.0673	7902.75	7018.25
897.4433	1592.8358	8017.2	7135.45
897.5857	1594.6035	8131.8	7244.15
897.7281	1596.3704	8219.95	7337.15
897.8705	1598.1366	8283.25	7401.2
898.0128	1599.9021	8385.55	7502.65
898.1551	1601.6668	8459.75	7574.9
898.2975	1603.4308	8577.9	7693
898.4398	1605.194	8740.8	7852.65
898.5821	1606.9564	8917.35	8033.65
898.7243	1608.7182	9207.05	8318.35
898.8666	1610.4791	9518.65	8634.65
899.0088	1612.2394	9828.25	8946.25
899.1511	1613.9988	10193.3	9309.7
899.2933	1615.7576	10513.8	9629.85
899.4355	1617.5156	10762.75	9873.9
899.5776	1619.2728	10818.85	9937.15
899.7198	1621.0293	10719.15	9837.55
899.862	1622.785	10490.45	9601.9
900.0041	1624.54	10133.65	9245.5
900.1462	1626.2942	9744.9	8862.25
900.2883	1628.0477	9277.7	8391.4
900.4304	1629.8005	8890.2	8004.45
900.5725	1631.5525	8532.2	7650.1
900.7145	1633.3037	8221.55	7336.65
900.8566	1635.0542	7969.95	7085.4
900.9986	1636.804	7775.2	6891.55
901.1406	1638.553	7673.9	6739.7
901.2826	1640.3013	7516.6	6633.9
901.4245	1642.0488	7471.45	6585.65
901.5665	1643.7955	7461.95	6580.3
901.7085	1645.5416	7520.65	6636.45
901.8504	1647.2868	7575	6690.6
901.9923	1649.0313	7691.5	6808.6
902.1342	1650.7751	7813.35	6929.45
902.2761	1652.5181	7995.2	7112.35
902.4179	1654.2604	8128.25	7244.9
902.5598	1656.0019	8337	7454.45
902.7016	1657.7427	8570.8	7688.25
902.8434	1659.4828	8840	7958.5
902.9852	1661.222	8985.1	8102.4
903.127	1662.9606	8975	8094.75
903.2687	1664.6984	8783.3	7900.8
903.4105	1666.4354	8387.75	7504.15
903.5522	1668.1717	7843.8	6961.1
903.6939	1669.9072	7293.3	6409.15
903.8356	1671.642	6816.45	5933.1
903.9773	1673.3761	6430.75	5551.05
904.119	1675.1094	6114.15	5229.85
904.2606	1676.8419	5859.2	4977
904.4022	1678.5737	5685.8	4804.35
904.5439	1680.3048	5550.05	4665.9
904.6855	1682.0351	5394.2	4513.8
904.827	1683.7646	5297.3	4413.5
904.9686	1685.4934	5207.05	4326.6
905.1101	1687.2215	5121.9	4240.2
905.2517	1688.9488	5060.2	4177.8
905.3932	1690.6754	4982.95	4101.2
905.5347	1692.4012	4959.3	4077
905.6761	1694.1263	4907.75	4025.8
905.8176	1695.8506	4863.35	3981.55
905.9591	1697.5742	4824.6	3943.05
906.1005	1699.297	4787.35	3906.95
906.2419	1701.0191	4744.25	3860.9
906.3833	1702.7404	4699.9	3819.85
906.5246	1704.461	4669.1	3784.05
906.666	1706.1808	4630.05	3747.2
906.8073	1707.8999	4618.55	3735
906.9487	1709.6182	4575.45	3691.95
907.09	1711.3358	4578.8	3695.1
907.2313	1713.0527	4535.25	3653.9
907.3725	1714.7688	4512.3	3624.65
907.5138	1716.4841	4485.65	3602.55
907.655	1718.1987	4492.2	3605.55
907.7962	1719.9126	4480.15	3601.65
907.9374	1721.6257	4443.25	3557.55
908.0786	1723.338	4433.35	3547.6
908.2198	1725.0496	4400.55	3517.75
908.3609	1726.7605	4386.55	3503.25
908.502	1728.4706	4372.95	3489.3
908.6431	1730.18	4357.35	3473.2
908.7842	1731.8886	4344.35	3461.25
908.9253	1733.5964	4337.6	3454
909.0664	1735.3036	4331.05	3447.1
909.2074	1737.0099	4303.2	3420.9
909.3484	1738.7156	4286.3	3405.65
909.4894	1740.4204	4256.7	3371.55
909.6304	1742.1246	4235.9	3352.2
909.7714	1743.8279	4210.1	3327.95
909.9123	1745.5306	4227.1	3343.4
910.0532	1747.2325	4193.65	3313.35
910.1941	1748.9336	4175.35	3292.4
910.335	1750.634	4154.7	3273.25
910.4759	1752.3336	4153.8	3271.15
910.6168	1754.0325	4119.05	3237.1
910.7576	1755.7307	4109.25	3226
910.8984	1757.4281	4117.25	3233.95
911.0392	1759.1247	4097.45	3205.8
911.18	1760.8206	4091.8	3205.15
911.3208	1762.5158	4095.2	3209.85
911.4615	1764.2102	4060.8	3180.65
911.6022	1765.9039	4058.55	3175.15
911.7429	1767.5968	4041.8	3159.5
911.8836	1769.289	4041.3	3157.25
912.0243	1770.9804	4013.85	3128.85
912.1649	1772.6711	4005.6	3122.5
912.3056	1774.361	4012.1	3129.85
912.4462	1776.0502	4001.85	3118.85
912.5868	1777.7386	3983.65	3098.05
912.7274	1779.4263	3991.65	3107.9
912.8679	1781.1132	3979.45	3097.55
913.0084	1782.7994	3971.4	3084.95
913.149	1784.4849	3962.9	3081.15
913.2895	1786.1696	3973.05	3072
913.4299	1787.8535	3962.45	3079.7
913.5704	1789.5367	3944.05	3063.55
913.7108	1791.2192	3932.25	3050.1
913.8513	1792.9009	3912.3	3014.45
913.9917	1794.5818	3907.1	3024.8
914.132	1796.2621	3907.15	3024.15
914.2724	1797.9415	3895.3	3013.5
914.4128	1799.6202	3885.15	3003.6
914.5531	1801.2982	3874.8	2991.5
914.6934	1802.9755	3854.9	2970.25
914.8337	1804.6519	3863.65	2982.85
914.9739	1806.3277	3845	2964.45
915.1142	1808.0027	3828.1	2946.3
915.2544	1809.6769	3828.35	2945.7
915.3946	1811.3504	3819.7	2935.95
915.5348	1813.0231	3828.6	2945.4
915.675	1814.6951	3809.35	2927.8
915.8151	1816.3664	3815.35	2929.4
915.9553	1818.0369	3806.95	2924.35
916.0954	1819.7067	3799.6	2918.1
916.2355	1821.3757	3797.6	2913.7
916.3755	1823.044	3784.65	2903.65
916.5156	1824.7115	3778.3	2897.7
916.6556	1826.3783	3763	2882.45
916.7956	1828.0443	3762.6	2881.3
916.9356	1829.7096	3746.45	2860.45
917.0756	1831.3741	3753.45	2870.15
917.2155	1833.0379	3742.95	2859.85
917.3555	1834.701	3720.25	2835.85
917.4954	1836.3633	3722.5	2840.05
917.6353	1838.0248	3717.45	2834.95
917.7751	1839.6856	3713.45	2830.85
917.915	1841.3457	3715.9	2834.7
918.0548	1843.005	3715.45	2833.55
918.1946	1844.6636	3699	2819.2
918.3344	1846.3214	3690.9	2807.8
918.4742	1847.9785	3699.95	2821.2
918.6139	1849.6349	3689.45	2807
918.7537	1851.2904	3682.25	2791.65
918.8934	1852.9453	3659	2777.65
919.0331	1854.5994	3654.35	2768.25
919.1727	1856.2528	3669.6	2783.6
919.3124	1857.9054	3662.95	2779.5
919.452	1859.5572	3637.1	2755.6
919.5916	1861.2083	3644.6	2761.8
919.7312	1862.8587	3641.9	2761.2
919.8708	1864.5084	3622.7	2740.25
920.0103	1866.1572	3611.6	2732.2
920.1498	1867.8054	3601.9	2720.1
920.2893	1869.4528	3603.05	2722.2
920.4288	1871.0994	3592.75	2711.6
920.5683	1872.7453	3589.5	2704.75
920.7077	1874.3905	3600.35	2700.4
920.8471	1876.0349	3568.1	2686.3
920.9865	1877.6786	3562.5	2678.05
921.1259	1879.3215	3553.55	2673.45
921.2653	1880.9637	3553.6	2670.6
921.4046	1882.6051	3554.85	2672.9
921.5439	1884.2458	3552.35	2667.35
921.6832	1885.8858	3537.55	2657.1
921.8225	1887.525	3529.9	2646.2
921.9617	1889.1634	3529.85	2648.85
922.101	1890.8011	3527.8	2644.95
922.2402	1892.4381	3513.2	2631.15
922.3794	1894.0743	3508.15	2627.45
922.5185	1895.7098	3500.8	2616.75
922.6577	1897.3446	3501.9	2619.3
922.7968	1898.9786	3496.4	2612.2
922.9359	1900.6118	3474.65	2593.75
923.075	1902.2443	3459.8	2575.15
923.214	1903.8761	3458.15	2577.15
923.3531	1905.5071	3447.15	2563.05
923.4921	1907.1374	3446.6	2563.9
923.6311	1908.7669	3434.2	2552.95
923.77	1910.3957	3432.2	2551.1
923.909	1912.0237	3414.6	2530.95
924.0479	1913.651	3400.1	2516.75
924.1868	1915.2776	3401.2	2520.2
924.3257	1916.9034	3391.5	2510
924.4646	1918.5285	3384.15	2503.9
924.6034	1920.1528	3370	2487.1
924.7422	1921.7764	3380.6	2499.95
924.881	1923.3992	3362.25	2479.85
925.0198	1925.0213	3349.65	2467.05
925.1586	1926.6427	3332.8	2454.75
925.2973	1928.2633	3412.3	2427.4
925.436	1929.8832	3337.9	2452.65
925.5747	1931.5023	3318.45	2436.95
925.7134	1933.1207	3321.4	2437.65
925.852	1934.7383	3304.1	2420.6
925.9906	1936.3552	3295.2	2413.45
926.1292	1937.9714	3295.65	2411.35
926.2678	1939.5868	3268.8	2385.5
926.4064	1941.2015	3271.75	2389.15
926.5449	1942.8154	3254.8	2370.5
926.6834	1944.4286	3254.25	2373.3
926.8219	1946.041	3259.5	2355.25
926.9604	1947.6528	3228.7	2342.7
927.0988	1949.2637	3229.25	2347.85
927.2372	1950.8739	3219.15	2336.2
927.3756	1952.4834	3206.1	2324.5
927.514	1954.0921	3209.8	2325.95
927.6523	1955.7001	3193.25	2306.25
927.7907	1957.3074	3189.6	2309.05
927.929	1958.9139	3177.3	2294
928.0673	1960.5197	3176.05	2295.05
928.2055	1962.1247	3167	2285.4
928.3438	1963.729	3152.15	2273.15
928.482	1965.3325	3157.4	2252.45
928.6202	1966.9353	3148.6	2267
928.7584	1968.5374	3137.1	2253.8
928.8965	1970.1387	3119.15	2236.8
929.0346	1971.7393	3108.85	2227.2
929.1727	1973.3392	3096.95	2215.25
929.3108	1974.9383	3088.3	2206.1
929.4489	1976.5366	3088.5	2207.6
929.5869	1978.1342	3081.3	2196.6
929.7249	1979.7311	3081.15	2199.25
929.8629	1981.3273	3075.4	2193.95
930.0009	1982.9227	3068.8	2184.05
930.1388	1984.5173	3064.05	2183
930.2767	1986.1112	3054.5	2173.7
930.4146	1987.7044	3048.1	2165.65
930.5525	1989.2968	3045.4	2164.1
930.6904	1990.8885	3045.2	2159.1
930.8282	1992.4795	3031.8	2146.5
930.966	1994.0697	3033.05	2151.3
931.1038	1995.6592	3015.35	2131.7
931.2415	1997.2479	3013.05	2130.95
931.3793	1998.8359	3012.1	2130.4
931.517	2000.4232	2994.15	2114.05
931.6547	2002.0097	2985.8	2105.45
931.7923	2003.5955	2988.85	2105.45
931.93	2005.1805	2986.25	2104
932.0676	2006.7648	2993	2110.85
932.2052	2008.3484	2971.1	2087.45
932.3427	2009.9312	2969.15	2084.3
932.4803	2011.5133	2950.25	2069.9
932.6178	2013.0946	2949.85	2068.45
932.7553	2014.6752	2935.85	2052.45
932.8928	2016.2551	2944.65	2063
933.0302	2017.8342	2931.3	2050.35
933.1676	2019.4126	2920.3	2039.2
933.305	2020.9902	2920.5	2039.85
933.4424	2022.5672	2938.4	2053.45
933.5798	2024.1433	2919.6	2031.25
933.7171	2025.7188	2912.45	2031.55
933.8544	2027.2935	2894	2010.4
933.9917	2028.8674	2889.8	2011.15
934.129	2030.4406	2893.95	2011.5
934.2662	2032.0131	2882.55	2000.85
934.4034	2033.5849	2875.95	1989.6
934.5406	2035.1559	2876.25	1995.35
934.6778	2036.7261	2867.65	1987.3
934.8149	2038.2957	2868.55	1986.35
934.952	2039.8645	2851.45	1969.75
935.0891	2041.4325	2858.5	1974.5
935.2262	2042.9998	2849.25	1965.1
935.3632	2044.5664	2848.25	1966.35
935.5002	2046.1323	2845.7	1965.45
935.6372	2047.6974	2832.1	1952.4
935.7742	2049.2617	2829.5	1946.6
935.9111	2050.8254	2853.65	1936.35
936.048	2052.3883	2823.15	1941
936.1849	2053.9504	2806.8	1924.85
936.3218	2055.5118	2803.2	1922.75
936.4586	2057.0725	2799.85	1913.4
936.5955	2058.6325	2787.55	1904.15
936.7323	2060.1917	2785.25	1903.15
936.869	2061.7502	2784.3	1899.25
937.0058	2063.3079	2776.1	1894
937.1425	2064.8649	2772.2	1886.75
937.2792	2066.4212	2783.65	1900.75
937.4159	2067.9767	2764.7	1882.95
937.5525	2069.5315	2751.4	1868.65
937.6891	2071.0856	2748.45	1867.65
937.8257	2072.6389	2751.9	1867.45
937.9623	2074.1915	2737.15	1855.2
938.0989	2075.7433	2730.9	1847.95
938.2354	2077.2945	2724.15	1842
938.3719	2078.8448	2715.2	1832.55
938.5084	2080.3945	2710.35	1827.25
938.6448	2081.9434	2701.55	1821.15
938.7812	2083.4916	2698.4	1816.2
938.9176	2085.039	2692	1809.55
939.054	2086.5857	2691	1807
939.1903	2088.1317	2682.9	1800.6
939.3267	2089.677	2689	1805.8
939.463	2091.2215	2672.7	1790.7
939.5992	2092.7652	2665.5	1781.9
939.7355	2094.3083	2665.65	1781.45
939.8717	2095.8506	2654.95	1773.55
940.0079	2097.3921	2662.5	1783.15
940.1441	2098.933	2655.9	1772.25
940.2802	2100.4731	2647.55	1767.35
940.4163	2102.0124	2659.4	1759.95
940.5524	2103.5511	2647.8	1767.15
940.6885	2105.089	2636.55	1751.8
940.8245	2106.6261	2640.05	1758.7
940.9606	2108.1626	2639.3	1756.6
941.0965	2109.6983	2653.7	1742.15
941.2325	2111.2332	2632.95	1748.1
941.3684	2112.7675	2621	1736.95
941.5044	2114.301	2619.95	1735.4
941.6403	2115.8337	2620.25	1737.25
941.7761	2117.3657	2609.05	1727.2
941.912	2118.897	2602.65	1720.65
942.0478	2120.4276	2604.8	1717.6
942.1835	2121.9575	2595.1	1713.45
942.3193	2123.4866	2606.7	1710.75
942.455	2125.0149	2583.4	1698.7
942.5907	2126.5426	2582.45	1699.9
942.7264	2128.0695	2577.6	1692.75
942.8621	2129.5956	2567.3	1685.9
942.9977	2131.1211	2574.85	1689.95
943.1333	2132.6458	2558.75	1677.6
943.2689	2134.1698	2557.4	1674.45
943.4044	2135.693	2547.75	1663.1
943.54	2137.2155	2544.8	1662
943.6755	2138.7373	2546.55	1664.4
943.8109	2140.2584	2532.7	1650.95
943.9464	2141.7787	2536.45	1647
944.0818	2143.2983	2518.8	1638.3
944.2172	2144.8171	2517.3	1636.15
944.3526	2146.3353	2507.55	1622.65
944.4879	2147.8527	2504.05	1622.55
944.6232	2149.3693	2506.75	1623.45
944.7585	2150.8853	2490.8	1609.35
944.8938	2152.4005	2489.85	1608.2
945.029	2153.9149	2485.8	1604.4
945.1642	2155.4287	2485.4	1603.7
945.2994	2156.9417	2482.25	1598.6
945.4346	2158.454	2478.55	1595.5
945.5697	2159.9655	2473.1	1590.2
945.7048	2161.4764	2473.55	1590.85
945.8399	2162.9865	2457.45	1575.2
945.9749	2164.4958	2466.75	1582.85
946.1099	2166.0045	2472.05	1586.4
946.2449	2167.5124	2458.5	1576.75
946.3799	2169.0195	2452.5	1569.8
946.5148	2170.526	2452.75	1570.9
946.6498	2172.0317	2449.25	1565.95
946.7846	2173.5367	2442.9	1561.3
946.9195	2175.0409	2440.4	1556.9
947.0543	2176.5445	2435.2	1555.2
947.1891	2178.0473	2443.6	1562.15
947.3239	2179.5494	2420.15	1534.25
947.4587	2181.0507	2417.35	1535.85
947.5934	2182.5513	2423.45	1539.5
947.7281	2184.0512	2411.2	1530.3
947.8628	2185.5504	2408.8	1526.9
947.9974	2187.0488	2399.15	1516.7
948.132	2188.5465	2397.65	1516
948.2666	2190.0435	2392.4	1508.35
948.4012	2191.5397	2389.35	1508.3
948.5357	2193.0353	2390.1	1506.25
948.6702	2194.5301	2377.35	1494.55
948.8047	2196.0241	2365.7	1483.85
948.9392	2197.5175	2369.1	1486.75
949.0736	2199.0101	2364.6	1479.65
949.208	2200.502	2362.75	1482.9
949.3424	2201.9931	2346.45	1465.5
949.4767	2203.4835	2344.4	1460.55
949.611	2204.9733	2354.4	1464.75
949.7453	2206.4622	2343.7	1462.35
949.8796	2207.9505	2339.35	1453.8
950.0138	2209.438	2324.3	1444.4
950.148	2210.9248	2306.35	1422.55
950.2822	2212.4109	2317.7	1436.15
950.4164	2213.8962	2312.5	1427.55
950.5505	2215.3809	2313.35	1432.05
950.6846	2216.8648	2302.85	1421.25
950.8186	2218.3479	2313.15	1427.05
950.9527	2219.8304	2295.8	1412.95
951.0867	2221.3121	2289.2	1404.45
951.2207	2222.7931	2279.85	1400.45
951.3546	2224.2733	2277.95	1393.8
951.4886	2225.7529	2275.5	1395.3
951.6225	2227.2317	2278.55	1394.4
951.7563	2228.7098	2274.9	1392.65
951.8902	2230.1872	2255.9	1375.6
952.024	2231.6638	2264	1380.65
952.1578	2233.1397	2263	1375.3
952.2916	2234.6149	2254.5	1371.5
952.4253	2236.0894	2245.95	1362.1
952.559	2237.5632	2258.25	1368.25
952.6927	2239.0362	2237.75	1357
952.8263	2240.5085	2231.9	1349.1
952.9599	2241.9801	2222.2	1340.65
953.0935	2243.4509	2229.85	1346.7
953.2271	2244.921	2215	1333.15
953.3606	2246.3904	2211.45	1326.3
953.4941	2247.8591	2206.7	1324.45
953.6276	2249.3271	2215.8	1333.25
953.7611	2250.7943	2196.65	1313.4
953.8945	2252.2608	2193.4	1310
954.0279	2253.7266	2183.75	1303.8
954.1612	2255.1917	2192.3	1308.9
954.2946	2256.656	2183	1299.95
954.4279	2258.1197	2179.4	1297.6
954.5612	2259.5826	2178.05	1294.85
954.6944	2261.0447	2182.05	1298.4
954.8276	2262.5062	2168.95	1287.6
954.9608	2263.9669	2165.7	1281.5
955.094	2265.4269	2160	1279.6
955.2271	2266.8862	2162.1	1280.2
955.3602	2268.3448	2158.7	1274.75
955.4933	2269.8026	2162.1	1281.35
955.6264	2271.2598	2149.05	1265.7
955.7594	2272.7162	2148.05	1269
955.8924	2274.1719	2134.55	1252.05
956.0253	2275.6268	2136.55	1255.8
956.1583	2277.0811	2136.9	1254.65
956.2912	2278.5346	2133.45	1250.9
956.4241	2279.9874	2133.9	1250.25
956.5569	2281.4395	2135.6	1252.55
956.6897	2282.8908	2140.2	1253.9
956.8225	2284.3414	2137.7	1252.1
956.9553	2285.7914	2120.25	1238.35
957.088	2287.2406	2123.4	1238.9
957.2207	2288.689	2118.75	1237.35
957.3534	2290.1368	2119.15	1234.7
957.486	2291.5838	2109.85	1226.05
957.6186	2293.0302	2106.3	1224.35
957.7512	2294.4758	2101.7	1220.95
957.8838	2295.9206	2089.65	1206.95
958.0163	2297.3648	2089.85	1208.2
958.1488	2298.8082	2084.45	1201.45
958.2813	2300.251	2083.35	1201.6
958.4137	2301.693	2089.85	1204.85
958.5461	2303.1343	2085.9	1203.3
958.6785	2304.5748	2076.65	1194.5
958.8108	2306.0147	2069.2	1186.6
958.9432	2307.4538	2088.1	1204.2
959.0754	2308.8922	2064.95	1183.8
959.2077	2310.3299	2077.4	1197.8
959.3399	2311.7669	2056.3	1173.7
959.4721	2313.2031	2064.25	1182.2
959.6043	2314.6387	2060.6	1178.7
959.7365	2316.0735	2053.7	1174.05
959.8686	2317.5076	2051.05	1168.05
960.0006	2318.941	2048.45	1165.8
960.1327	2320.3737	2045.8	1163.15
960.2647	2321.8056	2046.35	1163.05
960.3967	2323.2369	2036.95	1154
960.5287	2324.6674	2029.9	1145.35
960.6606	2326.0972	2024	1140.05
960.7925	2327.5263	2033.05	1151.55
960.9244	2328.9547	2033.9	1151.6
961.0562	2330.3823	2029.9	1146.65
961.1881	2331.8092	2021.95	1136.05
961.3198	2333.2355	2011.75	1127.25
961.4516	2334.661	2004.8	1123.4
961.5833	2336.0858	2010.25	1126.55
961.715	2337.5098	1994.95	1112.75
961.8467	2338.9332	1996.05	1114.85
961.9783	2340.3558	1999.95	1114.55
962.1099	2341.7778	1995.5	1112.75
962.2415	2343.199	1992.75	1107.95
962.373	2344.6195	1993.3	1111.8
962.5045	2346.0393	1989.5	1106.5
962.636	2347.4583	1986.6	1104.65
962.7675	2348.8767	1982.6	1100.35
962.8989	2350.2943	1969	1086.4
963.0303	2351.7113	1985.95	1102.3
963.1617	2353.1275	1973.3	1093
963.293	2354.543	2001.9	1096.8
963.4243	2355.9578	1976.9	1094.85
963.5556	2357.3718	1964.7	1083.7
963.6868	2358.7852	1960.6	1076.05
963.818	2360.1978	1958.05	1075.35
963.9492	2361.6098	1959.65	1077.45
964.0803	2363.021	1958.75	1073.35
964.2114	2364.4315	1956.65	1074.15
964.3425	2365.8413	1950.1	1065.35
964.4736	2367.2504	1945	1064.4
964.6046	2368.6587	1947.05	1064.85
964.7356	2370.0664	1938.95	1055.55
964.8666	2371.4733	1935	1054.05
964.9975	2372.8795	1926.85	1044.35
965.1284	2374.285	1932.3	1050
965.2593	2375.6899	1918.85	1038.3
965.3901	2377.0939	1924	1042
965.5209	2378.4973	1920.2	1039.85
965.6517	2379.9	1919.9	1039.45
965.7825	2381.3019	1916.25	1035.75
965.9132	2382.7032	1913.45	1030.4
966.0439	2384.1037	1912.3	1030.95
966.1745	2385.5035	1909.55	1028.65
966.3051	2386.9027	1893.2	1010.95
966.4357	2388.3011	1900.45	1015.4
966.5663	2389.6987	1902.15	1019
966.6968	2391.0957	1883.65	1000.5
966.8273	2392.492	1880.75	1000.95
966.9578	2393.8876	1886.55	1005.95
967.0882	2395.2824	1868.95	986.45
967.2186	2396.6765	1869.5	989.1
967.349	2398.07	1865.1	985.7
967.4793	2399.4627	1868.2	987.3
967.6097	2400.8547	1864.05	982.25
967.7399	2402.246	1862.25	974.1
967.8702	2403.6366	1855.6	975.05
968.0004	2405.0265	1849.65	966.2
968.1306	2406.4156	1862.65	976.7
968.2607	2407.8041	1855.1	971.55
968.3909	2409.1918	1856.65	973.15
968.521	2410.5789	1837.75	956.8
968.651	2411.9652	1845.6	961.7
968.781	2413.3508	1839.25	958
968.911	2414.7358	1833.2	950.8
969.041	2416.12	1836.8	956.5
969.1709	2417.5035	1822.3	939.6
969.3008	2418.8863	1829.8	947.15
969.4307	2420.2684	1830.3	945.95
969.5606	2421.6497	1829.25	947.35
969.6904	2423.0304	1821.45	940.65
969.8201	2424.4104	1805.2	923.65
969.9499	2425.7896	1822.2	934.55
970.0796	2427.1682	1813.85	934.15
970.2093	2428.546	1818.35	936.4
970.3389	2429.9232	1806.15	924.9
970.4685	2431.2996	1797.05	915.45
970.5981	2432.6753	1792.2	911
970.7277	2434.0503	1790.75	907.75
970.8572	2435.4246	1798.5	918.75
970.9867	2436.7982	1790.95	906.6
971.1161	2438.1711	1795.15	915.05
971.2456	2439.5433	1793.5	910
971.375	2440.9148	1794.25	907.45
971.5043	2442.2856	1769.25	889.9
971.6336	2443.6557	1782.5	898.65
971.7629	2445.025	1769.3	886.5
971.8922	2446.3937	1774.65	891.35
972.0214	2447.7617	1770.2	888.55
972.1506	2449.1289	1762.55	881.15
972.2798	2450.4955	1769.35	884.25
972.4089	2451.8613	1760.2	880.45
972.538	2453.2265	1761.75	880.3
972.6671	2454.5909	1760.75	877.5
972.7961	2455.9546	1757.95	876.95
972.9251	2457.3177	1750.9	870.85
973.0541	2458.68	1755	871.1
973.1831	2460.0416	1747.7	866.1
973.312	2461.4025	1750.75	866.1
973.4408	2462.7627	1759.25	866.4
973.5697	2464.1222	1731.7	850.45
973.6985	2465.4811	1735.55	852.05
973.8273	2466.8392	1727.65	845.1
973.956	2468.1966	1732.8	847.6
974.0847	2469.5533	1742.25	858.2
974.2134	2470.9093	1741.95	859.25
974.3421	2472.2645	1738.25	855.5
974.4707	2473.6191	1734.5	854.45
974.5993	2474.973	1725.8	843.75
974.7278	2476.3262	1727.1	842.25
974.8563	2477.6787	1724.75	843.9
974.9848	2479.0305	1724.75	845.2
975.1132	2480.3816	1728.55	843
975.2417	2481.7319	1715.1	833.45
975.37	2483.0816	1713.3	829.4
975.4984	2484.4306	1718.15	836.55
975.6267	2485.7789	1712.95	831.5
975.755	2487.1264	1711.25	827.65
975.8833	2488.4733	1705.7	823.5
976.0115	2489.8195	1703.15	814.8
976.1397	2491.165	1701.35	816.15
976.2678	2492.5097	1696.45	811.45
976.3959	2493.8538	1695.05	812.95
976.524	2495.1972	1693.9	811.7
976.6521	2496.5398	1694.55	812.2
976.7801	2497.8818	1687.75	803.4
976.9081	2499.2231	1694.4	812.35
977.036	2500.5637	1680.45	796.85
977.164	2501.9035	1685.1	801
977.2918	2503.2427	1675.3	789.15
977.4197	2504.5812	1674.7	793.25
977.5475	2505.919	1666.05	782
977.6753	2507.256	1670.9	789.8
977.8031	2508.5924	1667.45	787.75
977.9308	2509.9281	1669.6	782.4
978.0585	2511.2631	1663	781.1
978.1861	2512.5974	1659.85	779.4
978.3137	2513.9309	1660.1	779.4
978.4413	2515.2638	1683.3	771.25
978.5689	2516.596	1655.1	773.25
978.6964	2517.9275	1654.45	772.2
978.8239	2519.2583	1655.6	772.25
978.9513	2520.5884	1646.2	763.05
979.0788	2521.9178	1639.85	756.6
979.2062	2523.2465	1638.7	756.3
979.3335	2524.5745	1638.8	755.45
979.4608	2525.9018	1638.8	757.8
979.5881	2527.2284	1640.35	758.85
979.7154	2528.5543	1636.9	756.45
979.8426	2529.8796	1627.2	744.4
979.9698	2531.2041	1635.1	754.6
980.0969	2532.5279	1636.15	754.4
980.224	2533.851	1631.1	748.4
980.3511	2535.1735	1638.75	756.9
980.4781	2536.4952	1628	745.05
980.6052	2537.8163	1619.95	736.95
980.7321	2539.1366	1621.45	740.55
980.8591	2540.4562	1623.55	739.15
980.986	2541.7752	1623.25	741.1
981.1129	2543.0935	1621.6	739.95
981.2397	2544.411	1619.7	737.4
981.3665	2545.7279	1618.25	736.3
981.4933	2547.0441	1625.2	741.85
981.62	2548.3596	1624.05	738.55
981.7467	2549.6744	1617.8	737.05
981.8734	2550.9885	1623.7	734.55
982.0001	2552.3019	1617.9	737.45
982.1267	2553.6146	1607.9	724.25
982.2532	2554.9266	1610.9	728.7
982.3798	2556.2379	1611.3	729.2
982.5063	2557.5485	1606.4	725.95
982.6327	2558.8585	1614.4	724.7
982.7592	2560.1677	1603.1	718.8
982.8856	2561.4762	1602.75	720.85
983.0119	2562.7841	1608.95	724.2
983.1383	2564.0913	1588.3	707.2
983.2646	2565.3977	1597.85	716
983.3908	2566.7035	1593.6	710.75
983.517	2568.0086	1604.8	720.9
983.6432	2569.313	1592.3	712.4
983.7694	2570.6167	1598.05	714.55
983.8955	2571.9197	1585.6	706.85
984.0216	2573.222	1594.75	708.6
984.1476	2574.5236	1592.95	710.7
984.2737	2575.8246	1588.1	703.7
984.3996	2577.1248	1586.7	700.25
984.5256	2578.4244	1590.35	709
984.6515	2579.7232	1586.8	704.4
984.7774	2581.0214	1614.8	700.55
984.9032	2582.3189	1589.95	708.7
985.029	2583.6157	1589.1	702.4
985.1548	2584.9118	1580.75	698.1
985.2806	2586.2072	1583.8	703.55
985.4063	2587.5019	1580.75	698.5
985.5319	2588.7959	1574.9	692.8
985.6576	2590.0893	1585.55	701.85
985.7832	2591.3819	1582.05	702.05
985.9087	2592.6739	1585.05	704.3
986.0343	2593.9652	1582.9	698.45
986.1597	2595.2557	1577.6	694.5
986.2852	2596.5456	1586.35	703
986.4106	2597.8348	1582.25	702.95
986.536	2599.1234	1581.05	699.7
986.6614	2600.4112	1580.35	696.05
986.7867	2601.6983	1582.1	695.7
986.912	2602.9848	1583.95	701.55
987.0372	2604.2705	1582.75	695.55
987.1624	2605.5556	1577.75	695.65
987.2876	2606.84	1580.9	698.5
987.4128	2608.1237	1571.5	688.2
987.5379	2609.4067	1575.7	695.15
987.6629	2610.689	1578.15	687.8
987.788	2611.9707	1566.5	682.85
987.913	2613.2516	1564.8	678.8
988.0379	2614.5319	1561.4	679.5
988.1629	2615.8115	1547.75	665.2
988.2878	2617.0903	1547.9	664.95
988.4126	2618.3685	1548.4	665.4
988.5375	2619.6461	1547.65	667.1
988.6622	2620.9229	1546.95	666.25
988.787	2622.199	1557.5	675.6
988.9117	2623.4745	1541.15	659.4
989.0364	2624.7493	1544.15	663.6
989.161	2626.0234	1529	646.75
989.2857	2627.2968	1541	659.65
989.4102	2628.5695	1542.05	656.8
989.5348	2629.8415	1538.4	656.95
989.6593	2631.1128	1536.9	655.5
989.7837	2632.3835	1531.7	650.7
989.9082	2633.6535	1538.2	656.05
990.0326	2634.9228	1530.4	650.3
990.1569	2636.1914	1528.05	648.9
990.2812	2637.4593	1524.55	641.05
990.4055	2638.7265	1529	644.85
990.5298	2639.9931	1522.85	643.45
990.654	2641.259	1520.85	638
990.7782	2642.5242	1526.9	642.9
990.9023	2643.7887	1515.1	632.4
991.0264	2645.0525	1513.9	632.75
991.1505	2646.3156	1510.7	628
991.2745	2647.5781	1512.25	630.4
991.3985	2648.8398	1509.9	628.85
991.5225	2650.1009	1545.9	626.7
991.6464	2651.3613	1506.1	624.05
991.7703	2652.6211	1502	619.6
991.8942	2653.8801	1500.6	619.9
992.018	2655.1385	1512.05	626.55
992.1418	2656.3961	1509.3	628.1
992.2655	2657.6531	1503	621.1
992.3892	2658.9094	1504.95	623.3
992.5129	2660.1651	1501.95	621.2
992.6366	2661.42	1499.6	618.55
992.7602	2662.6743	1506.3	624.9
992.8837	2663.9279	1503.6	622.1
993.0073	2665.1808	1502.6	619.5
993.1307	2666.433	1512.35	631.05
993.2542	2667.6846	1507.65	626.2
993.3776	2668.9354	1514.05	629.9
993.501	2670.1856	1511.7	628.3
993.6244	2671.4351	1522	641.35
993.7477	2672.6839	1515.6	631.45
993.8709	2673.9321	1520.4	640.2
993.9942	2675.1795	1517.25	635.6
994.1174	2676.4263	1517.3	635.4
994.2405	2677.6724	1525.05	644.15
994.3637	2678.9179	1520.6	637.6
994.4868	2680.1626	1521.15	641
994.6098	2681.4067	1517.6	636.5
994.7328	2682.6501	1514.75	632.15
994.8558	2683.8928	1508.6	627.35
994.9788	2685.1348	1510.5	630.4
995.1017	2686.3761	1501	618.4
995.2245	2687.6168	1498	619.1
995.3474	2688.8568	1499.55	617.4
995.4702	2690.0961	1497.15	617.85
995.5929	2691.3348	1493.7	613
995.7156	2692.5727	1494.4	612.1
995.8383	2693.81	1486.55	605.4
995.961	2695.0466	1483.45	602.7
996.0836	2696.2826	1488.55	606.35
996.2062	2697.5178	1488.05	602.4
996.3287	2698.7524	1483.55	602.2
996.4512	2699.9863	1492.95	608.6
996.5737	2701.2195	1486.75	606.4
996.6961	2702.452	1496.5	613.05
996.8185	2703.6839	1500.05	616.4
996.9408	2704.9151	1500.9	620.3
997.0631	2706.1456	1507.05	623.8
997.1854	2707.3755	1508.55	626.25
997.3077	2708.6046	1519.5	636.9
997.4299	2709.8331	1523.7	642
997.552	2711.0609	1528.2	644.65
997.6742	2712.2881	1533.05	651.7
997.7963	2713.5145	1534.35	650.15
997.9183	2714.7403	1548.15	666.9
998.0403	2715.9654	1551.35	668.9
998.1623	2717.1899	1573.75	676.25
998.2842	2718.4136	1565.2	683.55
998.4062	2719.6367	1583.25	701.1
998.528	2720.8591	1611.3	724.7
998.6498	2722.0809	1608.05	724.9
998.7716	2723.3019	1616.55	732.95
998.8934	2724.5223	1620.55	737.95
999.0151	2725.7421	1639.85	758.75
999.1368	2726.9611	1630.15	745.8
999.2584	2728.1795	1632.15	743.9
999.38	2729.3972	1617.2	734.8
999.5016	2730.6142	1623.8	728.15
999.6231	2731.8306	1605.6	723.1
999.7446	2733.0462	1583.8	699.5
999.8661	2734.2612	1558.25	671.15
999.9875	2735.4756	1548.7	665.55
1000.1089	2736.6892	1528.75	646.1
1000.2302	2737.9022	1522.8	642.4
1000.3515	2739.1145	1508.1	627.7
1000.4728	2740.3262	1502.1	611.7
1000.594	2741.5372	1487.65	608.35
1000.7152	2742.7475	1481.15	601
1000.8363	2743.9571	1471.55	588.25
1000.9575	2745.1661	1463.65	577.55
1001.0785	2746.3744	1458.1	575.8
1001.1996	2747.582	1448.3	566.05
1001.3206	2748.7889	1440	556.5
1001.4415	2749.9952	1424	543.85
1001.5625	2751.2008	1433.05	548.3
1001.6833	2752.4057	1421.7	537.2
1001.8042	2753.61	1420.95	539.8
1001.925	2754.8136	1416.85	531.3
1002.0458	2756.0165	1410.15	530.1
1002.1665	2757.2188	1409.35	529.35
1002.2872	2758.4204	1411.35	528.8
1002.4078	2759.6213	1403.65	519.15
1002.5285	2760.8215	1416	527.85
1002.649	2762.0211	1410.3	527.7
1002.7696	2763.22	1412.25	524.55
1002.8901	2764.4182	1412.2	528.4
1003.0106	2765.6158	1401.75	519.25
1003.131	2766.8127	1401.4	519.65
1003.2514	2768.009	1403.25	521.3
1003.3717	2769.2045	1399.95	518.25
1003.492	2770.3994	1389.9	505.4
1003.6123	2771.5936	1389.65	508.3
1003.7325	2772.7872	1382.3	500.45
1003.8527	2773.9801	1380.1	498.95
1003.9729	2775.1723	1402.4	506.2
1004.093	2776.3639	1390.4	510.9
1004.2131	2777.5548	1377.75	494.65
1004.3331	2778.745	1386.75	504
1004.4531	2779.9346	1376.4	496.45
1004.5731	2781.1235	1383.75	498.9
1004.693	2782.3117	1386.45	504.65
1004.8129	2783.4992	1385.5	503.9
1004.9328	2784.6861	1387.2	505.65
1005.0526	2785.8723	1392.8	507.85
1005.1723	2787.0579	1390.65	508.9
1005.2921	2788.2428	1390.35	507.7
1005.4118	2789.427	1396.75	515.15
1005.5314	2790.6106	1400.35	519.2
1005.651	2791.7935	1400.75	517.7
1005.7706	2792.9757	1411.2	532.45
1005.8902	2794.1573	1422.2	537.8
1006.0097	2795.3382	1426.25	545.65
1006.1291	2796.5184	1435	553.8
1006.2485	2797.698	1443.75	559.05
1006.3679	2798.8769	1461.65	580.15
1006.4873	2800.0551	1468.8	586.8
1006.6066	2801.2327	1478.15	591.5
1006.7258	2802.4096	1490.15	609.2
1006.8451	2803.5859	1499.45	615.6
1006.9642	2804.7615	1515.15	632.55
1007.0834	2805.9364	1532.25	652.55
1007.2025	2807.1106	1551.05	669.15
1007.3216	2808.2842	1583.3	700.6
1007.4406	2809.4572	1599.95	716.9
1007.5596	2810.6294	1627.8	745.4
1007.6785	2811.801	1655.2	773.35
1007.7975	2812.972	1697.3	818.4
1007.9163	2814.1423	1726.4	843.8
1008.0352	2815.3119	1770.35	890.4
1008.154	2816.4808	1807.6	925.75
1008.2727	2817.6491	1859.75	977.7
1008.3914	2818.8167	1911.3	1031.6
1008.5101	2819.9837	1963.6	1077.7
1008.6288	2821.15	2012.45	1130.9
1008.7474	2822.3157	2071.85	1190.7
1008.8659	2823.4807	2125.2	1242.35
1008.9844	2824.645	2174.05	1289.85
1009.1029	2825.8086	2235.55	1354.35
1009.2214	2826.9716	2282.6	1400.8
1009.3398	2828.134	2334.4	1453.3
1009.4581	2829.2957	2380.65	1499.25
1009.5764	2830.4567	2412.1	1532.6
1009.6947	2831.617	2447.95	1564.95
1009.813	2832.7767	2462.15	1582.8
1009.9312	2833.9358	2461.2	1580.25
1010.0493	2835.0941	2441.35	1557.5
1010.1675	2836.2519	2433.8	1552.8
1010.2855	2837.4089	2422.25	1540.1
1010.4036	2838.5653	2402.4	1522.85
1010.5216	2839.7211	2371.8	1490.7
1010.6396	2840.8761	2378.25	1495.45
1010.7575	2842.0306	2379.25	1499.6
1010.8754	2843.1843	2403.95	1520.55
1010.9932	2844.3374	2416	1534.75
1011.111	2845.4899	2461.25	1578.45
1011.2288	2846.6417	2505.75	1623.85
1011.3465	2847.7928	2563.35	1680.25
1011.4642	2848.9433	2612.3	1730.1
1011.5818	2850.0931	2672.25	1791.3
1011.6995	2851.2422	2738.6	1854.35
1011.817	2852.3907	2781.65	1900.25
1011.9345	2853.5385	2834.75	1951.6
1012.052	2854.6857	2913.75	2006.05
1012.1695	2855.8323	2919.9	2039.15
1012.2869	2856.9781	2954.1	2072.2
1012.4042	2858.1233	3029.75	2146.8
1012.5216	2859.2679	3066.75	2184.5
1012.6389	2860.4118	3121.05	2240.85
1012.7561	2861.555	3167.2	2281.45
1012.8733	2862.6976	3203.65	2321.7
1012.9905	2863.8395	3246.05	2362.8
1013.1076	2864.9808	3262.7	2379.65
1013.2247	2866.1214	3280.5	2401.2
1013.3417	2867.2614	3322.45	2439.95
1013.4587	2868.4007	3332.8	2449.1
1013.5757	2869.5393	3347	2462.2
1013.6926	2870.6773	3348	2464.05
1013.8095	2871.8146	3354	2469.55
1013.9263	2872.9513	3358.25	2475.45
1014.0431	2874.0874	3347.2	2465.7
1014.1599	2875.2227	3327.55	2445
1014.2766	2876.3574	3318.65	2437.8
1014.3933	2877.4915	3299.7	2418.65
1014.51	2878.6249	3272.3	2392.1
1014.6266	2879.7577	3259.1	2376.1
1014.7431	2880.8898	3248	2356.85
1014.8596	2882.0212	3224.35	2344.35
1014.9761	2883.152	3198.5	2316.9
1015.0925	2884.2821	3196.05	2315.85
1015.2089	2885.4116	3197.5	2315.55
1015.3253	2886.5405	3201	2318.75
1015.4416	2887.6686	3203.7	2316.85
1015.5579	2888.7962	3193.85	2313.7
1015.6741	2889.923	3201.5	2319.85
1015.7903	2891.0493	3229.6	2350.45
1015.9065	2892.1748	3228.85	2348.4
1016.0226	2893.2997	3240.8	2357.9
1016.1387	2894.424	3269.85	2389.8
1016.2547	2895.5476	3262.65	2382.7
1016.3707	2896.6706	3287.35	2406.35
1016.4866	2897.7929	3310.85	2429.75
1016.6025	2898.9145	3337.8	2453.7
1016.7184	2900.0355	3341.25	2458.55
1016.8342	2901.1559	3390.9	2509.15
1016.95	2902.2756	3408.45	2527.3
1017.0658	2903.3946	3442.5	2561.1
1017.1815	2904.513	3463.15	2578.65
1017.2971	2905.6308	3475.9	2595.4
1017.4127	2906.7479	3499.05	2615.95
1017.5283	2907.8643	3526.95	2643.95
1017.6439	2908.9801	3527	2644.3
1017.7594	2910.0953	3557.1	2673.55
1017.8748	2911.2098	3546.7	2661.95
1017.9902	2912.3236	3545.1	2657.65
1018.1056	2913.4368	3523.75	2638.1
1018.2209	2914.5494	3496.5	2614.6
1018.3362	2915.6613	3468.65	2580.3
1018.4515	2916.7725	3438.6	2555
1018.5667	2917.8831	3414.7	2532.5
1018.6819	2918.9931	3408.25	2525.3
1018.797	2920.1024	3358.05	2474.55
1018.9121	2921.211	3339.6	2456.7
1019.0271	2922.319	3331.4	2451.3
1019.1421	2923.4264	3317.5	2436.95
1019.2571	2924.5331	3302.45	2422.4
1019.372	2925.6391	3298.55	2417.15
1019.4869	2926.7445	3305.8	2424.35
1019.6017	2927.8493	3296.4	2415.3
1019.7165	2928.9534	3298.5	2417.2
1019.8313	2930.0569	3309.7	2424.85
1019.946	2931.1597	3307.7	2428
1020.0606	2932.2619	3334	2451.3
1020.1753	2933.3634	3318.7	2437.25
1020.2899	2934.4643	3336.05	2448.05
1020.4044	2935.5645	3317.75	2430.25
1020.5189	2936.6641	3301.7	2417
1020.6334	2937.763	3269.3	2388.4
1020.7478	2938.8613	3265.7	2383.35
1020.8622	2939.959	3218.2	2331.75
1020.9765	2941.056	3153.5	2272.45
1021.0908	2942.1523	3089.45	2208.05
1021.2051	2943.248	3020.9	2137.7
1021.3193	2944.3431	2947.95	2065.6
1021.4334	2945.4375	2854.1	1973.45
1021.5476	2946.5313	2759.2	1879.75
1021.6617	2947.6244	2667	1786.05
1021.7757	2948.7169	2564.9	1682
1021.8897	2949.8087	2488.9	1606.5
1022.0037	2950.8999	2406.4	1524.55
1022.1176	2951.9904	2321.45	1440.4
1022.2315	2953.0803	2269.9	1388.8
1022.3453	2954.1696	2211.95	1330.25
1022.4591	2955.2582	2152.25	1272.9
1022.5728	2956.3462	2113.35	1231.1
1022.6865	2957.4335	2072.8	1190.1
1022.8002	2958.5202	2050.05	1167.9
1022.9138	2959.6062	2013.25	1132.7
1023.0274	2960.6916	2001.55	1120.5
1023.141	2961.7764	1980.1	1097.5
1023.2545	2962.8605	1958.05	1074.65
1023.3679	2963.9439	1955.55	1074.95
1023.4813	2965.0267	1948.55	1065.8
1023.5947	2966.1089	1952.45	1047.2
1023.708	2967.1905	1929.8	1048.65
1023.8213	2968.2714	1923.4	1044.15
1023.9346	2969.3516	1922.2	1040.75
1024.0478	2970.4312	1933.35	1042.75
1024.1609	2971.5102	1923.5	1043.9
1024.274	2972.5885	1940.6	1061.75
1024.3871	2973.6662	1942.9	1056.4
1024.5002	2974.7432	1941.65	1060.85
1024.6132	2975.8196	1933.1	1052.2
1024.7261	2976.8954	1935.5	1054.6
1024.839	2977.9705	1923.05	1041.2
1024.9519	2979.045	1919	1038.85
1025.0647	2980.1188	1905.1	1024.05
1025.1775	2981.192	1876.05	994.8
1025.2902	2982.2645	1867.65	984.55
1025.4029	2983.3364	1846.3	964.05
1025.5156	2984.4077	1817	936.3
1025.6282	2985.4783	1808.15	922.15
1025.7407	2986.5483	1774.5	896.6
1025.8532	2987.6177	1731.35	850.55
1025.9657	2988.6864	1716.55	835.05
1026.0782	2989.7545	1687.05	803.95
1026.1906	2990.8219	1649.4	770.5
1026.3029	2991.8887	1626.5	742.8
1026.4152	2992.9548	1588.15	705.25
1026.5275	2994.0204	1559.85	679.2
1026.6397	2995.0852	1534.9	653.9
1026.7519	2996.1495	1505.95	624.75
1026.864	2997.2131	1478.1	597.55
1026.9761	2998.276	1463.5	581.45
1027.0882	2999.3383	1439.75	556.25
1027.2002	3000.4	1420.3	537.8
1027.3122	3001.4611	1405.55	524.35
1027.4241	3002.5215	1381.2	499.1
1027.536	3003.5812	1366.6	484.95
1027.6478	3004.6404	1351.3	469.35
1027.7596	3005.6989	1352.6	470.1
1027.8714	3006.7567	1331.75	450.55
1027.9831	3007.8139	1346.4	437.2
1028.0947	3008.8705	1309.45	429.75
1028.2064	3009.9264	1324.25	425.9
1028.3179	3010.9818	1304.5	422.85
1028.4295	3012.0364	1294.25	410.7
1028.541	3013.0905	1289.9	409.6
1028.6524	3014.1439	1282.35	399.8
1028.7638	3015.1966	1274.45	393.2
1028.8752	3016.2487	1275.4	393.05
1028.9865	3017.3002	1270.25	385.05
1029.0978	3018.3511	1268.6	389.3
1029.209	3019.4013	1261	380.55
1029.3202	3020.4509	1257.65	375.8
1029.4314	3021.4998	1255.85	374.5
1029.5425	3022.5481	1255.25	375.6
1029.6535	3023.5958	1251.9	369.85
1029.7645	3024.6428	1254.1	371.6
1029.8755	3025.6892	1248.35	368.3
1029.9864	3026.735	1253.5	371.75
1030.0973	3027.7802	1248.6	367.05
1030.2082	3028.8247	1247.4	367.15
1030.319	3029.8685	1255.2	372.7
1030.4297	3030.9118	1252.25	369.25
1030.5404	3031.9544	1251.25	369.4
1030.6511	3032.9963	1257.9	376.8
1030.7617	3034.0376	1259.85	378.4
1030.8723	3035.0783	1262.9	379.55
1030.9829	3036.1184	1258.15	375.55
1031.0934	3037.1578	1261.8	381.15
1031.2038	3038.1966	1265.75	381.75
1031.3142	3039.2348	1264.5	385.9
1031.4246	3040.2723	1273.65	382.25
1031.5349	3041.3092	1271.25	390.5
1031.6452	3042.3455	1261.85	380.75
1031.7554	3043.3811	1265.25	384
1031.8656	3044.4161	1262.3	379.95
1031.9758	3045.4505	1259.35	377.15
1032.0859	3046.4842	1264.3	381.85
1032.1959	3047.5173	1258.85	375.95
1032.3059	3048.5498	1254.1	374.25
1032.4159	3049.5816	1253.25	372.15
1032.5258	3050.6128	1257.2	373.5
1032.6357	3051.6434	1255.05	371.8
1032.7455	3052.6734	1243.6	361.55
1032.8553	3053.7027	1236.1	355
1032.9651	3054.7314	1240.8	360.05
1033.0748	3055.7594	1237.9	357.65
1033.1845	3056.7868	1233.65	352.5
1033.2941	3057.8136	1233.6	352.5
1033.4037	3058.8398	1231.65	351.45
1033.5132	3059.8653	1231.6	349.9
1033.6227	3060.8902	1224.3	343.45
1033.7321	3061.9145	1224.55	343.9
1033.8415	3062.9381	1225.7	345.35
1033.9509	3063.9612	1235.45	338.95
1034.0602	3064.9835	1222.55	342.05
1034.1694	3066.0053	1217.1	331.45
1034.2787	3067.0264	1206.65	327.05
1034.3878	3068.0469	1207.45	325.8
1034.497	3069.0668	1209.45	323.3
1034.6061	3070.086	1200.6	319.85
1034.7151	3071.1046	1197.05	312.85
1034.8241	3072.1226	1190.25	307.15
1034.9331	3073.1399	1179.4	298.95
1035.042	3074.1567	1176	295
1035.1508	3075.1727	1174.75	289.4
1035.2597	3076.1882	1162.25	282.55
1035.3684	3077.203	1159.9	277.85
1035.4772	3078.2173	1156.45	274.6
1035.5859	3079.2308	1151.4	266.05
1035.6945	3080.2438	1142.35	259.3
1035.8031	3081.2561	1136.1	254
1035.9117	3082.2678	1131.5	251.35
1036.0202	3083.2789	1128.95	248.4
1036.1286	3084.2893	1118.05	237.95
1036.2371	3085.2991	1115.6	234
1036.3454	3086.3083	1115.2	229.35
1036.4538	3087.3169	1108.6	227.1
1036.562	3088.3248	1105.65	222.4
1036.6703	3089.3321	1096.3	214.05
1036.7785	3090.3388	1094.15	213.3
1036.8866	3091.3449	1090.15	208.65
1036.9948	3092.3503	1090.25	205.85
1037.1028	3093.3551	1082.7	202.25
1037.2108	3094.3593	1079.25	200.6
1037.3188	3095.3629	1078.95	199.35
1037.4267	3096.3658	1081.75	199.65
1037.5346	3097.3681	1072.7	192.25
1037.6425	3098.3698	1072.6	188.55
1037.7503	3099.3708	1074.5	188.3
1037.858	3100.3713	1064.3	184.55
1037.9657	3101.3711	1066.15	182.95
1038.0734	3102.3702	1203.5	180
1038.181	3103.3688	1059.45	174.7
1038.2886	3104.3667	1053.8	171.1
1038.3961	3105.364	1054.3	174.05
1038.5036	3106.3607	1053.55	170.75
1038.611	3107.3568	1051.85	170.8
1038.7184	3108.3522	1047.25	167.8
1038.8257	3109.347	1044.8	162.25
1038.933	3110.3412	1047.55	164.2
1039.0403	3111.3348	1043.55	164.3
1039.1475	3112.3277	1041.65	161.25
1039.2547	3113.32	1038.4	156.75
1039.3618	3114.3117	1037.35	155.95
1039.4689	3115.3028	1037.45	156.5
1039.5759	3116.2932	1034.7	152
1039.6829	3117.2831	1038.95	153.4
1039.7898	3118.2723	1032.35	151.1
1039.8967	3119.2608	1029.9	148.2
1040.0035	3120.2488	1027.55	143.95
1040.1103	3121.2361	1026.6	145.3
1040.2171	3122.2229	1022.9	144.45
1040.3238	3123.209	1026.3	143.1
1040.4305	3124.1944	1019.4	137.05
1040.5371	3125.1793	1020.25	137.45
1040.6437	3126.1635	1017.4	137.05
1040.7502	3127.1471	1014.5	132.55
1040.8567	3128.1301	1016.15	135.3
1040.9631	3129.1125	1016.2	133.95
1041.0695	3130.0942	1016.15	134.5
1041.1759	3131.0753	1023.8	134.9
1041.2822	3132.0558	1013.05	128.85
1041.3884	3133.0357	1012.25	129.85
1041.4946	3134.015	1008.95	128.1
1041.6008	3134.9936	1012.95	129.95
1041.7069	3135.9716	1031.8	129.85
1041.813	3136.949	1001.4	121.15
1041.919	3137.9258	1021	121.1
1042.025	3138.902	1010.15	123.7
1042.1309	3139.8775	1004.8	121.9
1042.2368	3140.8524	1003.5	121.95
1042.3427	3141.8267	1002.55	119.7
1042.4485	3142.8004	1000.15	118.85
1042.5542	3143.7735	1004.2	116.7
1042.6599	3144.7459	999.2	116.35
1042.7656	3145.7178	997.85	114.25
1042.8712	3146.689	996.4	116.5
1042.9768	3147.6596	995.1	111.15
1043.0823	3148.6295	994.4	113.45
1043.1878	3149.5989	996.75	115.3
1043.2932	3150.5676	991.75	111.7
1043.3986	3151.5357	988.75	107.55
1043.5039	3152.5032	991.45	111.1
1043.6092	3153.4701	990.2	110.6
1043.7145	3154.4364	993.2	110.15
1043.8197	3155.402	987.95	108.1
1043.9248	3156.367	989.4	107.1
1044.03	3157.3315	1020.45	105.95
1044.135	3158.2952	987.05	105.05
1044.24	3159.2584	983.4	101.4
1044.345	3160.221	983.65	100.9
1044.4499	3161.1829	985.05	104.9
1044.5548	3162.1442	986.95	104.4
1044.6596	3163.105	984.35	101.7
1044.7644	3164.065	983.05	100.55
1044.8692	3165.0245	985.65	101.4
1044.9739	3165.9834	979.1	99.1
1045.0785	3166.9416	981.85	99.15
1045.1831	3167.8993	979.2	99.1
1045.2877	3168.8563	980.1	97.85
1045.3922	3169.8127	978.25	98.45
1045.4966	3170.7684	978.3	98.25
1045.6011	3171.7236	978.35	94.6
1045.7054	3172.6782	975.55	92.4
1045.8098	3173.6321	977.3	94.4
1045.914	3174.5854	980.35	93.4
1046.0183	3175.5381	976.7	95.7
1046.1224	3176.4902	974.95	93.85
1046.2266	3177.4417	974.55	94.35
1046.3307	3178.3926	969.2	89.15
1046.4347	3179.3428	972.2	90.75
1046.5387	3180.2924	969.25	88.8
1046.6427	3181.2415	970.35	90.15
1046.7466	3182.1899	973.9	92.7
1046.8504	3183.1377	971.4	87.95
1046.9542	3184.0848	971.15	85.6
1047.058	3185.0314	971.95	89.8
1047.1617	3185.9773	968.55	87.45
1047.2654	3186.9227	970.55	89.05
1047.369	3187.8674	970.75	89.95
1047.4726	3188.8115	974.7	88.1
1047.5761	3189.755	966.2	84.35
1047.6796	3190.6979	966.75	84.65
1047.783	3191.6402	966.5	86.4
1047.8864	3192.5818	963.05	84.45
1047.9898	3193.5229	986.5	83
1048.0931	3194.4633	966.9	85.9
1048.1963	3195.4031	962.4	82
1048.2995	3196.3423	959	78.85
1048.4027	3197.2809	965.8	85.6
1048.5058	3198.2189	965.5	83.75
1048.6089	3199.1563	967.4	78.95
1048.7119	3200.0931	962.1	82.2
1048.8148	3201.0292	959.15	79.15
1048.9178	3201.9648	963.05	81.3
1049.0206	3202.8997	963	80.2
1049.1235	3203.834	962.15	82
1049.2262	3204.7677	958.5	77.9
1049.329	3205.7008	962.6	79.3
1049.4317	3206.6333	959.55	79
1049.5343	3207.5652	959.1	76.55
1049.6369	3208.4964	958.65	77.85
1049.7394	3209.4271	955.1	75.45
1049.8419	3210.3571	955.85	73.65
1049.9444	3211.2865	953.3	72.25
1050.0468	3212.2154	957.05	76.85
1050.1491	3213.1436	957.75	71.55
1050.2514	3214.0712	964	75.2
1050.3537	3214.9982	955.35	74.5
1050.4559	3215.9246	952.4	70.7
1050.5581	3216.8503	950.95	70.7
1050.6602	3217.7755	952.7	69.8
1050.7623	3218.7001	954.8	73.6
1050.8643	3219.624	954.25	70.25
1050.9663	3220.5473	952.95	70.3
1051.0682	3221.4701	952.25	69.75
1051.1701	3222.3922	952.75	70.65
1051.2719	3223.3137	950.85	69.6
1051.3737	3224.2346	950.9	72.4
1051.4754	3225.1549	950.4	68
1051.5771	3226.0746	948.1	67.9
1051.6788	3226.9937	948.15	67.1
1051.7804	3227.9121	945.75	66.9
1051.8819	3228.83	948.9	67.4
1051.9834	3229.7473	949.35	68.85
1052.0849	3230.6639	948.25	66.75
1052.1863	3231.5799	945.5	64.35
1052.2876	3232.4954	947.8	66.95
1052.3889	3233.4102	946.1	65.4
1052.4902	3234.3244	946.15	64.2
1052.5914	3235.238	944.05	62.75
1052.6926	3236.151	969.9	63.85
1052.7937	3237.0634	944.2	63.45
1052.8948	3237.9752	942.35	60.95
1052.9958	3238.8864	944.75	62.65
1053.0968	3239.797	942.3	60.95
1053.1977	3240.7069	946.9	63.75
1053.2986	3241.6163	942.95	59.3
1053.3994	3242.5251	941	61.5
1053.5002	3243.4332	940.35	59.6
1053.6009	3244.3408	943.1	63.35
1053.7016	3245.2477	937.3	56.95
1053.8022	3246.154	940.9	60.75
1053.9028	3247.0598	938	55.1
1054.0034	3247.9649	938.25	56.95
1054.1039	3248.8694	940.6	60.65
1054.2043	3249.7733	940.1	57.45
1054.3047	3250.6766	940.15	59.9
1054.4051	3251.5793	939.7	56.8
1054.5054	3252.4814	939	60.4
1054.6056	3253.3829	934.5	52.95
1054.7058	3254.2838	934.95	53.25
1054.806	3255.1841	935.6	54.05
1054.9061	3256.0838	933.95	53.7
1055.0061	3256.9829	929.35	48.7
1055.1062	3257.8814	938.25	55.1
1055.2061	3258.7792	938.75	55.3
1055.306	3259.6765	935.35	51.2
1055.4059	3260.5731	931.2	50.6
1055.5057	3261.4692	932.3	50.85
1055.6055	3262.3647	929.15	48.95
1055.7052	3263.2595	928.25	44.65
1055.8049	3264.1538	925.5	44.7
1055.9045	3265.0474	927.8	45.15
1056.0041	3265.9404	925.9	46.95
1056.1036	3266.8329	925.2	46
1056.2031	3267.7247	935.35	43.9
1056.3025	3268.616	925.95	47.4
1056.4019	3269.5066	924.8	43.3
1056.5013	3270.3966	922.1	39.6
1056.6005	3271.286	923.8	42.7
