Software Version:	3.9.2.0
Unit SN:	10000200
Spectrometer SN:	6960
Date:	3/14/2024 1:19:39 PM
Data Line Index:	25
Spectral Points:	2048
Integration time (ms):	125
Averages:	20
Delay (ms):	30000
Sequence Number:	1
Processing:	dark subtract
Laser Power (mW):	300
Laser Current (mA):	824
Laser Diode Temp (C):	25
Laser Case Temp (C):	28.3
System Temp (C):	28.3
Spectrometer Temp (C):	26.2
CCD Temp (C):	0.004
Secondary Temp (C):	20.011
Heatsink Temp (C):	24.153
CCDPCB Temp (C):	37.652
SecondaryPCB Temp (C):	35.484

Wavelength	RamanShift	Raw Counts	Dark Subtracted
787.061	30.1047	455.95	45.1
787.2016	32.3739	452	44.75
787.3422	34.6426	460.2	50.45
787.4828	36.9109	462.65	50.45
787.6235	39.1787	471.15	55.95
787.7642	41.4461	484.1	63.35
787.9049	43.7131	491.4	66.4
788.0456	45.9796	498.15	70.5
788.1863	48.2456	509.8	78.35
788.3271	50.5112	517.6	82.25
788.4679	52.7764	523.05	84.65
788.6087	55.0411	532.7	90.75
788.7496	57.3054	547.5	100.95
788.8904	59.5692	554.9	105.35
789.0313	61.8326	564.45	109.95
789.1722	64.0955	577.8	119.45
789.3132	66.3579	596.4	134.25
789.4541	68.6199	609.25	145.45
789.5951	70.8815	645	177.45
789.7361	73.1426	714.45	244.3
789.8771	75.4032	904.25	427.45
790.0181	77.6634	1359.2	876.6
790.1592	79.9231	2426.55	1938.95
790.3003	82.1824	4747.45	4250.05
790.4414	84.4412	9003.75	8492.6
790.5825	86.6995	14887.6	14355.05
790.7237	88.9574	20678.05	20128.05
790.8648	91.2148	24730.4	24167.6
791.006	93.4717	26663.2	26094.75
791.1472	95.7282	27003.6	26426.95
791.2885	97.9842	26832.7	26257.1
791.4297	100.2398	26254.1	25674.45
791.571	102.4949	25574.85	24989.95
791.7123	104.7495	24753.85	24161.9
791.8536	107.0036	23987.8	23397.1
791.9949	109.2573	23277.9	22690.4
792.1363	111.5105	22643.55	22051.25
792.2777	113.7632	22089.1	21497.05
792.4191	116.0154	21562.55	20958.25
792.5605	118.2672	21248.65	20653.8
792.7019	120.5185	20892.35	20298.35
792.8434	122.7693	20658.7	20059.6
792.9849	125.0197	20424.75	19821.5
793.1264	127.2696	20178.5	19569.75
793.2679	129.519	20067.1	19458.95
793.4094	131.7679	19845.6	19235.4
793.551	134.0163	19648.3	19036.4
793.6926	136.2642	19351.2	18732.55
793.8342	138.5117	19051.2	18425.1
793.9758	140.7587	18708.15	18086.05
794.1175	143.0052	18438.55	17814.85
794.2591	145.2512	18145.75	17521.2
794.4008	147.4967	17852.75	17223.3
794.5425	149.7417	17652.15	17023.7
794.6842	151.9863	17497.35	16866.35
794.826	154.2304	17402.65	16767.35
794.9677	156.4739	17258.65	16619.15
795.1095	158.717	17177.6	16537.75
795.2513	160.9596	17036.7	16393.6
795.3931	163.2017	16790.25	16143.25
795.535	165.4433	16551.65	15904.75
795.6768	167.6844	16271.5	15625.3
795.8187	169.925	16016.8	15366
795.9606	172.1651	15700.3	15046.5
796.1025	174.4047	15447.25	14788.7
796.2445	176.6439	15223.4	14561.55
796.3864	178.8825	15073.3	14408.9
796.5284	181.1206	14934.6	14264.75
796.6704	183.3582	14805.25	14134.25
796.8124	185.5954	14712.7	14039.3
796.9544	187.832	14673.2	13996.25
797.0965	190.0681	14631	13956.5
797.2386	192.3037	14649.45	13969.85
797.3806	194.5388	14633.55	13951.15
797.5228	196.7734	14629.6	13942.25
797.6649	199.0075	14670.05	13979.45
797.807	201.2411	14800.25	14105.4
797.9492	203.4742	14872.25	14179.15
798.0914	205.7068	14989.45	14297.25
798.2336	207.9389	15075.85	14382.9
798.3758	210.1704	15213.7	14516.1
798.518	212.4015	15265.9	14567.25
798.6603	214.632	15418	14718.65
798.8025	216.862	15520.6	14828.65
798.9448	219.0915	15578.3	14892
799.0871	221.3205	15635.65	14952.7
799.2294	223.549	15758.6	15080.7
799.3718	225.777	15792.45	15113.45
799.5141	228.0044	15887.25	15201.3
799.6565	230.2314	16016.75	15335.4
799.7989	232.4578	16141.75	15460.05
799.9413	234.6837	16248.4	15559.75
800.0837	236.909	16314.45	15628.95
800.2262	239.1339	16334.65	15622.35
800.3687	241.3582	16253.1	15557.35
800.5111	243.582	16131.65	15409.2
800.6536	245.8053	16085.9	15369.2
800.7961	248.0281	16029.45	15320.9
800.9387	250.2503	15975.8	15259.65
801.0812	252.472	15994.1	15271.8
801.2238	254.6932	16100.15	15378.1
801.3664	256.9139	16137.6	15414.55
801.509	259.134	16328.55	15599
801.6516	261.3536	16477.85	15749.5
801.7942	263.5727	16754.6	16026.25
801.9369	265.7912	16910.5	16181.6
802.0795	268.0092	17171.75	16445.6
802.2222	270.2267	17347.45	16613.5
802.3649	272.4436	17434.05	16703.7
802.5076	274.6601	17471.05	16733.3
802.6504	276.8759	17424.3	16688.65
802.7931	279.0913	17341	16605.7
802.9359	281.3061	17222.65	16485.4
803.0787	283.5204	17168.5	16432.55
803.2215	285.7341	17139.1	16394.3
803.3643	287.9473	17184.9	16430.8
803.5071	290.16	17222.05	16470.1
803.6499	292.3721	17278	16534.6
803.7928	294.5837	17426.2	16682.15
803.9357	296.7947	17601.25	16853.3
804.0786	299.0052	17766.3	17020.25
804.2215	301.2152	17721.9	16972.55
804.3644	303.4246	17585.8	16841.25
804.5074	305.6334	17300	16556.15
804.6503	307.8418	16969.65	16220.15
804.7933	310.0495	16616.75	15870.3
804.9363	312.2568	16213.3	15463.7
805.0793	314.4635	15869.35	15119.75
805.2223	316.6696	15597.7	14844.9
805.3653	318.8752	15383.15	14621.5
805.5084	321.0802	15316.95	14563.4
805.6514	323.2847	15317.1	14562.65
805.7945	325.4887	15348.55	14593.35
805.9376	327.692	15302.25	14544.55
806.0807	329.8949	15308	14552.9
806.2238	332.0972	15161.65	14403.35
806.367	334.2989	14951.2	14190.8
806.5101	336.5001	14753.25	13993.3
806.6533	338.7007	14558	13796.45
806.7965	340.9008	14435.2	13671.85
806.9397	343.1003	14264.3	13498.7
807.0829	345.2992	14150.4	13383.3
807.2261	347.4976	14077.7	13307.2
807.3693	349.6955	13958.9	13187.05
807.5126	351.8927	13969.2	13198.1
807.6559	354.0895	13869.95	13085.65
807.7991	356.2856	13854.95	13079.8
807.9424	358.4812	13787.8	13016.15
808.0857	360.6763	13806.05	13031.3
808.2291	362.8707	13768.1	12994.05
808.3724	365.0646	13786.95	13006.25
808.5158	367.258	13823.4	13041.4
808.6591	369.4508	13844.3	13059.75
808.8025	371.643	13973.15	13187.25
808.9459	373.8346	14024.1	13236.5
809.0893	376.0257	14102.8	13313.35
809.2327	378.2162	14095.4	13305.7
809.3762	380.4062	14093.75	13303.75
809.5196	382.5956	13988.2	13192.7
809.6631	384.7844	13885.65	13091.55
809.8066	386.9726	13741.2	12948.45
809.9501	389.1603	13664.9	12870.6
810.0936	391.3474	13643.7	12817.75
810.2371	393.5339	13575.3	12780.55
810.3806	395.7199	13508.45	12721.1
810.5241	397.9052	13532.3	12745.7
810.6677	400.09	13621.85	12836.2
810.8113	402.2743	13713.95	12930.7
810.9548	404.4579	13837.15	13055.75
811.0984	406.641	14005.5	13222.05
811.2421	408.8235	14170.95	13386.25
811.3857	411.0054	14294.25	13508.15
811.5293	413.1868	14479.5	13691.35
811.673	415.3675	14511.8	13721
811.8166	417.5477	14505.7	13717.7
811.9603	419.7273	14470.9	13679.2
812.104	421.9064	14376.9	13576.65
812.2477	424.0848	14311.35	13518.8
812.3914	426.2627	14179	13378.05
812.5351	428.4399	13960.65	13159.75
812.6788	430.6166	13649.5	12841.85
812.8226	432.7928	13365.35	12561.65
812.9663	434.9683	13088.4	12283.45
813.1101	437.1432	12865.35	12056.55
813.2539	439.3176	12736.45	11928.6
813.3977	441.4914	12611.5	11800.65
813.5415	443.6645	12593.5	11783.35
813.6853	445.8371	12499.3	11690.6
813.8291	448.0091	12477.35	11669
813.973	450.1806	12437.8	11628.05
814.1168	452.3514	12413.95	11601.1
814.2607	454.5216	12463.85	11643.7
814.4046	456.6913	12380.7	11568.5
814.5485	458.8603	12423.35	11611.05
814.6924	461.0288	12497.1	11684.4
814.8363	463.1967	12479.2	11665.7
814.9802	465.3639	12476.45	11661.85
815.1241	467.5306	12461.1	11644.2
815.2681	469.6967	12459.8	11645.55
815.412	471.8622	12473.9	11657.55
815.556	474.0271	12481.95	11666.35
815.7	476.1914	12505.7	11686.3
815.844	478.3551	12529.05	11713.75
815.988	480.5182	12554.9	11737.55
816.132	482.6807	12614.95	11797.2
816.276	484.8426	12754.8	11936.75
816.4201	487.0039	13043.05	12224.1
816.5641	489.1647	13376.8	12555.1
816.7082	491.3248	13673.95	12855
816.8522	493.4843	13744	12924
816.9963	495.6432	13703.9	12883.7
817.1404	497.8015	13539.9	12717.35
817.2845	499.9592	13430.5	12611.3
817.4286	502.1163	13244.55	12423.6
817.5727	504.2728	12969.85	12144.55
817.7168	506.4287	12731.25	11909.55
817.861	508.5839	12452.1	11629.3
818.0051	510.7386	12281.6	11458.75
818.1493	512.8927	12197.55	11364.4
818.2935	515.0461	12145.95	11321.1
818.4377	517.199	12225.65	11399.9
818.5818	519.3512	12339.95	11515.35
818.726	521.5029	12557.35	11724.6
818.8703	523.6539	12783.8	11956.05
819.0145	525.8043	12858.45	12030.95
819.1587	527.9541	12817.6	11989.55
819.303	530.1033	12634.35	11805.35
819.4472	532.2519	12491.8	11659.85
819.5915	534.3999	12441	11609.45
819.7357	536.5472	12471.45	11641.65
819.88	538.694	12649.25	11818.45
820.0243	540.8401	12867.75	12034.25
820.1686	542.9856	13061.3	12227.9
820.3129	545.1305	13100.65	12268.55
820.4572	547.2748	13005.7	12171.95
820.6016	549.4185	12841.95	12009.25
820.7459	551.5615	12726.8	11893.95
820.8902	553.704	12697.8	11861.7
821.0346	555.8458	12740	11906.7
821.1789	557.987	12883.95	12051.85
821.3233	560.1276	13055.75	12220.9
821.4677	562.2675	13384.1	12550.45
821.6121	564.4069	13781.15	12946.2
821.7565	566.5456	14170.65	13338.1
821.9009	568.6837	14293.65	13454.55
822.0453	570.8212	13988.85	13156.5
822.1897	572.958	13381.3	12547.35
822.3342	575.0942	12804.3	11970.95
822.4786	577.2299	12404.3	11570.3
822.6231	579.3648	12195.3	11358.55
822.7675	581.4992	12155.45	11316.75
822.912	583.6329	12227.85	11390.2
823.0565	585.766	12368.75	11532.25
823.201	587.8985	12466.55	11632
823.3454	590.0304	12549.6	11688.15
823.4899	592.1616	12490.05	11647.95
823.6345	594.2922	12366.1	11527.1
823.779	596.4222	12207.35	11367.8
823.9235	598.5515	12028.8	11186.15
824.068	600.6802	11858.25	11016.45
824.2126	602.8083	11730.8	10892.4
824.3571	604.9358	11688.35	10846.1
824.5017	607.0626	11673.95	10834.2
824.6462	609.1888	11758.35	10916.9
824.7908	611.3144	11871.9	11030
824.9354	613.4393	11962.9	11121.35
825.08	615.5636	12065.45	11222.2
825.2246	617.6873	12079.15	11235.4
825.3692	619.8103	12002.9	11160.85
825.5138	621.9327	11880.35	11033.45
825.6584	624.0544	11711.05	10867.85
825.803	626.1756	11510.4	10668.8
825.9477	628.2961	11392.4	10547.45
826.0923	630.4159	11324.95	10480.8
826.237	632.5351	11300.45	10457.4
826.3816	634.6537	11283.8	10440.65
826.5263	636.7716	11265.85	10418.7
826.6709	638.8889	11261.3	10414.35
826.8156	641.0056	11280.15	10433.15
826.9603	643.1216	11246.05	10398
827.105	645.237	11232.95	10384.25
827.2497	647.3518	11137.55	10287.6
827.3944	649.4659	11086.3	10238.2
827.5391	651.5793	11022	10175.2
827.6838	653.6922	10981.7	10133.6
827.8285	655.8043	10975.3	10127.25
827.9733	657.9159	10971.65	10123.7
828.118	660.0268	10930.25	10076.2
828.2627	662.137	10914	10061.05
828.4075	664.2466	10910.8	10059
828.5522	666.3556	10919.55	10068.9
828.697	668.4639	10862.8	10010.15
828.8418	670.5716	10811.85	9959.75
828.9865	672.6786	10799.75	9948.05
829.1313	674.785	10730.6	9878.85
829.2761	676.8907	10713.75	9862.75
829.4209	678.9958	10721.45	9870.5
829.5657	681.1002	10683.35	9831.1
829.7105	683.204	10667.75	9811.8
829.8553	685.3072	10642.35	9785.45
830.0001	687.4097	10590.9	9737.4
830.1449	689.5115	10612	9756.5
830.2898	691.6127	10582.05	9732.25
830.4346	693.7132	10561.6	9705.35
830.5794	695.8131	10552.5	9689.35
830.7243	697.9123	10563.65	9707.4
830.8691	700.0109	10586.2	9727.85
831.014	702.1089	10582.85	9725.4
831.1588	704.2061	10662.55	9807.75
831.3037	706.3028	10696.7	9841.9
831.4486	708.3987	10717.85	9863.5
831.5935	710.4941	10726.9	9869.4
831.7383	712.5887	10786.75	9928.6
831.8832	714.6827	10858	9997.9
832.0281	716.7761	10937.6	10081.65
832.173	718.8688	11104.8	10247.7
832.3179	720.9608	11210.25	10350.1
832.4628	723.0522	11340.1	10478.7
832.6077	725.1429	11353.15	10497.95
832.7527	727.233	11427.35	10568.45
832.8976	729.3224	11444.85	10586.9
833.0425	731.4112	11367.4	10506.35
833.1874	733.4993	11254.2	10391.35
833.3324	735.5867	11067.65	10209.4
833.4773	737.6735	10830.05	9971.2
833.6222	739.7596	10670.2	9808.65
833.7672	741.845	10563.15	9703
833.9122	743.9298	10450.5	9588.6
834.0571	746.014	10407.15	9548.7
834.2021	748.0974	10391.65	9529.25
834.347	750.1802	10398.15	9536.8
834.492	752.2624	10408.35	9548.9
834.637	754.3439	10434.85	9570.75
834.782	756.4247	10528	9658.55
834.9269	758.5048	10644.1	9784.75
835.0719	760.5843	10858.2	9997.05
835.2169	762.6631	11187.25	10326.25
835.3619	764.7413	11654.35	10793.1
835.5069	766.8188	12249	11387.05
835.6519	768.8956	12752.6	11886.05
835.7969	770.9718	13123.55	12259.35
835.9419	773.0473	13085.8	12228.25
836.0869	775.1221	12862.6	11999.35
836.232	777.1962	12612.95	11752.05
836.377	779.2697	12527.35	11662.6
836.522	781.3426	12593.05	11718.5
836.667	783.4147	12711.85	11849.4
836.8121	785.4862	12785.5	11923.45
836.9571	787.557	12622.95	11760.5
837.1021	789.6271	12203.9	11339.4
837.2472	791.6966	11661	10795
837.3922	793.7654	11093.4	10229.95
837.5373	795.8335	10715.55	9855.05
837.6823	797.901	10441.35	9578.55
837.8274	799.9678	10299.45	9435.35
837.9724	802.0339	10194.85	9330.3
838.1175	804.0993	10170.95	9297.05
838.2626	806.1641	10107.65	9245.1
838.4076	808.2282	10032.7	9164.3
838.5527	810.2916	9971.1	9102.3
838.6978	812.3544	9900.4	9034.8
838.8428	814.4164	9841.1	8976.15
838.9879	816.4778	9862.9	8999.15
839.133	818.5385	9884.5	9020.3
839.2781	820.5986	9993.65	9129.95
839.4232	822.658	10202.35	9336.3
839.5682	824.7166	10471.6	9609.35
839.7133	826.7747	10864.35	9998.85
839.8584	828.832	11336.45	10470.75
840.0035	830.8886	11672.55	10805.6
840.1486	832.9446	11854.2	10986.25
840.2937	834.9999	11721.3	10854.3
840.4388	837.0545	11502.3	10632.75
840.5839	839.1085	11180.7	10312.7
840.729	841.1618	10904.85	10034.4
840.8741	843.2143	10669.2	9803.15
841.0192	845.2662	10493.45	9624.9
841.1643	847.3175	10373.95	9509.3
841.3095	849.368	10252.2	9386.5
841.4546	851.4179	10155.35	9290.1
841.5997	853.467	10068.05	9199.6
841.7448	855.5155	10011.3	9141.05
841.8899	857.5633	9932.65	9063.3
842.0351	859.6105	9843.7	8976.85
842.1802	861.6569	9771.4	8901.75
842.3253	863.7027	9682.5	8815.25
842.4704	865.7478	9650.45	8782.45
842.6156	867.7922	9590.5	8722.55
842.7607	869.8359	9597.15	8729.1
842.9058	871.8789	9601.35	8731.9
843.0509	873.9212	9701.35	8798.1
843.1961	875.9629	9741.35	8872.5
843.3412	878.0039	9840.55	8968.3
843.4863	880.0441	9898.9	9028.8
843.6315	882.0837	9926.95	9056.75
843.7766	884.1226	9961.65	9088.9
843.9218	886.1609	9988.5	9118.6
844.0669	888.1984	10081.35	9213.2
844.212	890.2352	10197.1	9327.9
844.3572	892.2714	10234.35	9361.5
844.5023	894.3069	10177.3	9306
844.6475	896.3416	10028.25	9158.7
844.7926	898.3757	9892.3	9019.95
844.9377	900.4091	9800.85	8926.4
845.0829	902.4418	9768.35	8895.4
845.228	904.4739	9783.8	8912.15
845.3732	906.5052	9845.65	8975.05
845.5183	908.5358	9814.9	8942.15
845.6635	910.5658	9687.5	8813.35
845.8086	912.595	9504.65	8632.55
845.9538	914.6236	9333.25	8460.9
846.0989	916.6515	9196.2	8323.95
846.2441	918.6786	9115.1	8241.35
846.3892	920.7051	9076.65	8203.55
846.5344	922.7309	9092.95	8219.9
846.6795	924.756	9120	8246.85
846.8246	926.7804	9178.25	8304.2
846.9698	928.8041	9163.6	8289.45
847.1149	930.8272	9218.55	8346.7
847.2601	932.8495	9190.3	8316.75
847.4052	934.8711	9202.4	8328.45
847.5504	936.892	9140.35	8267.8
847.6955	938.9123	9135.9	8262.2
847.8407	940.9318	9139.2	8267.2
847.9858	942.9506	9158.15	8286.7
848.131	944.9688	9083.05	8210.85
848.2761	946.9862	8996.5	8124.65
848.4213	949.003	8852.9	7980.45
848.5664	951.019	8768	7893.9
848.7115	953.0344	8704.5	7830
848.8567	955.0491	8693.45	7817.6
849.0018	957.063	8698.95	7824.35
849.147	959.0763	8781.05	7909.9
849.2921	961.0888	8797.05	7921.55
849.4373	963.1007	8850.8	7975.5
849.5824	965.1119	8833.25	7956.75
849.7275	967.1223	8830.1	7956.15
849.8727	969.1321	8811.65	7938.75
850.0178	971.1412	8804.25	7931.4
850.1629	973.1495	8773.6	7900.9
850.3081	975.1572	8802.5	7895.05
850.4532	977.1641	8815.8	7940.2
850.5983	979.1704	8773.8	7895.8
850.7435	981.1759	8747.85	7871.5
850.8886	983.1808	8747.4	7871.7
851.0337	985.1849	8750.2	7864.85
851.1788	987.1884	8798.5	7919.05
851.324	989.1911	8872.65	7996.45
851.4691	991.1932	8949.25	8073.5
851.6142	993.1945	8965.35	8091.4
851.7593	995.1951	8920.15	8044.8
851.9045	997.1951	8897.1	8015
852.0496	999.1943	8849.7	7975.6
852.1947	1001.1928	8860.15	7982.8
852.3398	1003.1906	8890	8014.05
852.4849	1005.1877	9008.6	8133.2
852.63	1007.1841	9061.5	8183.8
852.7751	1009.1798	9069.85	8194.2
852.9202	1011.1748	8985.6	8111.95
853.0653	1013.1691	8869.75	7989.35
853.2104	1015.1627	8669.85	7794
853.3555	1017.1556	8497.4	7621.6
853.5006	1019.1477	8370.5	7494.05
853.6457	1021.1392	8287.05	7411
853.7908	1023.1299	8254.5	7379.3
853.9359	1025.12	8262.1	7383.25
854.081	1027.1093	8301.7	7426.7
854.2261	1029.0979	8421.7	7545.55
854.3712	1031.0859	8480.3	7605.2
854.5163	1033.0731	8508.05	7633.3
854.6613	1035.0596	8477.3	7600.2
854.8064	1037.0454	8353.65	7479.1
854.9515	1039.0304	8278.4	7400.85
855.0965	1041.0148	8148.25	7270.7
855.2416	1042.9985	8068.8	7190.95
855.3867	1044.9814	8023.2	7146.6
855.5317	1046.9636	7970.6	7089.9
855.6768	1048.9452	7961.3	7087.2
855.8219	1050.926	8008.05	7131.8
855.9669	1052.9061	8013.4	7138.55
856.112	1054.8855	8025.7	7148.8
856.257	1056.8642	8055	7180.85
856.4021	1058.8421	8094.4	7214.35
856.5471	1060.8194	8094.35	7218.9
856.6921	1062.7959	8125.7	7247.7
856.8372	1064.7717	8178.85	7300.85
856.9822	1066.7469	8245.85	7369
857.1272	1068.7213	8318.85	7442.1
857.2723	1070.695	8361	7484.3
857.4173	1072.6679	8372.8	7492.35
857.5623	1074.6402	8405.5	7527.45
857.7073	1076.6117	8382.95	7498.05
857.8523	1078.5826	8301.35	7425.7
857.9973	1080.5527	8181.6	7301.4
858.1423	1082.5221	8092.9	7215.75
858.2873	1084.4908	8038.75	7161.6
858.4323	1086.4587	8057.9	7176.55
858.5773	1088.426	8105.4	7227.4
858.7223	1090.3925	8118.45	7236.25
858.8673	1092.3584	8106.75	7230.8
859.0123	1094.3235	8123	7246.75
859.1573	1096.2879	8175.15	7297.2
859.3022	1098.2515	8256.4	7379.7
859.4472	1100.2145	8418.55	7541.15
859.5922	1102.1767	8576.55	7693.65
859.7371	1104.1382	8784.7	7906.05
859.8821	1106.099	8984.7	8101.4
860.027	1108.0591	9208.05	8330.5
860.172	1110.0185	9344.8	8462.9
860.3169	1111.9771	9423.95	8543.95
860.4619	1113.9351	9332.05	8455.5
860.6068	1115.8923	9219.75	8338.45
860.7517	1117.8488	9098.6	8218.7
860.8967	1119.8045	8930.25	8053.05
861.0416	1121.7596	8788.2	7907.05
861.1865	1123.7139	8662	7782.95
861.3314	1125.6675	8616.95	7737.75
861.4763	1127.6204	8658.3	7782.2
861.6212	1129.5726	8598.95	7716.75
861.7661	1131.524	8542.4	7664.4
861.911	1133.4748	8404.25	7523.5
862.0559	1135.4248	8246.45	7366.8
862.2008	1137.3741	8107.9	7228
862.3457	1139.3226	7987.7	7108.5
862.4905	1141.2705	7917.5	7039.35
862.6354	1143.2176	7883.8	7001.25
862.7803	1145.164	7841.4	6960.75
862.9251	1147.1097	7771.45	6890.15
863.07	1149.0546	7680.5	6799.15
863.2148	1150.9989	7596.7	6717.05
863.3597	1152.9424	7509.1	6630.45
863.5045	1154.8852	7420.45	6540.45
863.6493	1156.8272	7368	6490.4
863.7942	1158.7686	7380.9	6495.7
863.939	1160.7092	7379	6501
864.0838	1162.6491	7427.8	6547.95
864.2286	1164.5883	7492.35	6614.25
864.3734	1166.5267	7597.2	6716.1
864.5182	1168.4644	7740.3	6862.4
864.663	1170.4014	7879.85	6995.2
864.8078	1172.3377	8101.6	7225.3
864.9526	1174.2732	8350.9	7471.6
865.0974	1176.2081	8715.65	7835.55
865.2421	1178.1421	9148.8	8264.5
865.3869	1180.0755	9593.7	8715.65
865.5317	1182.0082	9952.35	9072.65
865.6764	1183.9401	10108.2	9227.55
865.8212	1185.8713	9993.15	9113.65
865.9659	1187.8017	9685.35	8808.4
866.1106	1189.7315	9329.45	8448.85
866.2554	1191.6605	8975.7	8069.3
866.4001	1193.5888	8713.7	7833.8
866.5448	1195.5163	8537.6	7657.45
866.6895	1197.4432	8448.95	7568.7
866.8342	1199.3693	8367.6	7488
866.9789	1201.2947	8351.15	7463.2
867.1236	1203.2193	8310.1	7432
867.2683	1205.1432	8308.7	7427.2
867.413	1207.0664	8259.4	7377.3
867.5576	1208.9889	8263.5	7380.8
867.7023	1210.9106	8242.75	7361.65
867.847	1212.8316	8254.9	7377.1
867.9916	1214.7519	8289.85	7400.7
868.1363	1216.6715	8332.95	7453.6
868.2809	1218.5903	8370.75	7490.9
868.4255	1220.5084	8451.35	7571.7
868.5701	1222.4257	8521.4	7641
868.7148	1224.3424	8596.6	7717.55
868.8594	1226.2583	8709.05	7824.4
869.004	1228.1735	8814.95	7934.1
869.1486	1230.0879	8989.25	8109.25
869.2932	1232.0016	9144.05	8264.55
869.4377	1233.9146	9244.6	8361.85
869.5823	1235.8269	9291	8411.55
869.7269	1237.7384	9259.05	8379.85
869.8715	1239.6492	9119.35	8238.35
870.016	1241.5592	9103.4	8221.85
870.1606	1243.4686	9122.65	8244.2
870.3051	1245.3772	9284.5	8404.45
870.4496	1247.285	9468.4	8588.1
870.5941	1249.1922	9662.5	8781.75
870.7387	1251.0986	9817.8	8938.55
870.8832	1253.0042	9906	9025.45
871.0277	1254.9092	10010.5	9129.25
871.1722	1256.8134	10104.2	9226.75
871.3167	1258.7169	10220.6	9337.3
871.4611	1260.6196	10349.85	9470.7
871.6056	1262.5216	10560	9678.35
871.7501	1264.4229	10715.45	9833.8
871.8945	1266.3234	10904.8	10022.9
872.039	1268.2232	11008.65	10125.55
872.1834	1270.1223	11071.35	10189.25
872.3278	1272.0207	11100.4	10220.2
872.4723	1273.9183	11068	10180
872.6167	1275.8151	11000.7	10119.05
872.7611	1277.7113	11004.7	10121.35
872.9055	1279.6067	11041.2	10161.45
873.0499	1281.5014	11260.55	10375.5
873.1943	1283.3953	11635.35	10752.35
873.3386	1285.2885	12140.8	11259.65
873.483	1287.181	12625.4	11742.7
873.6274	1289.0727	13131.9	12252
873.7717	1290.9637	13448.35	12566.9
873.9161	1292.854	13686.8	12803.95
874.0604	1294.7435	13717.55	12836.15
874.2047	1296.6323	13586.65	12704.45
874.349	1298.5204	13410.9	12526.85
874.4933	1300.4077	13165.85	12284.4
874.6376	1302.2943	12903.5	12023.55
874.7819	1304.1802	12599.8	11721.85
874.9262	1306.0653	12169.65	11285.8
875.0705	1307.9497	11710.6	10827.95
875.2147	1309.8333	11300.55	10419.95
875.359	1311.7162	11011.75	10131.85
875.5032	1313.5984	10840.25	9957.85
875.6475	1315.4798	10713.9	9817.95
875.7917	1317.3605	10658.35	9760.7
875.9359	1319.2405	10567.95	9684.2
876.0801	1321.1197	10345.4	9459.5
876.2243	1322.9982	10034.8	9147.45
876.3685	1324.876	9791.75	8909.65
876.5127	1326.753	9506.45	8624.3
876.6569	1328.6293	9326.7	8443.15
876.801	1330.5048	9146.45	8262.9
876.9452	1332.3796	8987.55	8106.7
877.0893	1334.2537	8899.65	7989.75
877.2335	1336.127	8798.35	7915.7
877.3776	1337.9996	8753.25	7870.7
877.5217	1339.8714	8743.85	7859.45
877.6658	1341.7426	8766	7842.4
877.8099	1343.6129	8751.05	7869.4
877.954	1345.4826	8736.55	7856.6
878.0981	1347.3515	8750.5	7865.6
878.2422	1349.2196	8712.55	7829.2
878.3862	1351.087	8741	7859.9
878.5303	1352.9537	8769.75	7887.75
878.6743	1354.8197	8849.05	7968.65
878.8184	1356.6849	9005.95	8123.55
878.9624	1358.5493	9159.8	8276.2
879.1064	1360.4131	9338.2	8457
879.2504	1362.276	9468.5	8587.3
879.3944	1364.1383	9508.05	8626.55
879.5384	1365.9998	9372	8484.35
879.6823	1367.8606	9100.9	8219.4
879.8263	1369.7206	8792.5	7911
879.9702	1371.5799	8491.05	7605.95
880.1142	1373.4384	8279.85	7397.5
880.2581	1375.2962	8079.2	7197.4
880.402	1377.1533	7798.8	6916.5
880.5459	1379.0096	7484.45	6599.95
880.6898	1380.8652	7178.55	6296.4
880.8337	1382.7201	6924.45	6041.05
880.9776	1384.5742	6725.65	5844.1
881.1215	1386.4275	6589.1	5704.6
881.2653	1388.2802	6450.35	5569.15
881.4092	1390.132	6353.35	5471
881.553	1391.9832	6309.4	5426.85
881.6968	1393.8336	6221.9	5339.95
881.8406	1395.6832	6182.15	5297.25
881.9844	1397.5322	6158.85	5277.5
882.1282	1399.3803	6117.3	5231.2
882.272	1401.2278	6109.1	5227.8
882.4158	1403.0745	6078.1	5196.2
882.5595	1404.9204	6064.55	5183.6
882.7033	1406.7656	6081.4	5198.9
882.847	1408.6101	6070.45	5188.55
882.9908	1410.4538	6106.2	5223.6
883.1345	1412.2968	6144.85	5262.1
883.2782	1414.139	6172.7	5291.15
883.4219	1415.9805	6244.1	5362.55
883.5656	1417.8213	6312.55	5423.05
883.7092	1419.6613	6393.9	5510.65
883.8529	1421.5006	6518.3	5635.2
883.9965	1423.3391	6713.15	5832.25
884.1402	1425.1769	6935.2	6052.7
884.2838	1427.0139	7313.45	6431
884.4274	1428.8502	7771.85	6886.8
884.571	1430.6858	8230.75	7349.25
884.7146	1432.5206	8564.05	7682.45
884.8582	1434.3547	8768	7886.05
885.0018	1436.188	8758.75	7876.6
885.1453	1438.0206	8681.75	7799.55
885.2889	1439.8524	8577.1	7694.45
885.4324	1441.6835	8455	7571.2
885.5759	1443.5139	8377.95	7491.5
885.7194	1445.3435	8342.65	7460.55
885.8629	1447.1724	8305.9	7425.05
886.0064	1449.0005	8256.2	7372.85
886.1499	1450.8279	8195.85	7313.15
886.2933	1452.6545	8189.5	7307.65
886.4368	1454.4804	8209	7328.2
886.5802	1456.3056	8238	7346.25
886.7237	1458.13	8204.8	7323.35
886.8671	1459.9536	8040.3	7157.2
887.0105	1461.7766	7802.8	6920.65
887.1539	1463.5987	7520.8	6639
887.2972	1465.4202	7252.1	6369.5
887.4406	1467.2409	6983.25	6102.2
887.584	1469.0608	6732.75	5851.15
887.7273	1470.88	6513.15	5628.65
887.8706	1472.6984	6318.3	5436.8
888.0139	1474.5161	6141.9	5257.45
888.1572	1476.3331	6020.95	5137.9
888.3005	1478.1493	5908.15	5024.55
888.4438	1479.9648	5840.35	4958.4
888.5871	1481.7795	5776.55	4893.1
888.7303	1483.5935	5731.25	4848.65
888.8736	1485.4067	5664.45	4782.2
889.0168	1487.2192	5648.6	4766.25
889.16	1489.031	5621.8	4736.95
889.3032	1490.842	5574.4	4692.3
889.4464	1492.6522	5555.4	4673.75
889.5896	1494.4618	5517.9	4633.1
889.7327	1496.2705	5502.25	4623.4
889.8759	1498.0785	5479.05	4595.55
890.019	1499.8858	5449.8	4565.95
890.1622	1501.6924	5411.95	4531.4
890.3053	1503.4981	5376.2	4492.7
890.4484	1505.3032	5333.3	4451.1
890.5914	1507.1075	5308.3	4426.4
890.7345	1508.911	5277.1	4394.85
890.8776	1510.7138	5233.2	4351
891.0206	1512.5159	5195.7	4312.8
891.1637	1514.3172	5162	4278.4
891.3067	1516.1178	5120.05	4238.95
891.4497	1517.9176	5100.6	4213.65
891.5927	1519.7166	5086.7	4204.95
891.7357	1521.515	5041.95	4151.55
891.8786	1523.3126	5036.2	4153.35
892.0216	1525.1094	5013.1	4128.3
892.1645	1526.9055	4990.3	4107.35
892.3074	1528.7008	4986.1	4105.05
892.4503	1530.4954	4940.9	4052.45
892.5932	1532.2893	4922.05	4043.2
892.7361	1534.0824	4927	4038.9
892.879	1535.8747	4915.95	4034.85
893.0218	1537.6663	4898.65	4014.6
893.1647	1539.4572	4908.2	4023.1
893.3075	1541.2473	4902.2	4017.6
893.4503	1543.0367	4916.9	4035.1
893.5931	1544.8253	4938	4051.5
893.7359	1546.6132	4942.1	4057.9
893.8787	1548.4003	4979.9	4087.25
894.0214	1550.1867	5008.25	4117.45
894.1642	1551.9723	5045.85	4158.25
894.3069	1553.7572	5122.85	4240.7
894.4496	1555.5414	5242.85	4358.75
894.5923	1557.3247	5353.2	4468.65
894.735	1559.1074	5497.2	4617.3
894.8777	1560.8893	5640.65	4759.65
895.0204	1562.6705	5799.5	4916.5
895.163	1564.4509	5898.8	5017.15
895.3056	1566.2305	5989.25	5106.6
895.4482	1568.0094	6033.85	5153.55
895.5908	1569.7876	6039.5	5157.5
895.7334	1571.565	6016.35	5134
895.876	1573.3417	6014.75	5133.45
896.0186	1575.1176	6012.6	5131.2
896.1611	1576.8928	6020.5	5138
896.3036	1578.6672	6014	5132.35
896.4461	1580.4409	6054.8	5172.55
896.5886	1582.2138	6083.5	5200.75
896.7311	1583.986	6142.75	5258.8
896.8736	1585.7575	6225.55	5344.05
897.0161	1587.5282	6303.1	5421.45
897.1585	1589.2981	6411.65	5529.5
897.3009	1591.0673	6491.15	5607
897.4433	1592.8358	6585.4	5704.2
897.5857	1594.6035	6663.4	5778.4
897.7281	1596.3704	6707.4	5824.2
897.8705	1598.1366	6774.85	5893.5
898.0128	1599.9021	6871.9	5989.4
898.1551	1601.6668	6931.5	6045.25
898.2975	1603.4308	7014.55	6131.55
898.4398	1605.194	7170.1	6281.85
898.5821	1606.9564	7321.75	6440.15
898.7243	1608.7182	7550.65	6661.15
898.8666	1610.4791	7819.05	6935.55
899.0088	1612.2394	8113.9	7231.35
899.1511	1613.9988	8377	7495.5
899.2933	1615.7576	8666.6	7786.8
899.4355	1617.5156	8882.55	7996.35
899.5776	1619.2728	8966.9	8086.25
899.7198	1621.0293	8893.25	8011.95
899.862	1622.785	8727.6	7840.8
900.0041	1624.54	8430.05	7545.25
900.1462	1626.2942	8107	7224.7
900.2883	1628.0477	7710.1	6825.85
900.4304	1629.8005	7378.25	6492.75
900.5725	1631.5525	7065.65	6183.1
900.7145	1633.3037	6805.2	5925.3
900.8566	1635.0542	6577.55	5695.1
900.9986	1636.804	6406.7	5524.45
901.1406	1638.553	6328.95	5392.35
901.2826	1640.3013	6214.45	5335
901.4245	1642.0488	6177.35	5294.6
901.5665	1643.7955	6159.4	5278.05
901.7085	1645.5416	6218.05	5336.45
901.8504	1647.2868	6270.55	5388.85
901.9923	1649.0313	6358.6	5476.4
902.1342	1650.7751	6471.45	5586.1
902.2761	1652.5181	6572.45	5691.4
902.4179	1654.2604	6703.15	5820.6
902.5598	1656.0019	6875.7	5997.25
902.7016	1657.7427	7091.1	6209.55
902.8434	1659.4828	7312.95	6432.5
902.9852	1661.222	7468.75	6585.6
903.127	1662.9606	7456.15	6575.05
903.2687	1664.6984	7270.25	6389.15
903.4105	1666.4354	6939.45	6056.05
903.5522	1668.1717	6501.85	5619.8
903.6939	1669.9072	6064.2	5184.7
903.8356	1671.642	5644.3	4761.75
903.9773	1673.3761	5302.15	4420.85
904.119	1675.1094	5036.8	4154.2
904.2606	1676.8419	4833.5	3953.25
904.4022	1678.5737	4673.9	3791.7
904.5439	1680.3048	4543.3	3661.35
904.6855	1682.0351	4441.85	3563.3
904.827	1683.7646	4339.25	3454.55
904.9686	1685.4934	4289.55	3408.6
905.1101	1687.2215	4216.95	3336.6
905.2517	1688.9488	4166.65	3284
905.3932	1690.6754	4106.25	3223.9
905.5347	1692.4012	4075.5	3195.3
905.6761	1694.1263	4055.25	3173.7
905.8176	1695.8506	4013.45	3133.25
905.9591	1697.5742	3977.9	3095.3
906.1005	1699.297	3960	3077.75
906.2419	1701.0191	3929.3	3048.15
906.3833	1702.7404	3894.55	3013.75
906.5246	1704.461	3854.6	2971.1
906.666	1706.1808	3834.35	2952.15
906.8073	1707.8999	3822.45	2940.05
906.9487	1709.6182	3782.55	2901.4
907.09	1711.3358	3761.95	2881
907.2313	1713.0527	3744.9	2863.5
907.3725	1714.7688	3730.7	2844.2
907.5138	1716.4841	3707.2	2824.9
907.655	1718.1987	3710.2	2823.5
907.7962	1719.9126	3689.8	2808.35
907.9374	1721.6257	3683.25	2797.55
908.0786	1723.338	3662	2780.45
908.2198	1725.0496	3647.75	2765.75
908.3609	1726.7605	3628.7	2747.7
908.502	1728.4706	3628.45	2745.65
908.6431	1730.18	3609.35	2725.7
908.7842	1731.8886	3592.5	2711.65
908.9253	1733.5964	3585.2	2698.3
909.0664	1735.3036	3570.15	2687.45
909.2074	1737.0099	3566.3	2685.5
909.3484	1738.7156	3543.6	2662.75
909.4894	1740.4204	3525.45	2641.65
909.6304	1742.1246	3512.2	2629.2
909.7714	1743.8279	3491.65	2610.3
909.9123	1745.5306	3477.55	2595
910.0532	1747.2325	3465.3	2583.85
910.1941	1748.9336	3455.25	2575.45
910.335	1750.634	3424.45	2540.5
910.4759	1752.3336	3418.35	2537.5
910.6168	1754.0325	3422	2540.85
910.7576	1755.7307	3415.05	2533.9
910.8984	1757.4281	3403.15	2522.3
911.0392	1759.1247	3409.25	2519.8
911.18	1760.8206	3397.1	2512.1
911.3208	1762.5158	3399.9	2514.5
911.4615	1764.2102	3369.4	2489.6
911.6022	1765.9039	3363.05	2480.7
911.7429	1767.5968	3350.7	2470.5
911.8836	1769.289	3362.6	2480
912.0243	1770.9804	3334.65	2453.45
912.1649	1772.6711	3336.85	2455.9
912.3056	1774.361	3331.9	2450.7
912.4462	1776.0502	3319.6	2437.5
912.5868	1777.7386	3322	2438.2
912.7274	1779.4263	3312.7	2432.85
912.8679	1781.1132	3306.6	2424
913.0084	1782.7994	3292.2	2408.4
913.149	1784.4849	3289.35	2407.8
913.2895	1786.1696	3312.4	2410.15
913.4299	1787.8535	3279.3	2398.05
913.5704	1789.5367	3254.8	2372.2
913.7108	1791.2192	3254.4	2375.05
913.8513	1792.9009	3261	2363.7
913.9917	1794.5818	3252.7	2373.3
914.132	1796.2621	3246.55	2368.05
914.2724	1797.9415	3241.95	2361.5
914.4128	1799.6202	3232.6	2351.65
914.5531	1801.2982	3214.6	2333.5
914.6934	1802.9755	3223.05	2341.85
914.8337	1804.6519	3204.35	2322.65
914.9739	1806.3277	3206.9	2325
915.1142	1808.0027	3193.5	2312.95
915.2544	1809.6769	3193.4	2311.4
915.3946	1811.3504	3177.2	2293.3
915.5348	1813.0231	3180.05	2298.6
915.675	1814.6951	3178.9	2297.6
915.8151	1816.3664	3165.7	2282.65
915.9553	1818.0369	3165.55	2286.35
916.0954	1819.7067	3166.9	2287.05
916.2355	1821.3757	3157.35	2272.95
916.3755	1823.044	3156.15	2274.85
916.5156	1824.7115	3155.8	2273
916.6556	1826.3783	3130.65	2251
916.7956	1828.0443	3134.35	2253.35
916.9356	1829.7096	3121.2	2238.85
917.0756	1831.3741	3120.95	2235.85
917.2155	1833.0379	3127.05	2244.85
917.3555	1834.701	3119.65	2238.3
917.4954	1836.3633	3102.3	2219.65
917.6353	1838.0248	3103.9	2221.4
917.7751	1839.6856	3098.2	2215.55
917.915	1841.3457	3090.9	2210
918.0548	1843.005	3097.1	2216.4
918.1946	1844.6636	3082.05	2200.25
918.3344	1846.3214	3084.8	2204.1
918.4742	1847.9785	3098.05	2217.9
918.6139	1849.6349	3063.4	2179
918.7537	1851.2904	3078.1	2190.55
918.8934	1852.9453	3064.05	2182.45
919.0331	1854.5994	3078.8	2196.35
919.1727	1856.2528	3063.2	2176
919.3124	1857.9054	3051.3	2170.15
919.452	1859.5572	3056.9	2174.1
919.5916	1861.2083	3035.45	2153.75
919.7312	1862.8587	3043.25	2161.2
919.8708	1864.5084	3036.15	2154.4
920.0103	1866.1572	3033.65	2153.9
920.1498	1867.8054	3008.55	2127.25
920.2893	1869.4528	3014.7	2135.2
920.4288	1871.0994	2999.75	2119.3
920.5683	1872.7453	2998.25	2117.7
920.7077	1874.3905	3018.05	2117
920.8471	1876.0349	2978.2	2097
920.9865	1877.6786	2994.05	2112.85
921.1259	1879.3215	2992.95	2112.8
921.2653	1880.9637	2979.3	2096.9
921.4046	1882.6051	2980.9	2099.25
921.5439	1884.2458	2967.1	2083.6
921.6832	1885.8858	2966.7	2083.65
921.8225	1887.525	2960.85	2080.9
921.9617	1889.1634	2950.3	2067.6
922.101	1890.8011	2937.2	2054.3
922.2402	1892.4381	2938.45	2059.45
922.3794	1894.0743	2946.75	2066.35
922.5185	1895.7098	2917.15	2036.9
922.6577	1897.3446	2919.25	2037.3
922.7968	1898.9786	2920.8	2035.1
922.9359	1900.6118	2918.65	2038.9
923.075	1902.2443	2903.5	2019.65
923.214	1903.8761	2899.5	2017.25
923.3531	1905.5071	2892.85	2011.5
923.4921	1907.1374	2880.75	1998.25
923.6311	1908.7669	2883.05	2003.1
923.77	1910.3957	2878.05	1997.05
923.909	1912.0237	2871.15	1989.6
924.0479	1913.651	2866.8	1983.65
924.1868	1915.2776	2869.25	1990.3
924.3257	1916.9034	2836.85	1957.1
924.4646	1918.5285	2831.9	1951.45
924.6034	1920.1528	2830.5	1949.75
924.7422	1921.7764	2840.15	1959.15
924.881	1923.3992	2831.05	1949.95
925.0198	1925.0213	2811.6	1930.65
925.1586	1926.6427	2810.6	1931.3
925.2973	1928.2633	2899.8	1916.35
925.436	1929.8832	2810.35	1929.95
925.5747	1931.5023	2793.7	1912.95
925.7134	1933.1207	2781.15	1901.55
925.852	1934.7383	2792.5	1911.75
925.9906	1936.3552	2779.15	1897.15
926.1292	1937.9714	2766.15	1886.45
926.2678	1939.5868	2764.9	1881.85
926.4064	1941.2015	2756.7	1875
926.5449	1942.8154	2749.3	1868.75
926.6834	1944.4286	2740.45	1859.65
926.8219	1946.041	2754.25	1847.35
926.9604	1947.6528	2734.05	1848.4
927.0988	1949.2637	2710.6	1829.3
927.2372	1950.8739	2703.1	1821.05
927.3756	1952.4834	2703.5	1821
927.514	1954.0921	2704.75	1823.7
927.6523	1955.7001	2702.15	1816.1
927.7907	1957.3074	2706.6	1826.9
927.929	1958.9139	2703.15	1822.95
928.0673	1960.5197	2677.35	1794.05
928.2055	1962.1247	2662.05	1779.6
928.3438	1963.729	2654.35	1774.05
928.482	1965.3325	2686.25	1781.45
928.6202	1966.9353	2652.3	1773.25
928.7584	1968.5374	2649.85	1766.4
928.8965	1970.1387	2646.05	1766.3
929.0346	1971.7393	2644.05	1761.3
929.1727	1973.3392	2625.05	1742.5
929.3108	1974.9383	2632.45	1752.95
929.4489	1976.5366	2616.75	1734.3
929.5869	1978.1342	2618.3	1736.9
929.7249	1979.7311	2618.25	1736.45
929.8629	1981.3273	2611.9	1731.15
930.0009	1982.9227	2610	1726.15
930.1388	1984.5173	2599.35	1717.7
930.2767	1986.1112	2593.55	1712.5
930.4146	1987.7044	2583.55	1705.3
930.5525	1989.2968	2584.2	1700.6
930.6904	1990.8885	2580.35	1697.2
930.8282	1992.4795	2579.95	1696.9
930.966	1994.0697	2566.45	1684.15
931.1038	1995.6592	2556.55	1673.25
931.2415	1997.2479	2557.6	1676.15
931.3793	1998.8359	2552.25	1670.15
931.517	2000.4232	2545.3	1664.2
931.6547	2002.0097	2529.2	1648.6
931.7923	2003.5955	2529.5	1646.85
931.93	2005.1805	2534.65	1651.65
932.0676	2006.7648	2539.2	1657.35
932.2052	2008.3484	2529.35	1646.6
932.3427	2009.9312	2540.6	1656.55
932.4803	2011.5133	2515.2	1635.3
932.6178	2013.0946	2507.25	1625
932.7553	2014.6752	2506.2	1626.3
932.8928	2016.2551	2502.95	1620.85
933.0302	2017.8342	2503.95	1621.95
933.1676	2019.4126	2499.15	1619.1
933.305	2020.9902	2490.45	1608.9
933.4424	2022.5672	2483.05	1601.3
933.5798	2024.1433	2480.35	1592
933.7171	2025.7188	2466.8	1585.75
933.8544	2027.2935	2473.4	1591.5
933.9917	2028.8674	2468.3	1586.85
934.129	2030.4406	2460.95	1580.05
934.2662	2032.0131	2469.3	1589.15
934.4034	2033.5849	2444.2	1555.6
934.5406	2035.1559	2454.15	1572.75
934.6778	2036.7261	2431.85	1550.9
934.8149	2038.2957	2441.6	1561.5
934.952	2039.8645	2430.35	1548.65
935.0891	2041.4325	2438.65	1554.5
935.2262	2042.9998	2436.15	1556.7
935.3632	2044.5664	2420.95	1535.15
935.5002	2046.1323	2433.1	1552.75
935.6372	2047.6974	2419.45	1538.4
935.7742	2049.2617	2426.3	1547.25
935.9111	2050.8254	2436.65	1519.55
936.048	2052.3883	2422.6	1539.2
936.1849	2053.9504	2400.75	1518.85
936.3218	2055.5118	2392.7	1512.15
936.4586	2057.0725	2390.95	1504.4
936.5955	2058.6325	2388.85	1507.6
936.7323	2060.1917	2380.9	1499.6
936.869	2061.7502	2385.3	1501.9
937.0058	2063.3079	2373.55	1493.15
937.1425	2064.8649	2375	1488.8
937.2792	2066.4212	2375.3	1493.1
937.4159	2067.9767	2364.3	1484.35
937.5525	2069.5315	2355.45	1471.35
937.6891	2071.0856	2358.5	1476.4
937.8257	2072.6389	2350.05	1468.3
937.9623	2074.1915	2335.55	1457.45
938.0989	2075.7433	2339.8	1456.75
938.2354	2077.2945	2329.9	1448
938.3719	2078.8448	2335.75	1455.15
938.5084	2080.3945	2326.85	1445.85
938.6448	2081.9434	2317.25	1436.85
938.7812	2083.4916	2319.45	1438.7
938.9176	2085.039	2308.05	1426.05
939.054	2086.5857	2309.35	1427.9
939.1903	2088.1317	2289.85	1408.65
939.3267	2089.677	2302.4	1421.05
939.463	2091.2215	2305.45	1424.05
939.5992	2092.7652	2294.9	1411.05
939.7355	2094.3083	2288.2	1406.25
939.8717	2095.8506	2283.55	1403.95
940.0079	2097.3921	2289.85	1410.15
940.1441	2098.933	2283.7	1401.55
940.2802	2100.4731	2270.15	1388.55
940.4163	2102.0124	2285.6	1387
940.5524	2103.5511	2279.9	1401.1
940.6885	2105.089	2272.3	1391.25
940.8245	2106.6261	2268.25	1386.8
940.9606	2108.1626	2267.4	1384.1
941.0965	2109.6983	2286.3	1376.65
941.2325	2111.2332	2266.4	1384.55
941.3684	2112.7675	2255.65	1372.5
941.5044	2114.301	2259.05	1379.2
941.6403	2115.8337	2249.6	1368.15
941.7761	2117.3657	2251.65	1370.75
941.912	2118.897	2245.05	1361.75
942.0478	2120.4276	2237.4	1348.95
942.1835	2121.9575	2230.15	1348.95
942.3193	2123.4866	2247.75	1352.25
942.455	2125.0149	2234	1349.5
942.5907	2126.5426	2216.55	1333.85
942.7264	2128.0695	2227.85	1343.9
942.8621	2129.5956	2211.95	1330.8
942.9977	2131.1211	2219.75	1334.65
943.1333	2132.6458	2204.3	1325.1
943.2689	2134.1698	2197.4	1312.75
943.4044	2135.693	2197.55	1315.45
943.54	2137.2155	2202.05	1317.55
943.6755	2138.7373	2204.8	1321.4
943.8109	2140.2584	2190.15	1308.9
943.9464	2141.7787	2197.3	1309.85
944.0818	2143.2983	2184.25	1304.15
944.2172	2144.8171	2171.35	1291.35
944.3526	2146.3353	2175.35	1291.05
944.4879	2147.8527	2167	1287.35
944.6232	2149.3693	2175.7	1293.75
944.7585	2150.8853	2165.55	1283.7
944.8938	2152.4005	2155.25	1274.35
945.029	2153.9149	2164.1	1284.05
945.1642	2155.4287	2152.85	1272.1
945.2994	2156.9417	2143.6	1259.25
945.4346	2158.454	2143.75	1259.6
945.5697	2159.9655	2151.25	1268.35
945.7048	2161.4764	2136.7	1256.25
945.8399	2162.9865	2143.25	1261
945.9749	2164.4958	2138.8	1254.65
946.1099	2166.0045	2137.5	1252.6
946.2449	2167.5124	2121.4	1241.65
946.3799	2169.0195	2124	1243.5
946.5148	2170.526	2121.1	1238.65
946.6498	2172.0317	2120	1237.95
946.7846	2173.5367	2113.9	1231.7
946.9195	2175.0409	2113.3	1232.3
947.0543	2176.5445	2109.5	1229.75
947.1891	2178.0473	2101.15	1218.55
947.3239	2179.5494	2105.9	1222.35
947.4587	2181.0507	2105.65	1224.3
947.5934	2182.5513	2097.35	1217.35
947.7281	2184.0512	2095.2	1214.25
947.8628	2185.5504	2092.1	1210.7
947.9974	2187.0488	2090	1207.65
948.132	2188.5465	2081.45	1197.8
948.2666	2190.0435	2087.9	1206.95
948.4012	2191.5397	2078.1	1196.35
948.5357	2193.0353	2065.65	1185
948.6702	2194.5301	2061.8	1179.8
948.8047	2196.0241	2064	1183.1
948.9392	2197.5175	2056.65	1175.75
949.0736	2199.0101	2051.3	1164.4
949.208	2200.502	2053.5	1172.4
949.3424	2201.9931	2051.1	1168.45
949.4767	2203.4835	2050.85	1166.85
949.611	2204.9733	2046.25	1159.6
949.7453	2206.4622	2035.75	1155
949.8796	2207.9505	2036.9	1154.3
950.0138	2209.438	2026.9	1146.9
950.148	2210.9248	2028.95	1144.25
950.2822	2212.4109	2019.5	1139.3
950.4164	2213.8962	2023.95	1139.8
950.5505	2215.3809	2012.6	1130.6
950.6846	2216.8648	2012.4	1131.95
950.8186	2218.3479	2011.95	1126.7
950.9527	2219.8304	2006.35	1122.7
951.0867	2221.3121	2002.6	1120.8
951.2207	2222.7931	1993.65	1113.65
951.3546	2224.2733	1989.15	1108.3
951.4886	2225.7529	1987.85	1106.05
951.6225	2227.2317	1988.15	1101.85
951.7563	2228.7098	1988	1106.35
951.8902	2230.1872	1978.35	1097.9
952.024	2231.6638	1976.45	1096.05
952.1578	2233.1397	1982.8	1096.4
952.2916	2234.6149	1970.65	1091.4
952.4253	2236.0894	1969.9	1086.05
952.559	2237.5632	1979.55	1088.3
952.6927	2239.0362	1962.3	1080.15
952.8263	2240.5085	1960	1078.65
952.9599	2241.9801	1955.6	1074.65
953.0935	2243.4509	1959.05	1077.4
953.2271	2244.921	1946.45	1066.75
953.3606	2246.3904	1946.5	1062.3
953.4941	2247.8591	1934.8	1053.55
953.6276	2249.3271	1936.9	1055.05
953.7611	2250.7943	1931.15	1048.85
953.8945	2252.2608	1916.4	1034.55
954.0279	2253.7266	1920.9	1039.9
954.1612	2255.1917	1922.05	1040.3
954.2946	2256.656	1927.65	1045.4
954.4279	2258.1197	1915.25	1035.55
954.5612	2259.5826	1908.85	1025.45
954.6944	2261.0447	1903.8	1021.8
954.8276	2262.5062	1909	1026.85
954.9608	2263.9669	1904.35	1021.95
955.094	2265.4269	1907.95	1026.95
955.2271	2266.8862	1903.55	1020.8
955.3602	2268.3448	1894.75	1011.45
955.4933	2269.8026	1888.25	1006.5
955.6264	2271.2598	1896.75	1015.15
955.7594	2272.7162	1897	1015.95
955.8924	2274.1719	1876.75	995.65
956.0253	2275.6268	1882.3	1000.85
956.1583	2277.0811	1887.95	1005.9
956.2912	2278.5346	1882.6	1001.3
956.4241	2279.9874	1876.8	994.65
956.5569	2281.4395	1867.6	986.85
956.6897	2282.8908	1879.85	993.35
956.8225	2284.3414	1885.9	1002.75
956.9553	2285.7914	1870.35	988.75
957.088	2287.2406	1875.95	992.65
957.2207	2288.689	1861.5	979.9
957.3534	2290.1368	1865.5	984.15
957.486	2291.5838	1858.95	976.6
957.6186	2293.0302	1855.45	975.4
957.7512	2294.4758	1857.7	976.3
957.8838	2295.9206	1862.2	979.3
958.0163	2297.3648	1844.75	964
958.1488	2298.8082	1845.9	964.4
958.2813	2300.251	1850.35	968.6
958.4137	2301.693	1838.45	954.4
958.5461	2303.1343	1846.25	964.25
958.6785	2304.5748	1835.2	953.5
958.8108	2306.0147	1826.55	943.45
958.9432	2307.4538	1836.3	951.2
959.0754	2308.8922	1826.95	947.1
959.2077	2310.3299	1827.55	945.3
959.3399	2311.7669	1822.15	940.85
959.4721	2313.2031	1822.35	941.55
959.6043	2314.6387	1813.7	930.85
959.7365	2316.0735	1815.9	935.8
959.8686	2317.5076	1814.5	931.45
960.0006	2318.941	1811.1	929.8
960.1327	2320.3737	1805.9	925.55
960.2647	2321.8056	1803.85	920.5
960.3967	2323.2369	1798.2	916.9
960.5287	2324.6674	1806.75	925.5
960.6606	2326.0972	1792.4	908.8
960.7925	2327.5263	1794.8	916.25
960.9244	2328.9547	1783.35	901
961.0562	2330.3823	1789.05	908.9
961.1881	2331.8092	1794.05	910.4
961.3198	2333.2355	1770.5	889.15
961.4516	2334.661	1785.6	904.45
961.5833	2336.0858	1780.55	897.5
961.715	2337.5098	1771.5	890.65
961.8467	2338.9332	1767.9	886.3
961.9783	2340.3558	1775.1	890.95
962.1099	2341.7778	1771.6	890.65
962.2415	2343.199	1769.5	884.1
962.373	2344.6195	1769	886.35
962.5045	2346.0393	1761.6	881
962.636	2347.4583	1769	886.15
962.7675	2348.8767	1757.45	876
962.8989	2350.2943	1756.25	875.1
963.0303	2351.7113	1761.05	879
963.1617	2353.1275	1760.95	879.7
963.293	2354.543	1773.75	868.7
963.4243	2355.9578	1749	866.3
963.5556	2357.3718	1752.85	870.8
963.6868	2358.7852	1740.8	854.85
963.818	2360.1978	1741.3	858.85
963.9492	2361.6098	1744.95	863.5
964.0803	2363.021	1751.7	866.05
964.2114	2364.4315	1737.95	856.6
964.3425	2365.8413	1739.2	855.45
964.4736	2367.2504	1726.65	845.65
964.6046	2368.6587	1721	839.05
964.7356	2370.0664	1732.35	851.05
964.8666	2371.4733	1721.65	840.3
964.9975	2372.8795	1726.55	846.05
965.1284	2374.285	1713.35	831.15
965.2593	2375.6899	1720.9	841.15
965.3901	2377.0939	1716.3	834.1
965.5209	2378.4973	1711.45	831.5
965.6517	2379.9	1718.55	837.5
965.7825	2381.3019	1706.45	825.4
965.9132	2382.7032	1702.6	822.8
966.0439	2384.1037	1696.65	815.8
966.1745	2385.5035	1702.7	819.85
966.3051	2386.9027	1697.35	816.6
966.4357	2388.3011	1693.55	809.55
966.5663	2389.6987	1699.4	817.4
966.6968	2391.0957	1686.55	806.85
966.8273	2392.492	1698.2	817
966.9578	2393.8876	1676.4	795.1
967.0882	2395.2824	1676.65	793.85
967.2186	2396.6765	1671.8	791.9
967.349	2398.07	1668.95	788.15
967.4793	2399.4627	1660.55	778.3
967.6097	2400.8547	1670.6	789.35
967.7399	2402.246	1667.1	780
967.8702	2403.6366	1664.25	781.25
968.0004	2405.0265	1656.85	775.25
968.1306	2406.4156	1663.85	778.9
968.2607	2407.8041	1654.15	769.6
968.3909	2409.1918	1662.3	777.85
968.521	2410.5789	1643.75	763
968.651	2411.9652	1647.65	763.7
968.781	2413.3508	1642.05	763.7
968.911	2414.7358	1646.75	764.65
969.041	2416.12	1647.2	766.45
969.1709	2417.5035	1636.95	756.95
969.3008	2418.8863	1625.5	743.35
969.4307	2420.2684	1637.1	756.15
969.5606	2421.6497	1632.1	749.3
969.6904	2423.0304	1621.65	740.8
969.8201	2424.4104	1623.75	742.9
969.9499	2425.7896	1629.85	743.3
970.0796	2427.1682	1625.95	746.25
970.2093	2428.546	1620.7	738.55
970.3389	2429.9232	1619.45	736.45
970.4685	2431.2996	1616.5	735.7
970.5981	2432.6753	1619.2	738.35
970.7277	2434.0503	1615.6	733.2
970.8572	2435.4246	1614.7	735.4
970.9867	2436.7982	1613.1	728.25
971.1161	2438.1711	1611.25	730.9
971.2456	2439.5433	1603.1	723.6
971.375	2440.9148	1617.05	729.85
971.5043	2442.2856	1600.3	719.9
971.6336	2443.6557	1593.55	711.35
971.7629	2445.025	1599.5	717.9
971.8922	2446.3937	1591.65	709.95
972.0214	2447.7617	1598.35	717.05
972.1506	2449.1289	1595.75	714.4
972.2798	2450.4955	1592.95	708.15
972.4089	2451.8613	1586.5	706.65
972.538	2453.2265	1593.3	715.3
972.6671	2454.5909	1575.85	694.4
972.7961	2455.9546	1575.45	695.5
972.9251	2457.3177	1585	704.65
973.0541	2458.68	1568.35	687
973.1831	2460.0416	1580.8	701.7
973.312	2461.4025	1579.95	695.9
973.4408	2462.7627	1583.25	688.4
973.5697	2464.1222	1573.35	694.05
973.6985	2465.4811	1575	691.35
973.8273	2466.8392	1572.55	690.9
973.956	2468.1966	1568.65	684.4
974.0847	2469.5533	1569.35	685.25
974.2134	2470.9093	1563	679.6
974.3421	2472.2645	1567.8	684.8
974.4707	2473.6191	1565.2	682.7
974.5993	2474.973	1561.4	678.15
974.7278	2476.3262	1564.3	679.4
974.8563	2477.6787	1555.75	675.4
974.9848	2479.0305	1553.65	672.15
975.1132	2480.3816	1560.2	677.5
975.2417	2481.7319	1551.4	670.6
975.37	2483.0816	1555.3	672.6
975.4984	2484.4306	1557.5	675.15
975.6267	2485.7789	1548.65	666.2
975.755	2487.1264	1544.9	662.05
975.8833	2488.4733	1540.15	660.2
976.0115	2489.8195	1558.25	660.9
976.1397	2491.165	1537	652.05
976.2678	2492.5097	1541.5	657.15
976.3959	2493.8538	1529.1	648.8
976.524	2495.1972	1527.4	645.8
976.6521	2496.5398	1527.8	644.8
976.7801	2497.8818	1524.5	643
976.9081	2499.2231	1524.9	643.35
977.036	2500.5637	1520.15	637.55
977.164	2501.9035	1516.2	634.15
977.2918	2503.2427	1516.6	630.45
977.4197	2504.5812	1516.75	635.65
977.5475	2505.919	1520.95	636.95
977.6753	2507.256	1510.75	629.25
977.8031	2508.5924	1513.3	631.85
977.9308	2509.9281	1515.25	627.5
978.0585	2511.2631	1509.6	629.8
978.1861	2512.5974	1511.95	631.55
978.3137	2513.9309	1504.2	624.05
978.4413	2515.2638	1536.3	625.95
978.5689	2516.596	1502.2	620.35
978.6964	2517.9275	1506.15	625.4
978.8239	2519.2583	1503.4	620.9
978.9513	2520.5884	1500.05	618.75
979.0788	2521.9178	1499.45	616.8
979.2062	2523.2465	1495.8	616.8
979.3335	2524.5745	1487.5	607.35
979.4608	2525.9018	1490.3	606.9
979.5881	2527.2284	1486.6	607.2
979.7154	2528.5543	1483.2	603.55
979.8426	2529.8796	1484.8	602.15
979.9698	2531.2041	1489.75	608.45
980.0969	2532.5279	1489.6	609.35
980.224	2533.851	1490.75	608.9
980.3511	2535.1735	1483.25	600.15
980.4781	2536.4952	1484.5	605.05
980.6052	2537.8163	1480.15	600.25
980.7321	2539.1366	1479.45	600.65
980.8591	2540.4562	1477.55	594.85
980.986	2541.7752	1478.15	596.45
981.1129	2543.0935	1478	596.8
981.2397	2544.411	1474.8	591.55
981.3665	2545.7279	1470.95	590.3
981.4933	2547.0441	1475.75	595.9
981.62	2548.3596	1475.55	592.05
981.7467	2549.6744	1475.55	595.25
981.8734	2550.9885	1477.3	588.35
982.0001	2552.3019	1467.85	590.45
982.1267	2553.6146	1470.1	588
982.2532	2554.9266	1464.15	583.2
982.3798	2556.2379	1464.75	581.05
982.5063	2557.5485	1461.75	579.45
982.6327	2558.8585	1460.5	571.6
982.7592	2560.1677	1464.05	579.55
982.8856	2561.4762	1463.35	582
983.0119	2562.7841	1468.6	585.85
983.1383	2564.0913	1458.7	578.05
983.2646	2565.3977	1454	573.95
983.3908	2566.7035	1457.6	575.05
983.517	2568.0086	1457	574.95
983.6432	2569.313	1455	573.85
983.7694	2570.6167	1455.2	570.35
983.8955	2571.9197	1443.55	562.15
984.0216	2573.222	1455.45	571.2
984.1476	2574.5236	1456.65	575.8
984.2737	2575.8246	1444.75	560.35
984.3996	2577.1248	1450.65	567.4
984.5256	2578.4244	1454.5	575.35
984.6515	2579.7232	1451.1	570.55
984.7774	2581.0214	1487.2	570.8
984.9032	2582.3189	1453.85	572.25
985.029	2583.6157	1456.75	571.25
985.1548	2584.9118	1446.7	568.2
985.2806	2586.2072	1440.05	560.7
985.4063	2587.5019	1443.45	561.4
985.5319	2588.7959	1450.5	567.4
985.6576	2590.0893	1449.55	567.9
985.7832	2591.3819	1449.35	570.6
985.9087	2592.6739	1452.55	574.5
986.0343	2593.9652	1444.9	564
986.1597	2595.2557	1448.3	569.05
986.2852	2596.5456	1447.65	563.65
986.4106	2597.8348	1447.2	566.05
986.536	2599.1234	1447.45	566.25
986.6614	2600.4112	1441.55	560.45
986.7867	2601.6983	1446.6	563.2
986.912	2602.9848	1447.7	564.85
987.0372	2604.2705	1448.5	562.15
987.1624	2605.5556	1444.55	565.45
987.2876	2606.84	1443.5	562.25
987.4128	2608.1237	1441.5	558.65
987.5379	2609.4067	1434.5	554.05
987.6629	2610.689	1448.05	556.85
987.788	2611.9707	1439.45	555
987.913	2613.2516	1432.8	548.25
988.0379	2614.5319	1438.45	558.75
988.1629	2615.8115	1434	551.55
988.2878	2617.0903	1426.55	543.3
988.4126	2618.3685	1425.9	544.95
988.5375	2619.6461	1428.2	546.4
988.6622	2620.9229	1427.45	548.75
988.787	2622.199	1419.6	537.55
988.9117	2623.4745	1420.4	538.35
989.0364	2624.7493	1419.1	538
989.161	2626.0234	1413.1	533.2
989.2857	2627.2968	1413.65	531.8
989.4102	2628.5695	1416.1	534.2
989.5348	2629.8415	1409.35	527.45
989.6593	2631.1128	1415.95	532.95
989.7837	2632.3835	1406.75	526.8
989.9082	2633.6535	1408.3	526.4
990.0326	2634.9228	1409.6	529.35
990.1569	2636.1914	1409.7	529.85
990.2812	2637.4593	1399	516.8
990.4055	2638.7265	1404	519.25
990.5298	2639.9931	1401.7	522.25
990.654	2641.259	1395.85	513.35
990.7782	2642.5242	1403.3	521.05
990.9023	2643.7887	1390.05	509.45
991.0264	2645.0525	1403.95	522.8
991.1505	2646.3156	1398.85	515.35
991.2745	2647.5781	1394.6	516.8
991.3985	2648.8398	1396.85	517.85
991.5225	2650.1009	1429.75	510.9
991.6464	2651.3613	1390.75	509.95
991.7703	2652.6211	1382.2	498.95
991.8942	2653.8801	1389.5	510
992.018	2655.1385	1389.45	506.15
992.1418	2656.3961	1387.9	508.6
992.2655	2657.6531	1389.65	508.45
992.3892	2658.9094	1392.1	509.9
992.5129	2660.1651	1381.45	504.2
992.6366	2661.42	1392.4	509.9
992.7602	2662.6743	1387.5	506.65
992.8837	2663.9279	1385.7	505.45
993.0073	2665.1808	1392.85	511.35
993.1307	2666.433	1392.8	509.45
993.2542	2667.6846	1391.55	510.3
993.3776	2668.9354	1400.7	514.9
993.501	2670.1856	1391.3	510.25
993.6244	2671.4351	1388.95	508.45
993.7477	2672.6839	1400.15	517.9
993.8709	2673.9321	1402.05	520.45
993.9942	2675.1795	1403.15	523.1
994.1174	2676.4263	1386.5	505.05
994.2405	2677.6724	1406.35	526.15
994.3637	2678.9179	1408.05	525.4
994.4868	2680.1626	1403.05	523.85
994.6098	2681.4067	1405.1	524.1
994.7328	2682.6501	1399.8	518.2
994.8558	2683.8928	1394.6	514.45
994.9788	2685.1348	1396.8	516.35
995.1017	2686.3761	1393.05	513.3
995.2245	2687.6168	1385.35	506.9
995.3474	2688.8568	1382.6	501.25
995.4702	2690.0961	1379.85	499.85
995.5929	2691.3348	1376.2	493.3
995.7156	2692.5727	1376.45	495.1
995.8383	2693.81	1370.75	490.35
995.961	2695.0466	1372.75	494.55
996.0836	2696.2826	1379.95	498.2
996.2062	2697.5178	1377.5	490.8
996.3287	2698.7524	1378.2	496.05
996.4512	2699.9863	1379.1	496.55
996.5737	2701.2195	1375.1	493.85
996.6961	2702.452	1383.2	501.75
996.8185	2703.6839	1380.95	500.1
996.9408	2704.9151	1383.55	503.85
997.0631	2706.1456	1384.8	504.1
997.1854	2707.3755	1397.4	513.85
997.3077	2708.6046	1405.65	523.9
997.4299	2709.8331	1407.2	525.9
997.552	2711.0609	1409.2	526.55
997.6742	2712.2881	1408.2	527.25
997.7963	2713.5145	1420.2	536.25
997.9183	2714.7403	1424.4	543.9
998.0403	2715.9654	1426.6	547.45
998.1623	2717.1899	1456.35	560.25
998.2842	2718.4136	1447.5	568
998.4062	2719.6367	1461.35	577.85
998.528	2720.8591	1471.95	582.9
998.6498	2722.0809	1475.5	594.15
998.7716	2723.3019	1492.75	607.8
998.8934	2724.5223	1492.95	610.45
999.0151	2725.7421	1497.45	613.3
999.1368	2726.9611	1505.5	623.1
999.2584	2728.1795	1499.1	612.85
999.38	2729.3972	1489.1	609.65
999.5016	2730.6142	1486.85	593
999.6231	2731.8306	1461.25	579.25
999.7446	2733.0462	1450.9	566.75
999.8661	2734.2612	1450.4	565.25
999.9875	2735.4756	1432.55	549.1
1000.1089	2736.6892	1419.65	539.15
1000.2302	2737.9022	1400.9	521.05
1000.3515	2739.1145	1400.7	518.9
1000.4728	2740.3262	1396.9	508.55
1000.594	2741.5372	1378.05	496.8
1000.7152	2742.7475	1364.95	484.05
1000.8363	2743.9571	1370.9	489.55
1000.9575	2745.1661	1360.7	476.4
1001.0785	2746.3744	1347.8	466.55
1001.1996	2747.582	1336.55	456.4
1001.3206	2748.7889	1332.35	447.65
1001.4415	2749.9952	1320.6	441.1
1001.5625	2751.2008	1326.45	443.65
1001.6833	2752.4057	1321.8	436.65
1001.8042	2753.61	1318.5	435.75
1001.925	2754.8136	1322.2	439.2
1002.0458	2756.0165	1314.55	434.4
1002.1665	2757.2188	1305.25	424.55
1002.2872	2758.4204	1312.45	430.95
1002.4078	2759.6213	1312.2	428.85
1002.5285	2760.8215	1322.45	435.5
1002.649	2762.0211	1314.45	430.6
1002.7696	2763.22	1315.35	431.6
1002.8901	2764.4182	1312.6	430.1
1003.0106	2765.6158	1310.7	428.55
1003.131	2766.8127	1302.1	422.55
1003.2514	2768.009	1305.4	424
1003.3717	2769.2045	1298.4	416.65
1003.492	2770.3994	1304.65	422.85
1003.6123	2771.5936	1297.35	415.2
1003.7325	2772.7872	1295.6	416.15
1003.8527	2773.9801	1294.75	411.15
1003.9729	2775.1723	1305.8	407.6
1004.093	2776.3639	1283.25	402.15
1004.2131	2777.5548	1291.75	408.8
1004.3331	2778.745	1289.15	407.75
1004.4531	2779.9346	1286.05	405.05
1004.5731	2781.1235	1291.3	409.35
1004.693	2782.3117	1297.25	416.25
1004.8129	2783.4992	1291.2	410
1004.9328	2784.6861	1290.55	408.25
1005.0526	2785.8723	1298.3	414.85
1005.1723	2787.0579	1298.9	416.55
1005.2921	2788.2428	1302.35	421.9
1005.4118	2789.427	1310.4	430
1005.5314	2790.6106	1303	422.95
1005.651	2791.7935	1310.95	429.4
1005.7706	2792.9757	1318.35	436.05
1005.8902	2794.1573	1336.95	453.9
1006.0097	2795.3382	1328.4	446.95
1006.1291	2796.5184	1340.5	459.65
1006.2485	2797.698	1353.15	471.75
1006.3679	2798.8769	1358.1	476.35
1006.4873	2800.0551	1368.75	487
1006.6066	2801.2327	1379	496.35
1006.7258	2802.4096	1392.05	512.35
1006.8451	2803.5859	1393.45	510.45
1006.9642	2804.7615	1417.35	536.15
1007.0834	2805.9364	1421.15	541.05
1007.2025	2807.1106	1443.55	562
1007.3216	2808.2842	1458.55	577.55
1007.4406	2809.4572	1483.6	603.3
1007.5596	2810.6294	1504.15	622.2
1007.6785	2811.801	1526.15	646.25
1007.7975	2812.972	1557.1	677.6
1007.9163	2814.1423	1593.1	711.45
1008.0352	2815.3119	1628.7	747.45
1008.154	2816.4808	1664.2	785.3
1008.2727	2817.6491	1700.05	817.3
1008.3914	2818.8167	1745.95	867.5
1008.5101	2819.9837	1809.7	921.9
1008.6288	2821.15	1839.9	961.3
1008.7474	2822.3157	1881.15	1000.05
1008.8659	2823.4807	1932.95	1052.7
1008.9844	2824.645	1980.2	1099.7
1009.1029	2825.8086	2019.7	1139.65
1009.2214	2826.9716	2067.3	1187.5
1009.3398	2828.134	2119	1238.2
1009.4581	2829.2957	2145.2	1262.85
1009.5764	2830.4567	2176.05	1298
1009.6947	2831.617	2189.4	1306.8
1009.813	2832.7767	2202.7	1323.5
1009.9312	2833.9358	2197.45	1316.35
1010.0493	2835.0941	2197	1315.5
1010.1675	2836.2519	2191.45	1310.75
1010.2855	2837.4089	2162.25	1280.05
1010.4036	2838.5653	2150.6	1271.4
1010.5216	2839.7211	2136.05	1255.1
1010.6396	2840.8761	2146.25	1263.5
1010.7575	2842.0306	2141.35	1262.2
1010.8754	2843.1843	2160.65	1278.7
1010.9932	2844.3374	2199.3	1318
1011.111	2845.4899	2217.4	1336.95
1011.2288	2846.6417	2268.15	1387.65
1011.3465	2847.7928	2303.25	1423.4
1011.4642	2848.9433	2362.85	1481
1011.5818	2850.0931	2403.95	1524
1011.6995	2851.2422	2447.5	1565.1
1011.817	2852.3907	2503.15	1621.1
1011.9345	2853.5385	2537.6	1655.6
1012.052	2854.6857	2609.55	1699.4
1012.1695	2855.8323	2619.35	1738.05
1012.2869	2856.9781	2654.4	1773.3
1012.4042	2858.1233	2698.2	1817.3
1012.5216	2859.2679	2732.8	1854
1012.6389	2860.4118	2791.7	1912.1
1012.7561	2861.555	2829.75	1945
1012.8733	2862.6976	2860.1	1977.2
1012.9905	2863.8395	2882.9	2001.7
1013.1076	2864.9808	2895.05	2013.15
1013.2247	2866.1214	2927.3	2048.3
1013.3417	2867.2614	2935.2	2054.4
1013.4587	2868.4007	2964.35	2079.25
1013.5757	2869.5393	2966.6	2084.85
1013.6926	2870.6773	2986.05	2103.2
1013.8095	2871.8146	2991.4	2105.3
1013.9263	2872.9513	2991.7	2106.6
1014.0431	2874.0874	2974.3	2093.85
1014.1599	2875.2227	2958.75	2077.8
1014.2766	2876.3574	2948.1	2068
1014.3933	2877.4915	2921.1	2040.8
1014.51	2878.6249	2909.4	2027.3
1014.6266	2879.7577	2897.9	2015.6
1014.7431	2880.8898	2889.7	1997.25
1014.8596	2882.0212	2867.25	1988.15
1014.9761	2883.152	2860.05	1979
1015.0925	2884.2821	2856.55	1976
1015.2089	2885.4116	2846.6	1965
1015.3253	2886.5405	2841.75	1961.6
1015.4416	2887.6686	2857.9	1974.05
1015.5579	2888.7962	2860.4	1981.9
1015.6741	2889.923	2863.75	1984.5
1015.7903	2891.0493	2871.4	1990.35
1015.9065	2892.1748	2871.85	1991.4
1016.0226	2893.2997	2882.2	2001
1016.1387	2894.424	2897.6	2017.4
1016.2547	2895.5476	2909.3	2028.9
1016.3707	2896.6706	2930.65	2051.9
1016.4866	2897.7929	2945.6	2064.7
1016.6025	2898.9145	2949.95	2069.6
1016.7184	2900.0355	2987.35	2106.5
1016.8342	2901.1559	2999.25	2116.5
1016.95	2902.2756	3031.35	2149.9
1017.0658	2903.3946	3066.75	2185.95
1017.1815	2904.513	3073.95	2191.15
1017.2971	2905.6308	3086	2203.85
1017.4127	2906.7479	3102.55	2218.8
1017.5283	2907.8643	3132.6	2249.9
1017.6439	2908.9801	3138.95	2258.5
1017.7594	2910.0953	3148.5	2267
1017.8748	2911.2098	3143.75	2261.75
1017.9902	2912.3236	3139.7	2249.5
1018.1056	2913.4368	3138.65	2254.25
1018.2209	2914.5494	3116.9	2236
1018.3362	2915.6613	3092.75	2204.3
1018.4515	2916.7725	3067.15	2182.75
1018.5667	2917.8831	3038.7	2155.45
1018.6819	2918.9931	3004.45	2118.05
1018.797	2920.1024	2986.45	2106.65
1018.9121	2921.211	2972.1	2090.85
1019.0271	2922.319	2955.4	2075.15
1019.1421	2923.4264	2948.75	2068.7
1019.2571	2924.5331	2939.8	2060.45
1019.372	2925.6391	2929.5	2051
1019.4869	2926.7445	2934.35	2055.05
1019.6017	2927.8493	2923.1	2040.25
1019.7165	2928.9534	2935.2	2054.9
1019.8313	2930.0569	2952.25	2067.95
1019.946	2931.1597	2951.5	2070.9
1020.0606	2932.2619	2948.9	2065.65
1020.1753	2933.3634	2947.9	2067.45
1020.2899	2934.4643	2952.15	2067.2
1020.4044	2935.5645	2949.65	2061.7
1020.5189	2936.6641	2937.05	2051.05
1020.6334	2937.763	2917.4	2035.3
1020.7478	2938.8613	2892.4	2009.85
1020.8622	2939.959	2858.9	1972.5
1020.9765	2941.056	2813.2	1933.05
1021.0908	2942.1523	2757.15	1874.9
1021.2051	2943.248	2689.35	1809.55
1021.3193	2944.3431	2636.65	1756.45
1021.4334	2945.4375	2549.1	1669
1021.5476	2946.5313	2473.1	1592.25
1021.6617	2947.6244	2395.85	1516.15
1021.7757	2948.7169	2320.3	1437.9
1021.8897	2949.8087	2252	1370.85
1022.0037	2950.8999	2176.9	1296.5
1022.1176	2951.9904	2108.75	1229.45
1022.2315	2953.0803	2056.9	1175.3
1022.3453	2954.1696	2006.9	1124.85
1022.4591	2955.2582	1959.15	1076.95
1022.5728	2956.3462	1916.8	1035.85
1022.6865	2957.4335	1893	1010.2
1022.8002	2958.5202	1874.4	991.8
1022.9138	2959.6062	1850.55	968.95
1023.0274	2960.6916	1835.25	954.85
1023.141	2961.7764	1810.2	929.3
1023.2545	2962.8605	1804.35	923.75
1023.3679	2963.9439	1784.1	904.55
1023.4813	2965.0267	1777.85	894.8
1023.5947	2966.1089	1785.45	881.5
1023.708	2967.1905	1767.65	889.15
1023.8213	2968.2714	1763	881.5
1023.9346	2969.3516	1767.6	886.15
1024.0478	2970.4312	1778.8	891.65
1024.1609	2971.5102	1771.55	890.45
1024.274	2972.5885	1775.25	894.45
1024.3871	2973.6662	1780.1	893
1024.5002	2974.7432	1781.8	901.6
1024.6132	2975.8196	1778.85	896.75
1024.7261	2976.8954	1766.3	885.2
1024.839	2977.9705	1765.15	883.3
1024.9519	2979.045	1752.95	872.45
1025.0647	2980.1188	1745.55	863.95
1025.1775	2981.192	1742.5	861.8
1025.2902	2982.2645	1718.1	836.8
1025.4029	2983.3364	1702.1	822.45
1025.5156	2984.4077	1685.5	806.1
1025.6282	2985.4783	1671	784.55
1025.7407	2986.5483	1632.5	752.75
1025.8532	2987.6177	1621.2	739.95
1025.9657	2988.6864	1592.2	710.25
1026.0782	2989.7545	1555.5	671.6
1026.1906	2990.8219	1532.8	652.65
1026.3029	2991.8887	1508.15	624.65
1026.4152	2992.9548	1481.15	600.05
1026.5275	2994.0204	1456.3	576.45
1026.6397	2995.0852	1427.7	547.55
1026.7519	2996.1495	1410	529.15
1026.864	2997.2131	1387.65	506
1026.9761	2998.276	1369.1	488.35
1027.0882	2999.3383	1354.95	473.25
1027.2002	3000.4	1335.25	453.75
1027.3122	3001.4611	1320.95	440.2
1027.4241	3002.5215	1305.15	423.65
1027.536	3003.5812	1288.05	406
1027.6478	3004.6404	1283.8	401.45
1027.7596	3005.6989	1275.8	393.85
1027.8714	3006.7567	1260.05	379.45
1027.9831	3007.8139	1280.55	373.35
1028.0947	3008.8705	1246	365.85
1028.2064	3009.9264	1253.85	355.1
1028.3179	3010.9818	1232	352.3
1028.4295	3012.0364	1226	342.3
1028.541	3013.0905	1218.65	338.95
1028.6524	3014.1439	1216.85	336.65
1028.7638	3015.1966	1210.6	329.15
1028.8752	3016.2487	1208.45	326
1028.9865	3017.3002	1211.35	322.6
1029.0978	3018.3511	1200.4	321.15
1029.209	3019.4013	1200.75	320.9
1029.3202	3020.4509	1199.05	317.85
1029.4314	3021.4998	1197.5	317
1029.5425	3022.5481	1193.2	312.6
1029.6535	3023.5958	1187.75	305.2
1029.7645	3024.6428	1194.05	314.5
1029.8755	3025.6892	1188.7	309.8
1029.9864	3026.735	1192.45	310.5
1030.0973	3027.7802	1188.55	306.4
1030.2082	3028.8247	1193.5	312.3
1030.319	3029.8685	1186.75	304.95
1030.4297	3030.9118	1191.85	310.75
1030.5404	3031.9544	1191.85	310.45
1030.6511	3032.9963	1195.25	315.25
1030.7617	3034.0376	1198.05	317.15
1030.8723	3035.0783	1206.4	322.7
1030.9829	3036.1184	1202.4	320.4
1031.0934	3037.1578	1199.45	320.4
1031.2038	3038.1966	1207.5	325.95
1031.3142	3039.2348	1207.95	329.15
1031.4246	3040.2723	1209.9	319.7
1031.5349	3041.3092	1205.5	323.25
1031.6452	3042.3455	1207.1	326.15
1031.7554	3043.3811	1207.45	326.15
1031.8656	3044.4161	1205.8	324.2
1031.9758	3045.4505	1201.85	320.85
1032.0859	3046.4842	1200.05	318.75
1032.1959	3047.5173	1201.35	321.4
1032.3059	3048.5498	1197.85	316.75
1032.4159	3049.5816	1193.2	312.1
1032.5258	3050.6128	1193.8	312.45
1032.6357	3051.6434	1192.2	310.05
1032.7455	3052.6734	1190	308.95
1032.8553	3053.7027	1189.5	310.8
1032.9651	3054.7314	1179.5	298.3
1033.0748	3055.7594	1184.4	304.75
1033.1845	3056.7868	1184.95	303.9
1033.2941	3057.8136	1176.75	296.5
1033.4037	3058.8398	1175.2	295.25
1033.5132	3059.8653	1175.8	296.05
1033.6227	3060.8902	1169.2	288.6
1033.7321	3061.9145	1169.65	288.25
1033.8415	3062.9381	1166.75	286.45
1033.9509	3063.9612	1183.05	286.9
1034.0602	3064.9835	1157.95	276.75
1034.1694	3066.0053	1160.9	277.65
1034.2787	3067.0264	1158.1	277.65
1034.3878	3068.0469	1158.65	276.3
1034.497	3069.0668	1154.4	270.9
1034.6061	3070.086	1149.45	268.7
1034.7151	3071.1046	1146.3	261.9
1034.8241	3072.1226	1139.95	257.4
1034.9331	3073.1399	1130.1	248.85
1035.042	3074.1567	1131.7	250.8
1035.1508	3075.1727	1121	240.15
1035.2597	3076.1882	1116.9	237.15
1035.3684	3077.203	1112.45	231.25
1035.4772	3078.2173	1110.9	226.45
1035.5859	3079.2308	1110.1	224.35
1035.6945	3080.2438	1101.65	217.7
1035.8031	3081.2561	1091.3	210.25
1035.9117	3082.2678	1086.25	204.25
1036.0202	3083.2789	1082.7	201.85
1036.1286	3084.2893	1081.5	200.55
1036.2371	3085.2991	1076.55	194.45
1036.3454	3086.3083	1077.85	191.3
1036.4538	3087.3169	1065.15	183.8
1036.562	3088.3248	1067.65	184.5
1036.6703	3089.3321	1059.45	178.3
1036.7785	3090.3388	1055.55	176.15
1036.8866	3091.3449	1049.15	170.1
1036.9948	3092.3503	1052.8	168.9
1037.1028	3093.3551	1049.9	172
1037.2108	3094.3593	1042.4	163.2
1037.3188	3095.3629	1044.2	163.45
1037.4267	3096.3658	1043.45	161.35
1037.5346	3097.3681	1039.4	159.6
1037.6425	3098.3698	1037.1	154.05
1037.7503	3099.3708	1037.35	149.85
1037.858	3100.3713	1028.8	149.2
1037.9657	3101.3711	1027.45	144.5
1038.0734	3102.3702	1162.4	140.1
1038.181	3103.3688	1028.35	144.2
1038.2886	3104.3667	1020.7	141.7
1038.3961	3105.364	1023.35	142.5
1038.5036	3106.3607	1026.9	144.05
1038.611	3107.3568	1020.6	139.45
1038.7184	3108.3522	1015.05	134.3
1038.8257	3109.347	1017.5	136.15
1038.933	3110.3412	1018.95	133.6
1039.0403	3111.3348	1012.65	129.2
1039.1475	3112.3277	1014.1	131.3
1039.2547	3113.32	1012	131.7
1039.3618	3114.3117	1010.5	128.4
1039.4689	3115.3028	1004.15	122.55
1039.5759	3116.2932	1007.95	125.45
1039.6829	3117.2831	1009.35	123.55
1039.7898	3118.2723	1003.45	124.9
1039.8967	3119.2608	1001.05	122.05
1040.0035	3120.2488	999.5	118.3
1040.1103	3121.2361	1001	119.65
1040.2171	3122.2229	994.55	113.1
1040.3238	3123.209	997.9	115.5
1040.4305	3124.1944	999.8	118.8
1040.5371	3125.1793	994.4	111.15
1040.6437	3126.1635	993.85	113.3
1040.7502	3127.1471	991.1	110.6
1040.8567	3128.1301	994.55	114.05
1040.9631	3129.1125	991.4	110.15
1041.0695	3130.0942	990.9	111.15
1041.1759	3131.0753	995.15	105.8
1041.2822	3132.0558	993.75	110.95
1041.3884	3133.0357	992.2	110.8
1041.4946	3134.015	986.15	102.7
1041.6008	3134.9936	985.8	103
1041.7069	3135.9716	1003.65	100.65
1041.813	3136.949	980.9	99.6
1041.919	3137.9258	1002.85	103.15
1042.025	3138.902	983.35	97.45
1042.1309	3139.8775	981.7	101.3
1042.2368	3140.8524	983.2	101.7
1042.3427	3141.8267	982.45	100
1042.4485	3142.8004	978.85	97.25
1042.5542	3143.7735	985.1	98.35
1042.6599	3144.7459	981.3	99.6
1042.7656	3145.7178	980.65	101.3
1042.8712	3146.689	976.6	96.45
1042.9768	3147.6596	973.8	91.9
1043.0823	3148.6295	972.7	89.1
1043.1878	3149.5989	975.1	94.25
1043.2932	3150.5676	971.05	90.95
1043.3986	3151.5357	973.8	93.9
1043.5039	3152.5032	968.65	90.05
1043.6092	3153.4701	972.05	89.4
1043.7145	3154.4364	974.3	90.6
1043.8197	3155.402	966	85.8
1043.9248	3156.367	971.95	89.25
1044.03	3157.3315	987.5	86.7
1044.135	3158.2952	969.5	89.85
1044.24	3159.2584	968.9	88.95
1044.345	3160.221	968.3	85.1
1044.4499	3161.1829	966.95	85.65
1044.5548	3162.1442	963.1	81.65
1044.6596	3163.105	964.25	83.15
1044.7644	3164.065	964.75	83.2
1044.8692	3165.0245	966.35	82.55
1044.9739	3165.9834	965.05	86.85
1045.0785	3166.9416	960.6	77.3
1045.1831	3167.8993	965.2	83.95
1045.2877	3168.8563	962.8	80.7
1045.3922	3169.8127	959	77.5
1045.4966	3170.7684	960.35	79.95
1045.6011	3171.7236	963.4	80.75
1045.7054	3172.6782	960.2	78.5
1045.8098	3173.6321	959.55	78
1045.914	3174.5854	962.6	78.95
1046.0183	3175.5381	959.8	79.65
1046.1224	3176.4902	958.2	78.55
1046.2266	3177.4417	956	73.5
1046.3307	3178.3926	954.35	76.05
1046.4347	3179.3428	954.6	73.55
1046.5387	3180.2924	954.05	73.95
1046.6427	3181.2415	953.55	71.95
1046.7466	3182.1899	956.35	74.35
1046.8504	3183.1377	952.55	73.2
1046.9542	3184.0848	959	73.55
1047.058	3185.0314	953.6	72.35
1047.1617	3185.9773	956.3	75.1
1047.2654	3186.9227	953.5	70.65
1047.369	3187.8674	951.6	71.05
1047.4726	3188.8115	954.5	69.3
1047.5761	3189.755	951.3	69.9
1047.6796	3190.6979	948.8	68.1
1047.783	3191.6402	947.65	67.45
1047.8864	3192.5818	950.6	70.45
1047.9898	3193.5229	970	67
1048.0931	3194.4633	950.25	70.7
1048.1963	3195.4031	947.3	65.4
1048.2995	3196.3423	949.65	68.55
1048.4027	3197.2809	945.95	64.8
1048.5058	3198.2189	947.75	66
1048.6089	3199.1563	953.35	66
1048.7119	3200.0931	946.65	67.3
1048.8148	3201.0292	943.4	63.85
1048.9178	3201.9648	946.4	64.15
1049.0206	3202.8997	946.05	61.65
1049.1235	3203.834	946.55	65.05
1049.2262	3204.7677	945.1	65.1
1049.329	3205.7008	947.45	64.85
1049.4317	3206.6333	942.1	63.9
1049.5343	3207.5652	948.35	65.1
1049.6369	3208.4964	943.8	63.45
1049.7394	3209.4271	940.75	59.65
1049.8419	3210.3571	942.35	60.8
1049.9444	3211.2865	942.65	60.35
1050.0468	3212.2154	943.75	62.45
1050.1491	3213.1436	946.5	60.75
1050.2514	3214.0712	948.5	62.9
1050.3537	3214.9982	939.35	59.35
1050.4559	3215.9246	942	60.5
1050.5581	3216.8503	933.05	53.2
1050.6602	3217.7755	940.3	58.45
1050.7623	3218.7001	936.4	56.55
1050.8643	3219.624	939.15	57.2
1050.9663	3220.5473	938.45	59.8
1051.0682	3221.4701	941.1	59.45
1051.1701	3222.3922	939.3	56.5
1051.2719	3223.3137	936.4	56.55
1051.3737	3224.2346	937.65	54.65
1051.4754	3225.1549	936.8	56.65
1051.5771	3226.0746	934.55	52.15
1051.6788	3226.9937	937.6	54.9
1051.7804	3227.9121	935	55.2
1051.8819	3228.83	935.8	55.4
1051.9834	3229.7473	934.15	53.3
1052.0849	3230.6639	933.95	53.25
1052.1863	3231.5799	935.25	55.75
1052.2876	3232.4954	937.95	54.75
1052.3889	3233.4102	935.35	54.95
1052.4902	3234.3244	933.75	52.05
1052.5914	3235.238	934.35	53.15
1052.6926	3236.151	956.1	49.95
1052.7937	3237.0634	931.45	51.25
1052.8948	3237.9752	929.3	48.3
1052.9958	3238.8864	932.4	51
1053.0968	3239.797	930.2	49.7
1053.1977	3240.7069	932	49.05
1053.2986	3241.6163	933.35	51.75
1053.3994	3242.5251	928.25	47.5
1053.5002	3243.4332	928.05	47.55
1053.6009	3244.3408	929.05	48.4
1053.7016	3245.2477	929.4	49.4
1053.8022	3246.154	930.35	46.85
1053.9028	3247.0598	929.1	48.1
1054.0034	3247.9649	928.7	46.95
1054.1039	3248.8694	928.75	48.4
1054.2043	3249.7733	925.95	45.25
1054.3047	3250.6766	927.7	46.5
1054.4051	3251.5793	929.55	47.75
1054.5054	3252.4814	925.15	44
1054.6056	3253.3829	925.45	46.65
1054.7058	3254.2838	927.6	46.5
1054.806	3255.1841	926.95	46.65
1054.9061	3256.0838	926.1	44.3
1055.0061	3256.9829	922.35	42.85
1055.1062	3257.8814	925.4	42.1
1055.2061	3258.7792	927.1	43.7
1055.306	3259.6765	922.35	40.3
1055.4059	3260.5731	923.6	43.85
1055.5057	3261.4692	922.85	40.2
1055.6055	3262.3647	925.05	43.25
1055.7052	3263.2595	919	38.35
1055.8049	3264.1538	920.7	39.75
1055.9045	3265.0474	922.65	40.6
1056.0041	3265.9404	918.3	37.85
1056.1036	3266.8329	916.15	34.6
1056.2031	3267.7247	927.6	37.5
1056.3025	3268.616	916.25	36.75
1056.4019	3269.5066	919.65	38.45
1056.5013	3270.3966	915.85	30.8
1056.6005	3271.286	915.15	36.55
