Software Version:	3.9.2.0
Unit SN:	10000200
Spectrometer SN:	6960
Date:	3/14/2024 12:45:33 PM
Data Line Index:	25
Spectral Points:	2048
Integration time (ms):	125
Averages:	20
Delay (ms):	30000
Sequence Number:	1
Processing:	dark subtract
Laser Power (mW):	305
Laser Current (mA):	823
Laser Diode Temp (C):	25.1
Laser Case Temp (C):	27.4
System Temp (C):	27.4
Spectrometer Temp (C):	24.9
CCD Temp (C):	0.008
Secondary Temp (C):	20.007
Heatsink Temp (C):	23.294
CCDPCB Temp (C):	36.885
SecondaryPCB Temp (C):	34.573

Wavelength	RamanShift	Raw Counts	Dark Subtracted
787.061	30.1047	417	5.05
787.2016	32.3739	415.85	4.7
787.3422	34.6426	415.45	3.35
787.4828	36.9109	418.05	2.75
787.6235	39.1787	424.35	6.45
787.7642	41.4461	428.9	8.1
787.9049	43.7131	432.4	6.75
788.0456	45.9796	435.95	6.35
788.1863	48.2456	441.2	8
788.3271	50.5112	446.95	8.75
788.4679	52.7764	449.75	12.05
788.6087	55.0411	454.2	10.6
788.7496	57.3054	456.85	9.4
788.8904	59.5692	458.55	8.05
789.0313	61.8326	466.85	13.5
789.1722	64.0955	472.65	15
789.3132	66.3579	481.55	17.9
789.4541	68.6199	482.1	16.5
789.5951	70.8815	493.2	24.85
789.7361	73.1426	508	38.25
789.8771	75.4032	538.15	62.65
790.0181	77.6634	598.55	118.9
790.1592	79.9231	735.1	250.45
790.3003	82.1824	1028.5	539.2
790.4414	84.4412	1512.9	1017.95
790.5825	86.6995	2151.4	1646.3
790.7237	88.9574	2782.8	2269.55
790.8648	91.2148	3226.85	2709.9
791.006	93.4717	3442.3	2919.7
791.1472	95.7282	3496.3	2971.95
791.2885	97.9842	3514.35	2986.9
791.4297	100.2398	3504.25	2974.15
791.571	102.4949	3468.75	2932.85
791.7123	104.7495	3468.3	2928.95
791.8536	107.0036	3426.45	2885
791.9949	109.2573	3407.65	2871.1
792.1363	111.5105	3339.85	2798.9
792.2777	113.7632	3285.25	2742.35
792.4191	116.0154	3251.9	2699.95
792.5605	118.2672	3182.8	2635.45
792.7019	120.5185	3131.9	2584.65
792.8434	122.7693	3062.1	2513.3
792.9849	125.0197	3010.35	2456.05
793.1264	127.2696	2972.5	2416.95
793.2679	129.519	2945.55	2389.25
793.4094	131.7679	2936.85	2377.05
793.551	134.0163	2918.6	2353.75
793.6926	136.2642	2930.25	2359.45
793.8342	138.5117	2923.3	2349.55
793.9758	140.7587	2906.8	2332.6
794.1175	143.0052	2877.65	2302.55
794.2591	145.2512	2846.4	2269.8
794.4008	147.4967	2805.3	2226.9
794.5425	149.7417	2790.25	2211.9
794.6842	151.9863	2763.2	2181.65
794.826	154.2304	2765.05	2177.8
794.9677	156.4739	2763.1	2171.85
795.1095	158.717	2754.35	2163
795.2513	160.9596	2771.65	2176.8
795.3931	163.2017	2777.95	2178.35
795.535	165.4433	2797.8	2199.25
795.6768	167.6844	2789.05	2185.4
795.8187	169.925	2762.45	2158.25
795.9606	172.1651	2733.15	2125
796.1025	174.4047	2708.8	2096.55
796.2445	176.6439	2685.95	2072.2
796.3864	178.8825	2664.5	2046.9
796.5284	181.1206	2658.9	2037.2
796.6704	183.3582	2647.4	2023.1
796.8124	185.5954	2636.05	2010.3
796.9544	187.832	2636.1	2007.2
797.0965	190.0681	2643.5	2011.25
797.2386	192.3037	2649.6	2015.3
797.3806	194.5388	2647.8	2010.35
797.5228	196.7734	2649.8	2008.45
797.6649	199.0075	2654.85	2009.65
797.807	201.2411	2682.2	2035.55
797.9492	203.4742	2683.45	2034.65
798.0914	205.7068	2695.85	2046.8
798.2336	207.9389	2705.6	2054.75
798.3758	210.1704	2711.8	2059.2
798.518	212.4015	2718.05	2061.25
798.6603	214.632	2716.15	2059.3
798.8025	216.862	2705.6	2053.3
798.9448	219.0915	2690.95	2047.35
799.0871	221.3205	2694.75	2054.75
799.2294	223.549	2705.25	2070.05
799.3718	225.777	2705.65	2070.75
799.5141	228.0044	2690.45	2052.9
799.6565	230.2314	2678.3	2044
799.7989	232.4578	2668.9	2030.4
799.9413	234.6837	2666.1	2021.65
800.0837	236.909	2653.45	2008.25
800.2262	239.1339	2671.3	2002.6
800.3687	241.3582	2656	2002.6
800.5111	243.582	2663.65	1986.15
800.6536	245.8053	2661.5	1988.65
800.7961	248.0281	2653.5	1984.35
800.9387	250.2503	2654.1	1978.35
801.0812	252.472	2670.2	1990.1
801.2238	254.6932	2673.9	1991.55
801.3664	256.9139	2673.35	1989.75
801.509	259.134	2681.4	1995.55
801.6516	261.3536	2679.45	1994.2
801.7942	263.5727	2707.3	2018.8
801.9369	265.7912	2728.15	2043.1
802.0795	268.0092	2739.4	2050.95
802.2222	270.2267	2780.55	2092.25
802.3649	272.4436	2814.35	2121.7
802.5076	274.6601	2824.05	2123.9
802.6504	276.8759	2832.5	2139.5
802.7931	279.0913	2857.7	2164.1
802.9359	281.3061	2856.8	2161.25
803.0787	283.5204	2857.25	2158.35
803.2215	285.7341	2885.2	2181.7
803.3643	287.9473	2900.75	2196.65
803.5071	290.16	2894.5	2181.45
803.6499	292.3721	2861.1	2156.9
803.7928	294.5837	2834.05	2128.1
803.9357	296.7947	2812.9	2107.4
804.0786	299.0052	2796.4	2088.8
804.2215	301.2152	2795.95	2087.95
804.3644	303.4246	2770.5	2064.55
804.5074	305.6334	2751.3	2042.35
804.6503	307.8418	2758.9	2048.65
804.7933	310.0495	2733.8	2022.55
804.9363	312.2568	2700.3	1990.2
805.0793	314.4635	2689.8	1977.55
805.2223	316.6696	2649.35	1935.15
805.3653	318.8752	2625.7	1903.8
805.5084	321.0802	2597.15	1882.1
805.6514	323.2847	2586.6	1870.8
805.7945	325.4887	2585.75	1868.55
805.9376	327.692	2595.6	1875.85
806.0807	329.8949	2623.3	1903.95
806.2238	332.0972	2648.15	1927.05
806.367	334.2989	2658.05	1933.45
806.5101	336.5001	2655.5	1930.5
806.6533	338.7007	2642.35	1916.9
806.7965	340.9008	2614.05	1886.6
806.9397	343.1003	2581.85	1853.15
807.0829	345.2992	2543.6	1813.6
807.2261	347.4976	2522.5	1791.8
807.3693	349.6955	2490.5	1756.25
807.5126	351.8927	2486	1747.95
807.6559	354.0895	2481.5	1733.2
807.7991	356.2856	2459.45	1719.95
807.9424	358.4812	2449.15	1709.9
808.0857	360.6763	2445.8	1706.4
808.2291	362.8707	2440.9	1700.6
808.3724	365.0646	2435.8	1691.55
808.5158	367.258	2435.2	1691.45
808.6591	369.4508	2443.95	1694.1
808.8025	371.643	2459.25	1710.95
808.9459	373.8346	2471.05	1718.05
809.0893	376.0257	2505.85	1750.85
809.2327	378.2162	2521.4	1766.15
809.3762	380.4062	2512.95	1757.35
809.5196	382.5956	2504.75	1747.7
809.6631	384.7844	2466.65	1708.05
809.8066	386.9726	2448.8	1687.4
809.9501	389.1603	2416.45	1655.65
810.0936	391.3474	2433.6	1638.25
810.2371	393.5339	2403.15	1638.9
810.3806	395.7199	2394.25	1639.55
810.5241	397.9052	2407.35	1655
810.6677	400.09	2435.7	1685.65
810.8113	402.2743	2444	1689.9
810.9548	404.4579	2475.95	1725.6
811.0984	406.641	2496.2	1744.85
811.2421	408.8235	2517.15	1765.25
811.3857	411.0054	2549.4	1796.8
811.5293	413.1868	2617.35	1861.9
811.673	415.3675	2689.45	1932.5
811.8166	417.5477	2717.4	1958.35
811.9603	419.7273	2642.8	1881.15
812.104	421.9064	2559.6	1790.4
812.2477	424.0848	2495.45	1728.4
812.3914	426.2627	2453.2	1684.6
812.5351	428.4399	2416.1	1645.8
812.6788	430.6166	2387.5	1613.05
812.8226	432.7928	2360.95	1584.7
812.9663	434.9683	2322.85	1548.6
813.1101	437.1432	2307.95	1527.65
813.2539	439.3176	2280.45	1502
813.3977	441.4914	2276.05	1496.2
813.5415	443.6645	2279.05	1499.55
813.6853	445.8371	2278.35	1497
813.8291	448.0091	2261.35	1479.9
813.973	450.1806	2257.9	1477.3
814.1168	452.3514	2255.7	1473.6
814.2607	454.5216	2251.7	1461.2
814.4046	456.6913	2240.35	1455.15
814.5485	458.8603	2243.75	1458.2
814.6924	461.0288	2262.45	1478.95
814.8363	463.1967	2244.2	1461.05
814.9802	465.3639	2237.85	1449.9
815.1241	467.5306	2229.95	1440.7
815.2681	469.6967	2229.85	1441.4
815.412	471.8622	2214.15	1427.8
815.556	474.0271	2218	1429.3
815.7	476.1914	2221.4	1429.35
815.844	478.3551	2208.55	1419.65
815.988	480.5182	2217.6	1426.05
816.132	482.6807	2211.95	1417.9
816.276	484.8426	2220.05	1427.85
816.4201	487.0039	2240.8	1448.4
816.5641	489.1647	2282.65	1489.85
816.7082	491.3248	2292.5	1500.6
816.8522	493.4843	2298.95	1506.2
816.9963	495.6432	2290.75	1497.75
817.1404	497.8015	2271.6	1474.25
817.2845	499.9592	2250.6	1455.1
817.4286	502.1163	2218.2	1422.9
817.5727	504.2728	2182.2	1382.1
817.7168	506.4287	2172.85	1375.45
817.861	508.5839	2176.6	1377.7
818.0051	510.7386	2154.2	1356.15
818.1493	512.8927	2167.65	1360.2
818.2935	515.0461	2155.55	1357.5
818.4377	517.199	2177.95	1379.85
818.5818	519.3512	2193.95	1393.35
818.726	521.5029	2232.05	1426.35
818.8703	523.6539	2258.6	1456
819.0145	525.8043	2275.5	1473.15
819.1587	527.9541	2246.55	1441.8
819.303	530.1033	2195.6	1391.05
819.4472	532.2519	2177.6	1372.9
819.5915	534.3999	2156.85	1350.35
819.7357	536.5472	2148.9	1343.8
819.88	538.694	2153.7	1346.8
820.0243	540.8401	2153.25	1346.5
820.1686	542.9856	2163.85	1354.15
820.3129	545.1305	2166.8	1357.45
820.4572	547.2748	2175.85	1367.45
820.6016	549.4185	2174.4	1362.85
820.7459	551.5615	2175.4	1363.5
820.8902	553.704	2196.6	1387.45
821.0346	555.8458	2188.4	1378.1
821.1789	557.987	2197.05	1385.55
821.3233	560.1276	2223.25	1411.2
821.4677	562.2675	2249.35	1437.45
821.6121	564.4069	2290.95	1479.4
821.7565	566.5456	2307.25	1493.85
821.9009	568.6837	2308.5	1494.2
822.0453	570.8212	2266.5	1455.4
822.1897	572.958	2218.85	1402.25
822.3342	575.0942	2188.95	1374.95
822.4786	577.2299	2170.35	1357.15
822.6231	579.3648	2151.25	1335.7
822.7675	581.4992	2135.65	1322.65
822.912	583.6329	2126.1	1312.2
823.0565	585.766	2139.85	1324.85
823.201	587.8985	2159.95	1345.45
823.3454	590.0304	2198.75	1371.7
823.4899	592.1616	2205.1	1386.4
823.6345	594.2922	2205.7	1386.35
823.779	596.4222	2188.1	1370.5
823.9235	598.5515	2152.05	1332.4
824.068	600.6802	2112.2	1293.2
824.2126	602.8083	2085.85	1265.75
824.3571	604.9358	2081.2	1260.55
824.5017	607.0626	2065.15	1242.8
824.6462	609.1888	2066.8	1244.9
824.7908	611.3144	2093.35	1267.3
824.9354	613.4393	2103.05	1279.45
825.08	615.5636	2134.05	1311.75
825.2246	617.6873	2157.7	1333.25
825.3692	619.8103	2194.15	1367.6
825.5138	621.9327	2189.5	1362.65
825.6584	624.0544	2154.6	1332.3
825.803	626.1756	2129.3	1307
825.9477	628.2961	2089.3	1262.35
826.0923	630.4159	2077.75	1253.2
826.237	632.5351	2073.85	1248.35
826.3816	634.6537	2064.1	1237.45
826.5263	636.7716	2059	1231
826.6709	638.8889	2057.5	1227.6
826.8156	641.0056	2068.2	1241.7
826.9603	643.1216	2068.65	1239.8
827.105	645.237	2081.15	1251.45
827.2497	647.3518	2057.35	1228.55
827.3944	649.4659	2051.1	1220.9
827.5391	651.5793	2027.9	1196.6
827.6838	653.6922	2013.5	1183.5
827.8285	655.8043	2017.85	1186.6
827.9733	657.9159	2002.6	1172.3
828.118	660.0268	1996.95	1163.7
828.2627	662.137	1982.5	1151.2
828.4075	664.2466	1989.7	1158.4
828.5522	666.3556	1990.1	1157.1
828.697	668.4639	1993	1156.9
828.8418	670.5716	1984.05	1150.8
828.9865	672.6786	1983.45	1148.35
829.1313	674.785	1976.45	1141
829.2761	676.8907	1970.55	1134.3
829.4209	678.9958	1964.25	1132.85
829.5657	681.1002	1963.65	1127.3
829.7105	683.204	1966.5	1127
829.8553	685.3072	1971.75	1135.7
830.0001	687.4097	1966.9	1130.3
830.1449	689.5115	1964.05	1127.2
830.2898	691.6127	1964.8	1128.55
830.4346	693.7132	1962.4	1123.4
830.5794	695.8131	1975.15	1123.1
830.7243	697.9123	1964.25	1122.5
830.8691	700.0109	1961.05	1122.6
831.014	702.1089	1961.6	1123.8
831.1588	704.2061	1972.1	1132.65
831.3037	706.3028	1988.25	1144.4
831.4486	708.3987	1992.3	1150.6
831.5935	710.4941	2000.95	1160.3
831.7383	712.5887	2006	1165.2
831.8832	714.6827	2015.85	1171.4
832.0281	716.7761	2000.45	1160.7
832.173	718.8688	1993.35	1150.9
832.3179	720.9608	1991.65	1146.15
832.4628	723.0522	2014.1	1167.75
832.6077	725.1429	2019.6	1175.6
832.7527	727.233	2046.95	1203.3
832.8976	729.3224	2073.1	1231
833.0425	731.4112	2105.75	1259.3
833.1874	733.4993	2122.85	1276.15
833.3324	735.5867	2087.8	1244.05
833.4773	737.6735	2045.15	1199.05
833.6222	739.7596	2014.15	1167.85
833.7672	741.845	2011.4	1165.25
833.9122	743.9298	2008.5	1161
834.0571	746.014	2015.55	1169.55
834.2021	748.0974	2038.55	1192.3
834.347	750.1802	2033.15	1187
834.492	752.2624	2017.85	1169.9
834.637	754.3439	2013.35	1165.75
834.782	756.4247	2002.95	1147.2
834.9269	758.5048	1979.35	1133.35
835.0719	760.5843	1993.9	1147.7
835.2169	762.6631	2005.85	1159.95
835.3619	764.7413	2024.2	1178.8
835.5069	766.8188	2076.4	1225.35
835.6519	768.8956	2121.75	1269.95
835.7969	770.9718	2151.05	1303.1
835.9419	773.0473	2146.6	1297.75
836.0869	775.1221	2121.85	1273.55
836.232	777.1962	2102.95	1253.5
836.377	779.2697	2147.25	1296.2
836.522	781.3426	2209.4	1349
836.667	783.4147	2241.45	1389.8
836.8121	785.4862	2228.45	1378.4
836.9571	787.557	2184.45	1333
837.1021	789.6271	2098	1246.7
837.2472	791.6966	2028.85	1178.1
837.3922	793.7654	1972.75	1120.2
837.5373	795.8335	1934.45	1084.1
837.6823	797.901	1915.95	1062.7
837.8274	799.9678	1903.75	1048.95
837.9724	802.0339	1909.7	1059.05
838.1175	804.0993	1922.55	1061.95
838.2626	806.1641	1903.1	1049.9
838.4076	808.2282	1903.65	1048.6
838.5527	810.2916	1877.65	1019.3
838.6978	812.3544	1870.75	1021.4
838.8428	814.4164	1876.9	1024.4
838.9879	816.4778	1875.05	1020.65
839.133	818.5385	1875.05	1021.65
839.2781	820.5986	1898.35	1044.6
839.4232	822.658	1924.45	1069.95
839.5682	824.7166	1951.05	1097.1
839.7133	826.7747	2012.15	1158.95
839.8584	828.832	2055.2	1201.1
840.0035	830.8886	2102.6	1246.2
840.1486	832.9446	2111.4	1255.95
840.2937	834.9999	2086.2	1232.1
840.4388	837.0545	2043.85	1184.3
840.5839	839.1085	1990.9	1136.2
840.729	841.1618	1954.65	1095.45
840.8741	843.2143	1914.5	1060.3
841.0192	845.2662	1891.1	1034.4
841.1643	847.3175	1875.35	1021.4
841.3095	849.368	1868.65	1014.15
841.4546	851.4179	1875.1	1019
841.5997	853.467	1870.8	1015.8
841.7448	855.5155	1872.45	1014
841.8899	857.5633	1872.2	1015.55
842.0351	859.6105	1874.65	1018.65
842.1802	861.6569	1859.45	1003.2
842.3253	863.7027	1847.25	990.25
842.4704	865.7478	1842.95	985.4
842.6156	867.7922	1837.6	978.35
842.7607	869.8359	1836.05	976.55
842.9058	871.8789	1827.05	967.85
843.0509	873.9212	1867.4	973.4
843.1961	875.9629	1828.45	972.6
843.3412	878.0039	1839.65	978.2
843.4863	880.0441	1849.55	992.7
843.6315	882.0837	1850.85	988.65
843.7766	884.1226	1863.35	1000.95
843.9218	886.1609	1877.4	1018.1
844.0669	888.1984	1912.15	1052.25
844.212	890.2352	1936.75	1077.95
844.3572	892.2714	1951.95	1088.65
844.5023	894.3069	1924.3	1063.35
844.6475	896.3416	1896.3	1037
844.7926	898.3757	1874.05	1014.3
844.9377	900.4091	1850.55	988.45
845.0829	902.4418	1860.4	994.6
845.228	904.4739	1871	1006.8
845.3732	906.5052	1883.4	1020.5
845.5183	908.5358	1877.15	1015.9
845.6635	910.5658	1864.25	1001.4
845.8086	912.595	1836.3	974.5
845.9538	914.6236	1814.2	952.85
846.0989	916.6515	1801.75	940.55
846.2441	918.6786	1781.95	918.1
846.3892	920.7051	1769.35	907.35
846.5344	922.7309	1781.3	915
846.6795	924.756	1774.1	911.75
846.8246	926.7804	1780.65	916
846.9698	928.8041	1784.75	920.3
847.1149	930.8272	1789.25	924.05
847.2601	932.8495	1797.75	931.4
847.4052	934.8711	1799.9	933.8
847.5504	936.892	1791.3	927.55
847.6955	938.9123	1805.55	938.8
847.8407	940.9318	1828.6	964.15
847.9858	942.9506	1833.3	969.55
848.131	944.9688	1818.55	954.8
848.2761	946.9862	1808.25	943.65
848.4213	949.003	1785.25	919.9
848.5664	951.019	1769.8	904
848.7115	953.0344	1756.8	889.65
848.8567	955.0491	1750.35	884.3
849.0018	957.063	1747	881.75
849.147	959.0763	1750.1	885.45
849.2921	961.0888	1739.2	872.65
849.4373	963.1007	1727.8	861.65
849.5824	965.1119	1732	866.35
849.7275	967.1223	1727.2	859.65
849.8727	969.1321	1726.15	860.9
850.0178	971.1412	1714.4	848.2
850.1629	973.1495	1713.5	849
850.3081	975.1572	1751.35	845.2
850.4532	977.1641	1722.9	856.6
850.5983	979.1704	1711.2	844.15
850.7435	981.1759	1720.75	851.45
850.8886	983.1808	1700.65	833.1
851.0337	985.1849	1715.6	836.85
851.1788	987.1884	1704.6	833.85
851.324	989.1911	1707.15	836.6
851.4691	991.1932	1708.4	840.5
851.6142	993.1945	1717.95	850.45
851.7593	995.1951	1701.5	833.3
851.9045	997.1951	1700.55	825.2
852.0496	999.1943	1692.3	827.2
852.1947	1001.1928	1693.15	822.3
852.3398	1003.1906	1697.5	829.9
852.4849	1005.1877	1710.3	841
852.63	1007.1841	1717.9	848.8
852.7751	1009.1798	1727.75	857.3
852.9202	1011.1748	1718.25	849.55
853.0653	1013.1691	1702.4	831.95
853.2104	1015.1627	1681.8	812.75
853.3555	1017.1556	1670.65	801.2
853.5006	1019.1477	1651.8	781.7
853.6457	1021.1392	1635.4	765.75
853.7908	1023.1299	1629.25	759.35
853.9359	1025.12	1632.45	761.4
854.081	1027.1093	1630	760.4
854.2261	1029.0979	1640.6	771.15
854.3712	1031.0859	1650.2	780.2
854.5163	1033.0731	1654.2	783.75
854.6613	1035.0596	1659.6	791.05
854.8064	1037.0454	1652.7	781.4
854.9515	1039.0304	1632.7	762.1
855.0965	1041.0148	1625.1	752.95
855.2416	1042.9985	1617.2	744.75
855.3867	1044.9814	1609.45	738.85
855.5317	1046.9636	1604.85	731.65
855.6768	1048.9452	1600.55	729.75
855.8219	1050.926	1613.05	744.95
855.9669	1052.9061	1619.35	751.25
856.112	1054.8855	1619.3	748.6
856.257	1056.8642	1612.4	741.35
856.4021	1058.8421	1624.1	749.1
856.5471	1060.8194	1611.6	739.55
856.6921	1062.7959	1614.2	743.25
856.8372	1064.7717	1614.8	741.7
856.9822	1066.7469	1609.5	738.05
857.1272	1068.7213	1611.6	736
857.2723	1070.695	1613.3	742.2
857.4173	1072.6679	1630.7	757.4
857.5623	1074.6402	1643.55	771.25
857.7073	1076.6117	1639.65	762.2
857.8523	1078.5826	1625.05	752.5
857.9973	1080.5527	1609.45	732.7
858.1423	1082.5221	1588.55	714.8
858.2873	1084.4908	1569.85	695.4
858.4323	1086.4587	1555.65	681.25
858.5773	1088.426	1561.2	685.15
858.7223	1090.3925	1554.35	676.2
858.8673	1092.3584	1557.15	682.1
859.0123	1094.3235	1554.7	681.35
859.1573	1096.2879	1561.8	688.2
859.3022	1098.2515	1570.85	697.2
859.4472	1100.2145	1587.05	711.8
859.5922	1102.1767	1603.6	729
859.7371	1104.1382	1630.45	755.4
859.8821	1106.099	1660.95	786.15
860.027	1108.0591	1680.15	805.25
860.172	1110.0185	1705.9	830.4
860.3169	1111.9771	1721.7	846.25
860.4619	1113.9351	1747.65	874.95
860.6068	1115.8923	1787.25	912.35
860.7517	1117.8488	1808.05	930.9
860.8967	1119.8045	1768.8	894.35
861.0416	1121.7596	1714.7	840.45
861.1865	1123.7139	1650.45	775.7
861.3314	1125.6675	1627.85	753.1
861.4763	1127.6204	1629.25	753.6
861.6212	1129.5726	1634.7	759.15
861.7661	1131.524	1624.7	751.45
861.911	1133.4748	1603.5	728.25
862.0559	1135.4248	1578	702.7
862.2008	1137.3741	1544.1	670
862.3457	1139.3226	1530.1	654
862.4905	1141.2705	1524.15	650.85
862.6354	1143.2176	1529.65	647.95
862.7803	1145.164	1531	654.45
862.9251	1147.1097	1535.3	659.35
863.07	1149.0546	1524	645.95
863.2148	1150.9989	1512.05	636.45
863.3597	1152.9424	1497.3	619.35
863.5045	1154.8852	1487.6	612.45
863.6493	1156.8272	1480.75	605
863.7942	1158.7686	1485	602
863.939	1160.7092	1475.9	598
864.0838	1162.6491	1474.65	598.35
864.2286	1164.5883	1482.05	606.85
864.3734	1166.5267	1492.6	614.75
864.5182	1168.4644	1499.2	622.25
864.663	1170.4014	1521.45	640.65
864.8078	1172.3377	1534.7	658.5
864.9526	1174.2732	1566	692.3
865.0974	1176.2081	1609.8	734.4
865.2421	1178.1421	1673.7	791.3
865.3869	1180.0755	1736.3	862.35
865.5317	1182.0082	1781.55	903.3
865.6764	1183.9401	1773.3	893.4
865.8212	1185.8713	1714.65	837
865.9659	1187.8017	1647.1	770.1
866.1106	1189.7315	1578.7	702.15
866.2554	1191.6605	1562.7	656.25
866.4001	1193.5888	1508.2	632.8
866.5448	1195.5163	1492.5	615.65
866.6895	1197.4432	1476.85	600.85
866.8342	1199.3693	1471.65	596.7
866.9789	1201.2947	1476.15	591.9
867.1236	1203.2193	1451.75	573.75
867.2683	1205.1432	1454.35	576.5
867.413	1207.0664	1444.75	565.9
867.5576	1208.9889	1452.95	570.65
867.7023	1210.9106	1454.2	575.5
867.847	1212.8316	1450.8	573.8
867.9916	1214.7519	1462.6	575.05
868.1363	1216.6715	1454.25	579.85
868.2809	1218.5903	1465.6	589.75
868.4255	1220.5084	1464.9	587.5
868.5701	1222.4257	1474.2	594.5
868.7148	1224.3424	1471.35	595.35
868.8594	1226.2583	1491.15	606.95
869.004	1228.1735	1507.7	628.8
869.1486	1230.0879	1526.2	646.45
869.2932	1232.0016	1544.2	664.35
869.4377	1233.9146	1563.5	682.7
869.5823	1235.8269	1558.3	681.75
869.7269	1237.7384	1568.25	689.55
869.8715	1239.6492	1566.4	690
870.016	1241.5592	1571.2	689.3
870.1606	1243.4686	1602	722.55
870.3051	1245.3772	1635.1	754.75
870.4496	1247.285	1679.4	801.1
870.5941	1249.1922	1724.55	847.75
870.7387	1251.0986	1759.05	880.35
870.8832	1253.0042	1790.95	912.35
871.0277	1254.9092	1843.3	963
871.1722	1256.8134	1893.7	1012.75
871.3167	1258.7169	1941.15	1061.4
871.4611	1260.6196	1961.9	1083.05
871.6056	1262.5216	1976.4	1096.3
871.7501	1264.4229	1961.05	1084.35
871.8945	1266.3234	1954.25	1073.2
872.039	1268.2232	1919.7	1041.15
872.1834	1270.1223	1883.4	1002.1
872.3278	1272.0207	1855.6	977.7
872.4723	1273.9183	1861	974.4
872.6167	1275.8151	1849	971.25
872.7611	1277.7113	1868.65	988.45
872.9055	1279.6067	1914.55	1034.95
873.0499	1281.5014	1997.45	1114
873.1943	1283.3953	2090.75	1209.1
873.3386	1285.2885	2190.95	1311.6
873.483	1287.181	2276	1393.95
873.6274	1289.0727	2293.7	1415
873.7717	1290.9637	2276.95	1397.15
873.9161	1292.854	2213.2	1332.3
874.0604	1294.7435	2145.75	1264.1
874.2047	1296.6323	2081.2	1204.65
874.349	1298.5204	2032.25	1148.55
874.4933	1300.4077	1982.4	1100.7
874.6376	1302.2943	1946.1	1067.1
874.7819	1304.1802	1933.25	1051.8
874.9262	1306.0653	1923.2	1041.35
875.0705	1307.9497	1901.1	1018.35
875.2147	1309.8333	1880.65	1000.25
875.359	1311.7162	1867.15	987.5
875.5032	1313.5984	1852.85	969.5
875.6475	1315.4798	1845.95	950.75
875.7917	1317.3605	1847.8	949.9
875.9359	1319.2405	1841.55	958.5
876.0801	1321.1197	1837.05	953.35
876.2243	1322.9982	1812.8	927.65
876.3685	1324.876	1767.45	887.2
876.5127	1326.753	1724.15	840.95
876.6569	1328.6293	1667.65	785.95
876.801	1330.5048	1621.9	739.75
876.9452	1332.3796	1582.4	703.6
877.0893	1334.2537	1578.35	669.4
877.2335	1336.127	1526.15	644.4
877.3776	1337.9996	1511.45	629.95
877.5217	1339.8714	1501.75	621.35
877.6658	1341.7426	1535.8	612.45
877.8099	1343.6129	1483.3	601.15
877.954	1345.4826	1470.45	587.45
878.0981	1347.3515	1464.85	582.05
878.2422	1349.2196	1450	569.55
878.3862	1351.087	1454.2	572.95
878.5303	1352.9537	1448.35	568.6
878.6743	1354.8197	1452.85	573.25
878.8184	1356.6849	1453.25	570.7
878.9624	1358.5493	1460.05	579.45
879.1064	1360.4131	1469	586.4
879.2504	1362.276	1495.65	615.9
879.3944	1364.1383	1504.95	624.4
879.5384	1365.9998	1525.9	639.4
879.6823	1367.8606	1510.95	628.25
879.8263	1369.7206	1506.65	623.6
879.9702	1371.5799	1505.35	623.3
880.1142	1373.4384	1499.95	619.2
880.2581	1375.2962	1498.55	615.15
880.402	1377.1533	1463.9	582.15
880.5459	1379.0096	1430.35	547.35
880.6898	1380.8652	1419.5	535.85
880.8337	1382.7201	1400.1	518.25
880.9776	1384.5742	1386.7	505.4
881.1215	1386.4275	1370.35	487.5
881.2653	1388.2802	1358.05	478.6
881.4092	1390.132	1361.15	479.7
881.553	1391.9832	1349.25	468.05
881.6968	1393.8336	1345.3	464.2
881.8406	1395.6832	1341	457.75
881.9844	1397.5322	1339.4	458
882.1282	1399.3803	1333.8	448.05
882.272	1401.2278	1332.85	449.75
882.4158	1403.0745	1321.65	440.05
882.5595	1404.9204	1314.9	433.45
882.7033	1406.7656	1313.95	431.25
882.847	1408.6101	1314.25	431.25
882.9908	1410.4538	1311.25	428.9
883.1345	1412.2968	1303.85	422.3
883.2782	1414.139	1306.85	425
883.4219	1415.9805	1315.1	436.1
883.5656	1417.8213	1321.25	432.65
883.7092	1419.6613	1325.65	443.05
883.8529	1421.5006	1341.65	458.9
883.9965	1423.3391	1355.7	472.15
884.1402	1425.1769	1384.45	500.15
884.2838	1427.0139	1418.35	533.95
884.4274	1428.8502	1471.4	589
884.571	1430.6858	1494.35	612.75
884.7146	1432.5206	1511.3	628.6
884.8582	1434.3547	1511.35	628.95
885.0018	1436.188	1499.3	616.85
885.1453	1438.0206	1497.65	615
885.2889	1439.8524	1482.15	600.55
885.4324	1441.6835	1484.55	601.8
885.5759	1443.5139	1481.65	593.95
885.7194	1445.3435	1489.3	605.2
885.8629	1447.1724	1483.2	602.25
886.0064	1449.0005	1482.75	599.6
886.1499	1450.8279	1477.6	592.85
886.2933	1452.6545	1476.4	594.05
886.4368	1454.4804	1462.65	580.75
886.5802	1456.3056	1472.8	584.6
886.7237	1458.13	1461.45	579.05
886.8671	1459.9536	1449.3	565.75
887.0105	1461.7766	1420.05	537.05
887.1539	1463.5987	1404.95	520.2
887.2972	1465.4202	1382.85	498.05
887.4406	1467.2409	1365.55	484.3
887.584	1469.0608	1343.2	459.15
887.7273	1470.88	1331.1	448.4
887.8706	1472.6984	1311.2	426.75
888.0139	1474.5161	1302.95	417.75
888.1572	1476.3331	1294	411.7
888.3005	1478.1493	1290.1	404.95
888.4438	1479.9648	1280.25	397.45
888.5871	1481.7795	1282.8	399.45
888.7303	1483.5935	1283.35	401.8
888.8736	1485.4067	1286.3	403.25
889.0168	1487.2192	1285.35	402.4
889.16	1489.031	1287.1	400.65
889.3032	1490.842	1282.5	400.75
889.4464	1492.6522	1283.95	400.2
889.5896	1494.4618	1277	391.4
889.7327	1496.2705	1273.55	390.15
889.8759	1498.0785	1273.55	391.7
890.019	1499.8858	1270.65	387.45
890.1622	1501.6924	1265.45	383.55
890.3053	1503.4981	1264.4	381.2
890.4484	1505.3032	1261.8	377.95
890.5914	1507.1075	1256.8	373.4
890.7345	1508.911	1256	371.4
890.8776	1510.7138	1248.3	364.95
891.0206	1512.5159	1248.6	364.6
891.1637	1514.3172	1241.15	357.85
891.3067	1516.1178	1234.45	352.35
891.4497	1517.9176	1232.6	346.4
891.5927	1519.7166	1226.55	344.3
891.7357	1521.515	1230.05	340.05
891.8786	1523.3126	1226	343.1
892.0216	1525.1094	1223.75	339.55
892.1645	1526.9055	1218.6	336.45
892.3074	1528.7008	1215.95	333.25
892.4503	1530.4954	1210.2	322.4
892.5932	1532.2893	1209.75	327.4
892.7361	1534.0824	1220.85	331.7
892.879	1535.8747	1208.05	324.3
893.0218	1537.6663	1206.45	321.4
893.1647	1539.4572	1211.6	325.35
893.3075	1541.2473	1203.75	318.45
893.4503	1543.0367	1203.5	319.55
893.5931	1544.8253	1210.45	320.95
893.7359	1546.6132	1210.9	324.75
893.8787	1548.4003	1215.25	320.6
894.0214	1550.1867	1222.3	329.85
894.1642	1551.9723	1216.25	329.1
894.3069	1553.7572	1228.8	343.35
894.4496	1555.5414	1221.3	335.55
894.5923	1557.3247	1240.2	357.3
894.735	1559.1074	1256.4	374.35
894.8777	1560.8893	1269.7	387.6
895.0204	1562.6705	1296.8	412.65
895.163	1564.4509	1302.35	418.35
895.3056	1566.2305	1314.25	432.7
895.4482	1568.0094	1312.4	429.35
895.5908	1569.7876	1310.75	427.7
895.7334	1571.565	1300.4	416.05
895.876	1573.3417	1305.3	422.6
896.0186	1575.1176	1306.55	422.05
896.1611	1576.8928	1318.9	434.6
896.3036	1578.6672	1327.7	444.1
896.4461	1580.4409	1335.35	451.65
896.5886	1582.2138	1352.65	466.75
896.7311	1583.986	1374.6	489.1
896.8736	1585.7575	1386.85	503.9
897.0161	1587.5282	1399.75	517.35
897.1585	1589.2981	1412.75	529.7
897.3009	1591.0673	1412.3	527.6
897.4433	1592.8358	1421.25	535.45
897.5857	1594.6035	1425.3	538.25
897.7281	1596.3704	1416.45	530.3
897.8705	1598.1366	1408.75	525.2
898.0128	1599.9021	1395	510.85
898.1551	1601.6668	1382.25	494.8
898.2975	1603.4308	1365.1	481
898.4398	1605.194	1369.95	481.05
898.5821	1606.9564	1380.3	496.05
898.7243	1608.7182	1412.1	520.95
898.8666	1610.4791	1449.4	564.05
899.0088	1612.2394	1494.4	610.2
899.1511	1613.9988	1539	655.95
899.2933	1615.7576	1582.55	697.95
899.4355	1617.5156	1595.75	704.55
899.5776	1619.2728	1578.6	693.55
899.7198	1621.0293	1542.4	658.4
899.862	1622.785	1488.4	599.65
900.0041	1624.54	1426.65	539.2
900.1462	1626.2942	1369	483.75
900.2883	1628.0477	1318.15	430.4
900.4304	1629.8005	1284.4	397.75
900.5725	1631.5525	1249.55	363.1
900.7145	1633.3037	1223.3	338.05
900.8566	1635.0542	1207	323.6
900.9986	1636.804	1186.9	300.9
901.1406	1638.553	1240.05	291.85
901.2826	1640.3013	1167.65	283.75
901.4245	1642.0488	1158.3	271.2
901.5665	1643.7955	1153.65	271.35
901.7085	1645.5416	1141.3	256.45
901.8504	1647.2868	1138.85	253.5
901.9923	1649.0313	1138.05	253.4
902.1342	1650.7751	1135.85	247.2
902.2761	1652.5181	1131.2	248.6
902.4179	1654.2604	1130.4	245
902.5598	1656.0019	1126.4	243.2
902.7016	1657.7427	1132.95	248.2
902.8434	1659.4828	1145.65	258.8
902.9852	1661.222	1157.35	269.95
903.127	1662.9606	1173.95	291.1
903.2687	1664.6984	1185.7	300.6
903.4105	1666.4354	1183.8	299.9
903.5522	1668.1717	1180.45	294.85
903.6939	1669.9072	1163.6	279.35
903.8356	1671.642	1148.2	263
903.9773	1673.3761	1123.35	239.8
904.119	1675.1094	1108.25	223.35
904.2606	1676.8419	1099.5	213.9
904.4022	1678.5737	1096.25	210.9
904.5439	1680.3048	1088.85	204.45
904.6855	1682.0351	1082.3	197.3
904.827	1683.7646	1080.4	191.75
904.9686	1685.4934	1076.85	193.25
905.1101	1687.2215	1079.35	196.1
905.2517	1688.9488	1072.9	189.25
905.3932	1690.6754	1067.55	183.85
905.5347	1692.4012	1072.3	186.4
905.6761	1694.1263	1068.3	184.25
905.8176	1695.8506	1067.75	182.3
905.9591	1697.5742	1064.4	181.15
906.1005	1699.297	1066	180.7
906.2419	1701.0191	1060.55	174.5
906.3833	1702.7404	1064.95	180.9
906.5246	1704.461	1058.05	171.6
906.666	1706.1808	1058.5	172.15
906.8073	1707.8999	1061.45	174.05
906.9487	1709.6182	1057.8	171.05
907.09	1711.3358	1052.55	167.25
907.2313	1713.0527	1051.3	167.15
907.3725	1714.7688	1061.3	170.4
907.5138	1716.4841	1052.7	166.35
907.655	1718.1987	1059.75	171.4
907.7962	1719.9126	1049.35	165.85
907.9374	1721.6257	1056.9	167.45
908.0786	1723.338	1052.25	165
908.2198	1725.0496	1050.85	163.8
908.3609	1726.7605	1052.2	167.25
908.502	1728.4706	1046.05	160.45
908.6431	1730.18	1054	168.3
908.7842	1731.8886	1050.2	164.9
908.9253	1733.5964	1051.55	161
909.0664	1735.3036	1050.65	161.05
909.2074	1737.0099	1045.8	158.5
909.3484	1738.7156	1048.3	162.9
909.4894	1740.4204	1043.55	153.7
909.6304	1742.1246	1050.9	165.3
909.7714	1743.8279	1043.3	158.6
909.9123	1745.5306	1047.05	161.2
910.0532	1747.2325	1044.35	159.2
910.1941	1748.9336	1043.9	160.45
910.335	1750.634	1041.9	157.35
910.4759	1752.3336	1042.05	157.1
910.6168	1754.0325	1042.4	157.45
910.7576	1755.7307	1043.95	159.3
910.8984	1757.4281	1044.25	158.4
911.0392	1759.1247	1047.9	155.05
911.18	1760.8206	1044.55	154.15
911.3208	1762.5158	1046.05	158.6
911.4615	1764.2102	1037.6	154.4
911.6022	1765.9039	1038.45	152.55
911.7429	1767.5968	1038.95	155.1
911.8836	1769.289	1039.25	153.5
912.0243	1770.9804	1038.3	151.6
912.1649	1772.6711	1034.85	149.8
912.3056	1774.361	1039.55	152.95
912.4462	1776.0502	1038.15	151.95
912.5868	1777.7386	1040.45	150.7
912.7274	1779.4263	1037.55	150.75
912.8679	1781.1132	1037.8	153.55
913.0084	1782.7994	1037.05	150.15
913.149	1784.4849	1033.95	148.65
913.2895	1786.1696	1057.05	153.65
913.4299	1787.8535	1033.2	147.15
913.5704	1789.5367	1033.95	147
913.7108	1791.2192	1031	145.1
913.8513	1792.9009	1049.35	149.2
913.9917	1794.5818	1034.4	148
914.132	1796.2621	1032.05	147.2
914.2724	1797.9415	1032.05	145.55
914.4128	1799.6202	1028.9	143.5
914.5531	1801.2982	1030.65	145
914.6934	1802.9755	1031.05	144.55
914.8337	1804.6519	1029.2	143.35
914.9739	1806.3277	1027.1	140.65
915.1142	1808.0027	1031.9	147.95
915.2544	1809.6769	1028.7	143.95
915.3946	1811.3504	1028.85	140.4
915.5348	1813.0231	1025.6	137.45
915.675	1814.6951	1027.4	141.6
915.8151	1816.3664	1030.45	142.15
915.9553	1818.0369	1024.85	138.2
916.0954	1819.7067	1026.9	143.15
916.2355	1821.3757	1028.6	142
916.3755	1823.044	1024.55	138.9
916.5156	1824.7115	1024.1	139.65
916.6556	1826.3783	1020.5	136.5
916.7956	1828.0443	1021	138.85
916.9356	1829.7096	1023.55	136.75
917.0756	1831.3741	1026.3	137.4
917.2155	1833.0379	1024.55	139.7
917.3555	1834.701	1022.15	131.75
917.4954	1836.3633	1021.15	132.1
917.6353	1838.0248	1020.5	133.85
917.7751	1839.6856	1021	137.75
917.915	1841.3457	1020.1	134.5
918.0548	1843.005	1019.8	134.45
918.1946	1844.6636	1019.15	134.25
918.3344	1846.3214	1023.35	137.25
918.4742	1847.9785	1019.85	135.25
918.6139	1849.6349	1023.5	136.6
918.7537	1851.2904	1026.65	130.65
918.8934	1852.9453	1016.35	131.85
919.0331	1854.5994	1022.4	135.3
919.1727	1856.2528	1022.05	133.05
919.3124	1857.9054	1015.65	129.9
919.452	1859.5572	1014.3	129.7
919.5916	1861.2083	1019.6	133.4
919.7312	1862.8587	1012.85	127.05
919.8708	1864.5084	1016.2	131.1
920.0103	1866.1572	1013.5	130.15
920.1498	1867.8054	1013.4	127.6
920.2893	1869.4528	1012.5	126.6
920.4288	1871.0994	1017.75	132.95
920.5683	1872.7453	1015.75	131.3
920.7077	1874.3905	1020.15	130.85
920.8471	1876.0349	1016.35	130.35
920.9865	1877.6786	1015.95	130.45
921.1259	1879.3215	1012.1	125.55
921.2653	1880.9637	1014	126.55
921.4046	1882.6051	1013.85	128.6
921.5439	1884.2458	1012.7	125
921.6832	1885.8858	1015.9	129.9
921.8225	1887.525	1014.25	128.95
921.9617	1889.1634	1013.7	128.3
922.101	1890.8011	1010.4	126.75
922.2402	1892.4381	1011.6	127.35
922.3794	1894.0743	1008.6	125.3
922.5185	1895.7098	1012.75	128.9
922.6577	1897.3446	1012.6	125.6
922.7968	1898.9786	1015.2	126.05
922.9359	1900.6118	1009.1	125.25
923.075	1902.2443	1009	121.1
923.214	1903.8761	1008.1	123.1
923.3531	1905.5071	1006.65	121.5
923.4921	1907.1374	1006.25	120.7
923.6311	1908.7669	1005.8	118.35
923.77	1910.3957	1008.1	121.95
923.909	1912.0237	1009.25	125.3
924.0479	1913.651	1008.25	122.25
924.1868	1915.2776	1006.6	122.5
924.3257	1916.9034	1008.4	125.2
924.4646	1918.5285	1001.05	116.55
924.6034	1920.1528	1001.5	117
924.7422	1921.7764	1003	114.95
924.881	1923.3992	1004.05	120.8
925.0198	1925.0213	1005.2	117.25
925.1586	1926.6427	1002.1	117.1
925.2973	1928.2633	1113.1	119.35
925.436	1929.8832	1003.45	116.35
925.5747	1931.5023	1001.1	117.3
925.7134	1933.1207	1004.4	118.95
925.852	1934.7383	998.8	112.15
925.9906	1936.3552	1000.95	115.15
926.1292	1937.9714	1005.6	119.55
926.2678	1939.5868	1000.35	114.7
926.4064	1941.2015	1001.25	115.85
926.5449	1942.8154	1001.35	116.85
926.6834	1944.4286	1001.65	114.85
926.8219	1946.041	1021.7	110.85
926.9604	1947.6528	1003.95	109.4
927.0988	1949.2637	1000.05	115.1
927.2372	1950.8739	997.8	110.3
927.3756	1952.4834	1000.45	114.15
927.514	1954.0921	1001.6	115.05
927.6523	1955.7001	1003.9	115.6
927.7907	1957.3074	993.25	107.4
927.929	1958.9139	997.75	111.05
928.0673	1960.5197	1001.9	114.05
928.2055	1962.1247	999.2	112.7
928.3438	1963.729	993.4	108.9
928.482	1965.3325	1020.15	111.6
928.6202	1966.9353	993.9	107.45
928.7584	1968.5374	994.05	109.3
928.8965	1970.1387	996.75	110.15
929.0346	1971.7393	997.6	111.4
929.1727	1973.3392	996.7	110.95
929.3108	1974.9383	994.15	107.45
929.4489	1976.5366	996.4	111.85
929.5869	1978.1342	994.15	106.15
929.7249	1979.7311	993.8	106.05
929.8629	1981.3273	994.5	107.25
930.0009	1982.9227	991.1	103.1
930.1388	1984.5173	991.35	107.55
930.2767	1986.1112	991.95	105.85
930.4146	1987.7044	991.9	108.3
930.5525	1989.2968	990.6	104.9
930.6904	1990.8885	998.05	112.85
930.8282	1992.4795	995.5	106.6
930.966	1994.0697	995.5	109.2
931.1038	1995.6592	992.85	107.35
931.2415	1997.2479	987.95	100.6
931.3793	1998.8359	989.8	104.25
931.517	2000.4232	989.4	103.9
931.6547	2002.0097	990.65	106.35
931.7923	2003.5955	987.5	101.85
931.93	2005.1805	992.4	103.3
932.0676	2006.7648	987.85	102.7
932.2052	2008.3484	991.9	105.35
932.3427	2009.9312	994.05	104.7
932.4803	2011.5133	986.15	99.65
932.6178	2013.0946	988.1	102.95
932.7553	2014.6752	987.6	102.15
932.8928	2016.2551	987.35	101.15
933.0302	2017.8342	989.65	102.7
933.1676	2019.4126	985.95	99.8
933.305	2020.9902	986.45	100.45
933.4424	2022.5672	988.15	100.4
933.5798	2024.1433	994.3	104.4
933.7171	2025.7188	989.15	104.25
933.8544	2027.2935	989.2	103.1
933.9917	2028.8674	985.05	99.8
934.129	2030.4406	984.95	97.75
934.2662	2032.0131	987.4	101.05
934.4034	2033.5849	990.2	99.05
934.5406	2035.1559	987.7	101.45
934.6778	2036.7261	987.5	100.85
934.8149	2038.2957	985.1	99.95
934.952	2039.8645	987.6	103.55
935.0891	2041.4325	991.8	103.15
935.2262	2042.9998	986.2	100.5
935.3632	2044.5664	989.5	103.5
935.5002	2046.1323	984.85	100.35
935.6372	2047.6974	982.85	97.35
935.7742	2049.2617	986.75	101.35
935.9111	2050.8254	1024.9	105.55
936.048	2052.3883	989.6	103.3
936.1849	2053.9504	990.25	104.6
936.3218	2055.5118	983.4	95
936.4586	2057.0725	991.8	102.5
936.5955	2058.6325	979.85	91.9
936.7323	2060.1917	983.25	98.35
936.869	2061.7502	990.1	102.35
937.0058	2063.3079	985.8	100.25
937.1425	2064.8649	989.95	100.6
937.2792	2066.4212	987.3	100.4
937.4159	2067.9767	984.05	97.05
937.5525	2069.5315	985.25	98.15
937.6891	2071.0856	982.6	95.65
937.8257	2072.6389	987.75	101.4
937.9623	2074.1915	978.75	93.25
938.0989	2075.7433	987.25	99
938.2354	2077.2945	985.1	101.2
938.3719	2078.8448	981.65	97.3
938.5084	2080.3945	983.15	98.05
938.6448	2081.9434	986.7	100.9
938.7812	2083.4916	982.55	96.45
938.9176	2085.039	985.35	98.95
939.054	2086.5857	983.4	96.25
939.1903	2088.1317	978.7	92.65
939.3267	2089.677	987.15	101.35
939.463	2091.2215	982.55	96.85
939.5992	2092.7652	989.4	101.75
939.7355	2094.3083	983.7	96.85
939.8717	2095.8506	981.35	96.8
940.0079	2097.3921	983.15	98.2
940.1441	2098.933	980.25	94.3
940.2802	2100.4731	982	97.6
940.4163	2102.0124	988.25	96.45
940.5524	2103.5511	985.25	99.95
940.6885	2105.089	980.4	95
940.8245	2106.6261	981.7	95.75
940.9606	2108.1626	984.8	99.85
941.0965	2109.6983	1010.1	96.8
941.2325	2111.2332	984.2	96.25
941.3684	2112.7675	985.5	99.75
941.5044	2114.301	986	98.2
941.6403	2115.8337	981.8	97.1
941.7761	2117.3657	981.7	97
941.912	2118.897	983	96.6
942.0478	2120.4276	988.6	97.7
942.1835	2121.9575	979.35	93.75
942.3193	2123.4866	994.55	95.75
942.455	2125.0149	984.5	96.05
942.5907	2126.5426	981.2	94.9
942.7264	2128.0695	985.2	94.55
942.8621	2129.5956	979.85	94.2
942.9977	2131.1211	986.65	95.55
943.1333	2132.6458	982.1	96.2
943.2689	2134.1698	981.1	95.5
943.4044	2135.693	980.55	92.55
943.54	2137.2155	983.75	96.75
943.6755	2138.7373	979.6	93.4
943.8109	2140.2584	980.6	93.45
943.9464	2141.7787	986.8	94.95
944.0818	2143.2983	978.5	92.45
944.2172	2144.8171	974.1	89.1
944.3526	2146.3353	984.5	94.95
944.4879	2147.8527	978.45	91.2
944.6232	2149.3693	979.7	94.7
944.7585	2150.8853	980.8	94.5
944.8938	2152.4005	975.3	88.5
945.029	2153.9149	982.75	95.7
945.1642	2155.4287	977.6	91.65
945.2994	2156.9417	980.4	92.5
945.4346	2158.454	978.7	90.9
945.5697	2159.9655	981.75	97.2
945.7048	2161.4764	977	91.9
945.8399	2162.9865	978.2	90.05
945.9749	2164.4958	978.65	90
946.1099	2166.0045	983.8	94
946.2449	2167.5124	976	90.6
946.3799	2169.0195	978.85	92.9
946.5148	2170.526	978.25	92.35
946.6498	2172.0317	978.85	92.75
946.7846	2173.5367	982	95.75
946.9195	2175.0409	976.8	92.5
947.0543	2176.5445	975.35	88.2
947.1891	2178.0473	975.65	89.3
947.3239	2179.5494	978.1	88
947.4587	2181.0507	979.2	92.35
947.5934	2182.5513	973.5	88.7
947.7281	2184.0512	971.9	87.65
947.8628	2185.5504	974.7	89.9
947.9974	2187.0488	973	86.9
948.132	2188.5465	976.25	90.05
948.2666	2190.0435	977	91.8
948.4012	2191.5397	972.2	86.4
948.5357	2193.0353	973.5	88.65
948.6702	2194.5301	976.05	87.7
948.8047	2196.0241	975.2	87.25
948.9392	2197.5175	975.9	90.55
949.0736	2199.0101	978.3	92.1
949.208	2200.502	971.5	87.4
949.3424	2201.9931	975.75	91.2
949.4767	2203.4835	976.9	89.85
949.611	2204.9733	979.05	86.65
949.7453	2206.4622	972.4	87.65
949.8796	2207.9505	976.95	88.3
950.0138	2209.438	972.1	87.5
950.148	2210.9248	974.25	87.05
950.2822	2212.4109	972.9	85.25
950.4164	2213.8962	974.65	85.7
950.5505	2215.3809	973	85.35
950.6846	2216.8648	970.75	84.7
950.8186	2218.3479	974.7	85.8
950.9527	2219.8304	972.15	83.2
951.0867	2221.3121	969.95	82.85
951.2207	2222.7931	971.95	87.55
951.3546	2224.2733	972.45	85.55
951.4886	2225.7529	970	85.75
951.6225	2227.2317	975.05	85.4
951.7563	2228.7098	969.55	85.2
951.8902	2230.1872	971.8	84.65
952.024	2231.6638	972.8	86.7
952.1578	2233.1397	974.95	85.2
952.2916	2234.6149	968.45	82.5
952.4253	2236.0894	969.8	82.45
952.559	2237.5632	981	86.85
952.6927	2239.0362	968.1	82.95
952.8263	2240.5085	968.55	81.85
952.9599	2241.9801	967.75	82.4
953.0935	2243.4509	966.35	81.9
953.2271	2244.921	968.5	83.65
953.3606	2246.3904	969.95	82.55
953.4941	2247.8591	968.25	83
953.6276	2249.3271	968.35	81.5
953.7611	2250.7943	965.6	78.7
953.8945	2252.2608	966.5	81.85
954.0279	2253.7266	966.55	81.25
954.1612	2255.1917	967.3	81.4
954.2946	2256.656	965.85	78.35
954.4279	2258.1197	963.9	78.7
954.5612	2259.5826	971.35	84.7
954.6944	2261.0447	966.7	78.8
954.8276	2262.5062	970.9	84.05
954.9608	2263.9669	967.45	79.95
955.094	2265.4269	961.85	75.95
955.2271	2266.8862	964.75	78.95
955.3602	2268.3448	966.9	82.2
955.4933	2269.8026	964.05	77.95
955.6264	2271.2598	965.85	80.45
955.7594	2272.7162	958.75	74
955.8924	2274.1719	962.65	78.7
956.0253	2275.6268	960.1	73.85
956.1583	2277.0811	968.4	82.1
956.2912	2278.5346	962.45	80.65
956.4241	2279.9874	963.15	75.7
956.5569	2281.4395	961.55	74.8
956.6897	2282.8908	966.3	76.3
956.8225	2284.3414	963.9	77.2
956.9553	2285.7914	965.2	79.4
957.088	2287.2406	961.05	73.1
957.2207	2288.689	962.25	78.25
957.3534	2290.1368	961.35	76.1
957.486	2291.5838	964.4	76.15
957.6186	2293.0302	962.25	75.25
957.7512	2294.4758	958.8	74.05
957.8838	2295.9206	964.5	76.65
958.0163	2297.3648	963.4	78.85
958.1488	2298.8082	963.75	74.3
958.2813	2300.251	959.4	74.5
958.4137	2301.693	965.35	79.3
958.5461	2303.1343	960.3	71.85
958.6785	2304.5748	961.3	74.85
958.8108	2306.0147	960.45	72.2
958.9432	2307.4538	964.05	76.75
959.0754	2308.8922	957.3	70.8
959.2077	2310.3299	960.45	74.2
959.3399	2311.7669	959.95	73.95
959.4721	2313.2031	957.75	71.5
959.6043	2314.6387	964.2	78.1
959.7365	2316.0735	960.35	76.1
959.8686	2317.5076	957.25	68.8
960.0006	2318.941	956.25	69.5
960.1327	2320.3737	956.45	69.95
960.2647	2321.8056	961.75	75.2
960.3967	2323.2369	959.6	71.6
960.5287	2324.6674	964.3	75.6
960.6606	2326.0972	963.3	75.6
960.7925	2327.5263	966	81.6
960.9244	2328.9547	967.9	83.2
961.0562	2330.3823	967.55	82.45
961.1881	2331.8092	962.45	73.2
961.3198	2333.2355	961.6	75.25
961.4516	2334.661	960.15	73.5
961.5833	2336.0858	960.3	74.65
961.715	2337.5098	954.95	69.45
961.8467	2338.9332	955.75	68.85
961.9783	2340.3558	960.2	69.75
962.1099	2341.7778	956.2	70.1
962.2415	2343.199	957.9	70.75
962.373	2344.6195	958.5	74.1
962.5045	2346.0393	953.85	66.35
962.636	2347.4583	957.55	72
962.7675	2348.8767	953.6	66.7
962.8989	2350.2943	955.3	67.7
963.0303	2351.7113	957.4	70.8
963.1617	2353.1275	955.75	69.95
963.293	2354.543	962.45	68.65
963.4243	2355.9578	952.6	67.4
963.5556	2357.3718	951.6	66.3
963.6868	2358.7852	956.25	65.55
963.818	2360.1978	956.85	69.8
963.9492	2361.6098	953.85	69.3
964.0803	2363.021	957.65	66.05
964.2114	2364.4315	952.25	66.95
964.3425	2365.8413	954.55	64.85
964.4736	2367.2504	952.1	68.05
964.6046	2368.6587	954.35	67.4
964.7356	2370.0664	951.05	66.4
964.8666	2371.4733	952	64.8
964.9975	2372.8795	953.45	67.65
965.1284	2374.285	952.35	65.75
965.2593	2375.6899	952.7	68.65
965.3901	2377.0939	952.5	66.05
965.5209	2378.4973	947.5	62.4
965.6517	2379.9	951	64.35
965.7825	2381.3019	950.3	66.05
965.9132	2382.7032	951.35	66.8
966.0439	2384.1037	946.7	61.6
966.1745	2385.5035	949.7	64.45
966.3051	2386.9027	950.9	64.95
966.4357	2388.3011	956.15	68.2
966.5663	2389.6987	951.95	66.45
966.6968	2391.0957	949.65	64.1
966.8273	2392.492	948.95	62.8
966.9578	2393.8876	947.85	62.35
967.0882	2395.2824	948.95	63.45
967.2186	2396.6765	946.7	62.15
967.349	2398.07	945.6	58.75
967.4793	2399.4627	947.55	60.95
967.6097	2400.8547	950.8	66.75
967.7399	2402.246	953.45	62
967.8702	2403.6366	946.9	60.25
968.0004	2405.0265	947.7	63.65
968.1306	2406.4156	951	59.25
968.2607	2407.8041	951.1	61.6
968.3909	2409.1918	947.45	59.75
968.521	2410.5789	946.75	61
968.651	2411.9652	947.9	58.95
968.781	2413.3508	944.1	58.75
968.911	2414.7358	947.95	59.8
969.041	2416.12	945.45	60.65
969.1709	2417.5035	943.75	60.35
969.3008	2418.8863	942.9	54.5
969.4307	2420.2684	942.65	56.5
969.5606	2421.6497	944.7	57.75
969.6904	2423.0304	943.95	59.9
969.8201	2424.4104	945.95	61.1
969.9499	2425.7896	952.65	60
970.0796	2427.1682	943	55.45
970.2093	2428.546	948.55	61.4
970.3389	2429.9232	948	60.65
970.4685	2431.2996	943.25	58.3
970.5981	2432.6753	942.45	57.45
970.7277	2434.0503	942.5	57.3
970.8572	2435.4246	941.95	56
970.9867	2436.7982	943.15	54.15
971.1161	2438.1711	940.75	54.95
971.2456	2439.5433	945.3	59.4
971.375	2440.9148	949.75	57.6
971.5043	2442.2856	939.85	54.35
971.6336	2443.6557	943.8	58.1
971.7629	2445.025	939.2	53.25
971.8922	2446.3937	942.45	55.35
972.0214	2447.7617	944.05	57.2
972.1506	2449.1289	938.85	54.3
972.2798	2450.4955	942.9	53.25
972.4089	2451.8613	940	55.75
972.538	2453.2265	940.2	53.6
972.6671	2454.5909	941.05	54.65
972.7961	2455.9546	939.35	54.15
972.9251	2457.3177	942.1	57.2
973.0541	2458.68	941.05	52.4
973.1831	2460.0416	939.5	54.1
973.312	2461.4025	942.4	53.6
973.4408	2462.7627	950.65	52.45
973.5697	2464.1222	939.85	52.85
973.6985	2465.4811	940.65	52.75
973.8273	2466.8392	938.55	51.85
973.956	2468.1966	942.3	54
974.0847	2469.5533	940.85	52.5
974.2134	2470.9093	940.4	53.15
974.3421	2472.2645	943.45	55.1
974.4707	2473.6191	939.4	54.55
974.5993	2474.973	937.45	51.9
974.7278	2476.3262	938.55	51.75
974.8563	2477.6787	939.35	53.8
974.9848	2479.0305	940.45	55
975.1132	2480.3816	941.25	53.05
975.2417	2481.7319	941.35	54.5
975.37	2483.0816	939.35	51.15
975.4984	2484.4306	939.1	51.65
975.6267	2485.7789	937.6	51.55
975.755	2487.1264	939.85	51.55
975.8833	2488.4733	936.3	52.1
976.0115	2489.8195	951.6	49.3
976.1397	2491.165	939.55	52.6
976.2678	2492.5097	940.2	51.3
976.3959	2493.8538	938.3	51.15
976.524	2495.1972	936.95	49.55
976.6521	2496.5398	935.35	47
976.7801	2497.8818	939.25	51.6
976.9081	2499.2231	933.55	46.55
977.036	2500.5637	938.4	49.05
977.164	2501.9035	934.3	48.3
977.2918	2503.2427	937.6	48.8
977.4197	2504.5812	936.5	51.5
977.5475	2505.919	939.1	50.85
977.6753	2507.256	936.2	50.95
977.8031	2508.5924	934.55	49.2
977.9308	2509.9281	938.9	46.45
978.0585	2511.2631	936.4	50.55
978.1861	2512.5974	931.4	45.75
978.3137	2513.9309	933.95	46.8
978.4413	2515.2638	966.95	47.85
978.5689	2516.596	932.7	45.55
978.6964	2517.9275	937.9	50.1
978.8239	2519.2583	933.95	46.15
978.9513	2520.5884	934.1	44.95
979.0788	2521.9178	933.25	45.45
979.2062	2523.2465	931.05	46.05
979.3335	2524.5745	934.2	47.5
979.4608	2525.9018	936.3	50.25
979.5881	2527.2284	931.6	45
979.7154	2528.5543	931.4	47.1
979.8426	2529.8796	932.3	45.2
979.9698	2531.2041	934.35	48.05
980.0969	2532.5279	931.75	46.05
980.224	2533.851	932.05	44.4
980.3511	2535.1735	931.6	46.2
980.4781	2536.4952	932.95	46.3
980.6052	2537.8163	931.65	46.75
980.7321	2539.1366	928.75	44.3
980.8591	2540.4562	932.4	44.5
980.986	2541.7752	933.8	48.1
981.1129	2543.0935	932.1	45.2
981.2397	2544.411	931.1	45.8
981.3665	2545.7279	929.05	43.65
981.4933	2547.0441	931.8	46.05
981.62	2548.3596	936.25	49.05
981.7467	2549.6744	929.9	41.95
981.8734	2550.9885	934.4	47.1
982.0001	2552.3019	928.65	42.35
982.1267	2553.6146	931	46.75
982.2532	2554.9266	930.65	45.75
982.3798	2556.2379	931	42.7
982.5063	2557.5485	929.65	45.1
982.6327	2558.8585	935.95	43.5
982.7592	2560.1677	934.15	41.8
982.8856	2561.4762	929.7	43.5
983.0119	2562.7841	933.05	42.95
983.1383	2564.0913	929.45	44.75
983.2646	2565.3977	928.55	42.6
983.3908	2566.7035	928.9	44
983.517	2568.0086	933	45.65
983.6432	2569.313	929.5	43.5
983.7694	2570.6167	934.9	44.95
983.8955	2571.9197	925.9	41.8
984.0216	2573.222	929.55	40.85
984.1476	2574.5236	930.85	44.6
984.2737	2575.8246	930.7	43.3
984.3996	2577.1248	930.25	40.45
984.5256	2578.4244	927.55	41.25
984.6515	2579.7232	929.25	44.6
984.7774	2581.0214	955.75	41.6
984.9032	2582.3189	927.1	40.55
985.029	2583.6157	933.8	43.1
985.1548	2584.9118	928.75	43.95
985.2806	2586.2072	927.8	40.7
985.4063	2587.5019	927.4	41.5
985.5319	2588.7959	928.05	39.95
985.6576	2590.0893	931.05	45.3
985.7832	2591.3819	927.05	43.3
985.9087	2592.6739	927.8	44.55
986.0343	2593.9652	930.65	42.15
986.1597	2595.2557	930.5	46.25
986.2852	2596.5456	929.2	41.45
986.4106	2597.8348	926.55	41.6
986.536	2599.1234	926.35	39.85
986.6614	2600.4112	927.1	40.35
986.7867	2601.6983	931.2	41.4
986.912	2602.9848	927.9	41.5
987.0372	2604.2705	935.55	41.85
987.1624	2605.5556	927.55	42.05
987.2876	2606.84	928.05	42.95
987.4128	2608.1237	927.75	40.35
987.5379	2609.4067	925.9	38.95
987.6629	2610.689	934.15	38.6
987.788	2611.9707	929.95	41.05
987.913	2613.2516	931.05	40.35
988.0379	2614.5319	923.1	36.3
988.1629	2615.8115	924.95	39.3
988.2878	2617.0903	928.9	42.1
988.4126	2618.3685	923	35.95
988.5375	2619.6461	925.7	38.75
988.6622	2620.9229	925.1	39.75
988.787	2622.199	925.7	38.9
988.9117	2623.4745	926.25	38.8
989.0364	2624.7493	926.15	39.45
989.161	2626.0234	921.65	35.85
989.2857	2627.2968	927.25	39.95
989.4102	2628.5695	925.35	36.55
989.5348	2629.8415	923.15	38.3
989.6593	2631.1128	928.2	40.9
989.7837	2632.3835	924.1	37.05
989.9082	2633.6535	928.2	42.25
990.0326	2634.9228	923.3	38.35
990.1569	2636.1914	922	34.65
990.2812	2637.4593	928.9	36.25
990.4055	2638.7265	923.7	35.9
990.5298	2639.9931	922.55	37.35
990.654	2641.259	923	34.2
990.7782	2642.5242	923.4	36.3
990.9023	2643.7887	921	33.95
991.0264	2645.0525	923.5	38.1
991.1505	2646.3156	923.4	36
991.2745	2647.5781	920.2	35.65
991.3985	2648.8398	923.2	40.35
991.5225	2650.1009	956.5	35.15
991.6464	2651.3613	918.75	31.15
991.7703	2652.6211	922.4	37.15
991.8942	2653.8801	919.45	33.55
992.018	2655.1385	922.3	31.95
992.1418	2656.3961	918.9	33.8
992.2655	2657.6531	922.35	35.9
992.3892	2658.9094	921.1	35.75
992.5129	2660.1651	919.4	35.7
992.6366	2661.42	922.1	35.3
992.7602	2662.6743	922.2	34.85
992.8837	2663.9279	920.25	33.15
993.0073	2665.1808	923.45	37.1
993.1307	2666.433	922.25	35.85
993.2542	2667.6846	919.25	32.2
993.3776	2668.9354	923.45	35.25
993.501	2670.1856	921.6	36.35
993.6244	2671.4351	919.45	35.7
993.7477	2672.6839	919.25	30.35
993.8709	2673.9321	919.65	35.7
993.9942	2675.1795	921.35	36.7
994.1174	2676.4263	918.45	32.3
994.2405	2677.6724	920.75	36.25
994.3637	2678.9179	922.55	37.65
994.4868	2680.1626	919.05	34.55
994.6098	2681.4067	921.75	35.55
994.7328	2682.6501	920	33.05
994.8558	2683.8928	921.35	34.9
994.9788	2685.1348	918.4	34.35
995.1017	2686.3761	916.25	31.4
995.2245	2687.6168	921	36.1
995.3474	2688.8568	918.9	33.55
995.4702	2690.0961	919.15	34.85
995.5929	2691.3348	919.05	30.35
995.7156	2692.5727	921	34.4
995.8383	2693.81	918.45	35.5
995.961	2695.0466	916.2	32.6
996.0836	2696.2826	919.2	29.65
996.2062	2697.5178	919.05	29.65
996.3287	2698.7524	917.85	33.55
996.4512	2699.9863	922.3	34.9
996.5737	2701.2195	915.5	30.85
996.6961	2702.452	918.9	31.5
996.8185	2703.6839	918.25	30.65
996.9408	2704.9151	919.2	35.15
997.0631	2706.1456	918.6	32.35
997.1854	2707.3755	918.5	33.1
997.3077	2708.6046	921.05	33.15
997.4299	2709.8331	918.3	33.35
997.552	2711.0609	922.3	34.6
997.6742	2712.2881	920.3	33.8
997.7963	2713.5145	920.4	33.1
997.9183	2714.7403	917.2	31.65
998.0403	2715.9654	919.85	34.2
998.1623	2717.1899	921.75	33.4
998.2842	2718.4136	919.65	32.55
998.4062	2719.6367	920.3	35.9
998.528	2720.8591	927.4	34.4
998.6498	2722.0809	922.9	36.95
998.7716	2723.3019	927.4	38.8
998.8934	2724.5223	921.2	33.45
999.0151	2725.7421	923.6	37.1
999.1368	2726.9611	923.2	34.8
999.2584	2728.1795	924.75	34.7
999.38	2729.3972	919.65	33.25
999.5016	2730.6142	932.45	34.55
999.6231	2731.8306	918.85	32.25
999.7446	2733.0462	921.5	33
999.8661	2734.2612	922.25	31.8
999.9875	2735.4756	917.9	28.65
1000.1089	2736.6892	917.15	31
1000.2302	2737.9022	916.1	31.55
1000.3515	2739.1145	916.9	30.2
1000.4728	2740.3262	924.2	32.25
1000.594	2741.5372	914.85	28.5
1000.7152	2742.7475	915.2	31.1
1000.8363	2743.9571	918.9	29.6
1000.9575	2745.1661	922.55	29.95
1001.0785	2746.3744	915.7	30.6
1001.1996	2747.582	913.4	27.35
1001.3206	2748.7889	916.8	31.4
1001.4415	2749.9952	914.1	28.35
1001.5625	2751.2008	914.55	27.05
1001.6833	2752.4057	917.45	29.5
1001.8042	2753.61	913.6	26.6
1001.925	2754.8136	915.9	28.1
1002.0458	2756.0165	911.05	24.45
1002.1665	2757.2188	909.55	24.25
1002.2872	2758.4204	912.15	25.8
1002.4078	2759.6213	916.5	28.35
1002.5285	2760.8215	918.75	25.3
1002.649	2762.0211	915.05	28.15
1002.7696	2763.22	914.15	23.5
1002.8901	2764.4182	915	27.7
1003.0106	2765.6158	911.75	26.35
1003.131	2766.8127	913.4	28.35
1003.2514	2768.009	912.75	27.85
1003.3717	2769.2045	914.15	27.05
1003.492	2770.3994	916	28
1003.6123	2771.5936	913	26.9
1003.7325	2772.7872	910.65	27.3
1003.8527	2773.9801	913.25	23.75
1003.9729	2775.1723	926.95	21.15
1004.093	2776.3639	910.85	24.15
1004.2131	2777.5548	910.1	21.5
1004.3331	2778.745	916.7	29.2
1004.4531	2779.9346	910.45	24.2
1004.5731	2781.1235	909.4	21.95
1004.693	2782.3117	909.6	23.7
1004.8129	2783.4992	911.3	25.95
1004.9328	2784.6861	910.8	25.35
1005.0526	2785.8723	912.65	25.7
1005.1723	2787.0579	911.3	23.4
1005.2921	2788.2428	913.1	25.85
1005.4118	2789.427	909.3	24.3
1005.5314	2790.6106	911.5	24.9
1005.651	2791.7935	911.75	24
1005.7706	2792.9757	912.6	27.05
1005.8902	2794.1573	913.8	25.25
1006.0097	2795.3382	911.35	28.75
1006.1291	2796.5184	910.45	24.4
1006.2485	2797.698	912.15	24.15
1006.3679	2798.8769	911.8	24.2
1006.4873	2800.0551	910.85	23.05
1006.6066	2801.2327	912.9	23.1
1006.7258	2802.4096	910.95	25.35
1006.8451	2803.5859	911.1	24.45
1006.9642	2804.7615	909.8	22.85
1007.0834	2805.9364	912	27.6
1007.2025	2807.1106	909.4	24.15
1007.3216	2808.2842	912	24.2
1007.4406	2809.4572	915.75	28.55
1007.5596	2810.6294	912.45	25
1007.6785	2811.801	912.8	27.9
1007.7975	2812.972	912.8	28.95
1007.9163	2814.1423	915.15	26.45
1008.0352	2815.3119	916.2	29.05
1008.154	2816.4808	916.2	32.5
1008.2727	2817.6491	917.7	30.1
1008.3914	2818.8167	917.8	32.4
1008.5101	2819.9837	927.5	35.95
1008.6288	2821.15	926.7	41.1
1008.7474	2822.3157	925.35	40.75
1008.8659	2823.4807	931.25	44.75
1008.9844	2824.645	935.95	48.75
1009.1029	2825.8086	936.55	51.9
1009.2214	2826.9716	938.65	53.2
1009.3398	2828.134	943.9	57.45
1009.4581	2829.2957	948.85	62.7
1009.5764	2830.4567	948.85	62
1009.6947	2831.617	951.45	64.6
1009.813	2832.7767	950.2	65.05
1009.9312	2833.9358	951.05	65.6
1010.0493	2835.0941	954.35	67.2
1010.1675	2836.2519	954.9	69.7
1010.2855	2837.4089	950.85	63.45
1010.4036	2838.5653	950	63.15
1010.5216	2839.7211	945.95	61.65
1010.6396	2840.8761	943.9	57.65
1010.7575	2842.0306	945.2	59.65
1010.8754	2843.1843	946.4	62
1010.9932	2844.3374	941.4	55.45
1011.111	2845.4899	946.8	59.55
1011.2288	2846.6417	943.3	58
1011.3465	2847.7928	942.5	57.25
1011.4642	2848.9433	946.65	60.35
1011.5818	2850.0931	947.1	61.3
1011.6995	2851.2422	949.3	60.6
1011.817	2852.3907	950.45	63.45
1011.9345	2853.5385	947	59.7
1012.052	2854.6857	976.7	62.6
1012.1695	2855.8323	951.55	65.8
1012.2869	2856.9781	951.8	65.85
1012.4042	2858.1233	952.25	67.05
1012.5216	2859.2679	956.1	71.15
1012.6389	2860.4118	957.35	70
1012.7561	2861.555	962.8	70.9
1012.8733	2862.6976	958.4	72.45
1012.9905	2863.8395	956.75	69.7
1013.1076	2864.9808	958.1	73.25
1013.2247	2866.1214	959	75.2
1013.3417	2867.2614	961.2	75.25
1013.4587	2868.4007	960.75	73.8
1013.5757	2869.5393	963.95	75.9
1013.6926	2870.6773	966.4	75.6
1013.8095	2871.8146	971.5	83
1013.9263	2872.9513	965.85	77.75
1014.0431	2874.0874	964.85	78.8
1014.1599	2875.2227	967.6	80.3
1014.2766	2876.3574	970.1	85.4
1014.3933	2877.4915	969.25	82.35
1014.51	2878.6249	966.75	81.6
1014.6266	2879.7577	970.7	85.15
1014.7431	2880.8898	984.9	86.95
1014.8596	2882.0212	973.9	87.5
1014.9761	2883.152	974.65	88.05
1015.0925	2884.2821	974.25	87.75
1015.2089	2885.4116	970.2	87.55
1015.3253	2886.5405	980.15	92.65
1015.4416	2887.6686	981.1	90.65
1015.5579	2888.7962	973.7	88.9
1015.6741	2889.923	975.75	91.05
1015.7903	2891.0493	973.95	89.1
1015.9065	2892.1748	978.4	91.6
1016.0226	2893.2997	974.5	86.65
1016.1387	2894.424	976.95	92.5
1016.2547	2895.5476	975.1	90.7
1016.3707	2896.6706	976.85	92.1
1016.4866	2897.7929	974.95	89.15
1016.6025	2898.9145	977.65	92.6
1016.7184	2900.0355	978.75	92.6
1016.8342	2901.1559	977.15	90.95
1016.95	2902.2756	981.65	92.3
1017.0658	2903.3946	979.7	92.85
1017.1815	2904.513	980.75	91.7
1017.2971	2905.6308	972.05	85.65
1017.4127	2906.7479	972.8	87.55
1017.5283	2907.8643	974.55	87.2
1017.6439	2908.9801	975.35	89
1017.7594	2910.0953	975.5	89.2
1017.8748	2911.2098	979.65	89.6
1017.9902	2912.3236	982.05	87.3
1018.1056	2913.4368	977.5	88.45
1018.2209	2914.5494	972	85.2
1018.3362	2915.6613	975.25	83.4
1018.4515	2916.7725	972.45	80.45
1018.5667	2917.8831	968.15	80.25
1018.6819	2918.9931	975.2	86.35
1018.797	2920.1024	969.85	81.3
1018.9121	2921.211	967.2	81.5
1019.0271	2922.319	963.6	78.25
1019.1421	2923.4264	963.2	78.35
1019.2571	2924.5331	962.75	78.5
1019.372	2925.6391	964.7	79.05
1019.4869	2926.7445	961.1	75.4
1019.6017	2927.8493	965.7	79.45
1019.7165	2928.9534	964.9	79.15
1019.8313	2930.0569	968.9	80.25
1019.946	2931.1597	968	79.65
1020.0606	2932.2619	965.35	80.1
1020.1753	2933.3634	966.3	80.35
1020.2899	2934.4643	972.2	78.4
1020.4044	2935.5645	977.7	85.35
1020.5189	2936.6641	972.85	81.6
1020.6334	2937.763	969.55	83.5
1020.7478	2938.8613	969.65	81.8
1020.8622	2939.959	971.5	79.55
1020.9765	2941.056	966.6	80.2
1021.0908	2942.1523	965.4	78.55
1021.2051	2943.248	964.6	77.85
1021.3193	2944.3431	959.45	73.05
1021.4334	2945.4375	955	67.55
1021.5476	2946.5313	948.55	62.95
1021.6617	2947.6244	946.75	59.95
1021.7757	2948.7169	944.35	57.8
1021.8897	2949.8087	940.65	55.15
1022.0037	2950.8999	937.15	50.15
1022.1176	2951.9904	932.8	47.55
1022.2315	2953.0803	932.9	46.25
1022.3453	2954.1696	934.35	48.6
1022.4591	2955.2582	929.2	43.7
1022.5728	2956.3462	929.8	42.25
1022.6865	2957.4335	930.95	43.7
1022.8002	2958.5202	932.15	42.5
1022.9138	2959.6062	926.5	38.9
1023.0274	2960.6916	928.4	43.55
1023.141	2961.7764	926	40.25
1023.2545	2962.8605	927.55	39.95
1023.3679	2963.9439	927.55	42.55
1023.4813	2965.0267	928.9	39.55
1023.5947	2966.1089	949.05	38.65
1023.708	2967.1905	926.75	38.8
1023.8213	2968.2714	924.85	40.15
1023.9346	2969.3516	926.05	41.45
1024.0478	2970.4312	934.7	41.6
1024.1609	2971.5102	925.5	41.05
1024.274	2972.5885	928.3	41.45
1024.3871	2973.6662	931.15	40.2
1024.5002	2974.7432	927.75	43.25
1024.6132	2975.8196	926.5	41.1
1024.7261	2976.8954	925	40.75
1024.839	2977.9705	924.85	38.8
1024.9519	2979.045	926.75	41.4
1025.0647	2980.1188	926.15	41.85
1025.1775	2981.192	925.3	39.5
1025.2902	2982.2645	928.05	39.85
1025.4029	2983.3364	924.55	38.5
1025.5156	2984.4077	922.85	36.75
1025.6282	2985.4783	929.55	36.85
1025.7407	2986.5483	922.9	38.25
1025.8532	2987.6177	918.35	33.65
1025.9657	2988.6864	922.55	35.5
1026.0782	2989.7545	919.75	30
1026.1906	2990.8219	916.45	30.45
1026.3029	2991.8887	917.6	29.2
1026.4152	2992.9548	914.4	26.95
1026.5275	2994.0204	913.95	29.2
1026.6397	2995.0852	910.7	26.15
1026.7519	2996.1495	913.85	26.9
1026.864	2997.2131	909.15	22.45
1026.9761	2998.276	910.25	24.85
1027.0882	2999.3383	909.65	22
1027.2002	3000.4	908.85	21.6
1027.3122	3001.4611	905.65	20.3
1027.4241	3002.5215	906	20.45
1027.536	3003.5812	904.6	17.65
1027.6478	3004.6404	906.45	20.05
1027.7596	3005.6989	906.45	18.4
1027.8714	3006.7567	902.35	15.45
1027.9831	3007.8139	932.45	15.5
1028.0947	3008.8705	905.35	18.8
1028.2064	3009.9264	919.05	17.95
1028.3179	3010.9818	903.05	16.9
1028.4295	3012.0364	904.2	18.65
1028.541	3013.0905	902.7	15.5
1028.6524	3014.1439	902.4	18
1028.7638	3015.1966	900.1	13.55
1028.8752	3016.2487	903.2	17.25
1028.9865	3017.3002	909.2	15.35
1029.0978	3018.3511	902.1	17.4
1029.209	3019.4013	900.2	13.8
1029.3202	3020.4509	900.25	14.5
1029.4314	3021.4998	900.6	13.65
1029.5425	3022.5481	899.75	14
1029.6535	3023.5958	900.25	13.3
1029.7645	3024.6428	902.1	17.2
1029.8755	3025.6892	900.75	16.9
1029.9864	3026.735	901.1	15.2
1030.0973	3027.7802	901.2	15.5
1030.2082	3028.8247	900.8	13.25
1030.319	3029.8685	901.65	15.7
1030.4297	3030.9118	901.2	15.05
1030.5404	3031.9544	901.4	16.6
1030.6511	3032.9963	899.9	13.05
1030.7617	3034.0376	899.4	14.3
1030.8723	3035.0783	902.5	13.15
1030.9829	3036.1184	901.05	13.1
1031.0934	3037.1578	901	15
1031.2038	3038.1966	903.2	15.4
1031.3142	3039.2348	900.4	14.55
1031.4246	3040.2723	908.05	12.6
1031.5349	3041.3092	899.65	13.3
1031.6452	3042.3455	899.75	13.7
1031.7554	3043.3811	902.55	15.25
1031.8656	3044.4161	900.35	13.6
1031.9758	3045.4505	899.1	13.95
1032.0859	3046.4842	900.3	11
1032.1959	3047.5173	899.35	14.7
1032.3059	3048.5498	899.2	13
1032.4159	3049.5816	900.85	15.3
1032.5258	3050.6128	901.8	14.2
1032.6357	3051.6434	900.9	12.65
1032.7455	3052.6734	901.9	13.2
1032.8553	3053.7027	899.9	15
1032.9651	3054.7314	899.25	14.7
1033.0748	3055.7594	899.2	13.25
1033.1845	3056.7868	901.1	15.2
1033.2941	3057.8136	899.8	12.95
1033.4037	3058.8398	899.3	16.55
1033.5132	3059.8653	900.65	14.55
1033.6227	3060.8902	900.75	16.2
1033.7321	3061.9145	900.15	14.2
1033.8415	3062.9381	900.25	14.55
1033.9509	3063.9612	917.45	15.65
1034.0602	3064.9835	901.95	16.5
1034.1694	3066.0053	901.2	12.25
1034.2787	3067.0264	902.5	17.4
1034.3878	3068.0469	903.6	15.45
1034.497	3069.0668	905.7	16.95
1034.6061	3070.086	901.5	14.7
1034.7151	3071.1046	903.3	16
1034.8241	3072.1226	901.9	15.6
1034.9331	3073.1399	900.65	14.05
1035.042	3074.1567	901.95	16.5
1035.1508	3075.1727	901.35	12.45
1035.2597	3076.1882	902.85	15.45
1035.3684	3077.203	900.55	16.5
1035.4772	3078.2173	901.4	13.75
1035.5859	3079.2308	902.45	15.2
1035.6945	3080.2438	900.4	10.75
1035.8031	3081.2561	900.3	14.25
1035.9117	3082.2678	898.8	13.65
1036.0202	3083.2789	897.9	12.55
1036.1286	3084.2893	896.7	10.2
1036.2371	3085.2991	898.9	11.9
1036.3454	3086.3083	902.65	12.9
1036.4538	3087.3169	899.5	10.55
1036.562	3088.3248	900.15	12.15
1036.6703	3089.3321	897.95	9.75
1036.7785	3090.3388	894.65	9.8
1036.8866	3091.3449	896.75	12.8
1036.9948	3092.3503	898.6	11.65
1037.1028	3093.3551	894.65	10.3
1037.2108	3094.3593	895.65	10.05
1037.3188	3095.3629	895.8	9.6
1037.4267	3096.3658	896.7	9.2
1037.5346	3097.3681	897	11.4
1037.6425	3098.3698	896.7	10.65
1037.7503	3099.3708	897.75	11.15
1037.858	3100.3713	897.05	12.85
1037.9657	3101.3711	897.75	10.95
1038.0734	3102.3702	1038.2	14.15
1038.181	3103.3688	899.7	13.05
1038.2886	3104.3667	896.65	12.7
1038.3961	3105.364	893.75	8.3
1038.5036	3106.3607	896.8	8.45
1038.611	3107.3568	895.1	8.05
1038.7184	3108.3522	894.85	8.8
1038.8257	3109.347	897.3	9.95
1038.933	3110.3412	899.25	11.75
1039.0403	3111.3348	893.5	7.7
1039.1475	3112.3277	894.5	8.6
1039.2547	3113.32	895.1	10.45
1039.3618	3114.3117	895.3	9.35
1039.4689	3115.3028	893.3	6.2
1039.5759	3116.2932	894.6	7.45
1039.6829	3117.2831	897.9	4.9
1039.7898	3118.2723	893.55	7.9
1039.8967	3119.2608	895.05	7.85
1040.0035	3120.2488	894.25	7.65
1040.1103	3121.2361	895.2	8.5
1040.2171	3122.2229	897.45	12.8
1040.3238	3123.209	895.25	8.35
1040.4305	3124.1944	892.45	8.6
1040.5371	3125.1793	894.55	6.35
1040.6437	3126.1635	890.3	5.5
1040.7502	3127.1471	891.85	6.6
1040.8567	3128.1301	893.15	7
1040.9631	3129.1125	893.6	7.35
1041.0695	3130.0942	893.35	6.95
1041.1759	3131.0753	902.2	8.8
1041.2822	3132.0558	897.05	6.3
1041.3884	3133.0357	892.45	4.5
1041.4946	3134.015	893.85	5.95
1041.6008	3134.9936	895.05	7.45
1041.7069	3135.9716	913.45	8.15
1041.813	3136.949	893.6	6.3
1041.919	3137.9258	909.75	5.8
1042.025	3138.902	899	7
1042.1309	3139.8775	894.3	8.8
1042.2368	3140.8524	893.7	8.35
1042.3427	3141.8267	894.35	7.8
1042.4485	3142.8004	892.55	6.55
1042.5542	3143.7735	898.45	3.95
1042.6599	3144.7459	895.4	7.55
1042.7656	3145.7178	893.45	6.85
1042.8712	3146.689	891.45	6.3
1042.9768	3147.6596	893.8	5.7
1043.0823	3148.6295	894.65	7
1043.1878	3149.5989	893.45	6
1043.2932	3150.5676	892.5	5.9
1043.3986	3151.5357	892.7	8.5
1043.5039	3152.5032	891.95	6.3
1043.6092	3153.4701	892.95	7.55
1043.7145	3154.4364	894.35	6.4
1043.8197	3155.402	891.85	7.05
1043.9248	3156.367	894.25	5.9
1044.03	3157.3315	909.85	7.05
1044.135	3158.2952	892.85	6.85
1044.24	3159.2584	890.9	3.75
1044.345	3160.221	889.55	2.85
1044.4499	3161.1829	891.15	6.95
1044.5548	3162.1442	891.9	5.7
1044.6596	3163.105	892.3	5.9
1044.7644	3164.065	893.9	6.4
1044.8692	3165.0245	894.85	7.7
1044.9739	3165.9834	890.2	6.05
1045.0785	3166.9416	891.45	4.95
1045.1831	3167.8993	892.2	4.65
1045.2877	3168.8563	894.4	7.4
1045.3922	3169.8127	891	6.35
1045.4966	3170.7684	891.8	6.7
1045.6011	3171.7236	893.8	4.8
1045.7054	3172.6782	891.6	5.3
1045.8098	3173.6321	893.65	6.65
1045.914	3174.5854	897.25	6.8
1046.0183	3175.5381	891.5	4.65
1046.1224	3176.4902	891.1	5.15
1046.2266	3177.4417	891.3	6.55
1046.3307	3178.3926	892.25	7.1
1046.4347	3179.3428	890.7	4.1
1046.5387	3180.2924	889.95	3.8
1046.6427	3181.2415	892.2	5.35
1046.7466	3182.1899	893.8	8.2
1046.8504	3183.1377	891.15	5.45
1046.9542	3184.0848	894.95	5.95
1047.058	3185.0314	892.05	5.7
1047.1617	3185.9773	894.1	9.45
1047.2654	3186.9227	893.25	4.05
1047.369	3187.8674	891.4	5.45
1047.4726	3188.8115	894.25	2.55
1047.5761	3189.755	891.95	4.65
1047.6796	3190.6979	889.85	2.55
1047.783	3191.6402	891.85	6.4
1047.8864	3192.5818	891.45	7.1
1047.9898	3193.5229	898.8	6.1
1048.0931	3194.4633	889.7	1.8
1048.1963	3195.4031	892	6.8
1048.2995	3196.3423	889.95	3.85
1048.4027	3197.2809	891.55	6.95
1048.5058	3198.2189	892.4	4.8
1048.6089	3199.1563	893.75	1.15
1048.7119	3200.0931	891.05	4.7
1048.8148	3201.0292	888.85	4.1
1048.9178	3201.9648	891.4	6.7
1049.0206	3202.8997	892.5	2.8
1049.1235	3203.834	891	4.9
1049.2262	3204.7677	891.15	3.6
1049.329	3205.7008	893	5.7
1049.4317	3206.6333	889.7	6.2
1049.5343	3207.5652	894	7.05
1049.6369	3208.4964	892.45	6.6
1049.7394	3209.4271	889.2	3.5
1049.8419	3210.3571	889.05	4.65
1049.9444	3211.2865	888.5	1.6
1050.0468	3212.2154	894	7.9
1050.1491	3213.1436	894.65	6.5
1050.2514	3214.0712	898.95	6.85
1050.3537	3214.9982	891.05	3.4
1050.4559	3215.9246	889.95	4.65
1050.5581	3216.8503	889.1	3.95
1050.6602	3217.7755	889.8	4.45
1050.7623	3218.7001	891.25	3.75
1050.8643	3219.624	890.35	5.05
1050.9663	3220.5473	891.05	4.95
1051.0682	3221.4701	891.5	4.45
1051.1701	3222.3922	892.7	5.3
1051.2719	3223.3137	891.35	3.35
1051.3737	3224.2346	890.35	2.7
1051.4754	3225.1549	889.95	3.65
1051.5771	3226.0746	889.05	4.2
1051.6788	3226.9937	890.55	3.15
1051.7804	3227.9121	889.45	6.45
1051.8819	3228.83	888.85	3.7
1051.9834	3229.7473	890.75	5.55
1052.0849	3230.6639	893.5	7
1052.1863	3231.5799	891.25	4.15
1052.2876	3232.4954	893.25	6.65
1052.3889	3233.4102	888.95	3.6
1052.4902	3234.3244	889.45	3.2
1052.5914	3235.238	890.65	7.3
1052.6926	3236.151	912.45	3.45
1052.7937	3237.0634	889.8	5.95
1052.8948	3237.9752	890.7	4.85
1052.9958	3238.8864	890.45	1.95
1053.0968	3239.797	890	4.25
1053.1977	3240.7069	893.65	5.65
1053.2986	3241.6163	891.9	1.95
1053.3994	3242.5251	887.95	3.95
1053.5002	3243.4332	889.1	2.3
1053.6009	3244.3408	889.15	0.8
1053.7016	3245.2477	890.15	4.5
1053.8022	3246.154	890.25	2.9
1053.9028	3247.0598	889.8	4.1
1054.0034	3247.9649	889.1	2.2
1054.1039	3248.8694	891.95	5.7
1054.2043	3249.7733	888.85	3.05
1054.3047	3250.6766	888.25	1.95
1054.4051	3251.5793	892.25	4
1054.5054	3252.4814	887.15	0.85
1054.6056	3253.3829	889.8	4.8
1054.7058	3254.2838	890.4	3.9
1054.806	3255.1841	890.7	5.4
1054.9061	3256.0838	889.45	4.95
1055.0061	3256.9829	888	2.65
1055.1062	3257.8814	891.65	4.15
1055.2061	3258.7792	889.05	-1.95
1055.306	3259.6765	890.85	3.25
1055.4059	3260.5731	890.65	3.5
1055.5057	3261.4692	890.15	4.1
1055.6055	3262.3647	890.35	3.45
1055.7052	3263.2595	888.25	2.95
1055.8049	3264.1538	888.65	3.95
1055.9045	3265.0474	890.3	2.5
1056.0041	3265.9404	886.95	-0.9
1056.1036	3266.8329	888.15	2.9
1056.2031	3267.7247	900.05	3.2
1056.3025	3268.616	888.65	3.9
1056.4019	3269.5066	888.85	2.55
1056.5013	3270.3966	890.75	1.4
1056.6005	3271.286	889.2	5.6
