Software Version:	3.9.2.0
Unit SN:	10000200
Spectrometer SN:	6960
Date:	3/14/2024 1:18:52 PM
Data Line Index:	25
Spectral Points:	2048
Integration time (ms):	125
Averages:	20
Delay (ms):	30000
Sequence Number:	1
Processing:	dark subtract
Laser Power (mW):	305
Laser Current (mA):	825
Laser Diode Temp (C):	25.1
Laser Case Temp (C):	28.3
System Temp (C):	28.3
Spectrometer Temp (C):	26.2
CCD Temp (C):	0.005
Secondary Temp (C):	20.001
Heatsink Temp (C):	24.165
CCDPCB Temp (C):	37.674
SecondaryPCB Temp (C):	35.418

Wavelength	RamanShift	Raw Counts	Dark Subtracted
787.061	30.1047	443.8	33.45
787.2016	32.3739	444.45	36.1
787.3422	34.6426	448.15	38.35
787.4828	36.9109	454.65	40.8
787.6235	39.1787	461.2	43.4
787.7642	41.4461	471.3	51.75
787.9049	43.7131	478.25	54.7
788.0456	45.9796	483.9	55.8
788.1863	48.2456	493.55	61.35
788.3271	50.5112	500.2	64.55
788.4679	52.7764	506.6	67.8
788.6087	55.0411	514.45	74.45
788.7496	57.3054	525.15	77.7
788.8904	59.5692	536.5	87.35
789.0313	61.8326	547.7	94.5
789.1722	64.0955	552.7	94.6
789.3132	66.3579	569.95	104.1
789.4541	68.6199	583.3	117
789.5951	70.8815	605.75	136.8
789.7361	73.1426	666.2	194.3
789.8771	75.4032	812.15	333.9
790.0181	77.6634	1182.7	700.75
790.1592	79.9231	2036.25	1547.6
790.3003	82.1824	3917.65	3417.85
790.4414	84.4412	7293.1	6778.4
790.5825	86.6995	11968.5	11436.15
790.7237	88.9574	16574.7	16024.75
790.8648	91.2148	19792	19230.65
791.006	93.4717	21298.95	20725.1
791.1472	95.7282	21598.75	21020.15
791.2885	97.9842	21457.85	20880.2
791.4297	100.2398	20998.05	20417.2
791.571	102.4949	20458.65	19870.5
791.7123	104.7495	19853	19261.4
791.8536	107.0036	19261.15	18670.2
791.9949	109.2573	18671.4	18084.95
792.1363	111.5105	18158.9	17569.5
792.2777	113.7632	17704.75	17111.4
792.4191	116.0154	17322.05	16717.45
792.5605	118.2672	17057.3	16459.8
792.7019	120.5185	16753.8	16156.55
792.8434	122.7693	16571.65	15976.1
792.9849	125.0197	16405.8	15806.3
793.1264	127.2696	16212.75	15605.8
793.2679	129.519	16087.1	15478.2
793.4094	131.7679	15907	15293.75
793.551	134.0163	15719.4	15107.8
793.6926	136.2642	15501.4	14882.3
793.8342	138.5117	15276.3	14647.65
793.9758	140.7587	14997.3	14372.9
794.1175	143.0052	14769.75	14143.55
794.2591	145.2512	14511.95	13888.05
794.4008	147.4967	14310.25	13683.15
794.5425	149.7417	14156.7	13528.55
794.6842	151.9863	14024.3	13392.45
794.826	154.2304	13968.05	13334.1
794.9677	156.4739	13826.1	13184.15
795.1095	158.717	13811.1	13174.8
795.2513	160.9596	13688	13042.4
795.3931	163.2017	13496.6	12852.4
795.535	165.4433	13284.65	12637.25
795.6768	167.6844	13058.75	12407.55
795.8187	169.925	12872.7	12220.55
795.9606	172.1651	12599.5	11943.3
796.1025	174.4047	12416.8	11757.1
796.2445	176.6439	12237.5	11573.6
796.3864	178.8825	12107.3	11444.65
796.5284	181.1206	12033.5	11366.95
796.6704	183.3582	11918.55	11248.75
796.8124	185.5954	11865.05	11193.25
796.9544	187.832	11797.05	11120.7
797.0965	190.0681	11770.7	11093.7
797.2386	192.3037	11762.8	11081
797.3806	194.5388	11778.45	11096.15
797.5228	196.7734	11793.85	11105.2
797.6649	199.0075	11812.95	11121.9
797.807	201.2411	11928.8	11237.2
797.9492	203.4742	11953.5	11257.3
798.0914	205.7068	12073.15	11379.1
798.2336	207.9389	12138.85	11442.9
798.3758	210.1704	12251.25	11554.25
798.518	212.4015	12330.85	11631.25
798.6603	214.632	12400	11696.55
798.8025	216.862	12467.5	11769.5
798.9448	219.0915	12541.7	11849.15
799.0871	221.3205	12593.65	11907
799.2294	223.549	12649.3	11971.5
799.3718	225.777	12706	12027.9
799.5141	228.0044	12777.85	12095.05
799.6565	230.2314	12871.75	12195.3
799.7989	232.4578	12934.5	12254.3
799.9413	234.6837	13062.45	12375.7
800.0837	236.909	13100.5	12413.15
800.2262	239.1339	13108.9	12396.4
800.3687	241.3582	13053.9	12357.65
800.5111	243.582	12967.15	12244.05
800.6536	245.8053	12887.1	12172.2
800.7961	248.0281	12860.9	12149.75
800.9387	250.2503	12822.85	12106.55
801.0812	252.472	12859.2	12137.85
801.2238	254.6932	12938.8	12217.6
801.3664	256.9139	12974.7	12247.6
801.509	259.134	13113.25	12382
801.6516	261.3536	13240.25	12513.55
801.7942	263.5727	13476.6	12748.15
801.9369	265.7912	13618.45	12887.65
802.0795	268.0092	13814.35	13083.7
802.2222	270.2267	13981.55	13250.75
802.3649	272.4436	14053.25	13321.9
802.5076	274.6601	14058.1	13319.2
802.6504	276.8759	14021	13290.55
802.7931	279.0913	13962.05	13226.45
802.9359	281.3061	13861.25	13126.9
803.0787	283.5204	13811.7	13070.5
803.2215	285.7341	13808.2	13068.2
803.3643	287.9473	13846.5	13102.8
803.5071	290.16	13858.2	13106.25
803.6499	292.3721	13909.9	13164.65
803.7928	294.5837	14043.85	13296.95
803.9357	296.7947	14168.5	13422.25
804.0786	299.0052	14293.3	13548.25
804.2215	301.2152	14262.9	13515.05
804.3644	303.4246	14150.6	13406
804.5074	305.6334	13949.2	13203
804.6503	307.8418	13667.55	12917.85
804.7933	310.0495	13381.4	12628.15
804.9363	312.2568	13065.5	12314.9
805.0793	314.4635	12765.2	12013.8
805.2223	316.6696	12551.85	11798.8
805.3653	318.8752	12379.75	11620.35
805.5084	321.0802	12331.8	11579.65
805.6514	323.2847	12337.25	11583.4
805.7945	325.4887	12358.1	11604.95
805.9376	327.692	12348.05	11591.35
806.0807	329.8949	12340.1	11584.75
806.2238	332.0972	12211.4	11450.8
806.367	334.2989	12099.6	11332.8
806.5101	336.5001	11912.4	11149.75
806.6533	338.7007	11741.65	10978.65
806.7965	340.9008	11657.2	10891.95
806.9397	343.1003	11509.65	10744.3
807.0829	345.2992	11401.5	10635.3
807.2261	347.4976	11339.45	10570.75
807.3693	349.6955	11266.2	10492.25
807.5126	351.8927	11241.85	10468.75
807.6559	354.0895	11192.45	10407.9
807.7991	356.2856	11159.5	10385.1
807.9424	358.4812	11120.25	10349.4
808.0857	360.6763	11112.5	10337.25
808.2291	362.8707	11057.55	10285.85
808.3724	365.0646	11119	10339.3
808.5158	367.258	11120.85	10339.7
808.6591	369.4508	11142.65	10359.7
808.8025	371.643	11253	10468.55
808.9459	373.8346	11293.9	10506.5
809.0893	376.0257	11345.55	10555.2
809.2327	378.2162	11390	10599.45
809.3762	380.4062	11372.65	10581.9
809.5196	382.5956	11284.05	10491.55
809.6631	384.7844	11200.6	10407.75
809.8066	386.9726	11108.4	10315.4
809.9501	389.1603	11005.1	10212.05
810.0936	391.3474	10960.45	10137.8
810.2371	393.5339	10948.3	10158.75
810.3806	395.7199	10891.35	10102.2
810.5241	397.9052	10935.35	10147.25
810.6677	400.09	10978.35	10193.45
810.8113	402.2743	11071.15	10285.75
810.9548	404.4579	11168.8	10383.05
811.0984	406.641	11291.05	10503.2
811.2421	408.8235	11453.75	10667.05
811.3857	411.0054	11582.85	10796.7
811.5293	413.1868	11707.8	10919
811.673	415.3675	11739.1	10947.2
811.8166	417.5477	11736.45	10943.85
811.9603	419.7273	11694.9	10897.7
812.104	421.9064	11601.25	10798.85
812.2477	424.0848	11524.65	10727.45
812.3914	426.2627	11430.7	10630.85
812.5351	428.4399	11248.55	10448.9
812.6788	430.6166	11019.3	10212.05
812.8226	432.7928	10762.95	9957.45
812.9663	434.9683	10522.1	9717.95
813.1101	437.1432	10373.25	9564.8
813.2539	439.3176	10248.55	9441.3
813.3977	441.4914	10157.35	9349.3
813.5415	443.6645	10130.55	9319.15
813.6853	445.8371	10095.65	9285.1
813.8291	448.0091	10056.2	9246.55
813.973	450.1806	10031.05	9220.75
814.1168	452.3514	10006.45	9194.25
814.2607	454.5216	10034.4	9214.35
814.4046	456.6913	10012.7	9198.75
814.5485	458.8603	10032.5	9218.7
814.6924	461.0288	10068.7	9255.6
814.8363	463.1967	10030.7	9217.35
814.9802	465.3639	10061.3	9244.25
815.1241	467.5306	10046.35	9232.55
815.2681	469.6967	10030.15	9215.4
815.412	471.8622	10043.5	9226.85
815.556	474.0271	10072.45	9258.45
815.7	476.1914	10078.35	9257.6
815.844	478.3551	10067.5	9248.05
815.988	480.5182	10101.05	9281.35
816.132	482.6807	10141.2	9318.15
816.276	484.8426	10273.1	9454.75
816.4201	487.0039	10518.65	9698.9
816.5641	489.1647	10768.5	9947.8
816.7082	491.3248	10989.1	10168.3
816.8522	493.4843	11017.95	10196.65
816.9963	495.6432	11001.4	10181
817.1404	497.8015	10897.9	10073.65
817.2845	499.9592	10787.25	9966
817.4286	502.1163	10675.5	9852.5
817.5727	504.2728	10453.3	9630.65
817.7168	506.4287	10236.25	9413.85
817.861	508.5839	10038.9	9214.15
818.0051	510.7386	9871.5	9049.25
818.1493	512.8927	9828.3	8997.55
818.2935	515.0461	9798.5	8974.45
818.4377	517.199	9814.05	8991.2
818.5818	519.3512	9914.55	9089.2
818.726	521.5029	10118.35	9286.05
818.8703	523.6539	10293.45	9464.55
819.0145	525.8043	10364.35	9533.6
819.1587	527.9541	10296.75	9465.85
819.303	530.1033	10181.35	9352.45
819.4472	532.2519	10053.9	9225.8
819.5915	534.3999	10020.55	9188.55
819.7357	536.5472	10040.65	9211.75
819.88	538.694	10165.15	9334
820.0243	540.8401	10328.8	9495.6
820.1686	542.9856	10488.2	9657
820.3129	545.1305	10513.55	9680.6
820.4572	547.2748	10445.45	9614.35
820.6016	549.4185	10308.85	9473.35
820.7459	551.5615	10211.6	9377.35
820.8902	553.704	10210.25	9377.6
821.0346	555.8458	10253.3	9420.8
821.1789	557.987	10369.75	9535.95
821.3233	560.1276	10516.5	9682.25
821.4677	562.2675	10758.7	9924.05
821.6121	564.4069	11095.6	10260.75
821.7565	566.5456	11389.2	10551
821.9009	568.6837	11481.05	10646.15
822.0453	570.8212	11212.75	10373.75
822.1897	572.958	10734.6	9896.3
822.3342	575.0942	10301.25	9464.9
822.4786	577.2299	9990.95	9154.55
822.6231	579.3648	9846.85	9011.85
822.7675	581.4992	9789.8	8952.2
822.912	583.6329	9851.05	9013.85
823.0565	585.766	9963.55	9128.9
823.201	587.8985	10064	9231.1
823.3454	590.0304	10121.7	9258.6
823.4899	592.1616	10066.3	9226.4
823.6345	594.2922	9973.95	9135.1
823.779	596.4222	9835	8994.3
823.9235	598.5515	9696.85	8857.45
824.068	600.6802	9583.45	8743.75
824.2126	602.8083	9458.7	8616.85
824.3571	604.9358	9457.65	8614.95
824.5017	607.0626	9461.35	8617.55
824.6462	609.1888	9471.9	8630
824.7908	611.3144	9596.9	8757.05
824.9354	613.4393	9671.95	8831.35
825.08	615.5636	9746.4	8905.1
825.2246	617.6873	9762.3	8922.15
825.3692	619.8103	9710.95	8865.35
825.5138	621.9327	9591.1	8745.85
825.6584	624.0544	9425.1	8579.45
825.803	626.1756	9293.4	8452.2
825.9477	628.2961	9184.3	8339.65
826.0923	630.4159	9120.6	8277.6
826.237	632.5351	9120.85	8275.65
826.3816	634.6537	9098.3	8253.45
826.5263	636.7716	9090.25	8243
826.6709	638.8889	9087.9	8242
826.8156	641.0056	9097.65	8251.75
826.9603	643.1216	9085.25	8236.5
827.105	645.237	9061	8208.1
827.2497	647.3518	9002.4	8154.1
827.3944	649.4659	8926.3	8076.8
827.5391	651.5793	8905.35	8056.25
827.6838	653.6922	8875.25	8027.5
827.8285	655.8043	8847.15	8000.6
827.9733	657.9159	8867.7	8017.95
828.118	660.0268	8807.25	7955.1
828.2627	662.137	8784.05	7932.35
828.4075	664.2466	8821.05	7969.9
828.5522	666.3556	8814.05	7962.4
828.697	668.4639	8769.9	7916.8
828.8418	670.5716	8734.75	7882.3
828.9865	672.6786	8713.7	7858.6
829.1313	674.785	8642.5	7790.1
829.2761	676.8907	8612.45	7757.2
829.4209	678.9958	8631.5	7782.2
829.5657	681.1002	8629	7777.55
829.7105	683.204	8593.8	7737.7
829.8553	685.3072	8586.25	7730.25
830.0001	687.4097	8575.8	7719.9
830.1449	689.5115	8552.15	7694.1
830.2898	691.6127	8553.3	7699.85
830.4346	693.7132	8517.55	7662.5
830.5794	695.8131	8525.4	7663.35
830.7243	697.9123	8537.2	7681
830.8691	700.0109	8525.05	7670.45
831.014	702.1089	8565.95	7710.8
831.1588	704.2061	8598.5	7743.6
831.3037	706.3028	8632.85	7776.15
831.4486	708.3987	8661.1	7804.65
831.5935	710.4941	8671.85	7816.25
831.7383	712.5887	8689.85	7831.95
831.8832	714.6827	8757.95	7895.05
832.0281	716.7761	8833.5	7975.5
832.173	718.8688	8955.05	8096.8
832.3179	720.9608	9030.1	8168.9
832.4628	723.0522	9102	8242.35
832.6077	725.1429	9162.45	8305.15
832.7527	727.233	9216.1	8357.5
832.8976	729.3224	9254.75	8395.95
833.0425	731.4112	9219.45	8357.6
833.1874	733.4993	9096.5	8233.1
833.3324	735.5867	8916.65	8056.05
833.4773	737.6735	8749.85	7888.6
833.6222	739.7596	8607.5	7743.55
833.7672	741.845	8533.6	7673.65
833.9122	743.9298	8459.25	7596.2
834.0571	746.014	8446.1	7585.45
834.2021	748.0974	8427.8	7565.55
834.347	750.1802	8427.35	7564.25
834.492	752.2624	8412	7551.15
834.637	754.3439	8416.75	7552.05
834.782	756.4247	8487	7615.75
834.9269	758.5048	8582.1	7721.35
835.0719	760.5843	8764.6	7900.55
835.2169	762.6631	9006.6	8142.95
835.3619	764.7413	9392.65	8532.3
835.5069	766.8188	9896.85	9034.4
835.6519	768.8956	10286.55	9421.8
835.7969	770.9718	10573.8	9711.55
835.9419	773.0473	10557.25	9693.9
836.0869	775.1221	10378.95	9516.8
836.232	777.1962	10186.8	9323.45
836.377	779.2697	10134.95	9271.4
836.522	781.3426	10202	9329.45
836.667	783.4147	10293.25	9428
836.8121	785.4862	10330.1	9466.75
836.9571	787.557	10184.95	9322.2
837.1021	789.6271	9827.65	8962.05
837.2472	791.6966	9390.35	8525.75
837.3922	793.7654	8934.9	8070.25
837.5373	795.8335	8649.75	7786.65
837.6823	797.901	8440.45	7578.6
837.8274	799.9678	8308.45	7442.25
837.9724	802.0339	8226.1	7364.55
838.1175	804.0993	8217.95	7342.9
838.2626	806.1641	8160.1	7295.55
838.4076	808.2282	8090.55	7225.05
838.5527	810.2916	8056.55	7188.65
838.6978	812.3544	8004.25	7140
838.8428	814.4164	7953.3	7086.65
838.9879	816.4778	7953.8	7088
839.133	818.5385	7969.65	7103.95
839.2781	820.5986	8084.25	7221.35
839.4232	822.658	8231.5	7365.9
839.5682	824.7166	8465.75	7598.65
839.7133	826.7747	8800.5	7933.85
839.8584	828.832	9167.7	8300.85
840.0035	830.8886	9440.6	8572.3
840.1486	832.9446	9602.3	8733.6
840.2937	834.9999	9477.65	8610.7
840.4388	837.0545	9284.2	8415.5
840.5839	839.1085	9050.35	8181.6
840.729	841.1618	8795.8	7923.6
840.8741	843.2143	8605.9	7737.75
841.0192	845.2662	8460.7	7591.85
841.1643	847.3175	8370.3	7502.1
841.3095	849.368	8259.05	7394.2
841.4546	851.4179	8200.45	7333.3
841.5997	853.467	8125.65	7259.55
841.7448	855.5155	8074.2	7202.7
841.8899	857.5633	8022.15	7156.75
842.0351	859.6105	7937.35	7067.8
842.1802	861.6569	7902.55	7033.9
842.3253	863.7027	7843.15	6971.8
842.4704	865.7478	7802	6933.35
842.6156	867.7922	7763.35	6891.5
842.7607	869.8359	7735.75	6865.45
842.9058	871.8789	7739.25	6869.25
843.0509	873.9212	7827.6	6923.75
843.1961	875.9629	7843.45	6972.65
843.3412	878.0039	7911.4	7041.05
843.4863	880.0441	7972.95	7100.9
843.6315	882.0837	8024.9	7152.6
843.7766	884.1226	8034.7	7164.2
843.9218	886.1609	8076.45	7206.9
844.0669	888.1984	8166.4	7298.8
844.212	890.2352	8256.1	7387.3
844.3572	892.2714	8262.25	7387.6
844.5023	894.3069	8223	7352.2
844.6475	896.3416	8103.15	7233.5
844.7926	898.3757	7983.65	7112.85
844.9377	900.4091	7907.1	7034
845.0829	902.4418	7890.9	7013.85
845.228	904.4739	7940.45	7068.1
845.3732	906.5052	7949	7077.6
845.5183	908.5358	7911.8	7039.65
845.6635	910.5658	7840.15	6965.75
845.8086	912.595	7684.3	6812.6
845.9538	914.6236	7536.5	6667.3
846.0989	916.6515	7435.3	6564.65
846.2441	918.6786	7360.15	6488.45
846.3892	920.7051	7348.8	6475.5
846.5344	922.7309	7396.1	6524.3
846.6795	924.756	7399.35	6525.5
846.8246	926.7804	7423.1	6546.2
846.9698	928.8041	7428	6554
847.1149	930.8272	7453.5	6579.6
847.2601	932.8495	7435.95	6563.4
847.4052	934.8711	7425.2	6552.75
847.5504	936.892	7394.2	6519.3
847.6955	938.9123	7389.8	6516.1
847.8407	940.9318	7398.85	6528.65
847.9858	942.9506	7414.9	6540.6
848.131	944.9688	7361.8	6488.3
848.2761	946.9862	7281.55	6407.85
848.4213	949.003	7162	6288.9
848.5664	951.019	7083.95	6210.05
848.7115	953.0344	7049.55	6174.05
848.8567	955.0491	7014.65	6140.85
849.0018	957.063	7060.65	6185.8
849.147	959.0763	7089.5	6219.6
849.2921	961.0888	7099.45	6225.5
849.4373	963.1007	7122.1	6245.85
849.5824	965.1119	7144.2	6270.1
849.7275	967.1223	7145.75	6270.05
849.8727	969.1321	7120.8	6246.7
850.0178	971.1412	7102.4	6229.9
850.1629	973.1495	7090	6218.7
850.3081	975.1572	7125.8	6216.75
850.4532	977.1641	7115.2	6242.6
850.5983	979.1704	7076.95	6202.65
850.7435	981.1759	7058.1	6178
850.8886	983.1808	7046.9	6172.35
851.0337	985.1849	7072.85	6186.55
851.1788	987.1884	7104.3	6226.45
851.324	989.1911	7144.15	6266.4
851.4691	991.1932	7201.55	6326.6
851.6142	993.1945	7207.55	6333.5
851.7593	995.1951	7189.9	6314.25
851.9045	997.1951	7177.35	6295.15
852.0496	999.1943	7145.7	6271
852.1947	1001.1928	7150.6	6273.95
852.3398	1003.1906	7167.2	6291.5
852.4849	1005.1877	7268.4	6390.5
852.63	1007.1841	7310.6	6433.45
852.7751	1009.1798	7328.35	6451.25
852.9202	1011.1748	7265.55	6389.05
853.0653	1013.1691	7154.85	6277.3
853.2104	1015.1627	7021.35	6143.95
853.3555	1017.1556	6851.25	5976.45
853.5006	1019.1477	6799.35	5922.2
853.6457	1021.1392	6701.9	5825.65
853.7908	1023.1299	6680.65	5804.4
853.9359	1025.12	6674.15	5793.65
854.081	1027.1093	6705.25	5832
854.2261	1029.0979	6795.25	5917.95
854.3712	1031.0859	6854.95	5979.8
854.5163	1033.0731	6860.95	5986
854.6613	1035.0596	6850.4	5975
854.8064	1037.0454	6764.7	5888.2
854.9515	1039.0304	6694.05	5817.2
855.0965	1041.0148	6602.05	5724.4
855.2416	1042.9985	6546.55	5670.6
855.3867	1044.9814	6498.1	5623.15
855.5317	1046.9636	6467.2	5587.25
855.6768	1048.9452	6442.6	5565.9
855.8219	1050.926	6457.05	5582.5
855.9669	1052.9061	6482.3	5607.55
856.112	1054.8855	6488.65	5613.05
856.257	1056.8642	6531.6	5659.1
856.4021	1058.8421	6560.4	5678.6
856.5471	1060.8194	6553.9	5676.5
856.6921	1062.7959	6593.5	5717.1
856.8372	1064.7717	6613.25	5736
856.9822	1066.7469	6659.05	5778.4
857.1272	1068.7213	6700.6	5822.15
857.2723	1070.695	6757.4	5880.7
857.4173	1072.6679	6777.65	5900.6
857.5623	1074.6402	6802.7	5927.7
857.7073	1076.6117	6788.85	5908.25
857.8523	1078.5826	6697.5	5821.05
857.9973	1080.5527	6598.35	5718.5
858.1423	1082.5221	6545.9	5665.35
858.2873	1084.4908	6510.95	5631.95
858.4323	1086.4587	6512.65	5635.1
858.5773	1088.426	6553.7	5673.85
858.7223	1090.3925	6544.6	5662
858.8673	1092.3584	6568.8	5691.35
859.0123	1094.3235	6582.25	5704.55
859.1573	1096.2879	6633.85	5756.3
859.3022	1098.2515	6725.45	5846.8
859.4472	1100.2145	6807.6	5929.2
859.5922	1102.1767	6958.5	6079.7
859.7371	1104.1382	7109	6232.7
859.8821	1106.099	7292.7	6411.75
860.027	1108.0591	7458.7	6581.7
860.172	1110.0185	7587.6	6707.15
860.3169	1111.9771	7627.05	6748.1
860.4619	1113.9351	7596.2	6717.25
860.6068	1115.8923	7503.1	6624.95
860.7517	1117.8488	7425.4	6544.85
860.8967	1119.8045	7255.75	6379.35
861.0416	1121.7596	7129	6250.9
861.1865	1123.7139	7023.4	6145
861.3314	1125.6675	6987.6	6110.65
861.4763	1127.6204	6997.5	6119
861.6212	1129.5726	6955.25	6071.95
861.7661	1131.524	6918.25	6040.25
861.911	1133.4748	6828.35	5949.35
862.0559	1135.4248	6675.6	5797.3
862.2008	1137.3741	6565.4	5686.8
862.3457	1139.3226	6480.7	5600.45
862.4905	1141.2705	6449.05	5572.25
862.6354	1143.2176	6398.1	5512.3
862.7803	1145.164	6374.1	5490.6
862.9251	1147.1097	6309.1	5430.85
863.07	1149.0546	6227.3	5346
863.2148	1150.9989	6179.75	5299.6
863.3597	1152.9424	6068.65	5188.2
863.5045	1154.8852	6001.75	5123.05
863.6493	1156.8272	5968.2	5091.45
863.7942	1158.7686	5981.35	5096.45
863.939	1160.7092	5989.15	5110.25
864.0838	1162.6491	6013.5	5133.5
864.2286	1164.5883	6080.8	5201.65
864.3734	1166.5267	6167.6	5287.25
864.5182	1168.4644	6275.9	5395.8
864.663	1170.4014	6400.85	5517.1
864.8078	1172.3377	6587.9	5709.35
864.9526	1174.2732	6800.25	5920.1
865.0974	1176.2081	7084.4	6207.6
865.2421	1178.1421	7439.2	6556.15
865.3869	1180.0755	7826.1	6946.95
865.5317	1182.0082	8106.2	7227.2
865.6764	1183.9401	8218.7	7336.15
865.8212	1185.8713	8094	7215.1
865.9659	1187.8017	7818.85	6936.25
866.1106	1189.7315	7535.95	6658.9
866.2554	1191.6605	7269.05	6361.3
866.4001	1193.5888	7005.4	6122.7
866.5448	1195.5163	6907.2	6027.3
866.6895	1197.4432	6806.6	5926
866.8342	1199.3693	6763.9	5883.6
866.9789	1201.2947	6742.5	5854
867.1236	1203.2193	6707.5	5826.85
867.2683	1205.1432	6715.35	5835.45
867.413	1207.0664	6684	5802.4
867.5576	1208.9889	6684.2	5801.4
867.7023	1210.9106	6657.55	5777.65
867.847	1212.8316	6651.05	5771.55
867.9916	1214.7519	6701.3	5809.8
868.1363	1216.6715	6736.75	5856.7
868.2809	1218.5903	6783.65	5903.45
868.4255	1220.5084	6826.55	5944.2
868.5701	1222.4257	6928.1	6049.05
868.7148	1224.3424	6966.1	6087
868.8594	1226.2583	7055.95	6174.45
869.004	1228.1735	7169.2	6288.5
869.1486	1230.0879	7270.75	6392.55
869.2932	1232.0016	7401.9	6521.9
869.4377	1233.9146	7529.35	6646.15
869.5823	1235.8269	7522.45	6642.15
869.7269	1237.7384	7519.45	6636.8
869.8715	1239.6492	7423.4	6543.1
870.016	1241.5592	7412.25	6531.05
870.1606	1243.4686	7440.9	6559.35
870.3051	1245.3772	7594.2	6713.2
870.4496	1247.285	7753.35	6871.05
870.5941	1249.1922	7906.8	7027.25
870.7387	1251.0986	8032.05	7154.5
870.8832	1253.0042	8129.45	7246.9
871.0277	1254.9092	8220.45	7340.75
871.1722	1256.8134	8311.6	7432.5
871.3167	1258.7169	8413.2	7530.8
871.4611	1260.6196	8505.6	7625.9
871.6056	1262.5216	8665.9	7783.2
871.7501	1264.4229	8804.45	7926.25
871.8945	1266.3234	8926.75	8045.6
872.039	1268.2232	8988.2	8106.75
872.1834	1270.1223	9051.95	8170.95
872.3278	1272.0207	9050.7	8170.95
872.4723	1273.9183	9017.6	8128.95
872.6167	1275.8151	8985.8	8103.4
872.7611	1277.7113	8976.65	8093.45
872.9055	1279.6067	9063.85	8182.05
873.0499	1281.5014	9234.8	8351.85
873.1943	1283.3953	9578.1	8695.25
873.3386	1285.2885	9990.25	9109.1
873.483	1287.181	10413.05	9531.3
873.6274	1289.0727	10800.5	9920.05
873.7717	1290.9637	11068.05	10184.15
873.9161	1292.854	11223.85	10343.95
874.0604	1294.7435	11211.55	10329.25
874.2047	1296.6323	11095.5	10214.7
874.349	1298.5204	10946.05	10062.2
874.4933	1300.4077	10756.95	9874.35
874.6376	1302.2943	10545.25	9664.4
874.7819	1304.1802	10255.4	9374.4
874.9262	1306.0653	9921.45	9036.25
875.0705	1307.9497	9546.4	8663.8
875.2147	1309.8333	9233.05	8350.1
875.359	1311.7162	9016.95	8134.8
875.5032	1313.5984	8847.6	7965.15
875.6475	1315.4798	8756.65	7862.95
875.7917	1317.3605	8690.05	7796.1
875.9359	1319.2405	8596.1	7711
876.0801	1321.1197	8443.55	7561
876.2243	1322.9982	8205.7	7321.55
876.3685	1324.876	7973.95	7092.05
876.5127	1326.753	7760.5	6877.65
876.6569	1328.6293	7552.45	6669.55
876.801	1330.5048	7433.55	6550.25
876.9452	1332.3796	7307.35	6426.5
877.0893	1334.2537	7236.4	6331.65
877.2335	1336.127	7137.1	6255.65
877.3776	1337.9996	7098.8	6216.6
877.5217	1339.8714	7078.15	6197.35
877.6658	1341.7426	7119.4	6191.6
877.8099	1343.6129	7088.75	6206.4
877.954	1345.4826	7070.2	6189.4
878.0981	1347.3515	7073.1	6187.55
878.2422	1349.2196	7041.45	6159
878.3862	1351.087	7055.35	6171.7
878.5303	1352.9537	7099	6216.2
878.6743	1354.8197	7160.45	6278.65
878.8184	1356.6849	7279.05	6396.35
878.9624	1358.5493	7377.75	6493.3
879.1064	1360.4131	7526.45	6641.85
879.2504	1362.276	7631.4	6748.7
879.3944	1364.1383	7672.6	6792.4
879.5384	1365.9998	7593	6704.8
879.6823	1367.8606	7367.7	6483.9
879.8263	1369.7206	7107.7	6225.85
879.9702	1371.5799	6898.9	6013.65
880.1142	1373.4384	6733.2	5851.45
880.2581	1375.2962	6575.85	5691.3
880.402	1377.1533	6330.55	5448.8
880.5459	1379.0096	6061.2	5178.2
880.6898	1380.8652	5850.35	4966.85
880.8337	1382.7201	5637.15	4754.85
880.9776	1384.5742	5467.85	4587.15
881.1215	1386.4275	5348.05	4465.35
881.2653	1388.2802	5258.15	4378.25
881.4092	1390.132	5184.95	4300.9
881.553	1391.9832	5124.9	4240.95
881.6968	1393.8336	5086	4204.2
881.8406	1395.6832	5063.4	4180.8
881.9844	1397.5322	5012.55	4132.2
882.1282	1399.3803	4991.05	4102.7
882.272	1401.2278	4978.45	4092.95
882.4158	1403.0745	4968.55	4086.45
882.5595	1404.9204	4949.4	4067.8
882.7033	1406.7656	4973.15	4090.4
882.847	1408.6101	4957.65	4072.7
882.9908	1410.4538	4969.4	4087.1
883.1345	1412.2968	5001.45	4117.3
883.2782	1414.139	5008.25	4125.5
883.4219	1415.9805	5082.55	4200.45
883.5656	1417.8213	5136.1	4246
883.7092	1419.6613	5207.25	4327.35
883.8529	1421.5006	5320.75	4435
883.9965	1423.3391	5456.1	4571.7
884.1402	1425.1769	5650.25	4765.65
884.2838	1427.0139	5949.7	5065.3
884.4274	1428.8502	6317.2	5433
884.571	1430.6858	6682.25	5798.2
884.7146	1432.5206	6935.35	6053
884.8582	1434.3547	7089.75	6208.35
885.0018	1436.188	7092.65	6209.5
885.1453	1438.0206	7040.9	6159.2
885.2889	1439.8524	6930.1	6047
885.4324	1441.6835	6860.35	5976.3
885.5759	1443.5139	6766.25	5880.7
885.7194	1445.3435	6720.75	5838.2
885.8629	1447.1724	6717.65	5834.85
886.0064	1449.0005	6669.35	5788.85
886.1499	1450.8279	6634.55	5750
886.2933	1452.6545	6639.7	5757.3
886.4368	1454.4804	6669.4	5788.25
886.5802	1456.3056	6687.3	5797.75
886.7237	1458.13	6634.4	5752.5
886.8671	1459.9536	6522.05	5639.25
887.0105	1461.7766	6349.35	5467.7
887.1539	1463.5987	6128.65	5244.2
887.2972	1465.4202	5891.5	5010.2
887.4406	1467.2409	5681.55	4798.6
887.584	1469.0608	5489.3	4607.2
887.7273	1470.88	5302.1	4418.65
887.8706	1472.6984	5143.65	4261
888.0139	1474.5161	4999.6	4113.05
888.1572	1476.3331	4915.5	4034.8
888.3005	1478.1493	4838.15	3956.4
888.4438	1479.9648	4787.05	3905.8
888.5871	1481.7795	4730.25	3846.7
888.7303	1483.5935	4678.5	3795.75
888.8736	1485.4067	4663.25	3780.95
889.0168	1487.2192	4636.45	3753.05
889.16	1489.031	4597.7	3713.4
889.3032	1490.842	4590.9	3710.7
889.4464	1492.6522	4558.6	3673.35
889.5896	1494.4618	4530.8	3648.3
889.7327	1496.2705	4503.95	3620.4
889.8759	1498.0785	4488.4	3605.25
890.019	1499.8858	4447.6	3563
890.1622	1501.6924	4425.7	3544.3
890.3053	1503.4981	4413.5	3531.5
890.4484	1505.3032	4388	3504.7
890.5914	1507.1075	4347.85	3465.5
890.7345	1508.911	4330.65	3447.1
890.8776	1510.7138	4321.15	3437.05
891.0206	1512.5159	4272.6	3392.35
891.1637	1514.3172	4231.25	3349.2
891.3067	1516.1178	4200.8	3321.9
891.4497	1517.9176	4184.75	3301.8
891.5927	1519.7166	4172.55	3291.15
891.7357	1521.515	4152.55	3263.35
891.8786	1523.3126	4130.65	3248.05
892.0216	1525.1094	4110.3	3225.2
892.1645	1526.9055	4107.9	3225.85
892.3074	1528.7008	4093.25	3210.7
892.4503	1530.4954	4081.55	3194.25
892.5932	1532.2893	4052.45	3171.5
892.7361	1534.0824	4059.1	3171.65
892.879	1535.8747	4066.4	3184.95
893.0218	1537.6663	4051.15	3166.8
893.1647	1539.4572	4034.9	3150.65
893.3075	1541.2473	4036.75	3152.15
893.4503	1543.0367	4053.7	3171.5
893.5931	1544.8253	4046.55	3158.75
893.7359	1546.6132	4066.2	3182.25
893.8787	1548.4003	4104.8	3212.95
894.0214	1550.1867	4128.9	3236.9
894.1642	1551.9723	4178.9	3290.9
894.3069	1553.7572	4234.6	3351.05
894.4496	1555.5414	4310	3426.45
894.5923	1557.3247	4410.15	3528.05
894.735	1559.1074	4521.5	3640.35
894.8777	1560.8893	4650.2	3770.3
895.0204	1562.6705	4775.3	3890.8
895.163	1564.4509	4869.35	3987.1
895.3056	1566.2305	4947.7	4066.8
895.4482	1568.0094	4988.85	4106.95
895.5908	1569.7876	4967.65	4083.5
895.7334	1571.565	4962.3	4078.45
895.876	1573.3417	4955.45	4072.5
896.0186	1575.1176	4970.4	4088.4
896.1611	1576.8928	4967.4	4084.15
896.3036	1578.6672	4991.25	4108.9
896.4461	1580.4409	5021.7	4139.45
896.5886	1582.2138	5054.75	4171.25
896.7311	1583.986	5094.45	4211.8
896.8736	1585.7575	5167	4285.1
897.0161	1587.5282	5244.25	4364.75
897.1585	1589.2981	5312.1	4429.7
897.3009	1591.0673	5381.15	4498.25
897.4433	1592.8358	5462.85	4580.35
897.5857	1594.6035	5522.2	4637.75
897.7281	1596.3704	5596.55	4715.3
897.8705	1598.1366	5623.65	4740.4
898.0128	1599.9021	5682.6	4801.75
898.1551	1601.6668	5706.35	4821
898.2975	1603.4308	5800.4	4917.25
898.4398	1605.194	5899.8	5012.45
898.5821	1606.9564	6041.55	5158.3
898.7243	1608.7182	6213.65	5325.35
898.8666	1610.4791	6432.45	5549.9
899.0088	1612.2394	6677.35	5794.55
899.1511	1613.9988	6928.45	6043.8
899.2933	1615.7576	7168.4	6287.05
899.4355	1617.5156	7308	6422.8
899.5776	1619.2728	7358.7	6476
899.7198	1621.0293	7310.1	6428.85
899.862	1622.785	7163.9	6278.9
900.0041	1624.54	6903.25	6019.45
900.1462	1626.2942	6616.4	5733.4
900.2883	1628.0477	6326.35	5440.6
900.4304	1629.8005	6020.45	5133.75
900.5725	1631.5525	5783.8	4903.4
900.7145	1633.3037	5557.6	4676
900.8566	1635.0542	5395.75	4512.8
900.9986	1636.804	5250.8	4368.25
901.1406	1638.553	5188.1	4250.75
901.2826	1640.3013	5073.25	4191.4
901.4245	1642.0488	5022.2	4140.75
901.5665	1643.7955	5018.5	4138.15
901.7085	1645.5416	5067.6	4183.75
901.8504	1647.2868	5122.7	4242.7
901.9923	1649.0313	5164.75	4282.3
902.1342	1650.7751	5258.1	4372.5
902.2761	1652.5181	5324.1	4443.65
902.4179	1654.2604	5434.05	4551.25
902.5598	1656.0019	5563.4	4681.15
902.7016	1657.7427	5723.8	4842.65
902.8434	1659.4828	5897.65	5017.65
902.9852	1661.222	6031.65	5149.75
903.127	1662.9606	6034.5	5154.25
903.2687	1664.6984	5914.75	5032.55
903.4105	1666.4354	5645.8	4763.05
903.5522	1668.1717	5292.45	4409.9
903.6939	1669.9072	4915.05	4034.05
903.8356	1671.642	4604.45	3721.25
903.9773	1673.3761	4340.3	3460.45
904.119	1675.1094	4134.1	3253.05
904.2606	1676.8419	3972.95	3090.9
904.4022	1678.5737	3844.25	2963.4
904.5439	1680.3048	3748.15	2866.55
904.6855	1682.0351	3659.05	2779.85
904.827	1683.7646	3590.6	2706
904.9686	1685.4934	3533.55	2651.5
905.1101	1687.2215	3477.8	2594.35
905.2517	1688.9488	3443.6	2561.85
905.3932	1690.6754	3403.4	2522.35
905.5347	1692.4012	3374.85	2494.1
905.6761	1694.1263	3346.25	2466.2
905.8176	1695.8506	3334.3	2451.85
905.9591	1697.5742	3305.45	2424.4
906.1005	1699.297	3260.75	2381
906.2419	1701.0191	3246	2362.9
906.3833	1702.7404	3225.7	2345.4
906.5246	1704.461	3197.35	2313.7
906.666	1706.1808	3183.55	2300.9
906.8073	1707.8999	3164.95	2283.3
906.9487	1709.6182	3136	2253.25
907.09	1711.3358	3125.55	2242.25
907.2313	1713.0527	3111.4	2231.05
907.3725	1714.7688	3098.4	2211.35
907.5138	1716.4841	3080.2	2197.15
907.655	1718.1987	3072.65	2187.15
907.7962	1719.9126	3066.3	2186.05
907.9374	1721.6257	3045.1	2159.8
908.0786	1723.338	3030	2145.55
908.2198	1725.0496	3032.35	2149.2
908.3609	1726.7605	3019.3	2137
908.502	1728.4706	3020.2	2136.4
908.6431	1730.18	3020.15	2137.45
908.7842	1731.8886	3001.35	2119.85
908.9253	1733.5964	2990.75	2104.45
909.0664	1735.3036	2972.55	2089.3
909.2074	1737.0099	2966.75	2085
909.3484	1738.7156	2948.4	2067.4
909.4894	1740.4204	2939.35	2054.6
909.6304	1742.1246	2932.6	2049.7
909.7714	1743.8279	2898.9	2017.85
909.9123	1745.5306	2911.75	2028.8
910.0532	1747.2325	2895.45	2013.8
910.1941	1748.9336	2882.5	2002.65
910.335	1750.634	2870.8	1986.9
910.4759	1752.3336	2861.6	1980.9
910.6168	1754.0325	2845.4	1963.9
910.7576	1755.7307	2848.05	1966.1
910.8984	1757.4281	2852.4	1971.5
911.0392	1759.1247	2859.15	1969.3
911.18	1760.8206	2843.05	1957.15
911.3208	1762.5158	2835.25	1949
911.4615	1764.2102	2811.45	1931.75
911.6022	1765.9039	2805.4	1922.35
911.7429	1767.5968	2811.05	1928.55
911.8836	1769.289	2799.4	1918.1
912.0243	1770.9804	2799.65	1918.75
912.1649	1772.6711	2803.4	1923.35
912.3056	1774.361	2790.1	1908.15
912.4462	1776.0502	2780.15	1899.35
912.5868	1777.7386	2779.35	1894.6
912.7274	1779.4263	2764.75	1883.1
912.8679	1781.1132	2771.25	1889.15
913.0084	1782.7994	2749.2	1863.2
913.149	1784.4849	2761.45	1879.2
913.2895	1786.1696	2764	1864.75
913.4299	1787.8535	2755.15	1874.05
913.5704	1789.5367	2739.35	1857.55
913.7108	1791.2192	2739.55	1858.95
913.8513	1792.9009	2747.6	1851.2
913.9917	1794.5818	2723.45	1840.4
914.132	1796.2621	2722.05	1839.95
914.2724	1797.9415	2720.2	1839.2
914.4128	1799.6202	2697.55	1817.05
914.5531	1801.2982	2694.9	1810.4
914.6934	1802.9755	2699.75	1819.3
914.8337	1804.6519	2693.2	1811.65
914.9739	1806.3277	2675.75	1793.4
915.1142	1808.0027	2683.25	1800.95
915.2544	1809.6769	2674.55	1792.45
915.3946	1811.3504	2671.4	1787.55
915.5348	1813.0231	2667.65	1785.3
915.675	1814.6951	2670	1788.5
915.8151	1816.3664	2653.25	1768.35
915.9553	1818.0369	2665.55	1782.95
916.0954	1819.7067	2643.95	1761.5
916.2355	1821.3757	2642.05	1760.3
916.3755	1823.044	2638.65	1758.05
916.5156	1824.7115	2643.35	1761.6
916.6556	1826.3783	2627.95	1748.05
916.7956	1828.0443	2624.8	1744.3
916.9356	1829.7096	2624.3	1742.45
917.0756	1831.3741	2621.5	1735.7
917.2155	1833.0379	2629.45	1747.55
917.3555	1834.701	2612.1	1727.45
917.4954	1836.3633	2616.15	1735.7
917.6353	1838.0248	2620.55	1738.65
917.7751	1839.6856	2597.35	1714.25
917.915	1841.3457	2596	1714.95
918.0548	1843.005	2588.9	1710.5
918.1946	1844.6636	2596	1715.85
918.3344	1846.3214	2591.55	1708.25
918.4742	1847.9785	2598.9	1719.45
918.6139	1849.6349	2585.3	1702.1
918.7537	1851.2904	2589.05	1698.3
918.8934	1852.9453	2587.35	1707.15
919.0331	1854.5994	2585.9	1701.95
919.1727	1856.2528	2577.35	1689.85
919.3124	1857.9054	2559.55	1677.95
919.452	1859.5572	2568.3	1687.5
919.5916	1861.2083	2562.75	1679.7
919.7312	1862.8587	2563.8	1682.6
919.8708	1864.5084	2572.45	1691.55
920.0103	1866.1572	2548.9	1668.9
920.1498	1867.8054	2534.7	1651.45
920.2893	1869.4528	2538.3	1655.6
920.4288	1871.0994	2527.85	1647.55
920.5683	1872.7453	2530.4	1649.45
920.7077	1874.3905	2546.5	1648.3
920.8471	1876.0349	2519.45	1636.35
920.9865	1877.6786	2519	1634.9
921.1259	1879.3215	2522.35	1642.75
921.2653	1880.9637	2521.7	1638.9
921.4046	1882.6051	2504	1623.95
921.5439	1884.2458	2500.6	1617.05
921.6832	1885.8858	2493.1	1610.95
921.8225	1887.525	2499.8	1618
921.9617	1889.1634	2490.15	1606.95
922.101	1890.8011	2474.55	1594.05
922.2402	1892.4381	2480.75	1598.25
922.3794	1894.0743	2469.75	1589
922.5185	1895.7098	2473.2	1591.1
922.6577	1897.3446	2467.25	1585.1
922.7968	1898.9786	2469.3	1583.6
922.9359	1900.6118	2462.15	1582.2
923.075	1902.2443	2457.35	1574.85
923.214	1903.8761	2455.5	1575.75
923.3531	1905.5071	2450.7	1568.15
923.4921	1907.1374	2430.05	1547.3
923.6311	1908.7669	2429.95	1547.45
923.77	1910.3957	2429.55	1547.1
923.909	1912.0237	2413	1531.25
924.0479	1913.651	2421.1	1537.35
924.1868	1915.2776	2430.7	1551.9
924.3257	1916.9034	2403.7	1523.35
924.4646	1918.5285	2407.8	1526.95
924.6034	1920.1528	2400	1517.05
924.7422	1921.7764	2393.35	1512.5
924.881	1923.3992	2402.45	1521.05
925.0198	1925.0213	2386.2	1506.25
925.1586	1926.6427	2368.35	1489.15
925.2973	1928.2633	2468.6	1478.25
925.436	1929.8832	2380.15	1497.85
925.5747	1931.5023	2363.8	1483.5
925.7134	1933.1207	2365.9	1484.85
925.852	1934.7383	2368.25	1485.85
925.9906	1936.3552	2352	1469.75
926.1292	1937.9714	2342.4	1462.15
926.2678	1939.5868	2346.6	1462.5
926.4064	1941.2015	2347.85	1465.45
926.5449	1942.8154	2335.6	1458.2
926.6834	1944.4286	2322.9	1440
926.8219	1946.041	2336.65	1431.25
926.9604	1947.6528	2318.6	1432.1
927.0988	1949.2637	2314.55	1435.5
927.2372	1950.8739	2310.55	1429.4
927.3756	1952.4834	2301.05	1419.05
927.514	1954.0921	2288.95	1407.1
927.6523	1955.7001	2293.85	1408.25
927.7907	1957.3074	2272.45	1392.55
927.929	1958.9139	2280.1	1399.9
928.0673	1960.5197	2285.55	1401.05
928.2055	1962.1247	2280.55	1397
928.3438	1963.729	2255.85	1375.9
928.482	1965.3325	2282.75	1377.5
928.6202	1966.9353	2252.2	1372.2
928.7584	1968.5374	2262.05	1379.95
928.8965	1970.1387	2241.3	1359.2
929.0346	1971.7393	2243	1362.15
929.1727	1973.3392	2241.5	1361.6
929.3108	1974.9383	2230.95	1352.45
929.4489	1976.5366	2228.55	1345.8
929.5869	1978.1342	2222.8	1340.6
929.7249	1979.7311	2225.25	1343
929.8629	1981.3273	2219.15	1337.85
930.0009	1982.9227	2212.55	1331.1
930.1388	1984.5173	2206.05	1324.3
930.2767	1986.1112	2198.45	1317.4
930.4146	1987.7044	2207.65	1329
930.5525	1989.2968	2192.1	1307.35
930.6904	1990.8885	2194.3	1309.6
930.8282	1992.4795	2203.6	1320.75
930.966	1994.0697	2196.6	1313.95
931.1038	1995.6592	2180.65	1299.25
931.2415	1997.2479	2179.7	1296.1
931.3793	1998.8359	2179.1	1298.1
931.517	2000.4232	2178.95	1297.8
931.6547	2002.0097	2172.3	1292.2
931.7923	2003.5955	2172.4	1288.95
931.93	2005.1805	2174.65	1292
932.0676	2006.7648	2153.45	1272.3
932.2052	2008.3484	2154.45	1272.5
932.3427	2009.9312	2166.25	1283.1
932.4803	2011.5133	2145.95	1265.8
932.6178	2013.0946	2147.8	1265.75
932.7553	2014.6752	2141.9	1262.3
932.8928	2016.2551	2141.7	1258.25
933.0302	2017.8342	2141.1	1257.25
933.1676	2019.4126	2140.65	1259.65
933.305	2020.9902	2129.55	1249.5
933.4424	2022.5672	2124.2	1242.55
933.5798	2024.1433	2130.15	1243.25
933.7171	2025.7188	2105.35	1224.45
933.8544	2027.2935	2124.25	1241.45
933.9917	2028.8674	2110.2	1227.95
934.129	2030.4406	2105.4	1222.55
934.2662	2032.0131	2092.9	1210.4
934.4034	2033.5849	2107.2	1220.1
934.5406	2035.1559	2105.35	1221.85
934.6778	2036.7261	2101.55	1219.95
934.8149	2038.2957	2089.85	1207.75
934.952	2039.8645	2090.7	1208.9
935.0891	2041.4325	2087.4	1202.15
935.2262	2042.9998	2076.95	1197.8
935.3632	2044.5664	2072.1	1187.05
935.5002	2046.1323	2073	1191.8
935.6372	2047.6974	2073.25	1190.3
935.7742	2049.2617	2071.15	1187.15
935.9111	2050.8254	2100.5	1184.1
936.048	2052.3883	2070.45	1188.7
936.1849	2053.9504	2067.8	1186.65
936.3218	2055.5118	2050.35	1168.95
936.4586	2057.0725	2061	1175.55
936.5955	2058.6325	2055	1172.6
936.7323	2060.1917	2044.1	1165.1
936.869	2061.7502	2047.6	1160.9
937.0058	2063.3079	2040.3	1159.2
937.1425	2064.8649	2038.5	1153.65
937.2792	2066.4212	2044.55	1162.15
937.4159	2067.9767	2032.55	1153.7
937.5525	2069.5315	2020.3	1140.1
937.6891	2071.0856	2023	1140.4
937.8257	2072.6389	2019.05	1136.3
937.9623	2074.1915	2006	1125.95
938.0989	2075.7433	2013.45	1129.7
938.2354	2077.2945	1995.1	1114.3
938.3719	2078.8448	1991.3	1110.75
938.5084	2080.3945	1996.6	1115.1
938.6448	2081.9434	2002.4	1121.2
938.7812	2083.4916	1989.85	1106.45
938.9176	2085.039	2000.8	1120
939.054	2086.5857	1982.15	1099.75
939.1903	2088.1317	1987.05	1106
939.3267	2089.677	1984.15	1101.4
939.463	2091.2215	1977.75	1096.6
939.5992	2092.7652	1973.7	1091.6
939.7355	2094.3083	1985.05	1105.3
939.8717	2095.8506	1973.35	1093.15
940.0079	2097.3921	1975.3	1094.6
940.1441	2098.933	1967.85	1087.15
940.2802	2100.4731	1964.35	1083.25
940.4163	2102.0124	1976.45	1076.55
940.5524	2103.5511	1959.55	1078.2
940.6885	2105.089	1968.15	1086.45
940.8245	2106.6261	1964.2	1084.95
940.9606	2108.1626	1953.9	1071.65
941.0965	2109.6983	1981.75	1070.5
941.2325	2111.2332	1948.85	1065.7
941.3684	2112.7675	1942	1059.5
941.5044	2114.301	1946.2	1062
941.6403	2115.8337	1944.85	1062.55
941.7761	2117.3657	1934.55	1054.55
941.912	2118.897	1936.1	1053.15
942.0478	2120.4276	1940.05	1052.6
942.1835	2121.9575	1924.65	1042.45
942.3193	2123.4866	1937.75	1041.65
942.455	2125.0149	1931.2	1047.3
942.5907	2126.5426	1920.25	1037.25
942.7264	2128.0695	1924.45	1038.8
942.8621	2129.5956	1916.5	1034.1
942.9977	2131.1211	1910.7	1025.35
943.1333	2132.6458	1915.75	1034.25
943.2689	2134.1698	1906.3	1025.6
943.4044	2135.693	1906.15	1020.15
943.54	2137.2155	1905.55	1020.55
943.6755	2138.7373	1899.5	1017.4
943.8109	2140.2584	1896.1	1014.95
943.9464	2141.7787	1901.95	1014.5
944.0818	2143.2983	1891.55	1011.25
944.2172	2144.8171	1881.4	999.35
944.3526	2146.3353	1878.75	995.85
944.4879	2147.8527	1878.75	998.05
944.6232	2149.3693	1881.8	1000.7
944.7585	2150.8853	1881.95	998.2
944.8938	2152.4005	1875.9	994
945.029	2153.9149	1862	978.95
945.1642	2155.4287	1870.25	989.6
945.2994	2156.9417	1867.9	983.95
945.4346	2158.454	1872.25	987.6
945.5697	2159.9655	1849.8	969
945.7048	2161.4764	1861.75	980.15
945.8399	2162.9865	1846.8	965.1
945.9749	2164.4958	1849.45	965.95
946.1099	2166.0045	1859.15	975
946.2449	2167.5124	1845.4	965
946.3799	2169.0195	1846.2	964.9
946.5148	2170.526	1843.8	961.6
946.6498	2172.0317	1835.8	954.95
946.7846	2173.5367	1844.8	961.65
946.9195	2175.0409	1833.1	952.35
947.0543	2176.5445	1833.85	952.15
947.1891	2178.0473	1842.65	962.15
947.3239	2179.5494	1831.2	946.3
947.4587	2181.0507	1827.75	947
947.5934	2182.5513	1828.75	947
947.7281	2184.0512	1815.15	934.8
947.8628	2185.5504	1815.9	934.65
947.9974	2187.0488	1823.35	939.75
948.132	2188.5465	1813.85	931.45
948.2666	2190.0435	1810.85	928.7
948.4012	2191.5397	1808.55	929.7
948.5357	2193.0353	1802.2	921.45
948.6702	2194.5301	1803.35	920.65
948.8047	2196.0241	1802.35	920.45
948.9392	2197.5175	1794.85	914.1
949.0736	2199.0101	1791.3	907.35
949.208	2200.502	1794.45	915.3
949.3424	2201.9931	1792	909.25
949.4767	2203.4835	1782.25	898.55
949.611	2204.9733	1780.05	892.5
949.7453	2206.4622	1781.35	900.1
949.8796	2207.9505	1779.75	894.9
950.0138	2209.438	1765.6	883.25
950.148	2210.9248	1776.6	893.55
950.2822	2212.4109	1764.9	883.6
950.4164	2213.8962	1765.9	881.65
950.5505	2215.3809	1757.55	876.3
950.6846	2216.8648	1764.8	883.3
950.8186	2218.3479	1761.5	875.95
950.9527	2219.8304	1754.2	870
951.0867	2221.3121	1750.85	867.35
951.2207	2222.7931	1746.2	864.4
951.3546	2224.2733	1741.55	861.6
951.4886	2225.7529	1754.9	873.8
951.6225	2227.2317	1741.15	855.15
951.7563	2228.7098	1739	856
951.8902	2230.1872	1735.15	854.9
952.024	2231.6638	1733.6	851.75
952.1578	2233.1397	1730.35	843.7
952.2916	2234.6149	1725.9	846.55
952.4253	2236.0894	1721.5	837.6
952.559	2237.5632	1730.4	838.5
952.6927	2239.0362	1715.2	832.65
952.8263	2240.5085	1713.85	833.15
952.9599	2241.9801	1702.55	818.7
953.0935	2243.4509	1708.65	826.85
953.2271	2244.921	1706.95	826.25
953.3606	2246.3904	1707.1	822
953.4941	2247.8591	1698.85	820.05
953.6276	2249.3271	1705.4	825.1
953.7611	2250.7943	1687.35	805.25
953.8945	2252.2608	1687	806.75
954.0279	2253.7266	1694.75	813.5
954.1612	2255.1917	1693.95	811.4
954.2946	2256.656	1686.1	804.75
954.4279	2258.1197	1679.9	799.3
954.5612	2259.5826	1682.9	798.65
954.6944	2261.0447	1676.4	794.05
954.8276	2262.5062	1673.4	788
954.9608	2263.9669	1673.4	789.5
955.094	2265.4269	1672.9	792.3
955.2271	2266.8862	1672.1	790.65
955.3602	2268.3448	1673.65	794.35
955.4933	2269.8026	1660.85	779.25
955.6264	2271.2598	1662.8	781.8
955.7594	2272.7162	1665.35	784.45
955.8924	2274.1719	1660.45	780.3
956.0253	2275.6268	1662.05	781.05
956.1583	2277.0811	1661.35	777.5
956.2912	2278.5346	1657.3	776.8
956.4241	2279.9874	1657.75	776.65
956.5569	2281.4395	1656.15	775.85
956.6897	2282.8908	1663.4	776.4
956.8225	2284.3414	1645	762.4
956.9553	2285.7914	1644.85	765.55
957.088	2287.2406	1649.8	766.4
957.2207	2288.689	1638.65	757.25
957.3534	2290.1368	1643.9	761.5
957.486	2291.5838	1639.05	754.75
957.6186	2293.0302	1638.85	757.3
957.7512	2294.4758	1639.2	758.4
957.8838	2295.9206	1631.65	747.85
958.0163	2297.3648	1632.4	749.7
958.1488	2298.8082	1634.55	752.9
958.2813	2300.251	1626.7	745.8
958.4137	2301.693	1623.2	740.55
958.5461	2303.1343	1626.5	744.15
958.6785	2304.5748	1621.5	742.05
958.8108	2306.0147	1619.35	736.5
958.9432	2307.4538	1622.7	737
959.0754	2308.8922	1607	725.55
959.2077	2310.3299	1607.35	727.9
959.3399	2311.7669	1609	727.6
959.4721	2313.2031	1610.1	729.25
959.6043	2314.6387	1608.1	726.4
959.7365	2316.0735	1600.7	719.25
959.8686	2317.5076	1603.5	721.95
960.0006	2318.941	1594.8	714.25
960.1327	2320.3737	1601.7	718.45
960.2647	2321.8056	1594.55	709.9
960.3967	2323.2369	1595.95	713.65
960.5287	2324.6674	1587.05	703.9
960.6606	2326.0972	1587.45	703.05
960.7925	2327.5263	1581.2	700.65
960.9244	2328.9547	1593.8	711.35
961.0562	2330.3823	1585.55	704.75
961.1881	2331.8092	1583.45	699.1
961.3198	2333.2355	1579.25	698.1
961.4516	2334.661	1586.4	703.75
961.5833	2336.0858	1581.65	699.55
961.715	2337.5098	1578.45	697.6
961.8467	2338.9332	1583.55	702.95
961.9783	2340.3558	1581.7	697.65
962.1099	2341.7778	1566.75	685.15
962.2415	2343.199	1576.2	692.45
962.373	2344.6195	1565.8	683.55
962.5045	2346.0393	1556.45	673.6
962.636	2347.4583	1569.35	686.2
962.7675	2348.8767	1565.85	685.4
962.8989	2350.2943	1562.9	683.05
963.0303	2351.7113	1563.25	678.2
963.1617	2353.1275	1563.2	679.75
963.293	2354.543	1566	676.1
963.4243	2355.9578	1549.1	668.15
963.5556	2357.3718	1553.7	672.85
963.6868	2358.7852	1552.45	667.6
963.818	2360.1978	1547.05	664.25
963.9492	2361.6098	1553.5	671.8
964.0803	2363.021	1549.6	663.55
964.2114	2364.4315	1548.9	668.8
964.3425	2365.8413	1546.45	663.1
964.4736	2367.2504	1537.75	656.9
964.6046	2368.6587	1532.5	650.4
964.7356	2370.0664	1531	648.6
964.8666	2371.4733	1535.25	654.25
964.9975	2372.8795	1530.8	647.6
965.1284	2374.285	1529.3	648.4
965.2593	2375.6899	1530.1	650.35
965.3901	2377.0939	1530.8	649.95
965.5209	2378.4973	1523.7	643.35
965.6517	2379.9	1529.35	647.8
965.7825	2381.3019	1517.15	636.85
965.9132	2382.7032	1517.85	635.9
966.0439	2384.1037	1517.9	637.3
966.1745	2385.5035	1504.65	622.5
966.3051	2386.9027	1514.95	633.25
966.4357	2388.3011	1512.05	627.95
966.5663	2389.6987	1510.35	630.65
966.6968	2391.0957	1508.1	626.05
966.8273	2392.492	1500.4	617.95
966.9578	2393.8876	1500.4	618.4
967.0882	2395.2824	1500.8	618.6
967.2186	2396.6765	1496.4	615.85
967.349	2398.07	1493.7	613.3
967.4793	2399.4627	1494.3	611
967.6097	2400.8547	1489.95	609.5
967.7399	2402.246	1497.75	608.9
967.8702	2403.6366	1487.85	605.35
968.0004	2405.0265	1480.65	600.35
968.1306	2406.4156	1492.25	606.6
968.2607	2407.8041	1480.5	595.65
968.3909	2409.1918	1488	604.7
968.521	2410.5789	1480.45	598
968.651	2411.9652	1474.8	588.55
968.781	2413.3508	1470.4	587.55
968.911	2414.7358	1477.35	595.75
969.041	2416.12	1468.95	588.6
969.1709	2417.5035	1465.7	584.85
969.3008	2418.8863	1473.7	590.35
969.4307	2420.2684	1467.75	586.5
969.5606	2421.6497	1465.05	584.1
969.6904	2423.0304	1454.1	572.95
969.8201	2424.4104	1458.25	575.1
969.9499	2425.7896	1467.15	579.2
970.0796	2427.1682	1460.2	580.3
970.2093	2428.546	1458.5	576.75
970.3389	2429.9232	1458.5	575.6
970.4685	2431.2996	1457.5	575.4
970.5981	2432.6753	1442.75	562
970.7277	2434.0503	1451.75	570
970.8572	2435.4246	1447.95	566.45
970.9867	2436.7982	1448.25	562.25
971.1161	2438.1711	1443.15	563.6
971.2456	2439.5433	1445.95	563.9
971.375	2440.9148	1448.55	563.75
971.5043	2442.2856	1433.75	552.95
971.6336	2443.6557	1439.75	557.65
971.7629	2445.025	1432.7	552.15
971.8922	2446.3937	1431.55	549.1
972.0214	2447.7617	1441.45	559.7
972.1506	2449.1289	1433.65	554.3
972.2798	2450.4955	1430.85	543.85
972.4089	2451.8613	1425.6	545.95
972.538	2453.2265	1423.35	542.6
972.6671	2454.5909	1427.2	546.05
972.7961	2455.9546	1427.7	547.25
972.9251	2457.3177	1417	537.6
973.0541	2458.68	1423.35	540.95
973.1831	2460.0416	1419	537.85
973.312	2461.4025	1419	537.2
973.4408	2462.7627	1427.7	533.5
973.5697	2464.1222	1414.15	531.1
973.6985	2465.4811	1419.9	536.65
973.8273	2466.8392	1416.65	533.7
973.956	2468.1966	1416.55	533.65
974.0847	2469.5533	1419.75	535.95
974.2134	2470.9093	1416.6	533.95
974.3421	2472.2645	1410.65	526.15
974.4707	2473.6191	1416.2	535.45
974.5993	2474.973	1408.1	526.1
974.7278	2476.3262	1412.95	527.9
974.8563	2477.6787	1406.15	525.6
974.9848	2479.0305	1397.7	517.85
975.1132	2480.3816	1409	526.95
975.2417	2481.7319	1398.3	516.85
975.37	2483.0816	1405.55	523.15
975.4984	2484.4306	1405.7	521.25
975.6267	2485.7789	1401.75	521.5
975.755	2487.1264	1395.55	512.25
975.8833	2488.4733	1392.2	514.45
976.0115	2489.8195	1406.6	507.2
976.1397	2491.165	1393.5	508.6
976.2678	2492.5097	1394.95	511.7
976.3959	2493.8538	1388.35	507.7
976.524	2495.1972	1385.45	506
976.6521	2496.5398	1381.5	499.85
976.7801	2497.8818	1386.15	503
976.9081	2499.2231	1379.2	498.55
977.036	2500.5637	1385.4	502.05
977.164	2501.9035	1383.45	500.95
977.2918	2503.2427	1383.05	499.7
977.4197	2504.5812	1374.35	493.95
977.5475	2505.919	1378.45	492.5
977.6753	2507.256	1369.95	487.75
977.8031	2508.5924	1367.05	485
977.9308	2509.9281	1374.75	486.15
978.0585	2511.2631	1370.65	489.55
978.1861	2512.5974	1368.35	488.45
978.3137	2513.9309	1365.7	483.9
978.4413	2515.2638	1394.05	481.1
978.5689	2516.596	1366.9	484.75
978.6964	2517.9275	1367.6	487.1
978.8239	2519.2583	1363.4	479.1
978.9513	2520.5884	1362.7	479.05
979.0788	2521.9178	1360.3	475.45
979.2062	2523.2465	1352.95	472.3
979.3335	2524.5745	1357.9	476.4
979.4608	2525.9018	1353.45	472.25
979.5881	2527.2284	1358.4	477.6
979.7154	2528.5543	1352.75	469.85
979.8426	2529.8796	1350.2	470.3
979.9698	2531.2041	1352	469
980.0969	2532.5279	1351.4	471.55
980.224	2533.851	1349.65	466.4
980.3511	2535.1735	1346.25	465.2
980.4781	2536.4952	1344.65	464.15
980.6052	2537.8163	1349.4	467.4
980.7321	2539.1366	1346.6	465.4
980.8591	2540.4562	1350.45	469.25
980.986	2541.7752	1343.6	464.35
981.1129	2543.0935	1346.1	466.15
981.2397	2544.411	1348.2	467.4
981.3665	2545.7279	1340.05	459.85
981.4933	2547.0441	1345.2	461.95
981.62	2548.3596	1343.4	460.95
981.7467	2549.6744	1346.65	464.2
981.8734	2550.9885	1342	452.65
982.0001	2552.3019	1339.95	457.2
982.1267	2553.6146	1332.9	451.35
982.2532	2554.9266	1334.95	452.7
982.3798	2556.2379	1337.65	454.25
982.5063	2557.5485	1334.7	454.55
982.6327	2558.8585	1344.05	454.9
982.7592	2560.1677	1337.3	450.85
982.8856	2561.4762	1334.65	453.4
983.0119	2562.7841	1341.5	457
983.1383	2564.0913	1325.75	444.9
983.2646	2565.3977	1331.65	450.8
983.3908	2566.7035	1321.15	440.3
983.517	2568.0086	1337.15	454.7
983.6432	2569.313	1325.4	443.35
983.7694	2570.6167	1332.7	448.1
983.8955	2571.9197	1327.1	446.65
984.0216	2573.222	1323	439.5
984.1476	2574.5236	1326	445.95
984.2737	2575.8246	1324.05	440.7
984.3996	2577.1248	1319.4	434.9
984.5256	2578.4244	1329.3	448.55
984.6515	2579.7232	1328.55	447.15
984.7774	2581.0214	1355.35	444.5
984.9032	2582.3189	1323.55	442.75
985.029	2583.6157	1328.35	442.75
985.1548	2584.9118	1324.05	445
985.2806	2586.2072	1329.15	448.6
985.4063	2587.5019	1319.05	439.4
985.5319	2588.7959	1321.55	439.25
985.6576	2590.0893	1321.5	438.15
985.7832	2591.3819	1323.25	443.25
985.9087	2592.6739	1320.95	440.25
986.0343	2593.9652	1326.05	444.85
986.1597	2595.2557	1319.9	438.15
986.2852	2596.5456	1327.65	444.05
986.4106	2597.8348	1326.25	444.15
986.536	2599.1234	1318.4	436.25
986.6614	2600.4112	1331	449.6
986.7867	2601.6983	1326.7	443.75
986.912	2602.9848	1325.3	445.7
987.0372	2604.2705	1324.9	435.3
987.1624	2605.5556	1316.15	436.65
987.2876	2606.84	1319	439.05
987.4128	2608.1237	1317.65	434.4
987.5379	2609.4067	1313.3	431.15
987.6629	2610.689	1323.35	432.7
987.788	2611.9707	1317.25	431.35
987.913	2613.2516	1317.4	430.05
988.0379	2614.5319	1305.95	423.85
988.1629	2615.8115	1306.2	423.65
988.2878	2617.0903	1303.5	422.3
988.4126	2618.3685	1302.25	419.8
988.5375	2619.6461	1302.15	423
988.6622	2620.9229	1296.55	414.3
988.787	2622.199	1301.5	419.5
988.9117	2623.4745	1302.7	420.1
989.0364	2624.7493	1302.45	422.15
989.161	2626.0234	1297.65	418.85
989.2857	2627.2968	1294.2	413.55
989.4102	2628.5695	1302	419.15
989.5348	2629.8415	1294.7	412.85
989.6593	2631.1128	1293.15	411.45
989.7837	2632.3835	1289.65	408.3
989.9082	2633.6535	1294.45	414.15
990.0326	2634.9228	1292	411
990.1569	2636.1914	1288.5	407.2
990.2812	2637.4593	1289.15	406.25
990.4055	2638.7265	1290.15	408.5
990.5298	2639.9931	1286.6	405.25
990.654	2641.259	1293.65	411.3
990.7782	2642.5242	1288.7	406.8
990.9023	2643.7887	1282.4	401.65
991.0264	2645.0525	1283.35	401.35
991.1505	2646.3156	1282.65	399.65
991.2745	2647.5781	1285.05	401.25
991.3985	2648.8398	1281.15	399.05
991.5225	2650.1009	1314.9	396.25
991.6464	2651.3613	1276.8	396.5
991.7703	2652.6211	1275.2	392.35
991.8942	2653.8801	1268.1	387.9
992.018	2655.1385	1274.35	388
992.1418	2656.3961	1269.9	389.55
992.2655	2657.6531	1269.15	389.75
992.3892	2658.9094	1272.75	390.55
992.5129	2660.1651	1274.35	393.1
992.6366	2661.42	1280.05	399.45
992.7602	2662.6743	1275.55	393.8
992.8837	2663.9279	1274.05	392.9
993.0073	2665.1808	1274.9	393.55
993.1307	2666.433	1274.8	391.8
993.2542	2667.6846	1278.4	397.8
993.3776	2668.9354	1280.15	394.8
993.501	2670.1856	1282.6	400.85
993.6244	2671.4351	1279.25	401.45
993.7477	2672.6839	1283.6	400.25
993.8709	2673.9321	1289.5	410.7
993.9942	2675.1795	1286.65	403.7
994.1174	2676.4263	1281.4	400.8
994.2405	2677.6724	1287.25	405.8
994.3637	2678.9179	1288	404.85
994.4868	2680.1626	1287.05	407.85
994.6098	2681.4067	1287.75	406.55
994.7328	2682.6501	1283.65	399.85
994.8558	2683.8928	1285.8	405.8
994.9788	2685.1348	1277.2	395.2
995.1017	2686.3761	1275.1	396
995.2245	2687.6168	1277.4	397.2
995.3474	2688.8568	1272.95	390.7
995.4702	2690.0961	1269.9	390.55
995.5929	2691.3348	1267.5	385.85
995.7156	2692.5727	1262.85	382.05
995.8383	2693.81	1265.05	384.05
995.961	2695.0466	1259.9	378.55
996.0836	2696.2826	1264.65	381.55
996.2062	2697.5178	1268.95	384.3
996.3287	2698.7524	1269.85	390.35
996.4512	2699.9863	1273.9	388.85
996.5737	2701.2195	1271.4	392
996.6961	2702.452	1267.2	385.65
996.8185	2703.6839	1277.5	395.15
996.9408	2704.9151	1271.3	391.15
997.0631	2706.1456	1273.55	393.2
997.1854	2707.3755	1280.6	397.85
997.3077	2708.6046	1289	405.25
997.4299	2709.8331	1292.6	412.05
997.552	2711.0609	1297.3	415.75
997.6742	2712.2881	1299	417
997.7963	2713.5145	1303.4	420.05
997.9183	2714.7403	1305.4	424.1
998.0403	2715.9654	1314.5	432.7
998.1623	2717.1899	1337.7	439.8
998.2842	2718.4136	1330.6	450.4
998.4062	2719.6367	1330.5	449.8
998.528	2720.8591	1352.15	465.55
998.6498	2722.0809	1346.5	464.15
998.7716	2723.3019	1357.25	473
998.8934	2724.5223	1368.6	485.1
999.0151	2725.7421	1365.6	481.65
999.1368	2726.9611	1372.2	489.9
999.2584	2728.1795	1368.45	481.55
999.38	2729.3972	1354.3	473.05
999.5016	2730.6142	1362.5	468.8
999.6231	2731.8306	1344.15	462.35
999.7446	2733.0462	1341.3	457.95
999.8661	2734.2612	1325.6	437.25
999.9875	2735.4756	1313.4	431.45
1000.1089	2736.6892	1297.5	416.65
1000.2302	2737.9022	1287.7	407.6
1000.3515	2739.1145	1280.3	398.25
1000.4728	2740.3262	1283.85	394.4
1000.594	2741.5372	1265.7	383.55
1000.7152	2742.7475	1264.7	384
1000.8363	2743.9571	1264.7	381
1000.9575	2745.1661	1259.25	372.75
1001.0785	2746.3744	1248.65	365.95
1001.1996	2747.582	1242.2	361.7
1001.3206	2748.7889	1233.4	350.05
1001.4415	2749.9952	1232.45	351.8
1001.5625	2751.2008	1231.4	348.8
1001.6833	2752.4057	1231.3	348.25
1001.8042	2753.61	1227.4	345.5
1001.925	2754.8136	1222.2	339.6
1002.0458	2756.0165	1220.15	339.25
1002.1665	2757.2188	1218.55	340.45
1002.2872	2758.4204	1216.65	335.1
1002.4078	2759.6213	1215.5	333.75
1002.5285	2760.8215	1224.1	335.7
1002.649	2762.0211	1222.35	338.95
1002.7696	2763.22	1218.9	334
1002.8901	2764.4182	1219.5	337.45
1003.0106	2765.6158	1216.4	336.8
1003.131	2766.8127	1217.05	335.45
1003.2514	2768.009	1209.85	328.8
1003.3717	2769.2045	1207.4	325.1
1003.492	2770.3994	1212.9	327.5
1003.6123	2771.5936	1207.1	324.65
1003.7325	2772.7872	1201.45	321.25
1003.8527	2773.9801	1204.1	320.55
1003.9729	2775.1723	1215.65	318.6
1004.093	2776.3639	1196.6	316.65
1004.2131	2777.5548	1197.05	313.5
1004.3331	2778.745	1200.5	318.6
1004.4531	2779.9346	1201.4	321.15
1004.5731	2781.1235	1203.45	319.95
1004.693	2782.3117	1200.1	319.9
1004.8129	2783.4992	1199.9	320.05
1004.9328	2784.6861	1208.45	325.4
1005.0526	2785.8723	1208.55	325.95
1005.1723	2787.0579	1206.35	324.5
1005.2921	2788.2428	1211.3	328.75
1005.4118	2789.427	1210.45	329.5
1005.5314	2790.6106	1217.5	337
1005.651	2791.7935	1218.85	336.35
1005.7706	2792.9757	1229.6	350.9
1005.8902	2794.1573	1229.8	345.95
1006.0097	2795.3382	1234.55	353.9
1006.1291	2796.5184	1245.35	365.65
1006.2485	2797.698	1248.7	364.65
1006.3679	2798.8769	1254.9	372
1006.4873	2800.0551	1257.9	375.35
1006.6066	2801.2327	1273.5	390.25
1006.7258	2802.4096	1273.5	392.45
1006.8451	2803.5859	1282.65	403.65
1006.9642	2804.7615	1296.35	414.1
1007.0834	2805.9364	1307.55	427.5
1007.2025	2807.1106	1319.9	438.95
1007.3216	2808.2842	1334.3	450.1
1007.4406	2809.4572	1350.45	466.55
1007.5596	2810.6294	1379.25	495.1
1007.6785	2811.801	1389.65	509.35
1007.7975	2812.972	1415.85	533.15
1007.9163	2814.1423	1442.25	561.55
1008.0352	2815.3119	1466.7	586
1008.154	2816.4808	1500.7	620.65
1008.2727	2817.6491	1525.65	645
1008.3914	2818.8167	1562.55	682.8
1008.5101	2819.9837	1603.45	717.15
1008.6288	2821.15	1636.35	756.45
1008.7474	2822.3157	1677.15	796.7
1008.8659	2823.4807	1710.45	828
1008.9844	2824.645	1749.4	866.4
1009.1029	2825.8086	1788.55	907.55
1009.2214	2826.9716	1812	932.35
1009.3398	2828.134	1851.45	969.8
1009.4581	2829.2957	1882.4	997.7
1009.5764	2830.4567	1905.25	1025.6
1009.6947	2831.617	1916.75	1032.95
1009.813	2832.7767	1923.9	1044.4
1009.9312	2833.9358	1930.15	1048.9
1010.0493	2835.0941	1925	1041.55
1010.1675	2836.2519	1909.1	1028.1
1010.2855	2837.4089	1896.1	1012.9
1010.4036	2838.5653	1886.7	1007.95
1010.5216	2839.7211	1869.15	987.8
1010.6396	2840.8761	1876.25	992.9
1010.7575	2842.0306	1876.4	997.8
1010.8754	2843.1843	1893.8	1013.05
1010.9932	2844.3374	1909.1	1028
1011.111	2845.4899	1931.15	1050.95
1011.2288	2846.6417	1980.95	1099.9
1011.3465	2847.7928	2007.1	1128.2
1011.4642	2848.9433	2037.25	1156
1011.5818	2850.0931	2079.65	1198.55
1011.6995	2851.2422	2111.05	1228.35
1011.817	2852.3907	2152.7	1272
1011.9345	2853.5385	2194.45	1311.85
1012.052	2854.6857	2238.15	1329.95
1012.1695	2855.8323	2241.7	1360.95
1012.2869	2856.9781	2280.7	1401.1
1012.4042	2858.1233	2310.65	1427.7
1012.5216	2859.2679	2347.75	1467.8
1012.6389	2860.4118	2363.4	1480.5
1012.7561	2861.555	2418.8	1533.85
1012.8733	2862.6976	2452.1	1568.4
1012.9905	2863.8395	2467.05	1584.9
1013.1076	2864.9808	2480.25	1599.05
1013.2247	2866.1214	2501.5	1620.9
1013.3417	2867.2614	2518.8	1637.05
1013.4587	2868.4007	2518	1635
1013.5757	2869.5393	2531.8	1648.65
1013.6926	2870.6773	2541.15	1658.5
1013.8095	2871.8146	2537.05	1653.8
1013.9263	2872.9513	2547.65	1663.8
1014.0431	2874.0874	2543.1	1661.4
1014.1599	2875.2227	2539.25	1657.1
1014.2766	2876.3574	2521.45	1640.6
1014.3933	2877.4915	2507.4	1626.95
1014.51	2878.6249	2490.25	1610.75
1014.6266	2879.7577	2482.15	1600.3
1014.7431	2880.8898	2467.85	1576.8
1014.8596	2882.0212	2449.55	1568.8
1014.9761	2883.152	2447.1	1565.55
1015.0925	2884.2821	2432.85	1552.95
1015.2089	2885.4116	2432.55	1552.05
1015.3253	2886.5405	2438.8	1554.9
1015.4416	2887.6686	2442.75	1559.4
1015.5579	2888.7962	2451	1573.7
1015.6741	2889.923	2450.2	1568.7
1015.7903	2891.0493	2451.05	1568.85
1015.9065	2892.1748	2467.65	1587.8
1016.0226	2893.2997	2468.1	1585.6
1016.1387	2894.424	2473.65	1592.65
1016.2547	2895.5476	2477.05	1597.45
1016.3707	2896.6706	2497.85	1616.5
1016.4866	2897.7929	2515.55	1631.8
1016.6025	2898.9145	2528.85	1646.8
1016.7184	2900.0355	2547.75	1665.7
1016.8342	2901.1559	2554.3	1671.9
1016.95	2902.2756	2581.2	1698.5
1017.0658	2903.3946	2603.7	1721.4
1017.1815	2904.513	2617.05	1733.05
1017.2971	2905.6308	2631.95	1752
1017.4127	2906.7479	2638.95	1758.2
1017.5283	2907.8643	2653.5	1772.4
1017.6439	2908.9801	2661.8	1779.6
1017.7594	2910.0953	2670.4	1789.8
1017.8748	2911.2098	2672.9	1787.75
1017.9902	2912.3236	2658.2	1768.9
1018.1056	2913.4368	2646	1763.45
1018.2209	2914.5494	2633.4	1753
1018.3362	2915.6613	2628.4	1741.4
1018.4515	2916.7725	2591.05	1705.4
1018.5667	2917.8831	2582.8	1700.7
1018.6819	2918.9931	2552.4	1669.1
1018.797	2920.1024	2538.55	1655.4
1018.9121	2921.211	2533.3	1651.5
1019.0271	2922.319	2527.85	1646.5
1019.1421	2923.4264	2508.6	1628.7
1019.2571	2924.5331	2495.65	1615.5
1019.372	2925.6391	2507.5	1623.85
1019.4869	2926.7445	2498.05	1618.05
1019.6017	2927.8493	2497.15	1613.75
1019.7165	2928.9534	2515.9	1634.05
1019.8313	2930.0569	2513.35	1629.15
1019.946	2931.1597	2515.55	1631.55
1020.0606	2932.2619	2507.3	1626.15
1020.1753	2933.3634	2521.6	1640.6
1020.2899	2934.4643	2525.35	1638.4
1020.4044	2935.5645	2526.05	1639.45
1020.5189	2936.6641	2505.65	1620.6
1020.6334	2937.763	2488.3	1608.55
1020.7478	2938.8613	2472.8	1590.1
1020.8622	2939.959	2456.55	1568.9
1020.9765	2941.056	2406.5	1526.3
1021.0908	2942.1523	2361.7	1477.7
1021.2051	2943.248	2311.1	1429.2
1021.3193	2944.3431	2262.65	1381.85
1021.4334	2945.4375	2207.35	1326.15
1021.5476	2946.5313	2132.1	1253.6
1021.6617	2947.6244	2072.5	1190.3
1021.7757	2948.7169	2013.2	1129.7
1021.8897	2949.8087	1961.35	1078.45
1022.0037	2950.8999	1898.2	1014.95
1022.1176	2951.9904	1852.2	973.15
1022.2315	2953.0803	1803.6	921.45
1022.3453	2954.1696	1775.2	895.2
1022.4591	2955.2582	1734.85	852.8
1022.5728	2956.3462	1702	820.5
1022.6865	2957.4335	1683.9	802.05
1022.8002	2958.5202	1660.15	777.25
1022.9138	2959.6062	1634.1	752.85
1023.0274	2960.6916	1624.85	745.8
1023.141	2961.7764	1616.35	732.5
1023.2545	2962.8605	1611.45	731.5
1023.3679	2963.9439	1597.5	713.85
1023.4813	2965.0267	1591.15	709.1
1023.5947	2966.1089	1610.25	704.4
1023.708	2967.1905	1574.7	694.9
1023.8213	2968.2714	1575	694.35
1023.9346	2969.3516	1578.1	698
1024.0478	2970.4312	1590.15	701.85
1024.1609	2971.5102	1579.25	699.1
1024.274	2972.5885	1594.15	712.85
1024.3871	2973.6662	1592.4	705.65
1024.5002	2974.7432	1593.45	711.65
1024.6132	2975.8196	1589.9	708.35
1024.7261	2976.8954	1581.65	700.8
1024.839	2977.9705	1581	699.6
1024.9519	2979.045	1570.3	689.05
1025.0647	2980.1188	1564.3	683.15
1025.1775	2981.192	1551.85	671.3
1025.2902	2982.2645	1546.8	665.2
1025.4029	2983.3364	1530.5	649.05
1025.5156	2984.4077	1513.75	631.7
1025.6282	2985.4783	1503.5	616.55
1025.7407	2986.5483	1479.7	600.6
1025.8532	2987.6177	1457.4	576.75
1025.9657	2988.6864	1432.4	549.8
1026.0782	2989.7545	1413.85	531.5
1026.1906	2990.8219	1392.1	512.3
1026.3029	2991.8887	1369.85	486.45
1026.4152	2992.9548	1356.4	474.65
1026.5275	2994.0204	1331.45	452.1
1026.6397	2995.0852	1310.85	429.85
1026.7519	2996.1495	1298.3	416.15
1026.864	2997.2131	1281.05	399.75
1026.9761	2998.276	1261.25	379.85
1027.0882	2999.3383	1251.65	368.9
1027.2002	3000.4	1243.25	361.2
1027.3122	3001.4611	1221.95	339.15
1027.4241	3002.5215	1214.05	331.65
1027.536	3003.5812	1201.8	322.75
1027.6478	3004.6404	1195.85	313.65
1027.7596	3005.6989	1188.65	305.7
1027.8714	3006.7567	1176.7	296.1
1027.9831	3007.8139	1200.8	292.65
1028.0947	3008.8705	1168.3	286.7
1028.2064	3009.9264	1178.4	281.85
1028.3179	3010.9818	1156.55	275.1
1028.4295	3012.0364	1154.3	272.2
1028.541	3013.0905	1150.65	269.45
1028.6524	3014.1439	1139.1	256.85
1028.7638	3015.1966	1142.3	262.85
1028.8752	3016.2487	1140.2	257.75
1028.9865	3017.3002	1135.35	248.75
1029.0978	3018.3511	1132.55	254.35
1029.209	3019.4013	1134.4	255.4
1029.3202	3020.4509	1131.8	252.55
1029.4314	3021.4998	1129.05	244.95
1029.5425	3022.5481	1126.3	244.2
1029.6535	3023.5958	1122.3	242.6
1029.7645	3024.6428	1127.05	243.6
1029.8755	3025.6892	1119.55	239.95
1029.9864	3026.735	1126.55	244.95
1030.0973	3027.7802	1122.8	241.65
1030.2082	3028.8247	1123.75	241.35
1030.319	3029.8685	1125.95	245.65
1030.4297	3030.9118	1125.25	241.35
1030.5404	3031.9544	1121.15	240.9
1030.6511	3032.9963	1124.55	242.85
1030.7617	3034.0376	1130	249.3
1030.8723	3035.0783	1137.75	254.5
1030.9829	3036.1184	1133.75	250.85
1031.0934	3037.1578	1130.65	247.9
1031.2038	3038.1966	1140.05	256.8
1031.3142	3039.2348	1134.2	253.75
1031.4246	3040.2723	1142.75	254.7
1031.5349	3041.3092	1132.2	253
1031.6452	3042.3455	1134.9	253.8
1031.7554	3043.3811	1129.3	247.9
1031.8656	3044.4161	1134.3	251.3
1031.9758	3045.4505	1133.6	253.5
1032.0859	3046.4842	1132.2	249.55
1032.1959	3047.5173	1128.45	248.65
1032.3059	3048.5498	1129.3	247.65
1032.4159	3049.5816	1124.25	244.1
1032.5258	3050.6128	1126.85	244.3
1032.6357	3051.6434	1126.15	244.95
1032.7455	3052.6734	1124.2	241.95
1032.8553	3053.7027	1122.6	242.1
1032.9651	3054.7314	1116.85	235.55
1033.0748	3055.7594	1116.8	237.95
1033.1845	3056.7868	1118.25	236.15
1033.2941	3057.8136	1114.25	234.15
1033.4037	3058.8398	1110.25	228.55
1033.5132	3059.8653	1108.3	228.55
1033.6227	3060.8902	1109.25	228
1033.7321	3061.9145	1106.45	224.95
1033.8415	3062.9381	1105.15	224.6
1033.9509	3063.9612	1122.05	225.45
1034.0602	3064.9835	1107.55	224.6
1034.1694	3066.0053	1104.05	221.2
1034.2787	3067.0264	1101.3	223.35
1034.3878	3068.0469	1096.65	212.95
1034.497	3069.0668	1095.8	210.75
1034.6061	3070.086	1092.5	211.85
1034.7151	3071.1046	1093.75	209.55
1034.8241	3072.1226	1079.8	196.15
1034.9331	3073.1399	1074.2	192.6
1035.042	3074.1567	1079.85	196.05
1035.1508	3075.1727	1075.35	193.15
1035.2597	3076.1882	1068.75	187.1
1035.3684	3077.203	1060.5	180.05
1035.4772	3078.2173	1059.8	176.9
1035.5859	3079.2308	1057.75	170.6
1035.6945	3080.2438	1051.95	168.65
1035.8031	3081.2561	1041.75	162
1035.9117	3082.2678	1043.8	162.9
1036.0202	3083.2789	1044.3	162.5
1036.1286	3084.2893	1039.3	158.65
1036.2371	3085.2991	1032.1	149.25
1036.3454	3086.3083	1035.45	147.55
1036.4538	3087.3169	1030.15	147.35
1036.562	3088.3248	1027.9	145.15
1036.6703	3089.3321	1024	141.2
1036.7785	3090.3388	1020.6	140.85
1036.8866	3091.3449	1020	137.65
1036.9948	3092.3503	1014.7	128.95
1037.1028	3093.3551	1011.95	132.85
1037.2108	3094.3593	1010.05	129.75
1037.3188	3095.3629	1009.75	129.95
1037.4267	3096.3658	1008.35	126.4
1037.5346	3097.3681	1005.55	123.15
1037.6425	3098.3698	1005.3	122.3
1037.7503	3099.3708	1010.3	123.3
1037.858	3100.3713	1002.75	122.55
1037.9657	3101.3711	997.1	115.1
1038.0734	3102.3702	1135.6	112.2
1038.181	3103.3688	997.55	114.55
1038.2886	3104.3667	989.1	108.35
1038.3961	3105.364	991.8	111.05
1038.5036	3106.3607	992.05	108.6
1038.611	3107.3568	992.75	111.05
1038.7184	3108.3522	988.7	111.35
1038.8257	3109.347	987.35	104.45
1038.933	3110.3412	989.85	107.05
1039.0403	3111.3348	988.1	108.65
1039.1475	3112.3277	988	107.75
1039.2547	3113.32	980.9	98.05
1039.3618	3114.3117	987.85	105.8
1039.4689	3115.3028	977	96.65
1039.5759	3116.2932	980.8	98.95
1039.6829	3117.2831	982.7	94.9
1039.7898	3118.2723	978.25	97.05
1039.8967	3119.2608	978.25	97.8
1040.0035	3120.2488	974.75	93.55
1040.1103	3121.2361	977.75	96.95
1040.2171	3122.2229	973.75	92.05
1040.3238	3123.209	973.7	92.25
1040.4305	3124.1944	972.2	91.6
1040.5371	3125.1793	971.6	88.9
1040.6437	3126.1635	971	92
1040.7502	3127.1471	968	88.4
1040.8567	3128.1301	965.15	85.15
1040.9631	3129.1125	965.45	84.5
1041.0695	3130.0942	967.8	85.75
1041.1759	3131.0753	972.2	82.85
1041.2822	3132.0558	970.55	89
1041.3884	3133.0357	965.3	82.4
1041.4946	3134.015	961.65	78.45
1041.6008	3134.9936	962.15	79.4
1041.7069	3135.9716	985.55	82.05
1041.813	3136.949	961.9	81.35
1041.919	3137.9258	979.15	77.75
1042.025	3138.902	965.45	78.1
1042.1309	3139.8775	960	78.5
1042.2368	3140.8524	957.5	76.75
1042.3427	3141.8267	960.25	77.55
1042.4485	3142.8004	956.55	74.45
1042.5542	3143.7735	965.15	78.05
1042.6599	3144.7459	958.1	75
1042.7656	3145.7178	957.5	75.85
1042.8712	3146.689	953.3	72.7
1042.9768	3147.6596	955.45	71.6
1043.0823	3148.6295	957.5	75.3
1043.1878	3149.5989	952.05	72.8
1043.2932	3150.5676	952.7	73.4
1043.3986	3151.5357	952.45	72.8
1043.5039	3152.5032	950.1	70.05
1043.6092	3153.4701	951.7	69.8
1043.7145	3154.4364	955.95	73.8
1043.8197	3155.402	949.85	71.15
1043.9248	3156.367	952	68.15
1044.03	3157.3315	970.35	70.8
1044.135	3158.2952	950.85	70.05
1044.24	3159.2584	947.8	65.8
1044.345	3160.221	949.2	67.45
1044.4499	3161.1829	950.55	68.5
1044.5548	3162.1442	946.55	65.3
1044.6596	3163.105	947.7	69.4
1044.7644	3164.065	946.3	65.15
1044.8692	3165.0245	947.4	65.2
1044.9739	3165.9834	944.5	64.9
1045.0785	3166.9416	944.35	63.8
1045.1831	3167.8993	942.6	61.3
1045.2877	3168.8563	941.55	59.55
1045.3922	3169.8127	944.3	62.8
1045.4966	3170.7684	942.45	61.7
1045.6011	3171.7236	946.55	63.7
1045.7054	3172.6782	942.4	62.4
1045.8098	3173.6321	940.9	60.1
1045.914	3174.5854	945.2	57.75
1046.0183	3175.5381	940.05	58.85
1046.1224	3176.4902	938.05	56.9
1046.2266	3177.4417	937.8	56.95
1046.3307	3178.3926	941.5	59.35
1046.4347	3179.3428	937.3	59
1046.5387	3180.2924	938.2	60.05
1046.6427	3181.2415	939.25	57.65
1046.7466	3182.1899	942.5	60.2
1046.8504	3183.1377	940.85	59.35
1046.9542	3184.0848	939.55	54.25
1047.058	3185.0314	936.3	54.95
1047.1617	3185.9773	937.85	56.1
1047.2654	3186.9227	937.4	52.6
1047.369	3187.8674	935.45	54.65
1047.4726	3188.8115	940.75	56.1
1047.5761	3189.755	932.65	53.35
1047.6796	3190.6979	937.35	55.3
1047.783	3191.6402	933.5	51.9
1047.8864	3192.5818	934.35	53.7
1047.9898	3193.5229	955	53.1
1048.0931	3194.4633	934.75	54.3
1048.1963	3195.4031	934.85	52.2
1048.2995	3196.3423	932.05	52.7
1048.4027	3197.2809	933.05	53.55
1048.5058	3198.2189	931.95	50.55
1048.6089	3199.1563	941.05	53.65
1048.7119	3200.0931	931.25	51.45
1048.8148	3201.0292	932.35	51.85
1048.9178	3201.9648	932.35	51.2
1049.0206	3202.8997	934.65	53.15
1049.1235	3203.834	930.2	49.35
1049.2262	3204.7677	930.1	48.25
1049.329	3205.7008	933.75	49.85
1049.4317	3206.6333	928.6	47.8
1049.5343	3207.5652	931.75	49.3
1049.6369	3208.4964	930.25	49.1
1049.7394	3209.4271	928.75	47.35
1049.8419	3210.3571	927.85	47.3
1049.9444	3211.2865	930.75	49.6
1050.0468	3212.2154	930.7	47.75
1050.1491	3213.1436	932.1	47.7
1050.2514	3214.0712	933.25	45.4
1050.3537	3214.9982	927.7	46.25
1050.4559	3215.9246	926.7	44.45
1050.5581	3216.8503	924.85	43.15
1050.6602	3217.7755	926.85	44.3
1050.7623	3218.7001	927.25	46.05
1050.8643	3219.624	926.45	43.2
1050.9663	3220.5473	927.6	46.05
1051.0682	3221.4701	928.9	45.35
1051.1701	3222.3922	928.4	45.9
1051.2719	3223.3137	923.45	43.5
1051.3737	3224.2346	925.7	45.15
1051.4754	3225.1549	923.7	41.7
1051.5771	3226.0746	926.8	46.6
1051.6788	3226.9937	924.45	43.1
1051.7804	3227.9121	923.55	42.55
1051.8819	3228.83	921.9	43.65
1051.9834	3229.7473	923.45	41.3
1052.0849	3230.6639	923.2	42.9
1052.1863	3231.5799	923.6	41.6
1052.2876	3232.4954	925.05	42.7
1052.3889	3233.4102	920.65	39.05
1052.4902	3234.3244	921.95	39.95
1052.5914	3235.238	920.2	39.85
1052.6926	3236.151	946.35	42.75
1052.7937	3237.0634	918.95	39.2
1052.8948	3237.9752	919.65	39.5
1052.9958	3238.8864	921.85	40.85
1053.0968	3239.797	921.2	40.8
1053.1977	3240.7069	921.2	39.5
1053.2986	3241.6163	920.45	40.65
1053.3994	3242.5251	919.25	36.95
1053.5002	3243.4332	919.75	39.15
1053.6009	3244.3408	918.9	36.4
1053.7016	3245.2477	918.9	38.1
1053.8022	3246.154	921.4	36.75
1053.9028	3247.0598	921.05	39.65
1054.0034	3247.9649	915.1	33.35
1054.1039	3248.8694	920.1	37.8
1054.2043	3249.7733	917.75	37.15
1054.3047	3250.6766	918.2	36.45
1054.4051	3251.5793	919.6	39.05
1054.5054	3252.4814	916.65	34.55
1054.6056	3253.3829	917.6	35
1054.7058	3254.2838	914.6	35.15
1054.806	3255.1841	915.55	35.55
1054.9061	3256.0838	915.75	35.05
1055.0061	3256.9829	913.4	34.45
1055.1062	3257.8814	915.85	32.1
1055.2061	3258.7792	917.1	34.55
1055.306	3259.6765	913.8	29.65
1055.4059	3260.5731	912.55	29.95
1055.5057	3261.4692	909.8	27.8
1055.6055	3262.3647	912.8	31.15
1055.7052	3263.2595	913.7	32.9
1055.8049	3264.1538	913.2	31.35
1055.9045	3265.0474	913.4	32.9
1056.0041	3265.9404	910.35	29.45
1056.1036	3266.8329	908.05	27.05
1056.2031	3267.7247	919.8	27.85
1056.3025	3268.616	905.4	25.05
1056.4019	3269.5066	908.25	26.55
1056.5013	3270.3966	909.1	25.5
1056.6005	3271.286	903.75	22.2
