Software Version:	3.9.2.0
Unit SN:	10000200
Spectrometer SN:	6960
Date:	3/14/2024 12:38:28 PM
Data Line Index:	25
Spectral Points:	2048
Integration time (ms):	125
Averages:	20
Delay (ms):	30000
Sequence Number:	1
Processing:	dark subtract
Laser Power (mW):	300
Laser Current (mA):	823
Laser Diode Temp (C):	25
Laser Case Temp (C):	26.9
System Temp (C):	26.8
Spectrometer Temp (C):	24.3
CCD Temp (C):	0.028
Secondary Temp (C):	20.003
Heatsink Temp (C):	23.03
CCDPCB Temp (C):	36.607
SecondaryPCB Temp (C):	34.273

Wavelength	RamanShift	Raw Counts	Dark Subtracted
787.061	30.1047	417.35	6.05
787.2016	32.3739	415.7	5.8
787.3422	34.6426	416.4	5.05
787.4828	36.9109	419.7	5.55
787.6235	39.1787	424.55	5.35
787.7642	41.4461	429.3	6.3
787.9049	43.7131	434.75	9.1
788.0456	45.9796	435.85	7.05
788.1863	48.2456	440.25	8.35
788.3271	50.5112	448.6	12
788.4679	52.7764	446.2	7.4
788.6087	55.0411	453.7	12.9
788.7496	57.3054	457.7	10.4
788.8904	59.5692	460.25	11.85
789.0313	61.8326	465.85	13.6
789.1722	64.0955	471.05	13.8
789.3132	66.3579	477.8	15.85
789.4541	68.6199	485.95	19.45
789.5951	70.8815	493.7	26.15
789.7361	73.1426	508.75	38
789.8771	75.4032	536.85	62.4
790.0181	77.6634	602.65	122.85
790.1592	79.9231	750.45	264.5
790.3003	82.1824	1046.8	558.25
790.4414	84.4412	1559.6	1065.85
790.5825	86.6995	2245.1	1742.1
790.7237	88.9574	2896	2384.85
790.8648	91.2148	3374.35	2860.85
791.006	93.4717	3599.85	3082
791.1472	95.7282	3664.15	3142.3
791.2885	97.9842	3679.75	3154
791.4297	100.2398	3643.15	3117.1
791.571	102.4949	3617.95	3088.25
791.7123	104.7495	3587.9	3053.95
791.8536	107.0036	3573.5	3037.5
791.9949	109.2573	3526.15	2993.95
792.1363	111.5105	3463.15	2927.75
792.2777	113.7632	3404.2	2865.35
792.4191	116.0154	3349.4	2802.85
792.5605	118.2672	3287.55	2745.65
792.7019	120.5185	3208.85	2664.1
792.8434	122.7693	3154.9	2610.5
792.9849	125.0197	3102.05	2553.25
793.1264	127.2696	3020.1	2468.6
793.2679	129.519	2998.45	2443.8
793.4094	131.7679	2980.2	2424
793.551	134.0163	2981.35	2420.95
793.6926	136.2642	2968.35	2403.35
793.8342	138.5117	2980.05	2412
793.9758	140.7587	2958.5	2391.45
794.1175	143.0052	2912.4	2340.7
794.2591	145.2512	2892.1	2319.1
794.4008	147.4967	2837.3	2265.7
794.5425	149.7417	2815.55	2242.7
794.6842	151.9863	2786.95	2207.75
794.826	154.2304	2780	2196.95
794.9677	156.4739	2773.5	2185.3
795.1095	158.717	2777.05	2189
795.2513	160.9596	2799.45	2206.4
795.3931	163.2017	2796.65	2201.55
795.535	165.4433	2827.05	2230.85
795.6768	167.6844	2820.65	2222.75
795.8187	169.925	2806.95	2205.2
795.9606	172.1651	2763.95	2157.95
796.1025	174.4047	2725.8	2114.5
796.2445	176.6439	2684.6	2074.1
796.3864	178.8825	2681.2	2067.7
796.5284	181.1206	2668.65	2051.25
796.6704	183.3582	2654.1	2034.2
796.8124	185.5954	2643.65	2021.45
796.9544	187.832	2652.25	2027.45
797.0965	190.0681	2657.6	2031.5
797.2386	192.3037	2660.9	2029.9
797.3806	194.5388	2643.6	2010.35
797.5228	196.7734	2663.45	2026.9
797.6649	199.0075	2664.1	2023.45
797.807	201.2411	2689.95	2045.25
797.9492	203.4742	2707.5	2063.4
798.0914	205.7068	2710.2	2067.05
798.2336	207.9389	2733.6	2087.4
798.3758	210.1704	2742.05	2092.4
798.518	212.4015	2742.35	2089.7
798.6603	214.632	2733.9	2081.75
798.8025	216.862	2735.95	2091.5
798.9448	219.0915	2737.8	2100.3
799.0871	221.3205	2735.6	2100.2
799.2294	223.549	2729.8	2099.3
799.3718	225.777	2720.55	2090.95
799.5141	228.0044	2734.45	2101.5
799.6565	230.2314	2726.85	2097.8
799.7989	232.4578	2714.45	2079.6
799.9413	234.6837	2704.7	2062.65
800.0837	236.909	2698.95	2057.95
800.2262	239.1339	2694.7	2030.35
800.3687	241.3582	2676.9	2026.55
800.5111	243.582	2702.55	2026.1
800.6536	245.8053	2690.1	2020.8
800.7961	248.0281	2687.55	2024.1
800.9387	250.2503	2702.75	2034.9
801.0812	252.472	2688.25	2014
801.2238	254.6932	2724.5	2045.75
801.3664	256.9139	2710	2027.05
801.509	259.134	2728.9	2045.2
801.6516	261.3536	2733.1	2054.8
801.7942	263.5727	2749.95	2065.65
801.9369	265.7912	2758.2	2073.6
802.0795	268.0092	2808	2124.05
802.2222	270.2267	2846.75	2162.8
802.3649	272.4436	2879.65	2194
802.5076	274.6601	2899.4	2205.55
802.6504	276.8759	2902.7	2214.35
802.7931	279.0913	2927.75	2239.05
802.9359	281.3061	2927.15	2232.45
803.0787	283.5204	2961.05	2264.65
803.2215	285.7341	2960.75	2262.15
803.3643	287.9473	2980.95	2278.05
803.5071	290.16	2986.25	2282.05
803.6499	292.3721	2956.15	2254.1
803.7928	294.5837	2924.8	2223.55
803.9357	296.7947	2899.25	2197.25
804.0786	299.0052	2870.6	2168.75
804.2215	301.2152	2857.75	2151.4
804.3644	303.4246	2857.95	2156.6
804.5074	305.6334	2840.3	2137.35
804.6503	307.8418	2834.65	2128.9
804.7933	310.0495	2807.7	2101.05
804.9363	312.2568	2780.45	2074.35
805.0793	314.4635	2749.9	2040.85
805.2223	316.6696	2715.05	2005.5
805.3653	318.8752	2678.95	1959.5
805.5084	321.0802	2660.05	1947.45
805.6514	323.2847	2653.2	1940.6
805.7945	325.4887	2643.7	1931.05
805.9376	327.692	2654.9	1939.75
806.0807	329.8949	2693.8	1975.9
806.2238	332.0972	2709.4	1990.4
806.367	334.2989	2741.1	2020.05
806.5101	336.5001	2743.8	2021.9
806.6533	338.7007	2730.45	2008.1
806.7965	340.9008	2687.15	1963.3
806.9397	343.1003	2644.8	1915.45
807.0829	345.2992	2613.45	1885.75
807.2261	347.4976	2567.6	1839.3
807.3693	349.6955	2557.4	1825.85
807.5126	351.8927	2540.95	1808.95
807.6559	354.0895	2532	1786.45
807.7991	356.2856	2510.45	1775.45
807.9424	358.4812	2494.75	1758.8
808.0857	360.6763	2489.35	1756.1
808.2291	362.8707	2481.15	1746.3
808.3724	365.0646	2485.85	1745.85
808.5158	367.258	2486.65	1746.8
808.6591	369.4508	2492.8	1747.4
808.8025	371.643	2503.15	1756.5
808.9459	373.8346	2538.7	1790.55
809.0893	376.0257	2557.25	1807.4
809.2327	378.2162	2581.9	1829.1
809.3762	380.4062	2594.5	1840.9
809.5196	382.5956	2571.9	1816.95
809.6631	384.7844	2546	1791.55
809.8066	386.9726	2499.95	1744.6
809.9501	389.1603	2484.5	1731.7
810.0936	391.3474	2492.65	1704.85
810.2371	393.5339	2465.35	1709.7
810.3806	395.7199	2461.25	1711.05
810.5241	397.9052	2467.75	1719.35
810.6677	400.09	2500.1	1752.3
810.8113	402.2743	2525.4	1776.75
810.9548	404.4579	2547.1	1798.15
811.0984	406.641	2581.95	1832.3
811.2421	408.8235	2604.1	1854.4
811.3857	411.0054	2661.2	1910.1
811.5293	413.1868	2716.65	1962.95
811.673	415.3675	2772.6	2014.55
811.8166	417.5477	2797.4	2038.95
811.9603	419.7273	2757.1	1996.1
812.104	421.9064	2660.25	1892.65
812.2477	424.0848	2589.1	1826.2
812.3914	426.2627	2539.4	1773.1
812.5351	428.4399	2504	1734.6
812.6788	430.6166	2453.75	1681.1
812.8226	432.7928	2429.35	1658
812.9663	434.9683	2384.5	1612.85
813.1101	437.1432	2367.6	1590.3
813.2539	439.3176	2351.75	1577.85
813.3977	441.4914	2333.45	1556.2
813.5415	443.6645	2345.55	1567.2
813.6853	445.8371	2331.7	1554.45
813.8291	448.0091	2339.8	1561.15
813.973	450.1806	2331.6	1553.5
814.1168	452.3514	2318.65	1536.55
814.2607	454.5216	2329.2	1539.45
814.4046	456.6913	2308.65	1524.25
814.5485	458.8603	2309.7	1525.4
814.6924	461.0288	2314.55	1533.65
814.8363	463.1967	2308.6	1522.15
814.9802	465.3639	2303.5	1519
815.1241	467.5306	2297.9	1511.05
815.2681	469.6967	2292.35	1506.35
815.412	471.8622	2286.85	1502.85
815.556	474.0271	2292.35	1507.45
815.7	476.1914	2278.8	1491.15
815.844	478.3551	2282.2	1497.55
815.988	480.5182	2268.15	1478.75
816.132	482.6807	2279.2	1488.05
816.276	484.8426	2292.4	1504.15
816.4201	487.0039	2315.6	1525.35
816.5641	489.1647	2352.35	1560.1
816.7082	491.3248	2393.5	1603.45
816.8522	493.4843	2399.9	1610.55
816.9963	495.6432	2393.9	1603.25
817.1404	497.8015	2366.45	1571.5
817.2845	499.9592	2337.1	1544
817.4286	502.1163	2295.9	1502.6
817.5727	504.2728	2268.75	1472.3
817.7168	506.4287	2258.55	1462.85
817.861	508.5839	2229.6	1433.5
818.0051	510.7386	2228.65	1432.35
818.1493	512.8927	2233	1429.75
818.2935	515.0461	2232.45	1434.75
818.4377	517.199	2238.6	1440.15
818.5818	519.3512	2256.2	1459.8
818.726	521.5029	2321.65	1516.8
818.8703	523.6539	2368.65	1566.2
819.0145	525.8043	2374.95	1576.35
819.1587	527.9541	2334.3	1528.4
819.303	530.1033	2277.75	1472.55
819.4472	532.2519	2250.7	1448.7
819.5915	534.3999	2228.55	1422.8
819.7357	536.5472	2231.4	1425.2
819.88	538.694	2214.65	1409.3
820.0243	540.8401	2225.05	1417.65
820.1686	542.9856	2231.95	1424.75
820.3129	545.1305	2251.95	1444.7
820.4572	547.2748	2267.8	1459.05
820.6016	549.4185	2268	1458.1
820.7459	551.5615	2266.2	1456.8
820.8902	553.704	2281	1470.5
821.0346	555.8458	2277.65	1468.85
821.1789	557.987	2292.7	1484.3
821.3233	560.1276	2309.2	1496.25
821.4677	562.2675	2361.35	1551.65
821.6121	564.4069	2412.45	1603.95
821.7565	566.5456	2443.2	1634.45
821.9009	568.6837	2422.95	1612.35
822.0453	570.8212	2370.75	1561.7
822.1897	572.958	2312	1500.1
822.3342	575.0942	2283.7	1474.85
822.4786	577.2299	2261.95	1449.7
822.6231	579.3648	2220.8	1407.8
822.7675	581.4992	2199.6	1386.2
822.912	583.6329	2199.85	1387.65
823.0565	585.766	2226.75	1412.9
823.201	587.8985	2251	1437.05
823.3454	590.0304	2294.4	1468.45
823.4899	592.1616	2313.15	1495.95
823.6345	594.2922	2316.8	1501.35
823.779	596.4222	2299.75	1483.75
823.9235	598.5515	2239.2	1424.6
824.068	600.6802	2196.8	1379
824.2126	602.8083	2167.35	1350.35
824.3571	604.9358	2153.85	1334.1
824.5017	607.0626	2151.15	1331.7
824.6462	609.1888	2149.2	1329.35
824.7908	611.3144	2165.05	1344.35
824.9354	613.4393	2194.8	1375.15
825.08	615.5636	2229.05	1408.2
825.2246	617.6873	2265.85	1443.5
825.3692	619.8103	2293.45	1469.4
825.5138	621.9327	2299.45	1474.3
825.6584	624.0544	2281.8	1461.1
825.803	626.1756	2225.1	1401.3
825.9477	628.2961	2182.05	1358
826.0923	630.4159	2162.3	1339.05
826.237	632.5351	2169	1343.75
826.3816	634.6537	2148.15	1323.35
826.5263	636.7716	2146.55	1320.9
826.6709	638.8889	2150.7	1324.6
826.8156	641.0056	2151.15	1325.3
826.9603	643.1216	2154.5	1327.7
827.105	645.237	2171.7	1343.5
827.2497	647.3518	2155.5	1327.15
827.3944	649.4659	2136.6	1308.7
827.5391	651.5793	2113.5	1284.6
827.6838	653.6922	2093	1265.9
827.8285	655.8043	2097.5	1271.3
827.9733	657.9159	2084.45	1255.65
828.118	660.0268	2082	1248.55
828.2627	662.137	2075.75	1244.6
828.4075	664.2466	2075.55	1241.7
828.5522	666.3556	2073	1243.6
828.697	668.4639	2081.45	1246.8
828.8418	670.5716	2063.9	1232.05
828.9865	672.6786	2064.25	1229.95
829.1313	674.785	2049.65	1214.45
829.2761	676.8907	2040.05	1204.65
829.4209	678.9958	2040.5	1207.2
829.5657	681.1002	2052.5	1217.8
829.7105	683.204	2055	1216.95
829.8553	685.3072	2047.2	1212.75
830.0001	687.4097	2051.7	1217.8
830.1449	689.5115	2043	1205.95
830.2898	691.6127	2045	1210.45
830.4346	693.7132	2037.45	1199.75
830.5794	695.8131	2040.35	1187.15
830.7243	697.9123	2038.5	1200.35
830.8691	700.0109	2041.35	1204.65
831.014	702.1089	2039.7	1203.2
831.1588	704.2061	2051.35	1213
831.3037	706.3028	2081	1242.3
831.4486	708.3987	2083.5	1244.4
831.5935	710.4941	2093.75	1255.1
831.7383	712.5887	2108.3	1267.35
831.8832	714.6827	2106.7	1262.6
832.0281	716.7761	2098.4	1258.15
832.173	718.8688	2090.65	1249
832.3179	720.9608	2090.2	1246.65
832.4628	723.0522	2099.8	1253.9
832.6077	725.1429	2099.1	1257.8
832.7527	727.233	2123.5	1280.25
832.8976	729.3224	2172.4	1331.65
833.0425	731.4112	2208.4	1363.5
833.1874	733.4993	2221.65	1375.65
833.3324	735.5867	2213.8	1369.95
833.4773	737.6735	2163.3	1318.25
833.6222	739.7596	2119.6	1273.3
833.7672	741.845	2098.3	1251.7
833.9122	743.9298	2094.45	1246.75
834.0571	746.014	2113.7	1270.05
834.2021	748.0974	2120.15	1272.15
834.347	750.1802	2124.45	1279.6
834.492	752.2624	2109.9	1266.1
834.637	754.3439	2088.85	1239.8
834.782	756.4247	2079.25	1222.5
834.9269	758.5048	2075.8	1230.45
835.0719	760.5843	2076.8	1229.4
835.2169	762.6631	2091.15	1243.65
835.3619	764.7413	2140.5	1295
835.5069	766.8188	2179.2	1330.85
835.6519	768.8956	2231.1	1380.75
835.7969	770.9718	2273.55	1425.7
835.9419	773.0473	2277.65	1432.6
836.0869	775.1221	2242.8	1395.15
836.232	777.1962	2229.15	1379.85
836.377	779.2697	2271	1421.6
836.522	781.3426	2345.7	1485.6
836.667	783.4147	2397.5	1544.45
836.8121	785.4862	2391.55	1542.55
836.9571	787.557	2347.35	1498.05
837.1021	789.6271	2246.1	1395.65
837.2472	791.6966	2157.85	1308.45
837.3922	793.7654	2076.85	1225.65
837.5373	795.8335	2028.95	1179.3
837.6823	797.901	2001.35	1150.95
837.8274	799.9678	2004.95	1150.45
837.9724	802.0339	1998.55	1147.85
838.1175	804.0993	2015.65	1154.1
838.2626	806.1641	2006	1152.95
838.4076	808.2282	1985.9	1134.6
838.5527	810.2916	1966.9	1112
838.6978	812.3544	1956.2	1105.7
838.8428	814.4164	1949	1098.75
838.9879	816.4778	1953.85	1101.9
839.133	818.5385	1959.85	1107.7
839.2781	820.5986	1985.7	1133.45
839.4232	822.658	2020.9	1166.25
839.5682	824.7166	2065.85	1213
839.7133	826.7747	2122.1	1269.2
839.8584	828.832	2180.25	1325.55
840.0035	830.8886	2226.35	1370.25
840.1486	832.9446	2238.65	1381.05
840.2937	834.9999	2230.7	1378.85
840.4388	837.0545	2186.1	1326.15
840.5839	839.1085	2112.35	1257.8
840.729	841.1618	2054.85	1195.95
840.8741	843.2143	2002.7	1147.35
841.0192	845.2662	1983.85	1128.6
841.1643	847.3175	1980.15	1125.15
841.3095	849.368	1957.5	1102.2
841.4546	851.4179	1962.55	1105.45
841.5997	853.467	1968.1	1111.25
841.7448	855.5155	1966.95	1112.45
841.8899	857.5633	1955.2	1100.1
842.0351	859.6105	1948.7	1091.75
842.1802	861.6569	1960.65	1103.15
842.3253	863.7027	1943.65	1084.65
842.4704	865.7478	1934.95	1079.45
842.6156	867.7922	1915.6	1057.25
842.7607	869.8359	1913.1	1053.7
842.9058	871.8789	1913.45	1055.4
843.0509	873.9212	1946.15	1052.55
843.1961	875.9629	1909.3	1051.45
843.3412	878.0039	1909.9	1048.8
843.4863	880.0441	1928.2	1071.55
843.6315	882.0837	1939.2	1079.25
843.7766	884.1226	1955.2	1095
843.9218	886.1609	1974.25	1116.9
844.0669	888.1984	2012.2	1153.35
844.212	890.2352	2036.9	1177.6
844.3572	892.2714	2064.8	1201.1
844.5023	894.3069	2039.6	1178.15
844.6475	896.3416	2001	1138.45
844.7926	898.3757	1966.25	1105.5
844.9377	900.4091	1945.6	1085
845.0829	902.4418	1947.65	1083
845.228	904.4739	1964.35	1103.2
845.3732	906.5052	1974.2	1115.35
845.5183	908.5358	1974.1	1114.45
845.6635	910.5658	1963.4	1100.35
845.8086	912.595	1935.05	1075.15
845.9538	914.6236	1903.35	1040.1
846.0989	916.6515	1888.6	1027.15
846.2441	918.6786	1872.65	1009.9
846.3892	920.7051	1867.05	1003.4
846.5344	922.7309	1854.8	994.45
846.6795	924.756	1846.8	984.05
846.8246	926.7804	1855.35	990.8
846.9698	928.8041	1863.25	999.55
847.1149	930.8272	1872.75	1009.3
847.2601	932.8495	1887.6	1022.95
847.4052	934.8711	1888.3	1022.8
847.5504	936.892	1887.85	1024.65
847.6955	938.9123	1906.85	1041.05
847.8407	940.9318	1917.65	1054.05
847.9858	942.9506	1935.5	1071.15
848.131	944.9688	1935.8	1071.75
848.2761	946.9862	1908.75	1042
848.4213	949.003	1878	1010.9
848.5664	951.019	1864.4	997.85
848.7115	953.0344	1854.25	990.65
848.8567	955.0491	1841.35	976.6
849.0018	957.063	1828.3	963.65
849.147	959.0763	1835.75	971.55
849.2921	961.0888	1820	952.75
849.4373	963.1007	1824.6	960.7
849.5824	965.1119	1808.4	943.35
849.7275	967.1223	1817.35	949.8
849.8727	969.1321	1810.65	944.65
850.0178	971.1412	1812.1	944.8
850.1629	973.1495	1798.1	933.6
850.3081	975.1572	1844.55	923.25
850.4532	977.1641	1796.05	929.25
850.5983	979.1704	1790.15	921.45
850.7435	981.1759	1796.95	927.1
850.8886	983.1808	1797.45	929.65
851.0337	985.1849	1795.45	919.35
851.1788	987.1884	1776.65	908.95
851.324	989.1911	1789.05	920.2
851.4691	991.1932	1790.75	921.25
851.6142	993.1945	1786.25	920.1
851.7593	995.1951	1787.5	917.75
851.9045	997.1951	1782.65	907.65
852.0496	999.1943	1775.5	906.65
852.1947	1001.1928	1772	902.8
852.3398	1003.1906	1784.85	917
852.4849	1005.1877	1800.7	930.85
852.63	1007.1841	1809.5	940
852.7751	1009.1798	1824.75	956.85
852.9202	1011.1748	1811.25	942.95
853.0653	1013.1691	1801.85	932.05
853.2104	1015.1627	1774.7	905.45
853.3555	1017.1556	1743.7	875.3
853.5006	1019.1477	1725.8	856.75
853.6457	1021.1392	1713.2	845.15
853.7908	1023.1299	1710.4	840.3
853.9359	1025.12	1712	840.05
854.081	1027.1093	1708.45	839.95
854.2261	1029.0979	1720.35	852.05
854.3712	1031.0859	1736.9	867.85
854.5163	1033.0731	1742	870.6
854.6613	1035.0596	1743.4	874.6
854.8064	1037.0454	1735.8	865.4
854.9515	1039.0304	1726.7	855.65
855.0965	1041.0148	1709.25	839.7
855.2416	1042.9985	1696.75	824.8
855.3867	1044.9814	1684.35	813.55
855.5317	1046.9636	1676.8	803.95
855.6768	1048.9452	1677.7	806.4
855.8219	1050.926	1688.5	818.25
855.9669	1052.9061	1704.2	835.45
856.112	1054.8855	1702.15	830.65
856.257	1056.8642	1712.55	840.85
856.4021	1058.8421	1709.9	834.85
856.5471	1060.8194	1698.1	825.75
856.6921	1062.7959	1700.05	827.25
856.8372	1064.7717	1697.95	826.35
856.9822	1066.7469	1688.3	814.3
857.1272	1068.7213	1688.7	814.7
857.2723	1070.695	1698.45	824.55
857.4173	1072.6679	1710.6	836.3
857.5623	1074.6402	1728.2	857.15
857.7073	1076.6117	1741.3	864.75
857.8523	1078.5826	1721.5	849.55
857.9973	1080.5527	1697.8	822.6
858.1423	1082.5221	1668.8	795.45
858.2873	1084.4908	1649.5	777.45
858.4323	1086.4587	1644.25	770.7
858.5773	1088.426	1624.6	751.45
858.7223	1090.3925	1627.25	750.05
858.8673	1092.3584	1626.15	752.95
859.0123	1094.3235	1624.05	754.55
859.1573	1096.2879	1640.95	766.7
859.3022	1098.2515	1655.35	781
859.4472	1100.2145	1673.45	800.85
859.5922	1102.1767	1691.6	814.95
859.7371	1104.1382	1721.45	847.35
859.8821	1106.099	1764.45	888.2
860.027	1108.0591	1787.75	913.1
860.172	1110.0185	1815.35	941.35
860.3169	1111.9771	1842.95	970.8
860.4619	1113.9351	1870.45	998.45
860.6068	1115.8923	1914.15	1040.85
860.7517	1117.8488	1947.05	1072.75
860.8967	1119.8045	1920.95	1046.85
861.0416	1121.7596	1847.65	973.3
861.1865	1123.7139	1780.35	906.75
861.3314	1125.6675	1720.85	844.8
861.4763	1127.6204	1714.2	839.15
861.6212	1129.5726	1734.85	859.6
861.7661	1131.524	1737.5	862.85
861.911	1133.4748	1709.75	835
862.0559	1135.4248	1664.55	787.7
862.2008	1137.3741	1635.75	760.8
862.3457	1139.3226	1616.05	739.7
862.4905	1141.2705	1609.6	733.05
862.6354	1143.2176	1621.35	740
862.7803	1145.164	1619.3	743.45
862.9251	1147.1097	1618.05	744.05
863.07	1149.0546	1612.25	734.15
863.2148	1150.9989	1589.2	712.45
863.3597	1152.9424	1572.55	696.95
863.5045	1154.8852	1554.85	679
863.6493	1156.8272	1558	682.95
863.7942	1158.7686	1563.9	682.85
863.939	1160.7092	1549.05	671.85
864.0838	1162.6491	1542.5	662.55
864.2286	1164.5883	1555.35	678.9
864.3734	1166.5267	1568.4	690.7
864.5182	1168.4644	1583.6	707.05
864.663	1170.4014	1600.7	720.4
864.8078	1172.3377	1622.55	746.5
864.9526	1174.2732	1662.9	788.2
865.0974	1176.2081	1710.65	835.95
865.2421	1178.1421	1799.4	918.4
865.3869	1180.0755	1881.95	1006.25
865.5317	1182.0082	1935.65	1058.7
865.6764	1183.9401	1952.25	1072.45
865.8212	1185.8713	1873.9	996.3
865.9659	1187.8017	1780.85	904.3
866.1106	1189.7315	1690.05	814.6
866.2554	1191.6605	1668.15	762.9
866.4001	1193.5888	1603.6	727.6
866.5448	1195.5163	1581.65	704.55
866.6895	1197.4432	1562.3	685
866.8342	1199.3693	1559.65	683.05
866.9789	1201.2947	1543.05	657.55
867.1236	1203.2193	1532.4	657.2
867.2683	1205.1432	1528.6	651.95
867.413	1207.0664	1527.5	649.7
867.5576	1208.9889	1531.1	649.9
867.7023	1210.9106	1517.65	640.35
867.847	1212.8316	1527.4	650.3
867.9916	1214.7519	1534.5	646.6
868.1363	1216.6715	1527.3	651
868.2809	1218.5903	1534.7	656.85
868.4255	1220.5084	1554	676.95
868.5701	1222.4257	1552.35	675
868.7148	1224.3424	1564.9	688
868.8594	1226.2583	1579.55	694.85
869.004	1228.1735	1591.5	713.2
869.1486	1230.0879	1618.6	739.45
869.2932	1232.0016	1636.5	759.6
869.4377	1233.9146	1674.2	793.55
869.5823	1235.8269	1677.6	800.15
869.7269	1237.7384	1679.9	799.65
869.8715	1239.6492	1670.5	791.75
870.016	1241.5592	1680.7	800.6
870.1606	1243.4686	1708.35	829.85
870.3051	1245.3772	1748.65	870.75
870.4496	1247.285	1813.6	935.05
870.5941	1249.1922	1866.75	986.4
870.7387	1251.0986	1911	1032.6
870.8832	1253.0042	1960.35	1078.9
871.0277	1254.9092	2006.95	1128.55
871.1722	1256.8134	2072.55	1193.4
871.3167	1258.7169	2136.15	1255.45
871.4611	1260.6196	2182.85	1305.65
871.6056	1262.5216	2208.55	1326.45
871.7501	1264.4229	2207.3	1328.4
871.8945	1266.3234	2182.3	1303.3
872.039	1268.2232	2140.75	1259.25
872.1834	1270.1223	2098.35	1217.75
872.3278	1272.0207	2072.65	1191.8
872.4723	1273.9183	2056.5	1170.1
872.6167	1275.8151	2042.35	1164.15
872.7611	1277.7113	2075.1	1195.35
872.9055	1279.6067	2130.05	1250.05
873.0499	1281.5014	2229	1347.2
873.1943	1283.3953	2343.7	1461.3
873.3386	1285.2885	2483.15	1604.55
873.483	1287.181	2606.65	1725.05
873.6274	1289.0727	2652.5	1772.85
873.7717	1290.9637	2610.85	1730.4
873.9161	1292.854	2541.35	1660.75
874.0604	1294.7435	2438.4	1556.65
874.2047	1296.6323	2361.9	1480.5
874.349	1298.5204	2272.65	1390.35
874.4933	1300.4077	2223.15	1341.35
874.6376	1302.2943	2168.65	1287.9
874.7819	1304.1802	2149.8	1270.35
874.9262	1306.0653	2133.05	1248.2
875.0705	1307.9497	2096.25	1216.95
875.2147	1309.8333	2088.95	1208.2
875.359	1311.7162	2065.85	1184.35
875.5032	1313.5984	2047.3	1162.5
875.6475	1315.4798	2048.1	1158.75
875.7917	1317.3605	2044.35	1149.5
875.9359	1319.2405	2044.05	1160.85
876.0801	1321.1197	2051.25	1168.05
876.2243	1322.9982	2028.7	1143.8
876.3685	1324.876	1977.65	1097.5
876.5127	1326.753	1917.3	1035.4
876.6569	1328.6293	1851.95	968.25
876.801	1330.5048	1789.6	906.6
876.9452	1332.3796	1729.4	852
877.0893	1334.2537	1713.15	805.7
877.2335	1336.127	1649	766.6
877.3776	1337.9996	1630.6	749.8
877.5217	1339.8714	1620.65	738.85
877.6658	1341.7426	1646.8	724.75
877.8099	1343.6129	1592.15	711.9
877.954	1345.4826	1576.7	694.8
878.0981	1347.3515	1569.55	685.2
878.2422	1349.2196	1562.75	682.25
878.3862	1351.087	1545.55	663.05
878.5303	1352.9537	1541.3	658.6
878.6743	1354.8197	1549.85	668.5
878.8184	1356.6849	1552.45	670.8
878.9624	1358.5493	1562.45	680.4
879.1064	1360.4131	1577.7	696.65
879.2504	1362.276	1609.8	729.5
879.3944	1364.1383	1630.95	749.85
879.5384	1365.9998	1649.05	762.7
879.6823	1367.8606	1633.25	750.4
879.8263	1369.7206	1625.55	743.05
879.9702	1371.5799	1624.4	739.1
880.1142	1373.4384	1617.7	735.65
880.2581	1375.2962	1605.5	722.2
880.402	1377.1533	1564.2	682.35
880.5459	1379.0096	1531.85	648.6
880.6898	1380.8652	1515.75	632.9
880.8337	1382.7201	1494.85	611.9
880.9776	1384.5742	1467.65	585.65
881.1215	1386.4275	1461.15	577.5
881.2653	1388.2802	1443	559.8
881.4092	1390.132	1440.25	559.15
881.553	1391.9832	1440.6	557.4
881.6968	1393.8336	1429.1	545.35
881.8406	1395.6832	1418.05	533.1
881.9844	1397.5322	1415.1	533
882.1282	1399.3803	1408.85	521.75
882.272	1401.2278	1402.9	519.9
882.4158	1403.0745	1396.85	513.1
882.5595	1404.9204	1387.8	506.85
882.7033	1406.7656	1385.5	502.95
882.847	1408.6101	1383.95	501.45
882.9908	1410.4538	1377.05	495.2
883.1345	1412.2968	1372.2	492.6
883.2782	1414.139	1377.7	494.75
883.4219	1415.9805	1389.9	506.35
883.5656	1417.8213	1390.45	501.35
883.7092	1419.6613	1398.9	514.25
883.8529	1421.5006	1411.55	527.8
883.9965	1423.3391	1445.85	560.65
884.1402	1425.1769	1471.85	586.3
884.2838	1427.0139	1527.35	641.25
884.4274	1428.8502	1583.25	699.35
884.571	1430.6858	1633.7	749.6
884.7146	1432.5206	1653.25	769.05
884.8582	1434.3547	1645.35	760
885.0018	1436.188	1630.7	748.9
885.1453	1438.0206	1624.25	739.55
885.2889	1439.8524	1601	717.35
885.4324	1441.6835	1606.35	722.3
885.5759	1443.5139	1609.5	724.35
885.7194	1445.3435	1603.15	721
885.8629	1447.1724	1610.85	726.4
886.0064	1449.0005	1603.75	721.35
886.1499	1450.8279	1601.75	716.3
886.2933	1452.6545	1601.65	719.2
886.4368	1454.4804	1590.9	707.15
886.5802	1456.3056	1599.05	707.35
886.7237	1458.13	1581.25	697.15
886.8671	1459.9536	1562.45	679.6
887.0105	1461.7766	1539.9	656
887.1539	1463.5987	1509.1	625.55
887.2972	1465.4202	1479.3	595.35
887.4406	1467.2409	1458.15	575.05
887.584	1469.0608	1437.2	553.7
887.7273	1470.88	1421.3	536.8
887.8706	1472.6984	1402.05	518.7
888.0139	1474.5161	1384.6	497
888.1572	1476.3331	1371.55	488.75
888.3005	1478.1493	1358.8	475.25
888.4438	1479.9648	1358.05	473.3
888.5871	1481.7795	1357.2	473.8
888.7303	1483.5935	1364.05	479.25
888.8736	1485.4067	1358.7	474
889.0168	1487.2192	1368.3	484.5
889.16	1489.031	1359.25	473.4
889.3032	1490.842	1362.4	479.7
889.4464	1492.6522	1361.65	478.1
889.5896	1494.4618	1359.45	473.5
889.7327	1496.2705	1354.7	473.15
889.8759	1498.0785	1355.8	470.5
890.019	1499.8858	1347.6	464.2
890.1622	1501.6924	1347.25	465.5
890.3053	1503.4981	1343.5	462.05
890.4484	1505.3032	1337.45	452.8
890.5914	1507.1075	1331.5	446.55
890.7345	1508.911	1326.4	442.7
890.8776	1510.7138	1327.5	440.55
891.0206	1512.5159	1316.8	432.85
891.1637	1514.3172	1311.5	428.55
891.3067	1516.1178	1306.55	421.75
891.4497	1517.9176	1308.05	421.65
891.5927	1519.7166	1297.45	414.1
891.7357	1521.515	1303.35	412.25
891.8786	1523.3126	1287.9	402.15
892.0216	1525.1094	1299.85	412.05
892.1645	1526.9055	1280.25	397.75
892.3074	1528.7008	1280.75	396.3
892.4503	1530.4954	1282	392.85
892.5932	1532.2893	1280.4	399.1
892.7361	1534.0824	1283.7	393.25
892.879	1535.8747	1267.75	383.65
893.0218	1537.6663	1275.7	391.15
893.1647	1539.4572	1271.1	384.5
893.3075	1541.2473	1272.45	387.7
893.4503	1543.0367	1269.25	386.25
893.5931	1544.8253	1273.1	383.4
893.7359	1546.6132	1276.45	390.85
893.8787	1548.4003	1285.1	390.7
894.0214	1550.1867	1284.9	393.55
894.1642	1551.9723	1290.05	399.95
894.3069	1553.7572	1289.8	404.55
894.4496	1555.5414	1300.6	416.25
894.5923	1557.3247	1320.65	435.55
894.735	1559.1074	1342.95	456.8
894.8777	1560.8893	1359.15	475.1
895.0204	1562.6705	1378.85	492.6
895.163	1564.4509	1403.65	519.85
895.3056	1566.2305	1415.9	531.7
895.4482	1568.0094	1406.95	523.25
895.5908	1569.7876	1412.7	527.2
895.7334	1571.565	1415.7	531.55
895.876	1573.3417	1413.05	529.65
896.0186	1575.1176	1412.5	527.25
896.1611	1576.8928	1425.1	540.6
896.3036	1578.6672	1433.9	550.4
896.4461	1580.4409	1446.35	563.1
896.5886	1582.2138	1469.9	583.9
896.7311	1583.986	1495.8	611.4
896.8736	1585.7575	1526.75	644.9
897.0161	1587.5282	1545.1	661.45
897.1585	1589.2981	1568.9	685.95
897.3009	1591.0673	1573.95	688.9
897.4433	1592.8358	1574.5	691.9
897.5857	1594.6035	1583.05	694.7
897.7281	1596.3704	1563.15	677.65
897.8705	1598.1366	1556.9	671.35
898.0128	1599.9021	1527.35	642.7
898.1551	1601.6668	1517.9	629.85
898.2975	1603.4308	1503.65	618.25
898.4398	1605.194	1500.6	613.1
898.5821	1606.9564	1511.55	626.25
898.7243	1608.7182	1541.6	650.25
898.8666	1610.4791	1589.7	703.65
899.0088	1612.2394	1654.85	768.2
899.1511	1613.9988	1729	844.1
899.2933	1615.7576	1789.2	905
899.4355	1617.5156	1818	929.9
899.5776	1619.2728	1797.85	913.35
899.7198	1621.0293	1744.1	858.2
899.862	1622.785	1680.75	792.9
900.0041	1624.54	1598.9	710
900.1462	1626.2942	1518.8	631.55
900.2883	1628.0477	1455.5	569.25
900.4304	1629.8005	1398.3	508.3
900.5725	1631.5525	1353.7	468.1
900.7145	1633.3037	1321.6	433.65
900.8566	1635.0542	1294.95	408.4
900.9986	1636.804	1273.9	389.45
901.1406	1638.553	1321	374.95
901.2826	1640.3013	1245.15	360.3
901.4245	1642.0488	1233.75	347.95
901.5665	1643.7955	1225.2	341.7
901.7085	1645.5416	1212.2	328.3
901.8504	1647.2868	1206.8	321.35
901.9923	1649.0313	1196.65	312.75
902.1342	1650.7751	1192.75	304.8
902.2761	1652.5181	1195.4	310.85
902.4179	1654.2604	1194.2	307.95
902.5598	1656.0019	1192	304.7
902.7016	1657.7427	1199	315.05
902.8434	1659.4828	1213.85	329.8
902.9852	1661.222	1228.05	340.25
903.127	1662.9606	1250.15	368.2
903.2687	1664.6984	1272.15	387.5
903.4105	1666.4354	1280.7	394.65
903.5522	1668.1717	1266	381.7
903.6939	1669.9072	1249.9	363.4
903.8356	1671.642	1227.1	337.9
903.9773	1673.3761	1195.9	313
904.119	1675.1094	1171.75	286.75
904.2606	1676.8419	1163.35	278.15
904.4022	1678.5737	1157.8	271.3
904.5439	1680.3048	1148.3	263.25
904.6855	1682.0351	1138.85	254.35
904.827	1683.7646	1136.65	247.65
904.9686	1685.4934	1131.2	245.95
905.1101	1687.2215	1129.3	246.15
905.2517	1688.9488	1123.2	238.65
905.3932	1690.6754	1122.85	238.5
905.5347	1692.4012	1124.35	240.1
905.6761	1694.1263	1121.75	236.15
905.8176	1695.8506	1120.35	234.3
905.9591	1697.5742	1117.15	231.75
906.1005	1699.297	1112.55	227.35
906.2419	1701.0191	1108.4	223.6
906.3833	1702.7404	1110.4	225.15
906.5246	1704.461	1107.85	219.85
906.666	1706.1808	1110.85	223.9
906.8073	1707.8999	1108	220.25
906.9487	1709.6182	1103.9	216.9
907.09	1711.3358	1102.15	216.1
907.2313	1713.0527	1105.7	221.85
907.3725	1714.7688	1107.9	215.4
907.5138	1716.4841	1098.05	211.05
907.655	1718.1987	1105.5	216.3
907.7962	1719.9126	1097.75	212.65
907.9374	1721.6257	1102.55	213.5
908.0786	1723.338	1095.9	209.3
908.2198	1725.0496	1098.7	209.55
908.3609	1726.7605	1093.45	205.75
908.502	1728.4706	1099	212.1
908.6431	1730.18	1092.6	205.1
908.7842	1731.8886	1088.85	202
908.9253	1733.5964	1110.65	205.35
909.0664	1735.3036	1094	205.6
909.2074	1737.0099	1092.95	207.85
909.3484	1738.7156	1092.45	207.4
909.4894	1740.4204	1090.45	202.7
909.6304	1742.1246	1091.85	204
909.7714	1743.8279	1084.7	198.8
909.9123	1745.5306	1089.8	202
910.0532	1747.2325	1086.35	201.8
910.1941	1748.9336	1085.4	199.85
910.335	1750.634	1086.65	199.05
910.4759	1752.3336	1088.4	203.4
910.6168	1754.0325	1084.85	201.2
910.7576	1755.7307	1083.6	197.4
910.8984	1757.4281	1082.3	197.5
911.0392	1759.1247	1092.75	198.9
911.18	1760.8206	1083.4	192.7
911.3208	1762.5158	1087.35	198.5
911.4615	1764.2102	1085.7	200.35
911.6022	1765.9039	1078.95	193.7
911.7429	1767.5968	1083.15	196.7
911.8836	1769.289	1082	195.35
912.0243	1770.9804	1081.5	194.3
912.1649	1772.6711	1082.4	194.55
912.3056	1774.361	1081.05	194.55
912.4462	1776.0502	1082.3	196.2
912.5868	1777.7386	1082.6	192.7
912.7274	1779.4263	1077.3	190.35
912.8679	1781.1132	1077.45	190.45
913.0084	1782.7994	1080.3	192
913.149	1784.4849	1080.9	195.95
913.2895	1786.1696	1096.5	191
913.4299	1787.8535	1077.95	190.75
913.5704	1789.5367	1079.25	191.1
913.7108	1791.2192	1074.5	188.05
913.8513	1792.9009	1091.6	189.65
913.9917	1794.5818	1076.1	190
914.132	1796.2621	1066.9	181.7
914.2724	1797.9415	1072.05	185.65
914.4128	1799.6202	1075.75	189.85
914.5531	1801.2982	1071.15	184.2
914.6934	1802.9755	1075.7	188.5
914.8337	1804.6519	1068.45	183
914.9739	1806.3277	1070.15	183.9
915.1142	1808.0027	1070.05	183.8
915.2544	1809.6769	1064.4	178.25
915.3946	1811.3504	1070.05	181.05
915.5348	1813.0231	1067.2	179.65
915.675	1814.6951	1069.5	185.2
915.8151	1816.3664	1067.55	177.25
915.9553	1818.0369	1064.2	178.2
916.0954	1819.7067	1062.55	177.25
916.2355	1821.3757	1065.75	177.65
916.3755	1823.044	1061.1	175.3
916.5156	1824.7115	1061.4	173.85
916.6556	1826.3783	1058.6	172.9
916.7956	1828.0443	1062.5	178.35
916.9356	1829.7096	1064.4	177
917.0756	1831.3741	1064.5	173.35
917.2155	1833.0379	1062.8	175.6
917.3555	1834.701	1061.6	173.25
917.4954	1836.3633	1066.2	180
917.6353	1838.0248	1064.3	175.65
917.7751	1839.6856	1055.75	170.35
917.915	1841.3457	1061	177.75
918.0548	1843.005	1060.05	173.1
918.1946	1844.6636	1057.65	171.95
918.3344	1846.3214	1059.85	174.55
918.4742	1847.9785	1058.4	171.85
918.6139	1849.6349	1057.5	168.7
918.7537	1851.2904	1066.6	172.5
918.8934	1852.9453	1053.1	167.5
919.0331	1854.5994	1059.3	172.4
919.1727	1856.2528	1060.7	168.25
919.3124	1857.9054	1053.45	166.65
919.452	1859.5572	1054.35	168.85
919.5916	1861.2083	1055.35	167.9
919.7312	1862.8587	1051.5	164.1
919.8708	1864.5084	1058.7	171.6
920.0103	1866.1572	1051	165.95
920.1498	1867.8054	1053.05	166.5
920.2893	1869.4528	1049.95	162.55
920.4288	1871.0994	1052.85	166.3
920.5683	1872.7453	1049.85	164.05
920.7077	1874.3905	1062.95	169.4
920.8471	1876.0349	1048.85	164.5
920.9865	1877.6786	1052.35	165.75
921.1259	1879.3215	1053.2	167.2
921.2653	1880.9637	1052.85	165.9
921.4046	1882.6051	1049.65	162.85
921.5439	1884.2458	1048.95	160.15
921.6832	1885.8858	1044.5	158.2
921.8225	1887.525	1046.55	159.65
921.9617	1889.1634	1046	160.9
922.101	1890.8011	1048.45	161.4
922.2402	1892.4381	1048.25	163.9
922.3794	1894.0743	1046.25	161.95
922.5185	1895.7098	1044.9	158.85
922.6577	1897.3446	1047	159.95
922.7968	1898.9786	1048	155.45
922.9359	1900.6118	1048.75	164.85
923.075	1902.2443	1043.75	154.05
923.214	1903.8761	1042	155.9
923.3531	1905.5071	1047.05	160.35
923.4921	1907.1374	1043.7	156.9
923.6311	1908.7669	1039.3	153.45
923.77	1910.3957	1042.95	155.6
923.909	1912.0237	1042.75	155.55
924.0479	1913.651	1042.1	154.2
924.1868	1915.2776	1041.3	156.25
924.3257	1916.9034	1037	151.75
924.4646	1918.5285	1031.95	145.75
924.6034	1920.1528	1040	152.7
924.7422	1921.7764	1035.15	149.6
924.881	1923.3992	1038.8	152
925.0198	1925.0213	1039.5	152.95
925.1586	1926.6427	1033.7	147.7
925.2973	1928.2633	1147.9	150.15
925.436	1929.8832	1039.15	152
925.5747	1931.5023	1038.05	151.4
925.7134	1933.1207	1035.45	146.8
925.852	1934.7383	1036.85	150.6
925.9906	1936.3552	1036.85	150.7
926.1292	1937.9714	1035.85	150.05
926.2678	1939.5868	1036.9	147.3
926.4064	1941.2015	1037.45	151.2
926.5449	1942.8154	1032.5	146.35
926.6834	1944.4286	1032.25	146.8
926.8219	1946.041	1052.6	142.75
926.9604	1947.6528	1037.15	143.95
927.0988	1949.2637	1031.65	144.2
927.2372	1950.8739	1026.05	138.35
927.3756	1952.4834	1030.35	144.45
927.514	1954.0921	1027.9	141.9
927.6523	1955.7001	1032.2	140.5
927.7907	1957.3074	1032.2	149.6
927.929	1958.9139	1030.1	142.7
928.0673	1960.5197	1028.85	139.2
928.2055	1962.1247	1028.1	141.3
928.3438	1963.729	1026.75	138.2
928.482	1965.3325	1047.95	136.6
928.6202	1966.9353	1026.3	139.85
928.7584	1968.5374	1027.5	139.6
928.8965	1970.1387	1028.65	140.6
929.0346	1971.7393	1023.15	136.55
929.1727	1973.3392	1023.05	135.7
929.3108	1974.9383	1027	141.4
929.4489	1976.5366	1025.2	135.85
929.5869	1978.1342	1029	141.6
929.7249	1979.7311	1023.35	137.55
929.8629	1981.3273	1024.45	137.6
930.0009	1982.9227	1024.4	136.65
930.1388	1984.5173	1019.4	133.05
930.2767	1986.1112	1022.6	135
930.4146	1987.7044	1021.2	135.9
930.5525	1989.2968	1024.1	136.95
930.6904	1990.8885	1025.45	134.7
930.8282	1992.4795	1023.55	136.25
930.966	1994.0697	1019.95	135
931.1038	1995.6592	1018.45	133.55
931.2415	1997.2479	1019.15	130.75
931.3793	1998.8359	1018.9	132
931.517	2000.4232	1016.95	130
931.6547	2002.0097	1017.9	132.15
931.7923	2003.5955	1021.1	133.95
931.93	2005.1805	1021	132.05
932.0676	2006.7648	1014.15	125.95
932.2052	2008.3484	1020	129.85
932.3427	2009.9312	1022.9	133.45
932.4803	2011.5133	1018	132.8
932.6178	2013.0946	1015.8	129.2
932.7553	2014.6752	1017.2	130.35
932.8928	2016.2551	1018.95	130.85
933.0302	2017.8342	1015.75	128.4
933.1676	2019.4126	1016.15	130.35
933.305	2020.9902	1013.35	125.55
933.4424	2022.5672	1016.25	126.05
933.5798	2024.1433	1021.7	130.2
933.7171	2025.7188	1018.5	130.75
933.8544	2027.2935	1016.9	128.25
933.9917	2028.8674	1015.05	128.6
934.129	2030.4406	1016.75	131.7
934.2662	2032.0131	1015.8	130.45
934.4034	2033.5849	1019.35	128.15
934.5406	2035.1559	1012.95	127.05
934.6778	2036.7261	1015.45	128.85
934.8149	2038.2957	1008.45	120.7
934.952	2039.8645	1010.55	124.25
935.0891	2041.4325	1020.1	130.55
935.2262	2042.9998	1017.55	131.25
935.3632	2044.5664	1018.45	130.9
935.5002	2046.1323	1009.95	123.95
935.6372	2047.6974	1016.4	129.45
935.7742	2049.2617	1013.7	126.85
935.9111	2050.8254	1044.1	124.1
936.048	2052.3883	1014.3	127.15
936.1849	2053.9504	1013.05	126.9
936.3218	2055.5118	1015.8	128.15
936.4586	2057.0725	1015.8	124.5
936.5955	2058.6325	1013.8	126.85
936.7323	2060.1917	1006.95	119.75
936.869	2061.7502	1015.35	126.2
937.0058	2063.3079	1011.65	124.85
937.1425	2064.8649	1013.4	121.1
937.2792	2066.4212	1015.15	126.8
937.4159	2067.9767	1007.1	122.35
937.5525	2069.5315	1012.15	125.75
937.6891	2071.0856	1014.05	128.8
937.8257	2072.6389	1011.15	122.65
937.9623	2074.1915	1004.9	119.05
938.0989	2075.7433	1012.65	125.95
938.2354	2077.2945	1009.3	123.35
938.3719	2078.8448	1012.15	125.85
938.5084	2080.3945	1010.5	124.15
938.6448	2081.9434	1003.85	117.6
938.7812	2083.4916	1011.25	124.15
938.9176	2085.039	1008.55	120.25
939.054	2086.5857	1012.35	127.7
939.1903	2088.1317	1009.75	124.2
939.3267	2089.677	1006.65	120.75
939.463	2091.2215	1009.15	124.2
939.5992	2092.7652	1009.4	121.7
939.7355	2094.3083	1004.55	118.5
939.8717	2095.8506	1007.8	121.65
940.0079	2097.3921	1007.55	121.3
940.1441	2098.933	1014.45	128.05
940.2802	2100.4731	1009	121.95
940.4163	2102.0124	1015.4	119.65
940.5524	2103.5511	1007.2	120.55
940.6885	2105.089	1008.3	121.95
940.8245	2106.6261	1007.1	121.45
940.9606	2108.1626	1010.6	122.5
941.0965	2109.6983	1038.6	123.2
941.2325	2111.2332	1011.7	123.95
941.3684	2112.7675	1009	121.55
941.5044	2114.301	1008.55	120.7
941.6403	2115.8337	1007	119.8
941.7761	2117.3657	1009.2	121.7
941.912	2118.897	1009.45	121.35
942.0478	2120.4276	1011.35	119.75
942.1835	2121.9575	1009.45	121.95
942.3193	2123.4866	1022.3	121.4
942.455	2125.0149	1008.85	119.1
942.5907	2126.5426	1005.5	119.15
942.7264	2128.0695	1006.5	116.7
942.8621	2129.5956	999.75	112.85
942.9977	2131.1211	1008.1	117.55
943.1333	2132.6458	999.45	114.2
943.2689	2134.1698	1007.25	121.35
943.4044	2135.693	1007.2	118.5
943.54	2137.2155	1003.25	117
943.6755	2138.7373	1004.4	115.3
943.8109	2140.2584	1004.85	118.25
943.9464	2141.7787	1006.45	112.75
944.0818	2143.2983	1002.35	116.25
944.2172	2144.8171	999.9	114.5
944.3526	2146.3353	1006.05	117
944.4879	2147.8527	1001.6	115.4
944.6232	2149.3693	1000.45	115.15
944.7585	2150.8853	998.65	113.25
944.8938	2152.4005	1002.15	114.35
945.029	2153.9149	1005.2	118.15
945.1642	2155.4287	1002.15	117.6
945.2994	2156.9417	999.75	110.8
945.4346	2158.454	1005.55	115.05
945.5697	2159.9655	998.25	112.05
945.7048	2161.4764	999.25	111.35
945.8399	2162.9865	1001.8	114.3
945.9749	2164.4958	1003	116.1
946.1099	2166.0045	1006.1	116.65
946.2449	2167.5124	1002.15	113.9
946.3799	2169.0195	1003.25	115.9
946.5148	2170.526	995.85	108.35
946.6498	2172.0317	999.25	113.5
946.7846	2173.5367	1001.75	113.85
946.9195	2175.0409	997.65	113
947.0543	2176.5445	995	108.5
947.1891	2178.0473	996.55	110.65
947.3239	2179.5494	1001.7	112.5
947.4587	2181.0507	998.5	110.1
947.5934	2182.5513	995.75	108.25
947.7281	2184.0512	996.2	110.15
947.8628	2185.5504	996.1	108.7
947.9974	2187.0488	995.75	110.7
948.132	2188.5465	996.85	109
948.2666	2190.0435	995.2	107.4
948.4012	2191.5397	995.05	109.25
948.5357	2193.0353	995.85	108.8
948.6702	2194.5301	997.2	111.35
948.8047	2196.0241	997.7	110.4
948.9392	2197.5175	993.2	107.05
949.0736	2199.0101	997.35	104.7
949.208	2200.502	995.05	108.8
949.3424	2201.9931	992.95	104.7
949.4767	2203.4835	997.5	107.65
949.611	2204.9733	997.65	106.05
949.7453	2206.4622	992.3	106.55
949.8796	2207.9505	997.25	108.7
950.0138	2209.438	989.65	104.55
950.148	2210.9248	995.3	105.8
950.2822	2212.4109	989.85	102.9
950.4164	2213.8962	993.1	104.7
950.5505	2215.3809	993.9	105.05
950.6846	2216.8648	991.75	104.2
950.8186	2218.3479	996.8	106.3
950.9527	2219.8304	996.85	109.3
951.0867	2221.3121	994.35	106.5
951.2207	2222.7931	991.65	106.65
951.3546	2224.2733	988.55	102.15
951.4886	2225.7529	989.75	102.5
951.6225	2227.2317	990.4	100.45
951.7563	2228.7098	987.75	101.75
951.8902	2230.1872	989.15	102.35
952.024	2231.6638	986.35	99.75
952.1578	2233.1397	993.65	104.4
952.2916	2234.6149	990.45	104.1
952.4253	2236.0894	990.35	102.6
952.559	2237.5632	996.2	99.6
952.6927	2239.0362	991.95	104.15
952.8263	2240.5085	988.35	101.7
952.9599	2241.9801	983.85	96.55
953.0935	2243.4509	983.65	98.35
953.2271	2244.921	985.6	98.9
953.3606	2246.3904	989.75	99.3
953.4941	2247.8591	985.95	99.25
953.6276	2249.3271	983.95	97.8
953.7611	2250.7943	983.95	97.9
953.8945	2252.2608	985.45	100.8
954.0279	2253.7266	981.05	95.8
954.1612	2255.1917	981	93.5
954.2946	2256.656	985	98.05
954.4279	2258.1197	985.7	99.3
954.5612	2259.5826	986.25	96.35
954.6944	2261.0447	985.15	96.05
954.8276	2262.5062	986.05	96.3
954.9608	2263.9669	981.55	92.85
955.094	2265.4269	982.2	97.45
955.2271	2266.8862	982.45	95.3
955.3602	2268.3448	982.45	94.75
955.4933	2269.8026	981.25	95.1
955.6264	2271.2598	980.75	95
955.7594	2272.7162	982.5	96.05
955.8924	2274.1719	980.75	93.8
956.0253	2275.6268	979.1	92.85
956.1583	2277.0811	981.8	94.95
956.2912	2278.5346	978.9	92
956.4241	2279.9874	979.1	93
956.5569	2281.4395	980.65	93.8
956.6897	2282.8908	983.15	91.25
956.8225	2284.3414	979.9	92.25
956.9553	2285.7914	976.4	89.05
957.088	2287.2406	981.85	94.75
957.2207	2288.689	975.35	87.8
957.3534	2290.1368	976.4	89.6
957.486	2291.5838	977.1	88.85
957.6186	2293.0302	978	90.5
957.7512	2294.4758	976.5	90.25
957.8838	2295.9206	980.65	92.25
958.0163	2297.3648	977.1	90.85
958.1488	2298.8082	975.9	88.1
958.2813	2300.251	978.25	91.1
958.4137	2301.693	981.4	91.8
958.5461	2303.1343	978.15	89.95
958.6785	2304.5748	976.45	92.35
958.8108	2306.0147	979.7	93.35
958.9432	2307.4538	979.95	91.9
959.0754	2308.8922	975.7	91.4
959.2077	2310.3299	976.9	89.55
959.3399	2311.7669	972.65	87.05
959.4721	2313.2031	974.05	85.7
959.6043	2314.6387	979.85	90.45
959.7365	2316.0735	976.7	91.7
959.8686	2317.5076	976.35	88.7
960.0006	2318.941	975.85	88.25
960.1327	2320.3737	973.55	85.85
960.2647	2321.8056	979.15	88.95
960.3967	2323.2369	978.95	92.05
960.5287	2324.6674	979.35	88.75
960.6606	2326.0972	982.3	93.35
960.7925	2327.5263	978.6	92.85
960.9244	2328.9547	984.4	96.75
961.0562	2330.3823	979.35	95
961.1881	2331.8092	980.55	88.75
961.3198	2333.2355	971	84.45
961.4516	2334.661	971	84.95
961.5833	2336.0858	972.25	83.25
961.715	2337.5098	970.9	85
961.8467	2338.9332	973.6	87.45
961.9783	2340.3558	973.3	82.9
962.1099	2341.7778	967.5	80.6
962.2415	2343.199	973.95	85.6
962.373	2344.6195	973.15	85.55
962.5045	2346.0393	971.15	85.45
962.636	2347.4583	973.45	85
962.7675	2348.8767	972.1	84.45
962.8989	2350.2943	969.7	82.9
963.0303	2351.7113	971.6	85.25
963.1617	2353.1275	966.2	81.1
963.293	2354.543	976	80.2
963.4243	2355.9578	971.15	83.5
963.5556	2357.3718	970.95	83.2
963.6868	2358.7852	975.15	86.7
963.818	2360.1978	969.2	80.55
963.9492	2361.6098	968.6	81.7
964.0803	2363.021	972.15	81.55
964.2114	2364.4315	970.5	83.75
964.3425	2365.8413	970.3	80.7
964.4736	2367.2504	968.85	84.2
964.6046	2368.6587	967.65	80.45
964.7356	2370.0664	967.15	82.35
964.8666	2371.4733	969	80.45
964.9975	2372.8795	966.95	79.35
965.1284	2374.285	968.35	81.1
965.2593	2375.6899	967.55	82.15
965.3901	2377.0939	963.4	77.95
965.5209	2378.4973	962.25	75.55
965.6517	2379.9	967.25	79.35
965.7825	2381.3019	963.5	76.2
965.9132	2382.7032	963.35	77.4
966.0439	2384.1037	965.1	80.6
966.1745	2385.5035	966.9	79.2
966.3051	2386.9027	965.95	79.75
966.4357	2388.3011	970	78.55
966.5663	2389.6987	962.65	75.95
966.6968	2391.0957	965.1	80
966.8273	2392.492	959.15	72.75
966.9578	2393.8876	959.45	72.25
967.0882	2395.2824	961.65	76.35
967.2186	2396.6765	961.15	74.2
967.349	2398.07	963.85	78.5
967.4793	2399.4627	960.75	73.65
967.6097	2400.8547	961.15	73.95
967.7399	2402.246	966.25	74.4
967.8702	2403.6366	961.15	72.8
968.0004	2405.0265	960.75	73.1
968.1306	2406.4156	966.05	75.8
968.2607	2407.8041	960.6	70.35
968.3909	2409.1918	959.85	70.3
968.521	2410.5789	960.75	73.15
968.651	2411.9652	958.9	69.3
968.781	2413.3508	960.75	74.55
968.911	2414.7358	959.4	72.2
969.041	2416.12	957.85	72.55
969.1709	2417.5035	956.15	68.65
969.3008	2418.8863	960.95	74.4
969.4307	2420.2684	959.5	72
969.5606	2421.6497	958.55	72.75
969.6904	2423.0304	956.3	69.55
969.8201	2424.4104	960.5	71.55
969.9499	2425.7896	962.35	70.1
970.0796	2427.1682	956.8	69.65
970.2093	2428.546	959.8	72.05
970.3389	2429.9232	958.95	69.15
970.4685	2431.2996	956.25	69.5
970.5981	2432.6753	957	70.2
970.7277	2434.0503	955.15	68.85
970.8572	2435.4246	954.25	70
970.9867	2436.7982	957.4	67.4
971.1161	2438.1711	953.05	68.4
971.2456	2439.5433	954.3	67.9
971.375	2440.9148	958	67.9
971.5043	2442.2856	952.1	64.95
971.6336	2443.6557	954.05	66.15
971.7629	2445.025	955.05	68.65
971.8922	2446.3937	956.15	68.45
972.0214	2447.7617	953.85	67.55
972.1506	2449.1289	951.8	65.05
972.2798	2450.4955	956.95	64.9
972.4089	2451.8613	953.2	67.2
972.538	2453.2265	952.7	66.45
972.6671	2454.5909	956.9	69.75
972.7961	2455.9546	949.25	62
972.9251	2457.3177	956.25	69.7
973.0541	2458.68	954.9	66.55
973.1831	2460.0416	953.65	68.1
973.312	2461.4025	953.55	64.6
973.4408	2462.7627	963.85	64.65
973.5697	2464.1222	951.3	64.2
973.6985	2465.4811	950.9	64.2
973.8273	2466.8392	952.6	64.8
973.956	2468.1966	954.5	64.2
974.0847	2469.5533	953.75	65.8
974.2134	2470.9093	951.85	62.55
974.3421	2472.2645	949.85	62.1
974.4707	2473.6191	951.4	63.55
974.5993	2474.973	951.65	63.75
974.7278	2476.3262	953.6	65.4
974.8563	2477.6787	949.8	63.05
974.9848	2479.0305	948.45	62.75
975.1132	2480.3816	953.1	64.5
975.2417	2481.7319	952.8	63.9
975.37	2483.0816	952	65.4
975.4984	2484.4306	949.8	62.8
975.6267	2485.7789	948.5	62.3
975.755	2487.1264	950.4	61.75
975.8833	2488.4733	948.75	61.05
976.0115	2489.8195	962.95	58.55
976.1397	2491.165	952.3	61.45
976.2678	2492.5097	950.85	61.95
976.3959	2493.8538	947.15	59.9
976.524	2495.1972	948.35	60.45
976.6521	2496.5398	948.45	61.7
976.7801	2497.8818	949.5	61.4
976.9081	2499.2231	947.4	60.85
977.036	2500.5637	948.1	59.15
977.164	2501.9035	950.55	64.05
977.2918	2503.2427	952.65	63.35
977.4197	2504.5812	946.85	61.1
977.5475	2505.919	947	60.25
977.6753	2507.256	948.4	62.6
977.8031	2508.5924	946.1	60.45
977.9308	2509.9281	954.8	62.5
978.0585	2511.2631	946.65	58.85
978.1861	2512.5974	945.4	56.45
978.3137	2513.9309	946.9	60.05
978.4413	2515.2638	978.9	60.35
978.5689	2516.596	943.6	56.55
978.6964	2517.9275	946.6	58.3
978.8239	2519.2583	948.45	63.35
978.9513	2520.5884	946.65	56.7
979.0788	2521.9178	947	60.25
979.2062	2523.2465	946	61.35
979.3335	2524.5745	946.5	60
979.4608	2525.9018	943.45	55.15
979.5881	2527.2284	943.7	57.65
979.7154	2528.5543	940.45	57.35
979.8426	2529.8796	942.25	54.1
979.9698	2531.2041	941.7	54.45
980.0969	2532.5279	944.15	58.9
980.224	2533.851	943.6	53.7
980.3511	2535.1735	941.1	52.45
980.4781	2536.4952	940.05	54
980.6052	2537.8163	944.2	57.1
980.7321	2539.1366	940.95	56.25
980.8591	2540.4562	943.2	55.65
980.986	2541.7752	943.55	56.75
981.1129	2543.0935	945.1	58.15
981.2397	2544.411	942.6	54.55
981.3665	2545.7279	940.95	54.4
981.4933	2547.0441	939.4	51.55
981.62	2548.3596	944.9	56.3
981.7467	2549.6744	942.1	55.75
981.8734	2550.9885	944.15	53.95
982.0001	2552.3019	942.4	56.35
982.1267	2553.6146	941.45	53.6
982.2532	2554.9266	939.4	52.65
982.3798	2556.2379	942.05	53
982.5063	2557.5485	941.05	56
982.6327	2558.8585	950.65	56.6
982.7592	2560.1677	945.35	54.55
982.8856	2561.4762	940.6	53.3
983.0119	2562.7841	944.5	52.9
983.1383	2564.0913	939.35	54.05
983.2646	2565.3977	940.45	55.15
983.3908	2566.7035	941.05	53.55
983.517	2568.0086	940.55	53.1
983.6432	2569.313	941.5	55.2
983.7694	2570.6167	942.95	52.75
983.8955	2571.9197	937.9	52.45
984.0216	2573.222	943.4	53
984.1476	2574.5236	938.65	49.1
984.2737	2575.8246	942.4	53.55
984.3996	2577.1248	941.15	50.15
984.5256	2578.4244	936.8	50.35
984.6515	2579.7232	939.55	53.25
984.7774	2581.0214	964.8	51.1
984.9032	2582.3189	938.6	53.65
985.029	2583.6157	944	52.15
985.1548	2584.9118	938.65	50.75
985.2806	2586.2072	939.85	53.75
985.4063	2587.5019	937.85	50.3
985.5319	2588.7959	937.1	51.9
985.6576	2590.0893	939.55	49.35
985.7832	2591.3819	939.65	54.1
985.9087	2592.6739	938.05	50.8
986.0343	2593.9652	939.3	51.75
986.1597	2595.2557	941.25	55.3
986.2852	2596.5456	940.1	51.65
986.4106	2597.8348	937.75	54.1
986.536	2599.1234	940.25	54.05
986.6614	2600.4112	938.7	51.95
986.7867	2601.6983	940.55	50.7
986.912	2602.9848	940.5	51.8
987.0372	2604.2705	943.95	48.25
987.1624	2605.5556	937.9	52.3
987.2876	2606.84	935.35	48.15
987.4128	2608.1237	941.1	54.3
987.5379	2609.4067	936.3	49.4
987.6629	2610.689	945.2	49.65
987.788	2611.9707	940.2	49.55
987.913	2613.2516	938.9	46.45
988.0379	2614.5319	934	48.45
988.1629	2615.8115	934.05	45.3
988.2878	2617.0903	936	48.25
988.4126	2618.3685	934.75	47.9
988.5375	2619.6461	932.15	45.35
988.6622	2620.9229	937	51.3
988.787	2622.199	935.7	46.95
988.9117	2623.4745	934.3	47.6
989.0364	2624.7493	932.7	47.2
989.161	2626.0234	932.6	45.2
989.2857	2627.2968	933.35	45.7
989.4102	2628.5695	935.75	47.5
989.5348	2629.8415	935.55	47.6
989.6593	2631.1128	933.95	46.5
989.7837	2632.3835	936.05	48
989.9082	2633.6535	934.8	47.4
990.0326	2634.9228	934.65	48.6
990.1569	2636.1914	932.55	45.45
990.2812	2637.4593	937.05	45
990.4055	2638.7265	933.3	45.1
990.5298	2639.9931	933.8	46.75
990.654	2641.259	935.6	47.1
990.7782	2642.5242	931.9	43.35
990.9023	2643.7887	932.05	45.15
991.0264	2645.0525	933.25	47.1
991.1505	2646.3156	933	44.15
991.2745	2647.5781	931.85	46.6
991.3985	2648.8398	932.2	43.55
991.5225	2650.1009	970.35	46.35
991.6464	2651.3613	933.4	45.25
991.7703	2652.6211	932.3	46.15
991.8942	2653.8801	929.55	46.05
992.018	2655.1385	931.7	40.5
992.1418	2656.3961	930.7	43.2
992.2655	2657.6531	929.3	42.65
992.3892	2658.9094	930.35	43
992.5129	2660.1651	928.65	43.4
992.6366	2661.42	929.85	43.8
992.7602	2662.6743	932.8	45.05
992.8837	2663.9279	930.5	42
993.0073	2665.1808	931.6	43.5
993.1307	2666.433	932.95	44.85
993.2542	2667.6846	930.55	43.55
993.3776	2668.9354	932.8	44.7
993.501	2670.1856	929.1	42.05
993.6244	2671.4351	929.1	42
993.7477	2672.6839	932.55	44.05
993.8709	2673.9321	931	45
993.9942	2675.1795	930.5	44.25
994.1174	2676.4263	933.5	45.5
994.2405	2677.6724	930.55	45.65
994.3637	2678.9179	934.1	47.65
994.4868	2680.1626	931.8	45.5
994.6098	2681.4067	931.55	45.25
994.7328	2682.6501	931.4	43.2
994.8558	2683.8928	931.6	44.75
994.9788	2685.1348	931	44.65
995.1017	2686.3761	927.25	41.25
995.2245	2687.6168	925.9	39.15
995.3474	2688.8568	931.7	45.25
995.4702	2690.0961	924.65	40.9
995.5929	2691.3348	929.9	44.15
995.7156	2692.5727	930.2	43.95
995.8383	2693.81	928.05	41.55
995.961	2695.0466	928.15	43.35
996.0836	2696.2826	928.6	38.55
996.2062	2697.5178	931.7	41.85
996.3287	2698.7524	924.75	36.95
996.4512	2699.9863	928.7	42.7
996.5737	2701.2195	926.85	42
996.6961	2702.452	928.3	40.35
996.8185	2703.6839	928.8	42.3
996.9408	2704.9151	924.55	39
997.0631	2706.1456	926.7	39.75
997.1854	2707.3755	930.8	44.55
997.3077	2708.6046	934.2	45.75
997.4299	2709.8331	929.85	42.45
997.552	2711.0609	926.95	41.9
997.6742	2712.2881	930.4	43.75
997.7963	2713.5145	930.3	39.9
997.9183	2714.7403	927.8	40.05
998.0403	2715.9654	930.85	44.15
998.1623	2717.1899	933.75	43.35
998.2842	2718.4136	931.7	43.35
998.4062	2719.6367	930.95	44.2
998.528	2720.8591	939.1	44.4
998.6498	2722.0809	932.35	45.4
998.7716	2723.3019	939.4	49.65
998.8934	2724.5223	935.3	44.7
999.0151	2725.7421	935.85	47.5
999.1368	2726.9611	935.35	45.5
999.2584	2728.1795	935.9	45.3
999.38	2729.3972	932.75	45.45
999.5016	2730.6142	942.15	42.85
999.6231	2731.8306	931.25	43.1
999.7446	2733.0462	931.8	45.05
999.8661	2734.2612	931.65	39.4
999.9875	2735.4756	931.6	43.1
1000.1089	2736.6892	927.55	38.6
1000.2302	2737.9022	926.45	40
1000.3515	2739.1145	925.95	36.9
1000.4728	2740.3262	934.6	40.75
1000.594	2741.5372	924.5	38.9
1000.7152	2742.7475	927	38.15
1000.8363	2743.9571	928.65	41.4
1000.9575	2745.1661	930.05	38.1
1001.0785	2746.3744	925.9	38.85
1001.1996	2747.582	924.25	37.55
1001.3206	2748.7889	924.7	34.45
1001.4415	2749.9952	920.75	33.2
1001.5625	2751.2008	922.65	36.2
1001.6833	2752.4057	924.55	33.5
1001.8042	2753.61	924.7	37.3
1001.925	2754.8136	924.4	34.3
1002.0458	2756.0165	922.3	36.7
1002.1665	2757.2188	921.85	34.1
1002.2872	2758.4204	922.85	34.95
1002.4078	2759.6213	922.7	33
1002.5285	2760.8215	924.95	31.55
1002.649	2762.0211	923.7	34.45
1002.7696	2763.22	924.35	34.3
1002.8901	2764.4182	922.85	32.95
1003.0106	2765.6158	924.2	36.1
1003.131	2766.8127	919.65	33.5
1003.2514	2768.009	920.1	32.6
1003.3717	2769.2045	922.1	34
1003.492	2770.3994	923.9	35.35
1003.6123	2771.5936	920.8	33.05
1003.7325	2772.7872	920.35	34
1003.8527	2773.9801	921.4	33.6
1003.9729	2775.1723	934.4	31.85
1004.093	2776.3639	918.3	29.65
1004.2131	2777.5548	919.9	30.9
1004.3331	2778.745	921.2	32.85
1004.4531	2779.9346	919.15	33.55
1004.5731	2781.1235	922.2	34.45
1004.693	2782.3117	918.2	30.65
1004.8129	2783.4992	917.7	30.85
1004.9328	2784.6861	917.8	30.6
1005.0526	2785.8723	920.15	32.3
1005.1723	2787.0579	918.75	32.15
1005.2921	2788.2428	918.6	33.1
1005.4118	2789.427	920.05	33.15
1005.5314	2790.6106	917.5	31.15
1005.651	2791.7935	917.35	28.65
1005.7706	2792.9757	917.05	31.4
1005.8902	2794.1573	920.1	30.8
1006.0097	2795.3382	918.95	32
1006.1291	2796.5184	918.5	32.35
1006.2485	2797.698	920.2	31.65
1006.3679	2798.8769	918	31.5
1006.4873	2800.0551	918.15	30.7
1006.6066	2801.2327	921.45	33.65
1006.7258	2802.4096	919.8	33.5
1006.8451	2803.5859	920.65	33.3
1006.9642	2804.7615	921.45	32.25
1007.0834	2805.9364	917.25	30.6
1007.2025	2807.1106	918.05	30.75
1007.3216	2808.2842	922.1	33.4
1007.4406	2809.4572	922.35	34.45
1007.5596	2810.6294	925.85	38.6
1007.6785	2811.801	923.2	37.3
1007.7975	2812.972	923.9	39.05
1007.9163	2814.1423	926.8	39.5
1008.0352	2815.3119	925.65	37.9
1008.154	2816.4808	924.15	37.35
1008.2727	2817.6491	928.5	40.55
1008.3914	2818.8167	930.75	46.1
1008.5101	2819.9837	937.95	47.1
1008.6288	2821.15	938.1	49.55
1008.7474	2822.3157	938.55	51.75
1008.8659	2823.4807	944.45	56.55
1008.9844	2824.645	950.15	63.05
1009.1029	2825.8086	951.75	65.7
1009.2214	2826.9716	956.9	72.05
1009.3398	2828.134	963.9	77.1
1009.4581	2829.2957	969.15	81
1009.5764	2830.4567	969.65	84.7
1009.6947	2831.617	976.15	88
1009.813	2832.7767	976.4	90.55
1009.9312	2833.9358	978.25	91.25
1010.0493	2835.0941	978.85	91.4
1010.1675	2836.2519	971.65	83.6
1010.2855	2837.4089	973.75	84.95
1010.4036	2838.5653	972.2	85.85
1010.5216	2839.7211	964.45	80.25
1010.6396	2840.8761	965.85	75.65
1010.7575	2842.0306	962.9	78.45
1010.8754	2843.1843	960.9	73.7
1010.9932	2844.3374	964	78.05
1011.111	2845.4899	964.25	76.45
1011.2288	2846.6417	963.15	76.1
1011.3465	2847.7928	966.45	80.85
1011.4642	2848.9433	966.45	80.05
1011.5818	2850.0931	967.45	78.4
1011.6995	2851.2422	971.3	83.25
1011.817	2852.3907	971.6	84.35
1011.9345	2853.5385	970.15	80.35
1012.052	2854.6857	997.3	81.3
1012.1695	2855.8323	970.2	83
1012.2869	2856.9781	973.1	87.05
1012.4042	2858.1233	973.2	86.8
1012.5216	2859.2679	980.35	93.5
1012.6389	2860.4118	978.75	92.65
1012.7561	2861.555	986.9	94.2
1012.8733	2862.6976	983.7	96
1012.9905	2863.8395	984.55	97.85
1013.1076	2864.9808	985.3	99.75
1013.2247	2866.1214	988.5	102.2
1013.3417	2867.2614	990.8	103.65
1013.4587	2868.4007	990.3	102.75
1013.5757	2869.5393	992.5	104.25
1013.6926	2870.6773	994.55	105.3
1013.8095	2871.8146	993	103.55
1013.9263	2872.9513	999	108.8
1014.0431	2874.0874	992.75	105.8
1014.1599	2875.2227	998.7	112.05
1014.2766	2876.3574	997.35	109.8
1014.3933	2877.4915	997	112.55
1014.51	2878.6249	1002.75	116.05
1014.6266	2879.7577	1003.3	116.05
1014.7431	2880.8898	1014.45	116.55
1014.8596	2882.0212	1003.05	115.8
1014.9761	2883.152	1008.7	122.5
1015.0925	2884.2821	1009.95	121.8
1015.2089	2885.4116	1006.3	118.8
1015.3253	2886.5405	1010.4	123.7
1015.4416	2887.6686	1013.95	123.85
1015.5579	2888.7962	1009.25	124
1015.6741	2889.923	1012.9	128.1
1015.7903	2891.0493	1013.6	129.95
1015.9065	2892.1748	1011.2	126.25
1016.0226	2893.2997	1010.3	123.8
1016.1387	2894.424	1011.2	126.65
1016.2547	2895.5476	1013.1	125.35
1016.3707	2896.6706	1009.1	120.7
1016.4866	2897.7929	1012.4	123.3
1016.6025	2898.9145	1011.2	123.15
1016.7184	2900.0355	1009.25	121.85
1016.8342	2901.1559	1011.7	124.25
1016.95	2902.2756	1006.45	120.4
1017.0658	2903.3946	1002.55	114.95
1017.1815	2904.513	1013.2	124.15
1017.2971	2905.6308	1005.75	119
1017.4127	2906.7479	1009.5	122.65
1017.5283	2907.8643	1008.8	122.05
1017.6439	2908.9801	1005.8	119.8
1017.7594	2910.0953	1009.05	123
1017.8748	2911.2098	1010.45	120.4
1017.9902	2912.3236	1013.1	120
1018.1056	2913.4368	1012.45	120.65
1018.2209	2914.5494	1004.75	116.25
1018.3362	2915.6613	1010.85	117.5
1018.4515	2916.7725	1002.5	112
1018.5667	2917.8831	1002.65	112.65
1018.6819	2918.9931	1002.35	113.15
1018.797	2920.1024	999.95	114
1018.9121	2921.211	994.85	107.6
1019.0271	2922.319	997.25	110.55
1019.1421	2923.4264	992.25	106.3
1019.2571	2924.5331	993.3	108
1019.372	2925.6391	993.85	108.4
1019.4869	2926.7445	986.25	100.5
1019.6017	2927.8493	993.75	105.65
1019.7165	2928.9534	997.85	110.4
1019.8313	2930.0569	1001.8	110.4
1019.946	2931.1597	999.3	112.25
1020.0606	2932.2619	993.2	106.8
1020.1753	2933.3634	996.3	109.45
1020.2899	2934.4643	1003.8	111.65
1020.4044	2935.5645	1003.95	109.65
1020.5189	2936.6641	1001.75	110.1
1020.6334	2937.763	996.1	108.55
1020.7478	2938.8613	998.95	111.4
1020.8622	2939.959	1006.05	111.8
1020.9765	2941.056	994.9	107.3
1021.0908	2942.1523	995.9	108.85
1021.2051	2943.248	991	104.4
1021.3193	2944.3431	984.35	98.3
1021.4334	2945.4375	979.9	91.25
1021.5476	2946.5313	973.25	86.8
1021.6617	2947.6244	968.5	81.4
1021.7757	2948.7169	969.05	81.7
1021.8897	2949.8087	960.85	74.15
1022.0037	2950.8999	960.3	72.35
1022.1176	2951.9904	953	65.85
1022.2315	2953.0803	948.55	61.85
1022.3453	2954.1696	949.4	60.65
1022.4591	2955.2582	948.4	61.7
1022.5728	2956.3462	947.05	61.2
1022.6865	2957.4335	945.4	57.75
1022.8002	2958.5202	946.9	58
1022.9138	2959.6062	943.75	56.05
1023.0274	2960.6916	944.5	56.35
1023.141	2961.7764	944.5	56.3
1023.2545	2962.8605	946.55	58.4
1023.3679	2963.9439	944.65	58.6
1023.4813	2965.0267	945.1	56.55
1023.5947	2966.1089	966.35	56
1023.708	2967.1905	944.25	58.5
1023.8213	2968.2714	942.2	56.4
1023.9346	2969.3516	939.9	54.65
1024.0478	2970.4312	948.75	53.6
1024.1609	2971.5102	944.15	55.15
1024.274	2972.5885	939.2	53.6
1024.3871	2973.6662	947.6	52.6
1024.5002	2974.7432	942.4	55.95
1024.6132	2975.8196	941.45	55.75
1024.7261	2976.8954	940	52.85
1024.839	2977.9705	940.5	55.15
1024.9519	2979.045	940.7	54.05
1025.0647	2980.1188	940	53.3
1025.1775	2981.192	941.05	55.45
1025.2902	2982.2645	939.6	50.5
1025.4029	2983.3364	937.5	51.95
1025.5156	2984.4077	937.75	50.9
1025.6282	2985.4783	943.9	50.8
1025.7407	2986.5483	933.15	49.3
1025.8532	2987.6177	931.05	45.1
1025.9657	2988.6864	931.25	44.15
1026.0782	2989.7545	931.75	43.7
1026.1906	2990.8219	931.05	46.25
1026.3029	2991.8887	931.25	42.35
1026.4152	2992.9548	926.15	38.45
1026.5275	2994.0204	922.75	36.9
1026.6397	2995.0852	923.75	38.2
1026.7519	2996.1495	922.35	33.6
1026.864	2997.2131	921	35.1
1026.9761	2998.276	919.6	32.2
1027.0882	2999.3383	915.9	28.75
1027.2002	3000.4	918.65	31.65
1027.3122	3001.4611	913.85	26.15
1027.4241	3002.5215	916	29.4
1027.536	3003.5812	914	27.25
1027.6478	3004.6404	910.4	22.45
1027.7596	3005.6989	913.45	23.8
1027.8714	3006.7567	909.1	21.55
1027.9831	3007.8139	939.55	22.55
1028.0947	3008.8705	909.5	21.85
1028.2064	3009.9264	925.2	21.25
1028.3179	3010.9818	909.3	21.45
1028.4295	3012.0364	907	18.05
1028.541	3013.0905	908.45	21.35
1028.6524	3014.1439	908.4	21.45
1028.7638	3015.1966	907.4	22.55
1028.8752	3016.2487	907.05	19
1028.9865	3017.3002	910.1	19.85
1029.0978	3018.3511	905.75	19.65
1029.209	3019.4013	905.2	17.6
1029.3202	3020.4509	906.25	20.3
1029.4314	3021.4998	906.15	18
1029.5425	3022.5481	905.65	18.15
1029.6535	3023.5958	906.85	21.4
1029.7645	3024.6428	907.65	20.2
1029.8755	3025.6892	905.2	18.75
1029.9864	3026.735	905.75	18.65
1030.0973	3027.7802	905.5	18.55
1030.2082	3028.8247	905.05	19.65
1030.319	3029.8685	907.05	18.75
1030.4297	3030.9118	904.5	15.4
1030.5404	3031.9544	904.35	17.9
1030.6511	3032.9963	905.85	17.7
1030.7617	3034.0376	905.4	19.3
1030.8723	3035.0783	907.05	18.6
1030.9829	3036.1184	905.85	19.15
1031.0934	3037.1578	904	16.65
1031.2038	3038.1966	906.7	18.7
1031.3142	3039.2348	905.8	19.65
1031.4246	3040.2723	914	18.05
1031.5349	3041.3092	905.7	18.2
1031.6452	3042.3455	904.85	17.6
1031.7554	3043.3811	905.65	18.65
1031.8656	3044.4161	907.6	19.5
1031.9758	3045.4505	906.05	21.3
1032.0859	3046.4842	907.8	18.75
1032.1959	3047.5173	904.7	19.85
1032.3059	3048.5498	908.6	21.2
1032.4159	3049.5816	905.15	17.55
1032.5258	3050.6128	907.3	19.3
1032.6357	3051.6434	908.45	18.65
1032.7455	3052.6734	906.2	20.2
1032.8553	3053.7027	907.25	20.35
1032.9651	3054.7314	903.6	16.95
1033.0748	3055.7594	905.45	19.5
1033.1845	3056.7868	907.25	19.15
1033.2941	3057.8136	905.3	19.1
1033.4037	3058.8398	905.55	20.95
1033.5132	3059.8653	905.1	17.7
1033.6227	3060.8902	904.05	16.75
1033.7321	3061.9145	908.1	21
1033.8415	3062.9381	906.95	18.5
1033.9509	3063.9612	923.7	20.6
1034.0602	3064.9835	906.2	20.65
1034.1694	3066.0053	908.7	19.3
1034.2787	3067.0264	905.55	17.2
1034.3878	3068.0469	908.3	20.4
1034.497	3069.0668	908.15	17.5
1034.6061	3070.086	907	20.35
1034.7151	3071.1046	907.85	17.9
1034.8241	3072.1226	908.7	21.4
1034.9331	3073.1399	907	19.95
1035.042	3074.1567	906.6	18.35
1035.1508	3075.1727	908.25	19.75
1035.2597	3076.1882	903.65	16.3
1035.3684	3077.203	904.8	17.2
1035.4772	3078.2173	905.85	19.2
1035.5859	3079.2308	907.35	17.35
1035.6945	3080.2438	907	14.75
1035.8031	3081.2561	905.2	17.2
1035.9117	3082.2678	901.3	13.8
1036.0202	3083.2789	900.75	15.65
1036.1286	3084.2893	902.7	17.4
1036.2371	3085.2991	902.25	15.85
1036.3454	3086.3083	908.65	16.45
1036.4538	3087.3169	903.95	16.55
1036.562	3088.3248	902.35	14.8
1036.6703	3089.3321	903.25	14.25
1036.7785	3090.3388	900.45	11.7
1036.8866	3091.3449	901.75	15.85
1036.9948	3092.3503	903.55	13.75
1037.1028	3093.3551	898.2	12.45
1037.2108	3094.3593	900.6	15.5
1037.3188	3095.3629	898.6	12.75
1037.4267	3096.3658	901.3	13.65
1037.5346	3097.3681	901.3	14.4
1037.6425	3098.3698	901.7	13.1
1037.7503	3099.3708	900.95	14.25
1037.858	3100.3713	900.95	13.8
1037.9657	3101.3711	901.35	14.15
1038.0734	3102.3702	1037.85	9.8
1038.181	3103.3688	903.05	15.85
1038.2886	3104.3667	896.75	10.55
1038.3961	3105.364	900.05	14.85
1038.5036	3106.3607	900.15	11.45
1038.611	3107.3568	902.25	15.25
1038.7184	3108.3522	897.6	12.1
1038.8257	3109.347	901	14.7
1038.933	3110.3412	902.65	9.9
1039.0403	3111.3348	897.7	11.6
1039.1475	3112.3277	897.8	9.65
1039.2547	3113.32	896.5	11.25
1039.3618	3114.3117	898.95	12.75
1039.4689	3115.3028	897.05	10
1039.5759	3116.2932	901.1	12.55
1039.6829	3117.2831	904	10.3
1039.7898	3118.2723	899.25	11.15
1039.8967	3119.2608	897	10.3
1040.0035	3120.2488	899.5	11.55
1040.1103	3121.2361	896.9	9.2
1040.2171	3122.2229	896.4	10.45
1040.3238	3123.209	899.65	12.15
1040.4305	3124.1944	896.7	8.05
1040.5371	3125.1793	897.85	9.25
1040.6437	3126.1635	895.8	12.05
1040.7502	3127.1471	893.9	7.3
1040.8567	3128.1301	896.9	11
1040.9631	3129.1125	897.1	11.3
1041.0695	3130.0942	897.2	9.9
1041.1759	3131.0753	906.1	11.5
1041.2822	3132.0558	899.75	8.95
1041.3884	3133.0357	898	10.3
1041.4946	3134.015	897.4	11.4
1041.6008	3134.9936	896.1	7.75
1041.7069	3135.9716	915.5	8
1041.813	3136.949	896.3	9.8
1041.919	3137.9258	914.6	10.15
1042.025	3138.902	903.05	10.7
1042.1309	3139.8775	895.65	10.4
1042.2368	3140.8524	896.3	9.8
1042.3427	3141.8267	897.6	10.6
1042.4485	3142.8004	895.35	7.85
1042.5542	3143.7735	902.2	9.6
1042.6599	3144.7459	897.8	6.85
1042.7656	3145.7178	894.35	7
1042.8712	3146.689	893.65	7.85
1042.9768	3147.6596	895.3	5.1
1043.0823	3148.6295	894.6	8.9
1043.1878	3149.5989	895.7	9.3
1043.2932	3150.5676	892.65	8.6
1043.3986	3151.5357	894.5	9.65
1043.5039	3152.5032	895.55	9.95
1043.6092	3153.4701	893.8	9
1043.7145	3154.4364	899.65	8.65
1043.8197	3155.402	894.75	8.85
1043.9248	3156.367	898.5	10.2
1044.03	3157.3315	925.1	6.15
1044.135	3158.2952	896.25	9.35
1044.24	3159.2584	893.1	7.2
1044.345	3160.221	894.1	7.45
1044.4499	3161.1829	895.25	6.8
1044.5548	3162.1442	897.4	9.95
1044.6596	3163.105	895.1	8.8
1044.7644	3164.065	895.15	5.9
1044.8692	3165.0245	898	8.1
1044.9739	3165.9834	893.2	7.05
1045.0785	3166.9416	894.85	7.4
1045.1831	3167.8993	895.25	8.25
1045.2877	3168.8563	896.6	8.85
1045.3922	3169.8127	895.45	10.15
1045.4966	3170.7684	894.6	8.7
1045.6011	3171.7236	898.2	9.3
1045.7054	3172.6782	896.2	9.1
1045.8098	3173.6321	893.85	6.8
1045.914	3174.5854	898.85	7.25
1046.0183	3175.5381	894.25	6.3
1046.1224	3176.4902	893.6	6.25
1046.2266	3177.4417	894.35	8.05
1046.3307	3178.3926	891.9	5.65
1046.4347	3179.3428	896.05	11.05
1046.5387	3180.2924	892.6	7
1046.6427	3181.2415	896.05	9.75
1046.7466	3182.1899	894.75	5.75
1046.8504	3183.1377	894.7	8.85
1046.9542	3184.0848	898.4	8.55
1047.058	3185.0314	891.5	3.65
1047.1617	3185.9773	893.1	4.7
1047.2654	3186.9227	895.2	8.25
1047.369	3187.8674	895.05	8.2
1047.4726	3188.8115	898.7	7.2
1047.5761	3189.755	892.3	5.55
1047.6796	3190.6979	892.55	6
1047.783	3191.6402	893.5	7.65
1047.8864	3192.5818	893	5.5
1047.9898	3193.5229	900.4	6.35
1048.0931	3194.4633	892.95	6.95
1048.1963	3195.4031	893.05	7.05
1048.2995	3196.3423	892.6	4.05
1048.4027	3197.2809	893.6	6.15
1048.5058	3198.2189	893.55	6.05
1048.6089	3199.1563	900.75	7.55
1048.7119	3200.0931	892.3	6.55
1048.8148	3201.0292	891.35	3.4
1048.9178	3201.9648	892.3	3.95
1049.0206	3202.8997	896.4	6.6
1049.1235	3203.834	892.8	6.45
1049.2262	3204.7677	891.35	4.85
1049.329	3205.7008	895.75	5.95
1049.4317	3206.6333	889.6	4.1
1049.5343	3207.5652	895.1	3.6
1049.6369	3208.4964	892.3	4.5
1049.7394	3209.4271	893	7.7
1049.8419	3210.3571	892.4	6.3
1049.9444	3211.2865	893.7	7.95
1050.0468	3212.2154	895.2	7.05
1050.1491	3213.1436	896.2	7
1050.2514	3214.0712	897.6	3.9
1050.3537	3214.9982	894.7	7.7
1050.4559	3215.9246	892.5	3.75
1050.5581	3216.8503	891.3	6.25
1050.6602	3217.7755	891.1	3.05
1050.7623	3218.7001	893.25	6.85
1050.8643	3219.624	892.95	4.15
1050.9663	3220.5473	893.1	5.6
1051.0682	3221.4701	893	5.65
1051.1701	3222.3922	895	6.8
1051.2719	3223.3137	892.75	5.65
1051.3737	3224.2346	894	6.15
1051.4754	3225.1549	891.45	5.1
1051.5771	3226.0746	892.6	6.8
1051.6788	3226.9937	895	7.8
1051.7804	3227.9121	891.55	5
1051.8819	3228.83	893.15	7.2
1051.9834	3229.7473	894	6.35
1052.0849	3230.6639	892	7.6
1052.1863	3231.5799	892.25	5.5
1052.2876	3232.4954	891.3	4.35
1052.3889	3233.4102	893.25	8.3
1052.4902	3234.3244	892.05	6.25
1052.5914	3235.238	890.95	3.75
1052.6926	3236.151	916	2.9
1052.7937	3237.0634	892.4	6.15
1052.8948	3237.9752	893.7	9.75
1052.9958	3238.8864	892.6	6.05
1053.0968	3239.797	891.5	5.3
1053.1977	3240.7069	893.15	7.4
1053.2986	3241.6163	894.25	5.45
1053.3994	3242.5251	892.15	7.1
1053.5002	3243.4332	890.95	6.55
1053.6009	3244.3408	891.85	4.5
1053.7016	3245.2477	892.3	4.6
1053.8022	3246.154	892.4	4.9
1053.9028	3247.0598	893.35	6.6
1054.0034	3247.9649	890.65	5.25
1054.1039	3248.8694	892.5	6.4
1054.2043	3249.7733	892.95	5.6
1054.3047	3250.6766	890.9	2.45
1054.4051	3251.5793	894.05	5.6
1054.5054	3252.4814	890.6	5.05
1054.6056	3253.3829	892.6	5.95
1054.7058	3254.2838	893.2	6.2
1054.806	3255.1841	889.75	3.5
1054.9061	3256.0838	890.3	2.15
1055.0061	3256.9829	891.5	5.55
1055.1062	3257.8814	895.15	5.9
1055.2061	3258.7792	892.1	3
1055.306	3259.6765	892.65	4.2
1055.4059	3260.5731	891.4	4.65
1055.5057	3261.4692	892.75	6.15
1055.6055	3262.3647	892.85	6
1055.7052	3263.2595	892.35	6.45
1055.8049	3264.1538	890.05	1.05
1055.9045	3265.0474	891.65	3.9
1056.0041	3265.9404	889.75	3.2
1056.1036	3266.8329	890.15	3.05
1056.2031	3267.7247	899.85	3.25
1056.3025	3268.616	890.7	4.6
1056.4019	3269.5066	889.85	4.15
1056.5013	3270.3966	892.05	3.65
1056.6005	3271.286	890.7	4.45
