Software Version:	3.9.2.0
Unit SN:	10000200
Spectrometer SN:	6960
Date:	3/14/2024 1:02:09 PM
Data Line Index:	25
Spectral Points:	2048
Integration time (ms):	125
Averages:	20
Delay (ms):	30000
Sequence Number:	1
Processing:	dark subtract
Laser Power (mW):	300
Laser Current (mA):	823
Laser Diode Temp (C):	25
Laser Case Temp (C):	27.9
System Temp (C):	28
Spectrometer Temp (C):	25.7
CCD Temp (C):	0.007
Secondary Temp (C):	20.006
Heatsink Temp (C):	23.895
CCDPCB Temp (C):	37.485
SecondaryPCB Temp (C):	35.062

Wavelength	RamanShift	Raw Counts	Dark Subtracted
787.061	30.1047	416.9	4.6
787.2016	32.3739	416.05	7.55
787.3422	34.6426	417.45	5.6
787.4828	36.9109	419.8	6.75
787.6235	39.1787	425.7	10
787.7642	41.4461	430.9	8.35
787.9049	43.7131	435.1	11.05
788.0456	45.9796	437.55	12.15
788.1863	48.2456	443.7	10.75
788.3271	50.5112	449.45	13.25
788.4679	52.7764	450.2	12.45
788.6087	55.0411	452.95	8.8
788.7496	57.3054	459.45	12.8
788.8904	59.5692	462.7	14.6
789.0313	61.8326	470.6	18.05
789.1722	64.0955	477.5	21
789.3132	66.3579	482.65	18.3
789.4541	68.6199	488.45	22.75
789.5951	70.8815	497.65	28.9
789.7361	73.1426	514.3	41.7
789.8771	75.4032	546.75	69.45
790.0181	77.6634	624.3	140.3
790.1592	79.9231	785.55	297.85
790.3003	82.1824	1148.4	655.3
790.4414	84.4412	1751.75	1247.95
790.5825	86.6995	2550.75	2034.95
790.7237	88.9574	3346.2	2816.55
790.8648	91.2148	3915.4	3375.6
791.006	93.4717	4197.7	3652.05
791.1472	95.7282	4265.85	3718.8
791.2885	97.9842	4307.75	3757.75
791.4297	100.2398	4274	3718.55
791.571	102.4949	4238.7	3681.2
791.7123	104.7495	4220.2	3659.3
791.8536	107.0036	4178.45	3617.05
791.9949	109.2573	4120.35	3559.45
792.1363	111.5105	4057.2	3493.9
792.2777	113.7632	4000.55	3436.7
792.4191	116.0154	3931.85	3356.45
792.5605	118.2672	3854	3282.25
792.7019	120.5185	3785.05	3214.3
792.8434	122.7693	3720.05	3149.4
792.9849	125.0197	3657.35	3082.4
793.1264	127.2696	3610.25	3034.6
793.2679	129.519	3582.3	3001.7
793.4094	131.7679	3566.3	2984.6
793.551	134.0163	3567.65	2979.9
793.6926	136.2642	3554.45	2962.95
793.8342	138.5117	3551.35	2956.95
793.9758	140.7587	3521.35	2925.75
794.1175	143.0052	3500.65	2903
794.2591	145.2512	3462.75	2863.8
794.4008	147.4967	3418	2820.6
794.5425	149.7417	3384.1	2781.45
794.6842	151.9863	3369.4	2765.8
794.826	154.2304	3364.75	2754.8
794.9677	156.4739	3349.25	2735.35
795.1095	158.717	3362.05	2751.7
795.2513	160.9596	3371.95	2754.25
795.3931	163.2017	3381.8	2762.45
795.535	165.4433	3394.1	2770.1
795.6768	167.6844	3366.45	2741.95
795.8187	169.925	3353.2	2725.5
795.9606	172.1651	3300.45	2670.65
796.1025	174.4047	3286.95	2652.7
796.2445	176.6439	3243.3	2607.7
796.3864	178.8825	3215.05	2580.25
796.5284	181.1206	3215.45	2574.9
796.6704	183.3582	3201.6	2555
796.8124	185.5954	3195.95	2548.7
796.9544	187.832	3184.05	2533.55
797.0965	190.0681	3185.65	2533
797.2386	192.3037	3203.3	2547.05
797.3806	194.5388	3202.25	2545.15
797.5228	196.7734	3209.4	2547.55
797.6649	199.0075	3206.75	2545.15
797.807	201.2411	3238.9	2572.5
797.9492	203.4742	3252.3	2585.9
798.0914	205.7068	3267	2597.4
798.2336	207.9389	3261.05	2591.05
798.3758	210.1704	3276.35	2605.65
798.518	212.4015	3283.85	2605.3
798.6603	214.632	3292.6	2618.05
798.8025	216.862	3275.3	2603.5
798.9448	219.0915	3277.4	2617.4
799.0871	221.3205	3279.65	2621.05
799.2294	223.549	3272.6	2618.7
799.3718	225.777	3268.65	2614.05
799.5141	228.0044	3281.05	2626.85
799.6565	230.2314	3260.5	2605.55
799.7989	232.4578	3230	2572.35
799.9413	234.6837	3237	2573.4
800.0837	236.909	3218.95	2553.55
800.2262	239.1339	3229.4	2540.65
800.3687	241.3582	3210.4	2534.25
800.5111	243.582	3214.65	2513.55
800.6536	245.8053	3218.35	2523.8
800.7961	248.0281	3221.35	2531.45
800.9387	250.2503	3216.5	2526.2
801.0812	252.472	3239.25	2540.15
801.2238	254.6932	3243.8	2544.1
801.3664	256.9139	3241.95	2539.4
801.509	259.134	3239.6	2531.8
801.6516	261.3536	3253.95	2553.85
801.7942	263.5727	3283.4	2577.9
801.9369	265.7912	3295.65	2592.8
802.0795	268.0092	3347	2641.85
802.2222	270.2267	3373.65	2665.55
802.3649	272.4436	3407.65	2698.2
802.5076	274.6601	3415.9	2702.45
802.6504	276.8759	3429.2	2720.65
802.7931	279.0913	3443.15	2732.9
802.9359	281.3061	3447.75	2731.4
803.0787	283.5204	3467.75	2750.5
803.2215	285.7341	3489.05	2769.45
803.3643	287.9473	3480	2754.95
803.5071	290.16	3481.1	2751
803.6499	292.3721	3447.15	2727.85
803.7928	294.5837	3432.65	2712.75
803.9357	296.7947	3400.45	2679.05
804.0786	299.0052	3383	2658.95
804.2215	301.2152	3375.75	2648.75
804.3644	303.4246	3363.75	2639.65
804.5074	305.6334	3345.3	2622.35
804.6503	307.8418	3323.1	2597.15
804.7933	310.0495	3303.15	2576.6
804.9363	312.2568	3279.45	2550.75
805.0793	314.4635	3237.95	2511.75
805.2223	316.6696	3185.4	2456.75
805.3653	318.8752	3158.05	2422.8
805.5084	321.0802	3138.2	2407.7
805.6514	323.2847	3131.1	2399.15
805.7945	325.4887	3125.55	2392.05
805.9376	327.692	3111.1	2375.1
806.0807	329.8949	3151.7	2418.55
806.2238	332.0972	3180.8	2441.5
806.367	334.2989	3190.45	2449.55
806.5101	336.5001	3187	2445.6
806.6533	338.7007	3149.35	2408.5
806.7965	340.9008	3122.35	2377.45
806.9397	343.1003	3091.2	2344.15
807.0829	345.2992	3044.75	2295.45
807.2261	347.4976	3007.6	2256.2
807.3693	349.6955	2994.6	2239.25
807.5126	351.8927	2991.45	2239.5
807.6559	354.0895	2967.7	2203.55
807.7991	356.2856	2956.95	2201.85
807.9424	358.4812	2934.4	2183.35
808.0857	360.6763	2935.9	2180.1
808.2291	362.8707	2921.7	2165.7
808.3724	365.0646	2935.35	2176.2
808.5158	367.258	2929.85	2168.65
808.6591	369.4508	2928.75	2163.4
808.8025	371.643	2956.4	2191.25
808.9459	373.8346	2972.9	2207
809.0893	376.0257	2988.8	2219.1
809.2327	378.2162	3002.25	2232.4
809.3762	380.4062	3016.7	2246.1
809.5196	382.5956	2975	2202.7
809.6631	384.7844	2948.35	2175.4
809.8066	386.9726	2916.3	2142.6
809.9501	389.1603	2887.25	2113.6
810.0936	391.3474	2907.5	2101.55
810.2371	393.5339	2876.25	2101.8
810.3806	395.7199	2863.8	2096.4
810.5241	397.9052	2879.75	2109.35
810.6677	400.09	2907.15	2140.4
810.8113	402.2743	2931.8	2166.5
810.9548	404.4579	2959.4	2196.3
811.0984	406.641	2990.7	2224.55
811.2421	408.8235	3014.7	2246.25
811.3857	411.0054	3050.4	2280.5
811.5293	413.1868	3112.2	2340.65
811.673	415.3675	3170.75	2395.85
811.8166	417.5477	3180.5	2408.15
811.9603	419.7273	3103.15	2325.75
812.104	421.9064	3017.35	2230.35
812.2477	424.0848	2954.6	2175.55
812.3914	426.2627	2906.55	2122.95
812.5351	428.4399	2869.1	2086.05
812.6788	430.6166	2836.95	2049.65
812.8226	432.7928	2792.25	2005.4
812.9663	434.9683	2758.4	1970.85
813.1101	437.1432	2731.1	1938.35
813.2539	439.3176	2703.2	1911.85
813.3977	441.4914	2691.15	1899.2
813.5415	443.6645	2701.2	1905.1
813.6853	445.8371	2696.9	1903.95
813.8291	448.0091	2688.65	1897.9
813.973	450.1806	2680.15	1888.25
814.1168	452.3514	2663.5	1868.35
814.2607	454.5216	2676.65	1870
814.4046	456.6913	2665.9	1867.2
814.5485	458.8603	2654.7	1858.65
814.6924	461.0288	2663	1865.95
814.8363	463.1967	2642.75	1846.55
814.9802	465.3639	2662.85	1865.05
815.1241	467.5306	2646.7	1846.9
815.2681	469.6967	2641.15	1841.55
815.412	471.8622	2613.75	1815.75
815.556	474.0271	2615.6	1817.3
815.7	476.1914	2617.1	1817.8
815.844	478.3551	2605.2	1806.1
815.988	480.5182	2614.8	1813.95
816.132	482.6807	2603.15	1801.75
816.276	484.8426	2623.75	1821.1
816.4201	487.0039	2649.65	1847.1
816.5641	489.1647	2672.75	1870.15
816.7082	491.3248	2713.05	1908.5
816.8522	493.4843	2707.9	1902.4
816.9963	495.6432	2697.1	1890.75
817.1404	497.8015	2676.05	1868.1
817.2845	499.9592	2654.75	1849.9
817.4286	502.1163	2613	1807.6
817.5727	504.2728	2582.85	1771.15
817.7168	506.4287	2573.45	1764.6
817.861	508.5839	2549.9	1741.2
818.0051	510.7386	2535.25	1728.6
818.1493	512.8927	2542.4	1724.2
818.2935	515.0461	2553.1	1740.55
818.4377	517.199	2544.85	1734.7
818.5818	519.3512	2578.05	1768.5
818.726	521.5029	2627.95	1809.7
818.8703	523.6539	2663.95	1849.3
819.0145	525.8043	2671.6	1857.25
819.1587	527.9541	2626.55	1811.6
819.303	530.1033	2585.55	1768.25
819.4472	532.2519	2545.65	1729.75
819.5915	534.3999	2524.75	1706.9
819.7357	536.5472	2512.65	1695.95
819.88	538.694	2518.25	1700.45
820.0243	540.8401	2521.6	1702.3
820.1686	542.9856	2536.3	1716.95
820.3129	545.1305	2538.85	1718.05
820.4572	547.2748	2547.6	1730
820.6016	549.4185	2551.55	1728.4
820.7459	551.5615	2550.65	1730.55
820.8902	553.704	2564.5	1745.35
821.0346	555.8458	2575.3	1755.15
821.1789	557.987	2592.85	1770.7
821.3233	560.1276	2605.7	1784.3
821.4677	562.2675	2644.75	1824.7
821.6121	564.4069	2671	1852.3
821.7565	566.5456	2692.6	1875.65
821.9009	568.6837	2688.35	1867.55
822.0453	570.8212	2638.05	1819.65
822.1897	572.958	2584.05	1761.25
822.3342	575.0942	2557.35	1737.85
822.4786	577.2299	2520	1696.6
822.6231	579.3648	2502.75	1680.7
822.7675	581.4992	2474.4	1652.3
822.912	583.6329	2480.05	1656.6
823.0565	585.766	2502.75	1677.9
823.201	587.8985	2526.75	1702.8
823.3454	590.0304	2564.95	1727.15
823.4899	592.1616	2562.9	1733.65
823.6345	594.2922	2562.05	1735.6
823.779	596.4222	2517.85	1690.8
823.9235	598.5515	2483.05	1655.1
824.068	600.6802	2434.35	1607.8
824.2126	602.8083	2419.25	1592.05
824.3571	604.9358	2417.65	1587.65
824.5017	607.0626	2408.35	1577.25
824.6462	609.1888	2407.55	1576.15
824.7908	611.3144	2423.85	1592.8
824.9354	613.4393	2445.4	1615.5
825.08	615.5636	2470.45	1640.55
825.2246	617.6873	2504.9	1674.75
825.3692	619.8103	2521.9	1690.7
825.5138	621.9327	2517.05	1683.8
825.6584	624.0544	2499.5	1666.85
825.803	626.1756	2454.65	1623.15
825.9477	628.2961	2420.45	1586.95
826.0923	630.4159	2414.75	1581.6
826.237	632.5351	2403.9	1570.45
826.3816	634.6537	2394.55	1560.5
826.5263	636.7716	2398.95	1563.65
826.6709	638.8889	2376.35	1540.6
826.8156	641.0056	2377.4	1541
826.9603	643.1216	2381.25	1546.8
827.105	645.237	2395.5	1558.1
827.2497	647.3518	2373.1	1535.4
827.3944	649.4659	2351.1	1512.1
827.5391	651.5793	2336.65	1498.4
827.6838	653.6922	2322.55	1483.7
827.8285	655.8043	2320.05	1484.25
827.9733	657.9159	2322.7	1482.85
828.118	660.0268	2310.7	1470.25
828.2627	662.137	2308.4	1472.6
828.4075	664.2466	2310.7	1470.15
828.5522	666.3556	2298.05	1457
828.697	668.4639	2284.8	1442.9
828.8418	670.5716	2290.4	1447.35
828.9865	672.6786	2284.95	1442.1
829.1313	674.785	2277.95	1435.15
829.2761	676.8907	2264.8	1422.25
829.4209	678.9958	2261.45	1420.7
829.5657	681.1002	2266.2	1423.95
829.7105	683.204	2259.8	1414.1
829.8553	685.3072	2266.3	1422.5
830.0001	687.4097	2251.25	1407.6
830.1449	689.5115	2253.55	1408.7
830.2898	691.6127	2254.45	1411.25
830.4346	693.7132	2256.95	1410.65
830.5794	695.8131	2263.95	1403.3
830.7243	697.9123	2258.4	1412.45
830.8691	700.0109	2252.05	1407.4
831.014	702.1089	2257.75	1413.5
831.1588	704.2061	2269.15	1424.15
831.3037	706.3028	2282.4	1437
831.4486	708.3987	2295.45	1449.6
831.5935	710.4941	2303.5	1454.9
831.7383	712.5887	2296.6	1447.25
831.8832	714.6827	2291	1439.4
832.0281	716.7761	2301.9	1453.75
832.173	718.8688	2292.15	1442.55
832.3179	720.9608	2293.7	1443.05
832.4628	723.0522	2314.3	1464.45
832.6077	725.1429	2319.9	1472.05
832.7527	727.233	2342.25	1493.6
832.8976	729.3224	2387.5	1537.45
833.0425	731.4112	2423.7	1571.4
833.1874	733.4993	2423.05	1572.15
833.3324	735.5867	2386.9	1534.65
833.4773	737.6735	2346.35	1494.85
833.6222	739.7596	2303.9	1452
833.7672	741.845	2288.3	1439
833.9122	743.9298	2285.4	1432.35
834.0571	746.014	2297.85	1448.05
834.2021	748.0974	2299.7	1445.5
834.347	750.1802	2302.3	1450
834.492	752.2624	2282.05	1431.3
834.637	754.3439	2269.25	1416.5
834.782	756.4247	2274.6	1411.55
834.9269	758.5048	2251.25	1397
835.0719	760.5843	2264.95	1410.55
835.2169	762.6631	2273.35	1418.8
835.3619	764.7413	2310	1457.85
835.5069	766.8188	2368.7	1515.3
835.6519	768.8956	2424.25	1567.45
835.7969	770.9718	2465.15	1610.2
835.9419	773.0473	2451.3	1597.85
836.0869	775.1221	2430.9	1576.25
836.232	777.1962	2424.1	1569.65
836.377	779.2697	2457.3	1601.7
836.522	781.3426	2533.05	1667.8
836.667	783.4147	2549.15	1692.65
836.8121	785.4862	2550.2	1697.3
836.9571	787.557	2479	1624.2
837.1021	789.6271	2385.85	1528.8
837.2472	791.6966	2312.8	1456.5
837.3922	793.7654	2229.4	1372.65
837.5373	795.8335	2192.1	1336.5
837.6823	797.901	2180.15	1323.05
837.8274	799.9678	2183.7	1326.2
837.9724	802.0339	2168.15	1313.05
838.1175	804.0993	2191.3	1325.65
838.2626	806.1641	2167.35	1310.6
838.4076	808.2282	2153.9	1296.15
838.5527	810.2916	2144.95	1284.3
838.6978	812.3544	2121	1262.3
838.8428	814.4164	2108.8	1252.35
838.9879	816.4778	2133.45	1274.2
839.133	818.5385	2142.35	1285.25
839.2781	820.5986	2157.9	1301.85
839.4232	822.658	2194.7	1333.7
839.5682	824.7166	2222.35	1363.9
839.7133	826.7747	2289.15	1430.9
839.8584	828.832	2339.65	1480.55
840.0035	830.8886	2372	1510.95
840.1486	832.9446	2395.05	1534.6
840.2937	834.9999	2373	1513.8
840.4388	837.0545	2312.6	1449.05
840.5839	839.1085	2258.6	1398.8
840.729	841.1618	2207.15	1343.5
840.8741	843.2143	2168.75	1309.45
841.0192	845.2662	2144.7	1286
841.1643	847.3175	2135.75	1277.15
841.3095	849.368	2122.4	1261.55
841.4546	851.4179	2114.7	1253.75
841.5997	853.467	2110.2	1248.75
841.7448	855.5155	2118.85	1256.4
841.8899	857.5633	2131	1271.9
842.0351	859.6105	2118.55	1256.7
842.1802	861.6569	2109.8	1248.05
842.3253	863.7027	2102.25	1239.25
842.4704	865.7478	2083.95	1220.35
842.6156	867.7922	2076.15	1212.25
842.7607	869.8359	2073.65	1211.15
842.9058	871.8789	2075.55	1213.05
843.0509	873.9212	2101.05	1207.5
843.1961	875.9629	2066.1	1205.15
843.3412	878.0039	2071.6	1207.1
843.4863	880.0441	2076.25	1214.2
843.6315	882.0837	2099.55	1236.35
843.7766	884.1226	2112.65	1249.3
843.9218	886.1609	2134.1	1274
844.0669	888.1984	2165.95	1303.45
844.212	890.2352	2191.35	1329.2
844.3572	892.2714	2192.1	1327.15
844.5023	894.3069	2180.4	1317.85
844.6475	896.3416	2142.75	1278.45
844.7926	898.3757	2109.4	1244.2
844.9377	900.4091	2104.25	1239.75
845.0829	902.4418	2106	1235.55
845.228	904.4739	2114.8	1248.05
845.3732	906.5052	2109.75	1242.55
845.5183	908.5358	2101.55	1239.1
845.6635	910.5658	2087.55	1220.25
845.8086	912.595	2060.45	1195.4
845.9538	914.6236	2040.4	1177.15
846.0989	916.6515	2020.45	1158.2
846.2441	918.6786	2005.4	1138.3
846.3892	920.7051	2008.55	1143.05
846.5344	922.7309	1995.75	1129.6
846.6795	924.756	1985.7	1121.1
846.8246	926.7804	1997.4	1128.95
846.9698	928.8041	2002.95	1134.55
847.1149	930.8272	2010.9	1142.75
847.2601	932.8495	2012.65	1144.05
847.4052	934.8711	2017.25	1151.25
847.5504	936.892	2029.05	1161.45
847.6955	938.9123	2038.6	1171.15
847.8407	940.9318	2037.4	1171.3
847.9858	942.9506	2047	1179.9
848.131	944.9688	2039.55	1172.1
848.2761	946.9862	2024.8	1157.15
848.4213	949.003	1996.55	1127.65
848.5664	951.019	1977.7	1110.4
848.7115	953.0344	1972.3	1104.8
848.8567	955.0491	1958	1089.25
849.0018	957.063	1953.95	1086.1
849.147	959.0763	1944.55	1077.95
849.2921	961.0888	1945.75	1077.55
849.4373	963.1007	1955.2	1086.5
849.5824	965.1119	1946.85	1079.45
849.7275	967.1223	1927.7	1058.5
849.8727	969.1321	1921.9	1054.7
850.0178	971.1412	1929.5	1062.6
850.1629	973.1495	1930.35	1062.45
850.3081	975.1572	1948.5	1047.8
850.4532	977.1641	1915.35	1047.8
850.5983	979.1704	1921.4	1051.65
850.7435	981.1759	1912.6	1042.35
850.8886	983.1808	1912.05	1042.05
851.0337	985.1849	1912.05	1030.5
851.1788	987.1884	1896.75	1023.85
851.324	989.1911	1908.35	1036.8
851.4691	991.1932	1905.8	1033.6
851.6142	993.1945	1903.65	1035.5
851.7593	995.1951	1891.95	1021.6
851.9045	997.1951	1895.95	1023.95
852.0496	999.1943	1884.45	1017.65
852.1947	1001.1928	1892.5	1021.05
852.3398	1003.1906	1899.95	1027.6
852.4849	1005.1877	1920.35	1047.8
852.63	1007.1841	1926.1	1056.35
852.7751	1009.1798	1935.05	1062.6
852.9202	1011.1748	1924.65	1053.7
853.0653	1013.1691	1901.95	1028.75
853.2104	1015.1627	1878	1007.85
853.3555	1017.1556	1850.85	980.8
853.5006	1019.1477	1838.25	964.25
853.6457	1021.1392	1829.05	960.25
853.7908	1023.1299	1807.55	936.55
853.9359	1025.12	1815.25	940.35
854.081	1027.1093	1820.4	951.1
854.2261	1029.0979	1831.9	961.8
854.3712	1031.0859	1839.85	969.7
854.5163	1033.0731	1843.3	969.25
854.6613	1035.0596	1838.8	967.4
854.8064	1037.0454	1824.1	953.65
854.9515	1039.0304	1826	954.95
855.0965	1041.0148	1805.6	931.7
855.2416	1042.9985	1796.05	922.75
855.3867	1044.9814	1781.4	910.95
855.5317	1046.9636	1781.1	907.25
855.6768	1048.9452	1777.8	906.2
855.8219	1050.926	1792.65	922.6
855.9669	1052.9061	1792.65	921.2
856.112	1054.8855	1800.4	928.3
856.257	1056.8642	1796.25	924.65
856.4021	1058.8421	1793.75	917.4
856.5471	1060.8194	1792.75	920.15
856.6921	1062.7959	1793.85	921.6
856.8372	1064.7717	1787.2	912.25
856.9822	1066.7469	1786	912.2
857.1272	1068.7213	1791.55	916.85
857.2723	1070.695	1793.25	921.25
857.4173	1072.6679	1815.55	940.75
857.5623	1074.6402	1812.85	940.1
857.7073	1076.6117	1828.4	950.4
857.8523	1078.5826	1811.9	934.1
857.9973	1080.5527	1777.65	901.7
858.1423	1082.5221	1767.75	893.85
858.2873	1084.4908	1734.6	859.85
858.4323	1086.4587	1725.5	850
858.5773	1088.426	1718.35	845.9
858.7223	1090.3925	1722.6	844.35
858.8673	1092.3584	1716.2	840.95
859.0123	1094.3235	1714.15	842
859.1573	1096.2879	1731.35	856.4
859.3022	1098.2515	1746.8	873.05
859.4472	1100.2145	1765.6	890.9
859.5922	1102.1767	1790.9	914.05
859.7371	1104.1382	1813.2	935.9
859.8821	1106.099	1848.35	971.8
860.027	1108.0591	1871.95	1000.65
860.172	1110.0185	1887.55	1010.25
860.3169	1111.9771	1927.25	1054.35
860.4619	1113.9351	1960.9	1085.3
860.6068	1115.8923	1980.5	1102.9
860.7517	1117.8488	1990.8	1116.05
860.8967	1119.8045	1960.9	1083.85
861.0416	1121.7596	1900.25	1022.85
861.1865	1123.7139	1831.5	956.95
861.3314	1125.6675	1796.35	922.95
861.4763	1127.6204	1789.15	915.85
861.6212	1129.5726	1806.5	928.95
861.7661	1131.524	1804.3	931.2
861.911	1133.4748	1774.05	898.15
862.0559	1135.4248	1734.1	857.25
862.2008	1137.3741	1703.15	827.7
862.3457	1139.3226	1693.45	814.15
862.4905	1141.2705	1688.4	813.4
862.6354	1143.2176	1693.5	812.2
862.7803	1145.164	1695.55	818.2
862.9251	1147.1097	1683.65	810.1
863.07	1149.0546	1673	795.05
863.2148	1150.9989	1657.35	780.15
863.3597	1152.9424	1642.15	766.4
863.5045	1154.8852	1627.75	750.45
863.6493	1156.8272	1625.05	751.2
863.7942	1158.7686	1633.05	750
863.939	1160.7092	1623.85	748.25
864.0838	1162.6491	1627.25	751.3
864.2286	1164.5883	1635.55	760.6
864.3734	1166.5267	1649.35	772
864.5182	1168.4644	1658.75	781.95
864.663	1170.4014	1687.25	806.4
864.8078	1172.3377	1694.15	818.5
864.9526	1174.2732	1737.85	861.1
865.0974	1176.2081	1799.35	924.05
865.2421	1178.1421	1871.9	990.55
865.3869	1180.0755	1947.3	1072.6
865.5317	1182.0082	1969.6	1091.6
865.6764	1183.9401	1953.45	1076.05
865.8212	1185.8713	1891.7	1013.3
865.9659	1187.8017	1809.75	932.95
866.1106	1189.7315	1735.25	859.95
866.2554	1191.6605	1719.85	814.1
866.4001	1193.5888	1656.55	779
866.5448	1195.5163	1634.2	756.85
866.6895	1197.4432	1630.5	750.7
866.8342	1199.3693	1606.8	730.05
866.9789	1201.2947	1611.95	728.45
867.1236	1203.2193	1599.75	723.2
867.2683	1205.1432	1601.35	722.35
867.413	1207.0664	1588.55	712.4
867.5576	1208.9889	1587.85	706.5
867.7023	1210.9106	1594.7	718.85
867.847	1212.8316	1591.35	714.5
867.9916	1214.7519	1598.75	711.95
868.1363	1216.6715	1593.25	715.95
868.2809	1218.5903	1599.25	723.2
868.4255	1220.5084	1621.65	742.95
868.5701	1222.4257	1619.9	742.35
868.7148	1224.3424	1628.15	751.5
868.8594	1226.2583	1638.95	757.85
869.004	1228.1735	1654.25	773.6
869.1486	1230.0879	1688.45	812.4
869.2932	1232.0016	1708.85	831.15
869.4377	1233.9146	1739.95	859.15
869.5823	1235.8269	1742.85	866.5
869.7269	1237.7384	1741.85	865.3
869.8715	1239.6492	1735.3	858
870.016	1241.5592	1760.95	880.55
870.1606	1243.4686	1779.15	901.1
870.3051	1245.3772	1836.75	959
870.4496	1247.285	1882.8	1004.4
870.5941	1249.1922	1925.3	1045.85
870.7387	1251.0986	1979.6	1101.4
870.8832	1253.0042	2014.85	1137.75
871.0277	1254.9092	2069.4	1189.1
871.1722	1256.8134	2126.2	1248.7
871.3167	1258.7169	2158.45	1277.15
871.4611	1260.6196	2177.55	1297.9
871.6056	1262.5216	2175.45	1296.1
871.7501	1264.4229	2157.05	1278.1
871.8945	1266.3234	2141.05	1263.05
872.039	1268.2232	2102.3	1224.8
872.1834	1270.1223	2076	1198.35
872.3278	1272.0207	2058.75	1179.55
872.4723	1273.9183	2053.8	1169.25
872.6167	1275.8151	2042.75	1166.2
872.7611	1277.7113	2076.35	1197.7
872.9055	1279.6067	2126.05	1247.4
873.0499	1281.5014	2217.45	1336.9
873.1943	1283.3953	2327	1445.8
873.3386	1285.2885	2431.05	1552.3
873.483	1287.181	2511.75	1629.4
873.6274	1289.0727	2521.7	1645.85
873.7717	1290.9637	2497.8	1617.95
873.9161	1292.854	2451.15	1572.1
874.0604	1294.7435	2376.95	1496.35
874.2047	1296.6323	2316.8	1438.8
874.349	1298.5204	2260.75	1378.1
874.4933	1300.4077	2213.95	1333.4
874.6376	1302.2943	2178.1	1298.65
874.7819	1304.1802	2164.8	1283.6
874.9262	1306.0653	2148.35	1266.3
875.0705	1307.9497	2119.25	1238.7
875.2147	1309.8333	2101	1223.05
875.359	1311.7162	2073.7	1194.05
875.5032	1313.5984	2058.6	1175.45
875.6475	1315.4798	2051.25	1156.15
875.7917	1317.3605	2036.65	1153.2
875.9359	1319.2405	2031	1149.3
876.0801	1321.1197	2004.8	1121.5
876.2243	1322.9982	1974.05	1087.05
876.3685	1324.876	1925.8	1046.6
876.5127	1326.753	1868.7	987.35
876.6569	1328.6293	1814.6	933.65
876.801	1330.5048	1759.3	877.65
876.9452	1332.3796	1714.95	835.6
877.0893	1334.2537	1709.6	803.05
877.2335	1336.127	1662.5	781.45
877.3776	1337.9996	1650.55	768.85
877.5217	1339.8714	1636.5	756.9
877.6658	1341.7426	1661.85	738.55
877.8099	1343.6129	1613.9	734.05
877.954	1345.4826	1604.1	726.9
878.0981	1347.3515	1601.7	717.65
878.2422	1349.2196	1579.7	698.35
878.3862	1351.087	1572.7	693
878.5303	1352.9537	1584.3	702.1
878.6743	1354.8197	1580.7	702.3
878.8184	1356.6849	1581	699.55
878.9624	1358.5493	1587.3	708.2
879.1064	1360.4131	1612.85	731.05
879.2504	1362.276	1634.75	753.95
879.3944	1364.1383	1646.75	765.7
879.5384	1365.9998	1673.25	786.6
879.6823	1367.8606	1651.9	771
879.8263	1369.7206	1640.55	761.2
879.9702	1371.5799	1647.9	765.7
880.1142	1373.4384	1631.05	750
880.2581	1375.2962	1615.25	733.1
880.402	1377.1533	1577.25	696.6
880.5459	1379.0096	1551.35	669.65
880.6898	1380.8652	1536.6	656.8
880.8337	1382.7201	1512.8	631.8
880.9776	1384.5742	1499.4	616.75
881.1215	1386.4275	1486.85	604.95
881.2653	1388.2802	1478.4	598.05
881.4092	1390.132	1466	585.2
881.553	1391.9832	1458.2	575.4
881.6968	1393.8336	1459.15	575.5
881.8406	1395.6832	1443.75	561.7
881.9844	1397.5322	1438.55	558
882.1282	1399.3803	1435.55	551.3
882.272	1401.2278	1420.65	540.1
882.4158	1403.0745	1413.4	532.1
882.5595	1404.9204	1406.6	526.9
882.7033	1406.7656	1409.45	528.2
882.847	1408.6101	1402.85	518.7
882.9908	1410.4538	1406.05	524.6
883.1345	1412.2968	1414.4	534.05
883.2782	1414.139	1402.2	522.15
883.4219	1415.9805	1407.05	526
883.5656	1417.8213	1420.05	531.55
883.7092	1419.6613	1420.65	540.95
883.8529	1421.5006	1445.8	563.05
883.9965	1423.3391	1465.9	584.9
884.1402	1425.1769	1486.1	602.3
884.2838	1427.0139	1536.45	654.15
884.4274	1428.8502	1589.8	708.85
884.571	1430.6858	1624.95	741.8
884.7146	1432.5206	1647.7	767.6
884.8582	1434.3547	1638.75	756.85
885.0018	1436.188	1619.25	738.75
885.1453	1438.0206	1613.4	730.8
885.2889	1439.8524	1601.65	718
885.4324	1441.6835	1596.3	714.5
885.5759	1443.5139	1598.7	714.6
885.7194	1445.3435	1604.05	723
885.8629	1447.1724	1599.25	719.2
886.0064	1449.0005	1597	714.4
886.1499	1450.8279	1600.65	717.6
886.2933	1452.6545	1588	706.6
886.4368	1454.4804	1588.8	707.15
886.5802	1456.3056	1594.25	705.35
886.7237	1458.13	1580.55	698.5
886.8671	1459.9536	1552.1	671.35
887.0105	1461.7766	1535.85	655.1
887.1539	1463.5987	1518	635.25
887.2972	1465.4202	1490.45	609.45
887.4406	1467.2409	1464.25	583.4
887.584	1469.0608	1447.35	565.75
887.7273	1470.88	1427.45	545.3
887.8706	1472.6984	1412.55	529.4
888.0139	1474.5161	1389.85	505.55
888.1572	1476.3331	1390.7	509.65
888.3005	1478.1493	1387.75	505.65
888.4438	1479.9648	1380.85	499.2
888.5871	1481.7795	1377.15	495.3
888.7303	1483.5935	1374.35	495.55
888.8736	1485.4067	1376.15	495.05
889.0168	1487.2192	1373.45	492.75
889.16	1489.031	1375.2	492.7
889.3032	1490.842	1374.4	490.55
889.4464	1492.6522	1368.5	486.05
889.5896	1494.4618	1370.9	487.45
889.7327	1496.2705	1365.55	484.05
889.8759	1498.0785	1359.9	476.05
890.019	1499.8858	1353	469.75
890.1622	1501.6924	1347.35	466.65
890.3053	1503.4981	1346.3	464.85
890.4484	1505.3032	1342.75	462.7
890.5914	1507.1075	1340.75	458.65
890.7345	1508.911	1330.3	449.45
890.8776	1510.7138	1325.25	443.65
891.0206	1512.5159	1322.55	441.4
891.1637	1514.3172	1316.95	436.3
891.3067	1516.1178	1320	439.65
891.4497	1517.9176	1312.05	426.95
891.5927	1519.7166	1311.55	429.6
891.7357	1521.515	1311.4	425.65
891.8786	1523.3126	1302.85	420
892.0216	1525.1094	1296.3	411.7
892.1645	1526.9055	1288.55	407.6
892.3074	1528.7008	1289.15	406.3
892.4503	1530.4954	1289.05	400.25
892.5932	1532.2893	1283.6	402.5
892.7361	1534.0824	1285.95	397.85
892.879	1535.8747	1286.45	404.75
893.0218	1537.6663	1274.7	390.05
893.1647	1539.4572	1285.6	400.9
893.3075	1541.2473	1275.25	392.85
893.4503	1543.0367	1278.55	397.45
893.5931	1544.8253	1275.4	388.85
893.7359	1546.6132	1280.1	394.1
893.8787	1548.4003	1289.05	396.25
894.0214	1550.1867	1293.6	401.2
894.1642	1551.9723	1292.6	407.65
894.3069	1553.7572	1291.2	408.15
894.4496	1555.5414	1311.55	428.95
894.5923	1557.3247	1324.55	439.85
894.735	1559.1074	1338.4	456.05
894.8777	1560.8893	1359.8	478.55
895.0204	1562.6705	1379.3	497.1
895.163	1564.4509	1389.5	505.85
895.3056	1566.2305	1395.7	514
895.4482	1568.0094	1396	514.05
895.5908	1569.7876	1395.9	514.4
895.7334	1571.565	1385	501.05
895.876	1573.3417	1384.35	501.2
896.0186	1575.1176	1396.6	515.9
896.1611	1576.8928	1398.9	513.15
896.3036	1578.6672	1403.85	522.1
896.4461	1580.4409	1418.5	538.15
896.5886	1582.2138	1432.7	549.05
896.7311	1583.986	1457.45	573.95
896.8736	1585.7575	1480.6	599.15
897.0161	1587.5282	1498.45	617.45
897.1585	1589.2981	1512.2	629.55
897.3009	1591.0673	1515.25	632.35
897.4433	1592.8358	1523.95	642.95
897.5857	1594.6035	1521.7	637.6
897.7281	1596.3704	1510.8	625.95
897.8705	1598.1366	1503.5	621.05
898.0128	1599.9021	1490.65	607.55
898.1551	1601.6668	1475.3	589.45
898.2975	1603.4308	1471.75	586.6
898.4398	1605.194	1475.75	587.25
898.5821	1606.9564	1487.75	604.05
898.7243	1608.7182	1526.85	640.35
898.8666	1610.4791	1568.15	684.8
899.0088	1612.2394	1612.85	729.95
899.1511	1613.9988	1669.05	784.9
899.2933	1615.7576	1692.5	810.45
899.4355	1617.5156	1706.75	820.1
899.5776	1619.2728	1674.35	793.1
899.7198	1621.0293	1628.4	746.55
899.862	1622.785	1569.85	683.6
900.0041	1624.54	1509.2	626
900.1462	1626.2942	1443.05	557.85
900.2883	1628.0477	1396.55	511.3
900.4304	1629.8005	1354.6	467
900.5725	1631.5525	1313.1	431.9
900.7145	1633.3037	1287.6	404.85
900.8566	1635.0542	1266.25	381.05
900.9986	1636.804	1248.65	364.2
901.1406	1638.553	1301.95	346.85
901.2826	1640.3013	1222.45	340.8
901.4245	1642.0488	1206.7	323.4
901.5665	1643.7955	1206.05	325.7
901.7085	1645.5416	1195.9	313.25
901.8504	1647.2868	1192.95	310.2
901.9923	1649.0313	1185.15	300.95
902.1342	1650.7751	1187	303
902.2761	1652.5181	1184.2	300.85
902.4179	1654.2604	1182.85	298.85
902.5598	1656.0019	1181.15	297.05
902.7016	1657.7427	1191.7	308.15
902.8434	1659.4828	1202.45	319.9
902.9852	1661.222	1214.7	330.7
903.127	1662.9606	1232.75	351.5
903.2687	1664.6984	1243.5	360.65
903.4105	1666.4354	1242.15	360.55
903.5522	1668.1717	1233.75	351.9
903.6939	1669.9072	1205	321.9
903.8356	1671.642	1185.35	298.85
903.9773	1673.3761	1164.55	284.5
904.119	1675.1094	1153.7	271.45
904.2606	1676.8419	1144.6	263.45
904.4022	1678.5737	1138.1	256.75
904.5439	1680.3048	1134.15	251.05
904.6855	1682.0351	1126.9	246
904.827	1683.7646	1123.7	237.85
904.9686	1685.4934	1117.35	233.75
905.1101	1687.2215	1116.95	232.1
905.2517	1688.9488	1109.55	227.85
905.3932	1690.6754	1107.25	226.75
905.5347	1692.4012	1111.6	228.85
905.6761	1694.1263	1110.55	229
905.8176	1695.8506	1107.1	222.55
905.9591	1697.5742	1101.95	220.1
906.1005	1699.297	1101.7	218.3
906.2419	1701.0191	1096.8	212.9
906.3833	1702.7404	1099.95	217.6
906.5246	1704.461	1098.4	213.85
906.666	1706.1808	1094	209
906.8073	1707.8999	1095.8	211.5
906.9487	1709.6182	1095.25	211.5
907.09	1711.3358	1094.15	209.85
907.2313	1713.0527	1089.45	208.75
907.3725	1714.7688	1093.1	203.6
907.5138	1716.4841	1091.25	207.1
907.655	1718.1987	1093.35	203.55
907.7962	1719.9126	1084.5	205.15
907.9374	1721.6257	1091.7	205.15
908.0786	1723.338	1080.45	197.6
908.2198	1725.0496	1087.2	203.8
908.3609	1726.7605	1080.1	195.6
908.502	1728.4706	1081.7	197.85
908.6431	1730.18	1082.75	197.5
908.7842	1731.8886	1079.45	196.1
908.9253	1733.5964	1086.3	198.2
909.0664	1735.3036	1080.9	196.15
909.2074	1737.0099	1077.6	196.95
909.3484	1738.7156	1079.5	197.15
909.4894	1740.4204	1083.95	199.2
909.6304	1742.1246	1082.8	200.6
909.7714	1743.8279	1078.35	194.35
909.9123	1745.5306	1076.3	191.1
910.0532	1747.2325	1074.75	193.8
910.1941	1748.9336	1073.7	189.2
910.335	1750.634	1075.6	190.4
910.4759	1752.3336	1074.45	191.95
910.6168	1754.0325	1072.8	190.45
910.7576	1755.7307	1072.55	188.85
910.8984	1757.4281	1076.35	193
911.0392	1759.1247	1076.9	184.6
911.18	1760.8206	1074.6	187.8
911.3208	1762.5158	1081.65	195.45
911.4615	1764.2102	1070.35	188.35
911.6022	1765.9039	1072.2	187.75
911.7429	1767.5968	1073.85	192.05
911.8836	1769.289	1072.8	187.85
912.0243	1770.9804	1072.9	189.15
912.1649	1772.6711	1070.2	186.6
912.3056	1774.361	1068.75	183
912.4462	1776.0502	1069.65	185.9
912.5868	1777.7386	1069.3	184.05
912.7274	1779.4263	1067.8	186.4
912.8679	1781.1132	1065.25	184.45
913.0084	1782.7994	1070.3	187.4
913.149	1784.4849	1064.05	181.4
913.2895	1786.1696	1084.3	182.85
913.4299	1787.8535	1067.45	184.3
913.5704	1789.5367	1066	181.7
913.7108	1791.2192	1063.8	179.35
913.8513	1792.9009	1083.45	184.1
913.9917	1794.5818	1065.85	180.9
914.132	1796.2621	1058	177.5
914.2724	1797.9415	1060.9	177.15
914.4128	1799.6202	1063.1	179.25
914.5531	1801.2982	1056.5	172.8
914.6934	1802.9755	1059.55	174.85
914.8337	1804.6519	1058.1	174.7
914.9739	1806.3277	1058.5	177.6
915.1142	1808.0027	1055.95	172
915.2544	1809.6769	1058.95	175.85
915.3946	1811.3504	1059.95	174.85
915.5348	1813.0231	1057.25	172.25
915.675	1814.6951	1057.3	174.65
915.8151	1816.3664	1060.9	176.25
915.9553	1818.0369	1055.4	172.25
916.0954	1819.7067	1053.75	171.6
916.2355	1821.3757	1050.55	164.5
916.3755	1823.044	1051.95	170.2
916.5156	1824.7115	1056.2	172.1
916.6556	1826.3783	1049.8	167.15
916.7956	1828.0443	1049.75	169.2
916.9356	1829.7096	1052.9	168.3
917.0756	1831.3741	1055.65	171.95
917.2155	1833.0379	1050	167.55
917.3555	1834.701	1051.85	164.55
917.4954	1836.3633	1050.65	164.5
917.6353	1838.0248	1050.9	165.7
917.7751	1839.6856	1052.25	170.25
917.915	1841.3457	1051.6	169.35
918.0548	1843.005	1046.3	163.85
918.1946	1844.6636	1050	167.55
918.3344	1846.3214	1049	165.05
918.4742	1847.9785	1049.25	167.85
918.6139	1849.6349	1049.2	164.95
918.7537	1851.2904	1048.85	157.75
918.8934	1852.9453	1044.55	161
919.0331	1854.5994	1046.85	161.25
919.1727	1856.2528	1052.5	164.2
919.3124	1857.9054	1044.45	162.3
919.452	1859.5572	1044.95	161.4
919.5916	1861.2083	1042.95	159.6
919.7312	1862.8587	1043.15	161.25
919.8708	1864.5084	1037.85	153.05
920.0103	1866.1572	1043.35	164.35
920.1498	1867.8054	1042.4	159.75
920.2893	1869.4528	1042.65	159.55
920.4288	1871.0994	1039.5	158.35
920.5683	1872.7453	1040.9	155.3
920.7077	1874.3905	1055.8	151.65
920.8471	1876.0349	1039.8	155.4
920.9865	1877.6786	1044.05	159.9
921.1259	1879.3215	1037.75	155.65
921.2653	1880.9637	1037.95	154.25
921.4046	1882.6051	1040.5	158.65
921.5439	1884.2458	1041.5	155.5
921.6832	1885.8858	1037.65	156.3
921.8225	1887.525	1040.15	155.8
921.9617	1889.1634	1035.6	153.75
922.101	1890.8011	1033.8	151
922.2402	1892.4381	1037.3	154.1
922.3794	1894.0743	1035.45	152.4
922.5185	1895.7098	1036.65	154.35
922.6577	1897.3446	1030.2	146.55
922.7968	1898.9786	1041.45	155.05
922.9359	1900.6118	1036.35	152.9
923.075	1902.2443	1035.65	154.7
923.214	1903.8761	1031.9	150.15
923.3531	1905.5071	1032.7	148.75
923.4921	1907.1374	1036.55	152
923.6311	1908.7669	1030.7	147.35
923.77	1910.3957	1032.75	150.25
923.909	1912.0237	1031	148.6
924.0479	1913.651	1030.75	144.4
924.1868	1915.2776	1027.95	146.65
924.3257	1916.9034	1027.2	144
924.4646	1918.5285	1029.85	148.15
924.6034	1920.1528	1023.8	140.35
924.7422	1921.7764	1031.3	147.15
924.881	1923.3992	1023.3	140.75
925.0198	1925.0213	1026.55	141.95
925.1586	1926.6427	1023.15	142.9
925.2973	1928.2633	1132.65	139.8
925.436	1929.8832	1030.2	145.05
925.5747	1931.5023	1024.6	141.75
925.7134	1933.1207	1023.85	140.35
925.852	1934.7383	1022	140.15
925.9906	1936.3552	1021.45	140
926.1292	1937.9714	1025.95	140.65
926.2678	1939.5868	1023.45	138.7
926.4064	1941.2015	1024.4	139.55
926.5449	1942.8154	1022.9	142.1
926.6834	1944.4286	1018.2	134.2
926.8219	1946.041	1042.3	137.1
926.9604	1947.6528	1023.5	136.65
927.0988	1949.2637	1021.15	139.2
927.2372	1950.8739	1023.75	138.35
927.3756	1952.4834	1017.2	133.95
927.514	1954.0921	1021.9	137.8
927.6523	1955.7001	1024.2	135.05
927.7907	1957.3074	1018.6	137.2
927.929	1958.9139	1019.65	136.05
928.0673	1960.5197	1021.4	136.6
928.2055	1962.1247	1016.15	133.15
928.3438	1963.729	1015.05	134.75
928.482	1965.3325	1037.6	130.55
928.6202	1966.9353	1014.15	132.05
928.7584	1968.5374	1019.3	135.1
928.8965	1970.1387	1018.2	135.7
929.0346	1971.7393	1017.65	133.2
929.1727	1973.3392	1015.9	132
929.3108	1974.9383	1012.8	130.25
929.4489	1976.5366	1016.35	134.05
929.5869	1978.1342	1011.45	126.35
929.7249	1979.7311	1010.35	127.2
929.8629	1981.3273	1012.6	129.15
930.0009	1982.9227	1012.85	129.15
930.1388	1984.5173	1013.45	131.5
930.2767	1986.1112	1015.1	129.7
930.4146	1987.7044	1012.1	129.15
930.5525	1989.2968	1013.4	128.65
930.6904	1990.8885	1017.3	130.25
930.8282	1992.4795	1009.7	123.85
930.966	1994.0697	1015.65	132
931.1038	1995.6592	1007.8	125.45
931.2415	1997.2479	1013.95	129
931.3793	1998.8359	1013.55	129.45
931.517	2000.4232	1010.75	128.5
931.6547	2002.0097	1008.05	124.85
931.7923	2003.5955	1014.4	129.65
931.93	2005.1805	1007.35	122.15
932.0676	2006.7648	1012.75	130.05
932.2052	2008.3484	1007.15	124.15
932.3427	2009.9312	1009.2	122.8
932.4803	2011.5133	1009.25	127.15
932.6178	2013.0946	1009.85	127.1
932.7553	2014.6752	1007	124
932.8928	2016.2551	1008.9	124.95
933.0302	2017.8342	1004.9	121.4
933.1676	2019.4126	1010.3	128.6
933.305	2020.9902	1003.55	122.35
933.4424	2022.5672	1010	124.8
933.5798	2024.1433	1015.65	126.1
933.7171	2025.7188	1007.3	125.7
933.8544	2027.2935	1010.05	122.45
933.9917	2028.8674	1010.05	127.15
934.129	2030.4406	1006.25	123.75
934.2662	2032.0131	1006.5	124.2
934.4034	2033.5849	1010.6	122.5
934.5406	2035.1559	1004.7	120.4
934.6778	2036.7261	1006.8	125.25
934.8149	2038.2957	1004.85	121.9
934.952	2039.8645	1005.35	121.35
935.0891	2041.4325	1011.45	124.55
935.2262	2042.9998	1008.25	127.45
935.3632	2044.5664	1009.35	125.3
935.5002	2046.1323	1005.6	124.3
935.6372	2047.6974	1007.05	122.8
935.7742	2049.2617	1004.65	121.55
935.9111	2050.8254	1026	120.25
936.048	2052.3883	1010.35	126.2
936.1849	2053.9504	1003.95	119.65
936.3218	2055.5118	1004.55	121.05
936.4586	2057.0725	1012.4	124.8
936.5955	2058.6325	1007.8	123.6
936.7323	2060.1917	1004.4	123.6
936.869	2061.7502	1008.2	120.5
937.0058	2063.3079	1005.7	121.95
937.1425	2064.8649	1010.05	123.7
937.2792	2066.4212	1003.4	118.45
937.4159	2067.9767	1003.55	121.3
937.5525	2069.5315	1006.75	124.1
937.6891	2071.0856	1005.45	121.15
937.8257	2072.6389	1004.4	121.75
937.9623	2074.1915	1006.45	123.65
938.0989	2075.7433	1005.8	120.75
938.2354	2077.2945	1001.75	117.3
938.3719	2078.8448	1002.85	120.6
938.5084	2080.3945	1004.4	123.15
938.6448	2081.9434	1002.9	120.5
938.7812	2083.4916	1003.5	118.4
938.9176	2085.039	1004.55	118.8
939.054	2086.5857	1002.5	116.65
939.1903	2088.1317	1003.8	121.85
939.3267	2089.677	1004.15	120.5
939.463	2091.2215	1000.15	118.25
939.5992	2092.7652	1004.8	120.4
939.7355	2094.3083	1002.2	121.5
939.8717	2095.8506	998.45	117.3
940.0079	2097.3921	998.85	114.9
940.1441	2098.933	997.9	115.05
940.2802	2100.4731	1003.75	121.2
940.4163	2102.0124	1022.15	119.9
940.5524	2103.5511	1001.9	118.8
940.6885	2105.089	1001.6	118.45
940.8245	2106.6261	1000.7	117.85
940.9606	2108.1626	1005.3	122.45
941.0965	2109.6983	1028.45	116.45
941.2325	2111.2332	1004.45	120.1
941.3684	2112.7675	1001.05	117.4
941.5044	2114.301	1001.4	116.05
941.6403	2115.8337	999.95	117.1
941.7761	2117.3657	1000.3	115.5
941.912	2118.897	1001.85	117.6
942.0478	2120.4276	1008.35	119.45
942.1835	2121.9575	1000.4	116.5
942.3193	2123.4866	1021.9	125.6
942.455	2125.0149	1003.6	119.8
942.5907	2126.5426	998.45	117
942.7264	2128.0695	1007.7	121.05
942.8621	2129.5956	995.75	113.4
942.9977	2131.1211	1002.55	114.5
943.1333	2132.6458	1000.6	118.15
943.2689	2134.1698	999.8	117.6
943.4044	2135.693	999.9	114.95
943.54	2137.2155	1003.05	117.25
943.6755	2138.7373	998.6	117.45
943.8109	2140.2584	998.6	116.45
943.9464	2141.7787	1007.5	118.85
944.0818	2143.2983	996.15	115.4
944.2172	2144.8171	996.95	113.1
944.3526	2146.3353	1003.3	118.55
944.4879	2147.8527	996.3	111.45
944.6232	2149.3693	997.75	115.55
944.7585	2150.8853	999.2	115.55
944.8938	2152.4005	1002.05	118.95
945.029	2153.9149	994.75	111.6
945.1642	2155.4287	999.8	116.9
945.2994	2156.9417	995.45	110.4
945.4346	2158.454	998.05	110.05
945.5697	2159.9655	997.95	114.6
945.7048	2161.4764	996.25	111.95
945.8399	2162.9865	997	114.85
945.9749	2164.4958	997.25	111.75
946.1099	2166.0045	1002.15	115.3
946.2449	2167.5124	996.95	113.05
946.3799	2169.0195	993.75	109.9
946.5148	2170.526	992.85	110.35
946.6498	2172.0317	997.75	115.25
946.7846	2173.5367	992.2	107.95
946.9195	2175.0409	996.25	114.3
947.0543	2176.5445	996.85	115.3
947.1891	2178.0473	991.75	107.05
947.3239	2179.5494	1001.3	114.4
947.4587	2181.0507	994.3	110.45
947.5934	2182.5513	992.4	109.6
947.7281	2184.0512	997.35	114.5
947.8628	2185.5504	994.95	111.15
947.9974	2187.0488	993.55	112.3
948.132	2188.5465	997.55	113.55
948.2666	2190.0435	992.25	108.95
948.4012	2191.5397	991.3	110.45
948.5357	2193.0353	987.9	105.5
948.6702	2194.5301	996.15	113.4
948.8047	2196.0241	993.8	111.65
948.9392	2197.5175	992.3	110.85
949.0736	2199.0101	995.5	109.55
949.208	2200.502	992.2	109.25
949.3424	2201.9931	991.5	107.9
949.4767	2203.4835	989.35	105.05
949.611	2204.9733	995.05	107.05
949.7453	2206.4622	990.9	107.15
949.8796	2207.9505	993.6	108.55
950.0138	2209.438	987.75	105.4
950.148	2210.9248	989.3	104.3
950.2822	2212.4109	989.6	107.65
950.4164	2213.8962	992.3	105
950.5505	2215.3809	988.2	104.4
950.6846	2216.8648	987.45	104.6
950.8186	2218.3479	990.7	103.1
950.9527	2219.8304	988.25	104.45
951.0867	2221.3121	988.35	103.7
951.2207	2222.7931	984.7	103.35
951.3546	2224.2733	990.2	105.4
951.4886	2225.7529	987.35	104.6
951.6225	2227.2317	990.9	104.1
951.7563	2228.7098	982.8	99.25
951.8902	2230.1872	986.65	103.35
952.024	2231.6638	981.15	97.35
952.1578	2233.1397	993.3	105.6
952.2916	2234.6149	984.7	102.1
952.4253	2236.0894	980.15	95.9
952.559	2237.5632	993.25	100.75
952.6927	2239.0362	985.3	101.2
952.8263	2240.5085	984.5	102.9
952.9599	2241.9801	982.7	101.1
953.0935	2243.4509	984	101.35
953.2271	2244.921	982.75	100.45
953.3606	2246.3904	981.8	94.6
953.4941	2247.8591	981.5	98.2
953.6276	2249.3271	980.9	98.3
953.7611	2250.7943	980.2	96
953.8945	2252.2608	980.9	97.85
954.0279	2253.7266	980.25	98.15
954.1612	2255.1917	980.7	97.95
954.2946	2256.656	982.25	98.65
954.4279	2258.1197	981.7	97.2
954.5612	2259.5826	983.75	98.9
954.6944	2261.0447	981.9	95.6
954.8276	2262.5062	981.75	95.25
954.9608	2263.9669	984.25	98.95
955.094	2265.4269	979.95	95.5
955.2271	2266.8862	975.7	91.05
955.3602	2268.3448	978.95	94.95
955.4933	2269.8026	984.05	100.85
955.6264	2271.2598	977.8	94
955.7594	2272.7162	980.85	99.6
955.8924	2274.1719	979.45	96.7
956.0253	2275.6268	979.5	95.1
956.1583	2277.0811	978.6	94.2
956.2912	2278.5346	977.8	95.7
956.4241	2279.9874	979	96.25
956.5569	2281.4395	977.15	95.55
956.6897	2282.8908	982.4	94.35
956.8225	2284.3414	979.45	94.15
956.9553	2285.7914	977.85	97.35
957.088	2287.2406	981.55	95.15
957.2207	2288.689	975.6	93.35
957.3534	2290.1368	975.7	92.4
957.486	2291.5838	979.1	95.35
957.6186	2293.0302	978.8	94.75
957.7512	2294.4758	975.1	91.1
957.8838	2295.9206	976.75	91.7
958.0163	2297.3648	975.95	93.9
958.1488	2298.8082	977.2	94.25
958.2813	2300.251	974.6	92.85
958.4137	2301.693	977.95	92.95
958.5461	2303.1343	974.4	90.05
958.6785	2304.5748	973.45	91.45
958.8108	2306.0147	971.65	86.6
958.9432	2307.4538	974.6	89.1
959.0754	2308.8922	970.55	89.1
959.2077	2310.3299	974.65	90.05
959.3399	2311.7669	975.8	93.3
959.4721	2313.2031	973.45	93.4
959.6043	2314.6387	973.65	89.8
959.7365	2316.0735	971.35	87.85
959.8686	2317.5076	969.65	86.3
960.0006	2318.941	971.4	90.75
960.1327	2320.3737	970.55	86.55
960.2647	2321.8056	972.55	87.4
960.3967	2323.2369	972.45	87.95
960.5287	2324.6674	974.15	88.8
960.6606	2326.0972	975.55	90.9
960.7925	2327.5263	975.6	93
960.9244	2328.9547	983.2	99.25
961.0562	2330.3823	976.35	92.65
961.1881	2331.8092	975.2	89.9
961.3198	2333.2355	972.7	89.85
961.4516	2334.661	968.85	86.15
961.5833	2336.0858	971.7	87.8
961.715	2337.5098	966.1	83.65
961.8467	2338.9332	971.35	86.15
961.9783	2340.3558	972.7	85.65
962.1099	2341.7778	969.1	85.75
962.2415	2343.199	967.75	83.05
962.373	2344.6195	965.45	84.3
962.5045	2346.0393	965	81.15
962.636	2347.4583	968.4	84.55
962.7675	2348.8767	969.05	83.9
962.8989	2350.2943	968.3	83.95
963.0303	2351.7113	965.8	81.45
963.1617	2353.1275	965.6	83.2
963.293	2354.543	976.1	86.15
963.4243	2355.9578	968.15	85.3
963.5556	2357.3718	962.4	77.9
963.6868	2358.7852	967.1	80.7
963.818	2360.1978	965.8	81.1
963.9492	2361.6098	964.4	80.9
964.0803	2363.021	965.5	78.85
964.2114	2364.4315	963.95	81.5
964.3425	2365.8413	967.15	82.3
964.4736	2367.2504	964.45	80.7
964.6046	2368.6587	966.85	83.9
964.7356	2370.0664	964.05	80.25
964.8666	2371.4733	963.05	80.45
964.9975	2372.8795	963.65	81.35
965.1284	2374.285	963.25	79.3
965.2593	2375.6899	961.35	77.6
965.3901	2377.0939	962.05	78.4
965.5209	2378.4973	961.65	78.7
965.6517	2379.9	962.2	79.9
965.7825	2381.3019	962.35	78.1
965.9132	2382.7032	962.2	80.15
966.0439	2384.1037	961	78.7
966.1745	2385.5035	961.4	79.6
966.3051	2386.9027	959.95	76.75
966.4357	2388.3011	961	72.6
966.5663	2389.6987	961.45	79.25
966.6968	2391.0957	960.2	78.35
966.8273	2392.492	956.65	72.75
966.9578	2393.8876	959.4	76.35
967.0882	2395.2824	957.8	75.45
967.2186	2396.6765	955.15	70.05
967.349	2398.07	957.65	76.7
967.4793	2399.4627	957.45	72.75
967.6097	2400.8547	956.35	71.85
967.7399	2402.246	962.25	72.45
967.8702	2403.6366	959.35	76.7
968.0004	2405.0265	956.15	72.45
968.1306	2406.4156	959.1	71.05
968.2607	2407.8041	961.35	74.95
968.3909	2409.1918	955.7	70.2
968.521	2410.5789	955.1	71.1
968.651	2411.9652	957.1	69.9
968.781	2413.3508	956.05	72
968.911	2414.7358	958.25	74.65
969.041	2416.12	956.6	74
969.1709	2417.5035	952.8	68.5
969.3008	2418.8863	955.2	70.3
969.4307	2420.2684	953.65	69.7
969.5606	2421.6497	952.2	68.65
969.6904	2423.0304	952	68.2
969.8201	2424.4104	953.9	69
969.9499	2425.7896	959.45	71.7
970.0796	2427.1682	952.6	70
970.2093	2428.546	954.05	69.25
970.3389	2429.9232	957.2	71.85
970.4685	2431.2996	952.3	71.05
970.5981	2432.6753	952.8	69.6
970.7277	2434.0503	951.6	67
970.8572	2435.4246	950.7	67.55
970.9867	2436.7982	954.6	69.05
971.1161	2438.1711	951.8	71.8
971.2456	2439.5433	951.55	67.2
971.375	2440.9148	958.05	69.4
971.5043	2442.2856	949.2	66.45
971.6336	2443.6557	952.2	68.35
971.7629	2445.025	948.85	66.2
971.8922	2446.3937	951.8	67.65
972.0214	2447.7617	954.45	72.75
972.1506	2449.1289	948	65.65
972.2798	2450.4955	953.55	67.2
972.4089	2451.8613	947.75	63.4
972.538	2453.2265	946.2	63.05
972.6671	2454.5909	953.15	68
972.7961	2455.9546	947.3	64.2
972.9251	2457.3177	950.3	67.8
973.0541	2458.68	951.2	65.35
973.1831	2460.0416	950.6	66.05
973.312	2461.4025	947.7	64.35
973.4408	2462.7627	958.95	62.35
973.5697	2464.1222	948	66.15
973.6985	2465.4811	951.55	66.85
973.8273	2466.8392	950.4	66.25
973.956	2468.1966	950.9	64.1
974.0847	2469.5533	951.75	65.8
974.2134	2470.9093	948.95	64
974.3421	2472.2645	945.8	59.9
974.4707	2473.6191	947.85	65.2
974.5993	2474.973	945.05	62.7
974.7278	2476.3262	950.75	65.15
974.8563	2477.6787	947	63.85
974.9848	2479.0305	951.35	67.7
975.1132	2480.3816	950.65	65
975.2417	2481.7319	945.6	63.95
975.37	2483.0816	947.15	60.75
975.4984	2484.4306	948.85	66.25
975.6267	2485.7789	945.7	62.1
975.755	2487.1264	948.65	65.55
975.8833	2488.4733	944.95	62.3
976.0115	2489.8195	960.8	61
976.1397	2491.165	951.55	64.05
976.2678	2492.5097	946.05	62.1
976.3959	2493.8538	944.5	61.1
976.524	2495.1972	944.2	59.75
976.6521	2496.5398	944.95	60.95
976.7801	2497.8818	949	63.3
976.9081	2499.2231	946.05	63.35
977.036	2500.5637	946.2	60.7
977.164	2501.9035	943.35	60.4
977.2918	2503.2427	944.7	59.5
977.4197	2504.5812	943.9	61.95
977.5475	2505.919	945.45	59.35
977.6753	2507.256	941.7	58.2
977.8031	2508.5924	944.45	60.3
977.9308	2509.9281	948.25	59.65
978.0585	2511.2631	941.6	56.85
978.1861	2512.5974	939.2	56.35
978.3137	2513.9309	942	57.75
978.4413	2515.2638	974.15	61.15
978.5689	2516.596	943.55	59.65
978.6964	2517.9275	940.55	56.95
978.8239	2519.2583	940.8	55.95
978.9513	2520.5884	941.9	57.8
979.0788	2521.9178	942.4	58.05
979.2062	2523.2465	939.85	57.1
979.3335	2524.5745	940.85	56.9
979.4608	2525.9018	939.9	55.45
979.5881	2527.2284	938.9	55.95
979.7154	2528.5543	938.15	56.35
979.8426	2529.8796	940.4	57.2
979.9698	2531.2041	938.25	55.2
980.0969	2532.5279	936.65	53.55
980.224	2533.851	939.2	55.15
980.3511	2535.1735	939.65	55.2
980.4781	2536.4952	940.6	55.4
980.6052	2537.8163	937.3	52.4
980.7321	2539.1366	937.75	54.15
980.8591	2540.4562	939.7	57.3
980.986	2541.7752	938.05	54.95
981.1129	2543.0935	933.45	48.95
981.2397	2544.411	938.75	56.95
981.3665	2545.7279	934.5	51.55
981.4933	2547.0441	937.8	56
981.62	2548.3596	941.65	54.95
981.7467	2549.6744	935.1	52.15
981.8734	2550.9885	939.05	52.6
982.0001	2552.3019	934.75	52.05
982.1267	2553.6146	936.35	51
982.2532	2554.9266	935.1	52.6
982.3798	2556.2379	936.25	49.7
982.5063	2557.5485	933.4	50.35
982.6327	2558.8585	944.8	54.3
982.7592	2560.1677	940.45	52.85
982.8856	2561.4762	939	56
983.0119	2562.7841	935.95	49.9
983.1383	2564.0913	931.75	50.1
983.2646	2565.3977	932.5	50.6
983.3908	2566.7035	935.2	50.5
983.517	2568.0086	937.2	53.5
983.6432	2569.313	935.45	52.25
983.7694	2570.6167	937.8	53.15
983.8955	2571.9197	934.15	52
984.0216	2573.222	937.8	51.55
984.1476	2574.5236	933.75	50.45
984.2737	2575.8246	937.15	51.2
984.3996	2577.1248	935.25	48.7
984.5256	2578.4244	932.45	51.6
984.6515	2579.7232	936.85	52.25
984.7774	2581.0214	965.45	53
984.9032	2582.3189	933.3	53.15
985.029	2583.6157	938.95	50.5
985.1548	2584.9118	933.8	52.5
985.2806	2586.2072	934.15	51.1
985.4063	2587.5019	932.2	49.75
985.5319	2588.7959	934.1	50.6
985.6576	2590.0893	933.25	47.2
985.7832	2591.3819	934.3	52.45
985.9087	2592.6739	932.1	48.8
986.0343	2593.9652	933.7	49.95
986.1597	2595.2557	933.75	52.7
986.2852	2596.5456	935.1	49.45
986.4106	2597.8348	931.75	49.75
986.536	2599.1234	930.9	49.5
986.6614	2600.4112	933.95	47.3
986.7867	2601.6983	934.85	48.65
986.912	2602.9848	933	50.55
987.0372	2604.2705	939.8	49.7
987.1624	2605.5556	936.8	54.1
987.2876	2606.84	932.45	51.6
987.4128	2608.1237	933.45	48.35
987.5379	2609.4067	928.4	44.95
987.6629	2610.689	940.9	48.8
987.788	2611.9707	936.6	50.45
987.913	2613.2516	933.7	46.4
988.0379	2614.5319	931.3	48.25
988.1629	2615.8115	931.55	45.9
988.2878	2617.0903	930.45	46.7
988.4126	2618.3685	926.65	42.95
988.5375	2619.6461	932.7	49.45
988.6622	2620.9229	929.5	47.55
988.787	2622.199	928.2	43.55
988.9117	2623.4745	930.3	47.2
989.0364	2624.7493	928.65	44.25
989.161	2626.0234	926.7	43.8
989.2857	2627.2968	927.9	43.3
989.4102	2628.5695	930.75	45.95
989.5348	2629.8415	928.65	45.75
989.6593	2631.1128	928.5	43.7
989.7837	2632.3835	926.65	42.1
989.9082	2633.6535	927.55	45.45
990.0326	2634.9228	927.35	43.95
990.1569	2636.1914	927.75	44.7
990.2812	2637.4593	933.3	43.9
990.4055	2638.7265	929.65	46.8
990.5298	2639.9931	926.95	44.2
990.654	2641.259	928.3	43.95
990.7782	2642.5242	926.65	41.5
990.9023	2643.7887	928.35	46.2
991.0264	2645.0525	926.7	43.45
991.1505	2646.3156	926.1	42.65
991.2745	2647.5781	926.3	42.1
991.3985	2648.8398	923	38.75
991.5225	2650.1009	964.1	42.95
991.6464	2651.3613	925.55	43.8
991.7703	2652.6211	923.95	38.95
991.8942	2653.8801	925.75	43.2
992.018	2655.1385	927.6	42.7
992.1418	2656.3961	923.8	40.45
992.2655	2657.6531	923	39.75
992.3892	2658.9094	925.8	40.3
992.5129	2660.1651	924.65	42.05
992.6366	2661.42	925	41.4
992.7602	2662.6743	925.55	40.7
992.8837	2663.9279	924.2	42.65
993.0073	2665.1808	925.5	40.4
993.1307	2666.433	925.05	42.4
993.2542	2667.6846	924.15	41.05
993.3776	2668.9354	926.85	40.7
993.501	2670.1856	927.4	41.95
993.6244	2671.4351	924.1	42.35
993.7477	2672.6839	926.1	43.1
993.8709	2673.9321	924.05	39.9
993.9942	2675.1795	926.95	43.8
994.1174	2676.4263	923.15	38.5
994.2405	2677.6724	922.85	39.9
994.3637	2678.9179	926.9	41.9
994.4868	2680.1626	926.75	43
994.6098	2681.4067	924.7	40.2
994.7328	2682.6501	921.35	39.3
994.8558	2683.8928	925.3	41.45
994.9788	2685.1348	923.8	43.2
995.1017	2686.3761	923.7	40.75
995.2245	2687.6168	921.6	40.55
995.3474	2688.8568	921.5	38.85
995.4702	2690.0961	920.2	35.65
995.5929	2691.3348	922.1	38.6
995.7156	2692.5727	923	38.7
995.8383	2693.81	919.5	35.95
995.961	2695.0466	920.7	36.7
996.0836	2696.2826	922.2	37.45
996.2062	2697.5178	921.8	34.2
996.3287	2698.7524	920.95	39.6
996.4512	2699.9863	927.55	41.55
996.5737	2701.2195	920.65	38.35
996.6961	2702.452	925.7	41.9
996.8185	2703.6839	924.2	41.2
996.9408	2704.9151	921.95	39.5
997.0631	2706.1456	923.95	39.75
997.1854	2707.3755	920.35	36.1
997.3077	2708.6046	925.25	39
997.4299	2709.8331	922	38.05
997.552	2711.0609	922.95	38.2
997.6742	2712.2881	922.95	38.05
997.7963	2713.5145	926	40.05
997.9183	2714.7403	922.5	42.7
998.0403	2715.9654	922.7	39
998.1623	2717.1899	939.7	41.6
998.2842	2718.4136	924.3	39.95
998.4062	2719.6367	924.65	42.3
998.528	2720.8591	934.9	45.55
998.6498	2722.0809	927.4	41.3
998.7716	2723.3019	929.05	40.5
998.8934	2724.5223	928.05	43.7
999.0151	2725.7421	926.5	40.95
999.1368	2726.9611	925.25	39.75
999.2584	2728.1795	929.7	42.35
999.38	2729.3972	923.3	40.25
999.5016	2730.6142	936.05	40.1
999.6231	2731.8306	925.2	41.25
999.7446	2733.0462	921.2	35.5
999.8661	2734.2612	927.1	38.2
999.9875	2735.4756	921.95	35.55
1000.1089	2736.6892	921.45	36.6
1000.2302	2737.9022	920.65	37.75
1000.3515	2739.1145	918.2	33.05
1000.4728	2740.3262	927.65	34.75
1000.594	2741.5372	919.15	35.75
1000.7152	2742.7475	919.75	36.2
1000.8363	2743.9571	921.75	36.8
1000.9575	2745.1661	920.9	32.85
1001.0785	2746.3744	919.8	35.15
1001.1996	2747.582	916.2	33
1001.3206	2748.7889	917.7	31.85
1001.4415	2749.9952	916.9	36.65
1001.5625	2751.2008	916.3	32.05
1001.6833	2752.4057	918.9	34.15
1001.8042	2753.61	916.6	33.6
1001.925	2754.8136	918.5	32.9
1002.0458	2756.0165	917.75	35.7
1002.1665	2757.2188	914.5	32
1002.2872	2758.4204	914.75	31.8
1002.4078	2759.6213	916.9	33.2
1002.5285	2760.8215	921.75	32.5
1002.649	2762.0211	916.15	30.65
1002.7696	2763.22	919.2	33.2
1002.8901	2764.4182	917.1	31.6
1003.0106	2765.6158	913.7	29.15
1003.131	2766.8127	913.25	31.05
1003.2514	2768.009	913.55	32.4
1003.3717	2769.2045	914.85	29.25
1003.492	2770.3994	916.3	31.95
1003.6123	2771.5936	916.6	32.1
1003.7325	2772.7872	911.8	27.85
1003.8527	2773.9801	915.2	30.7
1003.9729	2775.1723	928.5	28.65
1004.093	2776.3639	911.6	30.4
1004.2131	2777.5548	913.6	28.35
1004.3331	2778.745	914.45	31.25
1004.4531	2779.9346	913.55	31.55
1004.5731	2781.1235	913.85	28.85
1004.693	2782.3117	913.85	31.1
1004.8129	2783.4992	913.1	29.9
1004.9328	2784.6861	914.4	30.35
1005.0526	2785.8723	913.1	27.4
1005.1723	2787.0579	912.55	27.65
1005.2921	2788.2428	913.05	29.45
1005.4118	2789.427	912.45	28.55
1005.5314	2790.6106	912.1	30.6
1005.651	2791.7935	911.75	27.35
1005.7706	2792.9757	910.95	28.3
1005.8902	2794.1573	914.75	28.6
1006.0097	2795.3382	911.8	28.6
1006.1291	2796.5184	911.55	28.95
1006.2485	2797.698	915.55	31.45
1006.3679	2798.8769	912.9	29.15
1006.4873	2800.0551	912.15	28.8
1006.6066	2801.2327	918.1	31.45
1006.7258	2802.4096	913.25	29.3
1006.8451	2803.5859	912.15	28.25
1006.9642	2804.7615	914.1	30.3
1007.0834	2805.9364	913.3	32.65
1007.2025	2807.1106	913.65	29.55
1007.3216	2808.2842	914.5	33.05
1007.4406	2809.4572	917.3	33.3
1007.5596	2810.6294	915.9	31.95
1007.6785	2811.801	914.7	33.35
1007.7975	2812.972	919.85	36.8
1007.9163	2814.1423	917.65	34.85
1008.0352	2815.3119	919.3	34.6
1008.154	2816.4808	922.55	38.9
1008.2727	2817.6491	924.8	39.35
1008.3914	2818.8167	922.05	40.55
1008.5101	2819.9837	930.55	42.65
1008.6288	2821.15	928.6	46.5
1008.7474	2822.3157	928.5	45
1008.8659	2823.4807	933.95	50.15
1008.9844	2824.645	937.5	52.5
1009.1029	2825.8086	941.25	59.3
1009.2214	2826.9716	945.2	62.45
1009.3398	2828.134	951.85	68.45
1009.4581	2829.2957	953.55	69.55
1009.5764	2830.4567	955.6	73.7
1009.6947	2831.617	960.15	75.4
1009.813	2832.7767	960.1	76.8
1009.9312	2833.9358	957.35	73.3
1010.0493	2835.0941	964.7	77.45
1010.1675	2836.2519	958.95	76.35
1010.2855	2837.4089	955.9	73.15
1010.4036	2838.5653	954.2	71.7
1010.5216	2839.7211	951.8	70.15
1010.6396	2840.8761	950.15	65.9
1010.7575	2842.0306	945.05	63.75
1010.8754	2843.1843	948.55	64.45
1010.9932	2844.3374	948.75	65.6
1011.111	2845.4899	954.2	70.85
1011.2288	2846.6417	948.95	66.3
1011.3465	2847.7928	952.1	69.5
1011.4642	2848.9433	955.6	73.95
1011.5818	2850.0931	953.05	68.75
1011.6995	2851.2422	957.15	71.5
1011.817	2852.3907	956.3	72.4
1011.9345	2853.5385	956.75	70.55
1012.052	2854.6857	982.15	72.45
1012.1695	2855.8323	956.6	73.55
1012.2869	2856.9781	959.4	75.8
1012.4042	2858.1233	960.85	77.25
1012.5216	2859.2679	961.85	81
1012.6389	2860.4118	963.55	80.75
1012.7561	2861.555	973.9	85.65
1012.8733	2862.6976	969.45	84.45
1012.9905	2863.8395	968.15	85.3
1013.1076	2864.9808	971.55	87.3
1013.2247	2866.1214	968.45	86.45
1013.3417	2867.2614	971.4	87.8
1013.4587	2868.4007	968.45	83.15
1013.5757	2869.5393	972.3	86.5
1013.6926	2870.6773	973.25	84.2
1013.8095	2871.8146	975.85	90.3
1013.9263	2872.9513	977.2	92.35
1014.0431	2874.0874	973.85	91.65
1014.1599	2875.2227	974.65	88.2
1014.2766	2876.3574	976.85	92.8
1014.3933	2877.4915	979.95	97.75
1014.51	2878.6249	977.55	95.3
1014.6266	2879.7577	982.8	96.85
1014.7431	2880.8898	994	100.3
1014.8596	2882.0212	979.8	95.75
1014.9761	2883.152	987.75	106.05
1015.0925	2884.2821	986.1	104.05
1015.2089	2885.4116	984.1	100.2
1015.3253	2886.5405	987.2	102.95
1015.4416	2887.6686	990.65	104.1
1015.5579	2888.7962	984.15	102.35
1015.6741	2889.923	986.45	103.2
1015.7903	2891.0493	985.1	100.3
1015.9065	2892.1748	984.35	101.85
1016.0226	2893.2997	988.3	103.8
1016.1387	2894.424	981.6	100.1
1016.2547	2895.5476	987.15	103.45
1016.3707	2896.6706	983.7	101.55
1016.4866	2897.7929	986.3	102.9
1016.6025	2898.9145	984.2	100.55
1016.7184	2900.0355	987.05	102.55
1016.8342	2901.1559	987.25	102.6
1016.95	2902.2756	988.2	100.9
1017.0658	2903.3946	983.7	102.1
1017.1815	2904.513	989	103.4
1017.2971	2905.6308	984.45	101.95
1017.4127	2906.7479	989.55	104.4
1017.5283	2907.8643	984.9	99.6
1017.6439	2908.9801	985.5	102.85
1017.7594	2910.0953	985.7	104.35
1017.8748	2911.2098	988.55	103.05
1017.9902	2912.3236	994.25	102.85
1018.1056	2913.4368	987.1	101.1
1018.2209	2914.5494	982.8	99.85
1018.3362	2915.6613	988.8	99.15
1018.4515	2916.7725	984.25	98.2
1018.5667	2917.8831	981.65	97.5
1018.6819	2918.9931	978.55	90.35
1018.797	2920.1024	977	92.35
1018.9121	2921.211	975.6	93.6
1019.0271	2922.319	979.5	94.65
1019.1421	2923.4264	973.4	90.95
1019.2571	2924.5331	967.45	85.55
1019.372	2925.6391	971.75	88.4
1019.4869	2926.7445	973.15	90.8
1019.6017	2927.8493	973.1	88.6
1019.7165	2928.9534	975.7	90.05
1019.8313	2930.0569	974.9	89.45
1019.946	2931.1597	976.95	93.25
1020.0606	2932.2619	977	93.8
1020.1753	2933.3634	975.9	92.15
1020.2899	2934.4643	984.3	95.4
1020.4044	2935.5645	986.1	98.6
1020.5189	2936.6641	979.85	93.35
1020.6334	2937.763	977.65	95.95
1020.7478	2938.8613	977.05	93.55
1020.8622	2939.959	983.55	95
1020.9765	2941.056	973.25	92.5
1021.0908	2942.1523	974.6	89.05
1021.2051	2943.248	968.2	85.4
1021.3193	2944.3431	963.5	79.55
1021.4334	2945.4375	958.75	76.4
1021.5476	2946.5313	956.45	74
1021.6617	2947.6244	952.4	69.2
1021.7757	2948.7169	950.45	66.05
1021.8897	2949.8087	948.25	64.1
1022.0037	2950.8999	942.2	58.9
1022.1176	2951.9904	939.35	55
1022.2315	2953.0803	937.85	51.35
1022.3453	2954.1696	936.55	55.4
1022.4591	2955.2582	934	50.7
1022.5728	2956.3462	931.5	48.85
1022.6865	2957.4335	930.55	45.6
1022.8002	2958.5202	932.2	46.5
1022.9138	2959.6062	932.5	51
1023.0274	2960.6916	928.15	45.5
1023.141	2961.7764	931.75	46.55
1023.2545	2962.8605	931.45	48.1
1023.3679	2963.9439	933.1	50.2
1023.4813	2965.0267	931.15	46
1023.5947	2966.1089	952.2	45.3
1023.708	2967.1905	930.25	46.7
1023.8213	2968.2714	931.6	50.85
1023.9346	2969.3516	929.7	46
1024.0478	2970.4312	937.9	49.2
1024.1609	2971.5102	926.25	42.2
1024.274	2972.5885	929.1	45.85
1024.3871	2973.6662	933.55	45.05
1024.5002	2974.7432	928.15	44.5
1024.6132	2975.8196	932	49.3
1024.7261	2976.8954	929.15	47.45
1024.839	2977.9705	928.45	44.7
1024.9519	2979.045	929.85	47.6
1025.0647	2980.1188	930.55	46.1
1025.1775	2981.192	926.55	44.2
1025.2902	2982.2645	929.85	45.15
1025.4029	2983.3364	925.6	43.2
1025.5156	2984.4077	927.2	43.05
1025.6282	2985.4783	931.25	43.3
1025.7407	2986.5483	923.15	41.4
1025.8532	2987.6177	923.3	39.75
1025.9657	2988.6864	922.05	38.5
1026.0782	2989.7545	920.2	35.45
1026.1906	2990.8219	919.85	38.6
1026.3029	2991.8887	919.65	32.95
1026.4152	2992.9548	917.95	34
1026.5275	2994.0204	915.25	32.3
1026.6397	2995.0852	913.85	30.4
1026.7519	2996.1495	911.85	27.4
1026.864	2997.2131	910.7	27.6
1026.9761	2998.276	911.9	29.85
1027.0882	2999.3383	908.1	23.75
1027.2002	3000.4	907.05	22.65
1027.3122	3001.4611	907.05	22.95
1027.4241	3002.5215	908.15	25.85
1027.536	3003.5812	906.8	23.55
1027.6478	3004.6404	903.05	18.7
1027.7596	3005.6989	905.95	21.9
1027.8714	3006.7567	904.5	22.05
1027.9831	3007.8139	930.4	20
1028.0947	3008.8705	904.2	19.45
1028.2064	3009.9264	918.7	17.5
1028.3179	3010.9818	903.6	21.75
1028.4295	3012.0364	903.1	19.3
1028.541	3013.0905	899.55	16.6
1028.6524	3014.1439	902	19.85
1028.7638	3015.1966	899.7	16.8
1028.8752	3016.2487	900.6	16.35
1028.9865	3017.3002	908.75	20.45
1029.0978	3018.3511	901.1	18
1029.209	3019.4013	899.95	16.2
1029.3202	3020.4509	899.45	14.8
1029.4314	3021.4998	900.1	16.65
1029.5425	3022.5481	898.9	14.6
1029.6535	3023.5958	899.2	17.2
1029.7645	3024.6428	901.85	18.1
1029.8755	3025.6892	898.7	17.3
1029.9864	3026.735	899	16.7
1030.0973	3027.7802	900.45	18.2
1030.2082	3028.8247	898.35	15
1030.319	3029.8685	898.4	14.2
1030.4297	3030.9118	900.5	14.65
1030.5404	3031.9544	897.55	15.15
1030.6511	3032.9963	900.55	18.7
1030.7617	3034.0376	900.05	16.45
1030.8723	3035.0783	902.25	14.5
1030.9829	3036.1184	900.3	15.7
1031.0934	3037.1578	898.8	18.15
1031.2038	3038.1966	901.35	16.7
1031.3142	3039.2348	899.3	16.65
1031.4246	3040.2723	909.8	17.55
1031.5349	3041.3092	898.65	14.9
1031.6452	3042.3455	897.2	12.85
1031.7554	3043.3811	899.6	15.9
1031.8656	3044.4161	900.75	18.65
1031.9758	3045.4505	897.55	15
1032.0859	3046.4842	900.05	16.35
1032.1959	3047.5173	898.15	15
1032.3059	3048.5498	900.95	17.3
1032.4159	3049.5816	900	17.35
1032.5258	3050.6128	902.05	17.85
1032.6357	3051.6434	902.05	17.6
1032.7455	3052.6734	898.85	15.1
1032.8553	3053.7027	898.6	16
1032.9651	3054.7314	897.3	14.85
1033.0748	3055.7594	899	15.3
1033.1845	3056.7868	900.9	17.2
1033.2941	3057.8136	901.05	19.55
1033.4037	3058.8398	898	16.45
1033.5132	3059.8653	898.35	14.95
1033.6227	3060.8902	901.85	19.1
1033.7321	3061.9145	899.8	14.35
1033.8415	3062.9381	902	18.35
1033.9509	3063.9612	918.4	20.45
1034.0602	3064.9835	901.2	18.5
1034.1694	3066.0053	903.5	19
1034.2787	3067.0264	899	15.85
1034.3878	3068.0469	901.7	18.4
1034.497	3069.0668	905.6	20.2
1034.6061	3070.086	898.6	17.05
1034.7151	3071.1046	903	18.1
1034.8241	3072.1226	900.7	18.1
1034.9331	3073.1399	898.5	15.15
1035.042	3074.1567	898	14.45
1035.1508	3075.1727	901.05	16.2
1035.2597	3076.1882	898.2	14.7
1035.3684	3077.203	899.85	17.45
1035.4772	3078.2173	899.2	15.35
1035.5859	3079.2308	901.15	17.95
1035.6945	3080.2438	900.85	13.8
1035.8031	3081.2561	896.8	12.75
1035.9117	3082.2678	894.35	12.85
1036.0202	3083.2789	896.5	13.45
1036.1286	3084.2893	898.1	14.4
1036.2371	3085.2991	896.55	12.3
1036.3454	3086.3083	901.95	13.85
1036.4538	3087.3169	896.9	11.15
1036.562	3088.3248	899.4	14.9
1036.6703	3089.3321	897.4	12.45
1036.7785	3090.3388	894.75	12.5
1036.8866	3091.3449	896.3	11.6
1036.9948	3092.3503	896.9	10.9
1037.1028	3093.3551	895.25	13.25
1037.2108	3094.3593	892.95	10.45
1037.3188	3095.3629	894.6	13.65
1037.4267	3096.3658	896.8	11.4
1037.5346	3097.3681	896.6	15.8
1037.6425	3098.3698	897.6	12.25
1037.7503	3099.3708	902.9	13.9
1037.858	3100.3713	893.4	9.6
1037.9657	3101.3711	895.15	10.45
1038.0734	3102.3702	1033.35	8.15
1038.181	3103.3688	896.75	12.15
1038.2886	3104.3667	892.95	10
1038.3961	3105.364	891.3	8.9
1038.5036	3106.3607	897.35	11.95
1038.611	3107.3568	894	8.55
1038.7184	3108.3522	893.3	10.6
1038.8257	3109.347	895.2	11.1
1038.933	3110.3412	897.85	10.35
1039.0403	3111.3348	892.95	9.6
1039.1475	3112.3277	891.75	10
1039.2547	3113.32	893.6	11.3
1039.3618	3114.3117	892.5	7.95
1039.4689	3115.3028	892.5	10.7
1039.5759	3116.2932	894.7	8.35
1039.6829	3117.2831	898.3	10.35
1039.7898	3118.2723	893.9	9.5
1039.8967	3119.2608	892.45	7.85
1040.0035	3120.2488	893.9	9.75
1040.1103	3121.2361	891.95	8.1
1040.2171	3122.2229	892.7	9.7
1040.3238	3123.209	893.2	9.75
1040.4305	3124.1944	892.65	9
1040.5371	3125.1793	892.6	8.55
1040.6437	3126.1635	891	8.1
1040.7502	3127.1471	891.4	7.55
1040.8567	3128.1301	892.05	7.6
1040.9631	3129.1125	891.75	7.95
1041.0695	3130.0942	891.65	8.3
1041.1759	3131.0753	900.9	8.25
1041.2822	3132.0558	894.5	7.7
1041.3884	3133.0357	892.8	8.4
1041.4946	3134.015	891.15	7.95
1041.6008	3134.9936	892.8	9
1041.7069	3135.9716	911.95	9.25
1041.813	3136.949	892.05	9.3
1041.919	3137.9258	907.25	4.2
1042.025	3138.902	897.6	11.25
1042.1309	3139.8775	889.2	6.2
1042.2368	3140.8524	889.05	7.55
1042.3427	3141.8267	894.3	9.55
1042.4485	3142.8004	891	8.55
1042.5542	3143.7735	898.05	8.75
1042.6599	3144.7459	893.3	9.5
1042.7656	3145.7178	890.9	7.95
1042.8712	3146.689	889.05	7.05
1042.9768	3147.6596	889.65	5.55
1043.0823	3148.6295	891.05	9.7
1043.1878	3149.5989	891.05	8.75
1043.2932	3150.5676	890.1	8.2
1043.3986	3151.5357	890.25	7.95
1043.5039	3152.5032	890.7	8.85
1043.6092	3153.4701	890.8	7.5
1043.7145	3154.4364	893.5	8.45
1043.8197	3155.402	890.3	8.7
1043.9248	3156.367	891	6.4
1044.03	3157.3315	909.35	7.4
1044.135	3158.2952	890.4	6.55
1044.24	3159.2584	890.55	8.15
1044.345	3160.221	890	6.2
1044.4499	3161.1829	890.25	7.9
1044.5548	3162.1442	889.7	5.7
1044.6596	3163.105	890.55	6.65
1044.7644	3164.065	888.45	4.4
1044.8692	3165.0245	892.7	7.25
1044.9739	3165.9834	888.45	6.3
1045.0785	3166.9416	889.45	7.95
1045.1831	3167.8993	889.2	7.05
1045.2877	3168.8563	890.65	6.45
1045.3922	3169.8127	889.5	7
1045.4966	3170.7684	889.4	5.8
1045.6011	3171.7236	890.4	6.7
1045.7054	3172.6782	889.8	7.6
1045.8098	3173.6321	891.8	8.05
1045.914	3174.5854	895.85	8.95
1046.0183	3175.5381	889.5	5.6
1046.1224	3176.4902	890.55	7
1046.2266	3177.4417	888.2	4.8
1046.3307	3178.3926	889.1	4.5
1046.4347	3179.3428	887.8	6.6
1046.5387	3180.2924	887.05	3.25
1046.6427	3181.2415	889.15	7.25
1046.7466	3182.1899	891.55	8.2
1046.8504	3183.1377	890.15	7.9
1046.9542	3184.0848	890.9	4.85
1047.058	3185.0314	889.7	7.2
1047.1617	3185.9773	889.55	6.75
1047.2654	3186.9227	890.55	7.1
1047.369	3187.8674	889.65	5.55
1047.4726	3188.8115	892.55	5.85
1047.5761	3189.755	888.85	4.9
1047.6796	3190.6979	888.3	3.5
1047.783	3191.6402	887.2	4.1
1047.8864	3192.5818	889.6	8
1047.9898	3193.5229	902.45	5.1
1048.0931	3194.4633	889.4	5.9
1048.1963	3195.4031	889.65	7.1
1048.2995	3196.3423	888	8
1048.4027	3197.2809	887.8	3.4
1048.5058	3198.2189	890.25	6.85
1048.6089	3199.1563	906.95	5.7
1048.7119	3200.0931	890.25	6.3
1048.8148	3201.0292	886.95	3.75
1048.9178	3201.9648	888.3	4.95
1049.0206	3202.8997	892.25	5.65
1049.1235	3203.834	887.5	2.4
1049.2262	3204.7677	889.25	6.75
1049.329	3205.7008	891.05	6.45
1049.4317	3206.6333	888.25	8.95
1049.5343	3207.5652	891.3	5.3
1049.6369	3208.4964	888.1	4.45
1049.7394	3209.4271	889.1	6.2
1049.8419	3210.3571	888.4	4.45
1049.9444	3211.2865	889.55	6.45
1050.0468	3212.2154	890	6.65
1050.1491	3213.1436	891.1	3.65
1050.2514	3214.0712	896.45	6.65
1050.3537	3214.9982	889.95	7.65
1050.4559	3215.9246	889.35	6.25
1050.5581	3216.8503	884.85	3.2
1050.6602	3217.7755	886.8	1.15
1050.7623	3218.7001	887.65	7
1050.8643	3219.624	889.15	7.25
1050.9663	3220.5473	889.8	6.85
1051.0682	3221.4701	889.75	4.85
1051.1701	3222.3922	889.2	5.85
1051.2719	3223.3137	887.1	4.1
1051.3737	3224.2346	885.65	1.35
1051.4754	3225.1549	886.95	3.15
1051.5771	3226.0746	888.95	6.65
1051.6788	3226.9937	888.85	5.6
1051.7804	3227.9121	886.8	4
1051.8819	3228.83	888.5	7.35
1051.9834	3229.7473	887.7	3
1052.0849	3230.6639	889.7	5.2
1052.1863	3231.5799	887.75	4.15
1052.2876	3232.4954	886.45	3.05
1052.3889	3233.4102	885.8	3.25
1052.4902	3234.3244	889.1	4.2
1052.5914	3235.238	887.2	4.55
1052.6926	3236.151	911.4	2.65
1052.7937	3237.0634	885.85	4.4
1052.8948	3237.9752	889.65	7.85
1052.9958	3238.8864	887.65	3.55
1053.0968	3239.797	887.15	6.9
1053.1977	3240.7069	886.75	2.85
1053.2986	3241.6163	891.2	6.4
1053.3994	3242.5251	886	5
1053.5002	3243.4332	886.95	4.7
1053.6009	3244.3408	886.95	4.85
1053.7016	3245.2477	886.75	2.5
1053.8022	3246.154	889.55	5.5
1053.9028	3247.0598	888.4	5.75
1054.0034	3247.9649	888.6	5.5
1054.1039	3248.8694	887.85	4.65
1054.2043	3249.7733	889.25	7.2
1054.3047	3250.6766	887.95	5.5
1054.4051	3251.5793	889.6	6.4
1054.5054	3252.4814	886.75	3.6
1054.6056	3253.3829	884.3	2.25
1054.7058	3254.2838	887.6	5.45
1054.806	3255.1841	885.8	1.8
1054.9061	3256.0838	888.35	5.45
1055.0061	3256.9829	886.1	3.45
1055.1062	3257.8814	890.45	5.75
1055.2061	3258.7792	890.25	3.5
1055.306	3259.6765	888.75	2.65
1055.4059	3260.5731	888.25	8.8
1055.5057	3261.4692	887.2	2.75
1055.6055	3262.3647	886.45	4.25
1055.7052	3263.2595	885.55	2.75
1055.8049	3264.1538	886.05	3.9
1055.9045	3265.0474	886.65	2.7
1056.0041	3265.9404	886.15	4.35
1056.1036	3266.8329	884.85	1.7
1056.2031	3267.7247	897	4.45
1056.3025	3268.616	885.4	2.9
1056.4019	3269.5066	886.75	4.1
1056.5013	3270.3966	887.6	0.9
1056.6005	3271.286	885.6	2.35
