Software Version:	3.9.2.0
Unit SN:	10000200
Spectrometer SN:	6960
Date:	3/14/2024 1:01:21 PM
Data Line Index:	25
Spectral Points:	2048
Integration time (ms):	125
Averages:	20
Delay (ms):	30000
Sequence Number:	1
Processing:	dark subtract
Laser Power (mW):	300
Laser Current (mA):	823
Laser Diode Temp (C):	25
Laser Case Temp (C):	27.9
System Temp (C):	28
Spectrometer Temp (C):	25.8
CCD Temp (C):	0.001
Secondary Temp (C):	20.008
Heatsink Temp (C):	23.812
CCDPCB Temp (C):	37.652
SecondaryPCB Temp (C):	35.051

Wavelength	RamanShift	Raw Counts	Dark Subtracted
787.061	30.1047	418.2	6.05
787.2016	32.3739	415.4	5.6
787.3422	34.6426	417.8	7
787.4828	36.9109	420.9	8.5
787.6235	39.1787	426.9	11.05
787.7642	41.4461	431	8.6
787.9049	43.7131	433.5	8.15
788.0456	45.9796	437.6	9.75
788.1863	48.2456	444.3	11.75
788.3271	50.5112	448.15	11.75
788.4679	52.7764	452.05	13
788.6087	55.0411	453.45	10.75
788.7496	57.3054	460.9	14.5
788.8904	59.5692	466.9	16.7
789.0313	61.8326	469.4	15.95
789.1722	64.0955	475.5	18.3
789.3132	66.3579	482.2	17.8
789.4541	68.6199	486.95	20.95
789.5951	70.8815	496.5	28.3
789.7361	73.1426	515.45	43.3
789.8771	75.4032	546.35	69.05
790.0181	77.6634	618.85	136.7
790.1592	79.9231	783.85	296.2
790.3003	82.1824	1134.95	642.3
790.4414	84.4412	1731.95	1228.55
790.5825	86.6995	2516.6	2000
790.7237	88.9574	3284.75	2756
790.8648	91.2148	3827.95	3290.5
791.006	93.4717	4117.05	3572.25
791.1472	95.7282	4193.7	3646.7
791.2885	97.9842	4210.75	3658.15
791.4297	100.2398	4193.85	3642.85
791.571	102.4949	4175.15	3619.85
791.7123	104.7495	4154.4	3594.2
791.8536	107.0036	4118.1	3557.15
791.9949	109.2573	4069	3511.65
792.1363	111.5105	3998.85	3436.85
792.2777	113.7632	3913.75	3350.4
792.4191	116.0154	3856.85	3279.3
792.5605	118.2672	3792.5	3226.95
792.7019	120.5185	3719.2	3150.5
792.8434	122.7693	3644.65	3074.55
792.9849	125.0197	3602.95	3025.3
793.1264	127.2696	3551.9	2977.95
793.2679	129.519	3528.9	2952.45
793.4094	131.7679	3512.95	2932.3
793.551	134.0163	3501.1	2914.25
793.6926	136.2642	3485.75	2894.05
793.8342	138.5117	3479.2	2884.5
793.9758	140.7587	3454.05	2860.5
794.1175	143.0052	3416.05	2822.6
794.2591	145.2512	3400.8	2804
794.4008	147.4967	3361.05	2763.6
794.5425	149.7417	3322	2720.25
794.6842	151.9863	3305.25	2703.25
794.826	154.2304	3290.45	2680
794.9677	156.4739	3285.75	2673.65
795.1095	158.717	3300.15	2683.8
795.2513	160.9596	3300.45	2685.15
795.3931	163.2017	3318.3	2697.5
795.535	165.4433	3314.2	2692.3
795.6768	167.6844	3299	2676.7
795.8187	169.925	3272.7	2646.65
795.9606	172.1651	3251.1	2622
796.1025	174.4047	3210.2	2576.3
796.2445	176.6439	3184.05	2549.4
796.3864	178.8825	3162.45	2523.75
796.5284	181.1206	3155.6	2513.65
796.6704	183.3582	3140.3	2493
796.8124	185.5954	3134.6	2489.75
796.9544	187.832	3136.45	2485.7
797.0965	190.0681	3143.45	2493.3
797.2386	192.3037	3128.35	2476.25
797.3806	194.5388	3135.7	2475.85
797.5228	196.7734	3155.05	2493.35
797.6649	199.0075	3156.1	2490.4
797.807	201.2411	3178	2510
797.9492	203.4742	3177.05	2508.4
798.0914	205.7068	3199.45	2532.2
798.2336	207.9389	3219.8	2550.5
798.3758	210.1704	3225.1	2553.25
798.518	212.4015	3222.65	2547.5
798.6603	214.632	3226.85	2547.15
798.8025	216.862	3215.9	2544.4
798.9448	219.0915	3215.1	2553.25
799.0871	221.3205	3215.6	2558.05
799.2294	223.549	3216.8	2563.55
799.3718	225.777	3202.45	2550.65
799.5141	228.0044	3200.5	2544
799.6565	230.2314	3195.45	2541.35
799.7989	232.4578	3176.05	2520.2
799.9413	234.6837	3170.5	2507.6
800.0837	236.909	3157.7	2496.15
800.2262	239.1339	3160.2	2472.65
800.3687	241.3582	3168.55	2493.95
800.5111	243.582	3169.65	2470.15
800.6536	245.8053	3154.95	2463.3
800.7961	248.0281	3162	2477.25
800.9387	250.2503	3183.6	2491.35
801.0812	252.472	3170.25	2475.6
801.2238	254.6932	3169.2	2468.55
801.3664	256.9139	3174.4	2472.05
801.509	259.134	3191.05	2484.7
801.6516	261.3536	3202.35	2500.6
801.7942	263.5727	3226.2	2524.15
801.9369	265.7912	3250.45	2547.2
802.0795	268.0092	3278.45	2573.05
802.2222	270.2267	3314.85	2608.9
802.3649	272.4436	3338.45	2632.35
802.5076	274.6601	3371.3	2654.05
802.6504	276.8759	3366.2	2655.9
802.7931	279.0913	3374.35	2661.75
802.9359	281.3061	3383.15	2671.7
803.0787	283.5204	3409.05	2693.25
803.2215	285.7341	3419.35	2697.75
803.3643	287.9473	3434.55	2711.3
803.5071	290.16	3408.95	2683
803.6499	292.3721	3396.75	2675.2
803.7928	294.5837	3370.6	2647.3
803.9357	296.7947	3344.4	2623.6
804.0786	299.0052	3321.55	2598.2
804.2215	301.2152	3315.05	2587.15
804.3644	303.4246	3302.35	2579.35
804.5074	305.6334	3287.3	2566.2
804.6503	307.8418	3252	2522.7
804.7933	310.0495	3227.35	2498.85
804.9363	312.2568	3204.85	2479.75
805.0793	314.4635	3171.15	2442.25
805.2223	316.6696	3141.1	2408.65
805.3653	318.8752	3099.45	2361
805.5084	321.0802	3071.5	2339.35
805.6514	323.2847	3062.95	2331.05
805.7945	325.4887	3064.8	2331.25
805.9376	327.692	3062.75	2326.25
806.0807	329.8949	3097.25	2359.6
806.2238	332.0972	3116.15	2379.7
806.367	334.2989	3123.65	2381.7
806.5101	336.5001	3113.3	2374.45
806.6533	338.7007	3100.55	2357.95
806.7965	340.9008	3061	2316.25
806.9397	343.1003	3043.1	2296.6
807.0829	345.2992	2995.2	2249.1
807.2261	347.4976	2970.55	2221.5
807.3693	349.6955	2939.4	2186.75
807.5126	351.8927	2922.9	2170.55
807.6559	354.0895	2915.4	2152.15
807.7991	356.2856	2888.25	2132
807.9424	358.4812	2882.65	2129.65
808.0857	360.6763	2888.4	2134.95
808.2291	362.8707	2876.45	2120.95
808.3724	365.0646	2872.6	2116.5
808.5158	367.258	2878.7	2118.35
808.6591	369.4508	2881.55	2119.05
808.8025	371.643	2896.25	2134.05
808.9459	373.8346	2920	2153.55
809.0893	376.0257	2937	2169.1
809.2327	378.2162	2941.35	2170.15
809.3762	380.4062	2947.9	2176.9
809.5196	382.5956	2925.1	2150
809.6631	384.7844	2891.8	2120.85
809.8066	386.9726	2863.55	2089.4
809.9501	389.1603	2832.95	2059.45
810.0936	391.3474	2860.55	2054.95
810.2371	393.5339	2823.3	2049.85
810.3806	395.7199	2822.7	2053.15
810.5241	397.9052	2838.8	2072.85
810.6677	400.09	2851.2	2083.9
810.8113	402.2743	2861.65	2094.85
810.9548	404.4579	2910.9	2147.7
811.0984	406.641	2925.7	2157.5
811.2421	408.8235	2959.5	2193.65
811.3857	411.0054	2993.8	2225.1
811.5293	413.1868	3053	2282.4
811.673	415.3675	3118.8	2347.1
811.8166	417.5477	3104.2	2332.75
811.9603	419.7273	3052.4	2278.6
812.104	421.9064	2965.3	2182.9
812.2477	424.0848	2912	2132.35
812.3914	426.2627	2859.2	2077.25
812.5351	428.4399	2823.1	2041.45
812.6788	430.6166	2774.9	1985.8
812.8226	432.7928	2733.95	1946.55
812.9663	434.9683	2712.6	1924.65
813.1101	437.1432	2690.85	1899.85
813.2539	439.3176	2667.15	1878.15
813.3977	441.4914	2656.95	1867.35
813.5415	443.6645	2650.25	1857.55
813.6853	445.8371	2653.45	1859.25
813.8291	448.0091	2643.05	1850.65
813.973	450.1806	2629.45	1833.85
814.1168	452.3514	2615.3	1818.65
814.2607	454.5216	2626.05	1822.8
814.4046	456.6913	2609.8	1814.55
814.5485	458.8603	2609.7	1813.45
814.6924	461.0288	2613.7	1818
814.8363	463.1967	2606.8	1808.85
814.9802	465.3639	2609.65	1811
815.1241	467.5306	2601.3	1803.5
815.2681	469.6967	2582.65	1781.1
815.412	471.8622	2571.9	1772.2
815.556	474.0271	2571.75	1773.3
815.7	476.1914	2569.05	1767.15
815.844	478.3551	2556.25	1752.6
815.988	480.5182	2562.05	1757.45
816.132	482.6807	2560.6	1757.3
816.276	484.8426	2574.7	1771.85
816.4201	487.0039	2601.15	1796.4
816.5641	489.1647	2642.45	1835.75
816.7082	491.3248	2650.8	1847.15
816.8522	493.4843	2665.85	1859.6
816.9963	495.6432	2666.6	1860.8
817.1404	497.8015	2636.45	1829.15
817.2845	499.9592	2606.85	1801.9
817.4286	502.1163	2567.45	1762.5
817.5727	504.2728	2541.8	1730.95
817.7168	506.4287	2525.1	1718.15
817.861	508.5839	2495.25	1686.3
818.0051	510.7386	2493.45	1683.95
818.1493	512.8927	2510.8	1693.25
818.2935	515.0461	2503.7	1695.2
818.4377	517.199	2510.85	1699.75
818.5818	519.3512	2540.4	1730.5
818.726	521.5029	2587.15	1770.1
818.8703	523.6539	2616.95	1803.5
819.0145	525.8043	2618.05	1804.1
819.1587	527.9541	2582.35	1764.45
819.303	530.1033	2533.7	1716.8
819.4472	532.2519	2510.65	1696.7
819.5915	534.3999	2483.05	1665.25
819.7357	536.5472	2470.25	1653.45
819.88	538.694	2477.55	1660.8
820.0243	540.8401	2481.35	1662.85
820.1686	542.9856	2491.7	1671.75
820.3129	545.1305	2501.65	1679.5
820.4572	547.2748	2510.3	1689.6
820.6016	549.4185	2506.7	1685.2
820.7459	551.5615	2515.95	1694.25
820.8902	553.704	2530.25	1706.75
821.0346	555.8458	2537.3	1713.6
821.1789	557.987	2545.2	1723.75
821.3233	560.1276	2565.5	1741.85
821.4677	562.2675	2587.5	1765.8
821.6121	564.4069	2625.15	1802.8
821.7565	566.5456	2648.2	1830.6
821.9009	568.6837	2641.7	1823.15
822.0453	570.8212	2589.9	1771.15
822.1897	572.958	2543.5	1720.4
822.3342	575.0942	2509.8	1689.95
822.4786	577.2299	2486.8	1664.35
822.6231	579.3648	2457.1	1633.5
822.7675	581.4992	2438.25	1614.2
822.912	583.6329	2438.75	1616.45
823.0565	585.766	2466.65	1643.55
823.201	587.8985	2480.15	1658.75
823.3454	590.0304	2518.45	1680.65
823.4899	592.1616	2524.9	1696.6
823.6345	594.2922	2513	1688
823.779	596.4222	2480.3	1652.85
823.9235	598.5515	2448.85	1620.2
824.068	600.6802	2408.35	1580.55
824.2126	602.8083	2382.25	1553.5
824.3571	604.9358	2358.3	1528.5
824.5017	607.0626	2359.95	1531.35
824.6462	609.1888	2361.6	1531
824.7908	611.3144	2376.85	1544.95
824.9354	613.4393	2396.5	1568.2
825.08	615.5636	2445.45	1614.5
825.2246	617.6873	2453.85	1622.6
825.3692	619.8103	2480.35	1647.2
825.5138	621.9327	2486.3	1651.65
825.6584	624.0544	2443.4	1613.3
825.803	626.1756	2426.45	1594.3
825.9477	628.2961	2393.15	1559.15
826.0923	630.4159	2370.25	1537.7
826.237	632.5351	2364.1	1530.95
826.3816	634.6537	2351.45	1517.9
826.5263	636.7716	2338.4	1503.3
826.6709	638.8889	2340.7	1506.15
826.8156	641.0056	2348.35	1515.95
826.9603	643.1216	2355.25	1520.35
827.105	645.237	2345.8	1507.4
827.2497	647.3518	2336	1498.3
827.3944	649.4659	2324.35	1487
827.5391	651.5793	2311.85	1473.95
827.6838	653.6922	2296.95	1460.5
827.8285	655.8043	2286.35	1450.25
827.9733	657.9159	2284.55	1445.15
828.118	660.0268	2260.85	1420.5
828.2627	662.137	2259	1420.2
828.4075	664.2466	2275.85	1435.15
828.5522	666.3556	2252.4	1412.3
828.697	668.4639	2245.25	1402.55
828.8418	670.5716	2243.8	1404.4
828.9865	672.6786	2235.55	1394.2
829.1313	674.785	2243.25	1397.7
829.2761	676.8907	2229.3	1387
829.4209	678.9958	2228.6	1389
829.5657	681.1002	2224.45	1380
829.7105	683.204	2239.45	1394.2
829.8553	685.3072	2229.9	1386.9
830.0001	687.4097	2222.8	1381.35
830.1449	689.5115	2215.6	1369.15
830.2898	691.6127	2227.95	1385.05
830.4346	693.7132	2218.95	1374.3
830.5794	695.8131	2217.4	1358.75
830.7243	697.9123	2214.45	1367.45
830.8691	700.0109	2216.5	1371.6
831.014	702.1089	2216.55	1370.55
831.1588	704.2061	2229	1384.35
831.3037	706.3028	2247.7	1400.7
831.4486	708.3987	2255.8	1408.2
831.5935	710.4941	2258.75	1412.5
831.7383	712.5887	2265.4	1418.2
831.8832	714.6827	2260	1410.05
832.0281	716.7761	2255	1406.45
832.173	718.8688	2249.35	1402.9
832.3179	720.9608	2260.8	1409.45
832.4628	723.0522	2270.05	1418.05
832.6077	725.1429	2285.95	1438.05
832.7527	727.233	2308.1	1459.8
832.8976	729.3224	2352.9	1505.95
833.0425	731.4112	2374.55	1526.35
833.1874	733.4993	2384.9	1531.1
833.3324	735.5867	2347.2	1496.2
833.4773	737.6735	2309.1	1456.3
833.6222	739.7596	2274.3	1423.2
833.7672	741.845	2253.75	1399.25
833.9122	743.9298	2256.3	1401.6
834.0571	746.014	2259.5	1408.15
834.2021	748.0974	2268.6	1415.6
834.347	750.1802	2269.3	1416.75
834.492	752.2624	2265.7	1416.75
834.637	754.3439	2250.55	1397.15
834.782	756.4247	2239.45	1378.7
834.9269	758.5048	2222.85	1372.35
835.0719	760.5843	2234.6	1378.85
835.2169	762.6631	2238.45	1383.3
835.3619	764.7413	2284.3	1430.2
835.5069	766.8188	2344.95	1488.5
835.6519	768.8956	2380.7	1523.75
835.7969	770.9718	2416.25	1563.8
835.9419	773.0473	2416.25	1562.2
836.0869	775.1221	2393.05	1540.75
836.232	777.1962	2384.25	1530.35
836.377	779.2697	2425.25	1569.05
836.522	781.3426	2480.85	1615.7
836.667	783.4147	2511.8	1655.8
836.8121	785.4862	2498.6	1644.5
836.9571	787.557	2443.1	1587.2
837.1021	789.6271	2356.45	1500.75
837.2472	791.6966	2276.2	1419.05
837.3922	793.7654	2217.2	1360.7
837.5373	795.8335	2182.3	1325.7
837.6823	797.901	2162.3	1305.7
837.8274	799.9678	2152.6	1293.2
837.9724	802.0339	2147.8	1292.5
838.1175	804.0993	2154.45	1289.5
838.2626	806.1641	2139.3	1279.8
838.4076	808.2282	2120.45	1265.95
838.5527	810.2916	2119.95	1258.75
838.6978	812.3544	2103.05	1247.35
838.8428	814.4164	2094.4	1237.8
838.9879	816.4778	2093.6	1234.95
839.133	818.5385	2098.35	1241.4
839.2781	820.5986	2121	1263.75
839.4232	822.658	2167.8	1307.55
839.5682	824.7166	2201.2	1341.6
839.7133	826.7747	2254.7	1395.7
839.8584	828.832	2319.55	1461.85
840.0035	830.8886	2343.9	1482.2
840.1486	832.9446	2367.75	1504.95
840.2937	834.9999	2331.15	1472
840.4388	837.0545	2287.8	1424.85
840.5839	839.1085	2226.3	1365.55
840.729	841.1618	2178.35	1315.6
840.8741	843.2143	2135.75	1276.15
841.0192	845.2662	2126.65	1267.15
841.1643	847.3175	2107.1	1249.3
841.3095	849.368	2099.2	1240.9
841.4546	851.4179	2092.8	1231.05
841.5997	853.467	2089.4	1227.15
841.7448	855.5155	2088.8	1229.9
841.8899	857.5633	2077.1	1215.45
842.0351	859.6105	2075.85	1213.75
842.1802	861.6569	2072.55	1214.15
842.3253	863.7027	2063.5	1199.8
842.4704	865.7478	2060.7	1199.8
842.6156	867.7922	2038.3	1175.45
842.7607	869.8359	2039.15	1175.85
842.9058	871.8789	2038.65	1175.95
843.0509	873.9212	2065.65	1169.85
843.1961	875.9629	2037.8	1176.65
843.3412	878.0039	2038.8	1173.7
843.4863	880.0441	2043.3	1181.6
843.6315	882.0837	2059.3	1196.8
843.7766	884.1226	2079.75	1212.75
843.9218	886.1609	2102.3	1239.75
844.0669	888.1984	2141.95	1279.2
844.212	890.2352	2155.6	1292.7
844.3572	892.2714	2171.7	1304.6
844.5023	894.3069	2148	1284.45
844.6475	896.3416	2105.9	1241.5
844.7926	898.3757	2086.55	1221.45
844.9377	900.4091	2067.9	1202
845.0829	902.4418	2071.85	1203.05
845.228	904.4739	2075.1	1208.75
845.3732	906.5052	2100.45	1237.3
845.5183	908.5358	2080.55	1215.35
845.6635	910.5658	2069.1	1204.25
845.8086	912.595	2028.95	1162.9
845.9538	914.6236	2008.45	1140.45
846.0989	916.6515	1990.55	1125.7
846.2441	918.6786	1976.1	1109.55
846.3892	920.7051	1966.25	1098.15
846.5344	922.7309	1966.6	1102.05
846.6795	924.756	1970.15	1102.85
846.8246	926.7804	1978.15	1109.9
846.9698	928.8041	1970.4	1103.3
847.1149	930.8272	1983.95	1117.15
847.2601	932.8495	1984.35	1117.5
847.4052	934.8711	1995.85	1129.05
847.5504	936.892	1992.45	1124.2
847.6955	938.9123	2005.85	1137.45
847.8407	940.9318	2022.8	1156.15
847.9858	942.9506	2029.85	1162.75
848.131	944.9688	2018.5	1151.1
848.2761	946.9862	2003.45	1135.25
848.4213	949.003	1965.45	1099.15
848.5664	951.019	1940.8	1071.9
848.7115	953.0344	1936.6	1068.95
848.8567	955.0491	1919.4	1048.85
849.0018	957.063	1931.8	1063.3
849.147	959.0763	1923.2	1057.55
849.2921	961.0888	1922.3	1051.45
849.4373	963.1007	1918.95	1052.3
849.5824	965.1119	1915.35	1048.25
849.7275	967.1223	1912.6	1041.8
849.8727	969.1321	1907.25	1039.1
850.0178	971.1412	1904.95	1035.95
850.1629	973.1495	1891.7	1020.8
850.3081	975.1572	1920.5	1018.85
850.4532	977.1641	1898.65	1030.75
850.5983	979.1704	1881.15	1011.15
850.7435	981.1759	1887.05	1013.6
850.8886	983.1808	1883.7	1013.25
851.0337	985.1849	1886.75	1006.45
851.1788	987.1884	1872.85	1000.3
851.324	989.1911	1880.85	1008.05
851.4691	991.1932	1879.7	1007.05
851.6142	993.1945	1872.25	1003.15
851.7593	995.1951	1872.15	1002.05
851.9045	997.1951	1879.25	1003.7
852.0496	999.1943	1857.8	987.25
852.1947	1001.1928	1872.25	999.65
852.3398	1003.1906	1871.75	1000.25
852.4849	1005.1877	1886.5	1014.15
852.63	1007.1841	1891.4	1019.85
852.7751	1009.1798	1892.75	1022.75
852.9202	1011.1748	1886.05	1016.4
853.0653	1013.1691	1870.45	996.2
853.2104	1015.1627	1840.95	968.9
853.3555	1017.1556	1828.25	956.2
853.5006	1019.1477	1812.25	940.75
853.6457	1021.1392	1796.8	926.65
853.7908	1023.1299	1794.45	922.3
853.9359	1025.12	1799.3	925.5
854.081	1027.1093	1800	927.2
854.2261	1029.0979	1805.25	933.45
854.3712	1031.0859	1814.25	945.2
854.5163	1033.0731	1825.8	951.2
854.6613	1035.0596	1821.15	951.45
854.8064	1037.0454	1806.95	933.9
854.9515	1039.0304	1797.25	926.25
855.0965	1041.0148	1781.1	910.05
855.2416	1042.9985	1767.15	891.75
855.3867	1044.9814	1753.85	881.75
855.5317	1046.9636	1755.35	879.55
855.6768	1048.9452	1756.5	885.7
855.8219	1050.926	1773.25	902.8
855.9669	1052.9061	1769.65	896.85
856.112	1054.8855	1781.3	906.35
856.257	1056.8642	1771.8	898.85
856.4021	1058.8421	1771.2	893.65
856.5471	1060.8194	1766.5	893.75
856.6921	1062.7959	1775.85	900.45
856.8372	1064.7717	1762.4	886.85
856.9822	1066.7469	1760.1	887.05
857.1272	1068.7213	1767.05	890.9
857.2723	1070.695	1767.7	895.3
857.4173	1072.6679	1777	903.2
857.5623	1074.6402	1791.65	920.15
857.7073	1076.6117	1798	919.25
857.8523	1078.5826	1783.65	909.95
857.9973	1080.5527	1748.25	872.35
858.1423	1082.5221	1731.2	856.1
858.2873	1084.4908	1715.15	841.15
858.4323	1086.4587	1713.35	838.3
858.5773	1088.426	1691.85	815.5
858.7223	1090.3925	1703.35	824.75
858.8673	1092.3584	1695.1	822.55
859.0123	1094.3235	1692.4	819.9
859.1573	1096.2879	1716.1	842.2
859.3022	1098.2515	1725.6	851.1
859.4472	1100.2145	1743.05	869.15
859.5922	1102.1767	1763.9	887.05
859.7371	1104.1382	1788.05	913.75
859.8821	1106.099	1819.85	940.9
860.027	1108.0591	1845.1	968.95
860.172	1110.0185	1867.85	988.05
860.3169	1111.9771	1892.55	1017.65
860.4619	1113.9351	1916.9	1041.9
860.6068	1115.8923	1963.45	1089.7
860.7517	1117.8488	1971	1094.4
860.8967	1119.8045	1940.45	1065.1
861.0416	1121.7596	1878.5	1001.5
861.1865	1123.7139	1810.5	933.9
861.3314	1125.6675	1776.5	900.75
861.4763	1127.6204	1771.75	896.45
861.6212	1129.5726	1782.3	904.85
861.7661	1131.524	1777.7	902.2
861.911	1133.4748	1751.1	876.1
862.0559	1135.4248	1718.7	843.25
862.2008	1137.3741	1672.3	797.8
862.3457	1139.3226	1664.2	787.1
862.4905	1141.2705	1663.55	788.85
862.6354	1143.2176	1669.7	788.05
862.7803	1145.164	1676.25	799.8
862.9251	1147.1097	1662.15	788.35
863.07	1149.0546	1658.7	781.2
863.2148	1150.9989	1631.65	753.35
863.3597	1152.9424	1625.65	749.05
863.5045	1154.8852	1616.15	739.35
863.6493	1156.8272	1606.05	731.65
863.7942	1158.7686	1614.6	733.35
863.939	1160.7092	1602.1	726.4
864.0838	1162.6491	1615.25	734.9
864.2286	1164.5883	1620.25	745.4
864.3734	1166.5267	1621.25	743.5
864.5182	1168.4644	1639.1	762.5
864.663	1170.4014	1655.3	774.75
864.8078	1172.3377	1683.75	809.6
864.9526	1174.2732	1712.15	837.05
865.0974	1176.2081	1768.4	890.8
865.2421	1178.1421	1841.65	959.05
865.3869	1180.0755	1912.5	1037.85
865.5317	1182.0082	1938.45	1061.45
865.6764	1183.9401	1923.75	1046.45
865.8212	1185.8713	1857	979.8
865.9659	1187.8017	1780.15	900.65
866.1106	1189.7315	1709.5	834.25
866.2554	1191.6605	1697.05	790.8
866.4001	1193.5888	1647.75	769.7
866.5448	1195.5163	1617.75	741.85
866.6895	1197.4432	1612.65	734.35
866.8342	1199.3693	1589.8	712.35
866.9789	1201.2947	1591	707.75
867.1236	1203.2193	1579.7	703.7
867.2683	1205.1432	1576.35	698.75
867.413	1207.0664	1570.55	692.5
867.5576	1208.9889	1573.7	690.8
867.7023	1210.9106	1554.6	678.05
867.847	1212.8316	1573.9	698.4
867.9916	1214.7519	1584.2	697.35
868.1363	1216.6715	1576.7	699.95
868.2809	1218.5903	1587.75	711.45
868.4255	1220.5084	1592	713.75
868.5701	1222.4257	1603	724
868.7148	1224.3424	1609.5	731.9
868.8594	1226.2583	1634.3	753.15
869.004	1228.1735	1641.2	763.3
869.1486	1230.0879	1662.8	782.85
869.2932	1232.0016	1683.95	804.95
869.4377	1233.9146	1708.1	828.45
869.5823	1235.8269	1715.4	835.35
869.7269	1237.7384	1716.2	839.3
869.8715	1239.6492	1716.2	836.15
870.016	1241.5592	1727.95	848.75
870.1606	1243.4686	1762.2	884.5
870.3051	1245.3772	1808.45	930.95
870.4496	1247.285	1860.85	979.5
870.5941	1249.1922	1901.8	1022.4
870.7387	1251.0986	1944.7	1066.4
870.8832	1253.0042	1985.3	1105.3
871.0277	1254.9092	2034.05	1155.55
871.1722	1256.8134	2081.7	1205.3
871.3167	1258.7169	2131.3	1250
871.4611	1260.6196	2144.15	1266.15
871.6056	1262.5216	2147.3	1268.85
871.7501	1264.4229	2127.9	1249.2
871.8945	1266.3234	2103.45	1223.6
872.039	1268.2232	2080.7	1201.35
872.1834	1270.1223	2049.05	1169
872.3278	1272.0207	2031.4	1152.05
872.4723	1273.9183	2013.4	1128.65
872.6167	1275.8151	2024.85	1146.45
872.7611	1277.7113	2049.6	1169.3
872.9055	1279.6067	2098.95	1219.55
873.0499	1281.5014	2197.35	1314.7
873.1943	1283.3953	2308.9	1427.75
873.3386	1285.2885	2403.25	1524.4
873.483	1287.181	2464.4	1582.3
873.6274	1289.0727	2492.75	1612.05
873.7717	1290.9637	2456.45	1578.2
873.9161	1292.854	2405.35	1526.55
874.0604	1294.7435	2345	1465.05
874.2047	1296.6323	2272.5	1392.7
874.349	1298.5204	2228.7	1344.05
874.4933	1300.4077	2188.8	1306.9
874.6376	1302.2943	2155.9	1275.65
874.7819	1304.1802	2136.25	1257.6
874.9262	1306.0653	2114.4	1231.85
875.0705	1307.9497	2085.4	1206
875.2147	1309.8333	2064.95	1186.7
875.359	1311.7162	2042.15	1160.6
875.5032	1313.5984	2022.7	1140.7
875.6475	1315.4798	2017.85	1127.55
875.7917	1317.3605	2017.95	1133.85
875.9359	1319.2405	2003.7	1121.85
876.0801	1321.1197	1985.75	1101.85
876.2243	1322.9982	1940.2	1056.15
876.3685	1324.876	1891.5	1010.3
876.5127	1326.753	1842.45	962
876.6569	1328.6293	1783	901.55
876.801	1330.5048	1739.05	853.55
876.9452	1332.3796	1698.55	819.15
877.0893	1334.2537	1700.55	793.55
877.2335	1336.127	1654.2	774.25
877.3776	1337.9996	1628.45	749.75
877.5217	1339.8714	1613.35	732.3
877.6658	1341.7426	1640.35	716.1
877.8099	1343.6129	1600.45	721.1
877.954	1345.4826	1578.45	696.65
878.0981	1347.3515	1577.4	693.5
878.2422	1349.2196	1563.1	682.15
878.3862	1351.087	1568.05	688.15
878.5303	1352.9537	1565.8	686.8
878.6743	1354.8197	1559.35	679.15
878.8184	1356.6849	1563.95	681.9
878.9624	1358.5493	1575.7	694.9
879.1064	1360.4131	1585.65	704.35
879.2504	1362.276	1614.1	735
879.3944	1364.1383	1624.05	743.55
879.5384	1365.9998	1645.45	758.15
879.6823	1367.8606	1631.7	751.15
879.8263	1369.7206	1623.55	742.35
879.9702	1371.5799	1620.35	738.2
880.1142	1373.4384	1608.85	729.3
880.2581	1375.2962	1599.3	717
880.402	1377.1533	1566.6	686.45
880.5459	1379.0096	1529.15	646.8
880.6898	1380.8652	1511.55	630.25
880.8337	1382.7201	1493.8	614.1
880.9776	1384.5742	1485.3	604.05
881.1215	1386.4275	1469.95	587.4
881.2653	1388.2802	1453.9	573.5
881.4092	1390.132	1451.5	570.45
881.553	1391.9832	1445.1	562.35
881.6968	1393.8336	1424.45	545.6
881.8406	1395.6832	1432.9	549.1
881.9844	1397.5322	1426.95	544.9
882.1282	1399.3803	1413.2	526.45
882.272	1401.2278	1405.65	525.1
882.4158	1403.0745	1400.15	518.65
882.5595	1404.9204	1399.6	517.25
882.7033	1406.7656	1396.05	517.6
882.847	1408.6101	1389.05	508.05
882.9908	1410.4538	1385.6	502.2
883.1345	1412.2968	1387.4	508.7
883.2782	1414.139	1390.05	507.85
883.4219	1415.9805	1395.95	517.1
883.5656	1417.8213	1408.85	520.3
883.7092	1419.6613	1399.9	519.35
883.8529	1421.5006	1416.4	534.35
883.9965	1423.3391	1444.1	561.7
884.1402	1425.1769	1470.75	587.7
884.2838	1427.0139	1517.65	635.85
884.4274	1428.8502	1571.6	688.55
884.571	1430.6858	1611.5	731.05
884.7146	1432.5206	1622.15	741.05
884.8582	1434.3547	1620.35	738.15
885.0018	1436.188	1597.1	714.4
885.1453	1438.0206	1589.7	707.5
885.2889	1439.8524	1582.85	701.6
885.4324	1441.6835	1575.6	694.9
885.5759	1443.5139	1589.05	703.1
885.7194	1445.3435	1580.85	701.15
885.8629	1447.1724	1589	706.75
886.0064	1449.0005	1580.4	699.45
886.1499	1450.8279	1578	693.15
886.2933	1452.6545	1577.4	694.7
886.4368	1454.4804	1570.15	690.15
886.5802	1456.3056	1571.4	679.6
886.7237	1458.13	1560.5	679.2
886.8671	1459.9536	1537.25	655
887.0105	1461.7766	1517.2	635.15
887.1539	1463.5987	1493.7	611.45
887.2972	1465.4202	1467.1	585.05
887.4406	1467.2409	1443.8	561.1
887.584	1469.0608	1430.75	551.6
887.7273	1470.88	1408.2	523.9
887.8706	1472.6984	1393.65	511.25
888.0139	1474.5161	1379	494.75
888.1572	1476.3331	1374.85	492.9
888.3005	1478.1493	1367.65	485.15
888.4438	1479.9648	1368.4	485.4
888.5871	1481.7795	1354.8	474.2
888.7303	1483.5935	1358.15	476
888.8736	1485.4067	1360.3	479.3
889.0168	1487.2192	1359.8	477.05
889.16	1489.031	1363.15	477.6
889.3032	1490.842	1358.3	476.75
889.4464	1492.6522	1355.5	474
889.5896	1494.4618	1354.35	470.25
889.7327	1496.2705	1346.5	463.55
889.8759	1498.0785	1343.8	459.05
890.019	1499.8858	1345.1	461.1
890.1622	1501.6924	1344.7	464.65
890.3053	1503.4981	1333.25	452
890.4484	1505.3032	1329.35	448.6
890.5914	1507.1075	1325.95	444.25
890.7345	1508.911	1318.15	436.95
890.8776	1510.7138	1312.95	431.9
891.0206	1512.5159	1312.1	429.4
891.1637	1514.3172	1299.2	418.6
891.3067	1516.1178	1297.75	415.25
891.4497	1517.9176	1299.4	413.15
891.5927	1519.7166	1296.1	415.6
891.7357	1521.515	1293.4	404.55
891.8786	1523.3126	1280.9	399.8
892.0216	1525.1094	1285.05	399.8
892.1645	1526.9055	1270	386.9
892.3074	1528.7008	1278.55	396.35
892.4503	1530.4954	1285.6	395.55
892.5932	1532.2893	1271.3	390.45
892.7361	1534.0824	1281.4	393.4
892.879	1535.8747	1271.85	388.3
893.0218	1537.6663	1266.2	383.2
893.1647	1539.4572	1273	389.1
893.3075	1541.2473	1269.1	385.05
893.4503	1543.0367	1259.45	378.1
893.5931	1544.8253	1263.4	373.4
893.7359	1546.6132	1267.4	384.4
893.8787	1548.4003	1275.5	382.65
894.0214	1550.1867	1277.8	386.3
894.1642	1551.9723	1277.45	391.5
894.3069	1553.7572	1280.3	397.65
894.4496	1555.5414	1294.45	410.6
894.5923	1557.3247	1312.3	425.55
894.735	1559.1074	1327.4	447.35
894.8777	1560.8893	1341.9	461.95
895.0204	1562.6705	1365.5	482.6
895.163	1564.4509	1373.5	490.7
895.3056	1566.2305	1379.6	499.7
895.4482	1568.0094	1382.85	500.85
895.5908	1569.7876	1381.65	499.5
895.7334	1571.565	1377.3	495.55
895.876	1573.3417	1380.45	498.35
896.0186	1575.1176	1381.15	497.25
896.1611	1576.8928	1388.35	503.5
896.3036	1578.6672	1399.1	516.35
896.4461	1580.4409	1411	529.4
896.5886	1582.2138	1428.75	543
896.7311	1583.986	1445.4	562.9
896.8736	1585.7575	1468.35	583.85
897.0161	1587.5282	1477.65	598.05
897.1585	1589.2981	1487.9	603.65
897.3009	1591.0673	1495.2	613.8
897.4433	1592.8358	1507.65	624.4
897.5857	1594.6035	1502.5	617.25
897.7281	1596.3704	1498.5	614.8
897.8705	1598.1366	1485.9	602.55
898.0128	1599.9021	1475.7	593.6
898.1551	1601.6668	1455.15	569.95
898.2975	1603.4308	1450.4	564.75
898.4398	1605.194	1459.3	573.95
898.5821	1606.9564	1467.25	583.5
898.7243	1608.7182	1508	621.6
898.8666	1610.4791	1548.6	664.75
899.0088	1612.2394	1594.65	710.25
899.1511	1613.9988	1644.15	760
899.2933	1615.7576	1676.8	794.7
899.4355	1617.5156	1688.45	799
899.5776	1619.2728	1670.15	787.55
899.7198	1621.0293	1613.3	731.85
899.862	1622.785	1557.3	673.9
900.0041	1624.54	1490.2	603.7
900.1462	1626.2942	1431.1	544.85
900.2883	1628.0477	1374.6	488.8
900.4304	1629.8005	1338.3	451.9
900.5725	1631.5525	1306.85	425.15
900.7145	1633.3037	1278.25	392.2
900.8566	1635.0542	1253.25	370.2
900.9986	1636.804	1234.6	348.95
901.1406	1638.553	1295.05	339.05
901.2826	1640.3013	1216.35	334
901.4245	1642.0488	1203	319.5
901.5665	1643.7955	1193	312.6
901.7085	1645.5416	1192.8	308.5
901.8504	1647.2868	1185.1	303.15
901.9923	1649.0313	1174.45	292.6
902.1342	1650.7751	1178.15	292.9
902.2761	1652.5181	1170.5	287.1
902.4179	1654.2604	1174.65	289.5
902.5598	1656.0019	1175.7	293.6
902.7016	1657.7427	1184.15	299.35
902.8434	1659.4828	1192.25	310.15
902.9852	1661.222	1201.75	316.3
903.127	1662.9606	1222	339.55
903.2687	1664.6984	1235.65	351.8
903.4105	1666.4354	1233.6	352.65
903.5522	1668.1717	1214.55	332.65
903.6939	1669.9072	1198	316.6
903.8356	1671.642	1179.4	294.9
903.9773	1673.3761	1158.7	277.15
904.119	1675.1094	1143.05	259
904.2606	1676.8419	1132.8	251
904.4022	1678.5737	1127.45	244.8
904.5439	1680.3048	1122.95	240.15
904.6855	1682.0351	1110.95	228.75
904.827	1683.7646	1113.8	229.1
904.9686	1685.4934	1107.15	227.3
905.1101	1687.2215	1111.7	228.3
905.2517	1688.9488	1103.5	218.8
905.3932	1690.6754	1099.8	218.25
905.5347	1692.4012	1101.35	218.05
905.6761	1694.1263	1096.15	212.85
905.8176	1695.8506	1096.3	213.05
905.9591	1697.5742	1097.4	216.9
906.1005	1699.297	1094.75	211.4
906.2419	1701.0191	1093.5	210.45
906.3833	1702.7404	1091.05	210.65
906.5246	1704.461	1090.3	206.2
906.666	1706.1808	1091.8	206.95
906.8073	1707.8999	1084.55	200.95
906.9487	1709.6182	1084	199.45
907.09	1711.3358	1082.35	199.4
907.2313	1713.0527	1082.5	199.3
907.3725	1714.7688	1085.5	196.6
907.5138	1716.4841	1080.75	197.6
907.655	1718.1987	1083.35	194.95
907.7962	1719.9126	1079.25	199.05
907.9374	1721.6257	1078.4	191.75
908.0786	1723.338	1078.35	192.75
908.2198	1725.0496	1074.85	192.5
908.3609	1726.7605	1073.2	188
908.502	1728.4706	1072.65	190
908.6431	1730.18	1073.95	186.7
908.7842	1731.8886	1073.05	190.7
908.9253	1733.5964	1079.4	191.55
909.0664	1735.3036	1073.35	188.2
909.2074	1737.0099	1074.1	191.85
909.3484	1738.7156	1071.25	189.1
909.4894	1740.4204	1071.85	183.55
909.6304	1742.1246	1072.95	187.3
909.7714	1743.8279	1068.8	186.75
909.9123	1745.5306	1075.3	189.7
910.0532	1747.2325	1065.75	183.8
910.1941	1748.9336	1069.2	186.35
910.335	1750.634	1065.1	181.15
910.4759	1752.3336	1066.85	184.8
910.6168	1754.0325	1066.3	185.9
910.7576	1755.7307	1068.55	187.05
910.8984	1757.4281	1065.8	182.55
911.0392	1759.1247	1072.1	179.35
911.18	1760.8206	1071.5	182.55
911.3208	1762.5158	1068.5	180.05
911.4615	1764.2102	1066.25	184.5
911.6022	1765.9039	1062.35	177.4
911.7429	1767.5968	1062.95	178.65
911.8836	1769.289	1067.8	185.9
912.0243	1770.9804	1064.6	181.5
912.1649	1772.6711	1059.05	176.9
912.3056	1774.361	1066.7	183.9
912.4462	1776.0502	1066.4	183.9
912.5868	1777.7386	1064.6	179.9
912.7274	1779.4263	1060.3	177.4
912.8679	1781.1132	1056.85	174.7
913.0084	1782.7994	1058.85	172.55
913.149	1784.4849	1057.6	175.1
913.2895	1786.1696	1081.15	177.75
913.4299	1787.8535	1056.45	174.25
913.5704	1789.5367	1059.75	175.6
913.7108	1791.2192	1058.95	174.75
913.8513	1792.9009	1075.75	176.85
913.9917	1794.5818	1056.8	171.55
914.132	1796.2621	1055.95	173.2
914.2724	1797.9415	1056.35	172.55
914.4128	1799.6202	1052.9	169.75
914.5531	1801.2982	1051.05	166.65
914.6934	1802.9755	1052.4	170
914.8337	1804.6519	1052.55	168.8
914.9739	1806.3277	1050	167.7
915.1142	1808.0027	1046.75	163.75
915.2544	1809.6769	1050.85	165.15
915.3946	1811.3504	1049.35	164.05
915.5348	1813.0231	1050.25	164.85
915.675	1814.6951	1047.6	164.1
915.8151	1816.3664	1051.7	166.35
915.9553	1818.0369	1048.25	167.05
916.0954	1819.7067	1045.15	161.7
916.2355	1821.3757	1047.95	164.1
916.3755	1823.044	1042.9	160
916.5156	1824.7115	1041.55	158.75
916.6556	1826.3783	1044.7	161.5
916.7956	1828.0443	1046.1	161.8
916.9356	1829.7096	1045.95	160.75
917.0756	1831.3741	1046.15	160.95
917.2155	1833.0379	1043.6	161.3
917.3555	1834.701	1047.35	162.05
917.4954	1836.3633	1040.95	155.3
917.6353	1838.0248	1041.15	156.75
917.7751	1839.6856	1044.75	163
917.915	1841.3457	1044	162.55
918.0548	1843.005	1041.5	158.3
918.1946	1844.6636	1039.65	156.9
918.3344	1846.3214	1038.8	154.45
918.4742	1847.9785	1037.55	156.45
918.6139	1849.6349	1043.35	159.3
918.7537	1851.2904	1047.75	157
918.8934	1852.9453	1039.65	157.3
919.0331	1854.5994	1040.8	154.45
919.1727	1856.2528	1045.45	157.1
919.3124	1857.9054	1039.15	154.7
919.452	1859.5572	1037.85	154.55
919.5916	1861.2083	1038.75	155.55
919.7312	1862.8587	1039.55	157.4
919.8708	1864.5084	1037.95	155.15
920.0103	1866.1572	1036.1	153.65
920.1498	1867.8054	1036.85	153.9
920.2893	1869.4528	1032.95	147.9
920.4288	1871.0994	1033.9	150.9
920.5683	1872.7453	1034.05	149.95
920.7077	1874.3905	1052	152.95
920.8471	1876.0349	1036.7	153.05
920.9865	1877.6786	1034.95	150.25
921.1259	1879.3215	1035.1	152.25
921.2653	1880.9637	1034.1	150.2
921.4046	1882.6051	1030.55	147.4
921.5439	1884.2458	1035.25	146.8
921.6832	1885.8858	1035.25	151.65
921.8225	1887.525	1030.9	147.1
921.9617	1889.1634	1030.85	148.1
922.101	1890.8011	1028.3	144.95
922.2402	1892.4381	1027.15	143.45
922.3794	1894.0743	1028.9	147.7
922.5185	1895.7098	1028.85	145.8
922.6577	1897.3446	1033.6	150
922.7968	1898.9786	1033.25	145.8
922.9359	1900.6118	1022.15	141.95
923.075	1902.2443	1029.95	148.2
923.214	1903.8761	1026	142.8
923.3531	1905.5071	1026.1	142.2
923.4921	1907.1374	1025.8	143.1
923.6311	1908.7669	1025.9	143.6
923.77	1910.3957	1029.2	146.7
923.909	1912.0237	1025.2	140.35
924.0479	1913.651	1026.3	142.05
924.1868	1915.2776	1021.55	138.4
924.3257	1916.9034	1022.75	140.45
924.4646	1918.5285	1022.9	141.7
924.6034	1920.1528	1024.5	139.45
924.7422	1921.7764	1023.45	141.3
924.881	1923.3992	1020.9	138.15
925.0198	1925.0213	1021.2	138.65
925.1586	1926.6427	1019.9	138.4
925.2973	1928.2633	1127	134.5
925.436	1929.8832	1022.8	137.4
925.5747	1931.5023	1022.2	139.6
925.7134	1933.1207	1015.8	132.1
925.852	1934.7383	1020.8	135.05
925.9906	1936.3552	1017.7	135.75
926.1292	1937.9714	1020.25	137.2
926.2678	1939.5868	1021.75	137.65
926.4064	1941.2015	1019.45	136.15
926.5449	1942.8154	1015.35	130.95
926.6834	1944.4286	1013.15	131.8
926.8219	1946.041	1039.25	129.75
926.9604	1947.6528	1019.55	131.3
927.0988	1949.2637	1012.5	130
927.2372	1950.8739	1014.5	129.9
927.3756	1952.4834	1008.3	125.25
927.514	1954.0921	1012.65	130.25
927.6523	1955.7001	1017.2	128.55
927.7907	1957.3074	1014.6	130.75
927.929	1958.9139	1014.7	131.8
928.0673	1960.5197	1013.85	131.9
928.2055	1962.1247	1011.4	127.95
928.3438	1963.729	1012.05	132.85
928.482	1965.3325	1036.5	126.8
928.6202	1966.9353	1016.25	132.45
928.7584	1968.5374	1017.35	132.85
928.8965	1970.1387	1012.5	128.65
929.0346	1971.7393	1012.45	127.95
929.1727	1973.3392	1011.55	129.65
929.3108	1974.9383	1010.2	127.5
929.4489	1976.5366	1010.35	126.75
929.5869	1978.1342	1010.8	125.35
929.7249	1979.7311	1013.8	129.8
929.8629	1981.3273	1010.95	126.85
930.0009	1982.9227	1009.3	123.3
930.1388	1984.5173	1011.45	129.4
930.2767	1986.1112	1005.45	120.8
930.4146	1987.7044	1011.55	128.9
930.5525	1989.2968	1010.2	124.95
930.6904	1990.8885	1013.4	126.2
930.8282	1992.4795	1007.85	123.35
930.966	1994.0697	1006.4	122.85
931.1038	1995.6592	1011.4	128.3
931.2415	1997.2479	1007.4	122.7
931.3793	1998.8359	1003.4	121.65
931.517	2000.4232	1004.85	122.45
931.6547	2002.0097	1002.25	118.7
931.7923	2003.5955	1003.3	119.1
931.93	2005.1805	1007.5	122.45
932.0676	2006.7648	1008.05	125.2
932.2052	2008.3484	1007.2	123.15
932.3427	2009.9312	1006.7	121.75
932.4803	2011.5133	1002.8	121.4
932.6178	2013.0946	1004.65	123.35
932.7553	2014.6752	1003.2	122.35
932.8928	2016.2551	1004.2	119.6
933.0302	2017.8342	1000.35	115.35
933.1676	2019.4126	998.6	117.25
933.305	2020.9902	1003.1	118.3
933.4424	2022.5672	1005.95	121
933.5798	2024.1433	1011.05	119.05
933.7171	2025.7188	1006.9	124.9
933.8544	2027.2935	1004.05	119
933.9917	2028.8674	1000.5	117.5
934.129	2030.4406	1002.85	119.1
934.2662	2032.0131	1000.85	116.6
934.4034	2033.5849	1005.2	115.75
934.5406	2035.1559	997.6	113.45
934.6778	2036.7261	998.35	114.9
934.8149	2038.2957	1002.75	118.7
934.952	2039.8645	1000.95	116.1
935.0891	2041.4325	1003.85	117.45
935.2262	2042.9998	1002.2	120.4
935.3632	2044.5664	1001.95	116.75
935.5002	2046.1323	1002.1	119.2
935.6372	2047.6974	1003.4	118.9
935.7742	2049.2617	1000.45	117.4
935.9111	2050.8254	1024.55	118.15
936.048	2052.3883	1002.25	118.15
936.1849	2053.9504	1004.5	121.2
936.3218	2055.5118	1002.1	118.7
936.4586	2057.0725	1008.05	121.65
936.5955	2058.6325	1003.75	120.4
936.7323	2060.1917	1000.6	117.15
936.869	2061.7502	1004.55	116.6
937.0058	2063.3079	1000.05	116.85
937.1425	2064.8649	998.75	111.15
937.2792	2066.4212	999.5	114.65
937.4159	2067.9767	998.3	116.1
937.5525	2069.5315	998.4	114.6
937.6891	2071.0856	1001.55	117.8
937.8257	2072.6389	1000.85	116.6
937.9623	2074.1915	998.35	117
938.0989	2075.7433	1000.15	115.05
938.2354	2077.2945	996.05	112.9
938.3719	2078.8448	996.8	115.1
938.5084	2080.3945	999.35	116.15
938.6448	2081.9434	996.6	113.05
938.7812	2083.4916	1001.25	116.8
938.9176	2085.039	1000	116.2
939.054	2086.5857	1000.2	115.9
939.1903	2088.1317	999.25	115.7
939.3267	2089.677	997.35	113.9
939.463	2091.2215	1003.25	120.95
939.5992	2092.7652	997.75	112.5
939.7355	2094.3083	999.25	114.8
939.8717	2095.8506	996.7	114.75
940.0079	2097.3921	995.05	113.05
940.1441	2098.933	995.75	110
940.2802	2100.4731	993.35	110.4
940.4163	2102.0124	1014.6	113
940.5524	2103.5511	997.25	115.05
940.6885	2105.089	997.4	113.95
940.8245	2106.6261	995.9	113.3
940.9606	2108.1626	996.6	111.75
941.0965	2109.6983	1028.25	115.6
941.2325	2111.2332	998.6	115.9
941.3684	2112.7675	995.65	113.15
941.5044	2114.301	999.25	115.15
941.6403	2115.8337	998.9	115.1
941.7761	2117.3657	995.9	113.9
941.912	2118.897	1000.95	116.55
942.0478	2120.4276	1003.95	116.1
942.1835	2121.9575	995.9	113.15
942.3193	2123.4866	1011.75	116.05
942.455	2125.0149	1001.95	116.65
942.5907	2126.5426	998.55	114.25
942.7264	2128.0695	1000.1	113.35
942.8621	2129.5956	995.4	113.25
942.9977	2131.1211	1000.4	113.75
943.1333	2132.6458	996.45	114.7
943.2689	2134.1698	995.9	113.1
943.4044	2135.693	998.75	112.15
943.54	2137.2155	999.3	112.65
943.6755	2138.7373	996.5	113.15
943.8109	2140.2584	994.8	112.35
943.9464	2141.7787	1003.65	114.15
944.0818	2143.2983	997.15	115.05
944.2172	2144.8171	992.15	110.25
944.3526	2146.3353	997.05	110.85
944.4879	2147.8527	994.95	112.85
944.6232	2149.3693	993.45	112.25
944.7585	2150.8853	994.45	108.8
944.8938	2152.4005	994.85	111.45
945.029	2153.9149	994.1	110
945.1642	2155.4287	993.55	109.1
945.2994	2156.9417	997.65	114.25
945.4346	2158.454	997.7	111.45
945.5697	2159.9655	993	108.95
945.7048	2161.4764	988.5	103.75
945.8399	2162.9865	993.9	110.9
945.9749	2164.4958	994.65	111.25
946.1099	2166.0045	995.4	109.05
946.2449	2167.5124	993.8	110.65
946.3799	2169.0195	991.65	107.15
946.5148	2170.526	993.05	109.25
946.6498	2172.0317	989.35	106.45
946.7846	2173.5367	995.85	110.25
946.9195	2175.0409	989.8	107.5
947.0543	2176.5445	989.8	106.95
947.1891	2178.0473	993.95	110.8
947.3239	2179.5494	992.95	106.3
947.4587	2181.0507	990.85	108.35
947.5934	2182.5513	990.25	105.65
947.7281	2184.0512	988.75	105.65
947.8628	2185.5504	988.9	106.15
947.9974	2187.0488	991	108.9
948.132	2188.5465	989.3	106.65
948.2666	2190.0435	990.7	106.35
948.4012	2191.5397	990.4	106.9
948.5357	2193.0353	990.35	109.3
948.6702	2194.5301	990.25	105.8
948.8047	2196.0241	991.15	108.3
948.9392	2197.5175	988.25	105.45
949.0736	2199.0101	990.8	103.95
949.208	2200.502	985.7	104.8
949.3424	2201.9931	988.15	105.65
949.4767	2203.4835	991.8	107.55
949.611	2204.9733	994.6	105.8
949.7453	2206.4622	989	104.7
949.8796	2207.9505	988.55	103.65
950.0138	2209.438	986	103.65
950.148	2210.9248	990.6	106.65
950.2822	2212.4109	981.6	98.5
950.4164	2213.8962	985.1	99.8
950.5505	2215.3809	986.05	101.4
950.6846	2216.8648	985.35	101.75
950.8186	2218.3479	989.1	102.5
950.9527	2219.8304	987.05	101.25
951.0867	2221.3121	987.05	100.6
951.2207	2222.7931	984.2	103.4
951.3546	2224.2733	983.1	99.25
951.4886	2225.7529	985.25	100
951.6225	2227.2317	985.45	97.6
951.7563	2228.7098	985.65	103.35
951.8902	2230.1872	983.3	99.85
952.024	2231.6638	984.2	102.35
952.1578	2233.1397	989.7	101.75
952.2916	2234.6149	981.7	99.75
952.4253	2236.0894	984.4	98.05
952.559	2237.5632	990.55	97.2
952.6927	2239.0362	977.7	94.35
952.8263	2240.5085	978.1	94.9
952.9599	2241.9801	979.1	95.6
953.0935	2243.4509	980.15	97.5
953.2271	2244.921	978.2	97.35
953.3606	2246.3904	981.05	96.25
953.4941	2247.8591	977.8	95.2
953.6276	2249.3271	978.8	95.85
953.7611	2250.7943	977.55	95.3
953.8945	2252.2608	976.15	92.6
954.0279	2253.7266	974.5	92.85
954.1612	2255.1917	977.85	95.05
954.2946	2256.656	979.3	93.75
954.4279	2258.1197	973.6	91.4
954.5612	2259.5826	980.95	94.95
954.6944	2261.0447	981.45	97.1
954.8276	2262.5062	978.75	93.8
954.9608	2263.9669	975.25	91.75
955.094	2265.4269	976.95	93.7
955.2271	2266.8862	976.45	93
955.3602	2268.3448	977.8	91.35
955.4933	2269.8026	974.3	90.2
955.6264	2271.2598	974.9	90.1
955.7594	2272.7162	972.7	91.15
955.8924	2274.1719	973.95	89.2
956.0253	2275.6268	973.65	91.6
956.1583	2277.0811	977.45	93.2
956.2912	2278.5346	973.55	90.55
956.4241	2279.9874	973.1	87.75
956.5569	2281.4395	971.15	89.8
956.6897	2282.8908	981.6	92
956.8225	2284.3414	975.35	91.6
956.9553	2285.7914	974.95	91.75
957.088	2287.2406	975.6	92.45
957.2207	2288.689	970.05	89.15
957.3534	2290.1368	974.2	90.45
957.486	2291.5838	977.85	92.15
957.6186	2293.0302	974.4	89.25
957.7512	2294.4758	972.4	89.55
957.8838	2295.9206	976.9	91.35
958.0163	2297.3648	973.5	90.65
958.1488	2298.8082	974.45	91.3
958.2813	2300.251	967.3	83.8
958.4137	2301.693	973.05	88.25
958.5461	2303.1343	971.45	86.5
958.6785	2304.5748	970.35	86.35
958.8108	2306.0147	972.35	89.75
958.9432	2307.4538	976.45	90.3
959.0754	2308.8922	968.35	85.5
959.2077	2310.3299	974.15	91.9
959.3399	2311.7669	968.95	86.85
959.4721	2313.2031	969.75	86.2
959.6043	2314.6387	969.75	85.35
959.7365	2316.0735	968.5	85.9
959.8686	2317.5076	968.95	82.35
960.0006	2318.941	967.4	85.45
960.1327	2320.3737	967.6	83.45
960.2647	2321.8056	971.45	84.15
960.3967	2323.2369	971.2	88.1
960.5287	2324.6674	972.6	88.5
960.6606	2326.0972	974.75	89.3
960.7925	2327.5263	976.35	94
960.9244	2328.9547	976.1	92
961.0562	2330.3823	972.85	89.25
961.1881	2331.8092	977.7	91.6
961.3198	2333.2355	967.35	83.5
961.4516	2334.661	967.45	84.05
961.5833	2336.0858	968.45	81.95
961.715	2337.5098	964.95	82.25
961.8467	2338.9332	967.7	83.45
961.9783	2340.3558	968.5	81.65
962.1099	2341.7778	965.8	82.7
962.2415	2343.199	967.75	81.45
962.373	2344.6195	963.2	81.2
962.5045	2346.0393	961.25	77.6
962.636	2347.4583	966.5	81.75
962.7675	2348.8767	966.85	80.9
962.8989	2350.2943	966.55	82.85
963.0303	2351.7113	966.1	82.4
963.1617	2353.1275	963.45	81.3
963.293	2354.543	972.55	78.95
963.4243	2355.9578	962.7	79.15
963.5556	2357.3718	958.85	75.7
963.6868	2358.7852	961.7	76.3
963.818	2360.1978	963.95	80.55
963.9492	2361.6098	961.5	76
964.0803	2363.021	968.15	80.1
964.2114	2364.4315	961.55	78.85
964.3425	2365.8413	962.2	76.9
964.4736	2367.2504	960.15	75.8
964.6046	2368.6587	962.55	80.7
964.7356	2370.0664	965	80.05
964.8666	2371.4733	960.9	78
964.9975	2372.8795	958.85	75.65
965.1284	2374.285	959.6	74.5
965.2593	2375.6899	957.6	74.85
965.3901	2377.0939	959.05	76.2
965.5209	2378.4973	959.1	75
965.6517	2379.9	960.65	76.25
965.7825	2381.3019	959.3	77.85
965.9132	2382.7032	956.35	73.2
966.0439	2384.1037	960.2	78.95
966.1745	2385.5035	958.15	74.3
966.3051	2386.9027	959.75	76.2
966.4357	2388.3011	960.15	74.1
966.5663	2389.6987	959.9	75.55
966.6968	2391.0957	959.75	78.15
966.8273	2392.492	956.75	71.9
966.9578	2393.8876	956.25	71.9
967.0882	2395.2824	957.25	70.95
967.2186	2396.6765	954.6	71.95
967.349	2398.07	957.55	75.95
967.4793	2399.4627	956.9	72.7
967.6097	2400.8547	954.5	72.9
967.7399	2402.246	960.55	71.15
967.8702	2403.6366	957.05	72.4
968.0004	2405.0265	955.7	72.95
968.1306	2406.4156	959.8	72.65
968.2607	2407.8041	954.6	69.15
968.3909	2409.1918	953.1	67
968.521	2410.5789	954.55	71.35
968.651	2411.9652	957.6	71.05
968.781	2413.3508	953.45	70.05
968.911	2414.7358	955.4	70.25
969.041	2416.12	948.6	65.7
969.1709	2417.5035	952.9	69.2
969.3008	2418.8863	952.15	68.55
969.4307	2420.2684	955.6	72.2
969.5606	2421.6497	950.9	67.15
969.6904	2423.0304	951.1	69.25
969.8201	2424.4104	952.65	66.4
969.9499	2425.7896	958.1	68.5
970.0796	2427.1682	951.35	67.2
970.2093	2428.546	950.75	66.95
970.3389	2429.9232	951.1	66.9
970.4685	2431.2996	950	66.5
970.5981	2432.6753	950.1	66.35
970.7277	2434.0503	949.7	65.65
970.8572	2435.4246	949	66.05
970.9867	2436.7982	954.45	70.6
971.1161	2438.1711	950.5	69.05
971.2456	2439.5433	949.55	64.15
971.375	2440.9148	956.45	66.8
971.5043	2442.2856	948.05	64.95
971.6336	2443.6557	952.75	68.75
971.7629	2445.025	944.2	60.3
971.8922	2446.3937	949.05	63.5
972.0214	2447.7617	949.9	64.95
972.1506	2449.1289	949.05	67.1
972.2798	2450.4955	951.65	63.8
972.4089	2451.8613	947.35	61.7
972.538	2453.2265	948.25	65.55
972.6671	2454.5909	948.85	65.25
972.7961	2455.9546	947.65	63.75
972.9251	2457.3177	945.75	61.95
973.0541	2458.68	944.6	58.05
973.1831	2460.0416	947.15	65
973.312	2461.4025	948.55	63.1
973.4408	2462.7627	959.5	62.9
973.5697	2464.1222	945.8	61.55
973.6985	2465.4811	946.65	63.1
973.8273	2466.8392	947.1	62.8
973.956	2468.1966	948.15	61.1
974.0847	2469.5533	948.65	63.8
974.2134	2470.9093	945.5	62.1
974.3421	2472.2645	946.45	60.3
974.4707	2473.6191	945.2	63.4
974.5993	2474.973	945.3	61.15
974.7278	2476.3262	951.05	65.3
974.8563	2477.6787	943.9	59.65
974.9848	2479.0305	943.7	60.6
975.1132	2480.3816	943.95	58.2
975.2417	2481.7319	942.1	59.1
975.37	2483.0816	945	60.2
975.4984	2484.4306	946.55	62.15
975.6267	2485.7789	942.2	58.4
975.755	2487.1264	947.7	61.7
975.8833	2488.4733	942.45	59.35
976.0115	2489.8195	958.5	57.35
976.1397	2491.165	948.8	63.2
976.2678	2492.5097	943.45	58.15
976.3959	2493.8538	943.1	59.1
976.524	2495.1972	941.8	58.05
976.6521	2496.5398	939.35	54.55
976.7801	2497.8818	943.95	58.8
976.9081	2499.2231	941	57.2
977.036	2500.5637	944.75	58.85
977.164	2501.9035	942.3	57.65
977.2918	2503.2427	947.7	61.2
977.4197	2504.5812	942.2	59.6
977.5475	2505.919	947.25	61.85
977.6753	2507.256	941.45	57.5
977.8031	2508.5924	937.8	53.95
977.9308	2509.9281	948.25	58.35
978.0585	2511.2631	941.6	58.35
978.1861	2512.5974	942.55	60.4
978.3137	2513.9309	939.6	56.3
978.4413	2515.2638	972.5	58.9
978.5689	2516.596	941.35	58.65
978.6964	2517.9275	940.45	54.4
978.8239	2519.2583	942.1	58
978.9513	2520.5884	940.7	55.05
979.0788	2521.9178	936.25	49.8
979.2062	2523.2465	938.3	54.8
979.3335	2524.5745	938.45	54.7
979.4608	2525.9018	938.65	56.65
979.5881	2527.2284	935.75	54.4
979.7154	2528.5543	935.35	54.7
979.8426	2529.8796	934.3	50.3
979.9698	2531.2041	937.8	54.5
980.0969	2532.5279	935.2	50.75
980.224	2533.851	938.5	53.25
980.3511	2535.1735	937.2	55.3
980.4781	2536.4952	937.4	53.8
980.6052	2537.8163	938.85	55.25
980.7321	2539.1366	934.3	51.85
980.8591	2540.4562	936.75	53.4
980.986	2541.7752	938.1	55.5
981.1129	2543.0935	938.2	55.65
981.2397	2544.411	938.55	53
981.3665	2545.7279	936.4	54.35
981.4933	2547.0441	936.85	52.95
981.62	2548.3596	936.95	50.2
981.7467	2549.6744	939	58.9
981.8734	2550.9885	936.5	50.95
982.0001	2552.3019	932.75	49.8
982.1267	2553.6146	937.5	53.3
982.2532	2554.9266	936.1	54.45
982.3798	2556.2379	936.4	50.85
982.5063	2557.5485	935.5	53.6
982.6327	2558.8585	942.4	51.25
982.7592	2560.1677	937.85	49.4
982.8856	2561.4762	935.45	51.75
983.0119	2562.7841	937.85	49.85
983.1383	2564.0913	930.65	48.2
983.2646	2565.3977	935.5	52.95
983.3908	2566.7035	934.55	49.65
983.517	2568.0086	934	49.5
983.6432	2569.313	935.15	51.55
983.7694	2570.6167	936.35	47.15
983.8955	2571.9197	933.3	49.3
984.0216	2573.222	937.2	50.15
984.1476	2574.5236	937.5	54.85
984.2737	2575.8246	934.35	48.85
984.3996	2577.1248	935.8	49.8
984.5256	2578.4244	931.3	48.45
984.6515	2579.7232	931.65	48.9
984.7774	2581.0214	964.2	51.6
984.9032	2582.3189	932.75	50.05
985.029	2583.6157	936.75	48.85
985.1548	2584.9118	932.55	49.3
985.2806	2586.2072	930.35	48.45
985.4063	2587.5019	933.55	50.05
985.5319	2588.7959	933.9	52.05
985.6576	2590.0893	933	48.7
985.7832	2591.3819	931.55	49.05
985.9087	2592.6739	931.65	49.1
986.0343	2593.9652	934.95	48.8
986.1597	2595.2557	930.9	48.35
986.2852	2596.5456	935.15	49.75
986.4106	2597.8348	928.45	46.1
986.536	2599.1234	931.8	48.85
986.6614	2600.4112	929.45	45.8
986.7867	2601.6983	935.85	50.95
986.912	2602.9848	932.8	48.4
987.0372	2604.2705	938.85	50.25
987.1624	2605.5556	930.9	47.05
987.2876	2606.84	929.85	46.35
987.4128	2608.1237	931.8	47.45
987.5379	2609.4067	933.6	50.6
987.6629	2610.689	937.55	45.6
987.788	2611.9707	933.25	47.85
987.913	2613.2516	933.5	45.8
988.0379	2614.5319	928.55	46.05
988.1629	2615.8115	930.65	47.6
988.2878	2617.0903	928.8	45.05
988.4126	2618.3685	928.6	45.75
988.5375	2619.6461	927.05	43
988.6622	2620.9229	929.1	46.1
988.787	2622.199	929.8	43.3
988.9117	2623.4745	930.6	45.3
989.0364	2624.7493	927.55	46.4
989.161	2626.0234	928.45	43.65
989.2857	2627.2968	926.15	43.95
989.4102	2628.5695	931.5	44.95
989.5348	2629.8415	927.3	45.25
989.6593	2631.1128	928.95	43.1
989.7837	2632.3835	925.75	42.25
989.9082	2633.6535	925.5	43
990.0326	2634.9228	928.75	46.3
990.1569	2636.1914	924.5	40.1
990.2812	2637.4593	929.05	41.7
990.4055	2638.7265	924.9	39.8
990.5298	2639.9931	924.35	40.9
990.654	2641.259	926.75	43.2
990.7782	2642.5242	925.65	40.45
990.9023	2643.7887	923.4	39.85
991.0264	2645.0525	926.35	45.65
991.1505	2646.3156	926.65	43.85
991.2745	2647.5781	924.05	40.1
991.3985	2648.8398	924.35	41.05
991.5225	2650.1009	962.75	43.4
991.6464	2651.3613	924.9	42.25
991.7703	2652.6211	923.85	39.7
991.8942	2653.8801	923.1	39.95
992.018	2655.1385	927.45	41.05
992.1418	2656.3961	925.85	43.95
992.2655	2657.6531	925.7	40.5
992.3892	2658.9094	924.45	41.2
992.5129	2660.1651	921.1	38.35
992.6366	2661.42	921.7	37.5
992.7602	2662.6743	924.15	39.5
992.8837	2663.9279	924.3	42.15
993.0073	2665.1808	924.05	39.65
993.1307	2666.433	926.85	42.55
993.2542	2667.6846	920.35	35.15
993.3776	2668.9354	927.4	42.65
993.501	2670.1856	924.4	40.95
993.6244	2671.4351	920.8	39.4
993.7477	2672.6839	923.6	38.65
993.8709	2673.9321	924.25	40.4
993.9942	2675.1795	923.45	41
994.1174	2676.4263	921.45	40.7
994.2405	2677.6724	923.95	39.7
994.3637	2678.9179	925	42.35
994.4868	2680.1626	921.7	38.95
994.6098	2681.4067	924.3	41.05
994.7328	2682.6501	922.45	40.05
994.8558	2683.8928	923.55	39.2
994.9788	2685.1348	922.15	40.45
995.1017	2686.3761	918.35	34.9
995.2245	2687.6168	923.65	40.8
995.3474	2688.8568	924.5	40.7
995.4702	2690.0961	921.1	38.5
995.5929	2691.3348	921.65	36.55
995.7156	2692.5727	922.1	36.45
995.8383	2693.81	921.1	35.45
995.961	2695.0466	920	37.6
996.0836	2696.2826	921.6	36.7
996.2062	2697.5178	922.1	35.15
996.3287	2698.7524	919.85	35.55
996.4512	2699.9863	921.8	34.1
996.5737	2701.2195	921.15	40.15
996.6961	2702.452	923.15	37
996.8185	2703.6839	921.95	39.45
996.9408	2704.9151	921.7	39.85
997.0631	2706.1456	922.2	38.45
997.1854	2707.3755	920.4	37.8
997.3077	2708.6046	924.6	38.25
997.4299	2709.8331	921	39.45
997.552	2711.0609	923.7	42
997.6742	2712.2881	919.55	38.6
997.7963	2713.5145	923.05	37.7
997.9183	2714.7403	922.25	39.5
998.0403	2715.9654	923.1	39.55
998.1623	2717.1899	938.15	39.65
998.2842	2718.4136	922.25	39.5
998.4062	2719.6367	924.75	41.35
998.528	2720.8591	932.65	42.3
998.6498	2722.0809	924.5	42.15
998.7716	2723.3019	926.85	40
998.8934	2724.5223	929.15	43
999.0151	2725.7421	923.8	37.65
999.1368	2726.9611	929.5	43.5
999.2584	2728.1795	927.4	38.7
999.38	2729.3972	924.7	41
999.5016	2730.6142	935.85	38.9
999.6231	2731.8306	923.4	38.45
999.7446	2733.0462	925.1	39.95
999.8661	2734.2612	925.75	39
999.9875	2735.4756	923.25	38.65
1000.1089	2736.6892	918.55	33.9
1000.2302	2737.9022	917.75	34.75
1000.3515	2739.1145	918.7	32.3
1000.4728	2740.3262	927.4	35.6
1000.594	2741.5372	916.6	34.5
1000.7152	2742.7475	917.75	35.7
1000.8363	2743.9571	920.1	34.85
1000.9575	2745.1661	921.45	32.7
1001.0785	2746.3744	919.4	35.8
1001.1996	2747.582	918.4	36.4
1001.3206	2748.7889	917.6	34.05
1001.4415	2749.9952	913.9	32.65
1001.5625	2751.2008	918.45	32.5
1001.6833	2752.4057	918	30.75
1001.8042	2753.61	915.15	31.15
1001.925	2754.8136	915.85	29.85
1002.0458	2756.0165	912.65	30.1
1002.1665	2757.2188	909.4	26.95
1002.2872	2758.4204	914.05	30.65
1002.4078	2759.6213	916.8	30.5
1002.5285	2760.8215	919.1	32
1002.649	2762.0211	915.85	31.15
1002.7696	2763.22	916.4	29.25
1002.8901	2764.4182	916.7	31.55
1003.0106	2765.6158	914	30.55
1003.131	2766.8127	912.2	28.55
1003.2514	2768.009	914.4	31.3
1003.3717	2769.2045	916.15	33.95
1003.492	2770.3994	916.6	32.9
1003.6123	2771.5936	914.75	29.65
1003.7325	2772.7872	910.55	26.55
1003.8527	2773.9801	913.45	28.8
1003.9729	2775.1723	929.85	30.4
1004.093	2776.3639	912.75	29.95
1004.2131	2777.5548	915.7	29
1004.3331	2778.745	913.35	28.1
1004.4531	2779.9346	911.55	29.4
1004.5731	2781.1235	913.65	29.65
1004.693	2782.3117	910.65	26.85
1004.8129	2783.4992	912	28.6
1004.9328	2784.6861	913.2	29.95
1005.0526	2785.8723	914.1	28.35
1005.1723	2787.0579	912.95	28.7
1005.2921	2788.2428	910.8	25.5
1005.4118	2789.427	912.35	31.2
1005.5314	2790.6106	913.2	29.8
1005.651	2791.7935	913.75	30.55
1005.7706	2792.9757	910.45	28.6
1005.8902	2794.1573	916.15	31.35
1006.0097	2795.3382	909.35	24.75
1006.1291	2796.5184	912.1	30.6
1006.2485	2797.698	913.15	26.9
1006.3679	2798.8769	912.8	29.1
1006.4873	2800.0551	915	31.15
1006.6066	2801.2327	914.95	29.65
1006.7258	2802.4096	911.25	29.05
1006.8451	2803.5859	912.5	28.95
1006.9642	2804.7615	914.6	32.05
1007.0834	2805.9364	910.35	27.8
1007.2025	2807.1106	912.15	29.5
1007.3216	2808.2842	913.95	29.7
1007.4406	2809.4572	913.4	28.35
1007.5596	2810.6294	915.7	31.55
1007.6785	2811.801	914.4	32.35
1007.7975	2812.972	916.9	34.25
1007.9163	2814.1423	920.1	36.85
1008.0352	2815.3119	919.95	35.75
1008.154	2816.4808	918.05	36.55
1008.2727	2817.6491	919.2	34.95
1008.3914	2818.8167	920.25	38.05
1008.5101	2819.9837	927.25	39.8
1008.6288	2821.15	926.4	43.85
1008.7474	2822.3157	931.8	51.85
1008.8659	2823.4807	931.8	48.5
1008.9844	2824.645	939.3	54.5
1009.1029	2825.8086	941.8	60.2
1009.2214	2826.9716	944.7	61.75
1009.3398	2828.134	946.8	64.1
1009.4581	2829.2957	952.85	68.2
1009.5764	2830.4567	954.95	72.35
1009.6947	2831.617	958.15	74.7
1009.813	2832.7767	956.5	72
1009.9312	2833.9358	956.6	76.1
1010.0493	2835.0941	959.85	73.65
1010.1675	2836.2519	956.5	74.45
1010.2855	2837.4089	955.35	71.65
1010.4036	2838.5653	952.1	68.2
1010.5216	2839.7211	951.3	70.2
1010.6396	2840.8761	950.7	66.45
1010.7575	2842.0306	946.6	63.7
1010.8754	2843.1843	948.2	64.2
1010.9932	2844.3374	946.75	63.9
1011.111	2845.4899	948.7	64.25
1011.2288	2846.6417	950.6	68.35
1011.3465	2847.7928	950.35	67.45
1011.4642	2848.9433	950.9	69.15
1011.5818	2850.0931	949.85	66.65
1011.6995	2851.2422	951.8	67.7
1011.817	2852.3907	956.5	70.7
1011.9345	2853.5385	953.75	68.85
1012.052	2854.6857	979.15	69
1012.1695	2855.8323	951.2	68
1012.2869	2856.9781	954.1	72.05
1012.4042	2858.1233	959.6	76.45
1012.5216	2859.2679	957.3	76.1
1012.6389	2860.4118	962.15	79.75
1012.7561	2861.555	966.9	79.55
1012.8733	2862.6976	960.45	74.45
1012.9905	2863.8395	965.75	84.65
1013.1076	2864.9808	965.65	80.6
1013.2247	2866.1214	967.5	85.95
1013.3417	2867.2614	968.45	84.45
1013.4587	2868.4007	968	83.2
1013.5757	2869.5393	973.15	90.25
1013.6926	2870.6773	974.35	87
1013.8095	2871.8146	973.55	87.1
1013.9263	2872.9513	974.45	89.15
1014.0431	2874.0874	976.05	92.05
1014.1599	2875.2227	971.8	87.7
1014.2766	2876.3574	973.95	90.95
1014.3933	2877.4915	973.75	90.55
1014.51	2878.6249	975.8	93.05
1014.6266	2879.7577	976.55	91.4
1014.7431	2880.8898	991.15	96.8
1014.8596	2882.0212	977.05	91.65
1014.9761	2883.152	980.95	96.55
1015.0925	2884.2821	980.5	99.65
1015.2089	2885.4116	983.3	101.8
1015.3253	2886.5405	986.9	104.9
1015.4416	2887.6686	987.75	101.05
1015.5579	2888.7962	981.85	102.1
1015.6741	2889.923	985.9	102.4
1015.7903	2891.0493	983.6	102.95
1015.9065	2892.1748	985.2	100.6
1016.0226	2893.2997	984.5	100.95
1016.1387	2894.424	984.6	102.25
1016.2547	2895.5476	983.8	100.35
1016.3707	2896.6706	986.4	105
1016.4866	2897.7929	985.05	101.4
1016.6025	2898.9145	982.05	97.8
1016.7184	2900.0355	984.2	99.8
1016.8342	2901.1559	987.1	103.2
1016.95	2902.2756	986.45	100.8
1017.0658	2903.3946	981.45	98.4
1017.1815	2904.513	982.7	94.95
1017.2971	2905.6308	981.35	97.35
1017.4127	2906.7479	980.85	98.35
1017.5283	2907.8643	978.75	94.15
1017.6439	2908.9801	984.55	103.7
1017.7594	2910.0953	980.3	94.55
1017.8748	2911.2098	986.35	98.15
1017.9902	2912.3236	992.35	101.75
1018.1056	2913.4368	984.45	96.15
1018.2209	2914.5494	981.55	99
1018.3362	2915.6613	987.85	97.3
1018.4515	2916.7725	981.8	95.15
1018.5667	2917.8831	980.45	94.9
1018.6819	2918.9931	977.05	91.35
1018.797	2920.1024	977.15	91.65
1018.9121	2921.211	972.75	92.1
1019.0271	2922.319	970.45	86.6
1019.1421	2923.4264	973.5	90.95
1019.2571	2924.5331	970.15	86.35
1019.372	2925.6391	969.15	85.5
1019.4869	2926.7445	970.55	87.75
1019.6017	2927.8493	973.9	88.9
1019.7165	2928.9534	971.1	87.3
1019.8313	2930.0569	977.7	90.55
1019.946	2931.1597	973.6	90.2
1020.0606	2932.2619	971.25	88.75
1020.1753	2933.3634	971.2	86.85
1020.2899	2934.4643	979.45	88.35
1020.4044	2935.5645	982.7	91.05
1020.5189	2936.6641	981	91.65
1020.6334	2937.763	973.7	92.95
1020.7478	2938.8613	973.6	89.6
1020.8622	2939.959	982.5	94.1
1020.9765	2941.056	975.15	92.55
1021.0908	2942.1523	968.05	83.75
1021.2051	2943.248	970.35	87.2
1021.3193	2944.3431	963.05	79.55
1021.4334	2945.4375	957.7	74.6
1021.5476	2946.5313	954.5	72.15
1021.6617	2947.6244	951.5	67.45
1021.7757	2948.7169	950.4	67.05
1021.8897	2949.8087	940.75	55.05
1022.0037	2950.8999	940.65	56.45
1022.1176	2951.9904	938.5	56.2
1022.2315	2953.0803	938.45	55.5
1022.3453	2954.1696	934.3	50.05
1022.4591	2955.2582	933.55	51
1022.5728	2956.3462	929.8	46.95
1022.6865	2957.4335	933.2	49.6
1022.8002	2958.5202	932.7	45.75
1022.9138	2959.6062	929.3	47.7
1023.0274	2960.6916	927.95	43.3
1023.141	2961.7764	932.3	49.25
1023.2545	2962.8605	930.95	47.45
1023.3679	2963.9439	929.05	46.55
1023.4813	2965.0267	931.95	45.85
1023.5947	2966.1089	951.35	43.8
1023.708	2967.1905	926.05	42.2
1023.8213	2968.2714	928.85	47.1
1023.9346	2969.3516	927.25	41.05
1024.0478	2970.4312	935.1	45.8
1024.1609	2971.5102	927.05	42.7
1024.274	2972.5885	926	41.55
1024.3871	2973.6662	932.65	44.25
1024.5002	2974.7432	927.8	43.35
1024.6132	2975.8196	928.65	46.2
1024.7261	2976.8954	928.1	46.25
1024.839	2977.9705	925.75	43
1024.9519	2979.045	929.7	46.2
1025.0647	2980.1188	929.95	46.25
1025.1775	2981.192	929.95	48
1025.2902	2982.2645	926.7	43.2
1025.4029	2983.3364	926	42.95
1025.5156	2984.4077	927.35	41.7
1025.6282	2985.4783	930.05	39.85
1025.7407	2986.5483	922.8	42.05
1025.8532	2987.6177	921.35	39.15
1025.9657	2988.6864	921.15	35.5
1026.0782	2989.7545	918.5	34.95
1026.1906	2990.8219	917.75	35.05
1026.3029	2991.8887	921.8	36.55
1026.4152	2992.9548	915	29.6
1026.5275	2994.0204	912.45	30.1
1026.6397	2995.0852	913.55	32.5
1026.7519	2996.1495	912.1	26.5
1026.864	2997.2131	909.55	27.2
1026.9761	2998.276	910.45	26.45
1027.0882	2999.3383	911	27.2
1027.2002	3000.4	913.25	30.3
1027.3122	3001.4611	907.2	22.15
1027.4241	3002.5215	905.15	24.2
1027.536	3003.5812	905.5	22.75
1027.6478	3004.6404	906.15	23.05
1027.7596	3005.6989	907.5	21.1
1027.8714	3006.7567	902.05	18.15
1027.9831	3007.8139	929.05	19.25
1028.0947	3008.8705	903.25	19.95
1028.2064	3009.9264	920.75	20.45
1028.3179	3010.9818	902.55	20.9
1028.4295	3012.0364	902.6	18.1
1028.541	3013.0905	899.6	16.7
1028.6524	3014.1439	901.9	19.65
1028.7638	3015.1966	900.2	16.8
1028.8752	3016.2487	900.1	17
1028.9865	3017.3002	908.55	16.95
1029.0978	3018.3511	897.65	16.25
1029.209	3019.4013	901.25	17.25
1029.3202	3020.4509	898.95	16.3
1029.4314	3021.4998	900.25	16.55
1029.5425	3022.5481	901.65	19.05
1029.6535	3023.5958	899.95	16.75
1029.7645	3024.6428	902	16.9
1029.8755	3025.6892	900.25	17.6
1029.9864	3026.735	900.8	18.45
1030.0973	3027.7802	900.1	19.35
1030.2082	3028.8247	897.6	13.3
1030.319	3029.8685	899	13.35
1030.4297	3030.9118	899.5	17.15
1030.5404	3031.9544	897.9	15.2
1030.6511	3032.9963	897.55	14.15
1030.7617	3034.0376	899.35	16.9
1030.8723	3035.0783	901.45	13.7
1030.9829	3036.1184	899.2	14
1031.0934	3037.1578	898.6	16.65
1031.2038	3038.1966	901.3	20.1
1031.3142	3039.2348	896.6	14.1
1031.4246	3040.2723	907.95	18.35
1031.5349	3041.3092	897.4	14.45
1031.6452	3042.3455	898.35	15.8
1031.7554	3043.3811	901.25	17.15
1031.8656	3044.4161	900.6	15.55
1031.9758	3045.4505	897.35	15.65
1032.0859	3046.4842	898.85	14.95
1032.1959	3047.5173	898.9	19.5
1032.3059	3048.5498	900.85	17.2
1032.4159	3049.5816	899.1	17.05
1032.5258	3050.6128	900.7	15.6
1032.6357	3051.6434	901.3	16.55
1032.7455	3052.6734	899.55	15
1032.8553	3053.7027	899.6	16.05
1032.9651	3054.7314	898.75	15.8
1033.0748	3055.7594	900.35	17.8
1033.1845	3056.7868	899.8	15.85
1033.2941	3057.8136	900.55	17.9
1033.4037	3058.8398	900.3	18.35
1033.5132	3059.8653	897.15	15.8
1033.6227	3060.8902	900.25	15.85
1033.7321	3061.9145	901.7	18.4
1033.8415	3062.9381	898	15.7
1033.9509	3063.9612	915.7	16.25
1034.0602	3064.9835	902.8	19.7
1034.1694	3066.0053	903.3	19.3
1034.2787	3067.0264	900.35	16.3
1034.3878	3068.0469	901.45	17.5
1034.497	3069.0668	904	19.5
1034.6061	3070.086	900.9	19.55
1034.7151	3071.1046	900.95	15.85
1034.8241	3072.1226	902.15	17.3
1034.9331	3073.1399	900.1	17.3
1035.042	3074.1567	899.7	16.6
1035.1508	3075.1727	901.75	18.05
1035.2597	3076.1882	897.75	14.3
1035.3684	3077.203	898.5	14.2
1035.4772	3078.2173	900.4	15.55
1035.5859	3079.2308	902.6	16.45
1035.6945	3080.2438	900.65	12.7
1035.8031	3081.2561	897.7	14.2
1035.9117	3082.2678	896.25	13.4
1036.0202	3083.2789	897.95	15.7
1036.1286	3084.2893	897.7	15.25
1036.2371	3085.2991	898	13.85
1036.3454	3086.3083	901.75	16.95
1036.4538	3087.3169	898.5	14.65
1036.562	3088.3248	899.8	14.35
1036.6703	3089.3321	898.3	13.15
1036.7785	3090.3388	894.4	11.95
1036.8866	3091.3449	892.95	9.9
1036.9948	3092.3503	899.1	12.1
1037.1028	3093.3551	894.85	14.65
1037.2108	3094.3593	894.85	13.45
1037.3188	3095.3629	895.5	11.25
1037.4267	3096.3658	894.1	9.8
1037.5346	3097.3681	892.2	10.45
1037.6425	3098.3698	897.8	11.7
1037.7503	3099.3708	897.45	12.9
1037.858	3100.3713	894.05	9.3
1037.9657	3101.3711	895	12.4
1038.0734	3102.3702	1033.3	7.65
1038.181	3103.3688	897.25	12.95
1038.2886	3104.3667	894.5	11.55
1038.3961	3105.364	894.65	12.7
1038.5036	3106.3607	895.05	9.5
1038.611	3107.3568	897.2	11.95
1038.7184	3108.3522	891.2	8.9
1038.8257	3109.347	897.1	11.9
1038.933	3110.3412	897.15	10.75
1039.0403	3111.3348	894.25	11.25
1039.1475	3112.3277	891.65	8.05
1039.2547	3113.32	893.15	8.7
1039.3618	3114.3117	890.6	6.35
1039.4689	3115.3028	891.65	8.75
1039.5759	3116.2932	894.35	9
1039.6829	3117.2831	900.95	12
1039.7898	3118.2723	892.95	9.25
1039.8967	3119.2608	892.65	9.15
1040.0035	3120.2488	893.3	8.6
1040.1103	3121.2361	893.05	10.3
1040.2171	3122.2229	892.85	10.2
1040.3238	3123.209	894	8.75
1040.4305	3124.1944	891.5	8.45
1040.5371	3125.1793	893.7	6.9
1040.6437	3126.1635	891.75	9
1040.7502	3127.1471	892.05	8.3
1040.8567	3128.1301	892.55	8.25
1040.9631	3129.1125	890.3	7.4
1041.0695	3130.0942	892.6	7.45
1041.1759	3131.0753	899.55	5.95
1041.2822	3132.0558	895.3	7.65
1041.3884	3133.0357	891.7	6.65
1041.4946	3134.015	891.05	8.35
1041.6008	3134.9936	893.7	10.4
1041.7069	3135.9716	911.85	7.35
1041.813	3136.949	892.4	8.45
1041.919	3137.9258	909.15	7.25
1042.025	3138.902	896.75	9.05
1042.1309	3139.8775	890.05	7.2
1042.2368	3140.8524	891.35	7.6
1042.3427	3141.8267	893.6	9.15
1042.4485	3142.8004	892.65	8
1042.5542	3143.7735	894.95	3.7
1042.6599	3144.7459	894.1	9.15
1042.7656	3145.7178	890.95	6.85
1042.8712	3146.689	891.55	10.15
1042.9768	3147.6596	892.4	7.3
1043.0823	3148.6295	891.05	7.25
1043.1878	3149.5989	891.35	10.2
1043.2932	3150.5676	889.45	5.9
1043.3986	3151.5357	888.45	6.55
1043.5039	3152.5032	892.05	6.85
1043.6092	3153.4701	888.2	4.25
1043.7145	3154.4364	893.25	5.4
1043.8197	3155.402	891.1	8.4
1043.9248	3156.367	894.15	9.35
1044.03	3157.3315	910.6	9
1044.135	3158.2952	891.05	7.3
1044.24	3159.2584	889.6	7.45
1044.345	3160.221	892.2	7.45
1044.4499	3161.1829	889.1	3.85
1044.5548	3162.1442	889.1	5.55
1044.6596	3163.105	889.95	7.7
1044.7644	3164.065	891.15	7.35
1044.8692	3165.0245	893.45	8.85
1044.9739	3165.9834	889.1	7.05
1045.0785	3166.9416	889.55	6.4
1045.1831	3167.8993	891.15	6.85
1045.2877	3168.8563	892.4	11.15
1045.3922	3169.8127	890.7	5
1045.4966	3170.7684	888.4	4.9
1045.6011	3171.7236	890.8	6.6
1045.7054	3172.6782	889	6.8
1045.8098	3173.6321	891	9.05
1045.914	3174.5854	894.05	5.75
1046.0183	3175.5381	889.7	7.95
1046.1224	3176.4902	889.25	7.1
1046.2266	3177.4417	888.5	5.65
1046.3307	3178.3926	889.15	7.35
1046.4347	3179.3428	888.85	6.75
1046.5387	3180.2924	886.95	4.65
1046.6427	3181.2415	888.8	5.2
1046.7466	3182.1899	891.2	5.2
1046.8504	3183.1377	889.45	7.2
1046.9542	3184.0848	893.8	7.1
1047.058	3185.0314	890.45	6.8
1047.1617	3185.9773	888.3	3.75
1047.2654	3186.9227	889.9	5.1
1047.369	3187.8674	889.35	7.85
1047.4726	3188.8115	891.9	3.75
1047.5761	3189.755	888.2	4.9
1047.6796	3190.6979	887.65	4.3
1047.783	3191.6402	887.9	5.6
1047.8864	3192.5818	889.95	5.8
1047.9898	3193.5229	903.9	5.9
1048.0931	3194.4633	890.25	7.85
1048.1963	3195.4031	888.8	6.3
1048.2995	3196.3423	889.1	6.1
1048.4027	3197.2809	888.45	4.6
1048.5058	3198.2189	888.75	3.1
1048.6089	3199.1563	906.25	7.05
1048.7119	3200.0931	888.65	5.65
1048.8148	3201.0292	887.6	5.35
1048.9178	3201.9648	887.5	3.4
1049.0206	3202.8997	893.65	7.55
1049.1235	3203.834	887.45	3.65
1049.2262	3204.7677	890.75	8.65
1049.329	3205.7008	891.35	4.7
1049.4317	3206.6333	886.6	3.65
1049.5343	3207.5652	890	5.4
1049.6369	3208.4964	887.8	3.6
1049.7394	3209.4271	889.55	5.55
1049.8419	3210.3571	886.75	3.3
1049.9444	3211.2865	889.05	5.2
1050.0468	3212.2154	888.95	4.4
1050.1491	3213.1436	891.15	1.8
1050.2514	3214.0712	894.5	4.65
1050.3537	3214.9982	888.45	5.25
1050.4559	3215.9246	888.65	3.8
1050.5581	3216.8503	888.05	5.4
1050.6602	3217.7755	887.15	1.75
1050.7623	3218.7001	887.4	6.75
1050.8643	3219.624	889.85	7
1050.9663	3220.5473	886.95	3.4
1051.0682	3221.4701	889.6	5.45
1051.1701	3222.3922	887.5	2.85
1051.2719	3223.3137	886.1	4.15
1051.3737	3224.2346	889.8	6.1
1051.4754	3225.1549	887.15	3.3
1051.5771	3226.0746	888.1	6.9
1051.6788	3226.9937	888.8	4.85
1051.7804	3227.9121	887	4.75
1051.8819	3228.83	888.1	3.8
1051.9834	3229.7473	888.15	5.8
1052.0849	3230.6639	887.65	3.85
1052.1863	3231.5799	886.2	2.4
1052.2876	3232.4954	888.8	5.8
1052.3889	3233.4102	888.25	4.55
1052.4902	3234.3244	887.8	3
1052.5914	3235.238	886.1	4.7
1052.6926	3236.151	910.55	1.7
1052.7937	3237.0634	887.8	4.6
1052.8948	3237.9752	889.05	5.35
1052.9958	3238.8864	888.65	2.65
1053.0968	3239.797	886.6	5
1053.1977	3240.7069	889.15	6.4
1053.2986	3241.6163	888.65	4.2
1053.3994	3242.5251	887.55	5
1053.5002	3243.4332	885.55	1.95
1053.6009	3244.3408	888.3	1.65
1053.7016	3245.2477	886.6	3.6
1053.8022	3246.154	888.95	5.2
1053.9028	3247.0598	891.2	8.8
1054.0034	3247.9649	885.4	1
1054.1039	3248.8694	885.85	3.6
1054.2043	3249.7733	888.2	5.3
1054.3047	3250.6766	887.75	1.7
1054.4051	3251.5793	890.1	7.65
1054.5054	3252.4814	885.1	0.85
1054.6056	3253.3829	886.1	3.95
1054.7058	3254.2838	888.65	4.65
1054.806	3255.1841	886.8	3.05
1054.9061	3256.0838	886.95	4
1055.0061	3256.9829	885.25	1.65
1055.1062	3257.8814	889.5	4.75
1055.2061	3258.7792	889.45	3.15
1055.306	3259.6765	888.85	5.95
1055.4059	3260.5731	887.1	5.35
1055.5057	3261.4692	889	4.7
1055.6055	3262.3647	885.55	0.65
1055.7052	3263.2595	887.4	4.1
1055.8049	3264.1538	885.45	0.8
1055.9045	3265.0474	887.95	5
1056.0041	3265.9404	886.05	3.4
1056.1036	3266.8329	887.95	5
1056.2031	3267.7247	897.1	4.5
1056.3025	3268.616	886.65	4
1056.4019	3269.5066	887.7	4.2
1056.5013	3270.3966	888.7	1.9
1056.6005	3271.286	884.85	2.85
