Software Version:	3.9.2.0
Unit SN:	10000200
Spectrometer SN:	6960
Date:	3/14/2024 1:13:18 PM
Data Line Index:	25
Spectral Points:	2048
Integration time (ms):	125
Averages:	20
Delay (ms):	30000
Sequence Number:	1
Processing:	dark subtract
Laser Power (mW):	305
Laser Current (mA):	825
Laser Diode Temp (C):	25.1
Laser Case Temp (C):	28.1
System Temp (C):	28.2
Spectrometer Temp (C):	26.1
CCD Temp (C):	0.008
Secondary Temp (C):	19.998
Heatsink Temp (C):	24.07
CCDPCB Temp (C):	37.641
SecondaryPCB Temp (C):	35.384

Wavelength	RamanShift	Raw Counts	Dark Subtracted
787.061	30.1047	440.4	30.65
787.2016	32.3739	445	36.1
787.3422	34.6426	445.95	35.45
787.4828	36.9109	450	37.6
787.6235	39.1787	459.5	43.9
787.7642	41.4461	467.4	48.2
787.9049	43.7131	471.95	47.45
788.0456	45.9796	480.3	53.55
788.1863	48.2456	486.2	54.85
788.3271	50.5112	494.65	57.9
788.4679	52.7764	497.65	59.55
788.6087	55.0411	507.3	67
788.7496	57.3054	516.7	71.75
788.8904	59.5692	523.2	75.35
789.0313	61.8326	534.1	80.45
789.1722	64.0955	543.8	87.05
789.3132	66.3579	556.4	94.05
789.4541	68.6199	567.2	103.75
789.5951	70.8815	594.45	126.55
789.7361	73.1426	647.5	175.5
789.8771	75.4032	785.6	307.95
790.0181	77.6634	1120.65	636.35
790.1592	79.9231	1908.45	1420.05
790.3003	82.1824	3608.4	3114.75
790.4414	84.4412	6611.95	6104.45
790.5825	86.6995	10843.75	10322.45
790.7237	88.9574	14966.75	14432.1
790.8648	91.2148	17852.5	17309.45
791.006	93.4717	19231.15	18682.25
791.1472	95.7282	19506.65	18949.65
791.2885	97.9842	19371.75	18816.55
791.4297	100.2398	18897.95	18335.9
791.571	102.4949	18398.05	17834.2
791.7123	104.7495	17828.4	17261.9
791.8536	107.0036	17224.1	16656.45
791.9949	109.2573	16680.8	16114.15
792.1363	111.5105	16212	15643
792.2777	113.7632	15771.25	15199.65
792.4191	116.0154	15398.65	14817.85
792.5605	118.2672	15139.95	14563.55
792.7019	120.5185	14876.5	14302.75
792.8434	122.7693	14685.9	14107.55
792.9849	125.0197	14530.9	13949.4
793.1264	127.2696	14345.5	13760.25
793.2679	129.519	14228.75	13642.15
793.4094	131.7679	14039.95	13451.4
793.551	134.0163	13872.8	13277.75
793.6926	136.2642	13694.6	13097.8
793.8342	138.5117	13444.05	12843.75
793.9758	140.7587	13215.3	12611.6
794.1175	143.0052	13027.9	12425.05
794.2591	145.2512	12756.15	12151.75
794.4008	147.4967	12562.6	11958.15
794.5425	149.7417	12394.4	11786.95
794.6842	151.9863	12281.7	11669.5
794.826	154.2304	12221.05	11607.4
794.9677	156.4739	12137.45	11516.85
795.1095	158.717	12055.05	11437.65
795.2513	160.9596	11943.5	11317.5
795.3931	163.2017	11803.2	11176.5
795.535	165.4433	11613.85	10988.4
795.6768	167.6844	11408.6	10778.9
795.8187	169.925	11211.2	10576.5
795.9606	172.1651	10976.7	10342.15
796.1025	174.4047	10805.25	10167.15
796.2445	176.6439	10634.85	9992.15
796.3864	178.8825	10484.7	9841.75
796.5284	181.1206	10405.6	9754.95
796.6704	183.3582	10315.1	9663.4
796.8124	185.5954	10260.25	9605.45
796.9544	187.832	10208.4	9554.1
797.0965	190.0681	10195.25	9534.4
797.2386	192.3037	10176.55	9514.1
797.3806	194.5388	10163.55	9498.6
797.5228	196.7734	10195.95	9530.4
797.6649	199.0075	10245	9576.95
797.807	201.2411	10295.15	9620.7
797.9492	203.4742	10387.65	9712.35
798.0914	205.7068	10455.05	9780.3
798.2336	207.9389	10513.85	9839.15
798.3758	210.1704	10610.2	9931.35
798.518	212.4015	10657.5	9976.35
798.6603	214.632	10767.5	10086.1
798.8025	216.862	10840.3	10165.9
798.9448	219.0915	10885.15	10217.6
799.0871	221.3205	10923.95	10258
799.2294	223.549	10969.9	10311.45
799.3718	225.777	11032.95	10374.3
799.5141	228.0044	11094.8	10433.35
799.6565	230.2314	11173.8	10513
799.7989	232.4578	11259.45	10596.55
799.9413	234.6837	11318.2	10645.25
800.0837	236.909	11378.7	10705.4
800.2262	239.1339	11349.45	10655.1
800.3687	241.3582	11334.75	10654.95
800.5111	243.582	11245.7	10540.85
800.6536	245.8053	11195	10497.3
800.7961	248.0281	11152.45	10460.25
800.9387	250.2503	11113.05	10415.1
801.0812	252.472	11147.05	10443.3
801.2238	254.6932	11204.25	10497.35
801.3664	256.9139	11267.1	10560.75
801.509	259.134	11384	10670.45
801.6516	261.3536	11515.1	10808.55
801.7942	263.5727	11708.6	10995.3
801.9369	265.7912	11849.1	11136.9
802.0795	268.0092	12040.5	11330.85
802.2222	270.2267	12148.3	11436.2
802.3649	272.4436	12250	11537.1
802.5076	274.6601	12275.05	11552.8
802.6504	276.8759	12226.7	11511.55
802.7931	279.0913	12166.3	11446.2
802.9359	281.3061	12085.75	11365.3
803.0787	283.5204	12039.25	11319
803.2215	285.7341	12027.45	11302.85
803.3643	287.9473	12019.35	11292
803.5071	290.16	12054.65	11320.2
803.6499	292.3721	12116.85	11390.85
803.7928	294.5837	12232.55	11505.05
803.9357	296.7947	12353.7	11627.15
804.0786	299.0052	12439.05	11708.95
804.2215	301.2152	12422.9	11689.4
804.3644	303.4246	12323.05	11595.35
804.5074	305.6334	12098.75	11371.85
804.6503	307.8418	11855.25	11124.75
804.7933	310.0495	11575.75	10841
804.9363	312.2568	11322.95	10589.7
805.0793	314.4635	11079.8	10343.75
805.2223	316.6696	10858.45	10120.9
805.3653	318.8752	10694.3	9952.3
805.5084	321.0802	10641.75	9904.7
805.6514	323.2847	10677.35	9937.35
805.7945	325.4887	10673.35	9932.2
805.9376	327.692	10650.25	9910.35
806.0807	329.8949	10635.05	9896.25
806.2238	332.0972	10536	9792.75
806.367	334.2989	10425.4	9678.95
806.5101	336.5001	10274.4	9529.15
806.6533	338.7007	10132.6	9385.45
806.7965	340.9008	10019	9271.25
806.9397	343.1003	9918.65	9167.65
807.0829	345.2992	9817.3	9066.15
807.2261	347.4976	9757.7	9004.5
807.3693	349.6955	9695.1	8938.4
807.5126	351.8927	9687.45	8931.3
807.6559	354.0895	9640.65	8870.4
807.7991	356.2856	9593.75	8835.6
807.9424	358.4812	9573.65	8814.6
808.0857	360.6763	9550.3	8792.55
808.2291	362.8707	9513.95	8752.95
808.3724	365.0646	9532.2	8767.15
808.5158	367.258	9589.1	8824.5
808.6591	369.4508	9603.7	8838.35
808.8025	371.643	9689.15	8921.4
808.9459	373.8346	9715.6	8943.45
809.0893	376.0257	9782.5	9005.25
809.2327	378.2162	9788.2	9014.1
809.3762	380.4062	9769.4	8992.4
809.5196	382.5956	9703.35	8927.25
809.6631	384.7844	9669.3	8893.15
809.8066	386.9726	9544.35	8762.8
809.9501	389.1603	9475.85	8697.65
810.0936	391.3474	9451.9	8642.6
810.2371	393.5339	9408.8	8629.3
810.3806	395.7199	9379.35	8605.35
810.5241	397.9052	9399.8	8628.85
810.6677	400.09	9445.55	8674.25
810.8113	402.2743	9524.5	8755.45
810.9548	404.4579	9631.35	8861.8
811.0984	406.641	9764.45	8995.25
811.2421	408.8235	9867.8	9097.15
811.3857	411.0054	9961.9	9189.4
811.5293	413.1868	10090.8	9316.65
811.673	415.3675	10128.45	9352.45
811.8166	417.5477	10140.65	9363.45
811.9603	419.7273	10080.05	9299.15
812.104	421.9064	9996.7	9208.65
812.2477	424.0848	9961.7	9177.05
812.3914	426.2627	9857.75	9070.9
812.5351	428.4399	9682.05	8892.65
812.6788	430.6166	9496.7	8705.75
812.8226	432.7928	9285.65	8494.35
812.9663	434.9683	9053.6	8261.55
813.1101	437.1432	8920.75	8124.35
813.2539	439.3176	8802.75	8009.7
813.3977	441.4914	8707.4	7914.1
813.5415	443.6645	8684.4	7884.5
813.6853	445.8371	8649.95	7855.35
813.8291	448.0091	8617.9	7820.9
813.973	450.1806	8602.7	7804.7
814.1168	452.3514	8566.45	7766.4
814.2607	454.5216	8593.5	7784.4
814.4046	456.6913	8576.25	7776.3
814.5485	458.8603	8618.05	7819.7
814.6924	461.0288	8630	7829.25
814.8363	463.1967	8620.05	7819.85
814.9802	465.3639	8622.8	7821.8
815.1241	467.5306	8600.15	7794.95
815.2681	469.6967	8606.65	7803.9
815.412	471.8622	8615.5	7810.55
815.556	474.0271	8639.75	7837.65
815.7	476.1914	8649.6	7842.7
815.844	478.3551	8664.85	7859.65
815.988	480.5182	8662.45	7858
816.132	482.6807	8729.45	7921.95
816.276	484.8426	8809	8002.7
816.4201	487.0039	9047.45	8239.55
816.5641	489.1647	9292.45	8484.15
816.7082	491.3248	9488.45	8681.2
816.8522	493.4843	9546.1	8736.85
816.9963	495.6432	9502.5	8695.45
817.1404	497.8015	9374.7	8563.3
817.2845	499.9592	9316.35	8508.4
817.4286	502.1163	9194.7	8386.2
817.5727	504.2728	8963.9	8150.25
817.7168	506.4287	8817.8	8008
817.861	508.5839	8602.95	7790.8
818.0051	510.7386	8456.2	7644.6
818.1493	512.8927	8431.8	7610.8
818.2935	515.0461	8404.7	7591.6
818.4377	517.199	8452.75	7641.75
818.5818	519.3512	8540.65	7725.65
818.726	521.5029	8722.75	7902.25
818.8703	523.6539	8893.25	8078
819.0145	525.8043	8938.7	8120.5
819.1587	527.9541	8883.4	8066.8
819.303	530.1033	8742	7924.6
819.4472	532.2519	8643.85	7826.05
819.5915	534.3999	8598.7	7779.9
819.7357	536.5472	8624.4	7803.85
819.88	538.694	8770.05	7950.7
820.0243	540.8401	8911	8091.2
820.1686	542.9856	9053.35	8231
820.3129	545.1305	9069.45	8246.6
820.4572	547.2748	9020.2	8196.3
820.6016	549.4185	8898.45	8073.25
820.7459	551.5615	8786.95	7962.1
820.8902	553.704	8788.9	7965.85
821.0346	555.8458	8815	7994
821.1789	557.987	8920.05	8098.15
821.3233	560.1276	9078.45	8250.4
821.4677	562.2675	9302.2	8477.35
821.6121	564.4069	9600.6	8776.85
821.7565	566.5456	9880.6	9058.1
821.9009	568.6837	9996.05	9168.95
822.0453	570.8212	9734.1	8909.75
822.1897	572.958	9302.65	8474.9
822.3342	575.0942	8885.2	8059.9
822.4786	577.2299	8599.75	7772.9
822.6231	579.3648	8451.4	7624.05
822.7675	581.4992	8406.3	7579.45
822.912	583.6329	8470.4	7644
823.0565	585.766	8568.9	7743.5
823.201	587.8985	8671.7	7846.95
823.3454	590.0304	8722.55	7873.4
823.4899	592.1616	8691	7862.4
823.6345	594.2922	8623.1	7798.25
823.779	596.4222	8485.2	7656.85
823.9235	598.5515	8353.7	7524.7
824.068	600.6802	8218.45	7386.95
824.2126	602.8083	8129.4	7296.75
824.3571	604.9358	8109.75	7280.45
824.5017	607.0626	8085.35	7253.55
824.6462	609.1888	8152.45	7319.45
824.7908	611.3144	8244.85	7410.8
824.9354	613.4393	8326.4	7494.1
825.08	615.5636	8388.85	7553.55
825.2246	617.6873	8398.55	7562.85
825.3692	619.8103	8366.5	7532.55
825.5138	621.9327	8246.6	7410.6
825.6584	624.0544	8108.7	7276.15
825.803	626.1756	8009	7177
825.9477	628.2961	7902.8	7066.5
826.0923	630.4159	7841.35	7006.85
826.237	632.5351	7822.85	6987.1
826.3816	634.6537	7794.95	6959.85
826.5263	636.7716	7805.9	6968.9
826.6709	638.8889	7798.05	6960.35
826.8156	641.0056	7833.65	6994.35
826.9603	643.1216	7803.1	6965.65
827.105	645.237	7779.7	6938.15
827.2497	647.3518	7719.5	6880.1
827.3944	649.4659	7683	6843.75
827.5391	651.5793	7654.7	6814.65
827.6838	653.6922	7595.8	6756.8
827.8285	655.8043	7587.35	6748.9
827.9733	657.9159	7580.05	6739.65
828.118	660.0268	7574.7	6728.75
828.2627	662.137	7557	6715.6
828.4075	664.2466	7567.5	6724.8
828.5522	666.3556	7573.6	6732.4
828.697	668.4639	7513.75	6669.3
828.8418	670.5716	7496.65	6653.35
828.9865	672.6786	7461.5	6621.7
829.1313	674.785	7421.2	6578.5
829.2761	676.8907	7430.3	6584.45
829.4209	678.9958	7406.2	6565.25
829.5657	681.1002	7375.75	6529.1
829.7105	683.204	7361.45	6514.85
829.8553	685.3072	7351.65	6507.1
830.0001	687.4097	7326.4	6480.75
830.1449	689.5115	7339.9	6491.75
830.2898	691.6127	7324.8	6479.15
830.4346	693.7132	7297.45	6451.2
830.5794	695.8131	7308.45	6445.6
830.7243	697.9123	7321.65	6473.7
830.8691	700.0109	7325.2	6478.25
831.014	702.1089	7354.15	6507.6
831.1588	704.2061	7378.1	6529.85
831.3037	706.3028	7425.4	6573.7
831.4486	708.3987	7432.8	6583.55
831.5935	710.4941	7460.65	6611.9
831.7383	712.5887	7472.25	6621.9
831.8832	714.6827	7526.55	6671.65
832.0281	716.7761	7597.45	6749.8
832.173	718.8688	7705	6853.85
832.3179	720.9608	7784.05	6932.45
832.4628	723.0522	7846.6	6995.3
832.6077	725.1429	7900.6	7050.5
832.7527	727.233	7946.7	7095.9
832.8976	729.3224	7962.7	7109.95
833.0425	731.4112	7935.9	7082.5
833.1874	733.4993	7846.55	6990.95
833.3324	735.5867	7700	6846.75
833.4773	737.6735	7540.35	6688.25
833.6222	739.7596	7400.25	6546.15
833.7672	741.845	7324.85	6471.85
833.9122	743.9298	7263.7	6408.15
834.0571	746.014	7243.65	6390.2
834.2021	748.0974	7216.3	6361.25
834.347	750.1802	7226.5	6373.5
834.492	752.2624	7236.1	6382
834.637	754.3439	7233	6376.45
834.782	756.4247	7330.4	6467.4
834.9269	758.5048	7406.8	6553.5
835.0719	760.5843	7548.5	6693.05
835.2169	762.6631	7783.55	6930.35
835.3619	764.7413	8144.75	7293.2
835.5069	766.8188	8583.15	7726.3
835.6519	768.8956	8954.05	8094.15
835.7969	770.9718	9216.45	8361.75
835.9419	773.0473	9170.25	8315.3
836.0869	775.1221	9005.65	8149.6
836.232	777.1962	8850	7990.95
836.377	779.2697	8791.55	7933.4
836.522	781.3426	8870.8	8007.4
836.667	783.4147	8938.05	8079.35
836.8121	785.4862	8960	8104.7
836.9571	787.557	8850.85	7991.95
837.1021	789.6271	8525	7666.85
837.2472	791.6966	8102.2	7244.15
837.3922	793.7654	7726.65	6869.85
837.5373	795.8335	7454.65	6597.55
837.6823	797.901	7255.55	6397.75
837.8274	799.9678	7151.15	6291.2
837.9724	802.0339	7083.65	6226.1
838.1175	804.0993	7075.7	6207.45
838.2626	806.1641	7027.55	6167.9
838.4076	808.2282	6962.4	6102.2
838.5527	810.2916	6929.7	6067.2
838.6978	812.3544	6883.15	6026.6
838.8428	814.4164	6855.05	5999
838.9879	816.4778	6863.45	6003.8
839.133	818.5385	6868.65	6009.2
839.2781	820.5986	6970	6112.65
839.4232	822.658	7107.65	6246.3
839.5682	824.7166	7318	6459.05
839.7133	826.7747	7635.55	6775.65
839.8584	828.832	7956.05	7094.95
840.0035	830.8886	8200.05	7338.45
840.1486	832.9446	8318.8	7459.9
840.2937	834.9999	8266.65	7407.25
840.4388	837.0545	8055	7193.15
840.5839	839.1085	7834.35	6971
840.729	841.1618	7606	6740.35
840.8741	843.2143	7443.85	6584.5
841.0192	845.2662	7296.6	6437.15
841.1643	847.3175	7220.7	6360.9
841.3095	849.368	7118.8	6257.9
841.4546	851.4179	7086.75	6223.8
841.5997	853.467	7024.2	6164.05
841.7448	855.5155	6995.8	6132.35
841.8899	857.5633	6928.35	6067.95
842.0351	859.6105	6871.85	6007.6
842.1802	861.6569	6807.85	5947.6
842.3253	863.7027	6757.3	5892.45
842.4704	865.7478	6726.35	5860
842.6156	867.7922	6697.4	5832.5
842.7607	869.8359	6662.75	5800.4
842.9058	871.8789	6698	5834.65
843.0509	873.9212	6744.7	5843.8
843.1961	875.9629	6773.55	5910.25
843.3412	878.0039	6848.3	5983.25
843.4863	880.0441	6870.35	6006.9
843.6315	882.0837	6927.25	6062
843.7766	884.1226	6954.55	6086.8
843.9218	886.1609	6985.85	6122.25
844.0669	888.1984	7044.6	6182.55
844.212	890.2352	7145.45	6282.75
844.3572	892.2714	7163.5	6294.35
844.5023	894.3069	7105.9	6240.8
844.6475	896.3416	7001.8	6136.95
844.7926	898.3757	6893.45	6027.8
844.9377	900.4091	6819.65	5953.35
845.0829	902.4418	6826.85	5957.25
845.228	904.4739	6826.45	5959.15
845.3732	906.5052	6881.7	6014.8
845.5183	908.5358	6844.8	5979.15
845.6635	910.5658	6774.35	5906.75
845.8086	912.595	6628.95	5762.65
845.9538	914.6236	6489.9	5624.4
846.0989	916.6515	6401.8	5533.85
846.2441	918.6786	6352.3	5483.75
846.3892	920.7051	6325.3	5455
846.5344	922.7309	6353.8	5484.25
846.6795	924.756	6374.15	5508.05
846.8246	926.7804	6404.3	5534.4
846.9698	928.8041	6400.3	5530.5
847.1149	930.8272	6426.95	5558.9
847.2601	932.8495	6423.35	5555.3
847.4052	934.8711	6407.35	5539.25
847.5504	936.892	6411.25	5542.7
847.6955	938.9123	6380.7	5511.05
847.8407	940.9318	6376.4	5508.7
847.9858	942.9506	6386	5516.05
848.131	944.9688	6358.9	5491.3
848.2761	946.9862	6308.45	5439.65
848.4213	949.003	6195.4	5326.65
848.5664	951.019	6122.1	5253.4
848.7115	953.0344	6080.15	5210.55
848.8567	955.0491	6064	5195.45
849.0018	957.063	6080.05	5208.55
849.147	959.0763	6120.1	5251.45
849.2921	961.0888	6138.05	5266.25
849.4373	963.1007	6166.4	5294.75
849.5824	965.1119	6166.75	5298.3
849.7275	967.1223	6164.7	5296.5
849.8727	969.1321	6152.95	5283.2
850.0178	971.1412	6139.15	5270.6
850.1629	973.1495	6115.5	5244.05
850.3081	975.1572	6149.9	5249.25
850.4532	977.1641	6135	5267.05
850.5983	979.1704	6102.45	5231.5
850.7435	981.1759	6083.5	5209.85
850.8886	983.1808	6095.1	5222.45
851.0337	985.1849	6113.2	5231.3
851.1788	987.1884	6150.45	5280.05
851.324	989.1911	6213.2	5337.95
851.4691	991.1932	6252	5378.2
851.6142	993.1945	6233.15	5361.8
851.7593	995.1951	6227.05	5354.15
851.9045	997.1951	6205.7	5329.2
852.0496	999.1943	6171.2	5302.85
852.1947	1001.1928	6189.05	5318.55
852.3398	1003.1906	6228.85	5356.9
852.4849	1005.1877	6287.15	5413.7
852.63	1007.1841	6346.55	5474.35
852.7751	1009.1798	6373.95	5501.55
852.9202	1011.1748	6311.15	5440.6
853.0653	1013.1691	6228.4	5356.5
853.2104	1015.1627	6084.7	5212.55
853.3555	1017.1556	5934.8	5062.75
853.5006	1019.1477	5869.85	4995.65
853.6457	1021.1392	5788.5	4916.7
853.7908	1023.1299	5782.9	4909.45
853.9359	1025.12	5781.7	4909.2
854.081	1027.1093	5814.75	4943
854.2261	1029.0979	5870.5	4998.95
854.3712	1031.0859	5913	5040.3
854.5163	1033.0731	5957.3	5084.25
854.6613	1035.0596	5929.9	5057.95
854.8064	1037.0454	5867.6	4995.95
854.9515	1039.0304	5789.5	4915.9
855.0965	1041.0148	5718.5	4846.05
855.2416	1042.9985	5651.75	4778.3
855.3867	1044.9814	5638.2	4765.95
855.5317	1046.9636	5572.85	4700.15
855.6768	1048.9452	5586.25	4714.9
855.8219	1050.926	5596	4723.4
855.9669	1052.9061	5613.35	4741.9
856.112	1054.8855	5641.75	4769.05
856.257	1056.8642	5654.85	4783.5
856.4021	1058.8421	5680.65	4801.75
856.5471	1060.8194	5693.15	4820.2
856.6921	1062.7959	5715.75	4842.9
856.8372	1064.7717	5741.55	4866.5
856.9822	1066.7469	5784.25	4910.55
857.1272	1068.7213	5834.2	4956.55
857.2723	1070.695	5883	5009
857.4173	1072.6679	5911.7	5035.5
857.5623	1074.6402	5934.85	5062.25
857.7073	1076.6117	5929.5	5052.05
857.8523	1078.5826	5825.6	4952.15
857.9973	1080.5527	5742.35	4864.85
858.1423	1082.5221	5680.8	4806.6
858.2873	1084.4908	5652.85	4779.5
858.4323	1086.4587	5644.05	4766.85
858.5773	1088.426	5676.95	4801.7
858.7223	1090.3925	5689.25	4807.85
858.8673	1092.3584	5711.15	4839.3
859.0123	1094.3235	5701.3	4828.1
859.1573	1096.2879	5754.6	4879.85
859.3022	1098.2515	5827.15	4951.45
859.4472	1100.2145	5935.05	5062.2
859.5922	1102.1767	6057.4	5180.25
859.7371	1104.1382	6208.05	5332.3
859.8821	1106.099	6361.15	5484.35
860.027	1108.0591	6485.7	5610.95
860.172	1110.0185	6598.3	5721.45
860.3169	1111.9771	6645.95	5772.45
860.4619	1113.9351	6592.8	5717.1
860.6068	1115.8923	6531.35	5656.05
860.7517	1117.8488	6457.5	5581
860.8967	1119.8045	6325	5448.45
861.0416	1121.7596	6226.9	5351.7
861.1865	1123.7139	6110.5	5235.55
861.3314	1125.6675	6081.8	5206.15
861.4763	1127.6204	6106.2	5233.55
861.6212	1129.5726	6072.15	5193.9
861.7661	1131.524	6009.85	5134.85
861.911	1133.4748	5923.85	5045.95
862.0559	1135.4248	5807.85	4931.2
862.2008	1137.3741	5718.8	4845.1
862.3457	1139.3226	5616.25	4737.35
862.4905	1141.2705	5605.3	4728.85
862.6354	1143.2176	5548.9	4666.2
862.7803	1145.164	5534.85	4657.75
862.9251	1147.1097	5462	4586.5
863.07	1149.0546	5400.3	4521.6
863.2148	1150.9989	5329.45	4450.25
863.3597	1152.9424	5272.4	4395.85
863.5045	1154.8852	5208.25	4330.5
863.6493	1156.8272	5185.2	4311.3
863.7942	1158.7686	5192.2	4307.25
863.939	1160.7092	5208.8	4333.15
864.0838	1162.6491	5228.4	4350.85
864.2286	1164.5883	5288.7	4411.35
864.3734	1166.5267	5361.5	4483.5
864.5182	1168.4644	5433.2	4556.45
864.663	1170.4014	5565.85	4685.2
864.8078	1172.3377	5732.4	4858.7
864.9526	1174.2732	5928.55	5052.05
865.0974	1176.2081	6202	5324.65
865.2421	1178.1421	6508.5	5627.05
865.3869	1180.0755	6859.45	5984.4
865.5317	1182.0082	7095.35	6218.1
865.6764	1183.9401	7193.15	6314
865.8212	1185.8713	7089.9	6214.55
865.9659	1187.8017	6878.7	5999.9
866.1106	1189.7315	6597.1	5721.2
866.2554	1191.6605	6344.35	5437.2
866.4001	1193.5888	6124	5246.25
866.5448	1195.5163	6027.25	5150.2
866.6895	1197.4432	5956.4	5077.35
866.8342	1199.3693	5915.05	5040.4
866.9789	1201.2947	5903.1	5018.95
867.1236	1203.2193	5859.2	4980.25
867.2683	1205.1432	5868.6	4990.5
867.413	1207.0664	5846.05	4968.45
867.5576	1208.9889	5829.6	4947.75
867.7023	1210.9106	5828.05	4952.65
867.847	1212.8316	5842.5	4965.65
867.9916	1214.7519	5872.25	4985.75
868.1363	1216.6715	5901.5	5025.35
868.2809	1218.5903	5924.65	5047.2
868.4255	1220.5084	5962.95	5086.6
868.5701	1222.4257	6048.4	5170.4
868.7148	1224.3424	6083.15	5205.15
868.8594	1226.2583	6155.3	5274.2
869.004	1228.1735	6253.9	5374.85
869.1486	1230.0879	6357.4	5478.15
869.2932	1232.0016	6494.85	5618.35
869.4377	1233.9146	6593.9	5713.4
869.5823	1235.8269	6600.1	5721.85
869.7269	1237.7384	6579.9	5700.25
869.8715	1239.6492	6501.85	5623.3
870.016	1241.5592	6493.9	5616.05
870.1606	1243.4686	6509.85	5630.35
870.3051	1245.3772	6650.35	5772.1
870.4496	1247.285	6785.3	5905.15
870.5941	1249.1922	6914.3	6036.65
870.7387	1251.0986	7035.25	6156.2
870.8832	1253.0042	7120.8	6239.05
871.0277	1254.9092	7203.35	6324.9
871.1722	1256.8134	7282.05	6404.3
871.3167	1258.7169	7373.9	6493.45
871.4611	1260.6196	7455.5	6576.5
871.6056	1262.5216	7589.35	6709.6
871.7501	1264.4229	7704.1	6827
871.8945	1266.3234	7824.15	6946.55
872.039	1268.2232	7892.8	7014.8
872.1834	1270.1223	7926.45	7047.25
872.3278	1272.0207	7974.2	7095.45
872.4723	1273.9183	7930.1	7045.25
872.6167	1275.8151	7902.5	7023.2
872.7611	1277.7113	7892.75	7011.6
872.9055	1279.6067	7937.15	7061.05
873.0499	1281.5014	8129.8	7248.9
873.1943	1283.3953	8423.35	7543.1
873.3386	1285.2885	8774.3	7894.95
873.483	1287.181	9139.9	8258.25
873.6274	1289.0727	9495.2	8618.2
873.7717	1290.9637	9726.75	8846.75
873.9161	1292.854	9877.7	8998.75
874.0604	1294.7435	9861.5	8982.75
874.2047	1296.6323	9752.9	8870.9
874.349	1298.5204	9618.95	8736.25
874.4933	1300.4077	9469.9	8589.9
874.6376	1302.2943	9274.7	8396.2
874.7819	1304.1802	9037.6	8160.95
874.9262	1306.0653	8741.2	7857.45
875.0705	1307.9497	8392.05	7511.45
875.2147	1309.8333	8114.8	7236.05
875.359	1311.7162	7926.7	7046.65
875.5032	1313.5984	7782.9	6900.35
875.6475	1315.4798	7693.95	6803.2
875.7917	1317.3605	7649.3	6755.1
875.9359	1319.2405	7585.35	6704.65
876.0801	1321.1197	7412.1	6529.7
876.2243	1322.9982	7180.85	6296.75
876.3685	1324.876	6987.3	6106.7
876.5127	1326.753	6801.45	5920.3
876.6569	1328.6293	6647.6	5766.3
876.801	1330.5048	6527.9	5646.65
876.9452	1332.3796	6408.75	5529.1
877.0893	1334.2537	6349.8	5442.95
877.2335	1336.127	6262.65	5382.35
877.3776	1337.9996	6223.6	5343
877.5217	1339.8714	6212.7	5334.35
877.6658	1341.7426	6235.3	5312.5
877.8099	1343.6129	6233.3	5353.25
877.954	1345.4826	6217.05	5336.65
878.0981	1347.3515	6234.7	5352.35
878.2422	1349.2196	6215.95	5335.65
878.3862	1351.087	6220.65	5339.1
878.5303	1352.9537	6248.55	5367.8
878.6743	1354.8197	6308.1	5428.3
878.8184	1356.6849	6416	5536.8
878.9624	1358.5493	6516	5633.9
879.1064	1360.4131	6633.2	5755.3
879.2504	1362.276	6738.9	5858.95
879.3944	1364.1383	6766.6	5887.35
879.5384	1365.9998	6682.8	5796.95
879.6823	1367.8606	6489.55	5609.05
879.8263	1369.7206	6278.15	5396.95
879.9702	1371.5799	6077.5	5197.2
880.1142	1373.4384	5902.3	5022.3
880.2581	1375.2962	5759.8	4877.1
880.402	1377.1533	5551.5	4671.95
880.5459	1379.0096	5327.25	4443.9
880.6898	1380.8652	5135.8	4256
880.8337	1382.7201	4935.5	4057.2
880.9776	1384.5742	4785.7	3905.95
881.1215	1386.4275	4664.85	3782.05
881.2653	1388.2802	4592.45	3713.85
881.4092	1390.132	4521.45	3639.95
881.553	1391.9832	4498.55	3616.3
881.6968	1393.8336	4429.25	3549.2
881.8406	1395.6832	4404.6	3522.5
881.9844	1397.5322	4374.65	3494.25
882.1282	1399.3803	4366.45	3479.5
882.272	1401.2278	4354.6	3474.2
882.4158	1403.0745	4337.85	3457.35
882.5595	1404.9204	4327.95	3447.7
882.7033	1406.7656	4335.75	3455
882.847	1408.6101	4330.7	3449.4
882.9908	1410.4538	4357.95	3475.4
883.1345	1412.2968	4383.7	3502.35
883.2782	1414.139	4420.25	3538.35
883.4219	1415.9805	4478.4	3598.95
883.5656	1417.8213	4492.55	3603.55
883.7092	1419.6613	4564.65	3684.95
883.8529	1421.5006	4672	3789.3
883.9965	1423.3391	4801.65	3919.15
884.1402	1425.1769	5001.25	4119.55
884.2838	1427.0139	5274.55	4393.2
884.4274	1428.8502	5587.65	4706.6
884.571	1430.6858	5922.25	5041
884.7146	1432.5206	6171.8	5289.9
884.8582	1434.3547	6297.7	5415.9
885.0018	1436.188	6283.35	5402.95
885.1453	1438.0206	6230.95	5348.1
885.2889	1439.8524	6131.6	5249.55
885.4324	1441.6835	6062.4	5179.75
885.5759	1443.5139	6009.7	5127.45
885.7194	1445.3435	5960.5	5078.65
885.8629	1447.1724	5969.65	5088.5
886.0064	1449.0005	5912.85	5032.35
886.1499	1450.8279	5897.35	5013.1
886.2933	1452.6545	5885.4	5004.95
886.4368	1454.4804	5898.5	5018.25
886.5802	1456.3056	5887.1	4999.15
886.7237	1458.13	5864.6	4984.75
886.8671	1459.9536	5752.15	4868.8
887.0105	1461.7766	5602.65	4721.9
887.1539	1463.5987	5407.65	4524.9
887.2972	1465.4202	5194.45	4313.8
887.4406	1467.2409	4988.5	4105.1
887.584	1469.0608	4816.5	3935.55
887.7273	1470.88	4656.85	3774.35
887.8706	1472.6984	4507.35	3626.55
888.0139	1474.5161	4397.85	3513.65
888.1572	1476.3331	4297.45	3417.4
888.3005	1478.1493	4244.85	3363
888.4438	1479.9648	4197.65	3317.5
888.5871	1481.7795	4142.2	3261.3
888.7303	1483.5935	4105.7	3225.2
888.8736	1485.4067	4077.45	3196.2
889.0168	1487.2192	4041.6	3160.1
889.16	1489.031	4024.55	3142
889.3032	1490.842	4014.45	3134
889.4464	1492.6522	3981.8	3099.45
889.5896	1494.4618	3960.35	3075.8
889.7327	1496.2705	3943.35	3062.15
889.8759	1498.0785	3919.55	3035.3
890.019	1499.8858	3891.45	3010.8
890.1622	1501.6924	3862.4	2980.7
890.3053	1503.4981	3847.15	2967.15
890.4484	1505.3032	3828.95	2946.8
890.5914	1507.1075	3796.7	2915.85
890.7345	1508.911	3782.65	2902.8
890.8776	1510.7138	3768.55	2887.15
891.0206	1512.5159	3738.1	2855.9
891.1637	1514.3172	3713.75	2831.95
891.3067	1516.1178	3683.85	2802.05
891.4497	1517.9176	3681.05	2799.15
891.5927	1519.7166	3631.7	2750.05
891.7357	1521.515	3641.75	2751.35
891.8786	1523.3126	3608.45	2727.85
892.0216	1525.1094	3598.95	2715.9
892.1645	1526.9055	3576.9	2696.3
892.3074	1528.7008	3573.6	2691.05
892.4503	1530.4954	3549.7	2663.45
892.5932	1532.2893	3559.85	2681.2
892.7361	1534.0824	3535.1	2648.75
892.879	1535.8747	3542.75	2661.75
893.0218	1537.6663	3547.3	2665.2
893.1647	1539.4572	3539.55	2657.4
893.3075	1541.2473	3537.45	2654.6
893.4503	1543.0367	3546.75	2667.2
893.5931	1544.8253	3543.1	2655.65
893.7359	1546.6132	3570.9	2687.55
893.8787	1548.4003	3585.7	2693.75
894.0214	1550.1867	3626.8	2737.3
894.1642	1551.9723	3662.75	2774.55
894.3069	1553.7572	3711	2826.25
894.4496	1555.5414	3797.3	2917.7
894.5923	1557.3247	3878.5	2995.6
894.735	1559.1074	3980.4	3100.1
894.8777	1560.8893	4098	3218.55
895.0204	1562.6705	4190.85	3308.9
895.163	1564.4509	4295.3	3413.6
895.3056	1566.2305	4331.95	3450.8
895.4482	1568.0094	4381.2	3500.7
895.5908	1569.7876	4364.9	3481.55
895.7334	1571.565	4350.3	3468.85
895.876	1573.3417	4333.8	3451.75
896.0186	1575.1176	4344.45	3463.95
896.1611	1576.8928	4343	3461.3
896.3036	1578.6672	4357	3475.7
896.4461	1580.4409	4392.85	3514.7
896.5886	1582.2138	4423.15	3539.95
896.7311	1583.986	4468.35	3586.6
896.8736	1585.7575	4529.75	3649
897.0161	1587.5282	4578.85	3698.4
897.1585	1589.2981	4650.05	3769.25
897.3009	1591.0673	4712.5	3829.5
897.4433	1592.8358	4783.45	3901.5
897.5857	1594.6035	4844.5	3960.7
897.7281	1596.3704	4898.3	4017.5
897.8705	1598.1366	4950.15	4068.25
898.0128	1599.9021	5016.55	4136.45
898.1551	1601.6668	5041.9	4156.35
898.2975	1603.4308	5117.6	4235.8
898.4398	1605.194	5221.35	4334.3
898.5821	1606.9564	5327.4	4446.05
898.7243	1608.7182	5506.25	4618.4
898.8666	1610.4791	5708.95	4827.55
899.0088	1612.2394	5915.85	5034.05
899.1511	1613.9988	6153.15	5271.95
899.2933	1615.7576	6328.85	5448.5
899.4355	1617.5156	6448.2	5561.55
899.5776	1619.2728	6515.65	5635
899.7198	1621.0293	6441.95	5563.05
899.862	1622.785	6307.45	5421.75
900.0041	1624.54	6079.7	5197.4
900.1462	1626.2942	5842.25	4957.8
900.2883	1628.0477	5546.75	4662.7
900.4304	1629.8005	5314.45	4429.6
900.5725	1631.5525	5087.45	4204.15
900.7145	1633.3037	4897.55	4016
900.8566	1635.0542	4763	3884.6
900.9986	1636.804	4620.45	3739.2
901.1406	1638.553	4576.4	3650.65
901.2826	1640.3013	4477.45	3596.35
901.4245	1642.0488	4448.9	3566.1
901.5665	1643.7955	4447.3	3566.4
901.7085	1645.5416	4474.15	3591.1
901.8504	1647.2868	4529.5	3648.3
901.9923	1649.0313	4567.95	3686.35
902.1342	1650.7751	4652.35	3767.35
902.2761	1652.5181	4749.35	3868.85
902.4179	1654.2604	4835	3951.7
902.5598	1656.0019	4958	4077.25
902.7016	1657.7427	5098	4218
902.8434	1659.4828	5268.65	4387.2
902.9852	1661.222	5365.65	4482.6
903.127	1662.9606	5376.55	4497.15
903.2687	1664.6984	5244.1	4361.25
903.4105	1666.4354	5013.15	4132.65
903.5522	1668.1717	4670.6	3789.65
903.6939	1669.9072	4342.85	3461
903.8356	1671.642	4057.65	3173.35
903.9773	1673.3761	3825.55	2946
904.119	1675.1094	3638.5	2758.35
904.2606	1676.8419	3493.4	2613.65
904.4022	1678.5737	3387.25	2505.35
904.5439	1680.3048	3295.6	2414.75
904.6855	1682.0351	3205.5	2324.3
904.827	1683.7646	3150.4	2264.65
904.9686	1685.4934	3102.05	2220.7
905.1101	1687.2215	3073.3	2191.45
905.2517	1688.9488	3037.25	2156.3
905.3932	1690.6754	2999.35	2119.7
905.5347	1692.4012	2961.45	2079.25
905.6761	1694.1263	2943.5	2062.3
905.8176	1695.8506	2920.8	2038.8
905.9591	1697.5742	2896.3	2015.4
906.1005	1699.297	2875.15	1994.6
906.2419	1701.0191	2852.95	1972.75
906.3833	1702.7404	2845.8	1963.3
906.5246	1704.461	2801.8	1921.1
906.666	1706.1808	2782.3	1897.8
906.8073	1707.8999	2762.05	1880.65
906.9487	1709.6182	2764.8	1881.95
907.09	1711.3358	2745.95	1864.6
907.2313	1713.0527	2741.15	1862.65
907.3725	1714.7688	2719.5	1831.65
907.5138	1716.4841	2704.15	1822.9
907.655	1718.1987	2717.4	1830.65
907.7962	1719.9126	2684.35	1803.8
907.9374	1721.6257	2673.5	1788.55
908.0786	1723.338	2667.15	1783.6
908.2198	1725.0496	2673.05	1789.65
908.3609	1726.7605	2655.95	1775.55
908.502	1728.4706	2651.55	1769.25
908.6431	1730.18	2641.6	1754.95
908.7842	1731.8886	2645.75	1763.85
908.9253	1733.5964	2628.35	1741.7
909.0664	1735.3036	2620.75	1738
909.2074	1737.0099	2603.05	1723.6
909.3484	1738.7156	2604.55	1723.2
909.4894	1740.4204	2584.2	1698.45
909.6304	1742.1246	2563.2	1680.6
909.7714	1743.8279	2560.8	1680.95
909.9123	1745.5306	2555.65	1670.5
910.0532	1747.2325	2541	1659.65
910.1941	1748.9336	2531.85	1650.05
910.335	1750.634	2536.05	1653.4
910.4759	1752.3336	2514.5	1633
910.6168	1754.0325	2511	1630.5
910.7576	1755.7307	2509.9	1628.25
910.8984	1757.4281	2512.6	1630.2
911.0392	1759.1247	2512.2	1622.4
911.18	1760.8206	2500.55	1615.7
911.3208	1762.5158	2491.35	1603.95
911.4615	1764.2102	2477.75	1598.35
911.6022	1765.9039	2477.05	1594.3
911.7429	1767.5968	2477.3	1596.45
911.8836	1769.289	2465.35	1584.5
912.0243	1770.9804	2462.75	1580.75
912.1649	1772.6711	2467.15	1585.95
912.3056	1774.361	2458.1	1574.9
912.4462	1776.0502	2455.45	1573.65
912.5868	1777.7386	2453.25	1570.55
912.7274	1779.4263	2445.15	1563.15
912.8679	1781.1132	2443.95	1561.25
913.0084	1782.7994	2435.7	1553.45
913.149	1784.4849	2431.6	1548.85
913.2895	1786.1696	2428.35	1528.05
913.4299	1787.8535	2431.55	1548.75
913.5704	1789.5367	2421.35	1537.15
913.7108	1791.2192	2407.05	1525.45
913.8513	1792.9009	2425.4	1529.05
913.9917	1794.5818	2408.7	1527.8
914.132	1796.2621	2389.85	1508.9
914.2724	1797.9415	2388.45	1505.9
914.4128	1799.6202	2390.15	1509.65
914.5531	1801.2982	2392.45	1508.85
914.6934	1802.9755	2393.45	1512.6
914.8337	1804.6519	2375	1491.95
914.9739	1806.3277	2380.5	1500.05
915.1142	1808.0027	2366.8	1487.05
915.2544	1809.6769	2371.7	1489.9
915.3946	1811.3504	2357.5	1472.25
915.5348	1813.0231	2353.45	1470.4
915.675	1814.6951	2357.6	1475.25
915.8151	1816.3664	2358.55	1475.05
915.9553	1818.0369	2357.35	1476.1
916.0954	1819.7067	2339.4	1460
916.2355	1821.3757	2341.35	1458.85
916.3755	1823.044	2342.55	1459.6
916.5156	1824.7115	2343.7	1461.95
916.6556	1826.3783	2330.35	1448.8
916.7956	1828.0443	2321.65	1440.8
916.9356	1829.7096	2319.8	1434.55
917.0756	1831.3741	2323.7	1440.2
917.2155	1833.0379	2320.5	1439.3
917.3555	1834.701	2313.45	1430.15
917.4954	1836.3633	2304.95	1423.55
917.6353	1838.0248	2309.95	1425.85
917.7751	1839.6856	2303.25	1420.1
917.915	1841.3457	2310.8	1429.85
918.0548	1843.005	2314.5	1431.95
918.1946	1844.6636	2300	1418.95
918.3344	1846.3214	2291.25	1411.85
918.4742	1847.9785	2294.35	1413.3
918.6139	1849.6349	2300.9	1419.95
918.7537	1851.2904	2297.25	1408.35
918.8934	1852.9453	2289.05	1406.5
919.0331	1854.5994	2289.55	1407.8
919.1727	1856.2528	2288.35	1402.65
919.3124	1857.9054	2274.55	1390.4
919.452	1859.5572	2263.65	1383.55
919.5916	1861.2083	2270.5	1386.75
919.7312	1862.8587	2267.75	1386.65
919.8708	1864.5084	2262.8	1379.65
920.0103	1866.1572	2252.8	1371.5
920.1498	1867.8054	2247.7	1366.3
920.2893	1869.4528	2247.5	1366.6
920.4288	1871.0994	2248.1	1368.25
920.5683	1872.7453	2248.35	1364.65
920.7077	1874.3905	2258.35	1357.3
920.8471	1876.0349	2230.8	1348.15
920.9865	1877.6786	2238	1354.95
921.1259	1879.3215	2229.8	1349.75
921.2653	1880.9637	2225.25	1342.05
921.4046	1882.6051	2225.85	1342.7
921.5439	1884.2458	2226.65	1342.75
921.6832	1885.8858	2217.7	1336.65
921.8225	1887.525	2210.1	1327.9
921.9617	1889.1634	2217.15	1335.5
922.101	1890.8011	2203	1321.55
922.2402	1892.4381	2201.75	1321.85
922.3794	1894.0743	2201.95	1320.35
922.5185	1895.7098	2203.15	1320.45
922.6577	1897.3446	2191.35	1308.8
922.7968	1898.9786	2187.15	1301.85
922.9359	1900.6118	2194.15	1313.8
923.075	1902.2443	2184.1	1298.9
923.214	1903.8761	2183.1	1302.15
923.3531	1905.5071	2161.15	1278.4
923.4921	1907.1374	2167.2	1283.55
923.6311	1908.7669	2165.8	1283.8
923.77	1910.3957	2162.55	1281.75
923.909	1912.0237	2144.8	1263.6
924.0479	1913.651	2163.1	1281.35
924.1868	1915.2776	2152.25	1269.6
924.3257	1916.9034	2141	1261.85
924.4646	1918.5285	2133.1	1252.5
924.6034	1920.1528	2139.25	1258.9
924.7422	1921.7764	2134.85	1253.3
924.881	1923.3992	2128.9	1250.25
925.0198	1925.0213	2118.6	1238.1
925.1586	1926.6427	2115.95	1235.75
925.2973	1928.2633	2321.35	1211.55
925.436	1929.8832	2133.65	1250.3
925.5747	1931.5023	2107.25	1225.75
925.7134	1933.1207	2109	1227.1
925.852	1934.7383	2100.75	1218.25
925.9906	1936.3552	2103.75	1222.3
926.1292	1937.9714	2092.8	1212.25
926.2678	1939.5868	2096.45	1214.05
926.4064	1941.2015	2086.25	1203.65
926.5449	1942.8154	2081.75	1199.05
926.6834	1944.4286	2082.75	1200.35
926.8219	1946.041	2092.35	1188.35
926.9604	1947.6528	2067.2	1180.15
927.0988	1949.2637	2055.65	1175.85
927.2372	1950.8739	2066.8	1185.7
927.3756	1952.4834	2063.45	1182.45
927.514	1954.0921	2054.9	1172.85
927.6523	1955.7001	2046.15	1160.5
927.7907	1957.3074	2043.95	1163.25
927.929	1958.9139	2043.8	1160.1
928.0673	1960.5197	2031	1149.05
928.2055	1962.1247	2038.35	1157.75
928.3438	1963.729	2020.1	1137.35
928.482	1965.3325	2042.35	1137
928.6202	1966.9353	2016.65	1137.4
928.7584	1968.5374	2014.1	1131.65
928.8965	1970.1387	2015.65	1134.8
929.0346	1971.7393	2011.7	1129.55
929.1727	1973.3392	2010.1	1126.05
929.3108	1974.9383	2000.85	1119.5
929.4489	1976.5366	2001.7	1120
929.5869	1978.1342	1994.45	1111.4
929.7249	1979.7311	1994.9	1110.7
929.8629	1981.3273	1984.85	1101.95
930.0009	1982.9227	1983.3	1102.1
930.1388	1984.5173	1980.05	1098.2
930.2767	1986.1112	1972.95	1090.2
930.4146	1987.7044	1976.05	1096.25
930.5525	1989.2968	1966	1082.35
930.6904	1990.8885	1973.85	1089.15
930.8282	1992.4795	1971.25	1086.45
930.966	1994.0697	1963.6	1082.65
931.1038	1995.6592	1962	1078.2
931.2415	1997.2479	1952.45	1068.55
931.3793	1998.8359	1958.5	1075.15
931.517	2000.4232	1947.8	1065.2
931.6547	2002.0097	1959.65	1078.85
931.7923	2003.5955	1948.45	1065.35
931.93	2005.1805	1955	1072.7
932.0676	2006.7648	1947.2	1066.15
932.2052	2008.3484	1939.7	1058.35
932.3427	2009.9312	1951.9	1066.6
932.4803	2011.5133	1938.2	1057.2
932.6178	2013.0946	1928.75	1044.85
932.7553	2014.6752	1933.7	1051.95
932.8928	2016.2551	1925.45	1042.65
933.0302	2017.8342	1922.7	1039.95
933.1676	2019.4126	1923.05	1042.5
933.305	2020.9902	1911.85	1031.35
933.4424	2022.5672	1910.25	1026.2
933.5798	2024.1433	1910.35	1021.15
933.7171	2025.7188	1909.5	1029.8
933.8544	2027.2935	1910.85	1025.3
933.9917	2028.8674	1904.7	1024.4
934.129	2030.4406	1890.85	1011.25
934.2662	2032.0131	1892.6	1010.3
934.4034	2033.5849	1901.25	1013.2
934.5406	2035.1559	1891.55	1009.6
934.6778	2036.7261	1883.1	1000.7
934.8149	2038.2957	1880.4	997.35
934.952	2039.8645	1883	1000.65
935.0891	2041.4325	1889.4	1004.25
935.2262	2042.9998	1878.85	996.35
935.3632	2044.5664	1879.05	993.25
935.5002	2046.1323	1876.05	994.1
935.6372	2047.6974	1870.55	987.75
935.7742	2049.2617	1873.3	993.4
935.9111	2050.8254	1895.75	980.3
936.048	2052.3883	1870.95	988.15
936.1849	2053.9504	1871.7	988.55
936.3218	2055.5118	1859.3	976.15
936.4586	2057.0725	1863.85	977.7
936.5955	2058.6325	1849.55	967.55
936.7323	2060.1917	1844.4	962.75
936.869	2061.7502	1849.85	966.85
937.0058	2063.3079	1844.3	962.95
937.1425	2064.8649	1852.9	968.25
937.2792	2066.4212	1844.25	961.05
937.4159	2067.9767	1836.65	956.8
937.5525	2069.5315	1833.45	949.8
937.6891	2071.0856	1828.05	945.45
937.8257	2072.6389	1827.9	942.45
937.9623	2074.1915	1825.1	943.75
938.0989	2075.7433	1824.85	939.8
938.2354	2077.2945	1812.6	930.85
938.3719	2078.8448	1814.2	932.2
938.5084	2080.3945	1820.35	938.4
938.6448	2081.9434	1810.85	927.2
938.7812	2083.4916	1811.8	929.35
938.9176	2085.039	1801.2	918.15
939.054	2086.5857	1805.45	922.5
939.1903	2088.1317	1795.15	913.55
939.3267	2089.677	1802.35	920.65
939.463	2091.2215	1793.65	912.9
939.5992	2092.7652	1796.45	914.7
939.7355	2094.3083	1787.8	904.4
939.8717	2095.8506	1785.9	903.45
940.0079	2097.3921	1784.85	904.35
940.1441	2098.933	1782.35	899.75
940.2802	2100.4731	1789.5	909.2
940.4163	2102.0124	1788.45	889.35
940.5524	2103.5511	1790.8	911.65
940.6885	2105.089	1773.3	890.75
940.8245	2106.6261	1781.15	899
940.9606	2108.1626	1780.8	898.7
941.0965	2109.6983	1799.05	887
941.2325	2111.2332	1776	894.1
941.3684	2112.7675	1775.2	892.7
941.5044	2114.301	1764.25	880.35
941.6403	2115.8337	1766.75	882.9
941.7761	2117.3657	1760.75	879.35
941.912	2118.897	1758	877.65
942.0478	2120.4276	1767.35	877.85
942.1835	2121.9575	1756.55	874.6
942.3193	2123.4866	1764.75	869.55
942.455	2125.0149	1751.3	866.95
942.5907	2126.5426	1750.95	869.15
942.7264	2128.0695	1744.3	858
942.8621	2129.5956	1748.3	867.35
942.9977	2131.1211	1749.3	861.3
943.1333	2132.6458	1745.3	863.6
943.2689	2134.1698	1733.25	851.45
943.4044	2135.693	1739.9	855
943.54	2137.2155	1739.15	853.9
943.6755	2138.7373	1725.45	843.2
943.8109	2140.2584	1728.85	847
943.9464	2141.7787	1739.5	852.5
944.0818	2143.2983	1729.7	849.8
944.2172	2144.8171	1719.9	838.7
944.3526	2146.3353	1719.1	834.85
944.4879	2147.8527	1709.8	827.25
944.6232	2149.3693	1711.7	828.6
944.7585	2150.8853	1706.2	822.15
944.8938	2152.4005	1710.55	830.4
945.029	2153.9149	1715.75	834.45
945.1642	2155.4287	1707.65	826.7
945.2994	2156.9417	1706.5	824.05
945.4346	2158.454	1705.8	820.7
945.5697	2159.9655	1703.1	822.4
945.7048	2161.4764	1700.7	818.7
945.8399	2162.9865	1700.3	818.6
945.9749	2164.4958	1697.15	813.05
946.1099	2166.0045	1687.85	802.25
946.2449	2167.5124	1694.8	813.25
946.3799	2169.0195	1685.05	804.65
946.5148	2170.526	1685.25	804.35
946.6498	2172.0317	1687.8	805.75
946.7846	2173.5367	1687.25	804.9
946.9195	2175.0409	1677.25	794.8
947.0543	2176.5445	1682.2	800.9
947.1891	2178.0473	1675.6	793.15
947.3239	2179.5494	1671.75	785.75
947.4587	2181.0507	1675.1	790.65
947.5934	2182.5513	1670.7	789.8
947.7281	2184.0512	1667.3	784.7
947.8628	2185.5504	1666.85	786.3
947.9974	2187.0488	1657.65	774.15
948.132	2188.5465	1661.65	780.65
948.2666	2190.0435	1663.7	781.55
948.4012	2191.5397	1665.25	785.25
948.5357	2193.0353	1661.5	779.75
948.6702	2194.5301	1657.65	774.45
948.8047	2196.0241	1655.6	774.2
948.9392	2197.5175	1650.75	770.1
949.0736	2199.0101	1646.75	761.65
949.208	2200.502	1640.05	760.25
949.3424	2201.9931	1635.8	752.15
949.4767	2203.4835	1642.05	759.45
949.611	2204.9733	1633.35	744.65
949.7453	2206.4622	1633.7	751.55
949.8796	2207.9505	1630.05	744.35
950.0138	2209.438	1635.55	754.85
950.148	2210.9248	1619.4	736.2
950.2822	2212.4109	1618.75	739
950.4164	2213.8962	1624.65	738.9
950.5505	2215.3809	1614.65	733.15
950.6846	2216.8648	1621	740.05
950.8186	2218.3479	1614.7	727.6
950.9527	2219.8304	1612.35	728.1
951.0867	2221.3121	1605.2	722.35
951.2207	2222.7931	1609.5	728.6
951.3546	2224.2733	1604.85	722.4
951.4886	2225.7529	1601.3	720.25
951.6225	2227.2317	1603	719.45
951.7563	2228.7098	1597.2	717.85
951.8902	2230.1872	1589.35	706.55
952.024	2231.6638	1595.95	713.55
952.1578	2233.1397	1596	708.5
952.2916	2234.6149	1587.35	704.5
952.4253	2236.0894	1590.7	707.65
952.559	2237.5632	1601.35	708.55
952.6927	2239.0362	1579.3	697.1
952.8263	2240.5085	1587.55	705.35
952.9599	2241.9801	1576.7	693
953.0935	2243.4509	1574.9	692.7
953.2271	2244.921	1572.7	691.15
953.3606	2246.3904	1575.25	691.2
953.4941	2247.8591	1559.1	677.7
953.6276	2249.3271	1555.2	672.9
953.7611	2250.7943	1562.1	679.05
953.8945	2252.2608	1570.7	689.4
954.0279	2253.7266	1563.55	681.9
954.1612	2255.1917	1557.25	676.15
954.2946	2256.656	1558.45	676.15
954.4279	2258.1197	1552.15	670.85
954.5612	2259.5826	1549.2	665.65
954.6944	2261.0447	1555.8	672.85
954.8276	2262.5062	1554.45	668.5
954.9608	2263.9669	1546.15	662.6
955.094	2265.4269	1542.05	661.15
955.2271	2266.8862	1540.5	659.6
955.3602	2268.3448	1541.25	657.85
955.4933	2269.8026	1550.7	667.55
955.6264	2271.2598	1544.7	661.6
955.7594	2272.7162	1538.15	654.25
955.8924	2274.1719	1532.25	650.5
956.0253	2275.6268	1532	647.95
956.1583	2277.0811	1537.35	656.05
956.2912	2278.5346	1533	650.85
956.4241	2279.9874	1530.65	647.05
956.5569	2281.4395	1533.05	652.1
956.6897	2282.8908	1531.35	643.85
956.8225	2284.3414	1527.1	643.5
956.9553	2285.7914	1532.2	650.45
957.088	2287.2406	1532.8	649.05
957.2207	2288.689	1516.7	634.55
957.3534	2290.1368	1524.85	642.7
957.486	2291.5838	1519.75	634.85
957.6186	2293.0302	1518.15	635.05
957.7512	2294.4758	1514.6	633.8
957.8838	2295.9206	1519.95	635.9
958.0163	2297.3648	1518.1	635.85
958.1488	2298.8082	1516.35	632.9
958.2813	2300.251	1506.75	625.2
958.4137	2301.693	1512	626.75
958.5461	2303.1343	1506.3	624.15
958.6785	2304.5748	1500.3	617.35
958.8108	2306.0147	1510.85	627.15
958.9432	2307.4538	1506.25	622.15
959.0754	2308.8922	1499.1	618.75
959.2077	2310.3299	1493.25	613.25
959.3399	2311.7669	1489.15	608.25
959.4721	2313.2031	1495.75	612.55
959.6043	2314.6387	1495.25	614
959.7365	2316.0735	1488.05	604.85
959.8686	2317.5076	1488.4	604.6
960.0006	2318.941	1476.9	595.9
960.1327	2320.3737	1487.1	603.45
960.2647	2321.8056	1492.6	608.6
960.3967	2323.2369	1471.95	590.25
960.5287	2324.6674	1480.1	596.85
960.6606	2326.0972	1485.6	602.1
960.7925	2327.5263	1480.2	599.55
960.9244	2328.9547	1480.1	597.35
961.0562	2330.3823	1477.3	596.05
961.1881	2331.8092	1488.45	602.5
961.3198	2333.2355	1480.4	598.95
961.4516	2334.661	1473.85	592.75
961.5833	2336.0858	1464.85	580.55
961.715	2337.5098	1461.5	578.55
961.8467	2338.9332	1466.7	583.45
961.9783	2340.3558	1474.9	589
962.1099	2341.7778	1460.85	577.65
962.2415	2343.199	1468.6	584.7
962.373	2344.6195	1458.45	575.7
962.5045	2346.0393	1461.65	579.85
962.636	2347.4583	1454.25	571.5
962.7675	2348.8767	1460.3	576
962.8989	2350.2943	1455.85	573.7
963.0303	2351.7113	1457.7	574.3
963.1617	2353.1275	1456.25	574.2
963.293	2354.543	1460.65	569.95
963.4243	2355.9578	1458.2	576.8
963.5556	2357.3718	1447.45	564.25
963.6868	2358.7852	1450.65	566.45
963.818	2360.1978	1452.6	569.7
963.9492	2361.6098	1450	568.3
964.0803	2363.021	1455	566.6
964.2114	2364.4315	1445.75	563.7
964.3425	2365.8413	1438.9	555.1
964.4736	2367.2504	1436.1	554.55
964.6046	2368.6587	1428.05	545.55
964.7356	2370.0664	1431.7	549.8
964.8666	2371.4733	1434.05	551.1
964.9975	2372.8795	1437.15	556.75
965.1284	2374.285	1433.7	550.55
965.2593	2375.6899	1423.3	541.75
965.3901	2377.0939	1421.7	537.25
965.5209	2378.4973	1421.4	540.1
965.6517	2379.9	1421.05	538.9
965.7825	2381.3019	1423.95	541.65
965.9132	2382.7032	1409.4	526.05
966.0439	2384.1037	1413.6	532.95
966.1745	2385.5035	1415.7	531.7
966.3051	2386.9027	1410.6	528.2
966.4357	2388.3011	1419.3	532.95
966.5663	2389.6987	1411.95	529.1
966.6968	2391.0957	1401.3	520.7
966.8273	2392.492	1404.65	524.85
966.9578	2393.8876	1401.45	520.1
967.0882	2395.2824	1405.6	524.6
967.2186	2396.6765	1390.5	508.2
967.349	2398.07	1391.4	509.65
967.4793	2399.4627	1393.2	510.1
967.6097	2400.8547	1394.05	512.45
967.7399	2402.246	1402.3	516.55
967.8702	2403.6366	1387.8	504.5
968.0004	2405.0265	1388.05	506.75
968.1306	2406.4156	1390.1	501.2
968.2607	2407.8041	1385.3	499.95
968.3909	2409.1918	1388.6	504.9
968.521	2410.5789	1379.75	498.3
968.651	2411.9652	1378.3	491.85
968.781	2413.3508	1385.65	502.85
968.911	2414.7358	1383.8	502.65
969.041	2416.12	1380.7	500.1
969.1709	2417.5035	1373.65	493.15
969.3008	2418.8863	1377.9	494.55
969.4307	2420.2684	1377.75	494.1
969.5606	2421.6497	1369.6	488.65
969.6904	2423.0304	1368.65	486.4
969.8201	2424.4104	1370.05	486.25
969.9499	2425.7896	1373.65	485.65
970.0796	2427.1682	1371.2	489
970.2093	2428.546	1370.65	487.35
970.3389	2429.9232	1362.15	478.75
970.4685	2431.2996	1362.55	479.4
970.5981	2432.6753	1366.75	485.8
970.7277	2434.0503	1360.95	478.1
970.8572	2435.4246	1359.75	479.35
970.9867	2436.7982	1359.75	476.75
971.1161	2438.1711	1358.4	477.7
971.2456	2439.5433	1352.95	472.25
971.375	2440.9148	1356.15	467.25
971.5043	2442.2856	1352.9	471.95
971.6336	2443.6557	1350.1	464.75
971.7629	2445.025	1348.5	465.9
971.8922	2446.3937	1345.65	463.05
972.0214	2447.7617	1345.85	464.45
972.1506	2449.1289	1343.65	460
972.2798	2450.4955	1352	467.05
972.4089	2451.8613	1340.7	460.05
972.538	2453.2265	1342.4	461.95
972.6671	2454.5909	1337.8	455.7
972.7961	2455.9546	1334.85	455.1
972.9251	2457.3177	1339.95	457
973.0541	2458.68	1343.35	460.7
973.1831	2460.0416	1341.3	460.35
973.312	2461.4025	1335.45	452.25
973.4408	2462.7627	1343.55	449.3
973.5697	2464.1222	1330.9	450.75
973.6985	2465.4811	1336.05	450.9
973.8273	2466.8392	1333.7	452.35
973.956	2468.1966	1333.4	447.5
974.0847	2469.5533	1337.65	454.3
974.2134	2470.9093	1326.65	442.85
974.3421	2472.2645	1329.75	444.4
974.4707	2473.6191	1326.8	446.4
974.5993	2474.973	1324.4	441.95
974.7278	2476.3262	1327.45	442.85
974.8563	2477.6787	1324.1	443.15
974.9848	2479.0305	1321.3	439.65
975.1132	2480.3816	1321.25	435
975.2417	2481.7319	1325.8	441.65
975.37	2483.0816	1319.85	436.3
975.4984	2484.4306	1317.15	435.25
975.6267	2485.7789	1315.75	435.15
975.755	2487.1264	1318.1	432.55
975.8833	2488.4733	1318.7	438.55
976.0115	2489.8195	1331.85	431.7
976.1397	2491.165	1312.2	427.75
976.2678	2492.5097	1311.4	428
976.3959	2493.8538	1307.5	425.7
976.524	2495.1972	1303.05	421.95
976.6521	2496.5398	1305.05	421.65
976.7801	2497.8818	1304.15	420.7
976.9081	2499.2231	1302.25	419.5
977.036	2500.5637	1295.75	414.4
977.164	2501.9035	1300.35	417.6
977.2918	2503.2427	1303.8	417.95
977.4197	2504.5812	1302.45	420.6
977.5475	2505.919	1298.7	412.9
977.6753	2507.256	1293.9	410.2
977.8031	2508.5924	1299.9	418.7
977.9308	2509.9281	1302.85	415.6
978.0585	2511.2631	1297.1	415.8
978.1861	2512.5974	1291.95	411.55
978.3137	2513.9309	1295.9	412.2
978.4413	2515.2638	1318.9	407.3
978.5689	2516.596	1293.45	414.3
978.6964	2517.9275	1290.7	408.25
978.8239	2519.2583	1288.7	407.7
978.9513	2520.5884	1285.2	401.05
979.0788	2521.9178	1286.8	402.8
979.2062	2523.2465	1279.4	399.4
979.3335	2524.5745	1279.8	396.65
979.4608	2525.9018	1279	397.6
979.5881	2527.2284	1276.6	395.05
979.7154	2528.5543	1275.8	394
979.8426	2529.8796	1281.25	399.2
979.9698	2531.2041	1281.45	399
980.0969	2532.5279	1278.6	398.65
980.224	2533.851	1276.15	393.75
980.3511	2535.1735	1278.5	395.45
980.4781	2536.4952	1283.85	401.85
980.6052	2537.8163	1279	397.95
980.7321	2539.1366	1275.65	396.3
980.8591	2540.4562	1278.2	394.35
980.986	2541.7752	1279.7	398.95
981.1129	2543.0935	1270.75	386.75
981.2397	2544.411	1278.25	396.55
981.3665	2545.7279	1275.45	392.45
981.4933	2547.0441	1274.5	391.75
981.62	2548.3596	1276.35	392.25
981.7467	2549.6744	1277.15	396
981.8734	2550.9885	1278.5	387.65
982.0001	2552.3019	1267.55	385.25
982.1267	2553.6146	1273.9	389.85
982.2532	2554.9266	1267.65	384.35
982.3798	2556.2379	1266	382.55
982.5063	2557.5485	1258.85	378.8
982.6327	2558.8585	1279.7	388.85
982.7592	2560.1677	1265	381.4
982.8856	2561.4762	1262.65	379.25
983.0119	2562.7841	1266	381.8
983.1383	2564.0913	1265.85	386.7
983.2646	2565.3977	1258.2	377.5
983.3908	2566.7035	1258.95	377.95
983.517	2568.0086	1257.85	377.2
983.6432	2569.313	1258.65	375.25
983.7694	2570.6167	1252.65	369.25
983.8955	2571.9197	1254.5	373.95
984.0216	2573.222	1264.9	379.5
984.1476	2574.5236	1255.45	373.95
984.2737	2575.8246	1262.8	379.25
984.3996	2577.1248	1258.25	375.4
984.5256	2578.4244	1249.55	369.8
984.6515	2579.7232	1255	371.85
984.7774	2581.0214	1292.7	381.15
984.9032	2582.3189	1254.45	373.15
985.029	2583.6157	1259.85	372.1
985.1548	2584.9118	1251.25	369.8
985.2806	2586.2072	1256.2	375.1
985.4063	2587.5019	1250.15	368.75
985.5319	2588.7959	1254.7	372.55
985.6576	2590.0893	1262.3	378.95
985.7832	2591.3819	1255.95	376
985.9087	2592.6739	1258.3	375.95
986.0343	2593.9652	1257.55	375.5
986.1597	2595.2557	1258.15	377.4
986.2852	2596.5456	1258.7	373.85
986.4106	2597.8348	1256.35	375.4
986.536	2599.1234	1252.9	371.35
986.6614	2600.4112	1257.65	375.5
986.7867	2601.6983	1261.5	375.9
986.912	2602.9848	1256.15	374.5
987.0372	2604.2705	1270.65	383.8
987.1624	2605.5556	1261.8	379.75
987.2876	2606.84	1253.5	369.4
987.4128	2608.1237	1258.25	377.3
987.5379	2609.4067	1250.65	369.05
987.6629	2610.689	1257.2	365.7
987.788	2611.9707	1251.9	366.45
987.913	2613.2516	1249.4	363.1
988.0379	2614.5319	1243.7	362.25
988.1629	2615.8115	1246.1	363.65
988.2878	2617.0903	1244.15	360.65
988.4126	2618.3685	1238.15	358.25
988.5375	2619.6461	1240.9	358.4
988.6622	2620.9229	1239.6	358.35
988.787	2622.199	1239.1	357.4
988.9117	2623.4745	1232.8	351.35
989.0364	2624.7493	1233	350.8
989.161	2626.0234	1227.15	345.55
989.2857	2627.2968	1231.5	351.2
989.4102	2628.5695	1236.4	353.1
989.5348	2629.8415	1231.95	349.35
989.6593	2631.1128	1228.55	344.6
989.7837	2632.3835	1232.85	351.2
989.9082	2633.6535	1232.1	349.55
990.0326	2634.9228	1234.3	352.95
990.1569	2636.1914	1233.1	351.85
990.2812	2637.4593	1233.4	350.3
990.4055	2638.7265	1233.5	350.35
990.5298	2639.9931	1229.25	348.8
990.654	2641.259	1227.35	344.65
990.7782	2642.5242	1226	343.2
990.9023	2643.7887	1224.55	342.55
991.0264	2645.0525	1227.95	346.65
991.1505	2646.3156	1222.65	341.3
991.2745	2647.5781	1218.05	337.05
991.3985	2648.8398	1226	344.9
991.5225	2650.1009	1252.7	331
991.6464	2651.3613	1224.55	343.1
991.7703	2652.6211	1211.45	329.25
991.8942	2653.8801	1217.8	337.25
992.018	2655.1385	1218.75	333.35
992.1418	2656.3961	1215.4	333.6
992.2655	2657.6531	1220.75	337.65
992.3892	2658.9094	1217.6	335.35
992.5129	2660.1651	1218.5	337.15
992.6366	2661.42	1218.85	336.25
992.7602	2662.6743	1221.4	339.3
992.8837	2663.9279	1219.1	337.3
993.0073	2665.1808	1219.6	335.25
993.1307	2666.433	1222.65	339.1
993.2542	2667.6846	1217.95	336.35
993.3776	2668.9354	1226.95	342.1
993.501	2670.1856	1227.7	345.45
993.6244	2671.4351	1223	341.25
993.7477	2672.6839	1234.65	348.65
993.8709	2673.9321	1230.55	348.95
993.9942	2675.1795	1225.2	342.7
994.1174	2676.4263	1229.85	348.7
994.2405	2677.6724	1229.25	348.25
994.3637	2678.9179	1233.5	349.65
994.4868	2680.1626	1226.3	347
994.6098	2681.4067	1232.2	350.5
994.7328	2682.6501	1229.45	345.35
994.8558	2683.8928	1227.9	347.2
994.9788	2685.1348	1224.65	342.05
995.1017	2686.3761	1220.7	337.3
995.2245	2687.6168	1221.95	341.35
995.3474	2688.8568	1219.85	338.2
995.4702	2690.0961	1215.5	334.75
995.5929	2691.3348	1219.35	336.45
995.7156	2692.5727	1215.25	335.1
995.8383	2693.81	1207.65	324.75
995.961	2695.0466	1208.1	328
996.0836	2696.2826	1211.5	327.9
996.2062	2697.5178	1233.2	330.3
996.3287	2698.7524	1209.95	328.1
996.4512	2699.9863	1212.95	330.05
996.5737	2701.2195	1212.85	331.55
996.6961	2702.452	1216.3	333.2
996.8185	2703.6839	1220	339.25
996.9408	2704.9151	1220.85	341.15
997.0631	2706.1456	1223.55	343.2
997.1854	2707.3755	1230.1	346.8
997.3077	2708.6046	1230.7	347.65
997.4299	2709.8331	1235.8	354.65
997.552	2711.0609	1235.6	351.4
997.6742	2712.2881	1246.4	364.6
997.7963	2713.5145	1245.25	363.25
997.9183	2714.7403	1244.25	362.25
998.0403	2715.9654	1254.45	373.05
998.1623	2717.1899	1270.9	374.5
998.2842	2718.4136	1264.7	384.05
998.4062	2719.6367	1273.9	389.55
998.528	2720.8591	1289.9	402.65
998.6498	2722.0809	1286.25	403.65
998.7716	2723.3019	1295.4	409.2
998.8934	2724.5223	1299.7	416.45
999.0151	2725.7421	1304.4	420
999.1368	2726.9611	1301.8	418.95
999.2584	2728.1795	1305.65	418.75
999.38	2729.3972	1299.5	418
999.5016	2730.6142	1301.95	407.65
999.6231	2731.8306	1284.6	401.6
999.7446	2733.0462	1273.1	391.6
999.8661	2734.2612	1265.1	377.1
999.9875	2735.4756	1260.5	376.4
1000.1089	2736.6892	1245.1	364.3
1000.2302	2737.9022	1241.05	358.15
1000.3515	2739.1145	1234.25	351.8
1000.4728	2740.3262	1232.05	343.15
1000.594	2741.5372	1217.9	335.2
1000.7152	2742.7475	1216.05	332.45
1000.8363	2743.9571	1208.2	325.65
1000.9575	2745.1661	1206.1	318.95
1001.0785	2746.3744	1196.85	313.5
1001.1996	2747.582	1194.6	313.35
1001.3206	2748.7889	1191.7	309.15
1001.4415	2749.9952	1187.35	305.05
1001.5625	2751.2008	1180.1	295.95
1001.6833	2752.4057	1185.35	301.2
1001.8042	2753.61	1174.9	291.5
1001.925	2754.8136	1174.7	291.7
1002.0458	2756.0165	1175.8	295.4
1002.1665	2757.2188	1172.95	291.75
1002.2872	2758.4204	1173.45	291.55
1002.4078	2759.6213	1176.3	290.55
1002.5285	2760.8215	1180.9	293.2
1002.649	2762.0211	1177.85	293.65
1002.7696	2763.22	1179.1	293.85
1002.8901	2764.4182	1172	289.8
1003.0106	2765.6158	1169.35	287.4
1003.131	2766.8127	1164.85	283
1003.2514	2768.009	1163.5	281.45
1003.3717	2769.2045	1161.85	277.15
1003.492	2770.3994	1164.15	281.7
1003.6123	2771.5936	1158.35	274.05
1003.7325	2772.7872	1162.9	284.05
1003.8527	2773.9801	1157.5	271.75
1003.9729	2775.1723	1173	277.3
1004.093	2776.3639	1156.05	275.75
1004.2131	2777.5548	1160.75	275.25
1004.3331	2778.745	1159.7	276.6
1004.4531	2779.9346	1163.3	282.5
1004.5731	2781.1235	1162.6	277.45
1004.693	2782.3117	1152.15	270.5
1004.8129	2783.4992	1158.65	277.15
1004.9328	2784.6861	1160.55	280.3
1005.0526	2785.8723	1167.15	284.5
1005.1723	2787.0579	1167	282.4
1005.2921	2788.2428	1168.9	285.15
1005.4118	2789.427	1166.8	285.1
1005.5314	2790.6106	1169.75	288.65
1005.651	2791.7935	1177.25	294.3
1005.7706	2792.9757	1180.5	298.5
1005.8902	2794.1573	1180.95	296.85
1006.0097	2795.3382	1184.8	304.15
1006.1291	2796.5184	1193	312.55
1006.2485	2797.698	1200.2	315.2
1006.3679	2798.8769	1204.25	321.55
1006.4873	2800.0551	1212.55	330.15
1006.6066	2801.2327	1220.35	334.75
1006.7258	2802.4096	1226.95	346.05
1006.8451	2803.5859	1228.95	346.05
1006.9642	2804.7615	1244.65	361.45
1007.0834	2805.9364	1255.75	374.35
1007.2025	2807.1106	1262.9	381.5
1007.3216	2808.2842	1281.15	397.6
1007.4406	2809.4572	1296.7	415.45
1007.5596	2810.6294	1313.65	429.4
1007.6785	2811.801	1326.05	445.95
1007.7975	2812.972	1356.1	473.65
1007.9163	2814.1423	1375.1	493.25
1008.0352	2815.3119	1406	524.7
1008.154	2816.4808	1422.15	541.1
1008.2727	2817.6491	1457.5	574.5
1008.3914	2818.8167	1480.2	600.25
1008.5101	2819.9837	1522.55	634.75
1008.6288	2821.15	1543.6	663.35
1008.7474	2822.3157	1574.25	690.95
1008.8659	2823.4807	1611.05	727.45
1008.9844	2824.645	1644.65	761.95
1009.1029	2825.8086	1681.3	798.05
1009.2214	2826.9716	1711.9	831.55
1009.3398	2828.134	1738.4	854.85
1009.4581	2829.2957	1765.1	882.35
1009.5764	2830.4567	1782.95	903
1009.6947	2831.617	1795.7	912.05
1009.813	2832.7767	1809.6	929.4
1009.9312	2833.9358	1816.5	936.35
1010.0493	2835.0941	1806.05	923.05
1010.1675	2836.2519	1800.75	920.45
1010.2855	2837.4089	1781.8	899.55
1010.4036	2838.5653	1777.6	897.1
1010.5216	2839.7211	1763.2	881.9
1010.6396	2840.8761	1759.1	874.65
1010.7575	2842.0306	1754.45	875.8
1010.8754	2843.1843	1774.35	891.25
1010.9932	2844.3374	1794.7	913.15
1011.111	2845.4899	1818.2	936.35
1011.2288	2846.6417	1853.15	971.15
1011.3465	2847.7928	1886.25	1005.6
1011.4642	2848.9433	1916.6	1036.15
1011.5818	2850.0931	1944.3	1063.05
1011.6995	2851.2422	1978.8	1096.05
1011.817	2852.3907	2012	1128.95
1011.9345	2853.5385	2052.4	1170.7
1012.052	2854.6857	2101.65	1194.05
1012.1695	2855.8323	2101.35	1220.35
1012.2869	2856.9781	2131.5	1250.5
1012.4042	2858.1233	2165.25	1282.7
1012.5216	2859.2679	2190.5	1311.05
1012.6389	2860.4118	2223.55	1340.2
1012.7561	2861.555	2246.5	1361.35
1012.8733	2862.6976	2274.25	1391.8
1012.9905	2863.8395	2292.15	1409.8
1013.1076	2864.9808	2306.05	1424.45
1013.2247	2866.1214	2320	1437.8
1013.3417	2867.2614	2339.75	1455.7
1013.4587	2868.4007	2339.25	1457.9
1013.5757	2869.5393	2340.95	1456.1
1013.6926	2870.6773	2353.75	1469.9
1013.8095	2871.8146	2367.9	1484.6
1013.9263	2872.9513	2366.25	1482.45
1014.0431	2874.0874	2353.5	1474.1
1014.1599	2875.2227	2349.3	1464.75
1014.2766	2876.3574	2344	1462
1014.3933	2877.4915	2322.85	1441.95
1014.51	2878.6249	2314.85	1432.75
1014.6266	2879.7577	2294.55	1411.65
1014.7431	2880.8898	2294.65	1402.15
1014.8596	2882.0212	2278.85	1399.95
1014.9761	2883.152	2267.7	1385.1
1015.0925	2884.2821	2259.75	1379
1015.2089	2885.4116	2269.65	1390.05
1015.3253	2886.5405	2274.05	1392.6
1015.4416	2887.6686	2284.95	1401.15
1015.5579	2888.7962	2268.65	1387.85
1015.6741	2889.923	2278.2	1396.4
1015.7903	2891.0493	2285.5	1404.15
1015.9065	2892.1748	2293.65	1412.5
1016.0226	2893.2997	2289.25	1407.9
1016.1387	2894.424	2306.9	1426.6
1016.2547	2895.5476	2314.85	1432.75
1016.3707	2896.6706	2328.45	1446.55
1016.4866	2897.7929	2338.4	1456.05
1016.6025	2898.9145	2358.55	1476.2
1016.7184	2900.0355	2363.4	1481.55
1016.8342	2901.1559	2371.6	1487.5
1016.95	2902.2756	2404.1	1522.15
1017.0658	2903.3946	2417.05	1533.9
1017.1815	2904.513	2426.75	1541.25
1017.2971	2905.6308	2433.95	1554.15
1017.4127	2906.7479	2453.5	1571.3
1017.5283	2907.8643	2474.35	1592.6
1017.6439	2908.9801	2471.35	1590.45
1017.7594	2910.0953	2471.45	1589.5
1017.8748	2911.2098	2474.35	1588.8
1017.9902	2912.3236	2479.2	1588.9
1018.1056	2913.4368	2464.1	1576.1
1018.2209	2914.5494	2449.7	1568.7
1018.3362	2915.6613	2426.7	1538.4
1018.4515	2916.7725	2419.05	1533.1
1018.5667	2917.8831	2400.9	1517.6
1018.6819	2918.9931	2382.65	1498.85
1018.797	2920.1024	2356.9	1475.4
1018.9121	2921.211	2347.75	1466.3
1019.0271	2922.319	2334.65	1452.8
1019.1421	2923.4264	2336.15	1452.95
1019.2571	2924.5331	2333.1	1451.9
1019.372	2925.6391	2326.3	1446.4
1019.4869	2926.7445	2323.7	1440.25
1019.6017	2927.8493	2330.35	1446.75
1019.7165	2928.9534	2332.6	1448.55
1019.8313	2930.0569	2336.8	1453.15
1019.946	2931.1597	2338.7	1456.9
1020.0606	2932.2619	2338.9	1455.25
1020.1753	2933.3634	2337.9	1456.95
1020.2899	2934.4643	2357.15	1466.8
1020.4044	2935.5645	2345.05	1457.55
1020.5189	2936.6641	2338.75	1454.5
1020.6334	2937.763	2314.9	1433.95
1020.7478	2938.8613	2293.65	1411.85
1020.8622	2939.959	2255.85	1367.45
1020.9765	2941.056	2232.6	1353.7
1021.0908	2942.1523	2195.95	1312.2
1021.2051	2943.248	2154.3	1272.5
1021.3193	2944.3431	2106.55	1224.25
1021.4334	2945.4375	2058	1174.45
1021.5476	2946.5313	2000.15	1117.95
1021.6617	2947.6244	1946.3	1063.7
1021.7757	2948.7169	1885.2	1001.65
1021.8897	2949.8087	1833	951.2
1022.0037	2950.8999	1785.45	903.65
1022.1176	2951.9904	1746.55	864.15
1022.2315	2953.0803	1697.35	814.35
1022.3453	2954.1696	1667.65	785.75
1022.4591	2955.2582	1636.1	755.2
1022.5728	2956.3462	1601.3	719.7
1022.6865	2957.4335	1590.55	708.6
1022.8002	2958.5202	1569.65	684.55
1022.9138	2959.6062	1555.65	672.5
1023.0274	2960.6916	1539.1	658.15
1023.141	2961.7764	1537.3	654.25
1023.2545	2962.8605	1523.7	639.9
1023.3679	2963.9439	1515.75	634.45
1023.4813	2965.0267	1510.7	629.2
1023.5947	2966.1089	1525.3	619.05
1023.708	2967.1905	1498.35	615.55
1023.8213	2968.2714	1506.65	624.95
1023.9346	2969.3516	1506.45	625.95
1024.0478	2970.4312	1515.3	627.6
1024.1609	2971.5102	1508.5	627.45
1024.274	2972.5885	1512.1	631.55
1024.3871	2973.6662	1509.85	621.8
1024.5002	2974.7432	1512.6	630.65
1024.6132	2975.8196	1515.45	633.8
1024.7261	2976.8954	1501.5	620.05
1024.839	2977.9705	1500	619.45
1024.9519	2979.045	1502.1	621.65
1025.0647	2980.1188	1493.95	613.45
1025.1775	2981.192	1482.3	601
1025.2902	2982.2645	1466.2	583.55
1025.4029	2983.3364	1456.7	575.85
1025.5156	2984.4077	1446.45	567.15
1025.6282	2985.4783	1433.2	546.05
1025.7407	2986.5483	1415.35	534.65
1025.8532	2987.6177	1391.05	509.6
1025.9657	2988.6864	1375.55	493.3
1026.0782	2989.7545	1362.35	480.6
1026.1906	2990.8219	1338.6	457.8
1026.3029	2991.8887	1319.55	434.75
1026.4152	2992.9548	1302.05	419.65
1026.5275	2994.0204	1280.2	400.45
1026.6397	2995.0852	1258.6	378.75
1026.7519	2996.1495	1248.85	365.9
1026.864	2997.2131	1239.05	359.35
1026.9761	2998.276	1221.25	339
1027.0882	2999.3383	1207.15	324.05
1027.2002	3000.4	1198.65	314.85
1027.3122	3001.4611	1183.9	301.1
1027.4241	3002.5215	1181.15	299.7
1027.536	3003.5812	1164.55	283.45
1027.6478	3004.6404	1158.65	274.65
1027.7596	3005.6989	1153.4	269.55
1027.8714	3006.7567	1141.15	260.45
1027.9831	3007.8139	1161.75	253.05
1028.0947	3008.8705	1133.5	253.1
1028.2064	3009.9264	1146.8	246.55
1028.3179	3010.9818	1121.6	240.4
1028.4295	3012.0364	1123.4	239.75
1028.541	3013.0905	1119.3	238.2
1028.6524	3014.1439	1117.4	234.95
1028.7638	3015.1966	1104.55	222.45
1028.8752	3016.2487	1107.1	225.75
1028.9865	3017.3002	1111.9	222.85
1029.0978	3018.3511	1104	222.7
1029.209	3019.4013	1102.3	221.3
1029.3202	3020.4509	1102.05	217.85
1029.4314	3021.4998	1102.35	220.75
1029.5425	3022.5481	1097.85	214.85
1029.6535	3023.5958	1100	218.05
1029.7645	3024.6428	1095.9	212.45
1029.8755	3025.6892	1097.95	217.2
1029.9864	3026.735	1096.75	214.15
1030.0973	3027.7802	1097.25	215.1
1030.2082	3028.8247	1094.9	214.7
1030.319	3029.8685	1094.75	211.15
1030.4297	3030.9118	1095.4	211.15
1030.5404	3031.9544	1106.1	225.1
1030.6511	3032.9963	1099.65	217.9
1030.7617	3034.0376	1094.15	211.55
1030.8723	3035.0783	1105.3	220.2
1030.9829	3036.1184	1105.95	222.65
1031.0934	3037.1578	1105.45	225.4
1031.2038	3038.1966	1104.75	222
1031.3142	3039.2348	1101.8	221.5
1031.4246	3040.2723	1117.05	226.4
1031.5349	3041.3092	1106	224.4
1031.6452	3042.3455	1108.35	225.15
1031.7554	3043.3811	1106.25	225.9
1031.8656	3044.4161	1102.2	219.9
1031.9758	3045.4505	1102.45	223.15
1032.0859	3046.4842	1105.25	222.6
1032.1959	3047.5173	1100.35	219.5
1032.3059	3048.5498	1102.6	220.85
1032.4159	3049.5816	1099.05	216.45
1032.5258	3050.6128	1097.45	213.85
1032.6357	3051.6434	1097.5	215.75
1032.7455	3052.6734	1095.7	213.9
1032.8553	3053.7027	1098.55	216.9
1032.9651	3054.7314	1089.9	209.5
1033.0748	3055.7594	1085.85	204.8
1033.1845	3056.7868	1089.6	207.15
1033.2941	3057.8136	1086.3	205.2
1033.4037	3058.8398	1086.75	204.45
1033.5132	3059.8653	1080.2	198.3
1033.6227	3060.8902	1086	203.3
1033.7321	3061.9145	1084.5	203.5
1033.8415	3062.9381	1080.7	197.55
1033.9509	3063.9612	1100.15	201.65
1034.0602	3064.9835	1076.65	195.35
1034.1694	3066.0053	1082.5	198.25
1034.2787	3067.0264	1074.25	193.05
1034.3878	3068.0469	1073.9	191.3
1034.497	3069.0668	1072.45	188.5
1034.6061	3070.086	1065.1	183.2
1034.7151	3071.1046	1065.8	182.4
1034.8241	3072.1226	1061.85	178.35
1034.9331	3073.1399	1055.8	174
1035.042	3074.1567	1050.8	169.75
1035.1508	3075.1727	1052.45	167.75
1035.2597	3076.1882	1048.15	165.9
1035.3684	3077.203	1042.1	159.8
1035.4772	3078.2173	1039.85	157.7
1035.5859	3079.2308	1038.95	151.85
1035.6945	3080.2438	1031.75	146.9
1035.8031	3081.2561	1025.6	144.95
1035.9117	3082.2678	1025	144.4
1036.0202	3083.2789	1022.05	140.5
1036.1286	3084.2893	1014.1	132.85
1036.2371	3085.2991	1013.35	131.15
1036.3454	3086.3083	1017.6	133.55
1036.4538	3087.3169	1013.45	130.4
1036.562	3088.3248	1011.9	128.5
1036.6703	3089.3321	1006.55	122.45
1036.7785	3090.3388	1002.55	122.7
1036.8866	3091.3449	1004.05	123.9
1036.9948	3092.3503	999	114.2
1037.1028	3093.3551	996.25	116.45
1037.2108	3094.3593	996.65	116.35
1037.3188	3095.3629	992.65	112.05
1037.4267	3096.3658	992.9	109.2
1037.5346	3097.3681	988.95	106.8
1037.6425	3098.3698	988.15	104.6
1037.7503	3099.3708	992.5	106.2
1037.858	3100.3713	984.85	104.5
1037.9657	3101.3711	984.95	103.05
1038.0734	3102.3702	1127.55	106.85
1038.181	3103.3688	985	102.5
1038.2886	3104.3667	980.2	99.2
1038.3961	3105.364	984.45	103.95
1038.5036	3106.3607	978.8	94.4
1038.611	3107.3568	978.9	95.95
1038.7184	3108.3522	974.1	94.6
1038.8257	3109.347	976.95	92.4
1038.933	3110.3412	975.6	90.55
1039.0403	3111.3348	972.4	91.2
1039.1475	3112.3277	969.65	88.8
1039.2547	3113.32	970.2	90.3
1039.3618	3114.3117	972.8	88.2
1039.4689	3115.3028	970.85	90.2
1039.5759	3116.2932	970.1	87.2
1039.6829	3117.2831	973.7	87.65
1039.7898	3118.2723	966.6	84.9
1039.8967	3119.2608	963.4	82.05
1040.0035	3120.2488	966.2	84.45
1040.1103	3121.2361	963.1	79.5
1040.2171	3122.2229	962.4	80.6
1040.3238	3123.209	962.1	79.95
1040.4305	3124.1944	960.95	79.7
1040.5371	3125.1793	960.55	76.4
1040.6437	3126.1635	958.8	76.6
1040.7502	3127.1471	956.5	74.8
1040.8567	3128.1301	958.6	77.95
1040.9631	3129.1125	956.15	74.15
1041.0695	3130.0942	955.4	74.55
1041.1759	3131.0753	963.05	74.6
1041.2822	3132.0558	958.95	72.7
1041.3884	3133.0357	954.75	72.85
1041.4946	3134.015	954.3	73.75
1041.6008	3134.9936	954.4	70.1
1041.7069	3135.9716	972.3	70.5
1041.813	3136.949	951.25	67.6
1041.919	3137.9258	971.9	73.45
1042.025	3138.902	956	67.45
1042.1309	3139.8775	949.75	68.15
1042.2368	3140.8524	950.25	68.9
1042.3427	3141.8267	948.75	62.45
1042.4485	3142.8004	948.6	67.7
1042.5542	3143.7735	954.05	66.5
1042.6599	3144.7459	953.3	69.8
1042.7656	3145.7178	948.85	66.05
1042.8712	3146.689	946.45	65
1042.9768	3147.6596	946.75	60.7
1043.0823	3148.6295	945.25	61.9
1043.1878	3149.5989	945.7	63.5
1043.2932	3150.5676	942.55	61.55
1043.3986	3151.5357	939.8	60.7
1043.5039	3152.5032	942.35	59.45
1043.6092	3153.4701	944.9	63.85
1043.7145	3154.4364	944.85	59.65
1043.8197	3155.402	941.3	61.75
1043.9248	3156.367	940.5	54
1044.03	3157.3315	959.65	58.65
1044.135	3158.2952	940	59.95
1044.24	3159.2584	941.3	60.85
1044.345	3160.221	940.85	59.95
1044.4499	3161.1829	939.35	57.7
1044.5548	3162.1442	938.5	57.1
1044.6596	3163.105	938.5	57.2
1044.7644	3164.065	940.75	59.45
1044.8692	3165.0245	941.05	57.25
1044.9739	3165.9834	934.8	55.1
1045.0785	3166.9416	936.45	55.1
1045.1831	3167.8993	937.55	55.55
1045.2877	3168.8563	937.4	54.95
1045.3922	3169.8127	935.6	54.85
1045.4966	3170.7684	933.5	50.7
1045.6011	3171.7236	938.05	54.75
1045.7054	3172.6782	935.25	53.05
1045.8098	3173.6321	937.9	57.6
1045.914	3174.5854	941.45	53.7
1046.0183	3175.5381	933.3	50.1
1046.1224	3176.4902	936.25	54.8
1046.2266	3177.4417	934.05	52.75
1046.3307	3178.3926	930.15	49.05
1046.4347	3179.3428	934.4	53.45
1046.5387	3180.2924	931.55	50.7
1046.6427	3181.2415	935.75	53.3
1046.7466	3182.1899	934.95	52.4
1046.8504	3183.1377	932.75	51.25
1046.9542	3184.0848	934.95	50
1047.058	3185.0314	930.8	48.2
1047.1617	3185.9773	931.55	48.15
1047.2654	3186.9227	932.7	46.95
1047.369	3187.8674	930.15	47.85
1047.4726	3188.8115	935.4	50.95
1047.5761	3189.755	927.35	45.35
1047.6796	3190.6979	930.9	51
1047.783	3191.6402	929.75	47.6
1047.8864	3192.5818	930.2	48.6
1047.9898	3193.5229	949.15	48.25
1048.0931	3194.4633	927.65	46.4
1048.1963	3195.4031	930.15	46.3
1048.2995	3196.3423	924.9	43.45
1048.4027	3197.2809	927.75	44.85
1048.5058	3198.2189	930.7	48.85
1048.6089	3199.1563	934.2	46.25
1048.7119	3200.0931	927.05	46.85
1048.8148	3201.0292	926	44.9
1048.9178	3201.9648	924.05	43.8
1049.0206	3202.8997	925.75	40.65
1049.1235	3203.834	924.25	42.65
1049.2262	3204.7677	925.25	43.55
1049.329	3205.7008	925.85	43.4
1049.4317	3206.6333	924.2	46.1
1049.5343	3207.5652	924.7	39.2
1049.6369	3208.4964	928.35	46.6
1049.7394	3209.4271	922.25	43.3
1049.8419	3210.3571	926.05	43.75
1049.9444	3211.2865	925.1	42.9
1050.0468	3212.2154	924.3	40.8
1050.1491	3213.1436	924.7	38.4
1050.2514	3214.0712	930.55	42.55
1050.3537	3214.9982	922.7	39.8
1050.4559	3215.9246	920.95	39.9
1050.5581	3216.8503	920.3	41.05
1050.6602	3217.7755	922.1	39.9
1050.7623	3218.7001	922.4	40.6
1050.8643	3219.624	923.25	39.85
1050.9663	3220.5473	922.15	42.55
1051.0682	3221.4701	923.15	39.8
1051.1701	3222.3922	922.9	38.1
1051.2719	3223.3137	920.15	37.9
1051.3737	3224.2346	920.1	38.5
1051.4754	3225.1549	920.1	39.5
1051.5771	3226.0746	922.15	39.8
1051.6788	3226.9937	919.25	35.95
1051.7804	3227.9121	921.25	39.1
1051.8819	3228.83	917.15	35.15
1051.9834	3229.7473	919.15	37.5
1052.0849	3230.6639	919.2	36.55
1052.1863	3231.5799	917.1	36.75
1052.2876	3232.4954	918.15	35.5
1052.3889	3233.4102	918.8	37.95
1052.4902	3234.3244	918.5	35.55
1052.5914	3235.238	919.2	37.45
1052.6926	3236.151	944.8	39.15
1052.7937	3237.0634	914.15	32.35
1052.8948	3237.9752	915.3	33.85
1052.9958	3238.8864	917.85	35.35
1053.0968	3239.797	914.45	32.55
1053.1977	3240.7069	915.15	32.55
1053.2986	3241.6163	919.05	35.45
1053.3994	3242.5251	914.55	34.3
1053.5002	3243.4332	913.5	32.75
1053.6009	3244.3408	916.25	33.3
1053.7016	3245.2477	914.4	34.5
1053.8022	3246.154	917.55	33.15
1053.9028	3247.0598	917.35	34.35
1054.0034	3247.9649	912	30.95
1054.1039	3248.8694	914.55	33.75
1054.2043	3249.7733	913.4	31.5
1054.3047	3250.6766	914.4	32.25
1054.4051	3251.5793	914.5	33.7
1054.5054	3252.4814	911.95	31.4
1054.6056	3253.3829	912.95	30.65
1054.7058	3254.2838	914.95	34.7
1054.806	3255.1841	910.4	28.55
1054.9061	3256.0838	912.1	30.5
1055.0061	3256.9829	910.9	29.45
1055.1062	3257.8814	911.6	28.6
1055.2061	3258.7792	914	29.95
1055.306	3259.6765	912.7	29.25
1055.4059	3260.5731	909.7	28.2
1055.5057	3261.4692	910.3	27.05
1055.6055	3262.3647	909.9	28.1
1055.7052	3263.2595	908.9	27
1055.8049	3264.1538	910.6	29.5
1055.9045	3265.0474	911	28.2
1056.0041	3265.9404	907.75	25.2
1056.1036	3266.8329	905.55	23
1056.2031	3267.7247	915.45	24.6
1056.3025	3268.616	904.6	25.1
1056.4019	3269.5066	905	23.8
1056.5013	3270.3966	905.7	20.75
1056.6005	3271.286	902.7	22.3
