Software Version:	3.9.2.0
Unit SN:	10000200
Spectrometer SN:	6960
Date:	3/14/2024 1:04:31 PM
Data Line Index:	25
Spectral Points:	2048
Integration time (ms):	125
Averages:	20
Delay (ms):	30000
Sequence Number:	1
Processing:	dark subtract
Laser Power (mW):	300
Laser Current (mA):	823
Laser Diode Temp (C):	25.1
Laser Case Temp (C):	28
System Temp (C):	28
Spectrometer Temp (C):	25.8
CCD Temp (C):	0.005
Secondary Temp (C):	20.004
Heatsink Temp (C):	23.88
CCDPCB Temp (C):	37.441
SecondaryPCB Temp (C):	35.118

Wavelength	RamanShift	Raw Counts	Dark Subtracted
787.061	30.1047	454.2	41.7
787.2016	32.3739	452.25	42.35
787.3422	34.6426	459.25	47.65
787.4828	36.9109	463.35	51
787.6235	39.1787	474.5	57.45
787.7642	41.4461	481.9	59.45
787.9049	43.7131	488.05	61
788.0456	45.9796	497.85	68.75
788.1863	48.2456	505.6	71.35
788.3271	50.5112	514.45	75.55
788.4679	52.7764	519.75	80.65
788.6087	55.0411	530.9	89.9
788.7496	57.3054	543.5	96.1
788.8904	59.5692	548.5	100.1
789.0313	61.8326	562.3	109.1
789.1722	64.0955	579	121.6
789.3132	66.3579	591.3	129.4
789.4541	68.6199	609.9	142.85
789.5951	70.8815	641.15	173.15
789.7361	73.1426	714.25	243.05
789.8771	75.4032	888.55	413.85
790.0181	77.6634	1340.65	857.9
790.1592	79.9231	2415.65	1927.7
790.3003	82.1824	4726.75	4235.85
790.4414	84.4412	8847.3	8344.25
790.5825	86.6995	14518.5	14004.85
790.7237	88.9574	20095.3	19565.45
790.8648	91.2148	23973.45	23439.7
791.006	93.4717	25808.3	25266.15
791.1472	95.7282	26113.95	25569
791.2885	97.9842	25963.45	25415
791.4297	100.2398	25412.9	24862.4
791.571	102.4949	24741.2	24187.4
791.7123	104.7495	23994.2	23434.75
791.8536	107.0036	23239.4	22681.7
791.9949	109.2573	22576.9	22018.25
792.1363	111.5105	21945.05	21384.4
792.2777	113.7632	21365.05	20806.8
792.4191	116.0154	20896.6	20324.85
792.5605	118.2672	20533.8	19966.75
792.7019	120.5185	20226.75	19659
792.8434	122.7693	19952.6	19382.3
792.9849	125.0197	19743.75	19172.6
793.1264	127.2696	19503.95	18930.9
793.2679	129.519	19369.1	18794.1
793.4094	131.7679	19119.5	18541.6
793.551	134.0163	18932.3	18347.55
793.6926	136.2642	18657.6	18068.8
793.8342	138.5117	18382.05	17790.55
793.9758	140.7587	18072.2	17481.7
794.1175	143.0052	17792.65	17198.55
794.2591	145.2512	17454.25	16857.55
794.4008	147.4967	17192.5	16594.35
794.5425	149.7417	16964.5	16367.6
794.6842	151.9863	16767.55	16168.3
794.826	154.2304	16688.8	16084.95
794.9677	156.4739	16550.4	15939.3
795.1095	158.717	16510.35	15901.55
795.2513	160.9596	16376.35	15760.9
795.3931	163.2017	16207.15	15590.8
795.535	165.4433	16006.55	15390.4
795.6768	167.6844	15720.15	15099.9
795.8187	169.925	15489.7	14866.2
795.9606	172.1651	15165.4	14539.5
796.1025	174.4047	14926.2	14293.3
796.2445	176.6439	14706.65	14073.1
796.3864	178.8825	14523.2	13887.2
796.5284	181.1206	14393.2	13754.85
796.6704	183.3582	14255.5	13610.95
796.8124	185.5954	14178.3	13534.55
796.9544	187.832	14101.1	13454.2
797.0965	190.0681	14102.25	13454.1
797.2386	192.3037	14060.55	13406.05
797.3806	194.5388	14075.9	13419.4
797.5228	196.7734	14058.95	13401.5
797.6649	199.0075	14149.9	13488.25
797.807	201.2411	14230	13566.3
797.9492	203.4742	14310.2	13645.05
798.0914	205.7068	14433.2	13768.5
798.2336	207.9389	14497.9	13833.25
798.3758	210.1704	14642.9	13971.85
798.518	212.4015	14682.75	14009.95
798.6603	214.632	14847.7	14175.25
798.8025	216.862	14921.85	14252.65
798.9448	219.0915	14970.55	14306.65
799.0871	221.3205	15053.35	14394.25
799.2294	223.549	15118.8	14467.2
799.3718	225.777	15140.2	14489.9
799.5141	228.0044	15208.65	14551.9
799.6565	230.2314	15296.75	14643.8
799.7989	232.4578	15319.85	14664.4
799.9413	234.6837	15405.85	14745.65
800.0837	236.909	15467.7	14806.95
800.2262	239.1339	15458.35	14772.3
800.3687	241.3582	15378.8	14708.35
800.5111	243.582	15313.15	14616.15
800.6536	245.8053	15241.8	14552.25
800.7961	248.0281	15173.8	14487.9
800.9387	250.2503	15157.7	14467.5
801.0812	252.472	15202.25	14506.9
801.2238	254.6932	15305.65	14608.2
801.3664	256.9139	15357	14658.65
801.509	259.134	15489.55	14784.15
801.6516	261.3536	15665.55	14966
801.7942	263.5727	15874.1	15173.2
801.9369	265.7912	16084.9	15379.5
802.0795	268.0092	16405.7	15701.3
802.2222	270.2267	16606.55	15900.95
802.3649	272.4436	16735.45	16027.6
802.5076	274.6601	16804.8	16088.2
802.6504	276.8759	16776.15	16066.95
802.7931	279.0913	16729.85	16022.35
802.9359	281.3061	16640.3	15930.6
803.0787	283.5204	16609.25	15892.1
803.2215	285.7341	16606.6	15888.55
803.3643	287.9473	16627.55	15907.4
803.5071	290.16	16634.9	15912.05
803.6499	292.3721	16617.35	15899.4
803.7928	294.5837	16727.75	16005.05
803.9357	296.7947	16848.2	16127.75
804.0786	299.0052	16954.85	16231.95
804.2215	301.2152	16977.25	16252.55
804.3644	303.4246	16891.25	16170.05
804.5074	305.6334	16663.7	15942.35
804.6503	307.8418	16369.25	15645.95
804.7933	310.0495	16034.55	15309.45
804.9363	312.2568	15644.75	14919.8
805.0793	314.4635	15254.05	14529.65
805.2223	316.6696	14942.75	14216
805.3653	318.8752	14706.75	13969.4
805.5084	321.0802	14597.4	13867.5
805.6514	323.2847	14581.85	13852.65
805.7945	325.4887	14615.1	13884.5
805.9376	327.692	14638.2	13905.55
806.0807	329.8949	14639.4	13907.5
806.2238	332.0972	14536.5	13803.3
806.367	334.2989	14396.15	13656.7
806.5101	336.5001	14171.45	13433.55
806.6533	338.7007	13977.5	13238.65
806.7965	340.9008	13802.25	13063.65
806.9397	343.1003	13638.5	12894.7
807.0829	345.2992	13487.35	12743.4
807.2261	347.4976	13400.1	12656.25
807.3693	349.6955	13295.9	12545.25
807.5126	351.8927	13252.5	12503.65
807.6559	354.0895	13171.7	12412.4
807.7991	356.2856	13121.75	12368.85
807.9424	358.4812	13051.8	12300.8
808.0857	360.6763	13033.9	12282.65
808.2291	362.8707	13010.4	12257.2
808.3724	365.0646	13032.6	12275.35
808.5158	367.258	13013.4	12254.4
808.6591	369.4508	13046.1	12284.95
808.8025	371.643	13201.9	12440.15
808.9459	373.8346	13231.85	12469.2
809.0893	376.0257	13330.55	12561.25
809.2327	378.2162	13382.65	12614.55
809.3762	380.4062	13353.15	12582.5
809.5196	382.5956	13265.5	12491.5
809.6631	384.7844	13161.9	12392.9
809.8066	386.9726	12986.95	12216.2
809.9501	389.1603	12914.75	12144.95
810.0936	391.3474	12873.35	12070.3
810.2371	393.5339	12808.55	12035.2
810.3806	395.7199	12784.4	12016.8
810.5241	397.9052	12818.1	12052.1
810.6677	400.09	12907.25	12140.35
810.8113	402.2743	13041.3	12277.45
810.9548	404.4579	13178.55	12415.75
811.0984	406.641	13357.95	12593.9
811.2421	408.8235	13499.1	12734.75
811.3857	411.0054	13606.8	12841
811.5293	413.1868	13714.5	12946.6
811.673	415.3675	13748.4	12975.9
811.8166	417.5477	13748.55	12975.4
811.9603	419.7273	13702.1	12925.85
812.104	421.9064	13567.25	12783.75
812.2477	424.0848	13474.85	12696.45
812.3914	426.2627	13344.3	12562.15
812.5351	428.4399	13149.1	12367.25
812.6788	430.6166	12877.1	12090.85
812.8226	432.7928	12539.6	11754.9
812.9663	434.9683	12272.7	11485.6
813.1101	437.1432	12087.4	11296.95
813.2539	439.3176	11915	11126.9
813.3977	441.4914	11794.05	11005.45
813.5415	443.6645	11772.05	10980.55
813.6853	445.8371	11709.7	10919.35
813.8291	448.0091	11646.6	10858.05
813.973	450.1806	11621.15	10830.3
814.1168	452.3514	11593.65	10797.1
814.2607	454.5216	11611.9	10807.65
814.4046	456.6913	11556.5	10760.95
814.5485	458.8603	11629.4	10837.55
814.6924	461.0288	11680.9	10886.65
814.8363	463.1967	11645.35	10851.5
814.9802	465.3639	11646	10847.55
815.1241	467.5306	11595.2	10798.35
815.2681	469.6967	11595.65	10798.6
815.412	471.8622	11577.1	10778.95
815.556	474.0271	11596.3	10798.55
815.7	476.1914	11593.8	10795.1
815.844	478.3551	11586	10786.15
815.988	480.5182	11657.25	10856.45
816.132	482.6807	11690.05	10887.7
816.276	484.8426	11834	11033.25
816.4201	487.0039	12118	11315.1
816.5641	489.1647	12432.05	11630.25
816.7082	491.3248	12723.4	11922
816.8522	493.4843	12799.3	11996.5
816.9963	495.6432	12741.9	11938.45
817.1404	497.8015	12613.2	11805.95
817.2845	499.9592	12491.8	11688.1
817.4286	502.1163	12303.4	11499.85
817.5727	504.2728	11985.7	11177.7
817.7168	506.4287	11771.4	10965.45
817.861	508.5839	11495.7	10690.5
818.0051	510.7386	11326.7	10518.8
818.1493	512.8927	11269.05	10452.85
818.2935	515.0461	11209.9	10400.1
818.4377	517.199	11269.4	10459.65
818.5818	519.3512	11424	10613.8
818.726	521.5029	11670.95	10855.4
818.8703	523.6539	11913.3	11101.55
819.0145	525.8043	12068.9	11257.1
819.1587	527.9541	11980.1	11165.35
819.303	530.1033	11769.05	10955.15
819.4472	532.2519	11587.55	10774.7
819.5915	534.3999	11476.85	10663.2
819.7357	536.5472	11500.25	10684.2
819.88	538.694	11619.9	10803
820.0243	540.8401	11809.25	10996.25
820.1686	542.9856	12003.75	11188.85
820.3129	545.1305	12028.25	11210.55
820.4572	547.2748	11958.65	11142.5
820.6016	549.4185	11824.9	11007.3
820.7459	551.5615	11707.7	10890.45
820.8902	553.704	11710.55	10891.3
821.0346	555.8458	11753.4	10939.15
821.1789	557.987	11876.2	11059.05
821.3233	560.1276	12083.95	11263.7
821.4677	562.2675	12424.1	11607.95
821.6121	564.4069	12868.15	12048.7
821.7565	566.5456	13286.3	12467.95
821.9009	568.6837	13432.1	12611.9
822.0453	570.8212	13116.5	12297.45
822.1897	572.958	12515.3	11694.5
822.3342	575.0942	11925.45	11104.85
822.4786	577.2299	11481.6	10658.65
822.6231	579.3648	11301.85	10480.9
822.7675	581.4992	11191.4	10368.45
822.912	583.6329	11243.7	10420.2
823.0565	585.766	11387.65	10565.6
823.201	587.8985	11517.5	10695.65
823.3454	590.0304	11621.95	10785.6
823.4899	592.1616	11612.3	10786.5
823.6345	594.2922	11537.8	10713.5
823.779	596.4222	11377.8	10551.7
823.9235	598.5515	11167.65	10342.15
824.068	600.6802	10964.8	10137.45
824.2126	602.8083	10811.7	9984.45
824.3571	604.9358	10783.9	9957.2
824.5017	607.0626	10796.25	9968.4
824.6462	609.1888	10878.15	10052.15
824.7908	611.3144	11004.9	10175.75
824.9354	613.4393	11130.8	10300.9
825.08	615.5636	11259.5	10429.25
825.2246	617.6873	11320.25	10489.55
825.3692	619.8103	11296.2	10464.9
825.5138	621.9327	11127.7	10295.75
825.6584	624.0544	10934.7	10106.2
825.803	626.1756	10719.85	9889.35
825.9477	628.2961	10566.3	9734.6
826.0923	630.4159	10457.5	9624.9
826.237	632.5351	10442.85	9611.4
826.3816	634.6537	10405.35	9569.9
826.5263	636.7716	10404.65	9572.85
826.6709	638.8889	10442.2	9608.4
826.8156	641.0056	10444.5	9609.25
826.9603	643.1216	10408.75	9573.4
827.105	645.237	10411.85	9574.15
827.2497	647.3518	10332.65	9495.6
827.3944	649.4659	10233.65	9398.4
827.5391	651.5793	10173.65	9336.9
827.6838	653.6922	10113.5	9280.15
827.8285	655.8043	10105.5	9269.25
827.9733	657.9159	10104.3	9266.6
828.118	660.0268	10062.9	9223.35
828.2627	662.137	10062.95	9225.1
828.4075	664.2466	10067.4	9228.75
828.5522	666.3556	10062.65	9222.15
828.697	668.4639	10003.65	9162.95
828.8418	670.5716	9976.2	9136.9
828.9865	672.6786	9890.15	9048.8
829.1313	674.785	9844.85	9003.2
829.2761	676.8907	9802.05	8959.6
829.4209	678.9958	9816.75	8975.15
829.5657	681.1002	9753.95	8913.45
829.7105	683.204	9740	8897.65
829.8553	685.3072	9743.8	8902.1
830.0001	687.4097	9720.15	8876.55
830.1449	689.5115	9705.4	8860.75
830.2898	691.6127	9679.2	8839.05
830.4346	693.7132	9666.55	8822.8
830.5794	695.8131	9673.5	8823.4
830.7243	697.9123	9686.65	8841.7
830.8691	700.0109	9716.55	8874
831.014	702.1089	9737.6	8896.85
831.1588	704.2061	9782.8	8936.35
831.3037	706.3028	9871.15	9025.2
831.4486	708.3987	9892.3	9048.95
831.5935	710.4941	9938.55	9092
831.7383	712.5887	9946.3	9101.1
831.8832	714.6827	9998.95	9150.25
832.0281	716.7761	10056.05	9210.8
832.173	718.8688	10159.6	9310.95
832.3179	720.9608	10262.5	9410
832.4628	723.0522	10382.4	9531.05
832.6077	725.1429	10469.85	9622.05
832.7527	727.233	10512.75	9666.45
832.8976	729.3224	10627.55	9782.2
833.0425	731.4112	10600.15	9752
833.1874	733.4993	10491.5	9642.15
833.3324	735.5867	10267.8	9414.9
833.4773	737.6735	10018.7	9166.95
833.6222	739.7596	9829.7	8979
833.7672	741.845	9699.1	8848.05
833.9122	743.9298	9602.85	8751.35
834.0571	746.014	9587.65	8737.95
834.2021	748.0974	9561.7	8711.45
834.347	750.1802	9538.8	8687.05
834.492	752.2624	9516.4	8664.05
834.637	754.3439	9559.45	8706.9
834.782	756.4247	9629.3	8770.45
834.9269	758.5048	9717.55	8866.35
835.0719	760.5843	9931.4	9078.35
835.2169	762.6631	10234.55	9381.8
835.3619	764.7413	10695.85	9844.3
835.5069	766.8188	11309.85	10459.2
835.6519	768.8956	11878.1	11022.8
835.7969	770.9718	12240.05	11387.1
835.9419	773.0473	12256.15	11403.4
836.0869	775.1221	12091.3	11239.7
836.232	777.1962	11848.25	10996.2
836.377	779.2697	11823.05	10968.6
836.522	781.3426	11956.8	11092.7
836.667	783.4147	12104.7	11250.05
836.8121	785.4862	12162.55	11310.3
836.9571	787.557	11963	11109.15
837.1021	789.6271	11511.35	10658.1
837.2472	791.6966	10907.55	10051.75
837.3922	793.7654	10374.9	9517.45
837.5373	795.8335	9936.8	9084.2
837.6823	797.901	9628.2	8775.4
837.8274	799.9678	9479.3	8621.85
837.9724	802.0339	9380.9	8527.05
838.1175	804.0993	9330.75	8467.8
838.2626	806.1641	9290.05	8433.25
838.4076	808.2282	9220.7	8364.75
838.5527	810.2916	9150.5	8292.15
838.6978	812.3544	9051.45	8198.25
838.8428	814.4164	9014.15	8162.45
838.9879	816.4778	9014.1	8157.6
839.133	818.5385	9067.95	8212
839.2781	820.5986	9145.65	8289.55
839.4232	822.658	9346	8487.4
839.5682	824.7166	9625.25	8769.1
839.7133	826.7747	10066.65	9210.85
839.8584	828.832	10540.55	9684.2
840.0035	830.8886	10962.65	10105
840.1486	832.9446	11186.1	10325.55
840.2937	834.9999	11092.6	10237.3
840.4388	837.0545	10831.85	9969.7
840.5839	839.1085	10487.95	9629.75
840.729	841.1618	10164.3	9301.5
840.8741	843.2143	9891.45	9033.1
841.0192	845.2662	9675.9	8817.85
841.1643	847.3175	9522.1	8663.5
841.3095	849.368	9416.85	8557.75
841.4546	851.4179	9354.8	8494.65
841.5997	853.467	9288.45	8428.3
841.7448	855.5155	9234.35	8374.75
841.8899	857.5633	9180.75	8320.65
842.0351	859.6105	9074.55	8217.05
842.1802	861.6569	8994.1	8134.75
842.3253	863.7027	8904.65	8043.15
842.4704	865.7478	8880.65	8021.4
842.6156	867.7922	8799.7	7939.3
842.7607	869.8359	8785.05	7922.7
842.9058	871.8789	8777.1	7914.85
843.0509	873.9212	8840.45	7944.5
843.1961	875.9629	8868.35	8008.15
843.3412	878.0039	8953.6	8091.8
843.4863	880.0441	9032.45	8171.2
843.6315	882.0837	9081.75	8219.8
843.7766	884.1226	9136.6	8273.1
843.9218	886.1609	9188.25	8327.9
844.0669	888.1984	9318.1	8456.3
844.212	890.2352	9459.15	8597.25
844.3572	892.2714	9505.15	8638.3
844.5023	894.3069	9456.95	8592.55
844.6475	896.3416	9290.6	8426.15
844.7926	898.3757	9138	8274.5
844.9377	900.4091	9027.05	8162.4
845.0829	902.4418	8992	8124
845.228	904.4739	9013.2	8146.35
845.3732	906.5052	9041.25	8178.2
845.5183	908.5358	9064.6	8201.85
845.6635	910.5658	8934.9	8069.4
845.8086	912.595	8779.25	7914.5
845.9538	914.6236	8592.4	7728.65
846.0989	916.6515	8422.55	7559.35
846.2441	918.6786	8306.15	7440.4
846.3892	920.7051	8293.7	7427.6
846.5344	922.7309	8293.7	7429.15
846.6795	924.756	8287.4	7422.05
846.8246	926.7804	8350	7484.5
846.9698	928.8041	8344.3	7477.05
847.1149	930.8272	8424.1	7557.25
847.2601	932.8495	8405.9	7540.3
847.4052	934.8711	8408.3	7544.3
847.5504	936.892	8340.65	7475.45
847.6955	938.9123	8358.25	7493.9
847.8407	940.9318	8398.75	7534.3
847.9858	942.9506	8436.75	7569.5
848.131	944.9688	8389.85	7523.7
848.2761	946.9862	8311.25	7443.85
848.4213	949.003	8119.75	7251.95
848.5664	951.019	8028.65	7163.8
848.7115	953.0344	7956.55	7089.05
848.8567	955.0491	7925.35	7059.15
849.0018	957.063	7943.75	7076.35
849.147	959.0763	7992.65	7125.75
849.2921	961.0888	8010.65	7139.8
849.4373	963.1007	8063.1	7196
849.5824	965.1119	8050.75	7184.6
849.7275	967.1223	8037.05	7169.95
849.8727	969.1321	8004.9	7137.65
850.0178	971.1412	7977.15	7112.1
850.1629	973.1495	7971.15	7103.35
850.3081	975.1572	7985.35	7085
850.4532	977.1641	7995.85	7129.7
850.5983	979.1704	7950.75	7080.6
850.7435	981.1759	7917.5	7045.55
850.8886	983.1808	7906.15	7036.8
851.0337	985.1849	7910.1	7031.1
851.1788	987.1884	7934.45	7061.9
851.324	989.1911	8007.05	7135.9
851.4691	991.1932	8074.05	7203.25
851.6142	993.1945	8067.15	7199.95
851.7593	995.1951	8068.15	7199.8
851.9045	997.1951	8047.15	7173.45
852.0496	999.1943	8008.35	7139.55
852.1947	1001.1928	7982.75	7112.25
852.3398	1003.1906	8040.1	7171.2
852.4849	1005.1877	8139.35	7267.6
852.63	1007.1841	8231.5	7360.95
852.7751	1009.1798	8284.8	7414.65
852.9202	1011.1748	8212.95	7344
853.0653	1013.1691	8097.05	7226.4
853.2104	1015.1627	7916.95	7045.1
853.3555	1017.1556	7729.2	6859.75
853.5006	1019.1477	7600.3	6730.25
853.6457	1021.1392	7466.1	6597.8
853.7908	1023.1299	7468.6	6597.6
853.9359	1025.12	7456.1	6584.2
854.081	1027.1093	7492.55	6623.65
854.2261	1029.0979	7605.8	6734.1
854.3712	1031.0859	7713	6843.5
854.5163	1033.0731	7737.5	6865.1
854.6613	1035.0596	7700.7	6830.75
854.8064	1037.0454	7596.75	6726.05
854.9515	1039.0304	7494	6621.3
855.0965	1041.0148	7397.5	6527.6
855.2416	1042.9985	7287.55	6416.25
855.3867	1044.9814	7263.85	6393
855.5317	1046.9636	7219.5	6346.6
855.6768	1048.9452	7207.55	6337.55
855.8219	1050.926	7240.1	6369.65
855.9669	1052.9061	7257.35	6387.8
856.112	1054.8855	7271.2	6400.1
856.257	1056.8642	7315.35	6444.2
856.4021	1058.8421	7326.85	6449.2
856.5471	1060.8194	7344.5	6471.65
856.6921	1062.7959	7387.6	6514.95
856.8372	1064.7717	7428.55	6556.95
856.9822	1066.7469	7457.2	6584.35
857.1272	1068.7213	7517.55	6641.6
857.2723	1070.695	7606	6735.15
857.4173	1072.6679	7648.7	6776.1
857.5623	1074.6402	7714.5	6840.35
857.7073	1076.6117	7699.35	6822.8
857.8523	1078.5826	7613.75	6739.65
857.9973	1080.5527	7457.2	6582.1
858.1423	1082.5221	7309.6	6436.5
858.2873	1084.4908	7242.15	6369.7
858.4323	1086.4587	7201.9	6327.85
858.5773	1088.426	7223.2	6348.8
858.7223	1090.3925	7237.55	6357.85
858.8673	1092.3584	7262.05	6390.4
859.0123	1094.3235	7272.65	6399.3
859.1573	1096.2879	7349.1	6476.95
859.3022	1098.2515	7468.5	6595.5
859.4472	1100.2145	7610.65	6737.9
859.5922	1102.1767	7785.2	6909.1
859.7371	1104.1382	7972.45	7099.15
859.8821	1106.099	8195.85	7321.3
860.027	1108.0591	8403.95	7530
860.172	1110.0185	8583.25	7708
860.3169	1111.9771	8651.25	7777.7
860.4619	1113.9351	8626.55	7753.5
860.6068	1115.8923	8576.25	7703.55
860.7517	1117.8488	8464.85	7589.5
860.8967	1119.8045	8286.65	7412.1
861.0416	1121.7596	8137.6	7263.4
861.1865	1123.7139	7968.05	7095.5
861.3314	1125.6675	7881.85	7008.2
861.4763	1127.6204	7882.6	7009.3
861.6212	1129.5726	7877.45	7001.95
861.7661	1131.524	7810.5	6937.1
861.911	1133.4748	7674.8	6801.85
862.0559	1135.4248	7482.15	6604.95
862.2008	1137.3741	7312.5	6437.45
862.3457	1139.3226	7220.5	6345.15
862.4905	1141.2705	7153.95	6280.6
862.6354	1143.2176	7108.4	6228.6
862.7803	1145.164	7087.55	6209.1
862.9251	1147.1097	7025.8	6152.2
863.07	1149.0546	6924.35	6049.6
863.2148	1150.9989	6793.15	5919.4
863.3597	1152.9424	6707.1	5831.4
863.5045	1154.8852	6600.2	5723.65
863.6493	1156.8272	6545.75	5670.35
863.7942	1158.7686	6579	5696.85
863.939	1160.7092	6559.05	5683.9
864.0838	1162.6491	6603.3	5727
864.2286	1164.5883	6692.25	5815.65
864.3734	1166.5267	6764.3	5889.05
864.5182	1168.4644	6892.35	6015.15
864.663	1170.4014	7060.6	6178.8
864.8078	1172.3377	7259.75	6386.85
864.9526	1174.2732	7511.55	6636.7
865.0974	1176.2081	7879.75	7006.95
865.2421	1178.1421	8363.25	7481.2
865.3869	1180.0755	8849.15	7975.35
865.5317	1182.0082	9257.8	8383.15
865.6764	1183.9401	9434.8	8557.5
865.8212	1185.8713	9297.05	8420.8
865.9659	1187.8017	8966.8	8089.4
866.1106	1189.7315	8556.5	7681.3
866.2554	1191.6605	8160.2	7256.35
866.4001	1193.5888	7830.75	6953.8
866.5448	1195.5163	7647.65	6771.55
866.6895	1197.4432	7519.75	6640.05
866.8342	1199.3693	7464.8	6588.3
866.9789	1201.2947	7409.7	6525.05
867.1236	1203.2193	7358.2	6480.25
867.2683	1205.1432	7348.75	6471.75
867.413	1207.0664	7343.4	6467.45
867.5576	1208.9889	7306.4	6425.7
867.7023	1210.9106	7300.9	6425.75
867.847	1212.8316	7318.05	6441.65
867.9916	1214.7519	7372.85	6485.45
868.1363	1216.6715	7382.5	6508
868.2809	1218.5903	7497.7	6624
868.4255	1220.5084	7557	6680.5
868.5701	1222.4257	7640.65	6764.7
868.7148	1224.3424	7685.5	6810.95
868.8594	1226.2583	7819.55	6934.45
869.004	1228.1735	7961.9	7082.7
869.1486	1230.0879	8118.65	7240.4
869.2932	1232.0016	8337.85	7460.55
869.4377	1233.9146	8484.7	7607.45
869.5823	1235.8269	8532	7656.15
869.7269	1237.7384	8511.4	7636.15
869.8715	1239.6492	8402.75	7525.8
870.016	1241.5592	8382.15	7503
870.1606	1243.4686	8436.45	7557.05
870.3051	1245.3772	8615.8	7739.65
870.4496	1247.285	8843.35	7965.05
870.5941	1249.1922	9080.05	8203.7
870.7387	1251.0986	9284.2	8405.65
870.8832	1253.0042	9431.25	8553.1
871.0277	1254.9092	9618.3	8741.85
871.1722	1256.8134	9743.65	8865.4
871.3167	1258.7169	9885.4	9005.65
871.4611	1260.6196	10002.05	9125.2
871.6056	1262.5216	10191.15	9310.55
871.7501	1264.4229	10327.55	9453.85
871.8945	1266.3234	10507.55	9629.05
872.039	1268.2232	10612.45	9733.95
872.1834	1270.1223	10663.85	9783.2
872.3278	1272.0207	10700.25	9820.8
872.4723	1273.9183	10673.9	9788.75
872.6167	1275.8151	10596.65	9718.2
872.7611	1277.7113	10545.55	9666.25
872.9055	1279.6067	10648.85	9771.4
873.0499	1281.5014	10895.9	10015.3
873.1943	1283.3953	11389.5	10510.9
873.3386	1285.2885	11988.9	11110.2
873.483	1287.181	12620.3	11741.75
873.6274	1289.0727	13257.5	12379.65
873.7717	1290.9637	13704.35	12823.95
873.9161	1292.854	13994.95	13116.9
874.0604	1294.7435	13990.9	13111.55
874.2047	1296.6323	13844	12963.2
874.349	1298.5204	13606.8	12723.3
874.4933	1300.4077	13254.6	12373.45
874.6376	1302.2943	12896.3	12017.2
874.7819	1304.1802	12475.35	11598.45
874.9262	1306.0653	11993.6	11112.95
875.0705	1307.9497	11471.8	10592.5
875.2147	1309.8333	11019.7	10141.2
875.359	1311.7162	10661.75	9783.95
875.5032	1313.5984	10446.35	9565.35
875.6475	1315.4798	10323.85	9432
875.7917	1317.3605	10221.6	9339.15
875.9359	1319.2405	10158.4	9276.3
876.0801	1321.1197	9974.7	9093.75
876.2243	1322.9982	9682.35	8798.7
876.3685	1324.876	9385.65	8507.3
876.5127	1326.753	9027.35	8148.25
876.6569	1328.6293	8748.4	7865.8
876.801	1330.5048	8552.8	7670.65
876.9452	1332.3796	8299.6	7419.75
877.0893	1334.2537	8150	7242.75
877.2335	1336.127	8006.35	7128.95
877.3776	1337.9996	7927.9	7047.6
877.5217	1339.8714	7882.35	7003.25
877.6658	1341.7426	7895.2	6970.35
877.8099	1343.6129	7916.25	7036.5
877.954	1345.4826	7860.8	6981.8
878.0981	1347.3515	7844.65	6962.45
878.2422	1349.2196	7806.6	6927.45
878.3862	1351.087	7832.3	6952.9
878.5303	1352.9537	7871.15	6989.7
878.6743	1354.8197	7951.8	7071.75
878.8184	1356.6849	8079.4	7199.3
878.9624	1358.5493	8228.75	7348.9
879.1064	1360.4131	8400.55	7521.4
879.2504	1362.276	8569.3	7689.3
879.3944	1364.1383	8662.6	7783
879.5384	1365.9998	8604.7	7719.6
879.6823	1367.8606	8382.15	7501.25
879.8263	1369.7206	8101.8	7221.2
879.9702	1371.5799	7859.15	6978.45
880.1142	1373.4384	7634.4	6752.8
880.2581	1375.2962	7416.05	6534.8
880.402	1377.1533	7146.1	6265.35
880.5459	1379.0096	6850.9	5968.35
880.6898	1380.8652	6542.6	5662.7
880.8337	1382.7201	6302.9	5424.25
880.9776	1384.5742	6086.1	5206.5
881.1215	1386.4275	5899.75	5017.15
881.2653	1388.2802	5792.75	4914.3
881.4092	1390.132	5701.3	4820.15
881.553	1391.9832	5641.5	4761.45
881.6968	1393.8336	5576.4	4694.45
881.8406	1395.6832	5537.35	4654.45
881.9844	1397.5322	5501.25	4619.3
882.1282	1399.3803	5481.3	4596
882.272	1401.2278	5442.3	4564.2
882.4158	1403.0745	5439.5	4558.9
882.5595	1404.9204	5393.2	4513.9
882.7033	1406.7656	5400.1	4520.05
882.847	1408.6101	5405.3	4523.65
882.9908	1410.4538	5403.65	4524.2
883.1345	1412.2968	5445.55	4562.3
883.2782	1414.139	5475.75	4595.5
883.4219	1415.9805	5554.5	4675.15
883.5656	1417.8213	5618.9	4730.95
883.7092	1419.6613	5702.95	4823.25
883.8529	1421.5006	5831.15	4950.85
883.9965	1423.3391	6015.05	5132.85
884.1402	1425.1769	6251.35	5368.8
884.2838	1427.0139	6612.9	5731.45
884.4274	1428.8502	7060.8	6177.85
884.571	1430.6858	7504.6	6623.15
884.7146	1432.5206	7825.85	6946.05
884.8582	1434.3547	8020.05	7138
885.0018	1436.188	8056.4	7176.05
885.1453	1438.0206	8012.75	7131.6
885.2889	1439.8524	7897.2	7015.9
885.4324	1441.6835	7768.05	6886.05
885.5759	1443.5139	7672.4	6788
885.7194	1445.3435	7623.45	6743.85
885.8629	1447.1724	7616.05	6734.55
886.0064	1449.0005	7560.8	6680
886.1499	1450.8279	7525.6	6643.75
886.2933	1452.6545	7516.5	6636.7
886.4368	1454.4804	7539.9	6659.85
886.5802	1456.3056	7556.15	6669.5
886.7237	1458.13	7487.55	6608.1
886.8671	1459.9536	7385.2	6504.45
887.0105	1461.7766	7168.7	6289.85
887.1539	1463.5987	6928.5	6045.55
887.2972	1465.4202	6630.35	5749.05
887.4406	1467.2409	6370.5	5489.75
887.584	1469.0608	6109.6	5228.75
887.7273	1470.88	5913.35	5030.65
887.8706	1472.6984	5680.75	4801.3
888.0139	1474.5161	5505.5	4620.85
888.1572	1476.3331	5373.2	4492.3
888.3005	1478.1493	5303.1	4423
888.4438	1479.9648	5216.7	4336.35
888.5871	1481.7795	5157.15	4276.9
888.7303	1483.5935	5127.05	4246.35
888.8736	1485.4067	5088.3	4206.55
889.0168	1487.2192	5049.55	4168.1
889.16	1489.031	5052	4169.1
889.3032	1490.842	5001.75	4121.6
889.4464	1492.6522	4977.3	4097.7
889.5896	1494.4618	4965.45	4081.75
889.7327	1496.2705	4933.4	4052.8
889.8759	1498.0785	4888.8	4006.45
890.019	1499.8858	4859.5	3977.8
890.1622	1501.6924	4821.6	3942.5
890.3053	1503.4981	4798.5	3917.7
890.4484	1505.3032	4770.7	3890.05
890.5914	1507.1075	4729.35	3848.25
890.7345	1508.911	4682.2	3801.35
890.8776	1510.7138	4661.85	3780.45
891.0206	1512.5159	4622.7	3739.8
891.1637	1514.3172	4600.35	3719.9
891.3067	1516.1178	4557.45	3678.05
891.4497	1517.9176	4538.4	3655.55
891.5927	1519.7166	4494.75	3613.7
891.7357	1521.515	4466.75	3578.7
891.8786	1523.3126	4455.1	3575.45
892.0216	1525.1094	4434.2	3550
892.1645	1526.9055	4420.4	3538.9
892.3074	1528.7008	4389.35	3508.45
892.4503	1530.4954	4368.65	3479.3
892.5932	1532.2893	4355.05	3475.45
892.7361	1534.0824	4358.35	3471.7
892.879	1535.8747	4357.75	3476.25
893.0218	1537.6663	4337.05	3453.25
893.1647	1539.4572	4340.15	3456.55
893.3075	1541.2473	4343.15	3464.25
893.4503	1543.0367	4341.6	3461.25
893.5931	1544.8253	4352.3	3466
893.7359	1546.6132	4362.35	3477.35
893.8787	1548.4003	4380.2	3488.4
894.0214	1550.1867	4434.6	3545.05
894.1642	1551.9723	4459.55	3573.55
894.3069	1553.7572	4539.05	3657.8
894.4496	1555.5414	4623.9	3741.6
894.5923	1557.3247	4760.45	3878.85
894.735	1559.1074	4893.75	4012.95
894.8777	1560.8893	5070.25	4190.95
895.0204	1562.6705	5228.85	4345.9
895.163	1564.4509	5360.65	4479.9
895.3056	1566.2305	5448.8	4567.4
895.4482	1568.0094	5511.65	4633.4
895.5908	1569.7876	5511.6	4629.25
895.7334	1571.565	5510.1	4627.75
895.876	1573.3417	5521.1	4639.7
896.0186	1575.1176	5542.35	4661.6
896.1611	1576.8928	5577.3	4694.8
896.3036	1578.6672	5573.35	4693.25
896.4461	1580.4409	5629.95	4748.35
896.5886	1582.2138	5677.95	4793.65
896.7311	1583.986	5755.55	4872.2
896.8736	1585.7575	5873.85	4991.65
897.0161	1587.5282	5980.6	5100.4
897.1585	1589.2981	6074.85	5193.3
897.3009	1591.0673	6178.85	5297.65
897.4433	1592.8358	6274.3	5394.45
897.5857	1594.6035	6350.8	5466.45
897.7281	1596.3704	6371.3	5490.45
897.8705	1598.1366	6432.75	5550.9
898.0128	1599.9021	6495.95	5613.6
898.1551	1601.6668	6538.25	5655.3
898.2975	1603.4308	6575.65	5693.15
898.4398	1605.194	6687.6	5800.65
898.5821	1606.9564	6825.65	5943.05
898.7243	1608.7182	7026.95	6140.45
898.8666	1610.4791	7285.95	6403.85
899.0088	1612.2394	7617.2	6736.1
899.1511	1613.9988	7924.85	7044.05
899.2933	1615.7576	8236.8	7355.2
899.4355	1617.5156	8484.75	7598
899.5776	1619.2728	8584.55	7704.75
899.7198	1621.0293	8521.3	7640.85
899.862	1622.785	8347.35	7459.15
900.0041	1624.54	8023.35	7138.25
900.1462	1626.2942	7658.7	6774.55
900.2883	1628.0477	7228.95	6345
900.4304	1629.8005	6836	5950.3
900.5725	1631.5525	6493.8	5610.3
900.7145	1633.3037	6185.75	5304.25
900.8566	1635.0542	5965.65	5084.1
900.9986	1636.804	5749.1	4864.85
901.1406	1638.553	5665.7	4720.8
901.2826	1640.3013	5500.45	4618.65
901.4245	1642.0488	5438.3	4559.75
901.5665	1643.7955	5391.15	4511.6
901.7085	1645.5416	5396.35	4513.75
901.8504	1647.2868	5470.65	4589.65
901.9923	1649.0313	5509.45	4626.7
902.1342	1650.7751	5586.45	4702.15
902.2761	1652.5181	5648.1	4766.05
902.4179	1654.2604	5752.45	4870.55
902.5598	1656.0019	5916.2	5034.95
902.7016	1657.7427	6078.35	5197.8
902.8434	1659.4828	6294.65	5412.7
902.9852	1661.222	6455.25	5572.6
903.127	1662.9606	6521.45	5639.85
903.2687	1664.6984	6412.3	5532.7
903.4105	1666.4354	6165.15	5282.4
903.5522	1668.1717	5777.6	4895.75
903.6939	1669.9072	5337.6	4457.25
903.8356	1671.642	4974	4089.6
903.9773	1673.3761	4630	3750.2
904.119	1675.1094	4369.2	3485.75
904.2606	1676.8419	4172.4	3291.5
904.4022	1678.5737	4020.9	3138.65
904.5439	1680.3048	3896.1	3016.35
904.6855	1682.0351	3795	2916
904.827	1683.7646	3727.25	2842.35
904.9686	1685.4934	3664.95	2784.65
905.1101	1687.2215	3605.65	2724.75
905.2517	1688.9488	3550.3	2668.45
905.3932	1690.6754	3508.4	2627
905.5347	1692.4012	3465.75	2584.15
905.6761	1694.1263	3429.35	2546.55
905.8176	1695.8506	3422.1	2539.05
905.9591	1697.5742	3383.05	2501.85
906.1005	1699.297	3355.35	2473.9
906.2419	1701.0191	3321.55	2439.55
906.3833	1702.7404	3302.6	2421.45
906.5246	1704.461	3271.5	2388.85
906.666	1706.1808	3258.3	2374.15
906.8073	1707.8999	3237.95	2354.7
906.9487	1709.6182	3210.1	2328.4
907.09	1711.3358	3192.2	2310.5
907.2313	1713.0527	3184.95	2304
907.3725	1714.7688	3177.55	2291.45
907.5138	1716.4841	3142.05	2258.4
907.655	1718.1987	3142.15	2254.65
907.7962	1719.9126	3109.35	2226.65
907.9374	1721.6257	3107.9	2222
908.0786	1723.338	3107.65	2223.3
908.2198	1725.0496	3093.2	2208.5
908.3609	1726.7605	3088.6	2207.2
908.502	1728.4706	3072.45	2187.5
908.6431	1730.18	3060.45	2175.95
908.7842	1731.8886	3063.95	2181.1
908.9253	1733.5964	3039.7	2151.95
909.0664	1735.3036	3039.75	2156.35
909.2074	1737.0099	3023.3	2140.9
909.3484	1738.7156	3016.3	2135
909.4894	1740.4204	2999.05	2113.45
909.6304	1742.1246	2993.6	2111.15
909.7714	1743.8279	2973.95	2092.5
909.9123	1745.5306	2974.65	2092.9
910.0532	1747.2325	2943.25	2061.75
910.1941	1748.9336	2948.8	2068.55
910.335	1750.634	2920.85	2035.4
910.4759	1752.3336	2915.45	2031.6
910.6168	1754.0325	2899.55	2016.8
910.7576	1755.7307	2920.1	2040.05
910.8984	1757.4281	2915.65	2031.7
911.0392	1759.1247	2900.55	2011.15
911.18	1760.8206	2907.15	2022.35
911.3208	1762.5158	2891.7	2007.5
911.4615	1764.2102	2868.75	1988.05
911.6022	1765.9039	2869.4	1985.55
911.7429	1767.5968	2871	1989.1
911.8836	1769.289	2856.65	1972.55
912.0243	1770.9804	2847.5	1965.45
912.1649	1772.6711	2847.85	1967.35
912.3056	1774.361	2839	1955.2
912.4462	1776.0502	2838.85	1955.3
912.5868	1777.7386	2830.85	1943.55
912.7274	1779.4263	2825.2	1941.45
912.8679	1781.1132	2832.75	1950.95
913.0084	1782.7994	2825.65	1940.35
913.149	1784.4849	2809.6	1929
913.2895	1786.1696	2818.6	1919.15
913.4299	1787.8535	2796.05	1914.15
913.5704	1789.5367	2797.35	1915.5
913.7108	1791.2192	2786.35	1904.65
913.8513	1792.9009	2786.1	1890
913.9917	1794.5818	2785.95	1902.7
914.132	1796.2621	2773.05	1892.7
914.2724	1797.9415	2757.75	1875.4
914.4128	1799.6202	2755.2	1872.65
914.5531	1801.2982	2749.25	1869.4
914.6934	1802.9755	2751.55	1869.15
914.8337	1804.6519	2745	1863.75
914.9739	1806.3277	2736.8	1854.45
915.1142	1808.0027	2731.6	1849.85
915.2544	1809.6769	2731.05	1847.7
915.3946	1811.3504	2732.3	1848.45
915.5348	1813.0231	2716.9	1832.85
915.675	1814.6951	2720.1	1837.5
915.8151	1816.3664	2711.6	1827.05
915.9553	1818.0369	2704.75	1823.1
916.0954	1819.7067	2711.6	1829.15
916.2355	1821.3757	2703.4	1820.05
916.3755	1823.044	2687.85	1805.55
916.5156	1824.7115	2691.35	1809.2
916.6556	1826.3783	2682.5	1802.35
916.7956	1828.0443	2673.95	1793.2
916.9356	1829.7096	2672.7	1789.1
917.0756	1831.3741	2670.5	1784.75
917.2155	1833.0379	2656.75	1774.3
917.3555	1834.701	2663.55	1779.75
917.4954	1836.3633	2664.45	1782.45
917.6353	1838.0248	2659	1775.85
917.7751	1839.6856	2658.05	1774.85
917.915	1841.3457	2638.1	1755.45
918.0548	1843.005	2642.75	1761.65
918.1946	1844.6636	2631.9	1750.2
918.3344	1846.3214	2634.8	1752
918.4742	1847.9785	2637.05	1755.1
918.6139	1849.6349	2636.05	1752.1
918.7537	1851.2904	2631.3	1740.2
918.8934	1852.9453	2620.45	1738.45
919.0331	1854.5994	2625.15	1740.55
919.1727	1856.2528	2613.1	1726.35
919.3124	1857.9054	2600.85	1719.9
919.452	1859.5572	2606.35	1724.7
919.5916	1861.2083	2599.4	1716.55
919.7312	1862.8587	2609	1726.35
919.8708	1864.5084	2597.1	1716.65
920.0103	1866.1572	2583.9	1703.5
920.1498	1867.8054	2582.35	1700.45
920.2893	1869.4528	2584.55	1703.4
920.4288	1871.0994	2575.85	1693.65
920.5683	1872.7453	2575.4	1691.95
920.7077	1874.3905	2585.25	1684.45
920.8471	1876.0349	2554.15	1670.25
920.9865	1877.6786	2564.3	1681.1
921.1259	1879.3215	2558.75	1677.3
921.2653	1880.9637	2565	1682.15
921.4046	1882.6051	2550.45	1669.75
921.5439	1884.2458	2541.55	1656.95
921.6832	1885.8858	2539.3	1657.95
921.8225	1887.525	2543.25	1661
921.9617	1889.1634	2522.65	1640.25
922.101	1890.8011	2525.4	1643.8
922.2402	1892.4381	2511.4	1629.9
922.3794	1894.0743	2517.45	1636.75
922.5185	1895.7098	2519.5	1639.05
922.6577	1897.3446	2504.1	1618.2
922.7968	1898.9786	2510.7	1626.25
922.9359	1900.6118	2502.4	1619.6
923.075	1902.2443	2491.6	1609.2
923.214	1903.8761	2496.15	1612.75
923.3531	1905.5071	2471.25	1587.75
923.4921	1907.1374	2470.3	1587.6
923.6311	1908.7669	2464.1	1582.65
923.77	1910.3957	2465	1582
923.909	1912.0237	2454.5	1572.05
924.0479	1913.651	2457.2	1575.65
924.1868	1915.2776	2453.55	1573.25
924.3257	1916.9034	2440.1	1558.9
924.4646	1918.5285	2439.1	1557.2
924.6034	1920.1528	2431.15	1548.8
924.7422	1921.7764	2429.4	1546.45
924.881	1923.3992	2426.15	1544.75
925.0198	1925.0213	2421.35	1538.6
925.1586	1926.6427	2415.8	1533.85
925.2973	1928.2633	2507.55	1517.3
925.436	1929.8832	2413.65	1528.8
925.5747	1931.5023	2411.35	1529.4
925.7134	1933.1207	2396.9	1515.65
925.852	1934.7383	2399.95	1516.1
925.9906	1936.3552	2392.25	1510.65
926.1292	1937.9714	2384.9	1502.2
926.2678	1939.5868	2376.85	1492.8
926.4064	1941.2015	2368.2	1484.05
926.5449	1942.8154	2372.15	1489.4
926.6834	1944.4286	2365.9	1482.7
926.8219	1946.041	2376.4	1470.2
926.9604	1947.6528	2350.7	1464.8
927.0988	1949.2637	2347.35	1468.15
927.2372	1950.8739	2335.65	1451.65
927.3756	1952.4834	2326.35	1443.85
927.514	1954.0921	2334.95	1449.7
927.6523	1955.7001	2340.3	1454.75
927.7907	1957.3074	2329.2	1446.9
927.929	1958.9139	2314	1431.55
928.0673	1960.5197	2318.75	1434.55
928.2055	1962.1247	2310.65	1430.05
928.3438	1963.729	2300.8	1418.8
928.482	1965.3325	2324.65	1419.35
928.6202	1966.9353	2293.85	1412.5
928.7584	1968.5374	2296.95	1413.35
928.8965	1970.1387	2288.6	1407.65
929.0346	1971.7393	2281.15	1399.1
929.1727	1973.3392	2275.6	1392.7
929.3108	1974.9383	2271	1389.65
929.4489	1976.5366	2268.2	1387.05
929.5869	1978.1342	2259.15	1375.9
929.7249	1979.7311	2259.6	1376.55
929.8629	1981.3273	2260.15	1376.4
930.0009	1982.9227	2258.45	1372.6
930.1388	1984.5173	2257.35	1375.2
930.2767	1986.1112	2253.35	1371.9
930.4146	1987.7044	2248.75	1368
930.5525	1989.2968	2241.35	1357.2
930.6904	1990.8885	2237.35	1351.85
930.8282	1992.4795	2239.6	1356.2
930.966	1994.0697	2237.05	1354
931.1038	1995.6592	2223.85	1341.15
931.2415	1997.2479	2217.35	1333.55
931.3793	1998.8359	2225.35	1341.45
931.517	2000.4232	2209.25	1326.35
931.6547	2002.0097	2223.35	1340.85
931.7923	2003.5955	2210.45	1327.15
931.93	2005.1805	2198.2	1314.95
932.0676	2006.7648	2207.9	1324.8
932.2052	2008.3484	2202.05	1319.35
932.3427	2009.9312	2198.4	1313.45
932.4803	2011.5133	2195.6	1312.9
932.6178	2013.0946	2184.9	1301.7
932.7553	2014.6752	2177.8	1296.2
932.8928	2016.2551	2175.6	1293
933.0302	2017.8342	2176.95	1293.15
933.1676	2019.4126	2175.6	1292.4
933.305	2020.9902	2177.95	1296.1
933.4424	2022.5672	2176.65	1292.95
933.5798	2024.1433	2175.25	1286.55
933.7171	2025.7188	2154.7	1272.85
933.8544	2027.2935	2157.95	1274.3
933.9917	2028.8674	2154.1	1271.9
934.129	2030.4406	2151.8	1268.9
934.2662	2032.0131	2142.75	1260.35
934.4034	2033.5849	2143.4	1255.5
934.5406	2035.1559	2135.75	1253.4
934.6778	2036.7261	2141.6	1259
934.8149	2038.2957	2143.05	1261.5
934.952	2039.8645	2131.75	1249.7
935.0891	2041.4325	2132.15	1245.7
935.2262	2042.9998	2130.45	1250.45
935.3632	2044.5664	2137.6	1252.45
935.5002	2046.1323	2130.05	1247.9
935.6372	2047.6974	2119.2	1237.05
935.7742	2049.2617	2117.15	1234.1
935.9111	2050.8254	2140.65	1235.85
936.048	2052.3883	2116.7	1232.45
936.1849	2053.9504	2106.15	1223.7
936.3218	2055.5118	2105.85	1222
936.4586	2057.0725	2109.1	1222.35
936.5955	2058.6325	2099.6	1214.6
936.7323	2060.1917	2085.1	1202.2
936.869	2061.7502	2108.15	1223.7
937.0058	2063.3079	2090.55	1208.45
937.1425	2064.8649	2096.85	1211.2
937.2792	2066.4212	2090.75	1206.85
937.4159	2067.9767	2089.75	1207.05
937.5525	2069.5315	2077.9	1194.7
937.6891	2071.0856	2077.05	1192.6
937.8257	2072.6389	2080.9	1196.85
937.9623	2074.1915	2068.25	1187.15
938.0989	2075.7433	2061.55	1179.3
938.2354	2077.2945	2055.75	1174.7
938.3719	2078.8448	2057.6	1173.3
938.5084	2080.3945	2044.15	1163.45
938.6448	2081.9434	2048.6	1166
938.7812	2083.4916	2047.3	1165.2
938.9176	2085.039	2036.85	1153.2
939.054	2086.5857	2037.9	1155.45
939.1903	2088.1317	2040.9	1158.65
939.3267	2089.677	2045.85	1161.15
939.463	2091.2215	2034.9	1153.55
939.5992	2092.7652	2033.25	1148.75
939.7355	2094.3083	2031.25	1149.35
939.8717	2095.8506	2029.25	1148.35
940.0079	2097.3921	2024.35	1141.95
940.1441	2098.933	2023.4	1143.95
940.2802	2100.4731	2016.45	1134.95
940.4163	2102.0124	2030.45	1128.9
940.5524	2103.5511	2017.4	1133.6
940.6885	2105.089	2011.35	1129.05
940.8245	2106.6261	2010.9	1127.85
940.9606	2108.1626	2013.1	1127.7
941.0965	2109.6983	2034.05	1125.3
941.2325	2111.2332	2007.9	1125.5
941.3684	2112.7675	2000.6	1117.9
941.5044	2114.301	2002.65	1119.8
941.6403	2115.8337	2002.95	1119.25
941.7761	2117.3657	1997.2	1114.45
941.912	2118.897	1991.8	1108.75
942.0478	2120.4276	2000.9	1110.75
942.1835	2121.9575	1983.1	1100.3
942.3193	2123.4866	2000.8	1104.5
942.455	2125.0149	1983.25	1098.7
942.5907	2126.5426	1973	1090.75
942.7264	2128.0695	1985.75	1098.1
942.8621	2129.5956	1962.2	1081.4
942.9977	2131.1211	1972.4	1087.1
943.1333	2132.6458	1972.15	1089.7
943.2689	2134.1698	1974.05	1092.25
943.4044	2135.693	1967.9	1080.45
943.54	2137.2155	1969.8	1085.1
943.6755	2138.7373	1956.7	1074.25
943.8109	2140.2584	1967.25	1084.6
943.9464	2141.7787	1956.1	1069.25
944.0818	2143.2983	1950.1	1067.85
944.2172	2144.8171	1955.55	1074.55
944.3526	2146.3353	1944.05	1060.2
944.4879	2147.8527	1937.45	1055.4
944.6232	2149.3693	1938.3	1053.85
944.7585	2150.8853	1931.45	1049.85
944.8938	2152.4005	1935.15	1051.45
945.029	2153.9149	1931.4	1049.3
945.1642	2155.4287	1930.15	1047.7
945.2994	2156.9417	1930.55	1047.9
945.4346	2158.454	1928.1	1041.55
945.5697	2159.9655	1918.8	1036.75
945.7048	2161.4764	1914.75	1032.95
945.8399	2162.9865	1911.75	1028.4
945.9749	2164.4958	1916.8	1032.9
946.1099	2166.0045	1912.9	1026.45
946.2449	2167.5124	1907.35	1024.7
946.3799	2169.0195	1913.05	1029.65
946.5148	2170.526	1902.1	1018.55
946.6498	2172.0317	1898.65	1014.25
946.7846	2173.5367	1902.95	1018.9
946.9195	2175.0409	1889.9	1006.8
947.0543	2176.5445	1902.9	1021.7
947.1891	2178.0473	1881.7	999.35
947.3239	2179.5494	1895.4	1009.25
947.4587	2181.0507	1889.45	1007.4
947.5934	2182.5513	1880.7	997.2
947.7281	2184.0512	1880.1	996.85
947.8628	2185.5504	1882.3	999.95
947.9974	2187.0488	1884.8	1001.8
948.132	2188.5465	1874.7	990
948.2666	2190.0435	1872.9	989.1
948.4012	2191.5397	1867.95	986.65
948.5357	2193.0353	1857.9	976.1
948.6702	2194.5301	1858.55	973.2
948.8047	2196.0241	1854.9	972.65
948.9392	2197.5175	1864.15	979.75
949.0736	2199.0101	1855.15	971.05
949.208	2200.502	1847.65	965.3
949.3424	2201.9931	1847.95	965.75
949.4767	2203.4835	1840.45	955.2
949.611	2204.9733	1849.6	961.2
949.7453	2206.4622	1857.05	976.05
949.8796	2207.9505	1842.05	954.8
950.0138	2209.438	1833.2	951.5
950.148	2210.9248	1838.45	954.75
950.2822	2212.4109	1835.65	954.05
950.4164	2213.8962	1823.2	937.05
950.5505	2215.3809	1828.45	946.45
950.6846	2216.8648	1819.75	937.8
950.8186	2218.3479	1820.35	934.7
950.9527	2219.8304	1815.1	929.2
951.0867	2221.3121	1816	933.3
951.2207	2222.7931	1799.4	917.6
951.3546	2224.2733	1801.5	919.75
951.4886	2225.7529	1808.45	925.1
951.6225	2227.2317	1803.1	916.8
951.7563	2228.7098	1805.3	924.7
951.8902	2230.1872	1793.55	912
952.024	2231.6638	1794.8	912.75
952.1578	2233.1397	1796.95	909.25
952.2916	2234.6149	1783.15	898.6
952.4253	2236.0894	1783.5	901.45
952.559	2237.5632	1785.45	893.35
952.6927	2239.0362	1780.3	897.15
952.8263	2240.5085	1768.2	885.3
952.9599	2241.9801	1767.25	884.85
953.0935	2243.4509	1769	888.45
953.2271	2244.921	1772.6	892.4
953.3606	2246.3904	1767.05	883.7
953.4941	2247.8591	1759.15	876.3
953.6276	2249.3271	1766.6	885.6
953.7611	2250.7943	1753	868.65
953.8945	2252.2608	1745.85	864.95
954.0279	2253.7266	1749.85	867.55
954.1612	2255.1917	1748.35	866.4
954.2946	2256.656	1744.45	861.8
954.4279	2258.1197	1740.9	860.15
954.5612	2259.5826	1746.35	861.3
954.6944	2261.0447	1733.45	849.3
954.8276	2262.5062	1741.6	858.4
954.9608	2263.9669	1735.2	850.3
955.094	2265.4269	1738.7	856.25
955.2271	2266.8862	1732.95	848.5
955.3602	2268.3448	1729.05	845.9
955.4933	2269.8026	1726.05	842.4
955.6264	2271.2598	1722.65	839.5
955.7594	2272.7162	1733.45	854
955.8924	2274.1719	1718.45	836.35
956.0253	2275.6268	1719.35	838.3
956.1583	2277.0811	1729.1	846.35
956.2912	2278.5346	1706.3	823.7
956.4241	2279.9874	1709.35	827.6
956.5569	2281.4395	1713.1	831.7
956.6897	2282.8908	1715.95	826.85
956.8225	2284.3414	1699.9	816.3
956.9553	2285.7914	1698.45	815.8
957.088	2287.2406	1712.5	828.05
957.2207	2288.689	1706.8	826.15
957.3534	2290.1368	1698	815.35
957.486	2291.5838	1696.25	811.95
957.6186	2293.0302	1697.5	813.1
957.7512	2294.4758	1697.8	815.85
957.8838	2295.9206	1691.25	805.25
958.0163	2297.3648	1684.75	802.1
958.1488	2298.8082	1693.2	809.35
958.2813	2300.251	1685	802.5
958.4137	2301.693	1675.35	791.9
958.5461	2303.1343	1682.45	797.75
958.6785	2304.5748	1682.65	799.1
958.8108	2306.0147	1680.25	797.15
958.9432	2307.4538	1679.9	793.6
959.0754	2308.8922	1670.3	788.35
959.2077	2310.3299	1669.7	787.3
959.3399	2311.7669	1663.6	782.65
959.4721	2313.2031	1667.9	784.25
959.6043	2314.6387	1660.6	778.4
959.7365	2316.0735	1656.15	773.45
959.8686	2317.5076	1659.45	776.15
960.0006	2318.941	1659.1	776.25
960.1327	2320.3737	1649.55	765.8
960.2647	2321.8056	1658.8	773.85
960.3967	2323.2369	1656.45	771.3
960.5287	2324.6674	1650.8	765.95
960.6606	2326.0972	1649.1	765.25
960.7925	2327.5263	1646.2	765.8
960.9244	2328.9547	1648.55	766.2
961.0562	2330.3823	1644.1	761.45
961.1881	2331.8092	1642.1	757.35
961.3198	2333.2355	1638.1	756.85
961.4516	2334.661	1636.55	754.05
961.5833	2336.0858	1629	743.6
961.715	2337.5098	1624.2	741.1
961.8467	2338.9332	1623.8	740
961.9783	2340.3558	1624.2	738.75
962.1099	2341.7778	1624.7	740.05
962.2415	2343.199	1624.95	740.5
962.373	2344.6195	1625.75	741.2
962.5045	2346.0393	1621.6	741.05
962.636	2347.4583	1621.1	737.45
962.7675	2348.8767	1612.4	729.75
962.8989	2350.2943	1613.45	730.65
963.0303	2351.7113	1625.3	741.6
963.1617	2353.1275	1611.3	729.15
963.293	2354.543	1622.55	731.3
963.4243	2355.9578	1605.9	722
963.5556	2357.3718	1599.05	718.25
963.6868	2358.7852	1602.95	719.65
963.818	2360.1978	1594.6	710.6
963.9492	2361.6098	1590.45	707.5
964.0803	2363.021	1602	715.35
964.2114	2364.4315	1591.8	708.3
964.3425	2365.8413	1596.25	712.15
964.4736	2367.2504	1588.6	706.75
964.6046	2368.6587	1578.9	696.6
964.7356	2370.0664	1584.1	699.95
964.8666	2371.4733	1580.9	700
964.9975	2372.8795	1570.85	687.55
965.1284	2374.285	1570.2	687.4
965.2593	2375.6899	1576.9	694.7
965.3901	2377.0939	1568.1	685.2
965.5209	2378.4973	1569.2	688.1
965.6517	2379.9	1564.55	681.9
965.7825	2381.3019	1570	687
965.9132	2382.7032	1561.9	680.8
966.0439	2384.1037	1561.5	679.6
966.1745	2385.5035	1559.8	676.8
966.3051	2386.9027	1547.75	666.1
966.4357	2388.3011	1558.85	670.15
966.5663	2389.6987	1552.6	669.5
966.6968	2391.0957	1546.5	664.65
966.8273	2392.492	1541.1	659.55
966.9578	2393.8876	1532.45	651.1
967.0882	2395.2824	1531.85	649.45
967.2186	2396.6765	1528.5	646.7
967.349	2398.07	1527.6	646.15
967.4793	2399.4627	1527.1	641.65
967.6097	2400.8547	1521.9	640.1
967.7399	2402.246	1528.55	639.1
967.8702	2403.6366	1519.1	636
968.0004	2405.0265	1516.75	635.7
968.1306	2406.4156	1528.15	643
968.2607	2407.8041	1513.35	629.05
968.3909	2409.1918	1515.15	627.9
968.521	2410.5789	1511.6	630.15
968.651	2411.9652	1514.1	628.65
968.781	2413.3508	1501.9	620.5
968.911	2414.7358	1508.2	625.75
969.041	2416.12	1501.55	620.2
969.1709	2417.5035	1503.65	621.95
969.3008	2418.8863	1501.6	616.95
969.4307	2420.2684	1504.1	622.35
969.5606	2421.6497	1498.5	615.35
969.6904	2423.0304	1499.75	616.4
969.8201	2424.4104	1492.7	609.35
969.9499	2425.7896	1500.6	610.9
970.0796	2427.1682	1498.55	614.5
970.2093	2428.546	1502.45	617.95
970.3389	2429.9232	1496.1	608.05
970.4685	2431.2996	1494.65	614.05
970.5981	2432.6753	1483.9	601.8
970.7277	2434.0503	1493.1	610.4
970.8572	2435.4246	1483	601.9
970.9867	2436.7982	1487.65	601.8
971.1161	2438.1711	1483.85	601.95
971.2456	2439.5433	1480.15	596.9
971.375	2440.9148	1483.3	594.3
971.5043	2442.2856	1467.3	584.85
971.6336	2443.6557	1471.25	586.75
971.7629	2445.025	1476.45	595.1
971.8922	2446.3937	1466.95	584.95
972.0214	2447.7617	1469.45	586.4
972.1506	2449.1289	1469.95	587.5
972.2798	2450.4955	1465.55	579.15
972.4089	2451.8613	1466.3	583.35
972.538	2453.2265	1462.35	579.3
972.6671	2454.5909	1459	574.75
972.7961	2455.9546	1454.8	572.65
972.9251	2457.3177	1463	581.1
973.0541	2458.68	1461.2	575.9
973.1831	2460.0416	1454.7	572.25
973.312	2461.4025	1456.85	572.4
973.4408	2462.7627	1463.15	569.7
973.5697	2464.1222	1455.15	571.7
973.6985	2465.4811	1447.8	564
973.8273	2466.8392	1453.1	571.1
973.956	2468.1966	1449.75	563.5
974.0847	2469.5533	1449.95	565.75
974.2134	2470.9093	1452.3	568.95
974.3421	2472.2645	1451.45	567.5
974.4707	2473.6191	1447.25	564.85
974.5993	2474.973	1453.4	571.25
974.7278	2476.3262	1448.8	564.35
974.8563	2477.6787	1446.05	565.75
974.9848	2479.0305	1444.9	562.35
975.1132	2480.3816	1447.75	562.8
975.2417	2481.7319	1436.8	555.45
975.37	2483.0816	1444.05	559.75
975.4984	2484.4306	1435.4	553.05
975.6267	2485.7789	1441.5	559.35
975.755	2487.1264	1440.6	556.4
975.8833	2488.4733	1434.65	553.2
976.0115	2489.8195	1448.4	547.05
976.1397	2491.165	1428.25	543.05
976.2678	2492.5097	1432.25	549.05
976.3959	2493.8538	1427.05	542.95
976.524	2495.1972	1426.75	543.5
976.6521	2496.5398	1419.1	534.7
976.7801	2497.8818	1425.6	541.15
976.9081	2499.2231	1421.95	538.1
977.036	2500.5637	1426.6	541.9
977.164	2501.9035	1414.85	530.3
977.2918	2503.2427	1413.65	526.15
977.4197	2504.5812	1409.3	528.1
977.5475	2505.919	1416.05	530.3
977.6753	2507.256	1410.5	529.05
977.8031	2508.5924	1404.5	520.8
977.9308	2509.9281	1417	529.5
978.0585	2511.2631	1411.4	530.05
978.1861	2512.5974	1402.9	519.25
978.3137	2513.9309	1406.85	522.1
978.4413	2515.2638	1434.9	522.55
978.5689	2516.596	1408.35	524.9
978.6964	2517.9275	1403.5	521.2
978.8239	2519.2583	1398.85	515.6
978.9513	2520.5884	1403.2	520.05
979.0788	2521.9178	1394	511.95
979.2062	2523.2465	1394.25	512.3
979.3335	2524.5745	1391.55	508.5
979.4608	2525.9018	1388.5	506
979.5881	2527.2284	1393.95	513.25
979.7154	2528.5543	1384.45	501.75
979.8426	2529.8796	1389.8	507.4
979.9698	2531.2041	1387.05	503.6
980.0969	2532.5279	1388.55	506.95
980.224	2533.851	1388.3	507.3
980.3511	2535.1735	1387.5	504.4
980.4781	2536.4952	1385.3	503.8
980.6052	2537.8163	1396.1	513.2
980.7321	2539.1366	1383.7	502.65
980.8591	2540.4562	1383	498.1
980.986	2541.7752	1391.4	511.7
981.1129	2543.0935	1381.75	498.9
981.2397	2544.411	1384.85	499.6
981.3665	2545.7279	1384.4	500.8
981.4933	2547.0441	1378.05	496.2
981.62	2548.3596	1383.25	500.05
981.7467	2549.6744	1381.95	499.2
981.8734	2550.9885	1391.9	508.1
982.0001	2552.3019	1373.6	493.5
982.1267	2553.6146	1374.45	491.4
982.2532	2554.9266	1371.8	489.1
982.3798	2556.2379	1368.2	483.25
982.5063	2557.5485	1366.65	487.4
982.6327	2558.8585	1380.25	490.7
982.7592	2560.1677	1370.65	482.9
982.8856	2561.4762	1371.8	490.85
983.0119	2562.7841	1369.9	484.85
983.1383	2564.0913	1368.05	488.45
983.2646	2565.3977	1367.75	484.85
983.3908	2566.7035	1365.6	483.2
983.517	2568.0086	1363.05	479.6
983.6432	2569.313	1365.65	481.2
983.7694	2570.6167	1364.45	477.35
983.8955	2571.9197	1361.65	480.5
984.0216	2573.222	1361.75	475.1
984.1476	2574.5236	1364.9	482
984.2737	2575.8246	1365.45	479.35
984.3996	2577.1248	1358.15	472.45
984.5256	2578.4244	1356.5	475.7
984.6515	2579.7232	1357.15	474.25
984.7774	2581.0214	1387.25	474.9
984.9032	2582.3189	1362.45	480.65
985.029	2583.6157	1361.85	475.9
985.1548	2584.9118	1358.1	476.6
985.2806	2586.2072	1361.8	479.45
985.4063	2587.5019	1355.05	472.85
985.5319	2588.7959	1355.55	472.25
985.6576	2590.0893	1359.9	475.85
985.7832	2591.3819	1365.35	483.4
985.9087	2592.6739	1366.55	485.2
986.0343	2593.9652	1357.15	473.95
986.1597	2595.2557	1354	472.1
986.2852	2596.5456	1365.5	481.45
986.4106	2597.8348	1359	476.7
986.536	2599.1234	1354.85	470.7
986.6614	2600.4112	1360.6	479.7
986.7867	2601.6983	1363.2	476.95
986.912	2602.9848	1361.9	481.75
987.0372	2604.2705	1362.85	474.25
987.1624	2605.5556	1359.1	476
987.2876	2606.84	1359.55	477.9
987.4128	2608.1237	1361.75	478.6
987.5379	2609.4067	1352.7	471.5
987.6629	2610.689	1359.6	467.7
987.788	2611.9707	1355	468.4
987.913	2613.2516	1355.5	468.3
988.0379	2614.5319	1339.6	458.35
988.1629	2615.8115	1338.85	454.1
988.2878	2617.0903	1343.75	460.55
988.4126	2618.3685	1335.65	451.25
988.5375	2619.6461	1338.55	457.2
988.6622	2620.9229	1335	454.15
988.787	2622.199	1334.7	450.25
988.9117	2623.4745	1331.8	447.5
989.0364	2624.7493	1331.7	449.5
989.161	2626.0234	1336.4	455.75
989.2857	2627.2968	1329.8	446.25
989.4102	2628.5695	1328.9	446.05
989.5348	2629.8415	1332.25	450.05
989.6593	2631.1128	1328.35	443.95
989.7837	2632.3835	1328.45	446.65
989.9082	2633.6535	1325.4	445.35
990.0326	2634.9228	1321.35	438.4
990.1569	2636.1914	1325.25	442.7
990.2812	2637.4593	1325.2	437.5
990.4055	2638.7265	1323	438.6
990.5298	2639.9931	1326.3	444.9
990.654	2641.259	1322.75	438.1
990.7782	2642.5242	1315.65	431.9
990.9023	2643.7887	1322.5	440.1
991.0264	2645.0525	1316.15	435.5
991.1505	2646.3156	1313	430.1
991.2745	2647.5781	1317.7	434.5
991.3985	2648.8398	1308.9	427.35
991.5225	2650.1009	1349.15	429.95
991.6464	2651.3613	1307.55	421.65
991.7703	2652.6211	1304.9	422.95
991.8942	2653.8801	1307.3	425
992.018	2655.1385	1312.65	428.7
992.1418	2656.3961	1305.9	423.25
992.2655	2657.6531	1307.35	425.15
992.3892	2658.9094	1306.8	425.1
992.5129	2660.1651	1302.65	421.15
992.6366	2661.42	1307.1	424.4
992.7602	2662.6743	1312.25	429.1
992.8837	2663.9279	1312.6	431.75
993.0073	2665.1808	1310.6	428.15
993.1307	2666.433	1316.2	431.2
993.2542	2667.6846	1313.2	432.25
993.3776	2668.9354	1315.25	429.35
993.501	2670.1856	1312.2	430.55
993.6244	2671.4351	1313.9	432.15
993.7477	2672.6839	1321.2	435.05
993.8709	2673.9321	1323.85	443.05
993.9942	2675.1795	1324.8	441.85
994.1174	2676.4263	1321.1	441.45
994.2405	2677.6724	1325.8	445.55
994.3637	2678.9179	1330.95	450.2
994.4868	2680.1626	1326.95	446.45
994.6098	2681.4067	1324.15	441
994.7328	2682.6501	1328.15	446.25
994.8558	2683.8928	1325.6	442.1
994.9788	2685.1348	1312.2	429.3
995.1017	2686.3761	1307.25	427.25
995.2245	2687.6168	1313.65	430.7
995.3474	2688.8568	1307.6	426.2
995.4702	2690.0961	1303.9	422.3
995.5929	2691.3348	1304.7	421.15
995.7156	2692.5727	1300	417.45
995.8383	2693.81	1300.55	417.5
995.961	2695.0466	1300.35	419.55
996.0836	2696.2826	1298.55	413.5
996.2062	2697.5178	1308.3	421.3
996.3287	2698.7524	1295.6	412.5
996.4512	2699.9863	1309.65	425
996.5737	2701.2195	1298.9	418.2
996.6961	2702.452	1306.05	423.55
996.8185	2703.6839	1317.85	432.85
996.9408	2704.9151	1313.75	430.3
997.0631	2706.1456	1316.95	435.4
997.1854	2707.3755	1326.1	442.8
997.3077	2708.6046	1328.95	444.7
997.4299	2709.8331	1330.5	446.2
997.552	2711.0609	1333.9	451.35
997.6742	2712.2881	1337.5	455.9
997.7963	2713.5145	1344.45	459.2
997.9183	2714.7403	1358.2	476.25
998.0403	2715.9654	1359.7	476.5
998.1623	2717.1899	1383.4	486.15
998.2842	2718.4136	1379.4	499.4
998.4062	2719.6367	1386.65	504.55
998.528	2720.8591	1399.9	512.35
998.6498	2722.0809	1404.8	521.95
998.7716	2723.3019	1411.8	527.1
998.8934	2724.5223	1420.1	536.9
999.0151	2725.7421	1424.5	540.1
999.1368	2726.9611	1423.2	538.65
999.2584	2728.1795	1428.2	541.8
999.38	2729.3972	1413.4	530.45
999.5016	2730.6142	1418.05	523.45
999.6231	2731.8306	1395.8	512.45
999.7446	2733.0462	1390.35	506.5
999.8661	2734.2612	1378.25	490.75
999.9875	2735.4756	1365.7	482.4
1000.1089	2736.6892	1349.6	466.65
1000.2302	2737.9022	1334.5	451.8
1000.3515	2739.1145	1324.05	439.95
1000.4728	2740.3262	1326.6	437.55
1000.594	2741.5372	1312.35	429.35
1000.7152	2742.7475	1304.3	421.4
1000.8363	2743.9571	1300.25	415.4
1000.9575	2745.1661	1296.15	410.75
1001.0785	2746.3744	1283.95	400
1001.1996	2747.582	1274.2	390.9
1001.3206	2748.7889	1270.05	388.9
1001.4415	2749.9952	1264.7	383.5
1001.5625	2751.2008	1267.1	384.25
1001.6833	2752.4057	1260.05	374.55
1001.8042	2753.61	1254.95	371.6
1001.925	2754.8136	1250.7	365.7
1002.0458	2756.0165	1244.1	361.3
1002.1665	2757.2188	1250.4	367.75
1002.2872	2758.4204	1251.8	368.9
1002.4078	2759.6213	1254.25	368.15
1002.5285	2760.8215	1252.75	363.2
1002.649	2762.0211	1251.45	367.75
1002.7696	2763.22	1249.8	363.35
1002.8901	2764.4182	1252.55	368.3
1003.0106	2765.6158	1247.4	365.45
1003.131	2766.8127	1247.8	365.45
1003.2514	2768.009	1245.25	364.5
1003.3717	2769.2045	1243.1	358.95
1003.492	2770.3994	1234.4	350.95
1003.6123	2771.5936	1232.8	349.95
1003.7325	2772.7872	1229.2	347.85
1003.8527	2773.9801	1233.7	348.65
1003.9729	2775.1723	1245.05	346.45
1004.093	2776.3639	1225.55	342.7
1004.2131	2777.5548	1228.2	343.55
1004.3331	2778.745	1232.3	347.35
1004.4531	2779.9346	1225.9	345.15
1004.5731	2781.1235	1230.4	346.05
1004.693	2782.3117	1221.1	337.8
1004.8129	2783.4992	1235.5	351.85
1004.9328	2784.6861	1234.85	353.8
1005.0526	2785.8723	1237.3	352.05
1005.1723	2787.0579	1238.9	353.85
1005.2921	2788.2428	1232.7	350.55
1005.4118	2789.427	1242.6	361.05
1005.5314	2790.6106	1248.3	365.6
1005.651	2791.7935	1254.3	369.7
1005.7706	2792.9757	1256.55	375.05
1005.8902	2794.1573	1260.25	376.1
1006.0097	2795.3382	1269.7	386.1
1006.1291	2796.5184	1279	399.4
1006.2485	2797.698	1278	394.9
1006.3679	2798.8769	1286.1	405.9
1006.4873	2800.0551	1294.75	412.1
1006.6066	2801.2327	1311.35	427.2
1006.7258	2802.4096	1313.25	430.45
1006.8451	2803.5859	1323.55	439.95
1006.9642	2804.7615	1336.3	451.35
1007.0834	2805.9364	1344.25	462.4
1007.2025	2807.1106	1361.5	478.15
1007.3216	2808.2842	1385.55	502.6
1007.4406	2809.4572	1399.1	516.25
1007.5596	2810.6294	1428.4	545.75
1007.6785	2811.801	1443.45	561.65
1007.7975	2812.972	1471.1	590.15
1007.9163	2814.1423	1505.55	620.65
1008.0352	2815.3119	1534.1	653.45
1008.154	2816.4808	1564	682.25
1008.2727	2817.6491	1605.45	722.65
1008.3914	2818.8167	1647.1	765
1008.5101	2819.9837	1692.4	804.6
1008.6288	2821.15	1732.3	849.35
1008.7474	2822.3157	1778.35	896.7
1008.8659	2823.4807	1815.55	931.35
1008.9844	2824.645	1868.05	984.6
1009.1029	2825.8086	1905.85	1022.9
1009.2214	2826.9716	1948.45	1068.2
1009.3398	2828.134	1991.65	1110.05
1009.4581	2829.2957	2028.15	1145
1009.5764	2830.4567	2058.55	1178.15
1009.6947	2831.617	2079.6	1196.3
1009.813	2832.7767	2087.85	1205.3
1009.9312	2833.9358	2081.35	1200.85
1010.0493	2835.0941	2075.2	1189.6
1010.1675	2836.2519	2053	1171.55
1010.2855	2837.4089	2045.75	1163.65
1010.4036	2838.5653	2035.5	1154.95
1010.5216	2839.7211	2019.8	1136.65
1010.6396	2840.8761	2021.35	1138.8
1010.7575	2842.0306	2022.6	1142.9
1010.8754	2843.1843	2041.95	1159.7
1010.9932	2844.3374	2066.65	1185.15
1011.111	2845.4899	2103.15	1218.8
1011.2288	2846.6417	2133.55	1252.9
1011.3465	2847.7928	2170.7	1289.3
1011.4642	2848.9433	2203.3	1321.05
1011.5818	2850.0931	2256.7	1375.5
1011.6995	2851.2422	2304.35	1419.8
1011.817	2852.3907	2341.45	1459.4
1011.9345	2853.5385	2381.55	1496.8
1012.052	2854.6857	2448.4	1536.15
1012.1695	2855.8323	2459.15	1576.4
1012.2869	2856.9781	2485.3	1603.35
1012.4042	2858.1233	2518.4	1635.4
1012.5216	2859.2679	2563.1	1679.8
1012.6389	2860.4118	2603.4	1720.2
1012.7561	2861.555	2643.65	1757.2
1012.8733	2862.6976	2663	1778
1012.9905	2863.8395	2697.1	1815.7
1013.1076	2864.9808	2728	1846.85
1013.2247	2866.1214	2738.4	1855.45
1013.3417	2867.2614	2751.65	1867.65
1013.4587	2868.4007	2776.65	1892.6
1013.5757	2869.5393	2762.35	1878.2
1013.6926	2870.6773	2787.05	1901.4
1013.8095	2871.8146	2808.55	1924.85
1013.9263	2872.9513	2788	1902.2
1014.0431	2874.0874	2784.45	1901.4
1014.1599	2875.2227	2789.1	1905.05
1014.2766	2876.3574	2764.85	1883.35
1014.3933	2877.4915	2741.45	1858.6
1014.51	2878.6249	2727.35	1846.2
1014.6266	2879.7577	2714.75	1830.85
1014.7431	2880.8898	2698.8	1803.5
1014.8596	2882.0212	2699.05	1816.35
1014.9761	2883.152	2687.9	1804.7
1015.0925	2884.2821	2672.6	1790.5
1015.2089	2885.4116	2669.5	1788.3
1015.3253	2886.5405	2670.75	1788.1
1015.4416	2887.6686	2670.2	1783.15
1015.5579	2888.7962	2677.6	1795.8
1015.6741	2889.923	2695	1813.2
1015.7903	2891.0493	2700.2	1817.35
1015.9065	2892.1748	2707.5	1823.55
1016.0226	2893.2997	2718.45	1836.15
1016.1387	2894.424	2720.15	1838.25
1016.2547	2895.5476	2734.45	1850.2
1016.3707	2896.6706	2745.15	1864.75
1016.4866	2897.7929	2769.4	1885.8
1016.6025	2898.9145	2778.1	1894.5
1016.7184	2900.0355	2802.35	1919.4
1016.8342	2901.1559	2820.8	1937.4
1016.95	2902.2756	2851.65	1969.65
1017.0658	2903.3946	2881.9	1999.95
1017.1815	2904.513	2883.95	1995.9
1017.2971	2905.6308	2899.85	2019.95
1017.4127	2906.7479	2911.8	2028.05
1017.5283	2907.8643	2932.8	2049.6
1017.6439	2908.9801	2933.5	2049.95
1017.7594	2910.0953	2945.7	2062.9
1017.8748	2911.2098	2942.15	2057.6
1017.9902	2912.3236	2942.2	2051.5
1018.1056	2913.4368	2910.15	2023.35
1018.2209	2914.5494	2908.1	2026.15
1018.3362	2915.6613	2879.8	1990.05
1018.4515	2916.7725	2856.9	1971.7
1018.5667	2917.8831	2844.45	1959.8
1018.6819	2918.9931	2817.75	1930.95
1018.797	2920.1024	2790.25	1907.8
1018.9121	2921.211	2787.7	1905.4
1019.0271	2922.319	2766.25	1884.15
1019.1421	2923.4264	2744.95	1860.95
1019.2571	2924.5331	2749.25	1868.55
1019.372	2925.6391	2743	1861.05
1019.4869	2926.7445	2742.8	1861.65
1019.6017	2927.8493	2742.85	1858.65
1019.7165	2928.9534	2741.55	1859.75
1019.8313	2930.0569	2753.3	1868.15
1019.946	2931.1597	2742.85	1859.25
1020.0606	2932.2619	2754.8	1872.25
1020.1753	2933.3634	2759.9	1879.2
1020.2899	2934.4643	2770.35	1880.15
1020.4044	2935.5645	2768.5	1881
1020.5189	2936.6641	2752.4	1863.4
1020.6334	2937.763	2720.6	1838.65
1020.7478	2938.8613	2705.7	1823.05
1020.8622	2939.959	2687.6	1799.15
1020.9765	2941.056	2639.95	1758.4
1021.0908	2942.1523	2598.7	1714.05
1021.2051	2943.248	2540.05	1656.5
1021.3193	2944.3431	2463.5	1581.85
1021.4334	2945.4375	2405.5	1520.25
1021.5476	2946.5313	2338.1	1458.95
1021.6617	2947.6244	2256.55	1372.6
1021.7757	2948.7169	2194.55	1312.6
1021.8897	2949.8087	2117.45	1236.7
1022.0037	2950.8999	2065.25	1181.05
1022.1176	2951.9904	2001.3	1120
1022.2315	2953.0803	1945.55	1061.45
1022.3453	2954.1696	1910.8	1027.45
1022.4591	2955.2582	1865.85	984.4
1022.5728	2956.3462	1838.4	954.65
1022.6865	2957.4335	1811.3	929.5
1022.8002	2958.5202	1775.2	890.45
1022.9138	2959.6062	1767.35	884.65
1023.0274	2960.6916	1750.85	870.3
1023.141	2961.7764	1738.5	855.1
1023.2545	2962.8605	1716.25	833.5
1023.3679	2963.9439	1701.1	820.75
1023.4813	2965.0267	1702.15	818.75
1023.5947	2966.1089	1712.75	808.15
1023.708	2967.1905	1694.65	811.6
1023.8213	2968.2714	1691.9	809.05
1023.9346	2969.3516	1691.6	810.7
1024.0478	2970.4312	1698.15	808.8
1024.1609	2971.5102	1707.1	825.65
1024.274	2972.5885	1711.4	828.15
1024.3871	2973.6662	1709.65	821.75
1024.5002	2974.7432	1710.95	830.15
1024.6132	2975.8196	1699.55	815.75
1024.7261	2976.8954	1695.55	815.15
1024.839	2977.9705	1693.3	809.05
1024.9519	2979.045	1692.2	810
1025.0647	2980.1188	1676.45	793.75
1025.1775	2981.192	1664.5	781.1
1025.2902	2982.2645	1651	768.9
1025.4029	2983.3364	1638.15	755.6
1025.5156	2984.4077	1623.65	741.35
1025.6282	2985.4783	1605.95	718.35
1025.7407	2986.5483	1582.65	702.2
1025.8532	2987.6177	1559.5	679.15
1025.9657	2988.6864	1533.75	650.15
1026.0782	2989.7545	1497.35	613.8
1026.1906	2990.8219	1478.95	597.65
1026.3029	2991.8887	1450.6	566.15
1026.4152	2992.9548	1432.95	550.65
1026.5275	2994.0204	1411	528.85
1026.6397	2995.0852	1389.35	508.05
1026.7519	2996.1495	1369.8	485.65
1026.864	2997.2131	1349.4	465.85
1026.9761	2998.276	1324.6	443.1
1027.0882	2999.3383	1312.65	431.3
1027.2002	3000.4	1296.4	411.95
1027.3122	3001.4611	1279.45	398.4
1027.4241	3002.5215	1269.15	385.15
1027.536	3003.5812	1252.25	370.95
1027.6478	3004.6404	1242.95	360.65
1027.7596	3005.6989	1232.45	347.65
1027.8714	3006.7567	1227.95	345.45
1027.9831	3007.8139	1239	330.1
1028.0947	3008.8705	1206.5	324.25
1028.2064	3009.9264	1213.15	314.7
1028.3179	3010.9818	1195.9	315.1
1028.4295	3012.0364	1194.5	313.95
1028.541	3013.0905	1188.05	304.45
1028.6524	3014.1439	1180.6	297.5
1028.7638	3015.1966	1174.95	290.25
1028.8752	3016.2487	1169.95	287.3
1028.9865	3017.3002	1171.85	283.6
1029.0978	3018.3511	1163.25	282.15
1029.209	3019.4013	1160.1	277.3
1029.3202	3020.4509	1156.4	274.75
1029.4314	3021.4998	1157	273.05
1029.5425	3022.5481	1152.35	270.45
1029.6535	3023.5958	1153	270.25
1029.7645	3024.6428	1152.25	268.9
1029.8755	3025.6892	1154.55	273.75
1029.9864	3026.735	1149.85	267.05
1030.0973	3027.7802	1151.9	269.6
1030.2082	3028.8247	1154.2	272.8
1030.319	3029.8685	1155.5	270.5
1030.4297	3030.9118	1154.15	270.75
1030.5404	3031.9544	1155.6	272.3
1030.6511	3032.9963	1157.85	275.5
1030.7617	3034.0376	1158.55	276.9
1030.8723	3035.0783	1158.25	272.6
1030.9829	3036.1184	1160.8	278.65
1031.0934	3037.1578	1164.85	284.1
1031.2038	3038.1966	1163.25	282.7
1031.3142	3039.2348	1160.3	277.25
1031.4246	3040.2723	1174.35	283.4
1031.5349	3041.3092	1165.7	283.4
1031.6452	3042.3455	1165.85	282.45
1031.7554	3043.3811	1165.8	280.85
1031.8656	3044.4161	1164.7	282.9
1031.9758	3045.4505	1164.7	283.25
1032.0859	3046.4842	1164.85	280.3
1032.1959	3047.5173	1159.05	279.5
1032.3059	3048.5498	1160.85	277.4
1032.4159	3049.5816	1162.55	281.45
1032.5258	3050.6128	1163.3	278.25
1032.6357	3051.6434	1157.85	275.4
1032.7455	3052.6734	1161.45	276.4
1032.8553	3053.7027	1151.65	269.75
1032.9651	3054.7314	1156.2	275.45
1033.0748	3055.7594	1148.7	266.65
1033.1845	3056.7868	1149.05	266.4
1033.2941	3057.8136	1145.2	264.85
1033.4037	3058.8398	1145.95	264.5
1033.5132	3059.8653	1143.75	261.4
1033.6227	3060.8902	1144.55	259.9
1033.7321	3061.9145	1145.1	263.4
1033.8415	3062.9381	1136.25	252.95
1033.9509	3063.9612	1154.35	258.2
1034.0602	3064.9835	1135.5	252.5
1034.1694	3066.0053	1140.4	256
1034.2787	3067.0264	1128.45	246.9
1034.3878	3068.0469	1130.55	245.9
1034.497	3069.0668	1129.9	244.4
1034.6061	3070.086	1124.9	243.7
1034.7151	3071.1046	1125.25	239.75
1034.8241	3072.1226	1115.9	231.7
1034.9331	3073.1399	1106.35	224.1
1035.042	3074.1567	1102.45	220.7
1035.1508	3075.1727	1104.15	222.1
1035.2597	3076.1882	1095.3	214.3
1035.3684	3077.203	1093.5	209.45
1035.4772	3078.2173	1091.45	206.9
1035.5859	3079.2308	1087.8	199.9
1035.6945	3080.2438	1077.35	192.5
1035.8031	3081.2561	1078.35	195.8
1035.9117	3082.2678	1068	185.25
1036.0202	3083.2789	1065	180.9
1036.1286	3084.2893	1058.95	176.8
1036.2371	3085.2991	1054.75	172.4
1036.3454	3086.3083	1054.85	168.2
1036.4538	3087.3169	1054	172.3
1036.562	3088.3248	1048	164.1
1036.6703	3089.3321	1049	164.15
1036.7785	3090.3388	1035.85	155.25
1036.8866	3091.3449	1039.3	157.15
1036.9948	3092.3503	1039.3	154.6
1037.1028	3093.3551	1031.75	150.8
1037.2108	3094.3593	1026.7	144.05
1037.3188	3095.3629	1028.6	147.7
1037.4267	3096.3658	1025.45	143.35
1037.5346	3097.3681	1022.45	139.2
1037.6425	3098.3698	1021.15	136.2
1037.7503	3099.3708	1024.1	136.95
1037.858	3100.3713	1013.6	130.85
1037.9657	3101.3711	1013.75	130.75
1038.0734	3102.3702	1155.25	131.2
1038.181	3103.3688	1013.6	128.45
1038.2886	3104.3667	1005.1	123.75
1038.3961	3105.364	1009.3	127.85
1038.5036	3106.3607	1005.1	120.45
1038.611	3107.3568	1005.95	123.35
1038.7184	3108.3522	1003	121.4
1038.8257	3109.347	1004.55	121.6
1038.933	3110.3412	1005.6	119.55
1039.0403	3111.3348	999.2	117.55
1039.1475	3112.3277	996.1	112.65
1039.2547	3113.32	997.2	116.7
1039.3618	3114.3117	998.65	115.85
1039.4689	3115.3028	992.65	110.4
1039.5759	3116.2932	993.65	107.95
1039.6829	3117.2831	1000.35	112.35
1039.7898	3118.2723	990	107.3
1039.8967	3119.2608	990.1	106.05
1040.0035	3120.2488	989.6	105.95
1040.1103	3121.2361	986.9	103.65
1040.2171	3122.2229	985.2	104.35
1040.3238	3123.209	986.25	101.5
1040.4305	3124.1944	982.8	100.6
1040.5371	3125.1793	984.85	101.45
1040.6437	3126.1635	979.35	98.2
1040.7502	3127.1471	980.2	98.3
1040.8567	3128.1301	980.6	97.4
1040.9631	3129.1125	976.9	91.15
1041.0695	3130.0942	974.75	92.6
1041.1759	3131.0753	985.3	94.75
1041.2822	3132.0558	977.9	92.5
1041.3884	3133.0357	975.45	92.65
1041.4946	3134.015	975.25	91.25
1041.6008	3134.9936	977.15	93.5
1041.7069	3135.9716	995.05	91.05
1041.813	3136.949	972.1	89.7
1041.919	3137.9258	992.4	92.05
1042.025	3138.902	977.3	89.5
1042.1309	3139.8775	969.7	87.5
1042.2368	3140.8524	968.4	88.7
1042.3427	3141.8267	969	84.95
1042.4485	3142.8004	966.25	82.7
1042.5542	3143.7735	971.85	82.6
1042.6599	3144.7459	968.2	82.35
1042.7656	3145.7178	966.45	82.9
1042.8712	3146.689	963.3	82.3
1042.9768	3147.6596	969.65	85.75
1043.0823	3148.6295	963.35	82
1043.1878	3149.5989	962.7	80.45
1043.2932	3150.5676	961.05	79.35
1043.3986	3151.5357	961.75	81.65
1043.5039	3152.5032	960.55	79.25
1043.6092	3153.4701	959.6	78.95
1043.7145	3154.4364	963.5	79.15
1043.8197	3155.402	958.2	76.9
1043.9248	3156.367	960.5	75.05
1044.03	3157.3315	979.05	76.7
1044.135	3158.2952	958.65	76.55
1044.24	3159.2584	955.95	74.35
1044.345	3160.221	956.45	72.05
1044.4499	3161.1829	956.85	75.3
1044.5548	3162.1442	954.75	72.35
1044.6596	3163.105	956.2	72.95
1044.7644	3164.065	956.95	74.75
1044.8692	3165.0245	956.75	71.35
1044.9739	3165.9834	954.2	72.6
1045.0785	3166.9416	952.25	69.05
1045.1831	3167.8993	954.9	70.65
1045.2877	3168.8563	951.9	69.55
1045.3922	3169.8127	950.9	69.65
1045.4966	3170.7684	954.8	72.15
1045.6011	3171.7236	951.8	69.6
1045.7054	3172.6782	949.85	66.7
1045.8098	3173.6321	949.05	64.3
1045.914	3174.5854	956.4	68.05
1046.0183	3175.5381	947.95	66.05
1046.1224	3176.4902	949.5	67
1046.2266	3177.4417	950.65	67.1
1046.3307	3178.3926	947.9	66
1046.4347	3179.3428	948.05	66.5
1046.5387	3180.2924	946.4	66.6
1046.6427	3181.2415	947.4	63.75
1046.7466	3182.1899	949.45	64.85
1046.8504	3183.1377	947.45	64.7
1046.9542	3184.0848	948.85	61.25
1047.058	3185.0314	944.85	62.35
1047.1617	3185.9773	945.75	63.4
1047.2654	3186.9227	944.7	60.1
1047.369	3187.8674	943.05	61.55
1047.4726	3188.8115	947.1	60.75
1047.5761	3189.755	943.45	63.35
1047.6796	3190.6979	940.7	58.6
1047.783	3191.6402	940.8	58.2
1047.8864	3192.5818	943.95	59.8
1047.9898	3193.5229	945.95	57.4
1048.0931	3194.4633	943.55	60
1048.1963	3195.4031	942.2	58.75
1048.2995	3196.3423	939.55	56.7
1048.4027	3197.2809	938.45	57.2
1048.5058	3198.2189	938.3	55.8
1048.6089	3199.1563	955.7	56.15
1048.7119	3200.0931	939.2	56.9
1048.8148	3201.0292	938.4	58.1
1048.9178	3201.9648	939.65	55.3
1049.0206	3202.8997	940.4	54.4
1049.1235	3203.834	938.15	54.75
1049.2262	3204.7677	937.85	55.05
1049.329	3205.7008	938.8	55.2
1049.4317	3206.6333	934.1	53.85
1049.5343	3207.5652	938.65	52.25
1049.6369	3208.4964	936.35	52.9
1049.7394	3209.4271	938.1	55.75
1049.8419	3210.3571	936.1	53.65
1049.9444	3211.2865	936.35	52.9
1050.0468	3212.2154	938.25	56.05
1050.1491	3213.1436	937.95	51.45
1050.2514	3214.0712	940.35	52.15
1050.3537	3214.9982	935.55	54
1050.4559	3215.9246	936.85	52.85
1050.5581	3216.8503	931.45	51.95
1050.6602	3217.7755	934.55	51.8
1050.7623	3218.7001	932.05	48.4
1050.8643	3219.624	936.5	54.5
1050.9663	3220.5473	934.05	51.45
1051.0682	3221.4701	933.15	49.85
1051.1701	3222.3922	932.9	49.05
1051.2719	3223.3137	931.3	50.1
1051.3737	3224.2346	930.2	48
1051.4754	3225.1549	931.65	49.5
1051.5771	3226.0746	927.75	44.75
1051.6788	3226.9937	931.55	48.15
1051.7804	3227.9121	928.55	47.5
1051.8819	3228.83	927.2	45.7
1051.9834	3229.7473	928.65	45.35
1052.0849	3230.6639	931.25	48.25
1052.1863	3231.5799	927.25	44.45
1052.2876	3232.4954	930.4	46.7
1052.3889	3233.4102	928.65	47.05
1052.4902	3234.3244	931.2	48.3
1052.5914	3235.238	927.75	47.75
1052.6926	3236.151	951.05	44.3
1052.7937	3237.0634	927.6	45.7
1052.8948	3237.9752	926.05	44.5
1052.9958	3238.8864	926.95	43.15
1053.0968	3239.797	925.95	45.2
1053.1977	3240.7069	924.5	40.75
1053.2986	3241.6163	927.75	42.35
1053.3994	3242.5251	924.6	41.9
1053.5002	3243.4332	925.5	45.6
1053.6009	3244.3408	925.15	42.4
1053.7016	3245.2477	926.25	43.2
1053.8022	3246.154	925.4	42.3
1053.9028	3247.0598	924.6	41.4
1054.0034	3247.9649	923.7	39.85
1054.1039	3248.8694	922.9	40.4
1054.2043	3249.7733	922.85	40.35
1054.3047	3250.6766	922.4	41.15
1054.4051	3251.5793	923.65	39.3
1054.5054	3252.4814	923.05	41.55
1054.6056	3253.3829	922.1	38.6
1054.7058	3254.2838	919.95	38.8
1054.806	3255.1841	919.55	36
1054.9061	3256.0838	918.55	37.2
1055.0061	3256.9829	921.3	39.7
1055.1062	3257.8814	923.6	40.65
1055.2061	3258.7792	918.95	35.35
1055.306	3259.6765	920.3	36.8
1055.4059	3260.5731	919.05	38.85
1055.5057	3261.4692	923.8	42.05
1055.6055	3262.3647	916.25	30.95
1055.7052	3263.2595	913.65	30.8
1055.8049	3264.1538	915	31.9
1055.9045	3265.0474	920	37.2
1056.0041	3265.9404	913	32.55
1056.1036	3266.8329	915.75	32.85
1056.2031	3267.7247	923.25	31.9
1056.3025	3268.616	912.8	30.15
1056.4019	3269.5066	911.95	28.95
1056.5013	3270.3966	915.15	31.65
1056.6005	3271.286	910	29.55
