Software Version:	3.9.2.0
Unit SN:	10000200
Spectrometer SN:	6960
Date:	3/14/2024 2:03:05 PM
Data Line Index:	25
Spectral Points:	2048
Integration time (ms):	125
Averages:	20
Delay (ms):	30000
Sequence Number:	1
Processing:	dark subtract
Laser Power (mW):	300
Laser Current (mA):	825
Laser Diode Temp (C):	25.1
Laser Case Temp (C):	29
System Temp (C):	29
Spectrometer Temp (C):	26.8
CCD Temp (C):	0.016
Secondary Temp (C):	20.008
Heatsink Temp (C):	24.857
CCDPCB Temp (C):	38.386
SecondaryPCB Temp (C):	35.996

Wavelength	RamanShift	Raw Counts	Dark Subtracted
787.061	30.1047	455.3	43.75
787.2016	32.3739	451.2	43.15
787.3422	34.6426	457.6	48.05
787.4828	36.9109	463.35	50.4
787.6235	39.1787	472.15	57.5
787.7642	41.4461	478.1	56.1
787.9049	43.7131	490.65	67.4
788.0456	45.9796	497.75	70.3
788.1863	48.2456	508.8	77.65
788.3271	50.5112	515.35	78.9
788.4679	52.7764	522.55	84.85
788.6087	55.0411	530.3	88.6
788.7496	57.3054	541.35	95
788.8904	59.5692	553.45	103.75
789.0313	61.8326	565.85	112.8
789.1722	64.0955	577.9	119.95
789.3132	66.3579	592.35	129.9
789.4541	68.6199	606.85	141.25
789.5951	70.8815	637.1	167.7
789.7361	73.1426	698.45	227.25
789.8771	75.4032	871.3	393.2
790.0181	77.6634	1282.8	798.65
790.1592	79.9231	2260	1770.6
790.3003	82.1824	4406	3908.35
790.4414	84.4412	8366.35	7850.2
790.5825	86.6995	13956.35	13416.55
790.7237	88.9574	19616.05	19055.55
790.8648	91.2148	23728.05	23152.7
791.006	93.4717	25729.6	25148.2
791.1472	95.7282	26309.8	25720.75
791.2885	97.9842	26390.15	25794.95
791.4297	100.2398	25993.6	25398.6
791.571	102.4949	25529.6	24927.15
791.7123	104.7495	24866.9	24261.45
791.8536	107.0036	24153.6	23548.55
791.9949	109.2573	23464.3	22862.8
792.1363	111.5105	22743	22141.6
792.2777	113.7632	22092.35	21486.8
792.4191	116.0154	21482	20863.15
792.5605	118.2672	21024.2	20417.05
792.7019	120.5185	20510.15	19897.65
792.8434	122.7693	20172.4	19559.1
792.9849	125.0197	19897.35	19279
793.1264	127.2696	19650.85	19032.8
793.2679	129.519	19538.25	18918.05
793.4094	131.7679	19357.1	18733.95
793.551	134.0163	19257.2	18632.2
793.6926	136.2642	19128.8	18495.5
793.8342	138.5117	19000.8	18357.55
793.9758	140.7587	18792.3	18155.5
794.1175	143.0052	18671.7	18032.3
794.2591	145.2512	18486.2	17846.55
794.4008	147.4967	18298.55	17655.75
794.5425	149.7417	18187.5	17540.5
794.6842	151.9863	18042.75	17398.05
794.826	154.2304	17972.25	17323.7
794.9677	156.4739	17864.8	17210.25
795.1095	158.717	17828.1	17177
795.2513	160.9596	17693.7	17035.35
795.3931	163.2017	17433.25	16773.05
795.535	165.4433	17163.1	16502.6
795.6768	167.6844	16840.2	16179.35
795.8187	169.925	16536.85	15871.3
795.9606	172.1651	16195.05	15525.35
796.1025	174.4047	15948.85	15276.25
796.2445	176.6439	15695.8	15022.05
796.3864	178.8825	15455.8	14778.5
796.5284	181.1206	15307.35	14630
796.6704	183.3582	15106.95	14421.8
796.8124	185.5954	15004	14319.85
796.9544	187.832	14890.5	14202.3
797.0965	190.0681	14872.65	14182.95
797.2386	192.3037	14856.15	14160.95
797.3806	194.5388	14834.5	14141.1
797.5228	196.7734	14825.15	14123.9
797.6649	199.0075	14902.9	14201
797.807	201.2411	15027.6	14322.85
797.9492	203.4742	15052.05	14350.1
798.0914	205.7068	15155.65	14449.05
798.2336	207.9389	15249.25	14543.9
798.3758	210.1704	15338.35	14630.6
798.518	212.4015	15450.35	14739.05
798.6603	214.632	15599.55	14888
798.8025	216.862	15755.4	15048.35
798.9448	219.0915	15934.25	15235.25
799.0871	221.3205	16163.1	15465.85
799.2294	223.549	16373.2	15680.2
799.3718	225.777	16693.25	16001.2
799.5141	228.0044	17064.85	16370.95
799.6565	230.2314	17568.05	16876.75
799.7989	232.4578	18027.05	17331.85
799.9413	234.6837	18388.45	17685.65
800.0837	236.909	18621.2	17918.85
800.2262	239.1339	18539.4	17813.1
800.3687	241.3582	18291.2	17584.15
800.5111	243.582	17918.95	17180.3
800.6536	245.8053	17509.45	16779.8
800.7961	248.0281	17148.35	16425.45
800.9387	250.2503	16832.7	16101
801.0812	252.472	16633.5	15899.75
801.2238	254.6932	16534.85	15800.2
801.3664	256.9139	16382.1	15641.25
801.509	259.134	16271.05	15529.05
801.6516	261.3536	16189.1	15450.9
801.7942	263.5727	16160.2	15419.7
801.9369	265.7912	16024.9	15280.5
802.0795	268.0092	15922.6	15181.35
802.2222	270.2267	15874.35	15135.25
802.3649	272.4436	15779.7	15036.05
802.5076	274.6601	15714.7	14964.95
802.6504	276.8759	15654.05	14909.2
802.7931	279.0913	15674.2	14928.65
802.9359	281.3061	15704.15	14960.2
803.0787	283.5204	15772.8	15019.4
803.2215	285.7341	15909.55	15152.05
803.3643	287.9473	16075.45	15311
803.5071	290.16	16304.05	15542.6
803.6499	292.3721	16609.2	15854
803.7928	294.5837	17041.6	16287.45
803.9357	296.7947	17378.65	16620.65
804.0786	299.0052	17539.55	16784.45
804.2215	301.2152	17400.85	16641.7
804.3644	303.4246	17034.2	16276.4
804.5074	305.6334	16458.65	15705.45
804.6503	307.8418	15950.6	15192.45
804.7933	310.0495	15571.45	14812.65
804.9363	312.2568	15312.3	14551.1
805.0793	314.4635	15103.3	14342.7
805.2223	316.6696	15064.8	14302.25
805.3653	318.8752	15069.2	14297.7
805.5084	321.0802	15095.35	14334.9
805.6514	323.2847	15217.8	14454.25
805.7945	325.4887	15245.95	14481.25
805.9376	327.692	15205.45	14439.7
806.0807	329.8949	15079.4	14311.5
806.2238	332.0972	14830.05	14064.25
806.367	334.2989	14565.75	13793.45
806.5101	336.5001	14267.95	13494.55
806.6533	338.7007	14077.35	13303.3
806.7965	340.9008	13961	13188.85
806.9397	343.1003	13863.4	13086.75
807.0829	345.2992	13835.6	13059.6
807.2261	347.4976	13777.7	13002.35
807.3693	349.6955	13768.8	12987
807.5126	351.8927	13819.6	13033.15
807.6559	354.0895	13834.95	13040.75
807.7991	356.2856	13859	13077.05
807.9424	358.4812	13865.95	13082.45
808.0857	360.6763	13855.9	13071.75
808.2291	362.8707	13821.35	13037.5
808.3724	365.0646	13850.45	13063.25
808.5158	367.258	13775.2	12982.2
808.6591	369.4508	13814	13021
808.8025	371.643	13815.6	13025.8
808.9459	373.8346	13768.65	12975.4
809.0893	376.0257	13750.45	12951.65
809.2327	378.2162	13681.8	12884.35
809.3762	380.4062	13541.7	12740.65
809.5196	382.5956	13418.6	12617.45
809.6631	384.7844	13322.5	12521.4
809.8066	386.9726	13207.85	12405.05
809.9501	389.1603	13137.65	12335.9
810.0936	391.3474	13085.6	12250.1
810.2371	393.5339	13071.7	12269.2
810.3806	395.7199	13003.25	12200.9
810.5241	397.9052	13009.7	12214.55
810.6677	400.09	13014.95	12219.25
810.8113	402.2743	13043.15	12247.4
810.9548	404.4579	13052.55	12258.8
811.0984	406.641	13211.5	12414.35
811.2421	408.8235	13378.8	12579.85
811.3857	411.0054	13714.5	12920.85
811.5293	413.1868	14153.4	13356.2
811.673	415.3675	14502.9	13704.8
811.8166	417.5477	14684.05	13887.95
811.9603	419.7273	14738.95	13939.1
812.104	421.9064	14623.15	13814.8
812.2477	424.0848	14492.25	13684.8
812.3914	426.2627	14248.2	13440.25
812.5351	428.4399	13998.8	13190.15
812.6788	430.6166	13660.7	12849.95
812.8226	432.7928	13307	12491.1
812.9663	434.9683	12973.6	12158.55
813.1101	437.1432	12781.85	11966.35
813.2539	439.3176	12616.95	11804.7
813.3977	441.4914	12502.2	11685.45
813.5415	443.6645	12496.95	11679.8
813.6853	445.8371	12432.3	11612.3
813.8291	448.0091	12326.1	11507.4
813.973	450.1806	12274.45	11456.55
814.1168	452.3514	12214.5	11395.15
814.2607	454.5216	12197.75	11366.5
814.4046	456.6913	12153.8	11330.85
814.5485	458.8603	12143.7	11321.85
814.6924	461.0288	12169.3	11349.2
814.8363	463.1967	12189	11368.8
814.9802	465.3639	12352.6	11529
815.1241	467.5306	12455.15	11632.75
815.2681	469.6967	12579.35	11758.95
815.412	471.8622	12737	11917.05
815.556	474.0271	12912.8	12089
815.7	476.1914	12972.7	12146.2
815.844	478.3551	12942.45	12118.4
815.988	480.5182	12855.65	12031.25
816.132	482.6807	12815.45	11991.45
816.276	484.8426	12862.65	12037.9
816.4201	487.0039	13071.05	12246.45
816.5641	489.1647	13403.95	12574.7
816.7082	491.3248	13806.25	12981.5
816.8522	493.4843	14004.2	13180.05
816.9963	495.6432	14039.55	13215.5
817.1404	497.8015	13933.75	13106.45
817.2845	499.9592	13941.15	13114.4
817.4286	502.1163	13917.85	13090.2
817.5727	504.2728	13735.35	12904.1
817.7168	506.4287	13448.3	12617.15
817.861	508.5839	13057.55	12228.95
818.0051	510.7386	12697.7	11869.75
818.1493	512.8927	12494.05	11656.35
818.2935	515.0461	12358.7	11525.45
818.4377	517.199	12258.2	11424.45
818.5818	519.3512	12166.65	11333.45
818.726	521.5029	12180.15	11343.3
818.8703	523.6539	12136.3	11301.05
819.0145	525.8043	12189.1	11355.25
819.1587	527.9541	12192.25	11357.25
819.303	530.1033	12235.7	11400.05
819.4472	532.2519	12280.35	11445.3
819.5915	534.3999	12448.95	11613.45
819.7357	536.5472	12724.8	11886.15
819.88	538.694	13193.45	12358.1
820.0243	540.8401	13788.8	12952.55
820.1686	542.9856	14310.3	13470.2
820.3129	545.1305	14474.4	13636
820.4572	547.2748	14293.7	13456.65
820.6016	549.4185	13926.7	13084.8
820.7459	551.5615	13537.55	12696.95
820.8902	553.704	13350.4	12508.9
821.0346	555.8458	13227.25	12386.5
821.1789	557.987	13166	12327.95
821.3233	560.1276	13062.85	12219.6
821.4677	562.2675	12971.2	12130.1
821.6121	564.4069	12848.55	12006.45
821.7565	566.5456	12705.7	11864.3
821.9009	568.6837	12550	11706.15
822.0453	570.8212	12335.9	11496.75
822.1897	572.958	12140.2	11298.25
822.3342	575.0942	11984.25	11145.05
822.4786	577.2299	11883.1	11041.1
822.6231	579.3648	11879.8	11037.75
822.7675	581.4992	12004.05	11160.85
822.912	583.6329	12188.3	11345.65
823.0565	585.766	12374.75	11536.95
823.201	587.8985	12511.9	11671.15
823.3454	590.0304	12490.85	11640.45
823.4899	592.1616	12460.65	11614.3
823.6345	594.2922	12344.4	11503.25
823.779	596.4222	12213.25	11369.85
823.9235	598.5515	12066.9	11222.95
824.068	600.6802	11923.35	11081.4
824.2126	602.8083	11737.3	10893.85
824.3571	604.9358	11638.2	10791.8
824.5017	607.0626	11566.7	10721.95
824.6462	609.1888	11463.7	10617.2
824.7908	611.3144	11363.75	10517.55
824.9354	613.4393	11199.25	10349.55
825.08	615.5636	11075.55	10229.05
825.2246	617.6873	10965.5	10118.8
825.3692	619.8103	10893.2	10046.25
825.5138	621.9327	10827.05	9974.95
825.6584	624.0544	10818.6	9970.9
825.803	626.1756	10820.05	9972.6
825.9477	628.2961	10771.65	9925.7
826.0923	630.4159	10728.6	9877.95
826.237	632.5351	10699.55	9851.15
826.3816	634.6537	10615.55	9766.55
826.5263	636.7716	10587.75	9735.8
826.6709	638.8889	10585.95	9736.55
826.8156	641.0056	10578.7	9729.35
826.9603	643.1216	10549	9698.05
827.105	645.237	10592.55	9739.85
827.2497	647.3518	10595.55	9741.5
827.3944	649.4659	10616.6	9763
827.5391	651.5793	10594.95	9741.8
827.6838	653.6922	10583.75	9732.1
827.8285	655.8043	10531.55	9678.7
827.9733	657.9159	10494.45	9639.55
828.118	660.0268	10435.85	9581.1
828.2627	662.137	10364.7	9510
828.4075	664.2466	10307.85	9452.85
828.5522	666.3556	10282.15	9431.9
828.697	668.4639	10289	9433.45
828.8418	670.5716	10308.2	9457.35
828.9865	672.6786	10393.45	9537.1
829.1313	674.785	10441.65	9583.4
829.2761	676.8907	10530.7	9676.75
829.4209	678.9958	10590.9	9736
829.5657	681.1002	10559.55	9702.05
829.7105	683.204	10539.25	9680.45
829.8553	685.3072	10468.4	9611.85
830.0001	687.4097	10390.85	9533.95
830.1449	689.5115	10341.7	9485.3
830.2898	691.6127	10264.5	9410.1
830.4346	693.7132	10152.3	9294.2
830.5794	695.8131	10139.9	9257.85
830.7243	697.9123	10079	9218.8
830.8691	700.0109	10001.5	9139.65
831.014	702.1089	9960.3	9100.6
831.1588	704.2061	9947.65	9088.15
831.3037	706.3028	9991.7	9133.1
831.4486	708.3987	10048.2	9187.9
831.5935	710.4941	10095.75	9235.7
831.7383	712.5887	10280.95	9420.55
831.8832	714.6827	10552.6	9689.75
832.0281	716.7761	10909.8	10050.7
832.173	718.8688	11263.4	10402.2
832.3179	720.9608	11449.3	10585.1
832.4628	723.0522	11425.5	10559.25
832.6077	725.1429	11199.65	10338.9
832.7527	727.233	10855.4	9994.6
832.8976	729.3224	10534.05	9672.85
833.0425	731.4112	10229.9	9365
833.1874	733.4993	10012.95	9147.55
833.3324	735.5867	9874.7	9011.65
833.4773	737.6735	9810.75	8948.6
833.6222	739.7596	9765.05	8900.55
833.7672	741.845	9722.2	8858.7
833.9122	743.9298	9710.3	8842.7
834.0571	746.014	9725.85	8860.4
834.2021	748.0974	9715.3	8850.45
834.347	750.1802	9706.05	8842.7
834.492	752.2624	9725.9	8863.45
834.637	754.3439	9716.8	8849.85
834.782	756.4247	9781.95	8909.35
834.9269	758.5048	9817.6	8952.85
835.0719	760.5843	9964.35	9101.25
835.2169	762.6631	10200.4	9334.3
835.3619	764.7413	10570.3	9705.6
835.5069	766.8188	11033.7	10168.5
835.6519	768.8956	11441.15	10573.1
835.7969	770.9718	11731.3	10868.35
835.9419	773.0473	11634.5	10770.6
836.0869	775.1221	11306.3	10442.5
836.232	777.1962	10963.3	10096.55
836.377	779.2697	10782.2	9911.15
836.522	781.3426	10845.1	9960.55
836.667	783.4147	11086.15	10219.65
836.8121	785.4862	11415.05	10550.1
836.9571	787.557	11429.1	10564.5
837.1021	789.6271	11112.75	10244.8
837.2472	791.6966	10615.5	9749.2
837.3922	793.7654	10132.1	9266.65
837.5373	795.8335	9836.05	8967.9
837.6823	797.901	9661	8795.9
837.8274	799.9678	9605.8	8736.7
837.9724	802.0339	9608.35	8739.7
838.1175	804.0993	9664.9	8789.25
838.2626	806.1641	9666.8	8800.55
838.4076	808.2282	9594.8	8728.4
838.5527	810.2916	9495.95	8624.85
838.6978	812.3544	9408.7	8541.9
838.8428	814.4164	9315.85	8449.15
838.9879	816.4778	9294.25	8426.4
839.133	818.5385	9263	8393.05
839.2781	820.5986	9305.45	8438.85
839.4232	822.658	9331.1	8462.05
839.5682	824.7166	9360.8	8494.15
839.7133	826.7747	9468.5	8602.2
839.8584	828.832	9546.85	8679.8
840.0035	830.8886	9637.15	8765.9
840.1486	832.9446	9758.75	8887.7
840.2937	834.9999	9845.65	8978.5
840.4388	837.0545	9916.7	9043.65
840.5839	839.1085	9950.3	9083.4
840.729	841.1618	9969.15	9096.75
840.8741	843.2143	9955.15	9088.1
841.0192	845.2662	9899.15	9031
841.1643	847.3175	9838.4	8969.15
841.3095	849.368	9715.45	8844.95
841.4546	851.4179	9632.6	8763.65
841.5997	853.467	9479.3	8610.65
841.7448	855.5155	9339.8	8468.85
841.8899	857.5633	9253.75	8383.3
842.0351	859.6105	9154.8	8286.5
842.1802	861.6569	9059	8189.25
842.3253	863.7027	9003.75	8134.15
842.4704	865.7478	9009.55	8137.35
842.6156	867.7922	9004.8	8133.9
842.7607	869.8359	9038.05	8166.05
842.9058	871.8789	9140.2	8270
843.0509	873.9212	9303.6	8397.75
843.1961	875.9629	9424.95	8554.7
843.3412	878.0039	9581.35	8709.55
843.4863	880.0441	9664.5	8794.35
843.6315	882.0837	9683.7	8808.75
843.7766	884.1226	9557.15	8684.3
843.9218	886.1609	9408.6	8538.1
844.0669	888.1984	9260.3	8388.8
844.212	890.2352	9213.5	8344.9
844.3572	892.2714	9123.25	8243.65
844.5023	894.3069	9118.25	8244.25
844.6475	896.3416	9058.35	8185.95
844.7926	898.3757	9021.35	8150.25
844.9377	900.4091	9034.05	8162.3
845.0829	902.4418	9029.45	8153.65
845.228	904.4739	9022.85	8149.75
845.3732	906.5052	9001.15	8128.85
845.5183	908.5358	8898.55	8028.5
845.6635	910.5658	8758.05	7884.85
845.8086	912.595	8611.45	7739.4
845.9538	914.6236	8501.95	7630.05
846.0989	916.6515	8496.7	7623.9
846.2441	918.6786	8471.8	7594.95
846.3892	920.7051	8522.1	7647.55
846.5344	922.7309	8600.65	7728.15
846.6795	924.756	8662.5	7789.1
846.8246	926.7804	8730.95	7853.95
846.9698	928.8041	8719.25	7844.1
847.1149	930.8272	8723.1	7848.85
847.2601	932.8495	8657.35	7782.95
847.4052	934.8711	8583.65	7708.35
847.5504	936.892	8439.15	7567.4
847.6955	938.9123	8287.7	7415.65
847.8407	940.9318	8143.75	7269.65
847.9858	942.9506	8034.55	7158.1
848.131	944.9688	7962.3	7089.35
848.2761	946.9862	7911.05	7035.9
848.4213	949.003	7863.95	6985.85
848.5664	951.019	7852.3	6977.95
848.7115	953.0344	7874.85	6997.15
848.8567	955.0491	7897.3	7022.2
849.0018	957.063	7971.35	7096.2
849.147	959.0763	8061.6	7184.65
849.2921	961.0888	8074.05	7198.65
849.4373	963.1007	8153.75	7276.85
849.5824	965.1119	8183.15	7308.05
849.7275	967.1223	8209.15	7332.35
849.8727	969.1321	8223.25	7346.15
850.0178	971.1412	8257.45	7381.95
850.1629	973.1495	8264.75	7389.7
850.3081	975.1572	8327.05	7414.6
850.4532	977.1641	8329.4	7452.25
850.5983	979.1704	8300	7423.1
850.7435	981.1759	8278.25	7398.9
850.8886	983.1808	8338.85	7461
851.0337	985.1849	8430.6	7545.05
851.1788	987.1884	8577.6	7700.6
851.324	989.1911	8749.4	7870.6
851.4691	991.1932	8878.2	8000.55
851.6142	993.1945	8934.3	8057.75
851.7593	995.1951	8875.95	7998.35
851.9045	997.1951	8853.6	7971.95
852.0496	999.1943	8781.3	7908.15
852.1947	1001.1928	8723.75	7847.5
852.3398	1003.1906	8711.15	7833.55
852.4849	1005.1877	8750.4	7871.8
852.63	1007.1841	8693.65	7818
852.7751	1009.1798	8598.4	7721.2
852.9202	1011.1748	8432.75	7555.05
853.0653	1013.1691	8247.3	7370
853.2104	1015.1627	8036.6	7157.7
853.3555	1017.1556	7855.5	6980.2
853.5006	1019.1477	7793.8	6916.85
853.6457	1021.1392	7728.35	6853.1
853.7908	1023.1299	7708.55	6831.3
853.9359	1025.12	7756.55	6877.05
854.081	1027.1093	7773.9	6897.2
854.2261	1029.0979	7864.5	6989.8
854.3712	1031.0859	7914	7037
854.5163	1033.0731	7899.2	7020.95
854.6613	1035.0596	7800.95	6923.2
854.8064	1037.0454	7689.05	6810.95
854.9515	1039.0304	7588.1	6708.95
855.0965	1041.0148	7472.75	6596.6
855.2416	1042.9985	7414.25	6537.5
855.3867	1044.9814	7357.85	6483.85
855.5317	1046.9636	7327.55	6450.35
855.6768	1048.9452	7279.05	6403.85
855.8219	1050.926	7293.15	6417.1
855.9669	1052.9061	7263.05	6387.65
856.112	1054.8855	7247.9	6369.3
856.257	1056.8642	7279.25	6402.15
856.4021	1058.8421	7305.3	6422.8
856.5471	1060.8194	7318.9	6442.55
856.6921	1062.7959	7347.15	6469.35
856.8372	1064.7717	7366.35	6485.4
856.9822	1066.7469	7340.6	6462.15
857.1272	1068.7213	7328.1	6449.2
857.2723	1070.695	7285.95	6408.2
857.4173	1072.6679	7216.3	6338.15
857.5623	1074.6402	7169.85	6291.45
857.7073	1076.6117	7155.45	6272.3
857.8523	1078.5826	7163.4	6286.35
857.9973	1080.5527	7219.35	6338.9
858.1423	1082.5221	7364.15	6485.2
858.2873	1084.4908	7542.85	6663.2
858.4323	1086.4587	7743.3	6863.1
858.5773	1088.426	7870.9	6992.55
858.7223	1090.3925	7905.55	7020.05
858.8673	1092.3584	7818.55	6940.9
859.0123	1094.3235	7662.55	6785.55
859.1573	1096.2879	7564.25	6687.55
859.3022	1098.2515	7528.65	6649.05
859.4472	1100.2145	7559	6680.05
859.5922	1102.1767	7595.95	6716.3
859.7371	1104.1382	7705.35	6825.9
859.8821	1106.099	7859.5	6981.45
860.027	1108.0591	8053.7	7176.45
860.172	1110.0185	8182.15	7301.1
860.3169	1111.9771	8190.65	7313.3
860.4619	1113.9351	7963.9	7084.6
860.6068	1115.8923	7675.05	6797.85
860.7517	1117.8488	7366.5	6485.85
860.8967	1119.8045	7120.9	6241.55
861.0416	1121.7596	6980	6100.4
861.1865	1123.7139	6922.35	6044.05
861.3314	1125.6675	6931.95	6053.35
861.4763	1127.6204	6973.15	6092.6
861.6212	1129.5726	7002.75	6121.55
861.7661	1131.524	7031.3	6152.7
861.911	1133.4748	7074.2	6197.65
862.0559	1135.4248	7093.8	6212.75
862.2008	1137.3741	7099.2	6220.25
862.3457	1139.3226	7081.45	6201.9
862.4905	1141.2705	7061.35	6182.85
862.6354	1143.2176	7003.55	6120.2
862.7803	1145.164	7027.9	6147.65
862.9251	1147.1097	7025.35	6147
863.07	1149.0546	7006.55	6124
863.2148	1150.9989	6929.2	6049.7
863.3597	1152.9424	6777.05	5895.85
863.5045	1154.8852	6615.65	5733.95
863.6493	1156.8272	6481.75	5604.8
863.7942	1158.7686	6416.75	5529.1
863.939	1160.7092	6386.55	5506.35
864.0838	1162.6491	6373.4	5493.1
864.2286	1164.5883	6420.4	5540.85
864.3734	1166.5267	6487.1	5605.85
864.5182	1168.4644	6594.2	5713.65
864.663	1170.4014	6770.25	5886.55
864.8078	1172.3377	6960.2	6084.3
864.9526	1174.2732	7142.55	6262.4
865.0974	1176.2081	7319.7	6442.25
865.2421	1178.1421	7448.8	6564.45
865.3869	1180.0755	7555.9	6675.65
865.5317	1182.0082	7567.8	6688.1
865.6764	1183.9401	7506.65	6625.5
865.8212	1185.8713	7325.6	6444.35
865.9659	1187.8017	7102.65	6223.4
866.1106	1189.7315	6868.7	5990.9
866.2554	1191.6605	6686.4	5778.55
866.4001	1193.5888	6492.85	5612.2
866.5448	1195.5163	6383.85	5502.7
866.6895	1197.4432	6303.4	5420.05
866.8342	1199.3693	6230.5	5351.6
866.9789	1201.2947	6186.5	5304.2
867.1236	1203.2193	6176.4	5296.25
867.2683	1205.1432	6226	5347
867.413	1207.0664	6264.35	5385.5
867.5576	1208.9889	6324.5	5441.75
867.7023	1210.9106	6373.55	5494.7
867.847	1212.8316	6460.6	5580.95
867.9916	1214.7519	6521.05	5631.15
868.1363	1216.6715	6542.45	5665.8
868.2809	1218.5903	6530.4	5650.6
868.4255	1220.5084	6469.05	5587.75
868.5701	1222.4257	6438.45	5557.75
868.7148	1224.3424	6395.35	5516.45
868.8594	1226.2583	6443.8	5559.15
869.004	1228.1735	6529.25	5647.45
869.1486	1230.0879	6657.75	5777.05
869.2932	1232.0016	6752.4	5874.3
869.4377	1233.9146	6789.2	5907.6
869.5823	1235.8269	6717.05	5836.45
869.7269	1237.7384	6573.75	5695.15
869.8715	1239.6492	6430.4	5551.1
870.016	1241.5592	6314.1	5431.7
870.1606	1243.4686	6233.45	5353
870.3051	1245.3772	6193.25	5315.55
870.4496	1247.285	6121.95	5240.35
870.5941	1249.1922	6090.95	5210.75
870.7387	1251.0986	6094.45	5214.4
870.8832	1253.0042	6090.9	5209.55
871.0277	1254.9092	6155.5	5274.15
871.1722	1256.8134	6223	5344.4
871.3167	1258.7169	6351.3	5470.95
871.4611	1260.6196	6487.7	5608.7
871.6056	1262.5216	6642.7	5761.2
871.7501	1264.4229	6752.2	5871.35
871.8945	1266.3234	6853.85	5972.95
872.039	1268.2232	6874.55	5992.75
872.1834	1270.1223	6871.45	5989.7
872.3278	1272.0207	6837.3	5957.35
872.4723	1273.9183	6813.2	5926.25
872.6167	1275.8151	6736.15	5854.05
872.7611	1277.7113	6644.4	5764.5
872.9055	1279.6067	6528.45	5649.5
873.0499	1281.5014	6365.95	5481.15
873.1943	1283.3953	6238.75	5356.2
873.3386	1285.2885	6176.1	5295
873.483	1287.181	6115.95	5233
873.6274	1289.0727	6114.3	5235.05
873.7717	1290.9637	6147.1	5266.3
873.9161	1292.854	6257.4	5377.6
874.0604	1294.7435	6390.7	5511.1
874.2047	1296.6323	6557.8	5676.6
874.349	1298.5204	6786.05	5901.65
874.4933	1300.4077	7005.4	6123.65
874.6376	1302.2943	7183.75	6301.75
874.7819	1304.1802	7242.8	6360.85
874.9262	1306.0653	7214.9	6331.1
875.0705	1307.9497	7103.45	6219.8
875.2147	1309.8333	7019.15	6139.35
875.359	1311.7162	7020.75	6139.7
875.5032	1313.5984	7093.5	6211.05
875.6475	1315.4798	7236.1	6342.35
875.7917	1317.3605	7368.6	6471.1
875.9359	1319.2405	7488.15	6603.2
876.0801	1321.1197	7560.65	6677.55
876.2243	1322.9982	7522.65	6638.65
876.3685	1324.876	7504.25	6623.85
876.5127	1326.753	7458.05	6578.35
876.6569	1328.6293	7470.45	6587.8
876.801	1330.5048	7485.95	6603.75
876.9452	1332.3796	7456.9	6576.55
877.0893	1334.2537	7463.4	6556.95
877.2335	1336.127	7408	6527.6
877.3776	1337.9996	7355.05	6472.8
877.5217	1339.8714	7324	6442.45
877.6658	1341.7426	7307.1	6379.3
877.8099	1343.6129	7225.45	6344.1
877.954	1345.4826	7144	6261.45
878.0981	1347.3515	7106.4	6222.45
878.2422	1349.2196	7052.45	6169.8
878.3862	1351.087	7070.7	6188.05
878.5303	1352.9537	7088.7	6206.8
878.6743	1354.8197	7194.8	6312.3
878.8184	1356.6849	7317.6	6436.85
878.9624	1358.5493	7405.4	6523.4
879.1064	1360.4131	7408	6527.15
879.2504	1362.276	7337.45	6455
879.3944	1364.1383	7207	6325.5
879.5384	1365.9998	7008.5	6120.05
879.6823	1367.8606	6745.85	5862.6
879.8263	1369.7206	6555.55	5672.5
879.9702	1371.5799	6402.1	5517.2
880.1142	1373.4384	6311.55	5431.95
880.2581	1375.2962	6201.2	5318.15
880.402	1377.1533	6010.45	5128.85
880.5459	1379.0096	5780.4	4898.55
880.6898	1380.8652	5538.25	4655.25
880.8337	1382.7201	5339.65	4457.25
880.9776	1384.5742	5197.2	4314.5
881.1215	1386.4275	5058.8	4176.85
881.2653	1388.2802	4951.75	4069.85
881.4092	1390.132	4881.5	4000.25
881.553	1391.9832	4831.8	3949.25
881.6968	1393.8336	4786.15	3902.9
881.8406	1395.6832	4743.45	3860.2
881.9844	1397.5322	4726.25	3844.15
882.1282	1399.3803	4706.05	3818.35
882.272	1401.2278	4698.5	3815.65
882.4158	1403.0745	4689.95	3810.15
882.5595	1404.9204	4688.65	3806.45
882.7033	1406.7656	4707.5	3824.35
882.847	1408.6101	4718.95	3833.85
882.9908	1410.4538	4735.75	3852.45
883.1345	1412.2968	4777.35	3894.15
883.2782	1414.139	4823.2	3940.55
883.4219	1415.9805	4883.35	4003.3
883.5656	1417.8213	4969.9	4082.9
883.7092	1419.6613	5084.4	4203.2
883.8529	1421.5006	5244.85	4361.7
883.9965	1423.3391	5472.25	4588.55
884.1402	1425.1769	5792.25	4907.2
884.2838	1427.0139	6252.15	5369.8
884.4274	1428.8502	6779.7	5897.15
884.571	1430.6858	7306.35	6422.95
884.7146	1432.5206	7701.65	6818.6
884.8582	1434.3547	7903.55	7019.35
885.0018	1436.188	7962.35	7079.9
885.1453	1438.0206	7892.2	7010.55
885.2889	1439.8524	7768.8	6886.4
885.4324	1441.6835	7683.1	6800.2
885.5759	1443.5139	7618.2	6733.45
885.7194	1445.3435	7556.45	6675.8
885.8629	1447.1724	7502.7	6621.1
886.0064	1449.0005	7441.45	6557.45
886.1499	1450.8279	7356.15	6471.25
886.2933	1452.6545	7326.75	6444.7
886.4368	1454.4804	7360.3	6477.55
886.5802	1456.3056	7342.85	6451.4
886.7237	1458.13	7252	6372.15
886.8671	1459.9536	7048.1	6165.85
887.0105	1461.7766	6746.2	5862
887.1539	1463.5987	6375.2	5493.75
887.2972	1465.4202	6025.95	5143.35
887.4406	1467.2409	5723.2	4840.25
887.584	1469.0608	5489.1	4609.5
887.7273	1470.88	5275.5	4393.1
887.8706	1472.6984	5062.1	4179.95
888.0139	1474.5161	4895.35	4011.8
888.1572	1476.3331	4764.55	3883.15
888.3005	1478.1493	4669.4	3783.95
888.4438	1479.9648	4568.05	3686.45
888.5871	1481.7795	4501.15	3617.8
888.7303	1483.5935	4433.05	3552.3
888.8736	1485.4067	4389.25	3508.2
889.0168	1487.2192	4342.35	3458.25
889.16	1489.031	4307	3423.05
889.3032	1490.842	4272.95	3388.85
889.4464	1492.6522	4244.2	3361.5
889.5896	1494.4618	4216.3	3330.35
889.7327	1496.2705	4205.75	3322.55
889.8759	1498.0785	4180.55	3299.25
890.019	1499.8858	4165.8	3284.15
890.1622	1501.6924	4141.35	3258.4
890.3053	1503.4981	4122.75	3240.3
890.4484	1505.3032	4113.95	3233.35
890.5914	1507.1075	4095.75	3212.6
890.7345	1508.911	4072.1	3189.4
890.8776	1510.7138	4041.35	3159.05
891.0206	1512.5159	4018.45	3136.95
891.1637	1514.3172	4006.4	3124.65
891.3067	1516.1178	3965.15	3082.85
891.4497	1517.9176	3960.45	3073.2
891.5927	1519.7166	3940.3	3056.3
891.7357	1521.515	3912.35	3022.95
891.8786	1523.3126	3908.35	3025.8
892.0216	1525.1094	3879.95	2997.95
892.1645	1526.9055	3857.5	2977.8
892.3074	1528.7008	3843.2	2959.1
892.4503	1530.4954	3814.4	2931.65
892.5932	1532.2893	3825.35	2943.25
892.7361	1534.0824	3810.4	2922.65
892.879	1535.8747	3801.25	2920.3
893.0218	1537.6663	3797.75	2914.8
893.1647	1539.4572	3775.5	2892
893.3075	1541.2473	3790.6	2904.1
893.4503	1543.0367	3792.4	2910.55
893.5931	1544.8253	3769.05	2881.7
893.7359	1546.6132	3793.2	2908.75
893.8787	1548.4003	3788.2	2898.45
894.0214	1550.1867	3804.55	2915.5
894.1642	1551.9723	3797.7	2909.6
894.3069	1553.7572	3804.7	2922.8
894.4496	1555.5414	3835.65	2952.6
894.5923	1557.3247	3864.8	2982.9
894.735	1559.1074	3904.9	3024.1
894.8777	1560.8893	3945.5	3064.7
895.0204	1562.6705	3982.95	3099.95
895.163	1564.4509	4059.55	3177.75
895.3056	1566.2305	4111.95	3230.35
895.4482	1568.0094	4204.55	3322
895.5908	1569.7876	4276.9	3396.25
895.7334	1571.565	4349.75	3465.8
895.876	1573.3417	4379.8	3498.55
896.0186	1575.1176	4377.4	3495.05
896.1611	1576.8928	4370.25	3486.45
896.3036	1578.6672	4303.8	3424
896.4461	1580.4409	4207.25	3326.3
896.5886	1582.2138	4102.65	3218.5
896.7311	1583.986	3990.05	3105.15
896.8736	1585.7575	3913.95	3032.95
897.0161	1587.5282	3841.1	2958.25
897.1585	1589.2981	3795.15	2914.8
897.3009	1591.0673	3764.25	2881.6
897.4433	1592.8358	3740.6	2862.65
897.5857	1594.6035	3736.65	2852.1
897.7281	1596.3704	3725.7	2842.4
897.8705	1598.1366	3734.35	2852.6
898.0128	1599.9021	3752.3	2871.3
898.1551	1601.6668	3779.75	2896.25
898.2975	1603.4308	3839.95	2957.7
898.4398	1605.194	3886.85	3000.1
898.5821	1606.9564	3946.15	3066.05
898.7243	1608.7182	4051.5	3164.7
898.8666	1610.4791	4153.4	3271
899.0088	1612.2394	4297.95	3415.95
899.1511	1613.9988	4460.5	3577.45
899.2933	1615.7576	4648.85	3767.35
899.4355	1617.5156	4852.4	3965.05
899.5776	1619.2728	5047.8	4167.2
899.7198	1621.0293	5185.05	4303.75
899.862	1622.785	5275.7	4390.15
900.0041	1624.54	5242.85	4359.25
900.1462	1626.2942	5124.55	4243.25
900.2883	1628.0477	4918.65	4034.35
900.4304	1629.8005	4718.25	3831.1
900.5725	1631.5525	4521.8	3638.65
900.7145	1633.3037	4326	3444.1
900.8566	1635.0542	4195.55	3312.8
900.9986	1636.804	4083.35	3201.05
901.1406	1638.553	4069.05	3112.8
901.2826	1640.3013	3974.1	3093.2
901.4245	1642.0488	3949.4	3067.6
901.5665	1643.7955	3929.8	3049.65
901.7085	1645.5416	3941.35	3056.45
901.8504	1647.2868	4002.55	3120.9
901.9923	1649.0313	4057.85	3176.1
902.1342	1650.7751	4173.85	3290.35
902.2761	1652.5181	4328.1	3446
902.4179	1654.2604	4544.4	3662
902.5598	1656.0019	4817	3936.8
902.7016	1657.7427	5138.2	4258.1
902.8434	1659.4828	5425.4	4544.95
902.9852	1661.222	5634.15	4751.15
903.127	1662.9606	5671.3	4788.7
903.2687	1664.6984	5508.25	4626.25
903.4105	1666.4354	5211	4328.65
903.5522	1668.1717	4847.6	3966.8
903.6939	1669.9072	4467.65	3587.3
903.8356	1671.642	4159.55	3277.05
903.9773	1673.3761	3895.65	3016.7
904.119	1675.1094	3703.7	2823.05
904.2606	1676.8419	3560.45	2679.1
904.4022	1678.5737	3452.9	2570.85
904.5439	1680.3048	3378.1	2498
904.6855	1682.0351	3312.65	2431.55
904.827	1683.7646	3260.95	2377.4
904.9686	1685.4934	3214.7	2334.1
905.1101	1687.2215	3196.05	2314.9
905.2517	1688.9488	3165.55	2285.5
905.3932	1690.6754	3139.45	2259.85
905.5347	1692.4012	3127.9	2249.05
905.6761	1694.1263	3100.95	2222.15
905.8176	1695.8506	3085.7	2204.65
905.9591	1697.5742	3064.4	2181.3
906.1005	1699.297	3041.95	2163.5
906.2419	1701.0191	3026	2145.1
906.3833	1702.7404	3012.55	2132.7
906.5246	1704.461	2992.4	2110.95
906.666	1706.1808	2975.1	2089.6
906.8073	1707.8999	2964.75	2084.25
906.9487	1709.6182	2956.5	2074.5
907.09	1711.3358	2955.35	2075.35
907.2313	1713.0527	2949.15	2070.35
907.3725	1714.7688	2938.9	2054.05
907.5138	1716.4841	2908.9	2027
907.655	1718.1987	2912.1	2027.15
907.7962	1719.9126	2898.65	2019.6
907.9374	1721.6257	2897.2	2012.2
908.0786	1723.338	2884.5	2001.75
908.2198	1725.0496	2870.4	1988.25
908.3609	1726.7605	2854.7	1972.8
908.502	1728.4706	2845.75	1962.75
908.6431	1730.18	2838.2	1955.7
908.7842	1731.8886	2832.65	1950.7
908.9253	1733.5964	2826.4	1942.35
909.0664	1735.3036	2824.2	1942.35
909.2074	1737.0099	2810.45	1928.8
909.3484	1738.7156	2793.2	1913.65
909.4894	1740.4204	2795.15	1909.2
909.6304	1742.1246	2798.75	1917.75
909.7714	1743.8279	2779.55	1899.05
909.9123	1745.5306	2781.5	1899.15
910.0532	1747.2325	2765.75	1885.55
910.1941	1748.9336	2767.3	1888.8
910.335	1750.634	2754.1	1871.25
910.4759	1752.3336	2741.2	1862.7
910.6168	1754.0325	2741.65	1859.65
910.7576	1755.7307	2724	1844.9
910.8984	1757.4281	2738.75	1857
911.0392	1759.1247	2736	1847.05
911.18	1760.8206	2720.95	1834.55
911.3208	1762.5158	2710.45	1824.6
911.4615	1764.2102	2705.05	1826.2
911.6022	1765.9039	2698.65	1818.1
911.7429	1767.5968	2690	1808.85
911.8836	1769.289	2688.45	1807.8
912.0243	1770.9804	2686.45	1802.35
912.1649	1772.6711	2686	1804.3
912.3056	1774.361	2678.15	1796.7
912.4462	1776.0502	2674.75	1794.05
912.5868	1777.7386	2671.6	1786.4
912.7274	1779.4263	2655.6	1774
912.8679	1781.1132	2651.5	1771.95
913.0084	1782.7994	2647.75	1767.75
913.149	1784.4849	2649.05	1766.45
913.2895	1786.1696	2661.55	1762.45
913.4299	1787.8535	2629.55	1749.55
913.5704	1789.5367	2633.95	1752.25
913.7108	1791.2192	2624.1	1743.45
913.8513	1792.9009	2645.35	1737.25
913.9917	1794.5818	2606.8	1726.15
914.132	1796.2621	2605.75	1726.9
914.2724	1797.9415	2604.9	1722.4
914.4128	1799.6202	2598	1720.25
914.5531	1801.2982	2599.8	1716.5
914.6934	1802.9755	2591.45	1710.45
914.8337	1804.6519	2588.85	1708.25
914.9739	1806.3277	2584.9	1705.25
915.1142	1808.0027	2571.7	1691.55
915.2544	1809.6769	2570.8	1688.2
915.3946	1811.3504	2578.55	1695.3
915.5348	1813.0231	2576.3	1695
915.675	1814.6951	2559.25	1677.7
915.8151	1816.3664	2562.7	1679.65
915.9553	1818.0369	2566.5	1685.85
916.0954	1819.7067	2552.6	1671.85
916.2355	1821.3757	2544.55	1660.45
916.3755	1823.044	2555.9	1674.3
916.5156	1824.7115	2539.65	1659.1
916.6556	1826.3783	2528.45	1647.75
916.7956	1828.0443	2528.95	1649.5
916.9356	1829.7096	2520.35	1638.5
917.0756	1831.3741	2522.05	1637.25
917.2155	1833.0379	2507.8	1627.55
917.3555	1834.701	2516.55	1634.9
917.4954	1836.3633	2515.4	1635.2
917.6353	1838.0248	2507.45	1625.55
917.7751	1839.6856	2497.1	1615.8
917.915	1841.3457	2494.4	1616.15
918.0548	1843.005	2489.3	1607.9
918.1946	1844.6636	2487.35	1607.7
918.3344	1846.3214	2486.7	1605.4
918.4742	1847.9785	2483.15	1603.45
918.6139	1849.6349	2488.1	1605.85
918.7537	1851.2904	2470.2	1581.05
918.8934	1852.9453	2488.15	1608.35
919.0331	1854.5994	2471.85	1589.25
919.1727	1856.2528	2478	1592.75
919.3124	1857.9054	2467.2	1586.05
919.452	1859.5572	2475.85	1596.9
919.5916	1861.2083	2463.25	1580.95
919.7312	1862.8587	2464.4	1584.05
919.8708	1864.5084	2459.75	1580.85
920.0103	1866.1572	2441.9	1563.5
920.1498	1867.8054	2424.4	1543.95
920.2893	1869.4528	2425.6	1544.55
920.4288	1871.0994	2427.65	1548.25
920.5683	1872.7453	2426	1543.1
920.7077	1874.3905	2439.7	1552.45
920.8471	1876.0349	2417.45	1536.75
920.9865	1877.6786	2417.4	1534.7
921.1259	1879.3215	2421.35	1541.5
921.2653	1880.9637	2411.3	1529.7
921.4046	1882.6051	2416.1	1536.75
921.5439	1884.2458	2408.1	1525.4
921.6832	1885.8858	2395.6	1515.15
921.8225	1887.525	2397.25	1516.05
921.9617	1889.1634	2385.8	1504.8
922.101	1890.8011	2377.1	1495.75
922.2402	1892.4381	2367.25	1487.85
922.3794	1894.0743	2375.6	1495.1
922.5185	1895.7098	2365.15	1485.55
922.6577	1897.3446	2367.15	1484.65
922.7968	1898.9786	2375.35	1490.45
922.9359	1900.6118	2351.25	1472.5
923.075	1902.2443	2354.9	1471.1
923.214	1903.8761	2359.8	1480.05
923.3531	1905.5071	2344.25	1463.55
923.4921	1907.1374	2336.05	1455.15
923.6311	1908.7669	2332.6	1452.05
923.77	1910.3957	2337.65	1456.85
923.909	1912.0237	2323.7	1443.1
924.0479	1913.651	2324.9	1444.75
924.1868	1915.2776	2309.3	1429.6
924.3257	1916.9034	2313.9	1434.95
924.4646	1918.5285	2307.3	1428.2
924.6034	1920.1528	2305.15	1424.2
924.7422	1921.7764	2306.4	1426.6
924.881	1923.3992	2294	1414.2
925.0198	1925.0213	2282.5	1401.9
925.1586	1926.6427	2274.8	1393.8
925.2973	1928.2633	2480.45	1374
925.436	1929.8832	2295.85	1413.2
925.5747	1931.5023	2269.25	1387.5
925.7134	1933.1207	2273.25	1392.25
925.852	1934.7383	2255.55	1373.3
925.9906	1936.3552	2254.2	1374.6
926.1292	1937.9714	2250.3	1368.95
926.2678	1939.5868	2240.65	1358.85
926.4064	1941.2015	2241.65	1359.55
926.5449	1942.8154	2231.7	1350.5
926.6834	1944.4286	2222.6	1341.9
926.8219	1946.041	2250.45	1346.95
926.9604	1947.6528	2225	1340.35
927.0988	1949.2637	2217.3	1338.95
927.2372	1950.8739	2207.7	1325.6
927.3756	1952.4834	2209.5	1327.1
927.514	1954.0921	2211.05	1330.5
927.6523	1955.7001	2212.1	1326.35
927.7907	1957.3074	2192.1	1313.4
927.929	1958.9139	2181.45	1300.2
928.0673	1960.5197	2185.3	1303.5
928.2055	1962.1247	2165.7	1283.55
928.3438	1963.729	2161.45	1282.15
928.482	1965.3325	2188.65	1282.1
928.6202	1966.9353	2166.2	1287.35
928.7584	1968.5374	2156.6	1274.5
928.8965	1970.1387	2151.85	1270.15
929.0346	1971.7393	2153.3	1271.6
929.1727	1973.3392	2143.9	1263.35
929.3108	1974.9383	2140.15	1260.7
929.4489	1976.5366	2138.2	1258.5
929.5869	1978.1342	2144.25	1262.4
929.7249	1979.7311	2132.1	1250.4
929.8629	1981.3273	2129.8	1247.85
930.0009	1982.9227	2126.05	1244.25
930.1388	1984.5173	2122.35	1242.85
930.2767	1986.1112	2111.85	1231.4
930.4146	1987.7044	2110.15	1232.15
930.5525	1989.2968	2103.45	1224.3
930.6904	1990.8885	2099.65	1216.7
930.8282	1992.4795	2091.25	1208.55
930.966	1994.0697	2095.05	1214.6
931.1038	1995.6592	2086.9	1207.2
931.2415	1997.2479	2091.6	1211.1
931.3793	1998.8359	2074.6	1192.8
931.517	2000.4232	2080.9	1200.25
931.6547	2002.0097	2064.65	1185.35
931.7923	2003.5955	2065.75	1183.6
931.93	2005.1805	2064.9	1182.15
932.0676	2006.7648	2068.6	1188.35
932.2052	2008.3484	2059.25	1176.85
932.3427	2009.9312	2069.15	1185.9
932.4803	2011.5133	2054	1174.7
932.6178	2013.0946	2055.75	1174.35
932.7553	2014.6752	2046.35	1163.9
932.8928	2016.2551	2054.3	1173
933.0302	2017.8342	2038.1	1157.25
933.1676	2019.4126	2037.25	1160.05
933.305	2020.9902	2033.6	1152.55
933.4424	2022.5672	2032.95	1149.6
933.5798	2024.1433	2040.9	1154.25
933.7171	2025.7188	2023.35	1144.3
933.8544	2027.2935	2028.05	1144.5
933.9917	2028.8674	2009.35	1129.45
934.129	2030.4406	2020.75	1141.9
934.2662	2032.0131	2001.35	1121.1
934.4034	2033.5849	2007.35	1117.65
934.5406	2035.1559	1989.8	1108.75
934.6778	2036.7261	1996.8	1116.15
934.8149	2038.2957	2002.05	1121.65
934.952	2039.8645	1991.55	1112.55
935.0891	2041.4325	2007.75	1124.15
935.2262	2042.9998	1989.65	1109.1
935.3632	2044.5664	1989	1106.2
935.5002	2046.1323	1993.6	1113.35
935.6372	2047.6974	1983.7	1102.75
935.7742	2049.2617	1978.7	1097.9
935.9111	2050.8254	1994.45	1093.05
936.048	2052.3883	1978.6	1095.8
936.1849	2053.9504	1977.55	1096.4
936.3218	2055.5118	1971.55	1089.15
936.4586	2057.0725	1965.95	1079.75
936.5955	2058.6325	1969.4	1088.35
936.7323	2060.1917	1962.2	1080.55
936.869	2061.7502	1955.5	1071.9
937.0058	2063.3079	1955.85	1076.2
937.1425	2064.8649	1957.85	1074.25
937.2792	2066.4212	1950.15	1068.95
937.4159	2067.9767	1948.25	1069.4
937.5525	2069.5315	1942.7	1063.15
937.6891	2071.0856	1936.45	1053.1
937.8257	2072.6389	1920.8	1037.35
937.9623	2074.1915	1927.7	1048.8
938.0989	2075.7433	1928.3	1045.25
938.2354	2077.2945	1917.65	1036.4
938.3719	2078.8448	1912.9	1031.7
938.5084	2080.3945	1908.7	1028
938.6448	2081.9434	1915	1035.4
938.7812	2083.4916	1904.35	1024
938.9176	2085.039	1902.2	1020.2
939.054	2086.5857	1901.35	1018.55
939.1903	2088.1317	1902.95	1022.25
939.3267	2089.677	1895.65	1015.9
939.463	2091.2215	1891.85	1011.1
939.5992	2092.7652	1893.6	1014.4
939.7355	2094.3083	1887.8	1008.1
939.8717	2095.8506	1877.8	998.25
940.0079	2097.3921	1890.6	1010.85
940.1441	2098.933	1887.7	1007.6
940.2802	2100.4731	1876.35	996.45
940.4163	2102.0124	1877.9	990
940.5524	2103.5511	1872.05	989.5
940.6885	2105.089	1866.85	984
940.8245	2106.6261	1876.45	996.25
940.9606	2108.1626	1870	986.55
941.0965	2109.6983	1893.8	983
941.2325	2111.2332	1866.8	983.6
941.3684	2112.7675	1860.5	980.35
941.5044	2114.301	1857.55	975.4
941.6403	2115.8337	1854.25	971.35
941.7761	2117.3657	1858.85	978.75
941.912	2118.897	1863.1	981.75
942.0478	2120.4276	1855.3	969
942.1835	2121.9575	1840.85	960.75
942.3193	2123.4866	1854.85	958.4
942.455	2125.0149	1840.4	957.55
942.5907	2126.5426	1842.5	960.05
942.7264	2128.0695	1840.9	955.6
942.8621	2129.5956	1833.85	954.3
942.9977	2131.1211	1841.1	956
943.1333	2132.6458	1824.2	944.45
943.2689	2134.1698	1828.1	947.45
943.4044	2135.693	1818.5	935.7
943.54	2137.2155	1823.65	941.8
943.6755	2138.7373	1829.25	947.85
943.8109	2140.2584	1814.55	931.6
943.9464	2141.7787	1813.8	926.35
944.0818	2143.2983	1806.5	927.35
944.2172	2144.8171	1809.3	930
944.3526	2146.3353	1807.3	925.2
944.4879	2147.8527	1794.55	913.65
944.6232	2149.3693	1803.85	922.55
944.7585	2150.8853	1800.4	920.25
944.8938	2152.4005	1790.85	910.2
945.029	2153.9149	1794.45	914.45
945.1642	2155.4287	1790.35	911.05
945.2994	2156.9417	1792.6	911.15
945.4346	2158.454	1788.55	905.6
945.5697	2159.9655	1778.55	896.35
945.7048	2161.4764	1783.25	902.05
945.8399	2162.9865	1777.4	897
945.9749	2164.4958	1771.65	889.6
946.1099	2166.0045	1769.65	883.9
946.2449	2167.5124	1772.45	891.25
946.3799	2169.0195	1775.45	892.9
946.5148	2170.526	1771.25	891.4
946.6498	2172.0317	1771.75	890.8
946.7846	2173.5367	1766.5	883.95
946.9195	2175.0409	1764.35	885.85
947.0543	2176.5445	1761.05	882.45
947.1891	2178.0473	1762.5	880.25
947.3239	2179.5494	1758.9	875.9
947.4587	2181.0507	1742.9	864.25
947.5934	2182.5513	1745.85	865.1
947.7281	2184.0512	1747.2	866.25
947.8628	2185.5504	1748.25	867.65
947.9974	2187.0488	1733.3	855.55
948.132	2188.5465	1736.75	855.3
948.2666	2190.0435	1737.65	857.35
948.4012	2191.5397	1728.15	847.2
948.5357	2193.0353	1721.15	838.6
948.6702	2194.5301	1733.55	852.25
948.8047	2196.0241	1717.35	835.75
948.9392	2197.5175	1715.2	834.25
949.0736	2199.0101	1717.55	835.75
949.208	2200.502	1713.3	833.35
949.3424	2201.9931	1709.55	827.95
949.4767	2203.4835	1706.45	823
949.611	2204.9733	1715.05	827.6
949.7453	2206.4622	1704.9	825.4
949.8796	2207.9505	1703.15	818.65
950.0138	2209.438	1696.3	815.5
950.148	2210.9248	1700.2	818.3
950.2822	2212.4109	1690.35	808.35
950.4164	2213.8962	1690.3	807
950.5505	2215.3809	1697.45	816.3
950.6846	2216.8648	1692.6	813.2
950.8186	2218.3479	1697.8	811.85
950.9527	2219.8304	1691.65	809.45
951.0867	2221.3121	1685.5	801.75
951.2207	2222.7931	1674.5	794.2
951.3546	2224.2733	1674.7	793.4
951.4886	2225.7529	1676.55	795.85
951.6225	2227.2317	1673.6	787.75
951.7563	2228.7098	1671.55	787.9
951.8902	2230.1872	1664.5	783.2
952.024	2231.6638	1655.05	774.9
952.1578	2233.1397	1670.8	781.4
952.2916	2234.6149	1658.3	777.15
952.4253	2236.0894	1652.2	770.95
952.559	2237.5632	1656.45	764.15
952.6927	2239.0362	1640	758.15
952.8263	2240.5085	1646.8	765.1
952.9599	2241.9801	1640.1	758.55
953.0935	2243.4509	1637.95	756.8
953.2271	2244.921	1636.5	754.05
953.3606	2246.3904	1635.9	752.5
953.4941	2247.8591	1635.1	755.6
953.6276	2249.3271	1620.45	739.45
953.7611	2250.7943	1622.9	741.6
953.8945	2252.2608	1620.55	740.05
954.0279	2253.7266	1621.75	740.05
954.1612	2255.1917	1615.25	733.45
954.2946	2256.656	1613.15	731.8
954.4279	2258.1197	1610.65	731.95
954.5612	2259.5826	1620.6	736.6
954.6944	2261.0447	1609.15	727.25
954.8276	2262.5062	1607.6	725.3
954.9608	2263.9669	1609.7	727.45
955.094	2265.4269	1607.2	727.65
955.2271	2266.8862	1608.7	727.2
955.3602	2268.3448	1601.15	719.75
955.4933	2269.8026	1603.75	723.25
955.6264	2271.2598	1598.65	719.25
955.7594	2272.7162	1589.8	710.75
955.8924	2274.1719	1599.85	718.3
956.0253	2275.6268	1602.65	723.4
956.1583	2277.0811	1593.8	713.5
956.2912	2278.5346	1597.35	716.2
956.4241	2279.9874	1595.4	712.15
956.5569	2281.4395	1585.55	707.25
956.6897	2282.8908	1590.45	705.65
956.8225	2284.3414	1590	708.55
956.9553	2285.7914	1579.55	699.8
957.088	2287.2406	1588.45	705.05
957.2207	2288.689	1579.3	698.2
957.3534	2290.1368	1584.55	702.85
957.486	2291.5838	1575.25	693.1
957.6186	2293.0302	1573.3	691.1
957.7512	2294.4758	1574.4	693.1
957.8838	2295.9206	1568.8	684.8
958.0163	2297.3648	1570.4	690.6
958.1488	2298.8082	1569.8	687
958.2813	2300.251	1556.55	677.15
958.4137	2301.693	1570.45	686.3
958.5461	2303.1343	1556.45	675.95
958.6785	2304.5748	1556.4	672.85
958.8108	2306.0147	1559.7	676.9
958.9432	2307.4538	1561.4	676.8
959.0754	2308.8922	1554.35	673.95
959.2077	2310.3299	1547.65	665
959.3399	2311.7669	1540.25	659.7
959.4721	2313.2031	1538.8	658.25
959.6043	2314.6387	1544.95	664.05
959.7365	2316.0735	1531.9	650.6
959.8686	2317.5076	1534.75	652.15
960.0006	2318.941	1532.35	652.8
960.1327	2320.3737	1535.2	652.35
960.2647	2321.8056	1537	654.5
960.3967	2323.2369	1536.95	656.1
960.5287	2324.6674	1539.8	656.7
960.6606	2326.0972	1526.7	645.55
960.7925	2327.5263	1535.15	654.05
960.9244	2328.9547	1523.35	643.35
961.0562	2330.3823	1523.45	643.05
961.1881	2331.8092	1520.75	637.85
961.3198	2333.2355	1517.45	634.95
961.4516	2334.661	1522.2	641.05
961.5833	2336.0858	1515	632.75
961.715	2337.5098	1519.95	640
961.8467	2338.9332	1519.95	635.65
961.9783	2340.3558	1516.25	633.15
962.1099	2341.7778	1513.25	632.05
962.2415	2343.199	1510	627.25
962.373	2344.6195	1510.8	628.95
962.5045	2346.0393	1507	628.4
962.636	2347.4583	1502.45	620.3
962.7675	2348.8767	1507.85	626.2
962.8989	2350.2943	1505.65	625.2
963.0303	2351.7113	1505.15	621.2
963.1617	2353.1275	1501.3	620.75
963.293	2354.543	1528.75	624.25
963.4243	2355.9578	1502.8	622.65
963.5556	2357.3718	1494.65	614.15
963.6868	2358.7852	1488.15	604.05
963.818	2360.1978	1495.95	616.75
963.9492	2361.6098	1490.2	608.2
964.0803	2363.021	1495.6	610.4
964.2114	2364.4315	1493.15	611.45
964.3425	2365.8413	1495.1	613.3
964.4736	2367.2504	1483.2	604.45
964.6046	2368.6587	1479.55	599.1
964.7356	2370.0664	1481.6	600
964.8666	2371.4733	1474.2	594.2
964.9975	2372.8795	1469.15	587.65
965.1284	2374.285	1471.1	591.95
965.2593	2375.6899	1477.05	596.95
965.3901	2377.0939	1470	591.2
965.5209	2378.4973	1469.05	588.75
965.6517	2379.9	1459.65	578.8
965.7825	2381.3019	1462.4	581.9
965.9132	2382.7032	1455.6	575.7
966.0439	2384.1037	1461.4	583.7
966.1745	2385.5035	1461.75	581.1
966.3051	2386.9027	1460.15	579.45
966.4357	2388.3011	1453.4	568.85
966.5663	2389.6987	1452.2	571.9
966.6968	2391.0957	1449.6	569.3
966.8273	2392.492	1445.05	565.75
966.9578	2393.8876	1445.25	565
967.0882	2395.2824	1445.8	565.85
967.2186	2396.6765	1437.35	556.85
967.349	2398.07	1434.45	555.25
967.4793	2399.4627	1437.5	557.55
967.6097	2400.8547	1438.95	560
967.7399	2402.246	1441.75	556.7
967.8702	2403.6366	1436.9	557.1
968.0004	2405.0265	1430.65	551.5
968.1306	2406.4156	1430.45	545.65
968.2607	2407.8041	1427.4	542.4
968.3909	2409.1918	1429.75	546.1
968.521	2410.5789	1430.45	550.35
968.651	2411.9652	1424.9	541.2
968.781	2413.3508	1423.1	541.55
968.911	2414.7358	1412.55	533.9
969.041	2416.12	1418.75	538.55
969.1709	2417.5035	1420.3	539.75
969.3008	2418.8863	1421.4	541.1
969.4307	2420.2684	1411.55	531.7
969.5606	2421.6497	1414.6	534.05
969.6904	2423.0304	1414.75	536.3
969.8201	2424.4104	1410.05	530.55
969.9499	2425.7896	1412.55	523.95
970.0796	2427.1682	1404.5	524.9
970.2093	2428.546	1415.5	533.1
970.3389	2429.9232	1405.4	523.8
970.4685	2431.2996	1408.5	525.95
970.5981	2432.6753	1398.45	518.55
970.7277	2434.0503	1404.7	523.5
970.8572	2435.4246	1392.25	512.6
970.9867	2436.7982	1395.25	513.35
971.1161	2438.1711	1400.25	521.7
971.2456	2439.5433	1399.75	518.95
971.375	2440.9148	1396.85	512.55
971.5043	2442.2856	1388.2	508.65
971.6336	2443.6557	1389.6	507.15
971.7629	2445.025	1380.6	502.05
971.8922	2446.3937	1382.65	501.9
972.0214	2447.7617	1384.05	504.2
972.1506	2449.1289	1387.75	507.65
972.2798	2450.4955	1384.4	499.15
972.4089	2451.8613	1382	502.15
972.538	2453.2265	1383.9	505.1
972.6671	2454.5909	1381.05	500.65
972.7961	2455.9546	1376.85	498.3
972.9251	2457.3177	1380.6	499.75
973.0541	2458.68	1379.75	497.45
973.1831	2460.0416	1380.65	501.6
973.312	2461.4025	1378.2	495.3
973.4408	2462.7627	1387.85	493.85
973.5697	2464.1222	1376.25	497.25
973.6985	2465.4811	1378.55	495.85
973.8273	2466.8392	1368.4	486.55
973.956	2468.1966	1377.45	495.6
974.0847	2469.5533	1371.7	487
974.2134	2470.9093	1374.6	493.7
974.3421	2472.2645	1375.9	493.9
974.4707	2473.6191	1375.7	494.65
974.5993	2474.973	1359.25	479.35
974.7278	2476.3262	1364.3	481.45
974.8563	2477.6787	1366.75	486.8
974.9848	2479.0305	1363.55	483.85
975.1132	2480.3816	1366.65	485.45
975.2417	2481.7319	1360.6	481
975.37	2483.0816	1362.85	480.35
975.4984	2484.4306	1355.85	473.15
975.6267	2485.7789	1353.75	475.9
975.755	2487.1264	1352.6	471
975.8833	2488.4733	1350.3	469.75
976.0115	2489.8195	1370.1	472
976.1397	2491.165	1351.25	467.05
976.2678	2492.5097	1341.85	459.35
976.3959	2493.8538	1349.65	469.8
976.524	2495.1972	1344.2	462.95
976.6521	2496.5398	1345	463.3
976.7801	2497.8818	1340.9	456.7
976.9081	2499.2231	1337.5	457.35
977.036	2500.5637	1333.1	449.6
977.164	2501.9035	1339.45	458.55
977.2918	2503.2427	1339.4	455.25
977.4197	2504.5812	1334.4	456.2
977.5475	2505.919	1333.8	451.35
977.6753	2507.256	1340.45	459.65
977.8031	2508.5924	1335.3	455.05
977.9308	2509.9281	1340.2	452.9
978.0585	2511.2631	1331.3	452.4
978.1861	2512.5974	1328.35	448.35
978.3137	2513.9309	1339.1	459.1
978.4413	2515.2638	1353.65	439.55
978.5689	2516.596	1322	441.7
978.6964	2517.9275	1327.45	448.2
978.8239	2519.2583	1328.1	446.75
978.9513	2520.5884	1328.7	444.6
979.0788	2521.9178	1317.9	436.05
979.2062	2523.2465	1323.9	442.1
979.3335	2524.5745	1321.85	440.55
979.4608	2525.9018	1315.85	436.6
979.5881	2527.2284	1319.15	439.3
979.7154	2528.5543	1314	434.4
979.8426	2529.8796	1317.7	436.9
979.9698	2531.2041	1319.5	439.4
980.0969	2532.5279	1313.4	433.9
980.224	2533.851	1317	436.1
980.3511	2535.1735	1311.35	430.55
980.4781	2536.4952	1311.6	431.05
980.6052	2537.8163	1317.5	435.85
980.7321	2539.1366	1306.4	426.85
980.8591	2540.4562	1307.85	426.7
980.986	2541.7752	1303.2	424.35
981.1129	2543.0935	1309.8	427.55
981.2397	2544.411	1304.95	424.25
981.3665	2545.7279	1304.15	426.35
981.4933	2547.0441	1308.15	427.25
981.62	2548.3596	1308.5	424.25
981.7467	2549.6744	1299.7	418.3
981.8734	2550.9885	1308.35	417.85
982.0001	2552.3019	1300.95	421.25
982.1267	2553.6146	1298.25	416.55
982.2532	2554.9266	1300.9	420.05
982.3798	2556.2379	1299.65	419
982.5063	2557.5485	1291	412.25
982.6327	2558.8585	1299.4	411.6
982.7592	2560.1677	1296.2	413.15
982.8856	2561.4762	1292.05	409.75
983.0119	2562.7841	1292.2	407.9
983.1383	2564.0913	1287.8	408.4
983.2646	2565.3977	1286.55	404.1
983.3908	2566.7035	1290.25	410.65
983.517	2568.0086	1286.9	403.75
983.6432	2569.313	1286.05	404.6
983.7694	2570.6167	1289.55	404.7
983.8955	2571.9197	1286.05	407.25
984.0216	2573.222	1289.9	404.75
984.1476	2574.5236	1283.75	402.7
984.2737	2575.8246	1290.9	407.15
984.3996	2577.1248	1287.1	402.95
984.5256	2578.4244	1279.8	397.45
984.6515	2579.7232	1288.7	407.8
984.7774	2581.0214	1319.55	403.85
984.9032	2582.3189	1283.9	404.05
985.029	2583.6157	1291.5	405.35
985.1548	2584.9118	1281.55	400.4
985.2806	2586.2072	1290.9	411.55
985.4063	2587.5019	1283.2	402.05
985.5319	2588.7959	1297.25	416.55
985.6576	2590.0893	1291.9	410.3
985.7832	2591.3819	1291.4	411.45
985.9087	2592.6739	1298.35	417.4
986.0343	2593.9652	1298.3	416.1
986.1597	2595.2557	1298.5	418.05
986.2852	2596.5456	1294.45	412.3
986.4106	2597.8348	1296.2	415.55
986.536	2599.1234	1294.75	414.35
986.6614	2600.4112	1298.55	415.95
986.7867	2601.6983	1301	416.45
986.912	2602.9848	1296.4	415.5
987.0372	2604.2705	1307	418
987.1624	2605.5556	1299	419.55
987.2876	2606.84	1297.1	418.55
987.4128	2608.1237	1297.4	414.05
987.5379	2609.4067	1291.35	411.1
987.6629	2610.689	1299.4	408.5
987.788	2611.9707	1300.85	417.1
987.913	2613.2516	1293.2	406.85
988.0379	2614.5319	1298.7	419.15
988.1629	2615.8115	1296	414.45
988.2878	2617.0903	1294.4	410.95
988.4126	2618.3685	1294.9	414.5
988.5375	2619.6461	1290.1	408.15
988.6622	2620.9229	1285.1	404.65
988.787	2622.199	1287.6	406.65
988.9117	2623.4745	1288.35	407.35
989.0364	2624.7493	1284.75	404.5
989.161	2626.0234	1289.8	410.2
989.2857	2627.2968	1287.5	406.5
989.4102	2628.5695	1293.6	412.45
989.5348	2629.8415	1284.65	405.2
989.6593	2631.1128	1293.75	410.45
989.7837	2632.3835	1291.6	411.6
989.9082	2633.6535	1282.45	401.75
990.0326	2634.9228	1289.8	409.8
990.1569	2636.1914	1287.5	404.15
990.2812	2637.4593	1286.75	404.7
990.4055	2638.7265	1283.95	400
990.5298	2639.9931	1287.4	406.85
990.654	2641.259	1288.4	406.6
990.7782	2642.5242	1286.7	404.7
990.9023	2643.7887	1273.05	392.05
991.0264	2645.0525	1279.8	398.75
991.1505	2646.3156	1278.6	397.6
991.2745	2647.5781	1277.4	398.15
991.3985	2648.8398	1280.75	398.45
991.5225	2650.1009	1279.95	389.75
991.6464	2651.3613	1269.5	388.1
991.7703	2652.6211	1276.2	396.05
991.8942	2653.8801	1274.4	394
992.018	2655.1385	1276.65	393.1
992.1418	2656.3961	1275.3	393.1
992.2655	2657.6531	1274.55	394.25
992.3892	2658.9094	1275.9	395.7
992.5129	2660.1651	1279	398.8
992.6366	2661.42	1280.5	400.55
992.7602	2662.6743	1279.3	398
992.8837	2663.9279	1276.7	396.4
993.0073	2665.1808	1276	394.2
993.1307	2666.433	1282.35	400.6
993.2542	2667.6846	1278.65	398.5
993.3776	2668.9354	1289.35	404.5
993.501	2670.1856	1288.55	406.6
993.6244	2671.4351	1281.2	400.35
993.7477	2672.6839	1289.55	408.1
993.8709	2673.9321	1288.85	408.9
993.9942	2675.1795	1287.8	405.6
994.1174	2676.4263	1297.55	418.95
994.2405	2677.6724	1299.95	418.75
994.3637	2678.9179	1298.9	417.1
994.4868	2680.1626	1300.85	421.6
994.6098	2681.4067	1299.8	419.95
994.7328	2682.6501	1299.45	418.1
994.8558	2683.8928	1299.4	419.2
994.9788	2685.1348	1298.55	419.25
995.1017	2686.3761	1293	414.2
995.2245	2687.6168	1286.4	405.1
995.3474	2688.8568	1285.35	405.15
995.4702	2690.0961	1285.65	406.4
995.5929	2691.3348	1286.95	403.1
995.7156	2692.5727	1280.3	397.75
995.8383	2693.81	1280.2	398.05
995.961	2695.0466	1272.35	393.55
996.0836	2696.2826	1279.3	397.95
996.2062	2697.5178	1280.65	393.8
996.3287	2698.7524	1281.65	401.2
996.4512	2699.9863	1280	395.95
996.5737	2701.2195	1275.65	395.05
996.6961	2702.452	1284.4	402.9
996.8185	2703.6839	1291.95	410.3
996.9408	2704.9151	1289	408.5
997.0631	2706.1456	1299.55	419.45
997.1854	2707.3755	1301.15	419.95
997.3077	2708.6046	1307.95	425.95
997.4299	2709.8331	1320.45	440.4
997.552	2711.0609	1317.6	435.95
997.6742	2712.2881	1333.65	451.35
997.7963	2713.5145	1338.15	454.85
997.9183	2714.7403	1348.25	467.2
998.0403	2715.9654	1346.9	462.85
998.1623	2717.1899	1372.55	477.85
998.2842	2718.4136	1377.05	496.05
998.4062	2719.6367	1386	503.65
998.528	2720.8591	1401.85	513.95
998.6498	2722.0809	1409.6	525.85
998.7716	2723.3019	1421.7	538.25
998.8934	2724.5223	1417.45	537.05
999.0151	2725.7421	1429.2	545.85
999.1368	2726.9611	1427.35	544.8
999.2584	2728.1795	1428	542.25
999.38	2729.3972	1420.25	539.55
999.5016	2730.6142	1426.1	532.5
999.6231	2731.8306	1399.85	518.45
999.7446	2733.0462	1385.95	504.2
999.8661	2734.2612	1374.5	487.6
999.9875	2735.4756	1359.45	477.45
1000.1089	2736.6892	1347.05	466.1
1000.2302	2737.9022	1335.75	457.05
1000.3515	2739.1145	1317.1	434
1000.4728	2740.3262	1317.75	429.45
1000.594	2741.5372	1296.9	414.75
1000.7152	2742.7475	1289.85	406.45
1000.8363	2743.9571	1286.1	403.9
1000.9575	2745.1661	1277.85	390.4
1001.0785	2746.3744	1266.3	384.7
1001.1996	2747.582	1258.9	377.05
1001.3206	2748.7889	1253.25	370.8
1001.4415	2749.9952	1248.4	366.9
1001.5625	2751.2008	1242.5	360.8
1001.6833	2752.4057	1243.35	359.6
1001.8042	2753.61	1234.2	353.25
1001.925	2754.8136	1242.35	358.2
1002.0458	2756.0165	1236.75	355.5
1002.1665	2757.2188	1236.65	357.3
1002.2872	2758.4204	1235.5	353.55
1002.4078	2759.6213	1237.2	353.5
1002.5285	2760.8215	1245.4	357.3
1002.649	2762.0211	1239.25	357
1002.7696	2763.22	1234.55	351.2
1002.8901	2764.4182	1235.3	352.95
1003.0106	2765.6158	1229.9	346.55
1003.131	2766.8127	1235.05	352.95
1003.2514	2768.009	1233.25	352.95
1003.3717	2769.2045	1222.6	340.75
1003.492	2770.3994	1225.75	342.6
1003.6123	2771.5936	1225.15	341.65
1003.7325	2772.7872	1223.2	343.95
1003.8527	2773.9801	1221.1	338.3
1003.9729	2775.1723	1233.8	338.1
1004.093	2776.3639	1216.35	336.05
1004.2131	2777.5548	1217.75	332.75
1004.3331	2778.745	1224.55	342.2
1004.4531	2779.9346	1224.9	344.4
1004.5731	2781.1235	1230.05	347.8
1004.693	2782.3117	1225.8	345.2
1004.8129	2783.4992	1236.6	356.8
1004.9328	2784.6861	1243.2	362.75
1005.0526	2785.8723	1246.75	365.25
1005.1723	2787.0579	1253.4	372
1005.2921	2788.2428	1262.25	381.75
1005.4118	2789.427	1267.45	386.85
1005.5314	2790.6106	1275.85	394.1
1005.651	2791.7935	1284.85	402.6
1005.7706	2792.9757	1296.85	416.65
1005.8902	2794.1573	1309.75	426.45
1006.0097	2795.3382	1315.2	434.6
1006.1291	2796.5184	1333.05	454.1
1006.2485	2797.698	1351.7	469.3
1006.3679	2798.8769	1367.05	486.55
1006.4873	2800.0551	1382.75	501.55
1006.6066	2801.2327	1401.95	518.55
1006.7258	2802.4096	1411.7	530.1
1006.8451	2803.5859	1436.45	555.7
1006.9642	2804.7615	1444.05	560.95
1007.0834	2805.9364	1469.05	588.7
1007.2025	2807.1106	1490.8	608.75
1007.3216	2808.2842	1524.55	641.8
1007.4406	2809.4572	1551.9	671.05
1007.5596	2810.6294	1586.3	702.95
1007.6785	2811.801	1617.3	737.35
1007.7975	2812.972	1648.25	768.15
1007.9163	2814.1423	1701.3	819.75
1008.0352	2815.3119	1739.55	859.05
1008.154	2816.4808	1775.55	896.9
1008.2727	2817.6491	1817.75	936.45
1008.3914	2818.8167	1869.75	989.55
1008.5101	2819.9837	1907.7	1019.75
1008.6288	2821.15	1945	1065.1
1008.7474	2822.3157	1979.6	1100.2
1008.8659	2823.4807	2015.75	1133.8
1008.9844	2824.645	2063.3	1179.95
1009.1029	2825.8086	2101.3	1221.8
1009.2214	2826.9716	2131.75	1250.35
1009.3398	2828.134	2167.1	1289
1009.4581	2829.2957	2192.45	1309.35
1009.5764	2830.4567	2210.5	1330.35
1009.6947	2831.617	2234.1	1354.3
1009.813	2832.7767	2240.5	1361.2
1009.9312	2833.9358	2240.5	1359.7
1010.0493	2835.0941	2243.75	1364.4
1010.1675	2836.2519	2230.8	1351
1010.2855	2837.4089	2213.6	1331.45
1010.4036	2838.5653	2203.1	1322.35
1010.5216	2839.7211	2198.45	1318.25
1010.6396	2840.8761	2214.05	1331.6
1010.7575	2842.0306	2234.15	1354.8
1010.8754	2843.1843	2262.75	1382.95
1010.9932	2844.3374	2313.8	1432.35
1011.111	2845.4899	2371.45	1489.2
1011.2288	2846.6417	2424.3	1541.15
1011.3465	2847.7928	2495.7	1616
1011.4642	2848.9433	2562.25	1679.05
1011.5818	2850.0931	2641.5	1761.1
1011.6995	2851.2422	2701.1	1818.6
1011.817	2852.3907	2774.65	1892.9
1011.9345	2853.5385	2827.1	1945.45
1012.052	2854.6857	2896.65	1988.9
1012.1695	2855.8323	2919.75	2041.5
1012.2869	2856.9781	2968.95	2088.25
1012.4042	2858.1233	2999.4	2117.9
1012.5216	2859.2679	3043.1	2161.95
1012.6389	2860.4118	3099.8	2217.9
1012.7561	2861.555	3126.5	2241.6
1012.8733	2862.6976	3159.95	2278.1
1012.9905	2863.8395	3180.3	2300.6
1013.1076	2864.9808	3190.45	2309.5
1013.2247	2866.1214	3196.25	2316.5
1013.3417	2867.2614	3220.6	2338.75
1013.4587	2868.4007	3233.75	2350.65
1013.5757	2869.5393	3246.05	2363.4
1013.6926	2870.6773	3258.3	2372.95
1013.8095	2871.8146	3282.55	2397.65
1013.9263	2872.9513	3269.2	2386.3
1014.0431	2874.0874	3252.2	2369.25
1014.1599	2875.2227	3271.25	2389.45
1014.2766	2876.3574	3263.35	2382.55
1014.3933	2877.4915	3230.85	2350.4
1014.51	2878.6249	3200.75	2321.3
1014.6266	2879.7577	3188.6	2306.4
1014.7431	2880.8898	3184.15	2291.75
1014.8596	2882.0212	3158.85	2279.95
1014.9761	2883.152	3151.95	2270.3
1015.0925	2884.2821	3122.4	2243.45
1015.2089	2885.4116	3131.85	2251.6
1015.3253	2886.5405	3135.9	2255.9
1015.4416	2887.6686	3141.05	2257.65
1015.5579	2888.7962	3142.45	2263.45
1015.6741	2889.923	3155.2	2273.15
1015.7903	2891.0493	3158.75	2279.1
1015.9065	2892.1748	3180.05	2298.5
1016.0226	2893.2997	3190.8	2308.85
1016.1387	2894.424	3196.6	2318.5
1016.2547	2895.5476	3202.55	2320.85
1016.3707	2896.6706	3220.55	2341.8
1016.4866	2897.7929	3255.7	2374.05
1016.6025	2898.9145	3289.5	2409.2
1016.7184	2900.0355	3307.6	2426.85
1016.8342	2901.1559	3333.6	2453.45
1016.95	2902.2756	3371.65	2489.7
1017.0658	2903.3946	3397.25	2514.55
1017.1815	2904.513	3440.65	2556.5
1017.2971	2905.6308	3455	2572.35
1017.4127	2906.7479	3459.45	2579.45
1017.5283	2907.8643	3491.5	2610.8
1017.6439	2908.9801	3494.75	2613.25
1017.7594	2910.0953	3514.05	2632.6
1017.8748	2911.2098	3491.1	2606.15
1017.9902	2912.3236	3504.3	2616.2
1018.1056	2913.4368	3482	2597.65
1018.2209	2914.5494	3485.95	2604.15
1018.3362	2915.6613	3456.4	2570
1018.4515	2916.7725	3416.3	2533.95
1018.5667	2917.8831	3415.05	2531.9
1018.6819	2918.9931	3390.95	2508.5
1018.797	2920.1024	3353.65	2472.15
1018.9121	2921.211	3341.7	2460.4
1019.0271	2922.319	3312.15	2431.3
1019.1421	2923.4264	3308.45	2426.45
1019.2571	2924.5331	3290.9	2412.4
1019.372	2925.6391	3292.2	2412.3
1019.4869	2926.7445	3285.75	2405.7
1019.6017	2927.8493	3271.85	2391.45
1019.7165	2928.9534	3268.5	2385.35
1019.8313	2930.0569	3263.3	2376.65
1019.946	2931.1597	3247.05	2364.6
1020.0606	2932.2619	3247.25	2366
1020.1753	2933.3634	3235.1	2356.05
1020.2899	2934.4643	3241.75	2354.5
1020.4044	2935.5645	3224.1	2337.4
1020.5189	2936.6641	3193	2307.35
1020.6334	2937.763	3142.25	2264.05
1020.7478	2938.8613	3101.9	2220.3
1020.8622	2939.959	3052.2	2165.7
1020.9765	2941.056	2986.75	2107.4
1021.0908	2942.1523	2908.95	2025.5
1021.2051	2943.248	2844.95	1964.25
1021.3193	2944.3431	2769.05	1889.05
1021.4334	2945.4375	2675.4	1792.25
1021.5476	2946.5313	2578.15	1697.85
1021.6617	2947.6244	2486	1607.1
1021.7757	2948.7169	2404.85	1522.35
1021.8897	2949.8087	2325.5	1443.5
1022.0037	2950.8999	2247.35	1365.55
1022.1176	2951.9904	2173.35	1293.75
1022.2315	2953.0803	2107.45	1225.35
1022.3453	2954.1696	2050.95	1168.9
1022.4591	2955.2582	2012.35	1133.7
1022.5728	2956.3462	1966.65	1086.05
1022.6865	2957.4335	1934.25	1055.15
1022.8002	2958.5202	1917.7	1034
1022.9138	2959.6062	1879.4	998.5
1023.0274	2960.6916	1857.5	975.6
1023.141	2961.7764	1854.9	973.85
1023.2545	2962.8605	1845.9	962.7
1023.3679	2963.9439	1831.95	950.55
1023.4813	2965.0267	1820.1	939.2
1023.5947	2966.1089	1831.7	928.15
1023.708	2967.1905	1811.2	929.55
1023.8213	2968.2714	1812.4	931.55
1023.9346	2969.3516	1810.05	928.9
1024.0478	2970.4312	1808.6	921.4
1024.1609	2971.5102	1805.35	924
1024.274	2972.5885	1810.7	930.05
1024.3871	2973.6662	1806.1	920.1
1024.5002	2974.7432	1801.6	920.5
1024.6132	2975.8196	1801.5	918.5
1024.7261	2976.8954	1790.65	911.85
1024.839	2977.9705	1781.35	898.15
1024.9519	2979.045	1778	895.25
1025.0647	2980.1188	1755.55	874.75
1025.1775	2981.192	1739.15	858
1025.2902	2982.2645	1725.95	844.15
1025.4029	2983.3364	1702.85	821.85
1025.5156	2984.4077	1674.4	794.65
1025.6282	2985.4783	1651.7	764.3
1025.7407	2986.5483	1626.3	747.35
1025.8532	2987.6177	1590.55	710.3
1025.9657	2988.6864	1565.8	684.3
1026.0782	2989.7545	1536	652.8
1026.1906	2990.8219	1502.9	622.85
1026.3029	2991.8887	1477.05	595.55
1026.4152	2992.9548	1452.4	570.05
1026.5275	2994.0204	1424.2	543.65
1026.6397	2995.0852	1404.15	524.75
1026.7519	2996.1495	1382.45	498.5
1026.864	2997.2131	1358.1	477.35
1026.9761	2998.276	1350.2	468.05
1027.0882	2999.3383	1324.8	443.7
1027.2002	3000.4	1304.95	423.4
1027.3122	3001.4611	1298.25	419.2
1027.4241	3002.5215	1290.55	409.85
1027.536	3003.5812	1275.5	396.8
1027.6478	3004.6404	1267.45	387.6
1027.7596	3005.6989	1266.2	383.5
1027.8714	3006.7567	1252.5	372.25
1027.9831	3007.8139	1273.35	364.5
1028.0947	3008.8705	1238.5	356.4
1028.2064	3009.9264	1241.05	356.95
1028.3179	3010.9818	1232.15	349.55
1028.4295	3012.0364	1231.05	352.05
1028.541	3013.0905	1230.9	350.3
1028.6524	3014.1439	1229	348.55
1028.7638	3015.1966	1230.25	350.55
1028.8752	3016.2487	1229.6	348.8
1028.9865	3017.3002	1225.3	339.6
1029.0978	3018.3511	1224.3	343.8
1029.209	3019.4013	1228.8	348.3
1029.3202	3020.4509	1227.55	347.2
1029.4314	3021.4998	1234.65	353.8
1029.5425	3022.5481	1229.05	347.9
1029.6535	3023.5958	1226.55	345.8
1029.7645	3024.6428	1235.5	351.9
1029.8755	3025.6892	1235.2	355.9
1029.9864	3026.735	1233.45	353.2
1030.0973	3027.7802	1239.55	357.65
1030.2082	3028.8247	1242.5	361.25
1030.319	3029.8685	1240.95	358.85
1030.4297	3030.9118	1238.95	355.8
1030.5404	3031.9544	1251.6	371.4
1030.6511	3032.9963	1255.55	375.7
1030.7617	3034.0376	1254.4	373.3
1030.8723	3035.0783	1260.35	378.25
1030.9829	3036.1184	1266.1	385.6
1031.0934	3037.1578	1273.1	393.4
1031.2038	3038.1966	1272.65	389.9
1031.3142	3039.2348	1267	386.45
1031.4246	3040.2723	1280.5	391.75
1031.5349	3041.3092	1272.85	394.1
1031.6452	3042.3455	1270.3	388.1
1031.7554	3043.3811	1267.15	384.85
1031.8656	3044.4161	1273	393.55
1031.9758	3045.4505	1259.2	378.65
1032.0859	3046.4842	1256.75	377.4
1032.1959	3047.5173	1248.9	369.3
1032.3059	3048.5498	1243.2	363.1
1032.4159	3049.5816	1238.8	357.9
1032.5258	3050.6128	1231.3	349.9
1032.6357	3051.6434	1222.6	342.1
1032.7455	3052.6734	1217.25	334.25
1032.8553	3053.7027	1216.35	336.4
1032.9651	3054.7314	1211.95	332.3
1033.0748	3055.7594	1203.35	323.65
1033.1845	3056.7868	1201.5	321.8
1033.2941	3057.8136	1192.25	310.25
1033.4037	3058.8398	1189.85	310.45
1033.5132	3059.8653	1188.05	309.45
1033.6227	3060.8902	1189.1	308
1033.7321	3061.9145	1183.4	304.95
1033.8415	3062.9381	1170.75	289.15
1033.9509	3063.9612	1182.8	284.65
1034.0602	3064.9835	1168.15	289.1
1034.1694	3066.0053	1161.6	278.35
1034.2787	3067.0264	1156.4	276.7
1034.3878	3068.0469	1147.95	267.9
1034.497	3069.0668	1142.85	257.75
1034.6061	3070.086	1137.9	258.8
1034.7151	3071.1046	1129.35	245.15
1034.8241	3072.1226	1115.9	232.45
1034.9331	3073.1399	1112.05	233.95
1035.042	3074.1567	1103.8	220.05
1035.1508	3075.1727	1099.3	218.55
1035.2597	3076.1882	1087.5	207.25
1035.3684	3077.203	1081.2	201.35
1035.4772	3078.2173	1073.25	190.05
1035.5859	3079.2308	1072.45	190.85
1035.6945	3080.2438	1066.95	182.8
1035.8031	3081.2561	1056.75	177
1035.9117	3082.2678	1047.45	164.55
1036.0202	3083.2789	1043.45	162.65
1036.1286	3084.2893	1040.2	159.7
1036.2371	3085.2991	1039.25	158
1036.3454	3086.3083	1037.7	154.6
1036.4538	3087.3169	1027.1	145.95
1036.562	3088.3248	1025.05	145.05
1036.6703	3089.3321	1020.5	136.9
1036.7785	3090.3388	1015.65	134.35
1036.8866	3091.3449	1012.8	133.35
1036.9948	3092.3503	1010.45	127.05
1037.1028	3093.3551	1007.6	129.7
1037.2108	3094.3593	1001.1	119.35
1037.3188	3095.3629	1003.35	122.8
1037.4267	3096.3658	999.6	118.25
1037.5346	3097.3681	996.9	117.7
1037.6425	3098.3698	995.35	115.85
1037.7503	3099.3708	998.6	110.45
1037.858	3100.3713	990.75	110.4
1037.9657	3101.3711	988.2	107.15
1038.0734	3102.3702	1127.75	104.7
1038.181	3103.3688	989.65	107.5
1038.2886	3104.3667	984.65	105.7
1038.3961	3105.364	979.25	98.8
1038.5036	3106.3607	984.2	102.4
1038.611	3107.3568	981.2	101.05
1038.7184	3108.3522	979.5	100.8
1038.8257	3109.347	979.45	98.45
1038.933	3110.3412	984.2	98.45
1039.0403	3111.3348	975.2	95.65
1039.1475	3112.3277	976.15	94.6
1039.2547	3113.32	971.65	92.65
1039.3618	3114.3117	972.5	89.05
1039.4689	3115.3028	973.75	94.5
1039.5759	3116.2932	972.5	91.35
1039.6829	3117.2831	973.45	87.1
1039.7898	3118.2723	971.85	90.45
1039.8967	3119.2608	967	85.3
1040.0035	3120.2488	967.85	85.75
1040.1103	3121.2361	969.35	89.05
1040.2171	3122.2229	965.95	85.1
1040.3238	3123.209	965.35	84.95
1040.4305	3124.1944	964.75	86.9
1040.5371	3125.1793	962.05	79.45
1040.6437	3126.1635	964.9	84.85
1040.7502	3127.1471	961.35	82.1
1040.8567	3128.1301	961.85	81.8
1040.9631	3129.1125	962.25	83.85
1041.0695	3130.0942	960.2	78.95
1041.1759	3131.0753	968.45	78.7
1041.2822	3132.0558	962.15	78.7
1041.3884	3133.0357	958.7	77.3
1041.4946	3134.015	955.3	73.5
1041.6008	3134.9936	959.75	78.05
1041.7069	3135.9716	973.4	73
1041.813	3136.949	953.55	75.15
1041.919	3137.9258	971.65	71.7
1042.025	3138.902	961.3	75
1042.1309	3139.8775	952.95	72.3
1042.2368	3140.8524	954.7	75.3
1042.3427	3141.8267	950.5	68.45
1042.4485	3142.8004	949.05	68.55
1042.5542	3143.7735	955.35	69.9
1042.6599	3144.7459	949.25	67
1042.7656	3145.7178	951	69.45
1042.8712	3146.689	946.75	67.7
1042.9768	3147.6596	953.05	70.85
1043.0823	3148.6295	945.95	65.5
1043.1878	3149.5989	944.3	62.8
1043.2932	3150.5676	943.2	65.05
1043.3986	3151.5357	942.5	62.35
1043.5039	3152.5032	942.5	62.85
1043.6092	3153.4701	944.8	65.75
1043.7145	3154.4364	943.6	60
1043.8197	3155.402	943	64.65
1043.9248	3156.367	942.15	60.65
1044.03	3157.3315	975.8	58.25
1044.135	3158.2952	938.95	59.3
1044.24	3159.2584	937.2	55.45
1044.345	3160.221	939.35	57.5
1044.4499	3161.1829	937.2	57.9
1044.5548	3162.1442	939.3	56.65
1044.6596	3163.105	936.8	59.75
1044.7644	3164.065	936.95	55.95
1044.8692	3165.0245	939.95	60.5
1044.9739	3165.9834	933.05	54.3
1045.0785	3166.9416	936.9	58.3
1045.1831	3167.8993	931.75	51.4
1045.2877	3168.8563	935.75	55.7
1045.3922	3169.8127	931.9	52.25
1045.4966	3170.7684	934.55	54.2
1045.6011	3171.7236	934.15	52.2
1045.7054	3172.6782	932.95	52.9
1045.8098	3173.6321	935.8	54.35
1045.914	3174.5854	939	55.25
1046.0183	3175.5381	932.7	51.1
1046.1224	3176.4902	931.15	52
1046.2266	3177.4417	933.6	54
1046.3307	3178.3926	932	53.5
1046.4347	3179.3428	928.8	48.8
1046.5387	3180.2924	932.55	53.7
1046.6427	3181.2415	929.6	47.45
1046.7466	3182.1899	931.7	50.05
1046.8504	3183.1377	931.3	51.35
1046.9542	3184.0848	931.2	49.4
1047.058	3185.0314	928.8	49.55
1047.1617	3185.9773	928	47.35
1047.2654	3186.9227	929.3	48.75
1047.369	3187.8674	928.25	49.1
1047.4726	3188.8115	930.25	46.65
1047.5761	3189.755	927.75	48.5
1047.6796	3190.6979	923.45	42.15
1047.783	3191.6402	927.2	49.2
1047.8864	3192.5818	925.45	45.55
1047.9898	3193.5229	955.15	46.9
1048.0931	3194.4633	924.7	44.8
1048.1963	3195.4031	927.55	46.4
1048.2995	3196.3423	923	45.25
1048.4027	3197.2809	925.35	44.1
1048.5058	3198.2189	926.15	45.9
1048.6089	3199.1563	946.25	48.1
1048.7119	3200.0931	924	43.35
1048.8148	3201.0292	921.85	43.15
1048.9178	3201.9648	924.15	43.35
1049.0206	3202.8997	924.7	41.15
1049.1235	3203.834	920.45	40.2
1049.2262	3204.7677	923	41.45
1049.329	3205.7008	923.35	43.3
1049.4317	3206.6333	920.05	42.05
1049.5343	3207.5652	922.7	41.6
1049.6369	3208.4964	920.85	40.1
1049.7394	3209.4271	920	41.7
1049.8419	3210.3571	922.4	42.9
1049.9444	3211.2865	920.9	40.65
1050.0468	3212.2154	923.3	41.85
1050.1491	3213.1436	922.85	40.55
1050.2514	3214.0712	927.5	39.25
1050.3537	3214.9982	919.95	41.3
1050.4559	3215.9246	920.85	39.9
1050.5581	3216.8503	920.4	41.75
1050.6602	3217.7755	919	36.4
1050.7623	3218.7001	918.35	37.95
1050.8643	3219.624	917.15	37.95
1050.9663	3220.5473	921.65	42.9
1051.0682	3221.4701	918.35	35.85
1051.1701	3222.3922	919	37.75
1051.2719	3223.3137	918.2	37.5
1051.3737	3224.2346	918.4	38.8
1051.4754	3225.1549	917.35	38.15
1051.5771	3226.0746	916.75	38
1051.6788	3226.9937	919.4	37.7
1051.7804	3227.9121	914.9	36.6
1051.8819	3228.83	914.15	32.55
1051.9834	3229.7473	917.7	38.35
1052.0849	3230.6639	917.05	36.8
1052.1863	3231.5799	918.05	38.85
1052.2876	3232.4954	918.35	37.15
1052.3889	3233.4102	915.7	35.5
1052.4902	3234.3244	917	35.65
1052.5914	3235.238	917.15	37.5
1052.6926	3236.151	939.85	37.15
1052.7937	3237.0634	915.9	38.3
1052.8948	3237.9752	915.4	36.25
1052.9958	3238.8864	915.3	34.8
1053.0968	3239.797	913.35	33.7
1053.1977	3240.7069	916.2	34.8
1053.2986	3241.6163	913.25	32.9
1053.3994	3242.5251	913.75	32.9
1053.5002	3243.4332	913.75	36.4
1053.6009	3244.3408	914.3	32.95
1053.7016	3245.2477	911.95	31.7
1053.8022	3246.154	914.25	34.8
1053.9028	3247.0598	912.05	30.7
1054.0034	3247.9649	912.45	32.8
1054.1039	3248.8694	912	30.2
1054.2043	3249.7733	911.45	30
1054.3047	3250.6766	911.15	32
1054.4051	3251.5793	912.2	31.55
1054.5054	3252.4814	909	31.6
1054.6056	3253.3829	912.75	34.55
1054.7058	3254.2838	909.5	31.15
1054.806	3255.1841	907.8	28
1054.9061	3256.0838	910.1	29.95
1055.0061	3256.9829	907.6	28.8
1055.1062	3257.8814	910.25	31.2
1055.2061	3258.7792	908.9	25.55
1055.306	3259.6765	909.85	29.55
1055.4059	3260.5731	906.95	27
1055.5057	3261.4692	907.7	26.3
1055.6055	3262.3647	906.1	25.75
1055.7052	3263.2595	907.8	29.5
1055.8049	3264.1538	905.1	26.45
1055.9045	3265.0474	905.5	25.2
1056.0041	3265.9404	904.7	24.65
1056.1036	3266.8329	901.95	23.35
1056.2031	3267.7247	913.6	24.35
1056.3025	3268.616	902.2	23.25
1056.4019	3269.5066	904.2	24.95
1056.5013	3270.3966	902.5	21.1
1056.6005	3271.286	900.75	23.25
