Software Version:	3.9.2.0
Unit SN:	10000200
Spectrometer SN:	6960
Date:	3/14/2024 12:53:26 PM
Data Line Index:	25
Spectral Points:	2048
Integration time (ms):	125
Averages:	20
Delay (ms):	30000
Sequence Number:	1
Processing:	dark subtract
Laser Power (mW):	295
Laser Current (mA):	823
Laser Diode Temp (C):	25
Laser Case Temp (C):	27.7
System Temp (C):	27.8
Spectrometer Temp (C):	25.5
CCD Temp (C):	0.004
Secondary Temp (C):	20.007
Heatsink Temp (C):	23.613
CCDPCB Temp (C):	36.907
SecondaryPCB Temp (C):	34.695

Wavelength	RamanShift	Raw Counts	Dark Subtracted
787.061	30.1047	417.35	3.65
787.2016	32.3739	415.45	4.6
787.3422	34.6426	418.25	7.5
787.4828	36.9109	419.9	5.55
787.6235	39.1787	423.3	5.65
787.7642	41.4461	428.7	6.05
787.9049	43.7131	432.85	6.45
788.0456	45.9796	437.9	8.35
788.1863	48.2456	443.3	11.45
788.3271	50.5112	446.8	8.6
788.4679	52.7764	450.95	11.5
788.6087	55.0411	454.05	11.6
788.7496	57.3054	459.6	9.75
788.8904	59.5692	461.95	12.9
789.0313	61.8326	467.45	16.7
789.1722	64.0955	474.6	16.85
789.3132	66.3579	480.95	18.6
789.4541	68.6199	485.05	19.15
789.5951	70.8815	496.05	26.55
789.7361	73.1426	507.05	35.25
789.8771	75.4032	539	63.65
790.0181	77.6634	607.1	127.45
790.1592	79.9231	755.2	270.2
790.3003	82.1824	1059.1	569.3
790.4414	84.4412	1581.25	1080.8
790.5825	86.6995	2254.35	1740.95
790.7237	88.9574	2949.5	2426.05
790.8648	91.2148	3420.9	2892.05
791.006	93.4717	3660.9	3126.75
791.1472	95.7282	3719.85	3181.8
791.2885	97.9842	3750.2	3207
791.4297	100.2398	3725.5	3179.1
791.571	102.4949	3696.4	3149.5
791.7123	104.7495	3684.15	3132.25
791.8536	107.0036	3655.6	3104.65
791.9949	109.2573	3601.15	3049.45
792.1363	111.5105	3557.2	3003.05
792.2777	113.7632	3483.2	2929.25
792.4191	116.0154	3451.6	2886.25
792.5605	118.2672	3376.5	2816.9
792.7019	120.5185	3310.8	2750.5
792.8434	122.7693	3252.25	2687.95
792.9849	125.0197	3212.7	2646.75
793.1264	127.2696	3168.85	2603.25
793.2679	129.519	3149.35	2580.5
793.4094	131.7679	3122.75	2550.6
793.551	134.0163	3116.35	2539.45
793.6926	136.2642	3116.45	2535.65
793.8342	138.5117	3109.3	2525.4
793.9758	140.7587	3081	2495.15
794.1175	143.0052	3063.35	2474.7
794.2591	145.2512	3023.45	2434.05
794.4008	147.4967	2997.3	2406.4
794.5425	149.7417	2971.15	2376.65
794.6842	151.9863	2951.35	2357.3
794.826	154.2304	2952.45	2353.45
794.9677	156.4739	2942.6	2335.5
795.1095	158.717	2936.7	2331.8
795.2513	160.9596	2952.35	2343.15
795.3931	163.2017	2958.55	2348.6
795.535	165.4433	2972.9	2361.15
795.6768	167.6844	2955.8	2340.45
795.8187	169.925	2943.6	2328.35
795.9606	172.1651	2902.45	2282.55
796.1025	174.4047	2879.7	2255.4
796.2445	176.6439	2843.85	2215.65
796.3864	178.8825	2825.4	2195
796.5284	181.1206	2834	2201.6
796.6704	183.3582	2816.3	2179.65
796.8124	185.5954	2806.85	2169.1
796.9544	187.832	2809.6	2169
797.0965	190.0681	2812.45	2168.5
797.2386	192.3037	2807.05	2161.25
797.3806	194.5388	2820.15	2170.05
797.5228	196.7734	2815.1	2163.2
797.6649	199.0075	2829.45	2174.35
797.807	201.2411	2835.7	2176.55
797.9492	203.4742	2858.15	2198.7
798.0914	205.7068	2874.25	2215.45
798.2336	207.9389	2868.35	2208.95
798.3758	210.1704	2878.65	2216.4
798.518	212.4015	2871.4	2201.85
798.6603	214.632	2890.45	2222.65
798.8025	216.862	2877.95	2213.2
798.9448	219.0915	2876.6	2222.05
799.0871	221.3205	2873.55	2224.25
799.2294	223.549	2863.75	2219.6
799.3718	225.777	2869.65	2223.6
799.5141	228.0044	2858.55	2208.1
799.6565	230.2314	2866.7	2222.75
799.7989	232.4578	2836.8	2189.2
799.9413	234.6837	2841.15	2185.55
800.0837	236.909	2835.75	2179.6
800.2262	239.1339	2829.25	2148.85
800.3687	241.3582	2811.7	2147.75
800.5111	243.582	2824.3	2130.9
800.6536	245.8053	2830.5	2145.2
800.7961	248.0281	2826.2	2146.35
800.9387	250.2503	2835.05	2150.1
801.0812	252.472	2839.8	2151.05
801.2238	254.6932	2839.5	2148.8
801.3664	256.9139	2840.35	2145.4
801.509	259.134	2848.05	2151.05
801.6516	261.3536	2857.65	2161.55
801.7942	263.5727	2887.55	2188.8
801.9369	265.7912	2895	2198.05
802.0795	268.0092	2941.9	2244.7
802.2222	270.2267	2966.65	2267.8
802.3649	272.4436	2975.2	2271.95
802.5076	274.6601	3007.65	2294.7
802.6504	276.8759	2999	2294.6
802.7931	279.0913	3010.5	2306.65
802.9359	281.3061	3030.4	2323.75
803.0787	283.5204	3034.35	2323.6
803.2215	285.7341	3044.1	2329.65
803.3643	287.9473	3055.45	2341.05
803.5071	290.16	3046.75	2324.9
803.6499	292.3721	3029.25	2314.85
803.7928	294.5837	2997.45	2282.85
803.9357	296.7947	2979.9	2263.35
804.0786	299.0052	2971.25	2255.1
804.2215	301.2152	2960.35	2240.5
804.3644	303.4246	2952.3	2237
804.5074	305.6334	2921.95	2205.5
804.6503	307.8418	2917.55	2197.45
804.7933	310.0495	2889.15	2168.55
804.9363	312.2568	2874.8	2156.25
805.0793	314.4635	2843.1	2123.15
805.2223	316.6696	2797	2076.15
805.3653	318.8752	2778.5	2044.8
805.5084	321.0802	2749.05	2025
805.6514	323.2847	2735.4	2005.85
805.7945	325.4887	2750	2024.8
805.9376	327.692	2745.75	2018.15
806.0807	329.8949	2774.45	2045.85
806.2238	332.0972	2789.6	2058.45
806.367	334.2989	2810.4	2078.05
806.5101	336.5001	2798.95	2064.15
806.6533	338.7007	2785.15	2051.55
806.7965	340.9008	2756.9	2019.9
806.9397	343.1003	2707.25	1968.15
807.0829	345.2992	2686.05	1946.75
807.2261	347.4976	2647.75	1908.3
807.3693	349.6955	2640.65	1895.25
807.5126	351.8927	2628.25	1881.05
807.6559	354.0895	2616.6	1860.3
807.7991	356.2856	2596.05	1848.8
807.9424	358.4812	2585.7	1841.15
808.0857	360.6763	2583.1	1837.9
808.2291	362.8707	2576.8	1829.25
808.3724	365.0646	2582.45	1831.8
808.5158	367.258	2584.7	1832.7
808.6591	369.4508	2584.4	1826.6
808.8025	371.643	2601.35	1844.75
808.9459	373.8346	2620.5	1862.1
809.0893	376.0257	2654.15	1890.6
809.2327	378.2162	2644.8	1882.75
809.3762	380.4062	2656.65	1891.65
809.5196	382.5956	2633.15	1864.2
809.6631	384.7844	2613.15	1846.6
809.8066	386.9726	2577.85	1809.45
809.9501	389.1603	2553.8	1784.35
810.0936	391.3474	2574.15	1771.3
810.2371	393.5339	2543.35	1772.6
810.3806	395.7199	2533.25	1765.15
810.5241	397.9052	2536.45	1775.85
810.6677	400.09	2558.45	1794.5
810.8113	402.2743	2580.4	1819.1
810.9548	404.4579	2608.4	1848.75
811.0984	406.641	2640.7	1880.45
811.2421	408.8235	2665.9	1905.65
811.3857	411.0054	2702.3	1938.8
811.5293	413.1868	2760.85	1995.85
811.673	415.3675	2829.65	2062.2
811.8166	417.5477	2834.05	2064.75
811.9603	419.7273	2773.6	2005.95
812.104	421.9064	2673.5	1897.05
812.2477	424.0848	2622.15	1848.95
812.3914	426.2627	2578.15	1802.35
812.5351	428.4399	2548.25	1770.4
812.6788	430.6166	2513.8	1734.15
812.8226	432.7928	2462.75	1678.35
812.9663	434.9683	2436.85	1653.8
813.1101	437.1432	2428.3	1642.65
813.2539	439.3176	2406.8	1621
813.3977	441.4914	2395.2	1610.5
813.5415	443.6645	2387.85	1599.45
813.6853	445.8371	2391.55	1603.7
813.8291	448.0091	2384.7	1598.65
813.973	450.1806	2372.35	1583.1
814.1168	452.3514	2360.25	1568
814.2607	454.5216	2375.65	1580.05
814.4046	456.6913	2357.65	1565.1
814.5485	458.8603	2367.8	1577.15
814.6924	461.0288	2363.55	1571.35
814.8363	463.1967	2353.8	1561.8
814.9802	465.3639	2359.05	1565.65
815.1241	467.5306	2354.4	1559.3
815.2681	469.6967	2333.15	1539.6
815.412	471.8622	2334.2	1538.95
815.556	474.0271	2326.65	1531.25
815.7	476.1914	2329.1	1529.7
815.844	478.3551	2321.8	1525.6
815.988	480.5182	2317.9	1518.75
816.132	482.6807	2316.8	1518.65
816.276	484.8426	2322.2	1522
816.4201	487.0039	2349.3	1550.3
816.5641	489.1647	2382.55	1581.25
816.7082	491.3248	2419.45	1619.75
816.8522	493.4843	2424	1625.45
816.9963	495.6432	2417.5	1616.55
817.1404	497.8015	2383.5	1580.1
817.2845	499.9592	2360.45	1559.75
817.4286	502.1163	2326.65	1522.8
817.5727	504.2728	2285.75	1480.8
817.7168	506.4287	2273.15	1470.55
817.861	508.5839	2278.9	1472.35
818.0051	510.7386	2256.65	1452.6
818.1493	512.8927	2277.7	1465.85
818.2935	515.0461	2267.9	1462.05
818.4377	517.199	2270.7	1466
818.5818	519.3512	2298.45	1492.2
818.726	521.5029	2345.15	1530.8
818.8703	523.6539	2367.15	1560.3
819.0145	525.8043	2371.55	1561.9
819.1587	527.9541	2329.8	1516.6
819.303	530.1033	2296.15	1484.6
819.4472	532.2519	2258.7	1447.15
819.5915	534.3999	2242.75	1429.3
819.7357	536.5472	2237.15	1424.35
819.88	538.694	2241.3	1429.65
820.0243	540.8401	2247.85	1434.5
820.1686	542.9856	2262.2	1445.95
820.3129	545.1305	2261.8	1444.25
820.4572	547.2748	2285.8	1469.1
820.6016	549.4185	2272	1452.5
820.7459	551.5615	2281.95	1463.95
820.8902	553.704	2278.5	1459.3
821.0346	555.8458	2292.55	1473.75
821.1789	557.987	2295.05	1475.75
821.3233	560.1276	2318.4	1497.6
821.4677	562.2675	2357.35	1540.2
821.6121	564.4069	2395.5	1578.45
821.7565	566.5456	2414.2	1596.4
821.9009	568.6837	2393.5	1576.4
822.0453	570.8212	2355	1539.15
822.1897	572.958	2308.4	1488.45
822.3342	575.0942	2288.8	1473.15
822.4786	577.2299	2264.55	1446.25
822.6231	579.3648	2244.35	1427.6
822.7675	581.4992	2213.8	1395.2
822.912	583.6329	2208.9	1389.9
823.0565	585.766	2218.2	1399.15
823.201	587.8985	2256.55	1437.6
823.3454	590.0304	2288.1	1452.95
823.4899	592.1616	2290.05	1465.9
823.6345	594.2922	2291.4	1469.65
823.779	596.4222	2259.55	1434.7
823.9235	598.5515	2228.2	1405.2
824.068	600.6802	2199.8	1375.85
824.2126	602.8083	2171.2	1344.3
824.3571	604.9358	2159.85	1332.8
824.5017	607.0626	2154.35	1327.1
824.6462	609.1888	2171.45	1343.8
824.7908	611.3144	2174.65	1348.95
824.9354	613.4393	2178.05	1353.35
825.08	615.5636	2222.1	1394.5
825.2246	617.6873	2244.25	1415.6
825.3692	619.8103	2271.45	1441.1
825.5138	621.9327	2266.5	1435.05
825.6584	624.0544	2244.6	1415.3
825.803	626.1756	2206.95	1379.5
825.9477	628.2961	2175.2	1346.7
826.0923	630.4159	2164.25	1333.95
826.237	632.5351	2156.35	1326.55
826.3816	634.6537	2148.55	1317.8
826.5263	636.7716	2143.4	1311.3
826.6709	638.8889	2143.4	1310.35
826.8156	641.0056	2143.45	1312.15
826.9603	643.1216	2148.65	1313.65
827.105	645.237	2144.6	1307.85
827.2497	647.3518	2136.95	1304.05
827.3944	649.4659	2120.65	1287.3
827.5391	651.5793	2112.55	1278.7
827.6838	653.6922	2100.2	1266.7
827.8285	655.8043	2091.65	1256.65
827.9733	657.9159	2079.9	1244.65
828.118	660.0268	2073.1	1234.35
828.2627	662.137	2069.3	1231
828.4075	664.2466	2070.55	1232.9
828.5522	666.3556	2058.25	1221.45
828.697	668.4639	2076.1	1235.45
828.8418	670.5716	2061.2	1224.5
828.9865	672.6786	2056.65	1217.9
829.1313	674.785	2049.05	1209.85
829.2761	676.8907	2044.65	1206.75
829.4209	678.9958	2035.2	1195.6
829.5657	681.1002	2044.35	1200.8
829.7105	683.204	2044.2	1200.1
829.8553	685.3072	2045.75	1203.95
830.0001	687.4097	2042.9	1202.6
830.1449	689.5115	2028.9	1188.55
830.2898	691.6127	2033.5	1191.6
830.4346	693.7132	2027.8	1185.05
830.5794	695.8131	2047.7	1191.45
830.7243	697.9123	2039.85	1197.55
830.8691	700.0109	2034	1192.25
831.014	702.1089	2040.25	1197.15
831.1588	704.2061	2040.35	1197.1
831.3037	706.3028	2058.2	1213.75
831.4486	708.3987	2082	1237
831.5935	710.4941	2077.9	1231.9
831.7383	712.5887	2075.5	1228.45
831.8832	714.6827	2075.9	1229.1
832.0281	716.7761	2076.85	1231
832.173	718.8688	2069.55	1223.7
832.3179	720.9608	2073.8	1224.65
832.4628	723.0522	2086.75	1238.05
832.6077	725.1429	2088.6	1243.3
832.7527	727.233	2125.4	1278
832.8976	729.3224	2155.6	1307.6
833.0425	731.4112	2181.2	1330.9
833.1874	733.4993	2192.2	1342.85
833.3324	735.5867	2154.05	1306.2
833.4773	737.6735	2111.2	1260.5
833.6222	739.7596	2087.85	1238.5
833.7672	741.845	2075.4	1226.15
833.9122	743.9298	2071.95	1221.45
834.0571	746.014	2083.4	1236.4
834.2021	748.0974	2092.1	1241.25
834.347	750.1802	2088.85	1238.35
834.492	752.2624	2077.6	1228.4
834.637	754.3439	2072.25	1220.05
834.782	756.4247	2065.35	1204.85
834.9269	758.5048	2051.05	1200.3
835.0719	760.5843	2057.8	1206.3
835.2169	762.6631	2066.2	1214.55
835.3619	764.7413	2095	1243.1
835.5069	766.8188	2145.85	1292.35
835.6519	768.8956	2190.9	1336.1
835.7969	770.9718	2219.85	1366.85
835.9419	773.0473	2212.6	1360.65
836.0869	775.1221	2188	1334.15
836.232	777.1962	2184.3	1331.4
836.377	779.2697	2219.75	1363.95
836.522	781.3426	2285.15	1421.15
836.667	783.4147	2316.05	1462.65
836.8121	785.4862	2304.25	1451.1
836.9571	787.557	2249.45	1394.85
837.1021	789.6271	2158	1301.5
837.2472	791.6966	2093	1238.25
837.3922	793.7654	2036.2	1179.5
837.5373	795.8335	1999.25	1145
837.6823	797.901	1987	1133.25
837.8274	799.9678	1976.9	1121.25
837.9724	802.0339	1977.15	1123.55
838.1175	804.0993	1991.6	1126.35
838.2626	806.1641	1964.9	1109.35
838.4076	808.2282	1959.05	1101.5
838.5527	810.2916	1948.25	1088.05
838.6978	812.3544	1930.75	1075.35
838.8428	814.4164	1927.25	1069.9
838.9879	816.4778	1947.25	1089.9
839.133	818.5385	1943.4	1086.65
839.2781	820.5986	1955.85	1099.65
839.4232	822.658	1986.3	1126.7
839.5682	824.7166	2022.65	1165.85
839.7133	826.7747	2078.25	1223.55
839.8584	828.832	2125.4	1267.9
840.0035	830.8886	2150.85	1291.05
840.1486	832.9446	2169.15	1310.6
840.2937	834.9999	2147.35	1290.85
840.4388	837.0545	2102.95	1241.55
840.5839	839.1085	2054.85	1194.45
840.729	841.1618	1995.75	1134.55
840.8741	843.2143	1979.2	1119.75
841.0192	845.2662	1954.3	1096.65
841.1643	847.3175	1940.15	1081.85
841.3095	849.368	1924.7	1063.9
841.4546	851.4179	1933.55	1074.7
841.5997	853.467	1927.35	1069.45
841.7448	855.5155	1926.4	1066.95
841.8899	857.5633	1934.45	1074.85
842.0351	859.6105	1918.75	1059.45
842.1802	861.6569	1912.05	1054.2
842.3253	863.7027	1901.75	1039.6
842.4704	865.7478	1898.65	1038.2
842.6156	867.7922	1906.45	1044.55
842.7607	869.8359	1889.35	1028.2
842.9058	871.8789	1882.85	1020.1
843.0509	873.9212	1914.5	1018.95
843.1961	875.9629	1883.05	1022.75
843.3412	878.0039	1877.95	1017.85
843.4863	880.0441	1892.7	1031.6
843.6315	882.0837	1911.85	1049.55
843.7766	884.1226	1920.9	1056.55
843.9218	886.1609	1942.45	1085.05
844.0669	888.1984	1972.85	1112.65
844.212	890.2352	1995	1134.1
844.3572	892.2714	2004.05	1137.6
844.5023	894.3069	1981.95	1118.75
844.6475	896.3416	1953.35	1087.5
844.7926	898.3757	1918.8	1053.45
844.9377	900.4091	1913.55	1049.55
845.0829	902.4418	1914.95	1046.5
845.228	904.4739	1913.85	1048.85
845.3732	906.5052	1931.45	1067.05
845.5183	908.5358	1923.2	1059.2
845.6635	910.5658	1905.6	1040.35
845.8086	912.595	1892	1027.65
845.9538	914.6236	1864.3	999.65
846.0989	916.6515	1837.7	973.25
846.2441	918.6786	1844.3	979.25
846.3892	920.7051	1827.65	962.05
846.5344	922.7309	1823.6	958.7
846.6795	924.756	1827.3	960.75
846.8246	926.7804	1829.15	961.4
846.9698	928.8041	1826.3	959.8
847.1149	930.8272	1848.6	983.25
847.2601	932.8495	1842.1	975.75
847.4052	934.8711	1859.1	992.2
847.5504	936.892	1848.3	981.15
847.6955	938.9123	1849.2	982.5
847.8407	940.9318	1857.35	991.6
847.9858	942.9506	1874.45	1006.55
848.131	944.9688	1868	1001.75
848.2761	946.9862	1849.2	982.2
848.4213	949.003	1826.2	957.8
848.5664	951.019	1814.95	947
848.7115	953.0344	1809.4	940.75
848.8567	955.0491	1795.3	925.6
849.0018	957.063	1786.8	919.4
849.147	959.0763	1793.7	929.85
849.2921	961.0888	1785.55	915.95
849.4373	963.1007	1783.05	915
849.5824	965.1119	1784.9	916.85
849.7275	967.1223	1776.15	906.55
849.8727	969.1321	1761.45	896.65
850.0178	971.1412	1763.05	894.75
850.1629	973.1495	1760.2	890
850.3081	975.1572	1796.9	888.45
850.4532	977.1641	1760	891
850.5983	979.1704	1766.6	897.85
850.7435	981.1759	1751.65	881
850.8886	983.1808	1755.7	885
851.0337	985.1849	1751.3	870.65
851.1788	987.1884	1746.05	874.25
851.324	989.1911	1747.7	873.95
851.4691	991.1932	1748.9	879.45
851.6142	993.1945	1747.65	877.45
851.7593	995.1951	1736.65	865.25
851.9045	997.1951	1749.15	873.55
852.0496	999.1943	1730.3	862.8
852.1947	1001.1928	1731	860.35
852.3398	1003.1906	1739.55	869.1
852.4849	1005.1877	1755.35	885.05
852.63	1007.1841	1757.45	886.3
852.7751	1009.1798	1763.2	892.8
852.9202	1011.1748	1759.95	890.85
853.0653	1013.1691	1740.2	867.5
853.2104	1015.1627	1715.3	844.9
853.3555	1017.1556	1697.9	825.5
853.5006	1019.1477	1693.8	820
853.6457	1021.1392	1675	805.6
853.7908	1023.1299	1674.5	800.7
853.9359	1025.12	1676.15	804.1
854.081	1027.1093	1672.9	801.85
854.2261	1029.0979	1681.7	811.4
854.3712	1031.0859	1687.5	814.25
854.5163	1033.0731	1698.55	826.1
854.6613	1035.0596	1696.5	824.45
854.8064	1037.0454	1679.2	807.95
854.9515	1039.0304	1674.7	802.55
855.0965	1041.0148	1662.15	792.05
855.2416	1042.9985	1646.75	773.45
855.3867	1044.9814	1644.2	773.6
855.5317	1046.9636	1645.8	771.65
855.6768	1048.9452	1637.3	766.8
855.8219	1050.926	1647.5	775.25
855.9669	1052.9061	1657.55	786.1
856.112	1054.8855	1654.65	782.55
856.257	1056.8642	1659.7	786.35
856.4021	1058.8421	1655.15	778.4
856.5471	1060.8194	1650.75	776.75
856.6921	1062.7959	1644.25	770.4
856.8372	1064.7717	1642.5	768.75
856.9822	1066.7469	1634.65	759.35
857.1272	1068.7213	1649.8	773.55
857.2723	1070.695	1643.5	768.75
857.4173	1072.6679	1658.2	785.15
857.5623	1074.6402	1676.9	802.85
857.7073	1076.6117	1677.9	799.95
857.8523	1078.5826	1658.15	784.1
857.9973	1080.5527	1648.3	772.85
858.1423	1082.5221	1616.2	740.35
858.2873	1084.4908	1605.75	731.55
858.4323	1086.4587	1594.2	719.25
858.5773	1088.426	1586.3	712.6
858.7223	1090.3925	1583.8	705
858.8673	1092.3584	1585.35	713.5
859.0123	1094.3235	1583	709.25
859.1573	1096.2879	1594.65	720.05
859.3022	1098.2515	1611.75	737
859.4472	1100.2145	1624.35	750.8
859.5922	1102.1767	1641	764.4
859.7371	1104.1382	1663.1	788.85
859.8821	1106.099	1690.1	815.95
860.027	1108.0591	1709.3	835.1
860.172	1110.0185	1740.6	864.25
860.3169	1111.9771	1754.85	879.75
860.4619	1113.9351	1785.9	910.5
860.6068	1115.8923	1817.6	940.65
860.7517	1117.8488	1832.8	956.05
860.8967	1119.8045	1811.5	936.65
861.0416	1121.7596	1759.2	883.35
861.1865	1123.7139	1682.4	805.45
861.3314	1125.6675	1646.85	772.7
861.4763	1127.6204	1638.4	763.15
861.6212	1129.5726	1657.75	780.45
861.7661	1131.524	1658.25	783.35
861.911	1133.4748	1631.65	756.3
862.0559	1135.4248	1593.7	716.4
862.2008	1137.3741	1576.25	700.85
862.3457	1139.3226	1562.8	686.4
862.4905	1141.2705	1550.8	674.5
862.6354	1143.2176	1562.6	680.55
862.7803	1145.164	1562.2	684.35
862.9251	1147.1097	1556.65	679.45
863.07	1149.0546	1546.75	668.95
863.2148	1150.9989	1533.45	655.8
863.3597	1152.9424	1524.2	647.45
863.5045	1154.8852	1513.8	637.95
863.6493	1156.8272	1503.85	628.9
863.7942	1158.7686	1518.9	636.45
863.939	1160.7092	1498.5	619.65
864.0838	1162.6491	1505.2	625
864.2286	1164.5883	1507.55	632.35
864.3734	1166.5267	1520.95	643.55
864.5182	1168.4644	1528.15	649.95
864.663	1170.4014	1548.6	665.85
864.8078	1172.3377	1570.55	695.25
864.9526	1174.2732	1597.15	720.6
865.0974	1176.2081	1655.05	776.8
865.2421	1178.1421	1712.75	832.35
865.3869	1180.0755	1772.15	898.5
865.5317	1182.0082	1808.8	930.7
865.6764	1183.9401	1787.75	910.6
865.8212	1185.8713	1737.45	858.35
865.9659	1187.8017	1667.7	789.65
866.1106	1189.7315	1600.15	723.7
866.2554	1191.6605	1595.35	690.75
866.4001	1193.5888	1536.7	658.75
866.5448	1195.5163	1520.6	643.7
866.6895	1197.4432	1499.7	620.1
866.8342	1199.3693	1491.45	614.2
866.9789	1201.2947	1486.2	602.4
867.1236	1203.2193	1479.85	601.1
867.2683	1205.1432	1473.75	594.55
867.413	1207.0664	1472.65	593.15
867.5576	1208.9889	1474.3	593.2
867.7023	1210.9106	1469.3	589.15
867.847	1212.8316	1470.35	592.3
867.9916	1214.7519	1485.9	596.75
868.1363	1216.6715	1478.75	602
868.2809	1218.5903	1484.55	607
868.4255	1220.5084	1497.45	619.1
868.5701	1222.4257	1498.9	621.25
868.7148	1224.3424	1506.8	628.5
868.8594	1226.2583	1525.7	641.2
869.004	1228.1735	1526.5	646.7
869.1486	1230.0879	1542.85	662.75
869.2932	1232.0016	1577.15	698.8
869.4377	1233.9146	1589.95	708.85
869.5823	1235.8269	1601.55	721.65
869.7269	1237.7384	1597.35	717.9
869.8715	1239.6492	1598.6	719.05
870.016	1241.5592	1613.95	734.8
870.1606	1243.4686	1621.9	742.25
870.3051	1245.3772	1657.85	778.65
870.4496	1247.285	1719	839
870.5941	1249.1922	1760.3	880.55
870.7387	1251.0986	1784.85	906.55
870.8832	1253.0042	1836.5	958.8
871.0277	1254.9092	1876.6	995.25
871.1722	1256.8134	1918.1	1040.85
871.3167	1258.7169	1957.25	1077.4
871.4611	1260.6196	1983.65	1104.5
871.6056	1262.5216	1998.3	1116.15
871.7501	1264.4229	1972.3	1092.45
871.8945	1266.3234	1963.4	1084.35
872.039	1268.2232	1939.2	1057.85
872.1834	1270.1223	1897.35	1015.9
872.3278	1272.0207	1876.65	997.3
872.4723	1273.9183	1871.35	985.65
872.6167	1275.8151	1873.05	995.2
872.7611	1277.7113	1891.2	1009.55
872.9055	1279.6067	1947.3	1069.25
873.0499	1281.5014	2017.9	1136.05
873.1943	1283.3953	2118.6	1237.6
873.3386	1285.2885	2216.25	1338.9
873.483	1287.181	2274.75	1393.1
873.6274	1289.0727	2301.85	1422.3
873.7717	1290.9637	2281.4	1399.4
873.9161	1292.854	2232.7	1352.55
874.0604	1294.7435	2157.2	1276.7
874.2047	1296.6323	2106.2	1224.65
874.349	1298.5204	2055.3	1170.15
874.4933	1300.4077	2019.55	1137.9
874.6376	1302.2943	1975.2	1095.45
874.7819	1304.1802	1973.05	1092.05
874.9262	1306.0653	1946.95	1064.45
875.0705	1307.9497	1930.45	1049.25
875.2147	1309.8333	1911.75	1033.4
875.359	1311.7162	1899.7	1018.65
875.5032	1313.5984	1884.15	1000.5
875.6475	1315.4798	1879.25	986.95
875.7917	1317.3605	1853.45	968.2
875.9359	1319.2405	1865.9	983.6
876.0801	1321.1197	1838.25	954.55
876.2243	1322.9982	1832.75	946.85
876.3685	1324.876	1779.7	899.15
876.5127	1326.753	1724.3	841
876.6569	1328.6293	1679.5	797.3
876.801	1330.5048	1625.75	743.25
876.9452	1332.3796	1592.15	711.7
877.0893	1334.2537	1584.2	676
877.2335	1336.127	1542.25	662
877.3776	1337.9996	1527.55	647.6
877.5217	1339.8714	1512.05	632.25
877.6658	1341.7426	1547.1	622.4
877.8099	1343.6129	1502.6	620.35
877.954	1345.4826	1493.5	612.2
878.0981	1347.3515	1484.95	601
878.2422	1349.2196	1470.7	588.55
878.3862	1351.087	1478.4	596.35
878.5303	1352.9537	1467.25	584.6
878.6743	1354.8197	1467.65	587.4
878.8184	1356.6849	1470.85	590.9
878.9624	1358.5493	1480.05	597.95
879.1064	1360.4131	1496.65	614.85
879.2504	1362.276	1510.1	628.2
879.3944	1364.1383	1526.5	643.8
879.5384	1365.9998	1544.25	655.6
879.6823	1367.8606	1529.65	647.6
879.8263	1369.7206	1525.8	643.8
879.9702	1371.5799	1520.85	637.1
880.1142	1373.4384	1523.2	642.05
880.2581	1375.2962	1504.75	621.2
880.402	1377.1533	1473.25	591.15
880.5459	1379.0096	1448.75	565
880.6898	1380.8652	1422.2	541.35
880.8337	1382.7201	1415.5	534.05
880.9776	1384.5742	1398.55	516.45
881.1215	1386.4275	1387.45	505.65
881.2653	1388.2802	1374.65	493.35
881.4092	1390.132	1362.5	479.8
881.553	1391.9832	1364.75	483.25
881.6968	1393.8336	1362.2	480.4
881.8406	1395.6832	1355.85	473.55
881.9844	1397.5322	1348.45	466.2
882.1282	1399.3803	1350.05	461.9
882.272	1401.2278	1337.4	452.95
882.4158	1403.0745	1334.6	452.3
882.5595	1404.9204	1321.7	440.8
882.7033	1406.7656	1328.3	443.95
882.847	1408.6101	1321.75	439.3
882.9908	1410.4538	1317.35	436
883.1345	1412.2968	1319.05	437.65
883.2782	1414.139	1318.65	436.7
883.4219	1415.9805	1319.9	436.85
883.5656	1417.8213	1331.25	441.05
883.7092	1419.6613	1334.2	452.55
883.8529	1421.5006	1353.25	467.75
883.9965	1423.3391	1363.7	479.25
884.1402	1425.1769	1400.9	518.65
884.2838	1427.0139	1433.75	550.85
884.4274	1428.8502	1477.45	595.85
884.571	1430.6858	1508.5	624.95
884.7146	1432.5206	1529.6	646.15
884.8582	1434.3547	1524.6	642.05
885.0018	1436.188	1506.5	623.8
885.1453	1438.0206	1499.3	616.65
885.2889	1439.8524	1485.7	603.25
885.4324	1441.6835	1492.45	610.3
885.5759	1443.5139	1497.8	611.3
885.7194	1445.3435	1496.7	613.85
885.8629	1447.1724	1488.2	605.55
886.0064	1449.0005	1493.4	609.45
886.1499	1450.8279	1486.1	601.7
886.2933	1452.6545	1481.1	598.35
886.4368	1454.4804	1485.05	604.05
886.5802	1456.3056	1481.55	591.25
886.7237	1458.13	1464.45	581.7
886.8671	1459.9536	1453.85	568.2
887.0105	1461.7766	1434.9	553.4
887.1539	1463.5987	1405.95	520.4
887.2972	1465.4202	1396.2	513.25
887.4406	1467.2409	1375.15	492.85
887.584	1469.0608	1357.95	473.45
887.7273	1470.88	1339.15	456.9
887.8706	1472.6984	1319.25	435.5
888.0139	1474.5161	1311.9	426.15
888.1572	1476.3331	1300.6	415.35
888.3005	1478.1493	1302.3	419.05
888.4438	1479.9648	1301.7	418.85
888.5871	1481.7795	1299.25	415.65
888.7303	1483.5935	1290.1	408.2
888.8736	1485.4067	1289.35	406.35
889.0168	1487.2192	1285.45	402.25
889.16	1489.031	1295.95	411.85
889.3032	1490.842	1288.3	404.75
889.4464	1492.6522	1287.8	405.4
889.5896	1494.4618	1288.8	404.25
889.7327	1496.2705	1283.95	402.35
889.8759	1498.0785	1282.35	398.4
890.019	1499.8858	1281.85	398.75
890.1622	1501.6924	1273.95	389.7
890.3053	1503.4981	1270.7	388.9
890.4484	1505.3032	1261.15	378
890.5914	1507.1075	1258.7	375
890.7345	1508.911	1259.9	377.5
890.8776	1510.7138	1253.3	369.5
891.0206	1512.5159	1251.4	368.75
891.1637	1514.3172	1244.95	361.8
891.3067	1516.1178	1241.7	359.2
891.4497	1517.9176	1241.6	356.55
891.5927	1519.7166	1236.15	354.75
891.7357	1521.515	1239.3	350.8
891.8786	1523.3126	1231.5	345.95
892.0216	1525.1094	1237.15	353.4
892.1645	1526.9055	1220.3	339.65
892.3074	1528.7008	1218.45	336
892.4503	1530.4954	1219.25	329.45
892.5932	1532.2893	1212.75	329.85
892.7361	1534.0824	1221.9	334.05
892.879	1535.8747	1218.25	335.7
893.0218	1537.6663	1206.65	323.2
893.1647	1539.4572	1213	327.85
893.3075	1541.2473	1210.6	326.6
893.4503	1543.0367	1213.7	328.2
893.5931	1544.8253	1210.85	321.1
893.7359	1546.6132	1217.35	330.15
893.8787	1548.4003	1216.85	323
894.0214	1550.1867	1220.05	328.65
894.1642	1551.9723	1231.05	343.15
894.3069	1553.7572	1222.8	338.8
894.4496	1555.5414	1229.05	345.8
894.5923	1557.3247	1246.6	361.8
894.735	1559.1074	1260.85	375.65
894.8777	1560.8893	1282	399.5
895.0204	1562.6705	1298.8	412.6
895.163	1564.4509	1312.75	429.85
895.3056	1566.2305	1310.5	428.25
895.4482	1568.0094	1310.9	426.8
895.5908	1569.7876	1310.35	427.2
895.7334	1571.565	1308.65	423.95
895.876	1573.3417	1303.65	419.6
896.0186	1575.1176	1311.25	426.6
896.1611	1576.8928	1316.35	432.6
896.3036	1578.6672	1324	441.55
896.4461	1580.4409	1333.95	451
896.5886	1582.2138	1349.65	465.1
896.7311	1583.986	1362.85	479.6
896.8736	1585.7575	1381.45	498.55
897.0161	1587.5282	1391.05	507.35
897.1585	1589.2981	1404.6	521.55
897.3009	1591.0673	1424.05	539.85
897.4433	1592.8358	1422.4	539.85
897.5857	1594.6035	1415.4	527
897.7281	1596.3704	1408.2	522.8
897.8705	1598.1366	1402.55	520.65
898.0128	1599.9021	1393	512.15
898.1551	1601.6668	1379.3	492.6
898.2975	1603.4308	1371.2	486.55
898.4398	1605.194	1377.6	488.15
898.5821	1606.9564	1376.75	492.4
898.7243	1608.7182	1415.5	527.3
898.8666	1610.4791	1452.55	566.5
899.0088	1612.2394	1487.15	602.3
899.1511	1613.9988	1531.95	647.35
899.2933	1615.7576	1573.3	689.75
899.4355	1617.5156	1583.15	693.65
899.5776	1619.2728	1559.3	677.75
899.7198	1621.0293	1527.1	644.05
899.862	1622.785	1468.4	578.75
900.0041	1624.54	1412.45	525.55
900.1462	1626.2942	1355.15	469.7
900.2883	1628.0477	1309.85	422.25
900.4304	1629.8005	1272.1	384.3
900.5725	1631.5525	1243.05	359.5
900.7145	1633.3037	1220.75	333.9
900.8566	1635.0542	1203.9	319.55
900.9986	1636.804	1186	302.7
901.1406	1638.553	1234.4	289.25
901.2826	1640.3013	1168.45	284.05
901.4245	1642.0488	1154	267.7
901.5665	1643.7955	1151.2	268.9
901.7085	1645.5416	1145.35	260.05
901.8504	1647.2868	1136.65	252.15
901.9923	1649.0313	1129.45	244.8
902.1342	1650.7751	1127.85	240.95
902.2761	1652.5181	1123.8	240.45
902.4179	1654.2604	1123.2	238.65
902.5598	1656.0019	1123.65	239.45
902.7016	1657.7427	1133.75	248.3
902.8434	1659.4828	1140.95	258.6
902.9852	1661.222	1156.15	271.95
903.127	1662.9606	1167.25	282.75
903.2687	1664.6984	1183.45	299.1
903.4105	1666.4354	1181.65	295.7
903.5522	1668.1717	1172.9	289.25
903.6939	1669.9072	1151.9	267.55
903.8356	1671.642	1143.85	258.2
903.9773	1673.3761	1116.95	233.65
904.119	1675.1094	1109.05	222.7
904.2606	1676.8419	1098.5	213.45
904.4022	1678.5737	1089.15	204.9
904.5439	1680.3048	1081.4	194.6
904.6855	1682.0351	1079.95	196.15
904.827	1683.7646	1076.8	187.75
904.9686	1685.4934	1073.35	190.45
905.1101	1687.2215	1074.9	190.9
905.2517	1688.9488	1073.35	190.2
905.3932	1690.6754	1066.4	183.35
905.5347	1692.4012	1066.9	183
905.6761	1694.1263	1062.7	178.2
905.8176	1695.8506	1061.9	178.05
905.9591	1697.5742	1059.65	177.4
906.1005	1699.297	1062.1	177.25
906.2419	1701.0191	1058.95	174.65
906.3833	1702.7404	1058.65	174.9
906.5246	1704.461	1055.95	170.9
906.666	1706.1808	1057.35	173.05
906.8073	1707.8999	1056.15	169.9
906.9487	1709.6182	1055	169.85
907.09	1711.3358	1053.7	170
907.2313	1713.0527	1048.95	165.6
907.3725	1714.7688	1055.75	166.05
907.5138	1716.4841	1046.75	160.6
907.655	1718.1987	1056.3	165.05
907.7962	1719.9126	1048.35	164.75
907.9374	1721.6257	1050.95	161.6
908.0786	1723.338	1050.7	164.55
908.2198	1725.0496	1044.8	158.35
908.3609	1726.7605	1048.4	163.8
908.502	1728.4706	1046.75	160.85
908.6431	1730.18	1048.8	163.1
908.7842	1731.8886	1046.25	161.95
908.9253	1733.5964	1049.85	160.85
909.0664	1735.3036	1047.1	159.55
909.2074	1737.0099	1047.7	163.1
909.3484	1738.7156	1040.5	155.7
909.4894	1740.4204	1046	157.25
909.6304	1742.1246	1039.65	153.2
909.7714	1743.8279	1042.85	158.95
909.9123	1745.5306	1047.3	161.5
910.0532	1747.2325	1041.4	157
910.1941	1748.9336	1037.5	153.4
910.335	1750.634	1042.45	156.8
910.4759	1752.3336	1042.1	157.05
910.6168	1754.0325	1040.15	156.2
910.7576	1755.7307	1036.55	151.2
910.8984	1757.4281	1039.35	154.5
911.0392	1759.1247	1044.5	150.1
911.18	1760.8206	1043.3	155.45
911.3208	1762.5158	1045.6	156.5
911.4615	1764.2102	1037	154.9
911.6022	1765.9039	1038.1	153.55
911.7429	1767.5968	1041.85	158.55
911.8836	1769.289	1037.95	152
912.0243	1770.9804	1037.5	151.9
912.1649	1772.6711	1039.65	154.3
912.3056	1774.361	1036.65	150.3
912.4462	1776.0502	1031.05	147.55
912.5868	1777.7386	1034.55	147.7
912.7274	1779.4263	1033.95	148.75
912.8679	1781.1132	1031.4	146.35
913.0084	1782.7994	1034	148.2
913.149	1784.4849	1032.75	148.6
913.2895	1786.1696	1052.15	147.15
913.4299	1787.8535	1033.9	147.1
913.5704	1789.5367	1031.25	145.65
913.7108	1791.2192	1032.65	148.25
913.8513	1792.9009	1049.2	150.7
913.9917	1794.5818	1027.5	142
914.132	1796.2621	1030.5	146.35
914.2724	1797.9415	1028.05	143.3
914.4128	1799.6202	1025.9	141.9
914.5531	1801.2982	1027.25	142.35
914.6934	1802.9755	1029.6	144.25
914.8337	1804.6519	1029.85	145
914.9739	1806.3277	1025.5	139.6
915.1142	1808.0027	1026.25	142.4
915.2544	1809.6769	1026.2	140.85
915.3946	1811.3504	1024.15	136.75
915.5348	1813.0231	1024.4	136.65
915.675	1814.6951	1023.5	138.4
915.8151	1816.3664	1030.35	144.65
915.9553	1818.0369	1022.5	139.4
916.0954	1819.7067	1024	140.05
916.2355	1821.3757	1024.45	138.2
916.3755	1823.044	1022.3	139.7
916.5156	1824.7115	1022.3	136.8
916.6556	1826.3783	1018.1	134.45
916.7956	1828.0443	1022.2	138.25
916.9356	1829.7096	1019.5	133.4
917.0756	1831.3741	1025.65	137.8
917.2155	1833.0379	1021.3	137.2
917.3555	1834.701	1018.85	131.7
917.4954	1836.3633	1022.35	135.3
917.6353	1838.0248	1023.1	137.15
917.7751	1839.6856	1018.85	135.7
917.915	1841.3457	1022.1	139.05
918.0548	1843.005	1019.15	135.25
918.1946	1844.6636	1015.4	130.5
918.3344	1846.3214	1017.8	132.1
918.4742	1847.9785	1015.85	132.35
918.6139	1849.6349	1019.45	133.35
918.7537	1851.2904	1026.5	133.25
918.8934	1852.9453	1019.95	134.35
919.0331	1854.5994	1013.9	127.7
919.1727	1856.2528	1018.3	129.05
919.3124	1857.9054	1018.55	133.65
919.452	1859.5572	1016.6	131.25
919.5916	1861.2083	1015.35	129.35
919.7312	1862.8587	1016.85	133.1
919.8708	1864.5084	1016.8	130.6
920.0103	1866.1572	1011.55	126.8
920.1498	1867.8054	1008.85	125.1
920.2893	1869.4528	1011.1	125.45
920.4288	1871.0994	1014.35	129.1
920.5683	1872.7453	1013.55	128.2
920.7077	1874.3905	1028.45	126.45
920.8471	1876.0349	1013.9	127.85
920.9865	1877.6786	1009.9	123.3
921.1259	1879.3215	1013.05	127.5
921.2653	1880.9637	1012.95	126.7
921.4046	1882.6051	1007.95	123.15
921.5439	1884.2458	1012.8	124.5
921.6832	1885.8858	1011.95	128.2
921.8225	1887.525	1011	126.55
921.9617	1889.1634	1003.9	120.25
922.101	1890.8011	1006	122.05
922.2402	1892.4381	1009.95	126.1
922.3794	1894.0743	1010.05	127.35
922.5185	1895.7098	1007.35	120.75
922.6577	1897.3446	1006.7	122.35
922.7968	1898.9786	1011.3	120.6
922.9359	1900.6118	1007.05	124
923.075	1902.2443	1007.95	120.55
923.214	1903.8761	1006.25	120.6
923.3531	1905.5071	1004.8	119.9
923.4921	1907.1374	1006.35	119.9
923.6311	1908.7669	1009.8	124.9
923.77	1910.3957	1003.65	118.55
923.909	1912.0237	1003.45	120.1
924.0479	1913.651	1007.9	121.95
924.1868	1915.2776	999.85	117.7
924.3257	1916.9034	1004.7	121.55
924.4646	1918.5285	1002.25	118.3
924.6034	1920.1528	1004.35	120.55
924.7422	1921.7764	1001.65	118.9
924.881	1923.3992	1000.8	117.9
925.0198	1925.0213	1001	116.25
925.1586	1926.6427	1000.45	115.45
925.2973	1928.2633	1110.65	113.85
925.436	1929.8832	1001.15	115.55
925.5747	1931.5023	1000.95	117.5
925.7134	1933.1207	1000	113.2
925.852	1934.7383	1000.85	116.25
925.9906	1936.3552	996.3	113
926.1292	1937.9714	997.8	114
926.2678	1939.5868	999.65	113.4
926.4064	1941.2015	996.05	110.75
926.5449	1942.8154	998	112.2
926.6834	1944.4286	997.5	111.65
926.8219	1946.041	1022.6	113.95
926.9604	1947.6528	998.65	106.95
927.0988	1949.2637	997.3	111.35
927.2372	1950.8739	997.1	113
927.3756	1952.4834	995.6	110.4
927.514	1954.0921	994.35	109.1
927.6523	1955.7001	1001.55	112.65
927.7907	1957.3074	995.2	110.75
927.929	1958.9139	994.9	110.15
928.0673	1960.5197	997.55	109.55
928.2055	1962.1247	994.15	108.7
928.3438	1963.729	993.55	108.8
928.482	1965.3325	1017.8	109.3
928.6202	1966.9353	992.95	109.3
928.7584	1968.5374	994.25	109.5
928.8965	1970.1387	992.9	108.85
929.0346	1971.7393	989.9	104.3
929.1727	1973.3392	991.65	107.85
929.3108	1974.9383	990.5	105.2
929.4489	1976.5366	988.1	104.05
929.5869	1978.1342	993.5	107.85
929.7249	1979.7311	990.75	103.65
929.8629	1981.3273	995	108.85
930.0009	1982.9227	991.1	104.65
930.1388	1984.5173	990.65	105.75
930.2767	1986.1112	990.2	104.05
930.4146	1987.7044	986.2	101.35
930.5525	1989.2968	991.05	104.15
930.6904	1990.8885	994.4	108.05
930.8282	1992.4795	992.7	106.95
930.966	1994.0697	988.75	104.75
931.1038	1995.6592	988.55	102.4
931.2415	1997.2479	988.5	103.2
931.3793	1998.8359	987.8	101.2
931.517	2000.4232	989.95	104.65
931.6547	2002.0097	989.8	106.5
931.7923	2003.5955	987.8	101.6
931.93	2005.1805	991.1	105.05
932.0676	2006.7648	989.75	104.5
932.2052	2008.3484	987.4	102.35
932.3427	2009.9312	991.35	105.05
932.4803	2011.5133	988.05	103.55
932.6178	2013.0946	983.9	98.85
932.7553	2014.6752	986.55	101.3
932.8928	2016.2551	988.45	102.6
933.0302	2017.8342	987.3	103.6
933.1676	2019.4126	987.6	102.45
933.305	2020.9902	986.15	103.15
933.4424	2022.5672	985.75	98
933.5798	2024.1433	994.95	103.8
933.7171	2025.7188	985.55	102.75
933.8544	2027.2935	986.9	99.55
933.9917	2028.8674	988.15	104.2
934.129	2030.4406	983.15	100.05
934.2662	2032.0131	983.15	99.4
934.4034	2033.5849	990.15	97.8
934.5406	2035.1559	984.85	98.35
934.6778	2036.7261	989.2	104.55
934.8149	2038.2957	983.35	97.9
934.952	2039.8645	986.75	102.85
935.0891	2041.4325	987.95	98.75
935.2262	2042.9998	985	99.4
935.3632	2044.5664	987.4	101.5
935.5002	2046.1323	986	99.1
935.6372	2047.6974	983.35	96.7
935.7742	2049.2617	983.5	98
935.9111	2050.8254	1020.6	101.2
936.048	2052.3883	988.95	103.75
936.1849	2053.9504	987.45	101.8
936.3218	2055.5118	983.65	97.85
936.4586	2057.0725	988.85	99.9
936.5955	2058.6325	982.65	97.45
936.7323	2060.1917	982.7	98.35
936.869	2061.7502	987.05	98.85
937.0058	2063.3079	985.65	101.95
937.1425	2064.8649	989.25	101.6
937.2792	2066.4212	986.9	99.75
937.4159	2067.9767	982.7	97.55
937.5525	2069.5315	985.15	99.85
937.6891	2071.0856	984.8	98.55
937.8257	2072.6389	983.9	96.05
937.9623	2074.1915	982.65	98.1
938.0989	2075.7433	983.7	97.4
938.2354	2077.2945	980.45	97.1
938.3719	2078.8448	981.3	97.15
938.5084	2080.3945	980.9	98.55
938.6448	2081.9434	983	100.05
938.7812	2083.4916	980.3	95.75
938.9176	2085.039	982.55	96.9
939.054	2086.5857	984.85	98.6
939.1903	2088.1317	980.15	95.1
939.3267	2089.677	979.05	91.4
939.463	2091.2215	975.65	90.4
939.5992	2092.7652	985.15	98.45
939.7355	2094.3083	979.7	94.6
939.8717	2095.8506	982.15	99.2
940.0079	2097.3921	982.3	98.95
940.1441	2098.933	981.7	97.05
940.2802	2100.4731	982.3	97.95
940.4163	2102.0124	1002.05	98.8
940.5524	2103.5511	982.4	96.55
940.6885	2105.089	981.3	95.65
940.8245	2106.6261	980.4	94.85
940.9606	2108.1626	981.9	94.3
941.0965	2109.6983	1010.3	94.55
941.2325	2111.2332	986	98.15
941.3684	2112.7675	981.75	95.85
941.5044	2114.301	982.7	95
941.6403	2115.8337	981	95.5
941.7761	2117.3657	979.7	97
941.912	2118.897	981.85	96.3
942.0478	2120.4276	987.9	97.3
942.1835	2121.9575	979.6	93.95
942.3193	2123.4866	998.05	99
942.455	2125.0149	984.65	96.25
942.5907	2126.5426	979.7	92.3
942.7264	2128.0695	983.2	94
942.8621	2129.5956	980.45	95.5
942.9977	2131.1211	986.1	95.45
943.1333	2132.6458	982.65	97.8
943.2689	2134.1698	980.75	95.45
943.4044	2135.693	982.35	95.45
943.54	2137.2155	982.65	94.9
943.6755	2138.7373	982.5	98.2
943.8109	2140.2584	979.1	95.95
943.9464	2141.7787	989	98.9
944.0818	2143.2983	979.7	96.5
944.2172	2144.8171	976.8	93.5
944.3526	2146.3353	981.05	92.85
944.4879	2147.8527	978.55	93.65
944.6232	2149.3693	979.05	93.45
944.7585	2150.8853	978.6	93.9
944.8938	2152.4005	978.65	94.3
945.029	2153.9149	980.25	94.3
945.1642	2155.4287	978.55	92.6
945.2994	2156.9417	974.95	88.55
945.4346	2158.454	978.65	91.15
945.5697	2159.9655	975.35	92.15
945.7048	2161.4764	976.65	92.35
945.8399	2162.9865	982.5	96
945.9749	2164.4958	975.85	90.95
946.1099	2166.0045	981.4	94.8
946.2449	2167.5124	977.3	91.35
946.3799	2169.0195	977.75	94.15
946.5148	2170.526	975.9	91.3
946.6498	2172.0317	974.6	89.55
946.7846	2173.5367	980.3	95.6
946.9195	2175.0409	978.55	95.3
947.0543	2176.5445	976.1	92.3
947.1891	2178.0473	977.2	90.65
947.3239	2179.5494	980.4	93.6
947.4587	2181.0507	977	92.45
947.5934	2182.5513	975	91.7
947.7281	2184.0512	976.05	91.2
947.8628	2185.5504	976.95	91.55
947.9974	2187.0488	974.55	89.55
948.132	2188.5465	977.15	91.5
948.2666	2190.0435	974.75	89.95
948.4012	2191.5397	976.45	90.6
948.5357	2193.0353	972.25	87.1
948.6702	2194.5301	974.3	86.45
948.8047	2196.0241	973.3	87.95
948.9392	2197.5175	975.45	90.55
949.0736	2199.0101	972.9	83.75
949.208	2200.502	975.65	92.4
949.3424	2201.9931	976.7	92.15
949.4767	2203.4835	978.3	91.5
949.611	2204.9733	981.8	90.1
949.7453	2206.4622	972.35	86.95
949.8796	2207.9505	975.35	86.8
950.0138	2209.438	970.35	86.8
950.148	2210.9248	972.75	86.25
950.2822	2212.4109	968.95	83.35
950.4164	2213.8962	972.55	85.7
950.5505	2215.3809	974.35	89.6
950.6846	2216.8648	969.1	83.7
950.8186	2218.3479	977.45	87.85
950.9527	2219.8304	972.25	87.6
951.0867	2221.3121	975.05	89.45
951.2207	2222.7931	972.65	88.45
951.3546	2224.2733	974	88.8
951.4886	2225.7529	969.7	84.35
951.6225	2227.2317	970.55	83.9
951.7563	2228.7098	968.5	83.45
951.8902	2230.1872	969.9	86.75
952.024	2231.6638	969.3	82.8
952.1578	2233.1397	972.7	82.9
952.2916	2234.6149	969.85	83.6
952.4253	2236.0894	969.2	83.3
952.559	2237.5632	975.55	79.5
952.6927	2239.0362	965.85	81.35
952.8263	2240.5085	965.6	80.45
952.9599	2241.9801	967	81.35
953.0935	2243.4509	966.35	80.7
953.2271	2244.921	968.3	83.7
953.3606	2246.3904	969.35	82.65
953.4941	2247.8591	970.45	85.7
953.6276	2249.3271	968.05	83.75
953.7611	2250.7943	968.35	82.75
953.8945	2252.2608	967.95	84.5
954.0279	2253.7266	966.35	82.8
954.1612	2255.1917	967	80.35
954.2946	2256.656	964.9	78.4
954.4279	2258.1197	966.95	83.7
954.5612	2259.5826	967	80
954.6944	2261.0447	966.45	79.95
954.8276	2262.5062	964.85	78.3
954.9608	2263.9669	966.25	80.7
955.094	2265.4269	962.2	78.55
955.2271	2266.8862	961.7	76.65
955.3602	2268.3448	967.3	82.1
955.4933	2269.8026	966.95	81.65
955.6264	2271.2598	963.85	80.4
955.7594	2272.7162	962.85	78.65
955.8924	2274.1719	962.4	78.2
956.0253	2275.6268	963.75	78
956.1583	2277.0811	962.8	74.2
956.2912	2278.5346	963.05	78.35
956.4241	2279.9874	965.35	78.5
956.5569	2281.4395	965.3	81
956.6897	2282.8908	965.45	76.95
956.8225	2284.3414	963.25	74.95
956.9553	2285.7914	960.9	74.65
957.088	2287.2406	965.35	80.1
957.2207	2288.689	962.15	76.5
957.3534	2290.1368	961.4	77.35
957.486	2291.5838	964.25	78.55
957.6186	2293.0302	962.85	76.7
957.7512	2294.4758	961.85	77.4
957.8838	2295.9206	961.7	75.05
958.0163	2297.3648	962.9	79.2
958.1488	2298.8082	961.1	74.95
958.2813	2300.251	959.9	75.85
958.4137	2301.693	962.7	76.75
958.5461	2303.1343	962.6	78.55
958.6785	2304.5748	960.7	77
958.8108	2306.0147	959.3	72.15
958.9432	2307.4538	963.95	78.15
959.0754	2308.8922	958.45	75.8
959.2077	2310.3299	960.2	76.8
959.3399	2311.7669	957.9	73.25
959.4721	2313.2031	960.5	76.6
959.6043	2314.6387	960.85	75.5
959.7365	2316.0735	959.4	73.65
959.8686	2317.5076	955.95	73.1
960.0006	2318.941	957.9	73.55
960.1327	2320.3737	960.1	75.7
960.2647	2321.8056	961.95	73.85
960.3967	2323.2369	960.95	74.1
960.5287	2324.6674	964.85	77.75
960.6606	2326.0972	967.25	79.15
960.7925	2327.5263	964.3	79.2
960.9244	2328.9547	967.2	81.5
961.0562	2330.3823	964.7	80.1
961.1881	2331.8092	962.95	76.65
961.3198	2333.2355	957.4	72.45
961.4516	2334.661	956.6	69.45
961.5833	2336.0858	958.3	71
961.715	2337.5098	957.5	73.7
961.8467	2338.9332	957.35	71.75
961.9783	2340.3558	957.1	66.7
962.1099	2341.7778	955.5	69.3
962.2415	2343.199	956.85	70.2
962.373	2344.6195	952.9	68.55
962.5045	2346.0393	950.9	67.45
962.636	2347.4583	956.05	70.9
962.7675	2348.8767	954.3	69.55
962.8989	2350.2943	953.65	67.5
963.0303	2351.7113	954.15	67.8
963.1617	2353.1275	952.35	65.9
963.293	2354.543	962	68.3
963.4243	2355.9578	955.9	70.45
963.5556	2357.3718	953.2	68.95
963.6868	2358.7852	955	69.1
963.818	2360.1978	954.6	69
963.9492	2361.6098	952	67.6
964.0803	2363.021	957.05	67.85
964.2114	2364.4315	949.25	63.25
964.3425	2365.8413	953.55	65.95
964.4736	2367.2504	952.65	68.1
964.6046	2368.6587	953.1	68
964.7356	2370.0664	953.75	68.9
964.8666	2371.4733	952.1	65.65
964.9975	2372.8795	949.15	64.35
965.1284	2374.285	950.3	64.25
965.2593	2375.6899	949.1	64.6
965.3901	2377.0939	949.3	64.1
965.5209	2378.4973	949.95	64.3
965.6517	2379.9	952.1	66.9
965.7825	2381.3019	949.6	66.3
965.9132	2382.7032	953.05	66.6
966.0439	2384.1037	946.85	63.8
966.1745	2385.5035	951.6	65.75
966.3051	2386.9027	947.9	62.3
966.4357	2388.3011	953.4	64.7
966.5663	2389.6987	950.95	64.1
966.6968	2391.0957	950.25	65.35
966.8273	2392.492	947.65	64.95
966.9578	2393.8876	947.65	62
967.0882	2395.2824	949.65	64.05
967.2186	2396.6765	949.1	65.8
967.349	2398.07	949.1	64.75
967.4793	2399.4627	947.8	61.2
967.6097	2400.8547	945.9	61.05
967.7399	2402.246	951.45	61.7
967.8702	2403.6366	946.6	61.3
968.0004	2405.0265	943.95	59.15
968.1306	2406.4156	946.95	59.4
968.2607	2407.8041	947.95	58.3
968.3909	2409.1918	950.35	62.6
968.521	2410.5789	945.1	58.95
968.651	2411.9652	949.05	60.7
968.781	2413.3508	944.05	58.2
968.911	2414.7358	946.2	61.3
969.041	2416.12	942.85	59.7
969.1709	2417.5035	944.8	61.05
969.3008	2418.8863	947.55	61.65
969.4307	2420.2684	943.1	59.5
969.5606	2421.6497	947.65	61.75
969.6904	2423.0304	943.65	58.7
969.8201	2424.4104	944.8	58.7
969.9499	2425.7896	948.8	57.55
970.0796	2427.1682	943.65	58.4
970.2093	2428.546	943.55	55.95
970.3389	2429.9232	945.8	58.15
970.4685	2431.2996	940.45	56.05
970.5981	2432.6753	941.65	56.75
970.7277	2434.0503	941.1	56.45
970.8572	2435.4246	942	55.6
970.9867	2436.7982	944.2	57.7
971.1161	2438.1711	940.1	55.25
971.2456	2439.5433	942.3	56.75
971.375	2440.9148	949.4	58.7
971.5043	2442.2856	941.1	54.6
971.6336	2443.6557	945.3	60.25
971.7629	2445.025	943.05	60.35
971.8922	2446.3937	942.05	55.7
972.0214	2447.7617	940.95	53.75
972.1506	2449.1289	941.3	55.55
972.2798	2450.4955	947.3	56.9
972.4089	2451.8613	940	55.8
972.538	2453.2265	938.75	53.9
972.6671	2454.5909	938.4	52.5
972.7961	2455.9546	939.55	54.15
972.9251	2457.3177	939.45	55.85
973.0541	2458.68	942	53.65
973.1831	2460.0416	939.75	54.5
973.312	2461.4025	942.85	56.8
973.4408	2462.7627	953.65	57.4
973.5697	2464.1222	939.9	55.45
973.6985	2465.4811	942.2	56.5
973.8273	2466.8392	943.15	55.75
973.956	2468.1966	944	56.8
974.0847	2469.5533	939.85	52.85
974.2134	2470.9093	940.8	55.25
974.3421	2472.2645	938.75	51.65
974.4707	2473.6191	941.55	55.15
974.5993	2474.973	937.4	54.7
974.7278	2476.3262	939.3	50.95
974.8563	2477.6787	937.8	53.75
974.9848	2479.0305	937.4	53.15
975.1132	2480.3816	939	52.95
975.2417	2481.7319	936.6	50.95
975.37	2483.0816	939.9	53.4
975.4984	2484.4306	939.25	53.35
975.6267	2485.7789	935.5	52.85
975.755	2487.1264	936.65	50.15
975.8833	2488.4733	933.65	49.2
976.0115	2489.8195	953.3	51.45
976.1397	2491.165	937.05	48.4
976.2678	2492.5097	937.2	47.85
976.3959	2493.8538	936.7	52
976.524	2495.1972	935.3	50.2
976.6521	2496.5398	938.1	50.5
976.7801	2497.8818	937.05	51.5
976.9081	2499.2231	936.9	52.65
977.036	2500.5637	938.65	53.9
977.164	2501.9035	935.15	47.45
977.2918	2503.2427	937.8	49.8
977.4197	2504.5812	932.55	46.8
977.5475	2505.919	930.85	43.85
977.6753	2507.256	933.7	47.5
977.8031	2508.5924	933.1	48.35
977.9308	2509.9281	940.35	47.35
978.0585	2511.2631	937.75	52.1
978.1861	2512.5974	934.2	49.95
978.3137	2513.9309	934.2	50.1
978.4413	2515.2638	963	50.6
978.5689	2516.596	933.8	48.3
978.6964	2517.9275	936.35	48.9
978.8239	2519.2583	934.6	49.05
978.9513	2520.5884	934.85	47.95
979.0788	2521.9178	931.05	45.2
979.2062	2523.2465	932.35	46.55
979.3335	2524.5745	931.5	47.85
979.4608	2525.9018	933.2	47.4
979.5881	2527.2284	931.6	49.15
979.7154	2528.5543	931.2	46.95
979.8426	2529.8796	932.95	46.35
979.9698	2531.2041	933.7	47
980.0969	2532.5279	932.5	48.4
980.224	2533.851	932.35	46
980.3511	2535.1735	932.6	48.9
980.4781	2536.4952	928.4	44.4
980.6052	2537.8163	931.7	46.8
980.7321	2539.1366	931.35	47.7
980.8591	2540.4562	931.4	44.95
980.986	2541.7752	930.95	49.1
981.1129	2543.0935	930.2	45.2
981.2397	2544.411	933.95	47
981.3665	2545.7279	929.1	43.1
981.4933	2547.0441	929.65	44.6
981.62	2548.3596	932.55	43.75
981.7467	2549.6744	929.65	43.95
981.8734	2550.9885	932.45	45.7
982.0001	2552.3019	931.2	49
982.1267	2553.6146	928.85	44.9
982.2532	2554.9266	930.1	45.7
982.3798	2556.2379	932.85	47.35
982.5063	2557.5485	928.8	44.4
982.6327	2558.8585	936.2	45.3
982.7592	2560.1677	933.4	45.15
982.8856	2561.4762	926.85	40.75
983.0119	2562.7841	933.15	46.25
983.1383	2564.0913	925.95	41.45
983.2646	2565.3977	928.35	44.7
983.3908	2566.7035	932.95	47.75
983.517	2568.0086	930.85	45.25
983.6432	2569.313	926.05	43
983.7694	2570.6167	932.65	43.6
983.8955	2571.9197	925.6	41.55
984.0216	2573.222	929.95	42
984.1476	2574.5236	928.2	42.6
984.2737	2575.8246	929.5	41.7
984.3996	2577.1248	928.45	39.3
984.5256	2578.4244	928.75	45.65
984.6515	2579.7232	927.25	41.3
984.7774	2581.0214	958.5	44.4
984.9032	2582.3189	928	43.9
985.029	2583.6157	931.6	43.1
985.1548	2584.9118	927.25	42.75
985.2806	2586.2072	930.5	46.15
985.4063	2587.5019	926.05	41.55
985.5319	2588.7959	925.8	39.15
985.6576	2590.0893	929.2	44.25
985.7832	2591.3819	928.65	44.85
985.9087	2592.6739	923.05	40.5
986.0343	2593.9652	929.45	41.95
986.1597	2595.2557	927.25	42.35
986.2852	2596.5456	929	42.25
986.4106	2597.8348	927.65	43.4
986.536	2599.1234	927.85	43.55
986.6614	2600.4112	927.2	40.5
986.7867	2601.6983	929.7	40.05
986.912	2602.9848	926.1	38.45
987.0372	2604.2705	934.85	42.9
987.1624	2605.5556	925.25	39.65
987.2876	2606.84	926.65	43.8
987.4128	2608.1237	927.4	43.7
987.5379	2609.4067	924.15	37.1
987.6629	2610.689	937.45	44.05
987.788	2611.9707	929.25	40.15
987.913	2613.2516	931.05	41.3
988.0379	2614.5319	922.65	36.95
988.1629	2615.8115	925.15	38.9
988.2878	2617.0903	926.3	39.05
988.4126	2618.3685	923.05	37.6
988.5375	2619.6461	924.45	40.1
988.6622	2620.9229	922	37.55
988.787	2622.199	923.55	39
988.9117	2623.4745	923.75	37.7
989.0364	2624.7493	923.8	39.05
989.161	2626.0234	922.7	38.65
989.2857	2627.2968	924.45	39.35
989.4102	2628.5695	927.65	41.1
989.5348	2629.8415	924.85	39.5
989.6593	2631.1128	923.85	37.1
989.7837	2632.3835	921.5	36.6
989.9082	2633.6535	922.6	37.75
990.0326	2634.9228	922.55	38.3
990.1569	2636.1914	922.6	36.4
990.2812	2637.4593	929.3	38.4
990.4055	2638.7265	923.05	39.1
990.5298	2639.9931	921.75	35.8
990.654	2641.259	922.4	35.55
990.7782	2642.5242	921.8	36.25
990.9023	2643.7887	921.05	35.35
991.0264	2645.0525	919.65	35.1
991.1505	2646.3156	919.65	32.45
991.2745	2647.5781	921.85	36.2
991.3985	2648.8398	919.9	36.25
991.5225	2650.1009	958.55	36.3
991.6464	2651.3613	920.9	34.75
991.7703	2652.6211	920.45	35.5
991.8942	2653.8801	917.75	35.4
992.018	2655.1385	923.25	34.95
992.1418	2656.3961	919	33.8
992.2655	2657.6531	918.15	32.8
992.3892	2658.9094	920.3	33.9
992.5129	2660.1651	918.5	34.05
992.6366	2661.42	919.05	34.95
992.7602	2662.6743	920.6	33.75
992.8837	2663.9279	919.05	34.85
993.0073	2665.1808	919.65	33.6
993.1307	2666.433	920.2	33.65
993.2542	2667.6846	920	35.05
993.3776	2668.9354	921.1	33.5
993.501	2670.1856	919.95	34.35
993.6244	2671.4351	917.55	34.75
993.7477	2672.6839	922.9	36.95
993.8709	2673.9321	921.75	38.3
993.9942	2675.1795	921.15	36.25
994.1174	2676.4263	920.4	35.7
994.2405	2677.6724	918.95	33.45
994.3637	2678.9179	920.9	34.7
994.4868	2680.1626	918.25	35.1
994.6098	2681.4067	917.45	31.95
994.7328	2682.6501	920.25	36.05
994.8558	2683.8928	920.25	34.45
994.9788	2685.1348	917.3	33.05
995.1017	2686.3761	918.9	33.85
995.2245	2687.6168	916.95	34.2
995.3474	2688.8568	919.1	33.2
995.4702	2690.0961	915.8	31.7
995.5929	2691.3348	917.45	32.7
995.7156	2692.5727	918.6	33.4
995.8383	2693.81	918	33.75
995.961	2695.0466	916.25	32.3
996.0836	2696.2826	920.6	35.8
996.2062	2697.5178	919.85	31.85
996.3287	2698.7524	917.2	33.15
996.4512	2699.9863	917.45	30.1
996.5737	2701.2195	914.2	29.75
996.6961	2702.452	920.2	32.85
996.8185	2703.6839	920.85	36.05
996.9408	2704.9151	916.25	31.35
997.0631	2706.1456	916.75	31.25
997.1854	2707.3755	917.3	31.65
997.3077	2708.6046	918.8	31.25
997.4299	2709.8331	917.1	31.9
997.552	2711.0609	915.75	31
997.6742	2712.2881	917.3	33.9
997.7963	2713.5145	921.5	32.55
997.9183	2714.7403	918.3	33.75
998.0403	2715.9654	918.7	32.2
998.1623	2717.1899	934.45	34.7
998.2842	2718.4136	918.4	34.9
998.4062	2719.6367	919.95	35.75
998.528	2720.8591	926	33.15
998.6498	2722.0809	919.4	32.7
998.7716	2723.3019	923.5	35.4
998.8934	2724.5223	920.85	34.4
999.0151	2725.7421	922.1	36.4
999.1368	2726.9611	923.2	35.65
999.2584	2728.1795	925.25	34.9
999.38	2729.3972	919.55	34.65
999.5016	2730.6142	928.25	30.95
999.6231	2731.8306	920.4	35.35
999.7446	2733.0462	917.6	31.05
999.8661	2734.2612	923.85	34.55
999.9875	2735.4756	920.3	34.1
1000.1089	2736.6892	916.1	29.7
1000.2302	2737.9022	917	34.15
1000.3515	2739.1145	914.85	29.95
1000.4728	2740.3262	924.9	32.2
1000.594	2741.5372	914	29.6
1000.7152	2742.7475	912.6	26
1000.8363	2743.9571	914.25	27.25
1000.9575	2745.1661	920.4	31.7
1001.0785	2746.3744	914.45	27.65
1001.1996	2747.582	914.9	30.4
1001.3206	2748.7889	913.9	25.6
1001.4415	2749.9952	911.8	25.9
1001.5625	2751.2008	913.8	27.35
1001.6833	2752.4057	914.6	28.45
1001.8042	2753.61	911.5	25.2
1001.925	2754.8136	914.85	27.4
1002.0458	2756.0165	910.95	24.6
1002.1665	2757.2188	909.7	25.1
1002.2872	2758.4204	910.3	25.65
1002.4078	2759.6213	914.15	27.3
1002.5285	2760.8215	918.1	27.7
1002.649	2762.0211	915.5	28.4
1002.7696	2763.22	914.1	27.5
1002.8901	2764.4182	913.15	26.75
1003.0106	2765.6158	912.75	26.65
1003.131	2766.8127	911.3	24.75
1003.2514	2768.009	911.7	24.75
1003.3717	2769.2045	910.45	24
1003.492	2770.3994	913.5	26.05
1003.6123	2771.5936	911.35	24.55
1003.7325	2772.7872	909.85	26.7
1003.8527	2773.9801	910.8	25.25
1003.9729	2775.1723	926.25	26.35
1004.093	2776.3639	908.6	23.2
1004.2131	2777.5548	912.4	25.45
1004.3331	2778.745	910.9	24.15
1004.4531	2779.9346	911.85	27.75
1004.5731	2781.1235	909.2	24.55
1004.693	2782.3117	907.4	22.85
1004.8129	2783.4992	908.45	23
1004.9328	2784.6861	911.1	27.35
1005.0526	2785.8723	912.35	27.35
1005.1723	2787.0579	911.2	25.55
1005.2921	2788.2428	910.2	22.85
1005.4118	2789.427	908.95	23.95
1005.5314	2790.6106	911.15	26.2
1005.651	2791.7935	910.05	23.3
1005.7706	2792.9757	907.55	25
1005.8902	2794.1573	909.2	21.15
1006.0097	2795.3382	909.45	27.45
1006.1291	2796.5184	909.8	23.05
1006.2485	2797.698	912.05	26.25
1006.3679	2798.8769	910.1	22.85
1006.4873	2800.0551	909.1	23.45
1006.6066	2801.2327	913.5	23.4
1006.7258	2802.4096	909	23.85
1006.8451	2803.5859	909.7	24.7
1006.9642	2804.7615	911.75	25.35
1007.0834	2805.9364	909.4	23.35
1007.2025	2807.1106	909.55	22.45
1007.3216	2808.2842	909.25	23.5
1007.4406	2809.4572	910.85	25.8
1007.5596	2810.6294	913.5	26.75
1007.6785	2811.801	911.2	28.75
1007.7975	2812.972	912.75	27.25
1007.9163	2814.1423	913.4	29.55
1008.0352	2815.3119	913.2	27.6
1008.154	2816.4808	912.3	26.5
1008.2727	2817.6491	917.3	31.9
1008.3914	2818.8167	917.15	33.2
1008.5101	2819.9837	925.75	37.55
1008.6288	2821.15	922.4	37.35
1008.7474	2822.3157	924.55	41.2
1008.8659	2823.4807	928.75	44.65
1008.9844	2824.645	933.45	45.7
1009.1029	2825.8086	934.35	50.5
1009.2214	2826.9716	935.4	51.15
1009.3398	2828.134	941.55	56.75
1009.4581	2829.2957	943.7	58.95
1009.5764	2830.4567	946.15	62.95
1009.6947	2831.617	948.15	62.5
1009.813	2832.7767	953.65	68.95
1009.9312	2833.9358	951	66.95
1010.0493	2835.0941	953.75	66
1010.1675	2836.2519	949.95	66.45
1010.2855	2837.4089	951.15	65
1010.4036	2838.5653	945.9	61.15
1010.5216	2839.7211	943.95	60.55
1010.6396	2840.8761	944.1	54.75
1010.7575	2842.0306	938.85	54.75
1010.8754	2843.1843	942	58.75
1010.9932	2844.3374	941.3	55.5
1011.111	2845.4899	941.85	56.4
1011.2288	2846.6417	942.3	61.05
1011.3465	2847.7928	942.85	58.25
1011.4642	2848.9433	945.1	61.5
1011.5818	2850.0931	943.55	60.4
1011.6995	2851.2422	948.7	61.6
1011.817	2852.3907	945.1	57.7
1011.9345	2853.5385	950.1	61.85
1012.052	2854.6857	971.85	59.9
1012.1695	2855.8323	948.95	64.4
1012.2869	2856.9781	947	62.4
1012.4042	2858.1233	949.75	64.75
1012.5216	2859.2679	950.3	65.2
1012.6389	2860.4118	953.5	68.6
1012.7561	2861.555	958.9	68.7
1012.8733	2862.6976	959.6	72.85
1012.9905	2863.8395	957.65	75.5
1013.1076	2864.9808	957.85	71.55
1013.2247	2866.1214	957.2	72
1013.3417	2867.2614	958.25	72.25
1013.4587	2868.4007	959.75	73.3
1013.5757	2869.5393	960.7	71.9
1013.6926	2870.6773	962.65	73.6
1013.8095	2871.8146	964.6	77.45
1013.9263	2872.9513	965.2	75.8
1014.0431	2874.0874	963.5	79.3
1014.1599	2875.2227	964	80.55
1014.2766	2876.3574	962.9	77.45
1014.3933	2877.4915	964.15	79.5
1014.51	2878.6249	963.55	79
1014.6266	2879.7577	968.85	81.95
1014.7431	2880.8898	980.9	86.05
1014.8596	2882.0212	970.7	86.55
1014.9761	2883.152	974.55	89.6
1015.0925	2884.2821	969.6	85.1
1015.2089	2885.4116	972.05	87.45
1015.3253	2886.5405	975	88.75
1015.4416	2887.6686	977.85	88.35
1015.5579	2888.7962	971.9	88.8
1015.6741	2889.923	969.55	85.55
1015.7903	2891.0493	974.5	91.6
1015.9065	2892.1748	971.95	88
1016.0226	2893.2997	972.3	86.45
1016.1387	2894.424	971.1	87.7
1016.2547	2895.5476	971.95	88
1016.3707	2896.6706	971.45	88.3
1016.4866	2897.7929	972.45	85.65
1016.6025	2898.9145	975	90.85
1016.7184	2900.0355	973.1	86.4
1016.8342	2901.1559	972.1	87.75
1016.95	2902.2756	975.2	87.55
1017.0658	2903.3946	972.3	88.2
1017.1815	2904.513	975.35	86.45
1017.2971	2905.6308	972.4	87.55
1017.4127	2906.7479	970.2	85.05
1017.5283	2907.8643	972.3	86
1017.6439	2908.9801	969.4	86.1
1017.7594	2910.0953	970.65	84.4
1017.8748	2911.2098	972.6	84.4
1017.9902	2912.3236	979.5	87.8
1018.1056	2913.4368	972.9	84.45
1018.2209	2914.5494	972.35	89.2
1018.3362	2915.6613	975.05	85
1018.4515	2916.7725	969.15	81.35
1018.5667	2917.8831	965.2	78.35
1018.6819	2918.9931	969.85	81.65
1018.797	2920.1024	967.25	79.9
1018.9121	2921.211	962.55	78.85
1019.0271	2922.319	961.55	74.95
1019.1421	2923.4264	961.65	76.55
1019.2571	2924.5331	960.05	75.45
1019.372	2925.6391	962	77
1019.4869	2926.7445	959.55	75.4
1019.6017	2927.8493	961.3	74
1019.7165	2928.9534	962.95	76.75
1019.8313	2930.0569	966.4	78.75
1019.946	2931.1597	965.4	79.25
1020.0606	2932.2619	963.6	77.7
1020.1753	2933.3634	964.15	79.8
1020.2899	2934.4643	968.7	77.7
1020.4044	2935.5645	970.9	79
1020.5189	2936.6641	970.95	83.4
1020.6334	2937.763	966.15	82.7
1020.7478	2938.8613	965.4	79.15
1020.8622	2939.959	972.65	82.3
1020.9765	2941.056	963.4	77.4
1021.0908	2942.1523	960.35	74.75
1021.2051	2943.248	957.4	72.75
1021.3193	2944.3431	952.8	69.2
1021.4334	2945.4375	948.65	63.15
1021.5476	2946.5313	946.65	61.3
1021.6617	2947.6244	947.2	61.25
1021.7757	2948.7169	941.9	56.15
1021.8897	2949.8087	939.55	54.65
1022.0037	2950.8999	936.4	51.4
1022.1176	2951.9904	933.45	50
1022.2315	2953.0803	931.8	46.45
1022.3453	2954.1696	931	45.5
1022.4591	2955.2582	927.75	43.15
1022.5728	2956.3462	926.3	41.85
1022.6865	2957.4335	926.45	41.5
1022.8002	2958.5202	929.25	42.3
1022.9138	2959.6062	926.45	43.45
1023.0274	2960.6916	927.7	42.1
1023.141	2961.7764	924.4	38.45
1023.2545	2962.8605	926.9	39.75
1023.3679	2963.9439	923.45	38.9
1023.4813	2965.0267	924.8	38.4
1023.5947	2966.1089	951.4	44.1
1023.708	2967.1905	922.9	37.65
1023.8213	2968.2714	921.6	37.8
1023.9346	2969.3516	926.65	43.05
1024.0478	2970.4312	931.65	39
1024.1609	2971.5102	925.15	38.65
1024.274	2972.5885	921.2	37.3
1024.3871	2973.6662	927.55	36.7
1024.5002	2974.7432	923.9	38.8
1024.6132	2975.8196	922.8	36.55
1024.7261	2976.8954	925.15	41.2
1024.839	2977.9705	920.9	35.6
1024.9519	2979.045	925.55	42.55
1025.0647	2980.1188	921.7	38.15
1025.1775	2981.192	921	37.6
1025.2902	2982.2645	921.2	33.15
1025.4029	2983.3364	923.9	38
1025.5156	2984.4077	922.75	35.65
1025.6282	2985.4783	927.85	36.45
1025.7407	2986.5483	920.05	35.5
1025.8532	2987.6177	921.05	34.9
1025.9657	2988.6864	917.5	31.1
1026.0782	2989.7545	918.5	32.15
1026.1906	2990.8219	914.35	29.45
1026.3029	2991.8887	918.65	32.65
1026.4152	2992.9548	914.6	30.4
1026.5275	2994.0204	911.8	27.45
1026.6397	2995.0852	909.55	24.55
1026.7519	2996.1495	911.2	23.85
1026.864	2997.2131	911	26.35
1026.9761	2998.276	908	23.05
1027.0882	2999.3383	908.5	22.25
1027.2002	3000.4	906	19.5
1027.3122	3001.4611	905.55	18.95
1027.4241	3002.5215	906.8	21.2
1027.536	3003.5812	903.65	17
1027.6478	3004.6404	903.1	16.45
1027.7596	3005.6989	906.15	18.1
1027.8714	3006.7567	903	18.15
1027.9831	3007.8139	932.7	17
1028.0947	3008.8705	903.4	19.05
1028.2064	3009.9264	917.25	16.25
1028.3179	3010.9818	901.7	15.4
1028.4295	3012.0364	901.6	14.2
1028.541	3013.0905	901.65	15.55
1028.6524	3014.1439	898.5	13.2
1028.7638	3015.1966	898.2	14.4
1028.8752	3016.2487	901.95	17.8
1028.9865	3017.3002	906.55	14.85
1029.0978	3018.3511	900.75	17.8
1029.209	3019.4013	901.9	17.35
1029.3202	3020.4509	897.6	12.45
1029.4314	3021.4998	898.2	14.15
1029.5425	3022.5481	901.5	15.35
1029.6535	3023.5958	900.7	13.55
1029.7645	3024.6428	899.65	13.4
1029.8755	3025.6892	899.55	13.7
1029.9864	3026.735	899.6	16.95
1030.0973	3027.7802	900.65	14.35
1030.2082	3028.8247	899.85	16.1
1030.319	3029.8685	900.15	15.9
1030.4297	3030.9118	901.15	16.4
1030.5404	3031.9544	900.7	17
1030.6511	3032.9963	898.9	12.4
1030.7617	3034.0376	898.85	14.5
1030.8723	3035.0783	901.2	12.95
1030.9829	3036.1184	900.35	13.85
1031.0934	3037.1578	897.45	14.05
1031.2038	3038.1966	900.85	15.3
1031.3142	3039.2348	896.1	11.15
1031.4246	3040.2723	905.95	10.95
1031.5349	3041.3092	899	15.2
1031.6452	3042.3455	900.95	18.3
1031.7554	3043.3811	899.8	15.75
1031.8656	3044.4161	901.45	16
1031.9758	3045.4505	898.35	16.3
1032.0859	3046.4842	898.3	11.3
1032.1959	3047.5173	898.45	13.3
1032.3059	3048.5498	900	13
1032.4159	3049.5816	897.8	12.7
1032.5258	3050.6128	901	15.55
1032.6357	3051.6434	902.1	16.85
1032.7455	3052.6734	900.9	16.15
1032.8553	3053.7027	898.3	13.3
1032.9651	3054.7314	898.15	13.8
1033.0748	3055.7594	897.05	14.2
1033.1845	3056.7868	901.7	17.75
1033.2941	3057.8136	900.65	17.25
1033.4037	3058.8398	898.6	14.55
1033.5132	3059.8653	900.4	14.65
1033.6227	3060.8902	899.3	14.2
1033.7321	3061.9145	898.45	13.55
1033.8415	3062.9381	900.5	14.8
1033.9509	3063.9612	916.65	15
1034.0602	3064.9835	899	16
1034.1694	3066.0053	902.5	16.55
1034.2787	3067.0264	898.9	13.35
1034.3878	3068.0469	901.8	16.55
1034.497	3069.0668	902.25	16.15
1034.6061	3070.086	899.45	13.55
1034.7151	3071.1046	903.5	14.85
1034.8241	3072.1226	901.2	14.65
1034.9331	3073.1399	900.3	15
1035.042	3074.1567	900.4	15.4
1035.1508	3075.1727	901.25	14.05
1035.2597	3076.1882	899.75	15.45
1035.3684	3077.203	898.2	12.4
1035.4772	3078.2173	902.2	17.85
1035.5859	3079.2308	901.5	13.3
1035.6945	3080.2438	900.75	13.85
1035.8031	3081.2561	898.55	13.2
1035.9117	3082.2678	894.2	7.7
1036.0202	3083.2789	896.6	12.25
1036.1286	3084.2893	896.35	11.8
1036.2371	3085.2991	897.05	11.35
1036.3454	3086.3083	901.3	11.9
1036.4538	3087.3169	898.1	12.15
1036.562	3088.3248	897.05	10.85
1036.6703	3089.3321	897.7	11.35
1036.7785	3090.3388	894.5	10.85
1036.8866	3091.3449	897.05	13
1036.9948	3092.3503	900.2	12.9
1037.1028	3093.3551	895.65	10.75
1037.2108	3094.3593	896.15	12
1037.3188	3095.3629	892.45	7.85
1037.4267	3096.3658	894.75	8.4
1037.5346	3097.3681	895.75	10.6
1037.6425	3098.3698	898.65	10.85
1037.7503	3099.3708	896.1	12.85
1037.858	3100.3713	895.35	8.15
1037.9657	3101.3711	894.9	10.45
1038.0734	3102.3702	1032.15	11.15
1038.181	3103.3688	899.75	12.15
1038.2886	3104.3667	892.15	9.4
1038.3961	3105.364	893.95	7.5
1038.5036	3106.3607	896.75	10.45
1038.611	3107.3568	894.35	7.7
1038.7184	3108.3522	892.6	6.85
1038.8257	3109.347	895.9	10.2
1038.933	3110.3412	899.65	9.15
1039.0403	3111.3348	893.45	9.8
1039.1475	3112.3277	895.65	13.7
1039.2547	3113.32	892.55	7.6
1039.3618	3114.3117	895.8	10.25
1039.4689	3115.3028	893.1	9.3
1039.5759	3116.2932	893.85	4.95
1039.6829	3117.2831	900.45	8.45
1039.7898	3118.2723	891.75	7
1039.8967	3119.2608	891.5	7.05
1040.0035	3120.2488	894.2	8.55
1040.1103	3121.2361	893.6	7.85
1040.2171	3122.2229	891.95	5.65
1040.3238	3123.209	894.7	8.3
1040.4305	3124.1944	892.55	6.3
1040.5371	3125.1793	894	7.4
1040.6437	3126.1635	891.95	8.05
1040.7502	3127.1471	892.55	8.45
1040.8567	3128.1301	893.75	5.9
1040.9631	3129.1125	893.3	10.6
1041.0695	3130.0942	891.7	6.15
1041.1759	3131.0753	899.8	7.6
1041.2822	3132.0558	897.05	11.8
1041.3884	3133.0357	891.7	3
1041.4946	3134.015	892.7	7.6
1041.6008	3134.9936	894.5	7.1
1041.7069	3135.9716	912.45	6.1
1041.813	3136.949	894.55	8.4
1041.919	3137.9258	910.1	7.65
1042.025	3138.902	899.75	8.9
1042.1309	3139.8775	891.7	8.45
1042.2368	3140.8524	890.6	4.5
1042.3427	3141.8267	896.25	11.9
1042.4485	3142.8004	892.55	8.5
1042.5542	3143.7735	898.9	7.35
1042.6599	3144.7459	894.6	7.35
1042.7656	3145.7178	892.1	5.6
1042.8712	3146.689	888.9	3.55
1042.9768	3147.6596	893.2	5.3
1043.0823	3148.6295	893.6	6.75
1043.1878	3149.5989	891.65	6.85
1043.2932	3150.5676	890.1	7.1
1043.3986	3151.5357	889.2	4.9
1043.5039	3152.5032	890.2	6.95
1043.6092	3153.4701	893.1	8.2
1043.7145	3154.4364	892.6	6.45
1043.8197	3155.402	889.75	5.6
1043.9248	3156.367	894.55	7.35
1044.03	3157.3315	912.6	9.5
1044.135	3158.2952	892.15	6.75
1044.24	3159.2584	892.25	7.1
1044.345	3160.221	890	2.05
1044.4499	3161.1829	890.45	4.5
1044.5548	3162.1442	891.2	7.05
1044.6596	3163.105	890.6	5.05
1044.7644	3164.065	890.7	5.6
1044.8692	3165.0245	894.45	6.65
1044.9739	3165.9834	891.1	8.05
1045.0785	3166.9416	892.8	8.25
1045.1831	3167.8993	891.15	5.25
1045.2877	3168.8563	890.6	5.8
1045.3922	3169.8127	891	5.45
1045.4966	3170.7684	891.3	5.25
1045.6011	3171.7236	891.5	5.6
1045.7054	3172.6782	890.95	7.25
1045.8098	3173.6321	891.3	5.95
1045.914	3174.5854	896.9	7.65
1046.0183	3175.5381	892.25	5.8
1046.1224	3176.4902	889.2	6.5
1046.2266	3177.4417	891.2	4.95
1046.3307	3178.3926	890	5.7
1046.4347	3179.3428	891.3	6.05
1046.5387	3180.2924	889.5	3.4
1046.6427	3181.2415	890.75	4.55
1046.7466	3182.1899	891	5.15
1046.8504	3183.1377	889	4.95
1046.9542	3184.0848	893.5	4.9
1047.058	3185.0314	891.05	5.9
1047.1617	3185.9773	891.7	5.45
1047.2654	3186.9227	893.75	9.25
1047.369	3187.8674	890.55	5.8
1047.4726	3188.8115	891.75	2.85
1047.5761	3189.755	890.3	3.8
1047.6796	3190.6979	888.1	2.8
1047.783	3191.6402	889	4.2
1047.8864	3192.5818	890.55	5.3
1047.9898	3193.5229	905.15	7.95
1048.0931	3194.4633	889.45	5.25
1048.1963	3195.4031	890.3	3.75
1048.2995	3196.3423	889.3	3.3
1048.4027	3197.2809	888.55	3.8
1048.5058	3198.2189	890.95	4.9
1048.6089	3199.1563	905.2	1.85
1048.7119	3200.0931	889.65	4.85
1048.8148	3201.0292	887.3	2.6
1048.9178	3201.9648	890.55	5.3
1049.0206	3202.8997	894.1	8.55
1049.1235	3203.834	890.45	5.05
1049.2262	3204.7677	891	6.8
1049.329	3205.7008	892.55	4.25
1049.4317	3206.6333	887.5	3.15
1049.5343	3207.5652	892.5	5.35
1049.6369	3208.4964	889.7	3.9
1049.7394	3209.4271	888.3	4.2
1049.8419	3210.3571	889.35	3
1049.9444	3211.2865	891.95	4.7
1050.0468	3212.2154	891.1	5.2
1050.1491	3213.1436	892.05	3.3
1050.2514	3214.0712	895.35	4.05
1050.3537	3214.9982	890.95	7
1050.4559	3215.9246	891.05	3.2
1050.5581	3216.8503	887.9	2.65
1050.6602	3217.7755	889	3
1050.7623	3218.7001	887.7	2.95
1050.8643	3219.624	890.6	4.8
1050.9663	3220.5473	889.3	3.95
1051.0682	3221.4701	890.35	4
1051.1701	3222.3922	889.2	1.8
1051.2719	3223.3137	887.8	4.1
1051.3737	3224.2346	889.35	4.85
1051.4754	3225.1549	887.7	3.2
1051.5771	3226.0746	890	4.6
1051.6788	3226.9937	890.7	7.3
1051.7804	3227.9121	890.3	4.65
1051.8819	3228.83	888.8	4.95
1051.9834	3229.7473	889.7	5
1052.0849	3230.6639	890.05	5.55
1052.1863	3231.5799	889	6.05
1052.2876	3232.4954	887.1	1.95
1052.3889	3233.4102	890.15	2.8
1052.4902	3234.3244	890.45	5.65
1052.5914	3235.238	887.9	1.7
1052.6926	3236.151	914.25	5.3
1052.7937	3237.0634	888.5	2.75
1052.8948	3237.9752	889.2	2.65
1052.9958	3238.8864	890.2	4.15
1053.0968	3239.797	888.5	3.5
1053.1977	3240.7069	890.5	6.1
1053.2986	3241.6163	888.3	1.9
1053.3994	3242.5251	888.35	4.6
1053.5002	3243.4332	888.25	4.65
1053.6009	3244.3408	890.15	5.55
1053.7016	3245.2477	889.85	4.45
1053.8022	3246.154	890.4	4.5
1053.9028	3247.0598	891.4	4.95
1054.0034	3247.9649	888.6	1.95
1054.1039	3248.8694	888.15	3.55
1054.2043	3249.7733	887.9	1.05
1054.3047	3250.6766	887.85	4.4
1054.4051	3251.5793	890	3
1054.5054	3252.4814	887.45	2.65
1054.6056	3253.3829	888.35	6.25
1054.7058	3254.2838	887.55	3.05
1054.806	3255.1841	888.35	4.15
1054.9061	3256.0838	888.7	2.75
1055.0061	3256.9829	887.85	3.25
1055.1062	3257.8814	888.2	-0.4
1055.2061	3258.7792	890.25	1.35
1055.306	3259.6765	889.8	4.35
1055.4059	3260.5731	888.3	3.55
1055.5057	3261.4692	887.3	0.55
1055.6055	3262.3647	887.55	2.3
1055.7052	3263.2595	889.85	4.35
1055.8049	3264.1538	887.15	2.1
1055.9045	3265.0474	889.75	5
1056.0041	3265.9404	888.9	3.85
1056.1036	3266.8329	888.55	2.6
1056.2031	3267.7247	898.1	1.3
1056.3025	3268.616	888.1	5.55
1056.4019	3269.5066	887.45	0.4
1056.5013	3270.3966	889	2.15
1056.6005	3271.286	888.25	3.6
