Software Version:	3.9.2.0
Unit SN:	10000200
Spectrometer SN:	6960
Date:	3/14/2024 1:43:24 PM
Data Line Index:	25
Spectral Points:	2048
Integration time (ms):	125
Averages:	20
Delay (ms):	30000
Sequence Number:	1
Processing:	dark subtract
Laser Power (mW):	305
Laser Current (mA):	824
Laser Diode Temp (C):	25
Laser Case Temp (C):	28.8
System Temp (C):	28.8
Spectrometer Temp (C):	26.6
CCD Temp (C):	0.009
Secondary Temp (C):	20.014
Heatsink Temp (C):	24.686
CCDPCB Temp (C):	38.208
SecondaryPCB Temp (C):	35.707

Wavelength	RamanShift	Raw Counts	Dark Subtracted
787.061	30.1047	467.4	57.05
787.2016	32.3739	469.25	60.75
787.3422	34.6426	478.9	69.4
787.4828	36.9109	484.1	71.8
787.6235	39.1787	489.75	74.35
787.7642	41.4461	503.3	82.5
787.9049	43.7131	511.05	88.55
788.0456	45.9796	521.2	93.65
788.1863	48.2456	532.3	98.1
788.3271	50.5112	540.55	104.7
788.4679	52.7764	549.45	111.4
788.6087	55.0411	558.25	117.1
788.7496	57.3054	573.15	126.2
788.8904	59.5692	590.15	139
789.0313	61.8326	602.05	148
789.1722	64.0955	612.45	155.35
789.3132	66.3579	630.95	166.95
789.4541	68.6199	653.7	189.75
789.5951	70.8815	691.45	221.9
789.7361	73.1426	772.5	300.45
789.8771	75.4032	986.6	508.3
790.0181	77.6634	1536.3	1051.9
790.1592	79.9231	2791.4	2302.35
790.3003	82.1824	5582.15	5082.05
790.4414	84.4412	10730.05	10212.2
790.5825	86.6995	17987.9	17445.45
790.7237	88.9574	25223.55	24659.75
790.8648	91.2148	30322.95	29741.7
791.006	93.4717	32732.2	32142.65
791.1472	95.7282	33325.5	32730
791.2885	97.9842	33258.7	32662.8
791.4297	100.2398	32659.45	32057.6
791.571	102.4949	32046.4	31443.55
791.7123	104.7495	31217.1	30607.3
791.8536	107.0036	30416.5	29807.75
791.9949	109.2573	29606.55	29005.5
792.1363	111.5105	28855.85	28247.3
792.2777	113.7632	28108.05	27497.35
792.4191	116.0154	27531.05	26912.75
792.5605	118.2672	27072.2	26457.3
792.7019	120.5185	26633.5	26019.4
792.8434	122.7693	26309.5	25690.35
792.9849	125.0197	26025.7	25407.65
793.1264	127.2696	25720	25098.15
793.2679	129.519	25513.9	24891
793.4094	131.7679	25306.95	24678.9
793.551	134.0163	25117.75	24489.1
793.6926	136.2642	24861.2	24222.95
793.8342	138.5117	24618.15	23974.35
793.9758	140.7587	24301.7	23661.85
794.1175	143.0052	24057.9	23417.5
794.2591	145.2512	23754.05	23111.7
794.4008	147.4967	23481.1	22836.75
794.5425	149.7417	23303.3	22659.5
794.6842	151.9863	23130.8	22483.55
794.826	154.2304	23098.8	22447.8
794.9677	156.4739	22920.4	22260.95
795.1095	158.717	22836.5	22181
795.2513	160.9596	22670.15	22008.65
795.3931	163.2017	22389.95	21729.55
795.535	165.4433	22071.35	21407.95
795.6768	167.6844	21701.3	21035.3
795.8187	169.925	21368	20698.9
795.9606	172.1651	20988.2	20316.35
796.1025	174.4047	20692.6	20016.1
796.2445	176.6439	20453.65	19776.9
796.3864	178.8825	20173.65	19495.2
796.5284	181.1206	20000.9	19316.55
796.6704	183.3582	19850.9	19163.35
796.8124	185.5954	19720.85	19033.9
796.9544	187.832	19594.75	18900.75
797.0965	190.0681	19591.4	18896.65
797.2386	192.3037	19564.2	18865.85
797.3806	194.5388	19526.45	18826.3
797.5228	196.7734	19559.8	18856.6
797.6649	199.0075	19629.4	18923.7
797.807	201.2411	19776.75	19068.15
797.9492	203.4742	19826.8	19118.85
798.0914	205.7068	20024.45	19315.4
798.2336	207.9389	20086.75	19377.7
798.3758	210.1704	20218	19506.6
798.518	212.4015	20328.6	19611.7
798.6603	214.632	20509.7	19795.9
798.8025	216.862	20663.7	19954.65
798.9448	219.0915	20777.85	20079.95
799.0871	221.3205	20953	20255.2
799.2294	223.549	21151.6	20455.45
799.3718	225.777	21386.15	20692.15
799.5141	228.0044	21660.6	20964.1
799.6565	230.2314	22041.75	21347.15
799.7989	232.4578	22360.35	21665.9
799.9413	234.6837	22670.7	21967
800.0837	236.909	22840.7	22137.3
800.2262	239.1339	22830.35	22103.3
800.3687	241.3582	22623.2	21910.65
800.5111	243.582	22347.8	21609.05
800.6536	245.8053	22103.55	21372.25
800.7961	248.0281	21832.75	21104.4
800.9387	250.2503	21690	20958.85
801.0812	252.472	21570.6	20833.75
801.2238	254.6932	21568.75	20831.9
801.3664	256.9139	21542.95	20801.3
801.509	259.134	21591.6	20846.7
801.6516	261.3536	21652.4	20909.4
801.7942	263.5727	21811.8	21067.1
801.9369	265.7912	21860	21117.6
802.0795	268.0092	21951.3	21207.05
802.2222	270.2267	21974.45	21230.2
802.3649	272.4436	22002.25	21257.75
802.5076	274.6601	21944.85	21187.75
802.6504	276.8759	21816	21069.9
802.7931	279.0913	21737.3	20989.4
802.9359	281.3061	21606.1	20854.85
803.0787	283.5204	21625.25	20871.8
803.2215	285.7341	21654.3	20894.9
803.3643	287.9473	21748.2	20978.7
803.5071	290.16	21923.55	21161.15
803.6499	292.3721	22198.1	21443.35
803.7928	294.5837	22571.4	21812.2
803.9357	296.7947	22868.95	22110.9
804.0786	299.0052	23063.4	22302.8
804.2215	301.2152	22909	22146.75
804.3644	303.4246	22612.05	21853.65
804.5074	305.6334	22054.45	21293.7
804.6503	307.8418	21505.45	20743.35
804.7933	310.0495	21072.45	20308.2
804.9363	312.2568	20696.8	19934.65
805.0793	314.4635	20379.75	19614.7
805.2223	316.6696	20211.5	19445.55
805.3653	318.8752	20094.55	19318.75
805.5084	321.0802	20111.55	19347.4
805.6514	323.2847	20174.15	19405.7
805.7945	325.4887	20205.2	19439
805.9376	327.692	20141	19373.15
806.0807	329.8949	20083.1	19313
806.2238	332.0972	19783.25	19010.5
806.367	334.2989	19533	18761.75
806.5101	336.5001	19213.05	18439.9
806.6533	338.7007	19015.95	18241.9
806.7965	340.9008	18908.9	18132.35
806.9397	343.1003	18745.95	17967.4
807.0829	345.2992	18647.55	17868.2
807.2261	347.4976	18599.65	17818.05
807.3693	349.6955	18527.75	17743.15
807.5126	351.8927	18581.95	17796
807.6559	354.0895	18544.6	17749.85
807.7991	356.2856	18544.95	17759.2
807.9424	358.4812	18502	17716.1
808.0857	360.6763	18537	17749.4
808.2291	362.8707	18475.65	17685.2
808.3724	365.0646	18519.6	17727.5
808.5158	367.258	18490.4	17697.95
808.6591	369.4508	18580	17781.05
808.8025	371.643	18621	17823.35
808.9459	373.8346	18631.55	17830.15
809.0893	376.0257	18605.7	17803.85
809.2327	378.2162	18560.75	17758.9
809.3762	380.4062	18482.5	17675.25
809.5196	382.5956	18308.5	17505.65
809.6631	384.7844	18208.65	17404.6
809.8066	386.9726	18045.55	17239.3
809.9501	389.1603	17934.75	17131.7
810.0936	391.3474	17909.1	17069.6
810.2371	393.5339	17870.1	17066.7
810.3806	395.7199	17787.9	16989.9
810.5241	397.9052	17778.7	16983.2
810.6677	400.09	17797.5	17004.5
810.8113	402.2743	17888.05	17094.15
810.9548	404.4579	17971.35	17176.9
811.0984	406.641	18135.95	17342.25
811.2421	408.8235	18344	17546.35
811.3857	411.0054	18603.8	17807.8
811.5293	413.1868	18969.25	18171.05
811.673	415.3675	19211.7	18410.5
811.8166	417.5477	19336.2	18532.15
811.9603	419.7273	19356.55	18551.1
812.104	421.9064	19242.1	18430.35
812.2477	424.0848	19097.6	18287.95
812.3914	426.2627	18870.25	18057.3
812.5351	428.4399	18585.15	17771.2
812.6788	430.6166	18191.85	17374.65
812.8226	432.7928	17821.55	17004.55
812.9663	434.9683	17490.7	16672.4
813.1101	437.1432	17237.7	16419
813.2539	439.3176	17024.85	16208.65
813.3977	441.4914	16900.65	16081.55
813.5415	443.6645	16825.8	16005.15
813.6853	445.8371	16769.7	15948.9
813.8291	448.0091	16692.55	15873.3
813.973	450.1806	16654.85	15834.95
814.1168	452.3514	16581	15756.1
814.2607	454.5216	16597.05	15763.25
814.4046	456.6913	16496.05	15671.25
814.5485	458.8603	16547.25	15726.95
814.6924	461.0288	16599.6	15777.4
814.8363	463.1967	16595.5	15771.95
814.9802	465.3639	16679.5	15855.9
815.1241	467.5306	16716.95	15891.5
815.2681	469.6967	16800.65	15972
815.412	471.8622	16913	16086.15
815.556	474.0271	16998.45	16173.1
815.7	476.1914	17046.65	16220.15
815.844	478.3551	17052.25	16226.85
815.988	480.5182	17023.6	16196.05
816.132	482.6807	17038.1	16209.75
816.276	484.8426	17183.7	16354.95
816.4201	487.0039	17455.3	16627.35
816.5641	489.1647	17829.7	16998.65
816.7082	491.3248	18275.2	17441.95
816.8522	493.4843	18419.5	17592.6
816.9963	495.6432	18414.45	17583.85
817.1404	497.8015	18279.1	17445.35
817.2845	499.9592	18229.2	17397.75
817.4286	502.1163	18102.65	17269.75
817.5727	504.2728	17814.05	16979.7
817.7168	506.4287	17511.1	16676.65
817.861	508.5839	17063.35	16231.35
818.0051	510.7386	16750.9	15920.3
818.1493	512.8927	16579.4	15736.8
818.2935	515.0461	16505.65	15673.5
818.4377	517.199	16467.4	15633.75
818.5818	519.3512	16482.3	15646.8
818.726	521.5029	16628.65	15788.45
818.8703	523.6539	16761.45	15924.1
819.0145	525.8043	16841.45	16005.85
819.1587	527.9541	16786.05	15946.6
819.303	530.1033	16701.15	15863.15
819.4472	532.2519	16625.15	15789.4
819.5915	534.3999	16703.65	15864.05
819.7357	536.5472	16919.4	16082.05
819.88	538.694	17283.4	16442.3
820.0243	540.8401	17767.5	16927.5
820.1686	542.9856	18189.4	17345.7
820.3129	545.1305	18286.3	17442.4
820.4572	547.2748	18122.45	17279.8
820.6016	549.4185	17834.7	16991.15
820.7459	551.5615	17509.7	16668.4
820.8902	553.704	17373.5	16528.6
821.0346	555.8458	17329.25	16486.65
821.1789	557.987	17370.65	16528.35
821.3233	560.1276	17417.2	16572.5
821.4677	562.2675	17567.5	16723.4
821.6121	564.4069	17768.5	16923.05
821.7565	566.5456	17892.5	17047.8
821.9009	568.6837	17888.1	17044.45
822.0453	570.8212	17531.65	16690.05
822.1897	572.958	17040.45	16193.05
822.3342	575.0942	16616.7	15773.55
822.4786	577.2299	16340.55	15493.5
822.6231	579.3648	16204.7	15360.55
822.7675	581.4992	16254.45	15408.7
822.912	583.6329	16386.05	15542.9
823.0565	585.766	16585.1	15740.9
823.201	587.8985	16692.2	15844.4
823.3454	590.0304	16708.15	15841.3
823.4899	592.1616	16605.65	15760.35
823.6345	594.2922	16493.55	15645.9
823.779	596.4222	16284.3	15439.05
823.9235	598.5515	16106.65	15259
824.068	600.6802	15908.9	15060.9
824.2126	602.8083	15738.4	14892.5
824.3571	604.9358	15650.25	14800.15
824.5017	607.0626	15607.45	14755.75
824.6462	609.1888	15603.45	14754.1
824.7908	611.3144	15586.2	14735.85
824.9354	613.4393	15542.25	14694.55
825.08	615.5636	15494.4	14642.3
825.2246	617.6873	15447.05	14597.4
825.3692	619.8103	15367.1	14514.7
825.5138	621.9327	15213.05	14357.05
825.6584	624.0544	15140.1	14289.8
825.803	626.1756	15017.05	14167.1
825.9477	628.2961	14919.95	14068.7
826.0923	630.4159	14834.5	13982.1
826.237	632.5351	14793.75	13940.7
826.3816	634.6537	14755.75	13900.45
826.5263	636.7716	14721.3	13868.4
826.6709	638.8889	14710.95	13856.4
826.8156	641.0056	14686.55	13831.1
826.9603	643.1216	14677.45	13819.6
827.105	645.237	14691.1	13834.15
827.2497	647.3518	14620.6	13765.75
827.3944	649.4659	14603.9	13749.55
827.5391	651.5793	14561.2	13705.2
827.6838	653.6922	14519.7	13662.05
827.8285	655.8043	14525.8	13671.3
827.9733	657.9159	14469.75	13612.55
828.118	660.0268	14419.65	13560.5
828.2627	662.137	14330.8	13471.9
828.4075	664.2466	14319.35	13457.55
828.5522	666.3556	14303.6	13447.4
828.697	668.4639	14257.35	13396.65
828.8418	670.5716	14236.1	13378
828.9865	672.6786	14271.4	13415.5
829.1313	674.785	14267.5	13404.55
829.2761	676.8907	14309.7	13452.6
829.4209	678.9958	14343.15	13484.05
829.5657	681.1002	14309.05	13447.45
829.7105	683.204	14310.95	13449.65
829.8553	685.3072	14250.4	13390.45
830.0001	687.4097	14167.75	13310.5
830.1449	689.5115	14105.55	13244.3
830.2898	691.6127	14072.05	13213.55
830.4346	693.7132	13992.8	13127.5
830.5794	695.8131	13963.1	13086.3
830.7243	697.9123	13964.55	13105.9
830.8691	700.0109	13910.5	13049.3
831.014	702.1089	13912.3	13050.85
831.1588	704.2061	13893.25	13030.35
831.3037	706.3028	13913.55	13048.85
831.4486	708.3987	13934.5	13071.7
831.5935	710.4941	13998.5	13137.15
831.7383	712.5887	14111	13247.5
831.8832	714.6827	14338.4	13471.85
832.0281	716.7761	14629.3	13767.55
832.173	718.8688	14904.2	14038.5
832.3179	720.9608	15097.85	14230.55
832.4628	723.0522	15163	14297
832.6077	725.1429	15023.15	14159.8
832.7527	727.233	14845.35	13979.35
832.8976	729.3224	14693.25	13827.3
833.0425	731.4112	14460.25	13591.65
833.1874	733.4993	14239.2	13369.8
833.3324	735.5867	14046.1	13179.75
833.4773	737.6735	13891.95	13023.95
833.6222	739.7596	13767.75	12899.85
833.7672	741.845	13668.2	12802.95
833.9122	743.9298	13579.55	12710.9
834.0571	746.014	13555.85	12689.6
834.2021	748.0974	13509.95	12642.8
834.347	750.1802	13525.6	12659.05
834.492	752.2624	13527.2	12662.2
834.637	754.3439	13568.85	12699.45
834.782	756.4247	13632.05	12753.6
834.9269	758.5048	13753.05	12886.6
835.0719	760.5843	14009.3	13140.15
835.2169	762.6631	14348	13481.3
835.3619	764.7413	14868.35	13999.9
835.5069	766.8188	15502.3	14636.1
835.6519	768.8956	15992.2	15122.65
835.7969	770.9718	16311.35	15444.45
835.9419	773.0473	16183	15315.7
836.0869	775.1221	15834.85	14966.05
836.232	777.1962	15481.3	14609.3
836.377	779.2697	15287.45	14417.05
836.522	781.3426	15335.6	14458.1
836.667	783.4147	15523	14653.75
836.8121	785.4862	15722.75	14855.5
836.9571	787.557	15681.3	14812.8
837.1021	789.6271	15276.3	14405.3
837.2472	791.6966	14671.7	13803.15
837.3922	793.7654	14089.2	13219.95
837.5373	795.8335	13699.8	12827.4
837.6823	797.901	13421.65	12552
837.8274	799.9678	13311.6	12439.55
837.9724	802.0339	13280.7	12413.45
838.1175	804.0993	13240.5	12362.35
838.2626	806.1641	13221.05	12347.75
838.4076	808.2282	13131.95	12261.35
838.5527	810.2916	13065.95	12191.65
838.6978	812.3544	12938.6	12067.45
838.8428	814.4164	12847.95	11980.55
838.9879	816.4778	12860.8	11989
839.133	818.5385	12836.25	11965.9
839.2781	820.5986	12958.05	12088.6
839.4232	822.658	13081.2	12208.25
839.5682	824.7166	13256.75	12385.9
839.7133	826.7747	13589.5	12718.45
839.8584	828.832	13920.15	13045.9
840.0035	830.8886	14108.55	13235.2
840.1486	832.9446	14242	13371.5
840.2937	834.9999	14178.35	13308.3
840.4388	837.0545	14059	13183.65
840.5839	839.1085	13947.4	13076.6
840.729	841.1618	13809.15	12933.25
840.8741	843.2143	13670	12798.55
841.0192	845.2662	13483.4	12611.45
841.1643	847.3175	13407.25	12534.25
841.3095	849.368	13306.45	12434.6
841.4546	851.4179	13153.5	12281.85
841.5997	853.467	12990.15	12119.65
841.7448	855.5155	12897.05	12024.65
841.8899	857.5633	12808.7	11937.6
842.0351	859.6105	12698.75	11826.45
842.1802	861.6569	12588.85	11716.4
842.3253	863.7027	12524.55	11648.2
842.4704	865.7478	12458.45	11584.45
842.6156	867.7922	12446.4	11575.1
842.7607	869.8359	12444.05	11570.45
842.9058	871.8789	12513.75	11639.7
843.0509	873.9212	12681.65	11772.2
843.1961	875.9629	12769	11896.4
843.3412	878.0039	12932.55	12057.9
843.4863	880.0441	13015	12141
843.6315	882.0837	13038.75	12162.45
843.7766	884.1226	12992.1	12114.15
843.9218	886.1609	12893.7	12018.6
844.0669	888.1984	12872.9	11999.25
844.212	890.2352	12895.75	12022.7
844.3572	892.2714	12848	11968.05
844.5023	894.3069	12791.55	11916.6
844.6475	896.3416	12639.6	11764.6
844.7926	898.3757	12568.25	11692.5
844.9377	900.4091	12521.8	11646.15
845.0829	902.4418	12522.85	11644.05
845.228	904.4739	12531.35	11654.25
845.3732	906.5052	12536.2	11661.75
845.5183	908.5358	12442.1	11568
845.6635	910.5658	12296.65	11418.6
845.8086	912.595	12092.55	11216.25
845.9538	914.6236	11888.6	11013.6
846.0989	916.6515	11811.05	10936.95
846.2441	918.6786	11751.85	10875.2
846.3892	920.7051	11777.25	10900.1
846.5344	922.7309	11878.4	11004.8
846.6795	924.756	11905.1	11028.35
846.8246	926.7804	11981	11104.05
846.9698	928.8041	11922.5	11044.1
847.1149	930.8272	11965.45	11086.3
847.2601	932.8495	11915.1	11036.2
847.4052	934.8711	11881.3	11003.35
847.5504	936.892	11750.6	10872.9
847.6955	938.9123	11644.2	10765.5
847.8407	940.9318	11540.05	10660.5
847.9858	942.9506	11436.75	10560.35
848.131	944.9688	11343.35	10465.55
848.2761	946.9862	11252.55	10376.8
848.4213	949.003	11159.25	10282
848.5664	951.019	11118.75	10240.9
848.7115	953.0344	11096.3	10220.85
848.8567	955.0491	11113.45	10235.7
849.0018	957.063	11179.45	10300.15
849.147	959.0763	11235.25	10358.35
849.2921	961.0888	11275.5	10394.45
849.4373	963.1007	11334.65	10460.65
849.5824	965.1119	11375.3	10497.45
849.7275	967.1223	11369	10490.4
849.8727	969.1321	11376.25	10498.5
850.0178	971.1412	11363.1	10486.6
850.1629	973.1495	11371.5	10495.45
850.3081	975.1572	11416.5	10506.2
850.4532	977.1641	11395.95	10517.6
850.5983	979.1704	11375.9	10497.55
850.7435	981.1759	11349.7	10466.75
850.8886	983.1808	11360.2	10482.85
851.0337	985.1849	11417.45	10526.05
851.1788	987.1884	11568.4	10685.15
851.324	989.1911	11657.85	10775.85
851.4691	991.1932	11781.4	10899.8
851.6142	993.1945	11831.1	10951.6
851.7593	995.1951	11792.75	10912.6
851.9045	997.1951	11740.5	10854.2
852.0496	999.1943	11670.15	10793.25
852.1947	1001.1928	11645.2	10768.2
852.3398	1003.1906	11639.25	10761.55
852.4849	1005.1877	11702.9	10822.8
852.63	1007.1841	11732.1	10853.05
852.7751	1009.1798	11668.4	10789.45
852.9202	1011.1748	11509.25	10629.25
853.0653	1013.1691	11332.55	10453.6
853.2104	1015.1627	11107.7	10228.05
853.3555	1017.1556	10871.75	9991.5
853.5006	1019.1477	10768.65	9890.2
853.6457	1021.1392	10658.65	9780.6
853.7908	1023.1299	10633.9	9756.6
853.9359	1025.12	10621.1	9739.25
854.081	1027.1093	10672.2	9790.6
854.2261	1029.0979	10765.5	9885.15
854.3712	1031.0859	10824.45	9944.85
854.5163	1033.0731	10841.65	9960.75
854.6613	1035.0596	10779.85	9900.25
854.8064	1037.0454	10636.6	9756.8
854.9515	1039.0304	10531.25	9652.1
855.0965	1041.0148	10384	9503.3
855.2416	1042.9985	10271.75	9389.1
855.3867	1044.9814	10199.7	9319.55
855.5317	1046.9636	10140.25	9257.95
855.6768	1048.9452	10095.2	9215.75
855.8219	1050.926	10128.55	9249.55
855.9669	1052.9061	10137.35	9257.65
856.112	1054.8855	10131.6	9253.3
856.257	1056.8642	10160.8	9280.45
856.4021	1058.8421	10205.85	9323.55
856.5471	1060.8194	10235.15	9353.8
856.6921	1062.7959	10277.6	9396.55
856.8372	1064.7717	10314.4	9435.75
856.9822	1066.7469	10332.65	9451.8
857.1272	1068.7213	10351.55	9467.35
857.2723	1070.695	10372.8	9494.65
857.4173	1072.6679	10310.45	9428.7
857.5623	1074.6402	10281.1	9400
857.7073	1076.6117	10249.95	9364.2
857.8523	1078.5826	10195.85	9313.95
857.9973	1080.5527	10147.45	9265.1
858.1423	1082.5221	10183.9	9303.25
858.2873	1084.4908	10289.1	9407.75
858.4323	1086.4587	10433.9	9551
858.5773	1088.426	10541.75	9658.85
858.7223	1090.3925	10549.95	9665.05
858.8673	1092.3584	10513	9631.25
859.0123	1094.3235	10416.45	9537.3
859.1573	1096.2879	10357.25	9475.95
859.3022	1098.2515	10372.45	9491.9
859.4472	1100.2145	10470.1	9589.7
859.5922	1102.1767	10596.05	9712.1
859.7371	1104.1382	10798.15	9917.65
859.8821	1106.099	11027.7	10144.15
860.027	1108.0591	11243.2	10362.65
860.172	1110.0185	11387.05	10505.5
860.3169	1111.9771	11443.05	10561.3
860.4619	1113.9351	11274.9	10390.5
860.6068	1115.8923	11014.95	10132.6
860.7517	1117.8488	10770.8	9886.4
860.8967	1119.8045	10496.2	9614.55
861.0416	1121.7596	10362.35	9478.65
861.1865	1123.7139	10268.5	9389
861.3314	1125.6675	10281.7	9399.35
861.4763	1127.6204	10308.25	9428
861.6212	1129.5726	10270.8	9388.1
861.7661	1131.524	10223.85	9341.35
861.911	1133.4748	10156.95	9275.25
862.0559	1135.4248	10050.25	9167.9
862.2008	1137.3741	9989.65	9108.05
862.3457	1139.3226	9921.8	9038.85
862.4905	1141.2705	9843.05	8960.1
862.6354	1143.2176	9757.65	8870.7
862.7803	1145.164	9738.9	8855.25
862.9251	1147.1097	9700.35	8816.95
863.07	1149.0546	9645.35	8763.1
863.2148	1150.9989	9556.8	8673.85
863.3597	1152.9424	9414.5	8533.35
863.5045	1154.8852	9270.55	8388.3
863.6493	1156.8272	9174.35	8290.9
863.7942	1158.7686	9128.3	8238.3
863.939	1160.7092	9148.95	8266.75
864.0838	1162.6491	9149.95	8266.4
864.2286	1164.5883	9235.35	8353.45
864.3734	1166.5267	9313.95	8429.9
864.5182	1168.4644	9448.45	8565.75
864.663	1170.4014	9627.3	8740.8
864.8078	1172.3377	9886.8	9004.45
864.9526	1174.2732	10144.85	9263.7
865.0974	1176.2081	10468.25	9586
865.2421	1178.1421	10799.5	9915.3
865.3869	1180.0755	11131.6	10251.6
865.5317	1182.0082	11330.95	10447.15
865.6764	1183.9401	11390.15	10509.1
865.8212	1185.8713	11258.35	10373.5
865.9659	1187.8017	11003.75	10120.65
866.1106	1189.7315	10686.95	9807.8
866.2554	1191.6605	10374.6	9462.9
866.4001	1193.5888	10130.15	9249.4
866.5448	1195.5163	9971.75	9087.65
866.6895	1197.4432	9862.1	8981.2
866.8342	1199.3693	9836.4	8952.35
866.9789	1201.2947	9825.9	8936.55
867.1236	1203.2193	9796.6	8913
867.2683	1205.1432	9815.9	8930.5
867.413	1207.0664	9789.7	8907.75
867.5576	1208.9889	9804.65	8919.35
867.7023	1210.9106	9817.2	8933.75
867.847	1212.8316	9843.85	8962.15
867.9916	1214.7519	9907	9014.65
868.1363	1216.6715	9889.6	9009.55
868.2809	1218.5903	9920.15	9040.8
868.4255	1220.5084	9936.7	9054.85
868.5701	1222.4257	9975.65	9095.15
868.7148	1224.3424	9968.3	9085.85
868.8594	1226.2583	10022.85	9138.75
869.004	1228.1735	10122.85	9238.45
869.1486	1230.0879	10217.9	9333.45
869.2932	1232.0016	10379.05	9496.1
869.4377	1233.9146	10422.35	9536.15
869.5823	1235.8269	10356.55	9473.2
869.7269	1237.7384	10238.6	9356.1
869.8715	1239.6492	10058.45	9175.35
870.016	1241.5592	9977.6	9098.05
870.1606	1243.4686	9921.4	9037.1
870.3051	1245.3772	9957.35	9073.35
870.4496	1247.285	10004.3	9118.65
870.5941	1249.1922	10035.05	9152.5
870.7387	1251.0986	10049.3	9166.95
870.8832	1253.0042	10044.2	9162.45
871.0277	1254.9092	10117.8	9233.2
871.1722	1256.8134	10207.9	9327.25
871.3167	1258.7169	10370.2	9485.85
871.4611	1260.6196	10551.7	9667.75
871.6056	1262.5216	10727.65	9841.6
871.7501	1264.4229	10925.75	10043.65
871.8945	1266.3234	11109.4	10227.1
872.039	1268.2232	11177.85	10294.45
872.1834	1270.1223	11190.55	10303.8
872.3278	1272.0207	11223.7	10342.35
872.4723	1273.9183	11168.2	10282.05
872.6167	1275.8151	11093.6	10210.9
872.7611	1277.7113	11051.5	10168.6
872.9055	1279.6067	10971.95	10087.3
873.0499	1281.5014	10993.05	10108.5
873.1943	1283.3953	11063.1	10177.25
873.3386	1285.2885	11238.65	10355.9
873.483	1287.181	11402.8	10519.2
873.6274	1289.0727	11625.75	10745.1
873.7717	1290.9637	11797.75	10916.9
873.9161	1292.854	11946.05	11061.55
874.0604	1294.7435	11994.2	11112
874.2047	1296.6323	12070.1	11185.4
874.349	1298.5204	12153.5	11264.8
874.4933	1300.4077	12212.3	11325.45
874.6376	1302.2943	12238.7	11352.5
874.7819	1304.1802	12142.85	11260.2
874.9262	1306.0653	11880.35	10991.95
875.0705	1307.9497	11643.85	10758.75
875.2147	1309.8333	11395.65	10513.7
875.359	1311.7162	11232.6	10347.25
875.5032	1313.5984	11169.2	10283.65
875.6475	1315.4798	11183.45	10290.05
875.7917	1317.3605	11215.4	10314.7
875.9359	1319.2405	11213.7	10326.4
876.0801	1321.1197	11128.15	10241.95
876.2243	1322.9982	10962.4	10072.6
876.3685	1324.876	10829.75	9946.1
876.5127	1326.753	10706.4	9823.2
876.6569	1328.6293	10577.75	9692.4
876.801	1330.5048	10545.95	9661.7
876.9452	1332.3796	10470.75	9586.8
877.0893	1334.2537	10434.5	9525.8
877.2335	1336.127	10375.8	9489.9
877.3776	1337.9996	10345.85	9462.75
877.5217	1339.8714	10342	9455.75
877.6658	1341.7426	10336	9408.4
877.8099	1343.6129	10302.1	9417.35
877.954	1345.4826	10287.8	9403.55
878.0981	1347.3515	10247.85	9360.15
878.2422	1349.2196	10246.25	9359.85
878.3862	1351.087	10257.9	9371.35
878.5303	1352.9537	10341.6	9458.25
878.6743	1354.8197	10438.75	9555.2
878.8184	1356.6849	10610.5	9727.35
878.9624	1358.5493	10737.3	9851.4
879.1064	1360.4131	10868.3	9985.8
879.2504	1362.276	10894.1	10011.15
879.3944	1364.1383	10772.4	9887.9
879.5384	1365.9998	10529.1	9636.95
879.6823	1367.8606	10209.6	9325.1
879.8263	1369.7206	9869.5	8985.55
879.9702	1371.5799	9609.45	8722.55
880.1142	1373.4384	9378.95	8495.2
880.2581	1375.2962	9182.8	8296.05
880.402	1377.1533	8882.2	7996.75
880.5459	1379.0096	8552.15	7666.6
880.6898	1380.8652	8227.4	7341.45
880.8337	1382.7201	7963.7	7078.65
880.9776	1384.5742	7722.05	6836.75
881.1215	1386.4275	7537.35	6652.6
881.2653	1388.2802	7421.4	6538.95
881.4092	1390.132	7292.15	6409.55
881.553	1391.9832	7230.1	6344.1
881.6968	1393.8336	7157.9	6272.65
881.8406	1395.6832	7109.25	6222.9
881.9844	1397.5322	7078.5	6194.15
882.1282	1399.3803	7074.85	6185.15
882.272	1401.2278	7047.85	6161.6
882.4158	1403.0745	7037.9	6153.25
882.5595	1404.9204	7029.45	6148.5
882.7033	1406.7656	7046.35	6161.9
882.847	1408.6101	7076.3	6191.15
882.9908	1410.4538	7096.35	6210.9
883.1345	1412.2968	7143.6	6258.25
883.2782	1414.139	7225.4	6339.9
883.4219	1415.9805	7292.55	6408.85
883.5656	1417.8213	7386.65	6494.5
883.7092	1419.6613	7491.35	6606.5
883.8529	1421.5006	7677.9	6791.9
883.9965	1423.3391	7912.15	7028.7
884.1402	1425.1769	8238.75	7352.95
884.2838	1427.0139	8712.4	7824.9
884.4274	1428.8502	9256.8	8372.75
884.571	1430.6858	9842.35	8955.8
884.7146	1432.5206	10298.6	9414.55
884.8582	1434.3547	10495.35	9607.5
885.0018	1436.188	10516.7	9632.3
885.1453	1438.0206	10404.8	9519.95
885.2889	1439.8524	10252.95	9368
885.4324	1441.6835	10149.6	9264.2
885.5759	1443.5139	10034.75	9148.7
885.7194	1445.3435	9955.5	9070.8
885.8629	1447.1724	9943.75	9058.3
886.0064	1449.0005	9872.8	8987.6
886.1499	1450.8279	9806.6	8919.5
886.2933	1452.6545	9750.85	8865.75
886.4368	1454.4804	9786.95	8904.05
886.5802	1456.3056	9784.75	8893.35
886.7237	1458.13	9667.15	8783.6
886.8671	1459.9536	9488.8	8602.35
887.0105	1461.7766	9174.35	8289.35
887.1539	1463.5987	8801.45	7914.4
887.2972	1465.4202	8420.95	7535.5
887.4406	1467.2409	8076.3	7189.95
887.584	1469.0608	7786.35	6904.2
887.7273	1470.88	7512.55	6627.2
887.8706	1472.6984	7290.75	6406.1
888.0139	1474.5161	7079.75	6191.55
888.1572	1476.3331	6897.65	6011.25
888.3005	1478.1493	6772.05	5886.5
888.4438	1479.9648	6689.3	5805.15
888.5871	1481.7795	6610.7	5725.35
888.7303	1483.5935	6539.75	5655
888.8736	1485.4067	6487.1	5602.55
889.0168	1487.2192	6423.3	5540.15
889.16	1489.031	6376.25	5489.4
889.3032	1490.842	6342.4	5458.75
889.4464	1492.6522	6295.8	5411.75
889.5896	1494.4618	6259.65	5373.55
889.7327	1496.2705	6225.7	5342.65
889.8759	1498.0785	6179.5	5293.45
890.019	1499.8858	6140.95	5253.25
890.1622	1501.6924	6104.3	5221.85
890.3053	1503.4981	6096.65	5209.85
890.4484	1505.3032	6079.3	5195.65
890.5914	1507.1075	6038.95	5155.3
890.7345	1508.911	6008.85	5123.25
890.8776	1510.7138	5967.9	5083.15
891.0206	1512.5159	5921.8	5036.7
891.1637	1514.3172	5876.75	4991.4
891.3067	1516.1178	5846.25	4963.1
891.4497	1517.9176	5841.7	4955.2
891.5927	1519.7166	5794.8	4909.55
891.7357	1521.515	5773.2	4882.85
891.8786	1523.3126	5752.7	4867.45
892.0216	1525.1094	5740.95	4853.45
892.1645	1526.9055	5698.85	4815.55
892.3074	1528.7008	5675.8	4791.95
892.4503	1530.4954	5659.5	4772.45
892.5932	1532.2893	5634.5	4751.1
892.7361	1534.0824	5637.35	4748.4
892.879	1535.8747	5627.9	4742.95
893.0218	1537.6663	5595.7	4711.3
893.1647	1539.4572	5584.45	4697.1
893.3075	1541.2473	5606	4722.55
893.4503	1543.0367	5624.15	4741.7
893.5931	1544.8253	5593.75	4705.5
893.7359	1546.6132	5615	4728.05
893.8787	1548.4003	5609.3	4714.1
894.0214	1550.1867	5642	4748.85
894.1642	1551.9723	5687.15	4797.5
894.3069	1553.7572	5749.85	4864.4
894.4496	1555.5414	5807.15	4920.85
894.5923	1557.3247	5896.7	5011.55
894.735	1559.1074	6005	5122.85
894.8777	1560.8893	6120.75	5236.9
895.0204	1562.6705	6235.2	5350.2
895.163	1564.4509	6329	5444.45
895.3056	1566.2305	6370.9	5487.2
895.4482	1568.0094	6460.35	5577.35
895.5908	1569.7876	6467.4	5582.95
895.7334	1571.565	6481.25	5596.35
895.876	1573.3417	6489.3	5605.75
896.0186	1575.1176	6475.25	5593.35
896.1611	1576.8928	6436.9	5553.85
896.3036	1578.6672	6376.4	5491.75
896.4461	1580.4409	6319.1	5435.2
896.5886	1582.2138	6269.85	5382.3
896.7311	1583.986	6217.15	5332.3
896.8736	1585.7575	6209.8	5326.8
897.0161	1587.5282	6171.85	5289.95
897.1585	1589.2981	6190.55	5307.1
897.3009	1591.0673	6216.5	5331
897.4433	1592.8358	6244.8	5359.8
897.5857	1594.6035	6309.65	5422.85
897.7281	1596.3704	6342.1	5458.2
897.8705	1598.1366	6375.1	5492.1
898.0128	1599.9021	6471.8	5588.65
898.1551	1601.6668	6541.35	5652.6
898.2975	1603.4308	6639	5754.7
898.4398	1605.194	6773.75	5886.85
898.5821	1606.9564	6919.95	6034.05
898.7243	1608.7182	7118.05	6227.8
898.8666	1610.4791	7321.75	6437.8
899.0088	1612.2394	7546.65	6663
899.1511	1613.9988	7783.9	6899.45
899.2933	1615.7576	8034.55	7151.05
899.4355	1617.5156	8244.7	7354.35
899.5776	1619.2728	8381.95	7499.5
899.7198	1621.0293	8460.5	7578.85
899.862	1622.785	8410.55	7522.7
900.0041	1624.54	8264.55	7377.6
900.1462	1626.2942	8048.55	7162.4
900.2883	1628.0477	7787.5	6900.3
900.4304	1629.8005	7521.75	6634.25
900.5725	1631.5525	7290.9	6408.85
900.7145	1633.3037	7070.15	6186.85
900.8566	1635.0542	6916.1	6033.1
900.9986	1636.804	6811.95	5928.45
901.1406	1638.553	6769.4	5808.55
901.2826	1640.3013	6676.35	5791.45
901.4245	1642.0488	6655.7	5769.95
901.5665	1643.7955	6687.1	5804.8
901.7085	1645.5416	6753.6	5870.4
901.8504	1647.2868	6862.45	5980.1
901.9923	1649.0313	6986.85	6103.75
902.1342	1650.7751	7133.65	6246.55
902.2761	1652.5181	7286.55	6403.5
902.4179	1654.2604	7524.45	6640.6
902.5598	1656.0019	7771.95	6887.55
902.7016	1657.7427	8046.85	7163.65
902.8434	1659.4828	8337.3	7455.35
902.9852	1661.222	8507.15	7621.5
903.127	1662.9606	8508.05	7624.1
903.2687	1664.6984	8267.8	7382.85
903.4105	1666.4354	7857.45	6974.05
903.5522	1668.1717	7321.75	6440.55
903.6939	1669.9072	6784.1	5901.6
903.8356	1671.642	6312.35	5426.05
903.9773	1673.3761	5930.05	5046.5
904.119	1675.1094	5650.05	4766.7
904.2606	1676.8419	5416.55	4533.15
904.4022	1678.5737	5258.3	4376.45
904.5439	1680.3048	5118.95	4235.45
904.6855	1682.0351	4990.85	4106.75
904.827	1683.7646	4910.2	4024.85
904.9686	1685.4934	4832.55	3949.9
905.1101	1687.2215	4773.85	3889.8
905.2517	1688.9488	4719.3	3837.9
905.3932	1690.6754	4672.6	3788.9
905.5347	1692.4012	4640.05	3757.85
905.6761	1694.1263	4590.8	3708.75
905.8176	1695.8506	4575.8	3693.35
905.9591	1697.5742	4537.25	3655.2
906.1005	1699.297	4512.35	3629.5
906.2419	1701.0191	4464.85	3582.4
906.3833	1702.7404	4423.95	3541.2
906.5246	1704.461	4404.15	3519.5
906.666	1706.1808	4367.4	3481.55
906.8073	1707.8999	4354.65	3469.35
906.9487	1709.6182	4320.8	3437.85
907.09	1711.3358	4322.1	3440.25
907.2313	1713.0527	4295.75	3413.35
907.3725	1714.7688	4276.25	3385.35
907.5138	1716.4841	4257.95	3373.25
907.655	1718.1987	4246.15	3357.65
907.7962	1719.9126	4234.05	3352.95
907.9374	1721.6257	4195.6	3307
908.0786	1723.338	4188.25	3304.85
908.2198	1725.0496	4156.3	3272.1
908.3609	1726.7605	4160.95	3277.1
908.502	1728.4706	4151.75	3266.5
908.6431	1730.18	4130.35	3245.7
908.7842	1731.8886	4127.2	3242.65
908.9253	1733.5964	4101.55	3214.9
909.0664	1735.3036	4092.3	3208.1
909.2074	1737.0099	4090.05	3207
909.3484	1738.7156	4057.3	3174.6
909.4894	1740.4204	4035.5	3149.8
909.6304	1742.1246	4012.5	3128
909.7714	1743.8279	4003.6	3121.7
909.9123	1745.5306	3997.9	3114.1
910.0532	1747.2325	3975.7	3092.55
910.1941	1748.9336	3957.85	3075.6
910.335	1750.634	3937.8	3051.8
910.4759	1752.3336	3925.9	3042.45
910.6168	1754.0325	3916.75	3037.1
910.7576	1755.7307	3905	3021.9
910.8984	1757.4281	3906.85	3023.1
911.0392	1759.1247	3896	3003.25
911.18	1760.8206	3891.4	3004.45
911.3208	1762.5158	3882.05	2996.05
911.4615	1764.2102	3879.05	2996.95
911.6022	1765.9039	3871	2989.25
911.7429	1767.5968	3849.8	2967.2
911.8836	1769.289	3836.3	2953.15
912.0243	1770.9804	3834.5	2951.45
912.1649	1772.6711	3831.45	2946.9
912.3056	1774.361	3824.6	2939.35
912.4462	1776.0502	3809.6	2926.7
912.5868	1777.7386	3790.3	2904.4
912.7274	1779.4263	3775.7	2892.8
912.8679	1781.1132	3784.75	2900.45
913.0084	1782.7994	3765.85	2880.2
913.149	1784.4849	3761.1	2879.55
913.2895	1786.1696	3770.45	2866.25
913.4299	1787.8535	3758.05	2877.25
913.5704	1789.5367	3747.2	2862.95
913.7108	1791.2192	3726.35	2844.95
913.8513	1792.9009	3730.55	2830.75
913.9917	1794.5818	3706.8	2823.8
914.132	1796.2621	3698.8	2816.1
914.2724	1797.9415	3693.45	2811.1
914.4128	1799.6202	3694	2810.85
914.5531	1801.2982	3688.7	2805.8
914.6934	1802.9755	3683.5	2798.35
914.8337	1804.6519	3670.65	2787.35
914.9739	1806.3277	3642.55	2760.55
915.1142	1808.0027	3633.55	2749.85
915.2544	1809.6769	3648.25	2765.05
915.3946	1811.3504	3641.7	2757.5
915.5348	1813.0231	3631.1	2748.1
915.675	1814.6951	3621.85	2739.7
915.8151	1816.3664	3628.35	2743.45
915.9553	1818.0369	3615.95	2731.8
916.0954	1819.7067	3595.75	2713.5
916.2355	1821.3757	3603.45	2719.35
916.3755	1823.044	3584.7	2702.15
916.5156	1824.7115	3590.65	2707.95
916.6556	1826.3783	3573.35	2691.45
916.7956	1828.0443	3572.4	2692.35
916.9356	1829.7096	3578.8	2694.5
917.0756	1831.3741	3568.75	2683
917.2155	1833.0379	3550.5	2667.15
917.3555	1834.701	3548.3	2662.85
917.4954	1836.3633	3547.65	2661.95
917.6353	1838.0248	3543.75	2659.15
917.7751	1839.6856	3532.55	2649.65
917.915	1841.3457	3535.35	2654.4
918.0548	1843.005	3513.85	2631.1
918.1946	1844.6636	3519.9	2639.2
918.3344	1846.3214	3507.1	2622.95
918.4742	1847.9785	3506.1	2625.15
918.6139	1849.6349	3497	2610.95
918.7537	1851.2904	3507.15	2613.85
918.8934	1852.9453	3503.5	2622.75
919.0331	1854.5994	3481.8	2596.95
919.1727	1856.2528	3500.45	2613.5
919.3124	1857.9054	3479.75	2597.35
919.452	1859.5572	3462.15	2579.55
919.5916	1861.2083	3458.45	2575.65
919.7312	1862.8587	3480.2	2595.8
919.8708	1864.5084	3453.7	2569
920.0103	1866.1572	3446.6	2566.1
920.1498	1867.8054	3423.2	2541.9
920.2893	1869.4528	3434.9	2552.4
920.4288	1871.0994	3418.35	2533.25
920.5683	1872.7453	3421.15	2538.1
920.7077	1874.3905	3425.1	2525.4
920.8471	1876.0349	3413.35	2529.4
920.9865	1877.6786	3398.75	2514.7
921.1259	1879.3215	3406.65	2524.8
921.2653	1880.9637	3396.4	2511.6
921.4046	1882.6051	3365.4	2481.9
921.5439	1884.2458	3376.2	2492.45
921.6832	1885.8858	3358.15	2475.1
921.8225	1887.525	3355.1	2471.35
921.9617	1889.1634	3329.8	2446.9
922.101	1890.8011	3324.8	2439.15
922.2402	1892.4381	3322.7	2440.05
922.3794	1894.0743	3327.65	2446.75
922.5185	1895.7098	3323.6	2441.2
922.6577	1897.3446	3338.6	2456.2
922.7968	1898.9786	3321.3	2434.7
922.9359	1900.6118	3305.25	2422.1
923.075	1902.2443	3297.55	2412.65
923.214	1903.8761	3291.95	2410.8
923.3531	1905.5071	3278.65	2394.25
923.4921	1907.1374	3271.3	2388.2
923.6311	1908.7669	3273	2390
923.77	1910.3957	3260.1	2378.7
923.909	1912.0237	3257.95	2375.95
924.0479	1913.651	3241.9	2357.9
924.1868	1915.2776	3237	2355.1
924.3257	1916.9034	3220.95	2337.55
924.4646	1918.5285	3222.95	2341.35
924.6034	1920.1528	3215	2331.15
924.7422	1921.7764	3220.35	2338.45
924.881	1923.3992	3199.4	2316.1
925.0198	1925.0213	3192.25	2309.8
925.1586	1926.6427	3176.8	2294.75
925.2973	1928.2633	3278.8	2272.8
925.436	1929.8832	3191.3	2306
925.5747	1931.5023	3157.35	2276.5
925.7134	1933.1207	3159.95	2277.6
925.852	1934.7383	3155.8	2273.35
925.9906	1936.3552	3132.9	2251.45
926.1292	1937.9714	3137.3	2255.15
926.2678	1939.5868	3126.1	2240.8
926.4064	1941.2015	3112.7	2227.8
926.5449	1942.8154	3102.6	2219.4
926.6834	1944.4286	3090.75	2208.95
926.8219	1946.041	3101.35	2192.6
926.9604	1947.6528	3072.3	2182.8
927.0988	1949.2637	3069.9	2189.05
927.2372	1950.8739	3062.45	2178
927.3756	1952.4834	3050.8	2168.95
927.514	1954.0921	3040.5	2157.55
927.6523	1955.7001	3044.3	2155.4
927.7907	1957.3074	3029.05	2145.8
927.929	1958.9139	3027.4	2144.95
928.0673	1960.5197	3022.8	2139.1
928.2055	1962.1247	2997.8	2114.85
928.3438	1963.729	2996.05	2113.8
928.482	1965.3325	3008.9	2101.45
928.6202	1966.9353	2986.9	2103.85
928.7584	1968.5374	2981.95	2097.95
928.8965	1970.1387	2982.25	2100.4
929.0346	1971.7393	2973.55	2090.1
929.1727	1973.3392	2962.7	2079.6
929.3108	1974.9383	2941.95	2060.25
929.4489	1976.5366	2932.1	2050.45
929.5869	1978.1342	2939.9	2058.25
929.7249	1979.7311	2924.2	2039.15
929.8629	1981.3273	2930.85	2047.4
930.0009	1982.9227	2928.2	2043.75
930.1388	1984.5173	2919.8	2037.2
930.2767	1986.1112	2913.5	2030.8
930.4146	1987.7044	2892.7	2010.8
930.5525	1989.2968	2900	2016.5
930.6904	1990.8885	2886.05	1999.25
930.8282	1992.4795	2883.8	1999.7
930.966	1994.0697	2873.05	1989
931.1038	1995.6592	2870.5	1988.55
931.2415	1997.2479	2868.35	1984.8
931.3793	1998.8359	2863.15	1981.1
931.517	2000.4232	2846.45	1963.1
931.6547	2002.0097	2848.3	1965.2
931.7923	2003.5955	2837.55	1953.9
931.93	2005.1805	2845.95	1961.1
932.0676	2006.7648	2831.15	1949.15
932.2052	2008.3484	2820.15	1936.6
932.3427	2009.9312	2838.8	1955.25
932.4803	2011.5133	2819.4	1936.05
932.6178	2013.0946	2809.75	1926.45
932.7553	2014.6752	2803.4	1922.35
932.8928	2016.2551	2795.9	1913.15
933.0302	2017.8342	2798.9	1916.35
933.1676	2019.4126	2790.85	1908.05
933.305	2020.9902	2781.75	1898
933.4424	2022.5672	2771.5	1889.85
933.5798	2024.1433	2785.65	1896.15
933.7171	2025.7188	2771.15	1889.55
933.8544	2027.2935	2773.1	1890.2
933.9917	2028.8674	2753.95	1870.45
934.129	2030.4406	2760.1	1878.45
934.2662	2032.0131	2751.3	1867
934.4034	2033.5849	2735.95	1844.6
934.5406	2035.1559	2737.6	1855.9
934.6778	2036.7261	2722.4	1840
934.8149	2038.2957	2721.55	1838.4
934.952	2039.8645	2718.6	1834.85
935.0891	2041.4325	2731.9	1845.9
935.2262	2042.9998	2712.7	1829.8
935.3632	2044.5664	2694.2	1809.45
935.5002	2046.1323	2702.55	1819.3
935.6372	2047.6974	2699	1816.35
935.7742	2049.2617	2694.4	1812.2
935.9111	2050.8254	2722.9	1806.7
936.048	2052.3883	2697.95	1814.3
936.1849	2053.9504	2690	1807.25
936.3218	2055.5118	2685.95	1802.2
936.4586	2057.0725	2661.3	1774.85
936.5955	2058.6325	2655.45	1773.95
936.7323	2060.1917	2667	1784.5
936.869	2061.7502	2655.25	1769.85
937.0058	2063.3079	2641.35	1758.1
937.1425	2064.8649	2646.3	1760.6
937.2792	2066.4212	2638.45	1752.65
937.4159	2067.9767	2620.7	1738
937.5525	2069.5315	2629.45	1747.75
937.6891	2071.0856	2614.65	1730.6
937.8257	2072.6389	2613.8	1730.15
937.9623	2074.1915	2614.2	1734.4
938.0989	2075.7433	2598.3	1712.6
938.2354	2077.2945	2607.5	1724.8
938.3719	2078.8448	2585.95	1703.15
938.5084	2080.3945	2578.4	1696.3
938.6448	2081.9434	2578.2	1694.4
938.7812	2083.4916	2579.2	1694.25
938.9176	2085.039	2573.4	1689.55
939.054	2086.5857	2564.25	1679.35
939.1903	2088.1317	2579.25	1697.45
939.3267	2089.677	2550.25	1667.05
939.463	2091.2215	2552.85	1670
939.5992	2092.7652	2543.3	1659.6
939.7355	2094.3083	2544.7	1661.65
939.8717	2095.8506	2548.05	1666.55
940.0079	2097.3921	2537.05	1654.4
940.1441	2098.933	2526.8	1645.15
940.2802	2100.4731	2524.65	1642.8
940.4163	2102.0124	2537	1635.25
940.5524	2103.5511	2526.9	1645.15
940.6885	2105.089	2518.95	1636.45
940.8245	2106.6261	2514.6	1630.8
940.9606	2108.1626	2511.8	1628
941.0965	2109.6983	2528.05	1617
941.2325	2111.2332	2515.3	1631.05
941.3684	2112.7675	2504.55	1622.2
941.5044	2114.301	2499.45	1616.95
941.6403	2115.8337	2502.25	1619.5
941.7761	2117.3657	2495.35	1612.4
941.912	2118.897	2494.05	1610.6
942.0478	2120.4276	2477.65	1587.5
942.1835	2121.9575	2469.15	1586.3
942.3193	2123.4866	2484.65	1587.15
942.455	2125.0149	2463.15	1577.4
942.5907	2126.5426	2466.95	1583.35
942.7264	2128.0695	2460.9	1573.7
942.8621	2129.5956	2457.4	1575.15
942.9977	2131.1211	2445.2	1558.55
943.1333	2132.6458	2442.2	1560
943.2689	2134.1698	2440.4	1557.55
943.4044	2135.693	2440.5	1555.3
943.54	2137.2155	2443.45	1556.7
943.6755	2138.7373	2428.25	1543.4
943.8109	2140.2584	2426.1	1542.35
943.9464	2141.7787	2426.75	1537.75
944.0818	2143.2983	2407.4	1526.2
944.2172	2144.8171	2408.7	1526.1
944.3526	2146.3353	2406.75	1521.5
944.4879	2147.8527	2396.3	1512.5
944.6232	2149.3693	2401.8	1516.5
944.7585	2150.8853	2388.55	1506.1
944.8938	2152.4005	2376.5	1491.45
945.029	2153.9149	2385.55	1502.85
945.1642	2155.4287	2368.15	1486.3
945.2994	2156.9417	2366.8	1481.7
945.4346	2158.454	2377.3	1492.4
945.5697	2159.9655	2365.75	1482.3
945.7048	2161.4764	2367	1483
945.8399	2162.9865	2379.65	1497.6
945.9749	2164.4958	2358.05	1471.7
946.1099	2166.0045	2350.3	1463.65
946.2449	2167.5124	2353.25	1470.5
946.3799	2169.0195	2347.2	1465
946.5148	2170.526	2335.15	1450.4
946.6498	2172.0317	2347.3	1463.9
946.7846	2173.5367	2336.05	1453
946.9195	2175.0409	2330.35	1446.5
947.0543	2176.5445	2326.7	1446.25
947.1891	2178.0473	2320.65	1438.15
947.3239	2179.5494	2313.2	1426.95
947.4587	2181.0507	2318.15	1434.25
947.5934	2182.5513	2309.25	1425.55
947.7281	2184.0512	2311	1427.7
947.8628	2185.5504	2299.35	1415.4
947.9974	2187.0488	2295.1	1413.45
948.132	2188.5465	2290.35	1406.4
948.2666	2190.0435	2297.7	1413.55
948.4012	2191.5397	2284.6	1402.3
948.5357	2193.0353	2287.2	1404.7
948.6702	2194.5301	2271.6	1386.2
948.8047	2196.0241	2274.65	1390.1
948.9392	2197.5175	2271.2	1386.05
949.0736	2199.0101	2267.65	1381.45
949.208	2200.502	2261.2	1379.1
949.3424	2201.9931	2238.65	1356.95
949.4767	2203.4835	2251	1366.65
949.611	2204.9733	2251.6	1361.05
949.7453	2206.4622	2237.05	1354.95
949.8796	2207.9505	2234.25	1348.25
950.0138	2209.438	2230.85	1349.65
950.148	2210.9248	2219.65	1334.85
950.2822	2212.4109	2225.05	1344.5
950.4164	2213.8962	2205.35	1318.95
950.5505	2215.3809	2206.8	1322.75
950.6846	2216.8648	2213.3	1326.5
950.8186	2218.3479	2212.1	1326.25
950.9527	2219.8304	2204.45	1318.45
951.0867	2221.3121	2195.9	1311.3
951.2207	2222.7931	2194.95	1312.05
951.3546	2224.2733	2183.75	1298.6
951.4886	2225.7529	2192.65	1308.75
951.6225	2227.2317	2180	1295.5
951.7563	2228.7098	2173.4	1291.8
951.8902	2230.1872	2155.7	1271.45
952.024	2231.6638	2165.45	1281.9
952.1578	2233.1397	2163.8	1274.45
952.2916	2234.6149	2162.45	1279.05
952.4253	2236.0894	2158.3	1274.4
952.559	2237.5632	2161.2	1268.95
952.6927	2239.0362	2152.65	1269.45
952.8263	2240.5085	2137.1	1255.75
952.9599	2241.9801	2130.6	1246.15
953.0935	2243.4509	2134.35	1250.05
953.2271	2244.921	2130.45	1245.3
953.3606	2246.3904	2123.7	1240.15
953.4941	2247.8591	2124.25	1242.5
953.6276	2249.3271	2108.95	1227.55
953.7611	2250.7943	2106.2	1220.6
953.8945	2252.2608	2111.1	1228.3
954.0279	2253.7266	2104.9	1221.9
954.1612	2255.1917	2102.45	1217.6
954.2946	2256.656	2079.9	1196.75
954.4279	2258.1197	2094.6	1210.2
954.5612	2259.5826	2077.7	1192.55
954.6944	2261.0447	2093.6	1210.3
954.8276	2262.5062	2074.95	1191.55
954.9608	2263.9669	2076.5	1193.15
955.094	2265.4269	2067.2	1183.8
955.2271	2266.8862	2078.35	1195.25
955.3602	2268.3448	2072.5	1189.1
955.4933	2269.8026	2078.15	1194.75
955.6264	2271.2598	2072.05	1189.15
955.7594	2272.7162	2073.35	1192.15
955.8924	2274.1719	2054.05	1168.9
956.0253	2275.6268	2061.8	1179.7
956.1583	2277.0811	2060.75	1176.85
956.2912	2278.5346	2055.8	1173.3
956.4241	2279.9874	2049.1	1166.4
956.5569	2281.4395	2042.35	1159.5
956.6897	2282.8908	2042.35	1155.75
956.8225	2284.3414	2041.7	1155.35
956.9553	2285.7914	2032.95	1151
957.088	2287.2406	2041.65	1156.3
957.2207	2288.689	2032.55	1151.5
957.3534	2290.1368	2020.05	1136.15
957.486	2291.5838	2023.6	1141.1
957.6186	2293.0302	2024.6	1139.7
957.7512	2294.4758	2015.15	1134.75
957.8838	2295.9206	2019.3	1133.7
958.0163	2297.3648	2008.6	1125.9
958.1488	2298.8082	2009.5	1123.8
958.2813	2300.251	2016.9	1133.15
958.4137	2301.693	2007.3	1122.45
958.5461	2303.1343	2006.9	1123.2
958.6785	2304.5748	2002.5	1120.5
958.8108	2306.0147	1988.15	1104.4
958.9432	2307.4538	1985.2	1096.75
959.0754	2308.8922	1994.3	1111.15
959.2077	2310.3299	1982.2	1099.15
959.3399	2311.7669	1987.7	1106.05
959.4721	2313.2031	1980.95	1099.6
959.6043	2314.6387	1971	1088.55
959.7365	2316.0735	1965.4	1083.2
959.8686	2317.5076	1963.25	1079.05
960.0006	2318.941	1962.3	1079.7
960.1327	2320.3737	1964.4	1080.8
960.2647	2321.8056	1948.3	1061.95
960.3967	2323.2369	1956	1070.3
960.5287	2324.6674	1957.05	1072.7
960.6606	2326.0972	1956.2	1071.1
960.7925	2327.5263	1951.3	1068.1
960.9244	2328.9547	1946.95	1062.05
961.0562	2330.3823	1941.1	1058.15
961.1881	2331.8092	1940.85	1054.95
961.3198	2333.2355	1940.25	1056.5
961.4516	2334.661	1932.2	1050.35
961.5833	2336.0858	1931.75	1045.1
961.715	2337.5098	1933.1	1050.35
961.8467	2338.9332	1919.8	1035.3
961.9783	2340.3558	1929.6	1042.85
962.1099	2341.7778	1924.05	1041.4
962.2415	2343.199	1914.4	1028.15
962.373	2344.6195	1904.3	1023.55
962.5045	2346.0393	1917.65	1034.6
962.636	2347.4583	1902.05	1020.3
962.7675	2348.8767	1912.95	1029.2
962.8989	2350.2943	1909.7	1025.9
963.0303	2351.7113	1905.65	1020.95
963.1617	2353.1275	1903.35	1020.25
963.293	2354.543	1915.6	1009
963.4243	2355.9578	1901.05	1018.6
963.5556	2357.3718	1895.15	1012.7
963.6868	2358.7852	1886.3	999.2
963.818	2360.1978	1884.85	1000.75
963.9492	2361.6098	1879.75	997.9
964.0803	2363.021	1891.3	1002.2
964.2114	2364.4315	1877.35	994.5
964.3425	2365.8413	1876.4	994.2
964.4736	2367.2504	1872.3	989.15
964.6046	2368.6587	1870.6	987.8
964.7356	2370.0664	1868.4	984.05
964.8666	2371.4733	1865.45	983.7
964.9975	2372.8795	1857.15	974.05
965.1284	2374.285	1853.3	969.95
965.2593	2375.6899	1848.5	965.65
965.3901	2377.0939	1845	961.5
965.5209	2378.4973	1833.05	949.2
965.6517	2379.9	1844.4	961.95
965.7825	2381.3019	1844	960.2
965.9132	2382.7032	1829.9	948.5
966.0439	2384.1037	1833.05	951.65
966.1745	2385.5035	1830.9	947.7
966.3051	2386.9027	1829.95	947.9
966.4357	2388.3011	1824.8	938.1
966.5663	2389.6987	1818.9	934
966.6968	2391.0957	1817.45	935.45
966.8273	2392.492	1805.85	923.9
966.9578	2393.8876	1803.75	921.25
967.0882	2395.2824	1795.6	913.05
967.2186	2396.6765	1795.2	912.5
967.349	2398.07	1795.75	914.25
967.4793	2399.4627	1798.95	913.7
967.6097	2400.8547	1798.7	918.15
967.7399	2402.246	1799	910.35
967.8702	2403.6366	1791.25	906.9
968.0004	2405.0265	1783.25	901.8
968.1306	2406.4156	1787	900.9
968.2607	2407.8041	1778.1	892.5
968.3909	2409.1918	1776.2	890.15
968.521	2410.5789	1774.15	891.8
968.651	2411.9652	1774.5	889.75
968.781	2413.3508	1777.1	891
968.911	2414.7358	1764.05	881.25
969.041	2416.12	1768.25	887.35
969.1709	2417.5035	1761.4	877.9
969.3008	2418.8863	1762.8	878.05
969.4307	2420.2684	1748.7	865.45
969.5606	2421.6497	1765.55	882
969.6904	2423.0304	1747.3	864.45
969.8201	2424.4104	1750.2	867.35
969.9499	2425.7896	1742.05	857.95
970.0796	2427.1682	1742.25	860
970.2093	2428.546	1745.8	861.55
970.3389	2429.9232	1742.5	856.05
970.4685	2431.2996	1732.45	848.75
970.5981	2432.6753	1737.45	855.7
970.7277	2434.0503	1735.85	849.9
970.8572	2435.4246	1722.75	840.3
970.9867	2436.7982	1727.05	843.55
971.1161	2438.1711	1721.9	842.5
971.2456	2439.5433	1723.35	840.65
971.375	2440.9148	1720.95	832.65
971.5043	2442.2856	1711.25	828.75
971.6336	2443.6557	1704.4	820.75
971.7629	2445.025	1705.7	821.5
971.8922	2446.3937	1708.8	828.55
972.0214	2447.7617	1710	822.6
972.1506	2449.1289	1704.55	820.85
972.2798	2450.4955	1699.25	811.9
972.4089	2451.8613	1690.65	808.45
972.538	2453.2265	1697.2	813.35
972.6671	2454.5909	1700.3	816.3
972.7961	2455.9546	1689.05	804.5
972.9251	2457.3177	1686.05	803.9
973.0541	2458.68	1690.55	806.55
973.1831	2460.0416	1677.2	793.65
973.312	2461.4025	1690.35	806.3
973.4408	2462.7627	1697.3	802.7
973.5697	2464.1222	1675.5	792.5
973.6985	2465.4811	1684.55	800.6
973.8273	2466.8392	1683.1	799.4
973.956	2468.1966	1671	784.5
974.0847	2469.5533	1680.45	795.8
974.2134	2470.9093	1674.55	791.45
974.3421	2472.2645	1681.4	793.6
974.4707	2473.6191	1672.3	789
974.5993	2474.973	1666.4	783.9
974.7278	2476.3262	1665.3	779.25
974.8563	2477.6787	1661.3	778.05
974.9848	2479.0305	1662.6	776.95
975.1132	2480.3816	1659.9	776.05
975.2417	2481.7319	1664.95	782.4
975.37	2483.0816	1659.2	773.95
975.4984	2484.4306	1654.35	771.4
975.6267	2485.7789	1648.5	764.95
975.755	2487.1264	1654.5	770.9
975.8833	2488.4733	1644.15	763.2
976.0115	2489.8195	1652.2	752
976.1397	2491.165	1640.6	757.8
976.2678	2492.5097	1635.55	749.95
976.3959	2493.8538	1635.15	753
976.524	2495.1972	1625.65	741.8
976.6521	2496.5398	1629.9	746.75
976.7801	2497.8818	1620.7	735.35
976.9081	2499.2231	1623.3	740.25
977.036	2500.5637	1620.7	734.15
977.164	2501.9035	1616.3	732.55
977.2918	2503.2427	1628.4	742.65
977.4197	2504.5812	1607.45	724.5
977.5475	2505.919	1611.05	726.2
977.6753	2507.256	1605.2	721.6
977.8031	2508.5924	1612.95	731
977.9308	2509.9281	1611.5	724.3
978.0585	2511.2631	1605.8	724
978.1861	2512.5974	1610.05	727.55
978.3137	2513.9309	1596.4	713.4
978.4413	2515.2638	1616.55	705.35
978.5689	2516.596	1601.9	719.25
978.6964	2517.9275	1596.6	714.05
978.8239	2519.2583	1595.85	713.8
978.9513	2520.5884	1589.55	706.8
979.0788	2521.9178	1591.75	709.8
979.2062	2523.2465	1587.85	705.65
979.3335	2524.5745	1581.95	699.5
979.4608	2525.9018	1586.5	702.1
979.5881	2527.2284	1582.55	701.3
979.7154	2528.5543	1582.1	701.35
979.8426	2529.8796	1587.75	704.15
979.9698	2531.2041	1583.5	698.95
980.0969	2532.5279	1580.85	698.5
980.224	2533.851	1585.05	701.8
980.3511	2535.1735	1579.5	698.25
980.4781	2536.4952	1577.65	692.1
980.6052	2537.8163	1574.95	692
980.7321	2539.1366	1563.35	681.7
980.8591	2540.4562	1574	690.3
980.986	2541.7752	1578.1	696.9
981.1129	2543.0935	1565.8	681.8
981.2397	2544.411	1575.75	693.5
981.3665	2545.7279	1564.05	682.35
981.4933	2547.0441	1563.9	679.95
981.62	2548.3596	1566.2	679.15
981.7467	2549.6744	1559.6	675.3
981.8734	2550.9885	1563.25	678.85
982.0001	2552.3019	1558.85	677.15
982.1267	2553.6146	1546.3	661
982.2532	2554.9266	1551.75	669.55
982.3798	2556.2379	1550.2	664.8
982.5063	2557.5485	1549.25	666.75
982.6327	2558.8585	1555.6	665.3
982.7592	2560.1677	1552.25	664.55
982.8856	2561.4762	1547.8	664.5
983.0119	2562.7841	1554.35	666.85
983.1383	2564.0913	1543.9	662.55
983.2646	2565.3977	1537.05	654.95
983.3908	2566.7035	1534.4	649.3
983.517	2568.0086	1544.05	659.15
983.6432	2569.313	1539.9	657.1
983.7694	2570.6167	1540.95	655
983.8955	2571.9197	1535.1	653
984.0216	2573.222	1537.55	650.75
984.1476	2574.5236	1532.5	647.55
984.2737	2575.8246	1525.8	641
984.3996	2577.1248	1531.85	646.3
984.5256	2578.4244	1536.75	655.75
984.6515	2579.7232	1532.75	647.8
984.7774	2581.0214	1569.5	657.75
984.9032	2582.3189	1534.85	652.9
985.029	2583.6157	1527.85	638.9
985.1548	2584.9118	1531.15	649.25
985.2806	2586.2072	1532.9	650.55
985.4063	2587.5019	1527.5	645.25
985.5319	2588.7959	1527.45	641.85
985.6576	2590.0893	1534.05	646.25
985.7832	2591.3819	1537.2	655.45
985.9087	2592.6739	1535.5	653
986.0343	2593.9652	1543.05	657.95
986.1597	2595.2557	1529.6	647.65
986.2852	2596.5456	1534.8	649.75
986.4106	2597.8348	1531.25	650.65
986.536	2599.1234	1538.85	657.75
986.6614	2600.4112	1539.25	656.8
986.7867	2601.6983	1536.85	650.7
986.912	2602.9848	1535.35	650.7
987.0372	2604.2705	1536.7	648.6
987.1624	2605.5556	1534.8	651.05
987.2876	2606.84	1527.3	645.15
987.4128	2608.1237	1528.15	644
987.5379	2609.4067	1530.3	646.6
987.6629	2610.689	1533.4	641.7
987.788	2611.9707	1519.15	633.2
987.913	2613.2516	1527.15	639.15
988.0379	2614.5319	1512.65	633.35
988.1629	2615.8115	1516.05	629.95
988.2878	2617.0903	1513.95	629.95
988.4126	2618.3685	1509.6	627.3
988.5375	2619.6461	1516.4	633.05
988.6622	2620.9229	1502.55	620.45
988.787	2622.199	1507.4	621.4
988.9117	2623.4745	1505.8	622.55
989.0364	2624.7493	1505.75	623.6
989.161	2626.0234	1503	620.9
989.2857	2627.2968	1507.4	623.8
989.4102	2628.5695	1507.8	622.85
989.5348	2629.8415	1504.05	622.25
989.6593	2631.1128	1498.8	612.95
989.7837	2632.3835	1499.95	617.05
989.9082	2633.6535	1490.55	608.95
990.0326	2634.9228	1503.6	619.7
990.1569	2636.1914	1496.4	613.5
990.2812	2637.4593	1496.4	612.05
990.4055	2638.7265	1489.75	608.05
990.5298	2639.9931	1493.5	611.1
990.654	2641.259	1495.15	610.9
990.7782	2642.5242	1492.15	609.3
990.9023	2643.7887	1483.05	600.4
991.0264	2645.0525	1476.9	593.3
991.1505	2646.3156	1477.2	592.65
991.2745	2647.5781	1482.55	600.25
991.3985	2648.8398	1480.5	597.7
991.5225	2650.1009	1511.85	592.35
991.6464	2651.3613	1486.75	603.5
991.7703	2652.6211	1475.95	593.65
991.8942	2653.8801	1471.9	588.85
992.018	2655.1385	1484.65	599.25
992.1418	2656.3961	1473.6	590.8
992.2655	2657.6531	1468.5	585.3
992.3892	2658.9094	1470.3	587.95
992.5129	2660.1651	1478.1	595
992.6366	2661.42	1474.25	589.8
992.7602	2662.6743	1479.45	597.9
992.8837	2663.9279	1479.65	594.1
993.0073	2665.1808	1480.35	596.55
993.1307	2666.433	1473.65	589.15
993.2542	2667.6846	1478.05	595.1
993.3776	2668.9354	1487.2	602.4
993.501	2670.1856	1485.35	601.6
993.6244	2671.4351	1484.5	603.6
993.7477	2672.6839	1492.5	608
993.8709	2673.9321	1496.3	613.95
993.9942	2675.1795	1497.15	613.2
994.1174	2676.4263	1486.85	602.3
994.2405	2677.6724	1491.75	609.95
994.3637	2678.9179	1499.6	614.95
994.4868	2680.1626	1497.25	615.3
994.6098	2681.4067	1497.75	614.3
994.7328	2682.6501	1490.5	607.95
994.8558	2683.8928	1500.15	616.9
994.9788	2685.1348	1482.55	601.7
995.1017	2686.3761	1493.2	610.55
995.2245	2687.6168	1482.85	602.05
995.3474	2688.8568	1483.05	600.4
995.4702	2690.0961	1475.1	593.8
995.5929	2691.3348	1468.55	585.85
995.7156	2692.5727	1475.5	592.75
995.8383	2693.81	1462.5	579.2
995.961	2695.0466	1460.85	579.25
996.0836	2696.2826	1462.4	578.8
996.2062	2697.5178	1484.9	581.6
996.3287	2698.7524	1462.7	577.85
996.4512	2699.9863	1469.8	584.9
996.5737	2701.2195	1467.05	587.1
996.6961	2702.452	1477.8	592.6
996.8185	2703.6839	1478.65	594.8
996.9408	2704.9151	1483.7	600.8
997.0631	2706.1456	1477.9	595.4
997.1854	2707.3755	1492.65	608.9
997.3077	2708.6046	1499.25	614.45
997.4299	2709.8331	1502.5	618.25
997.552	2711.0609	1506.9	622.55
997.6742	2712.2881	1512.4	627.8
997.7963	2713.5145	1528	642.5
997.9183	2714.7403	1539.45	656.1
998.0403	2715.9654	1541.85	657.45
998.1623	2717.1899	1562	663.6
998.2842	2718.4136	1565.65	681
998.4062	2719.6367	1572.75	689.1
998.528	2720.8591	1591.05	699.65
998.6498	2722.0809	1600.7	716.9
998.7716	2723.3019	1611.95	724.55
998.8934	2724.5223	1619.15	734.25
999.0151	2725.7421	1618.7	734.35
999.1368	2726.9611	1630.95	746.75
999.2584	2728.1795	1624.9	735.55
999.38	2729.3972	1615.35	731.85
999.5016	2730.6142	1610.5	713
999.6231	2731.8306	1586.2	702.9
999.7446	2733.0462	1579.25	693.1
999.8661	2734.2612	1559.45	671.9
999.9875	2735.4756	1546.7	662.1
1000.1089	2736.6892	1528.35	643.6
1000.2302	2737.9022	1513	630.7
1000.3515	2739.1145	1503.6	619.95
1000.4728	2740.3262	1494.3	603.85
1000.594	2741.5372	1467.5	582.65
1000.7152	2742.7475	1469.55	586.3
1000.8363	2743.9571	1456.05	573.15
1000.9575	2745.1661	1449.9	559.9
1001.0785	2746.3744	1442.2	556.4
1001.1996	2747.582	1430.1	547.5
1001.3206	2748.7889	1423.4	537.5
1001.4415	2749.9952	1414.3	532.5
1001.5625	2751.2008	1405.15	519.85
1001.6833	2752.4057	1408.8	525.8
1001.8042	2753.61	1403.2	519.6
1001.925	2754.8136	1396.55	512.15
1002.0458	2756.0165	1402.7	520
1002.1665	2757.2188	1393.8	511.7
1002.2872	2758.4204	1394.6	512.85
1002.4078	2759.6213	1398.65	511.95
1002.5285	2760.8215	1401.05	512.05
1002.649	2762.0211	1393.05	508.75
1002.7696	2763.22	1398.95	514.6
1002.8901	2764.4182	1397.65	514.05
1003.0106	2765.6158	1391.3	506.9
1003.131	2766.8127	1385.6	503.35
1003.2514	2768.009	1379.35	494.2
1003.3717	2769.2045	1378.15	494.25
1003.492	2770.3994	1377.45	493.4
1003.6123	2771.5936	1379.65	495.55
1003.7325	2772.7872	1372.35	492.6
1003.8527	2773.9801	1376.35	491.2
1003.9729	2775.1723	1382.4	483.65
1004.093	2776.3639	1367.45	486.6
1004.2131	2777.5548	1373.6	487.4
1004.3331	2778.745	1368.75	483.4
1004.4531	2779.9346	1368	484.35
1004.5731	2781.1235	1371.45	485.7
1004.693	2782.3117	1373.4	491.1
1004.8129	2783.4992	1381.4	498.4
1004.9328	2784.6861	1383.7	498.25
1005.0526	2785.8723	1388.45	505.6
1005.1723	2787.0579	1391.75	509
1005.2921	2788.2428	1402.45	519.4
1005.4118	2789.427	1402.3	519.95
1005.5314	2790.6106	1412.2	530.45
1005.651	2791.7935	1415.3	530.95
1005.7706	2792.9757	1430.3	548.85
1005.8902	2794.1573	1443.8	557.6
1006.0097	2795.3382	1462.6	580.95
1006.1291	2796.5184	1470.55	588.9
1006.2485	2797.698	1485.8	600.45
1006.3679	2798.8769	1494.25	610.35
1006.4873	2800.0551	1505.5	620.5
1006.6066	2801.2327	1528.5	642.95
1006.7258	2802.4096	1544	661.65
1006.8451	2803.5859	1553.8	670.05
1006.9642	2804.7615	1580.1	698.4
1007.0834	2805.9364	1606.6	724.75
1007.2025	2807.1106	1626.05	742.4
1007.3216	2808.2842	1650.5	765.75
1007.4406	2809.4572	1679.25	796.8
1007.5596	2810.6294	1714.5	832.7
1007.6785	2811.801	1746.1	865
1007.7975	2812.972	1799.7	918.1
1007.9163	2814.1423	1832.75	948.95
1008.0352	2815.3119	1888.4	1005.35
1008.154	2816.4808	1924.45	1043.05
1008.2727	2817.6491	1985.4	1100.55
1008.3914	2818.8167	2019	1136.65
1008.5101	2819.9837	2079.15	1191.5
1008.6288	2821.15	2121.95	1238.9
1008.7474	2822.3157	2170.85	1288.15
1008.8659	2823.4807	2230.75	1346.5
1008.9844	2824.645	2281.7	1397.7
1009.1029	2825.8086	2330.85	1449.65
1009.2214	2826.9716	2374.1	1489.7
1009.3398	2828.134	2432.65	1550.2
1009.4581	2829.2957	2473.2	1590.75
1009.5764	2830.4567	2509.7	1628.75
1009.6947	2831.617	2540.9	1657.05
1009.813	2832.7767	2543.7	1662.1
1009.9312	2833.9358	2537.3	1655.5
1010.0493	2835.0941	2532.9	1647.85
1010.1675	2836.2519	2522.15	1639.75
1010.2855	2837.4089	2504.05	1621.55
1010.4036	2838.5653	2480.25	1596.15
1010.5216	2839.7211	2487.3	1604.9
1010.6396	2840.8761	2485.75	1601.75
1010.7575	2842.0306	2503.5	1620.6
1010.8754	2843.1843	2527	1644.05
1010.9932	2844.3374	2570.9	1688.35
1011.111	2845.4899	2614.75	1731.4
1011.2288	2846.6417	2680.1	1798.9
1011.3465	2847.7928	2751.6	1869.55
1011.4642	2848.9433	2822.35	1939.8
1011.5818	2850.0931	2890.5	2008.8
1011.6995	2851.2422	2959.4	2075.3
1011.817	2852.3907	3022.6	2137.35
1011.9345	2853.5385	3084.05	2199.55
1012.052	2854.6857	3169.2	2257.95
1012.1695	2855.8323	3198.95	2316.45
1012.2869	2856.9781	3239.9	2357.55
1012.4042	2858.1233	3295.1	2413.3
1012.5216	2859.2679	3339.15	2456.5
1012.6389	2860.4118	3393.25	2510.45
1012.7561	2861.555	3442.35	2554.05
1012.8733	2862.6976	3478.1	2592.95
1012.9905	2863.8395	3520.35	2637.1
1013.1076	2864.9808	3549.6	2666.8
1013.2247	2866.1214	3568.85	2687.15
1013.3417	2867.2614	3572.95	2689.15
1013.4587	2868.4007	3575.8	2690.9
1013.5757	2869.5393	3608.9	2722.9
1013.6926	2870.6773	3631.9	2746.15
1013.8095	2871.8146	3635.95	2748.85
1013.9263	2872.9513	3638.55	2753.3
1014.0431	2874.0874	3629.1	2746.85
1014.1599	2875.2227	3616.1	2733.95
1014.2766	2876.3574	3611.1	2728.25
1014.3933	2877.4915	3570.65	2687.85
1014.51	2878.6249	3554.35	2671.15
1014.6266	2879.7577	3529.05	2645.25
1014.7431	2880.8898	3518.15	2624.25
1014.8596	2882.0212	3489.5	2606.35
1014.9761	2883.152	3489	2606
1015.0925	2884.2821	3464.6	2581.8
1015.2089	2885.4116	3466	2584.2
1015.3253	2886.5405	3443.75	2560.45
1015.4416	2887.6686	3458.5	2572.5
1015.5579	2888.7962	3469.55	2588
1015.6741	2889.923	3482.15	2599.15
1015.7903	2891.0493	3485.1	2602.85
1015.9065	2892.1748	3513.85	2629.95
1016.0226	2893.2997	3517.6	2632.7
1016.1387	2894.424	3533.4	2649.75
1016.2547	2895.5476	3542.15	2660.05
1016.3707	2896.6706	3574.9	2691.95
1016.4866	2897.7929	3581.15	2696.6
1016.6025	2898.9145	3613.2	2728.55
1016.7184	2900.0355	3650.5	2767.6
1016.8342	2901.1559	3698.65	2815.5
1016.95	2902.2756	3709.55	2827.15
1017.0658	2903.3946	3739.15	2854.05
1017.1815	2904.513	3770.05	2883.85
1017.2971	2905.6308	3804.4	2922.4
1017.4127	2906.7479	3823.8	2939.65
1017.5283	2907.8643	3844.35	2960.6
1017.6439	2908.9801	3840.05	2957.45
1017.7594	2910.0953	3860.5	2977.35
1017.8748	2911.2098	3879.7	2994
1017.9902	2912.3236	3891.1	3001.3
1018.1056	2913.4368	3865.55	2977.65
1018.2209	2914.5494	3830.85	2949.4
1018.3362	2915.6613	3806.3	2916.6
1018.4515	2916.7725	3783	2898.4
1018.5667	2917.8831	3764.55	2881.45
1018.6819	2918.9931	3732.1	2848.35
1018.797	2920.1024	3690.3	2803.55
1018.9121	2921.211	3669.95	2785.7
1019.0271	2922.319	3648.55	2766.2
1019.1421	2923.4264	3629.75	2748.45
1019.2571	2924.5331	3616.9	2736.95
1019.372	2925.6391	3604.95	2721.4
1019.4869	2926.7445	3608.25	2727.1
1019.6017	2927.8493	3603.3	2719.8
1019.7165	2928.9534	3598.4	2716.85
1019.8313	2930.0569	3606.55	2720.7
1019.946	2931.1597	3595.35	2711.8
1020.0606	2932.2619	3594.45	2711.4
1020.1753	2933.3634	3598.55	2716.55
1020.2899	2934.4643	3606.8	2717.65
1020.4044	2935.5645	3586.35	2696.95
1020.5189	2936.6641	3545.8	2659
1020.6334	2937.763	3508.5	2626.45
1020.7478	2938.8613	3469.75	2588.85
1020.8622	2939.959	3425.8	2539.05
1020.9765	2941.056	3347.1	2465.85
1021.0908	2942.1523	3283.8	2399.6
1021.2051	2943.248	3193.75	2309.75
1021.3193	2944.3431	3107.95	2224.4
1021.4334	2945.4375	3000.45	2117.45
1021.5476	2946.5313	2903.45	2021.4
1021.6617	2947.6244	2794.2	1909.5
1021.7757	2948.7169	2701.45	1818.3
1021.8897	2949.8087	2602.75	1720.3
1022.0037	2950.8999	2511.2	1630.05
1022.1176	2951.9904	2431.8	1549
1022.2315	2953.0803	2364.5	1481.25
1022.3453	2954.1696	2299.85	1414.45
1022.4591	2955.2582	2251.4	1370
1022.5728	2956.3462	2192.1	1307.25
1022.6865	2957.4335	2149.9	1266.35
1022.8002	2958.5202	2121.25	1236.25
1022.9138	2959.6062	2091.6	1209.35
1023.0274	2960.6916	2074.3	1192.35
1023.141	2961.7764	2056.95	1171.55
1023.2545	2962.8605	2035.5	1150.6
1023.3679	2963.9439	2023.3	1140.65
1023.4813	2965.0267	2013.35	1129.4
1023.5947	2966.1089	2016.6	1110.1
1023.708	2967.1905	1998.5	1115.45
1023.8213	2968.2714	1987.95	1104.9
1023.9346	2969.3516	1994.05	1112
1024.0478	2970.4312	2002.6	1110.75
1024.1609	2971.5102	2002.9	1121.15
1024.274	2972.5885	1994.2	1113.1
1024.3871	2973.6662	2006.15	1115.8
1024.5002	2974.7432	1990.7	1109.6
1024.6132	2975.8196	1997.2	1112.6
1024.7261	2976.8954	1989.05	1108.7
1024.839	2977.9705	1978.45	1094.55
1024.9519	2979.045	1968.85	1086.4
1025.0647	2980.1188	1957.1	1076.1
1025.1775	2981.192	1936.8	1055.2
1025.2902	2982.2645	1907.85	1023.55
1025.4029	2983.3364	1892.5	1009.8
1025.5156	2984.4077	1863.6	979.95
1025.6282	2985.4783	1838.35	951.95
1025.7407	2986.5483	1803.1	919.9
1025.8532	2987.6177	1766.9	884.85
1025.9657	2988.6864	1727.65	846.05
1026.0782	2989.7545	1700.7	817
1026.1906	2990.8219	1671.9	791.35
1026.3029	2991.8887	1635.35	749.15
1026.4152	2992.9548	1608.3	724.5
1026.5275	2994.0204	1569.65	687.4
1026.6397	2995.0852	1535	653.6
1026.7519	2996.1495	1519.6	635.95
1026.864	2997.2131	1492.45	611.6
1026.9761	2998.276	1471.8	588
1027.0882	2999.3383	1450.15	569.4
1027.2002	3000.4	1443.15	559.75
1027.3122	3001.4611	1416.8	534.3
1027.4241	3002.5215	1392.2	509
1027.536	3003.5812	1381.75	499.9
1027.6478	3004.6404	1369.9	486.75
1027.7596	3005.6989	1358.65	474.4
1027.8714	3006.7567	1349.65	468.1
1027.9831	3007.8139	1365.35	455.75
1028.0947	3008.8705	1333.55	451.05
1028.2064	3009.9264	1340.15	440.5
1028.3179	3010.9818	1316.3	434.9
1028.4295	3012.0364	1310.75	425.85
1028.541	3013.0905	1310.4	427.05
1028.6524	3014.1439	1308.4	423.45
1028.7638	3015.1966	1299.65	417.15
1028.8752	3016.2487	1300.9	419.45
1028.9865	3017.3002	1304.3	417.1
1029.0978	3018.3511	1295.5	414.25
1029.209	3019.4013	1296.75	412.45
1029.3202	3020.4509	1305.05	424.75
1029.4314	3021.4998	1295.55	410.4
1029.5425	3022.5481	1292.2	409.55
1029.6535	3023.5958	1293.6	410.4
1029.7645	3024.6428	1293.7	407.85
1029.8755	3025.6892	1292.55	410.65
1029.9864	3026.735	1297.2	415.2
1030.0973	3027.7802	1296.55	414.35
1030.2082	3028.8247	1296.65	414.6
1030.319	3029.8685	1303.6	420.7
1030.4297	3030.9118	1302.05	420.75
1030.5404	3031.9544	1304.35	421.4
1030.6511	3032.9963	1306.1	422.7
1030.7617	3034.0376	1310.85	430.25
1030.8723	3035.0783	1318.85	435.2
1030.9829	3036.1184	1317.55	434.3
1031.0934	3037.1578	1327.55	446.65
1031.2038	3038.1966	1323.75	438.3
1031.3142	3039.2348	1328.35	446.95
1031.4246	3040.2723	1336.35	443.4
1031.5349	3041.3092	1318.8	439.4
1031.6452	3042.3455	1325.6	443.75
1031.7554	3043.3811	1323.3	439.1
1031.8656	3044.4161	1320.6	439.15
1031.9758	3045.4505	1313.35	432.8
1032.0859	3046.4842	1314.1	430.5
1032.1959	3047.5173	1309.5	429.5
1032.3059	3048.5498	1307.1	425.25
1032.4159	3049.5816	1298.9	416.35
1032.5258	3050.6128	1296.95	412.95
1032.6357	3051.6434	1295.45	411.5
1032.7455	3052.6734	1282.3	398.75
1032.8553	3053.7027	1280.7	396.85
1032.9651	3054.7314	1275.85	393.7
1033.0748	3055.7594	1267.1	384.25
1033.1845	3056.7868	1268.35	384.95
1033.2941	3057.8136	1267.5	385.95
1033.4037	3058.8398	1255.95	371.75
1033.5132	3059.8653	1257.15	375.4
1033.6227	3060.8902	1252.55	372.15
1033.7321	3061.9145	1242.3	359.55
1033.8415	3062.9381	1247.2	366.1
1033.9509	3063.9612	1255.5	356.7
1034.0602	3064.9835	1236.75	356.2
1034.1694	3066.0053	1230.3	347.65
1034.2787	3067.0264	1219.55	336.95
1034.3878	3068.0469	1220.25	338.6
1034.497	3069.0668	1215	328.15
1034.6061	3070.086	1212.55	332.25
1034.7151	3071.1046	1196	310.35
1034.8241	3072.1226	1192.9	309.4
1034.9331	3073.1399	1184.9	302.35
1035.042	3074.1567	1184.05	300.05
1035.1508	3075.1727	1173.55	288.5
1035.2597	3076.1882	1155.3	272.6
1035.3684	3077.203	1154.65	271.15
1035.4772	3078.2173	1148.95	264.4
1035.5859	3079.2308	1144.1	258.95
1035.6945	3080.2438	1134.55	250.05
1035.8031	3081.2561	1124	241.85
1035.9117	3082.2678	1119.6	235.5
1036.0202	3083.2789	1116.75	235
1036.1286	3084.2893	1107.6	226.7
1036.2371	3085.2991	1104.3	221.2
1036.3454	3086.3083	1099.25	211.05
1036.4538	3087.3169	1092.85	208.8
1036.562	3088.3248	1090.9	206.4
1036.6703	3089.3321	1082.8	198.05
1036.7785	3090.3388	1078.1	194.65
1036.8866	3091.3449	1074.2	191.6
1036.9948	3092.3503	1075.35	189.55
1037.1028	3093.3551	1068.05	188.45
1037.2108	3094.3593	1063.55	182.25
1037.3188	3095.3629	1060.5	180.15
1037.4267	3096.3658	1061.4	179.65
1037.5346	3097.3681	1063.5	180.65
1037.6425	3098.3698	1053.65	168.45
1037.7503	3099.3708	1062.5	174.2
1037.858	3100.3713	1048	166.45
1037.9657	3101.3711	1047.3	162.55
1038.0734	3102.3702	1186.2	162.55
1038.181	3103.3688	1043.8	160.05
1038.2886	3104.3667	1039.1	159.05
1038.3961	3105.364	1039.35	157.85
1038.5036	3106.3607	1036.75	154
1038.611	3107.3568	1036.55	155.05
1038.7184	3108.3522	1030.2	147.15
1038.8257	3109.347	1029.75	147.05
1038.933	3110.3412	1035.25	148.85
1039.0403	3111.3348	1034.45	152.3
1039.1475	3112.3277	1026.05	143.4
1039.2547	3113.32	1025.05	143.65
1039.3618	3114.3117	1022.2	141.4
1039.4689	3115.3028	1025.35	141.65
1039.5759	3116.2932	1020.9	136.85
1039.6829	3117.2831	1025.25	137.6
1039.7898	3118.2723	1019.15	136.25
1039.8967	3119.2608	1016.2	134.1
1040.0035	3120.2488	1016.45	131.7
1040.1103	3121.2361	1017.8	135.55
1040.2171	3122.2229	1015.25	131.95
1040.3238	3123.209	1013.95	128.9
1040.4305	3124.1944	1008.8	126.85
1040.5371	3125.1793	1010.75	128.25
1040.6437	3126.1635	1009.1	128.35
1040.7502	3127.1471	1009.7	128.55
1040.8567	3128.1301	1002.85	120.05
1040.9631	3129.1125	1003.75	122.05
1041.0695	3130.0942	1005.95	123
1041.1759	3131.0753	1007.6	117.75
1041.2822	3132.0558	1007.9	123.6
1041.3884	3133.0357	1000.55	116.55
1041.4946	3134.015	1000.2	117.5
1041.6008	3134.9936	1002.75	118.4
1041.7069	3135.9716	1018.25	114.95
1041.813	3136.949	995	113.55
1041.919	3137.9258	1011.4	110.3
1042.025	3138.902	1002.15	113.5
1042.1309	3139.8775	993	112
1042.2368	3140.8524	990.1	106.75
1042.3427	3141.8267	991.8	108.15
1042.4485	3142.8004	991.35	106.85
1042.5542	3143.7735	994.4	106.45
1042.6599	3144.7459	992.95	110.05
1042.7656	3145.7178	987.45	104.95
1042.8712	3146.689	985.7	104.6
1042.9768	3147.6596	984.6	100.8
1043.0823	3148.6295	986.4	104.5
1043.1878	3149.5989	980.95	98
1043.2932	3150.5676	980.85	100.15
1043.3986	3151.5357	980.3	98.5
1043.5039	3152.5032	983.65	105.35
1043.6092	3153.4701	980.95	99.45
1043.7145	3154.4364	984.35	99.35
1043.8197	3155.402	980.8	100
1043.9248	3156.367	981.9	99.25
1044.03	3157.3315	1007.5	92.6
1044.135	3158.2952	977.4	94.35
1044.24	3159.2584	975.85	93.65
1044.345	3160.221	978.2	95.85
1044.4499	3161.1829	974.95	91.65
1044.5548	3162.1442	973.5	90.6
1044.6596	3163.105	975	92.6
1044.7644	3164.065	973.8	90.85
1044.8692	3165.0245	975.15	88.8
1044.9739	3165.9834	969.35	90.1
1045.0785	3166.9416	968.8	87.05
1045.1831	3167.8993	971.65	88.05
1045.2877	3168.8563	970.45	87.3
1045.3922	3169.8127	967.75	85.85
1045.4966	3170.7684	968.05	86
1045.6011	3171.7236	969.85	86.15
1045.7054	3172.6782	967.95	84.45
1045.8098	3173.6321	968.5	84.5
1045.914	3174.5854	971.65	84.75
1046.0183	3175.5381	967.85	84.6
1046.1224	3176.4902	965.15	82.8
1046.2266	3177.4417	965.55	81.95
1046.3307	3178.3926	964	82.1
1046.4347	3179.3428	964.25	82.25
1046.5387	3180.2924	962.2	82.5
1046.6427	3181.2415	964.2	81.25
1046.7466	3182.1899	963.5	79.7
1046.8504	3183.1377	961.4	82.05
1046.9542	3184.0848	961.25	76.05
1047.058	3185.0314	961.45	77.2
1047.1617	3185.9773	959	75.85
1047.2654	3186.9227	962.6	79.4
1047.369	3187.8674	958.3	76.95
1047.4726	3188.8115	965.2	78.45
1047.5761	3189.755	961.85	79.85
1047.6796	3190.6979	952.6	71
1047.783	3191.6402	956.7	73.3
1047.8864	3192.5818	959.1	78.55
1047.9898	3193.5229	976.95	73.1
1048.0931	3194.4633	954.95	72.8
1048.1963	3195.4031	957.7	75.7
1048.2995	3196.3423	953.75	73.25
1048.4027	3197.2809	953.25	69.5
1048.5058	3198.2189	953.5	71.4
1048.6089	3199.1563	974.9	75.8
1048.7119	3200.0931	954.35	71.05
1048.8148	3201.0292	952.55	70.6
1048.9178	3201.9648	948.35	66.3
1049.0206	3202.8997	957.45	74.2
1049.1235	3203.834	949.3	65.95
1049.2262	3204.7677	950	69
1049.329	3205.7008	954.1	70
1049.4317	3206.6333	952.2	70.85
1049.5343	3207.5652	951.75	68.05
1049.6369	3208.4964	951.6	68.75
1049.7394	3209.4271	947	66.2
1049.8419	3210.3571	947.6	68.05
1049.9444	3211.2865	948.5	66.35
1050.0468	3212.2154	949	63.85
1050.1491	3213.1436	950.3	65.85
1050.2514	3214.0712	953.1	66.65
1050.3537	3214.9982	949.9	69
1050.4559	3215.9246	946.35	64.5
1050.5581	3216.8503	945	64.05
1050.6602	3217.7755	946.25	61.75
1050.7623	3218.7001	944.25	62
1050.8643	3219.624	945.9	62.75
1050.9663	3220.5473	945.75	62.25
1051.0682	3221.4701	947	62.55
1051.1701	3222.3922	946.15	62.1
1051.2719	3223.3137	943.4	61.7
1051.3737	3224.2346	943.15	63.45
1051.4754	3225.1549	943.1	61.8
1051.5771	3226.0746	940.85	58.4
1051.6788	3226.9937	942.3	60
1051.7804	3227.9121	943.9	64.8
1051.8819	3228.83	944.05	62.15
1051.9834	3229.7473	942.55	59.9
1052.0849	3230.6639	939.9	58
1052.1863	3231.5799	939.25	55.6
1052.2876	3232.4954	946.4	63.15
1052.3889	3233.4102	940.5	57.65
1052.4902	3234.3244	939.8	57.4
1052.5914	3235.238	937.95	55.4
1052.6926	3236.151	965.7	59.15
1052.7937	3237.0634	940.15	58.25
1052.8948	3237.9752	940.8	59.25
1052.9958	3238.8864	942.35	59.75
1053.0968	3239.797	936.15	53.1
1053.1977	3240.7069	939.4	59.15
1053.2986	3241.6163	937.7	55.2
1053.3994	3242.5251	938.45	57.65
1053.5002	3243.4332	934.9	54.4
1053.6009	3244.3408	937.1	54.3
1053.7016	3245.2477	936.65	54.6
1053.8022	3246.154	937.75	54.15
1053.9028	3247.0598	936	54.15
1054.0034	3247.9649	937.25	55.2
1054.1039	3248.8694	934.15	51.2
1054.2043	3249.7733	936.75	54.35
1054.3047	3250.6766	934.6	52.2
1054.4051	3251.5793	932.6	49.65
1054.5054	3252.4814	931.5	49.65
1054.6056	3253.3829	931.9	48.95
1054.7058	3254.2838	932.1	51.4
1054.806	3255.1841	930.4	48.45
1054.9061	3256.0838	929.45	46.35
1055.0061	3256.9829	928.8	48.7
1055.1062	3257.8814	929.4	46.05
1055.2061	3258.7792	929.8	45.3
1055.306	3259.6765	930.6	46.3
1055.4059	3260.5731	928.1	45.6
1055.5057	3261.4692	926.05	44.65
1055.6055	3262.3647	929.5	44.95
1055.7052	3263.2595	924.9	43.95
1055.8049	3264.1538	925.1	44.35
1055.9045	3265.0474	923.25	40.95
1056.0041	3265.9404	923.5	42
1056.1036	3266.8329	923.3	40.45
1056.2031	3267.7247	933.45	41.6
1056.3025	3268.616	919.1	36.85
1056.4019	3269.5066	920.7	39.65
1056.5013	3270.3966	921.5	37.9
1056.6005	3271.286	916.65	36.15
