Software Version:	3.9.2.0
Unit SN:	10000200
Spectrometer SN:	6960
Date:	3/14/2024 1:38:41 PM
Data Line Index:	25
Spectral Points:	2048
Integration time (ms):	125
Averages:	20
Delay (ms):	30000
Sequence Number:	1
Processing:	dark subtract
Laser Power (mW):	300
Laser Current (mA):	824
Laser Diode Temp (C):	25
Laser Case Temp (C):	28.7
System Temp (C):	28.7
Spectrometer Temp (C):	26.5
CCD Temp (C):	0.004
Secondary Temp (C):	20.008
Heatsink Temp (C):	24.652
CCDPCB Temp (C):	38.174
SecondaryPCB Temp (C):	35.807

Wavelength	RamanShift	Raw Counts	Dark Subtracted
787.061	30.1047	467.35	54.65
787.2016	32.3739	471.15	61.1
787.3422	34.6426	474.45	63.9
787.4828	36.9109	482.9	69.3
787.6235	39.1787	493.4	77.6
787.7642	41.4461	503.35	83.05
787.9049	43.7131	513.1	87.3
788.0456	45.9796	522.75	93.85
788.1863	48.2456	534.1	101.1
788.3271	50.5112	546.05	109.1
788.4679	52.7764	552.45	114.55
788.6087	55.0411	560	116.85
788.7496	57.3054	577.3	130.9
788.8904	59.5692	584.2	134.55
789.0313	61.8326	600.55	148.5
789.1722	64.0955	614	156.3
789.3132	66.3579	635.4	173.55
789.4541	68.6199	653.05	186.9
789.5951	70.8815	691.5	223.45
789.7361	73.1426	778.75	307.25
789.8771	75.4032	1003.85	525.65
790.0181	77.6634	1548.55	1064.5
790.1592	79.9231	2867.05	2379.3
790.3003	82.1824	5761.2	5264.25
790.4414	84.4412	11054.55	10539.85
790.5825	86.6995	18483.35	17950.65
790.7237	88.9574	25863.9	25312.75
790.8648	91.2148	31014.95	30450.6
791.006	93.4717	33491.6	32921.15
791.1472	95.7282	33995.4	33419.95
791.2885	97.9842	33927.05	33343
791.4297	100.2398	33255.1	32671.55
791.571	102.4949	32556.2	31967.5
791.7123	104.7495	31663.9	31074.15
791.8536	107.0036	30788.1	30196.5
791.9949	109.2573	30014.95	29424.2
792.1363	111.5105	29252.9	28662.9
792.2777	113.7632	28549.55	27956.35
792.4191	116.0154	27995.6	27390.55
792.5605	118.2672	27561.9	26964.15
792.7019	120.5185	27091.2	26494.95
792.8434	122.7693	26765.85	26162.9
792.9849	125.0197	26519.55	25915
793.1264	127.2696	26201.85	25592.8
793.2679	129.519	26053.65	25443.7
793.4094	131.7679	25804.3	25193
793.551	134.0163	25589.55	24971.8
793.6926	136.2642	25289.6	24665.8
793.8342	138.5117	25006	24373.9
793.9758	140.7587	24648.9	24024.7
794.1175	143.0052	24372.9	23746.8
794.2591	145.2512	24066.1	23440.2
794.4008	147.4967	23789.1	23161.2
794.5425	149.7417	23578.1	22945.95
794.6842	151.9863	23367.5	22732.95
794.826	154.2304	23303	22666.1
794.9677	156.4739	23133.6	22489.25
795.1095	158.717	23052.25	22408.55
795.2513	160.9596	22894.3	22249.7
795.3931	163.2017	22636.1	21989
795.535	165.4433	22270.2	21623.3
795.6768	167.6844	21953.8	21298.5
795.8187	169.925	21639	20983
795.9606	172.1651	21183.6	20525.4
796.1025	174.4047	20904.85	20242.8
796.2445	176.6439	20645.25	19981.85
796.3864	178.8825	20410.5	19744.1
796.5284	181.1206	20249.7	19580.8
796.6704	183.3582	20083.6	19411.25
796.8124	185.5954	19992.55	19317.35
796.9544	187.832	19874.8	19198
797.0965	190.0681	19842.55	19161.4
797.2386	192.3037	19820	19137.95
797.3806	194.5388	19784.9	19098.3
797.5228	196.7734	19851.4	19162.6
797.6649	199.0075	19925.5	19233.7
797.807	201.2411	20077.1	19383.75
797.9492	203.4742	20122.15	19428.9
798.0914	205.7068	20285.85	19592.15
798.2336	207.9389	20416.95	19718.55
798.3758	210.1704	20541.4	19840.85
798.518	212.4015	20642.5	19942.7
798.6603	214.632	20793.7	20090.85
798.8025	216.862	20954.3	20257.85
798.9448	219.0915	21063.5	20377
799.0871	221.3205	21237.55	20552.9
799.2294	223.549	21356.8	20676.5
799.3718	225.777	21540.15	20862.3
799.5141	228.0044	21784.4	21103.75
799.6565	230.2314	22069.4	21389.8
799.7989	232.4578	22305.7	21622.75
799.9413	234.6837	22580.45	21891.3
800.0837	236.909	22744.05	22052.95
800.2262	239.1339	22744.05	22031.8
800.3687	241.3582	22612.3	21910.65
800.5111	243.582	22352.9	21628.4
800.6536	245.8053	22155.9	21436.35
800.7961	248.0281	21981.3	21265.85
800.9387	250.2503	21853.05	21131.8
801.0812	252.472	21798.9	21076.1
801.2238	254.6932	21855.95	21128.75
801.3664	256.9139	21865.45	21137.35
801.509	259.134	21968.5	21241.15
801.6516	261.3536	22069.15	21341.35
801.7942	263.5727	22289.7	21555.05
801.9369	265.7912	22410	21684.2
802.0795	268.0092	22553.6	21821.95
802.2222	270.2267	22617.7	21885.55
802.3649	272.4436	22681.1	21949.1
802.5076	274.6601	22618.25	21879.3
802.6504	276.8759	22483	21747.95
802.7931	279.0913	22434.6	21696.1
802.9359	281.3061	22312.25	21574.95
803.0787	283.5204	22275.45	21536.45
803.2215	285.7341	22302.1	21559.7
803.3643	287.9473	22365.8	21607.35
803.5071	290.16	22514.1	21761.65
803.6499	292.3721	22700.65	21956.05
803.7928	294.5837	22999.25	22251
803.9357	296.7947	23291.85	22549
804.0786	299.0052	23455.5	22709
804.2215	301.2152	23320	22570.85
804.3644	303.4246	23111.3	22364.7
804.5074	305.6334	22618.7	21873.05
804.6503	307.8418	22105.2	21355.5
804.7933	310.0495	21666.9	20912.35
804.9363	312.2568	21231.3	20480.6
805.0793	314.4635	20872.1	20120.15
805.2223	316.6696	20671.4	19918.3
805.3653	318.8752	20492.85	19729.6
805.5084	321.0802	20474.95	19721.4
805.6514	323.2847	20556.05	19798.25
805.7945	325.4887	20589.75	19833.3
805.9376	327.692	20504	19745.05
806.0807	329.8949	20446.15	19686.55
806.2238	332.0972	20210	19450.45
806.367	334.2989	19939.4	19174.05
806.5101	336.5001	19647.95	18885.05
806.6533	338.7007	19415.7	18651.8
806.7965	340.9008	19311.65	18545.05
806.9397	343.1003	19152.9	18386.15
807.0829	345.2992	19040.1	18271.7
807.2261	347.4976	18964.75	18196.8
807.3693	349.6955	18892.7	18119
807.5126	351.8927	18904.5	18130.2
807.6559	354.0895	18821.1	18038.2
807.7991	356.2856	18841.5	18065.4
807.9424	358.4812	18808.85	18035.75
808.0857	360.6763	18792.35	18015.75
808.2291	362.8707	18752.9	17974.95
808.3724	365.0646	18817.75	18038.4
808.5158	367.258	18800.85	18017.3
808.6591	369.4508	18862.9	18076.2
808.8025	371.643	18955.2	18170.35
808.9459	373.8346	18981.7	18194.8
809.0893	376.0257	18966.3	18175.75
809.2327	378.2162	18940.15	18151.25
809.3762	380.4062	18875.65	18083.75
809.5196	382.5956	18728.3	17934.7
809.6631	384.7844	18599.15	17805.05
809.8066	386.9726	18443.35	17648.55
809.9501	389.1603	18374.4	17583
810.0936	391.3474	18297.45	17473.25
810.2371	393.5339	18267.9	17475.05
810.3806	395.7199	18178.35	17390.9
810.5241	397.9052	18180.05	17398
810.6677	400.09	18211.4	17426.8
810.8113	402.2743	18331.55	17548.3
810.9548	404.4579	18450.4	17667.05
811.0984	406.641	18610.75	17825.7
811.2421	408.8235	18813.75	18027
811.3857	411.0054	19033.75	18245.1
811.5293	413.1868	19300.85	18510.75
811.673	415.3675	19500.95	18707.75
811.8166	417.5477	19609.85	18818.75
811.9603	419.7273	19612.95	18818.05
812.104	421.9064	19486.95	18684.75
812.2477	424.0848	19339.75	18541.9
812.3914	426.2627	19144.9	18342.3
812.5351	428.4399	18851.1	18047.95
812.6788	430.6166	18501.4	17696.95
812.8226	432.7928	18098.1	17290.25
812.9663	434.9683	17799.85	16994
813.1101	437.1432	17507.3	16699.45
813.2539	439.3176	17337.6	16526.85
813.3977	441.4914	17179.3	16365.7
813.5415	443.6645	17158.05	16344.45
813.6853	445.8371	17049.8	16239.55
813.8291	448.0091	16993.75	16185.65
813.973	450.1806	16973.8	16163.35
814.1168	452.3514	16921.75	16107.95
814.2607	454.5216	16924.6	16100.15
814.4046	456.6913	16854.6	16039.15
814.5485	458.8603	16871.65	16055.95
814.6924	461.0288	16898.25	16084.4
814.8363	463.1967	16896.15	16081.25
814.9802	465.3639	16980.55	16166.2
815.1241	467.5306	17007	16190.55
815.2681	469.6967	17013.25	16198.95
815.412	471.8622	17105.25	16290.5
815.556	474.0271	17178.75	16360.5
815.7	476.1914	17250.85	16432.6
815.844	478.3551	17218.05	16402.25
815.988	480.5182	17232.4	16411.5
816.132	482.6807	17283.9	16462.75
816.276	484.8426	17416.95	16597.5
816.4201	487.0039	17741.85	16920.6
816.5641	489.1647	18100.35	17280.75
816.7082	491.3248	18489.35	17667.6
816.8522	493.4843	18627	17804.7
816.9963	495.6432	18596.4	17775.6
817.1404	497.8015	18443.2	17618.05
817.2845	499.9592	18343.25	17522.55
817.4286	502.1163	18220.95	17399
817.5727	504.2728	17938.8	17113
817.7168	506.4287	17601.3	16778.6
817.861	508.5839	17214	16387.65
818.0051	510.7386	16923.4	16098.6
818.1493	512.8927	16768.15	15935.7
818.2935	515.0461	16696.1	15873.15
818.4377	517.199	16709.25	15883.25
818.5818	519.3512	16750.5	15923.3
818.726	521.5029	16950.35	16117.6
818.8703	523.6539	17139.15	16309.4
819.0145	525.8043	17210	16380.7
819.1587	527.9541	17141.95	16309.55
819.303	530.1033	16978.95	16148.8
819.4472	532.2519	16920.95	16092.4
819.5915	534.3999	16885.6	16052.4
819.7357	536.5472	17075.15	16247.35
819.88	538.694	17414.75	16582.6
820.0243	540.8401	17835.35	17003.05
820.1686	542.9856	18147.4	17312.8
820.3129	545.1305	18239	17405.45
820.4572	547.2748	18109	17273.95
820.6016	549.4185	17836.7	17001.35
820.7459	551.5615	17561.05	16725.7
820.8902	553.704	17485.85	16648.45
821.0346	555.8458	17457.5	16622.15
821.1789	557.987	17525.2	16691.25
821.3233	560.1276	17665.95	16829.1
821.4677	562.2675	17899.95	17064.35
821.6121	564.4069	18213.6	17379.25
821.7565	566.5456	18443.65	17611.95
821.9009	568.6837	18476	17640.2
822.0453	570.8212	18099.85	17263.75
822.1897	572.958	17537	16698.65
822.3342	575.0942	17017.85	16181.75
822.4786	577.2299	16638.75	15800.65
822.6231	579.3648	16503.5	15664.8
822.7675	581.4992	16479.35	15642.85
822.912	583.6329	16605.4	15769.55
823.0565	585.766	16826.9	15988.05
823.201	587.8985	16910.2	16074.9
823.3454	590.0304	16967.8	16102.95
823.4899	592.1616	16878.6	16035.85
823.6345	594.2922	16708.3	15866.1
823.779	596.4222	16503.6	15663.5
823.9235	598.5515	16298.8	15457.5
824.068	600.6802	16144.1	15303.5
824.2126	602.8083	15928.05	15086.4
824.3571	604.9358	15862.8	15020.8
824.5017	607.0626	15860.45	15018.05
824.6462	609.1888	15863.15	15020.85
824.7908	611.3144	15912.95	15070.5
824.9354	613.4393	15920.4	15075.95
825.08	615.5636	15931.15	15088.15
825.2246	617.6873	15894.75	15052.7
825.3692	619.8103	15797.8	14953.3
825.5138	621.9327	15612.9	14766.15
825.6584	624.0544	15490.55	14644.95
825.803	626.1756	15348.6	14503.1
825.9477	628.2961	15251.4	14407.9
826.0923	630.4159	15178.5	14335.35
826.237	632.5351	15134.1	14290.3
826.3816	634.6537	15056.95	14211.65
826.5263	636.7716	15060.8	14214.85
826.6709	638.8889	15042.25	14195.2
826.8156	641.0056	15044.65	14196.55
826.9603	643.1216	15017.15	14168.45
827.105	645.237	15018.8	14168.25
827.2497	647.3518	14932.5	14083.15
827.3944	649.4659	14887.05	14037.4
827.5391	651.5793	14815.45	13968.05
827.6838	653.6922	14795.6	13948.7
827.8285	655.8043	14777.8	13930.1
827.9733	657.9159	14762.25	13912.25
828.118	660.0268	14677.8	13825.8
828.2627	662.137	14666.15	13817.6
828.4075	664.2466	14630.45	13777.5
828.5522	666.3556	14598.15	13748
828.697	668.4639	14554.2	13699.5
828.8418	670.5716	14551.35	13699.3
828.9865	672.6786	14570.7	13720.45
829.1313	674.785	14545.9	13694.05
829.2761	676.8907	14546.2	13691.25
829.4209	678.9958	14578.2	13727.45
829.5657	681.1002	14548.45	13695.6
829.7105	683.204	14508.35	13654.6
829.8553	685.3072	14470.6	13617
830.0001	687.4097	14395.9	13541.8
830.1449	689.5115	14386.55	13529.55
830.2898	691.6127	14338.45	13484.6
830.4346	693.7132	14281.4	13427.15
830.5794	695.8131	14267	13404.65
830.7243	697.9123	14249.85	13394.8
830.8691	700.0109	14230.25	13372.65
831.014	702.1089	14234.65	13376.8
831.1588	704.2061	14243.05	13386.15
831.3037	706.3028	14242.8	13385
831.4486	708.3987	14278.9	13420.3
831.5935	710.4941	14293.7	13437.75
831.7383	712.5887	14395.5	13537.95
831.8832	714.6827	14600.35	13740.15
832.0281	716.7761	14803.7	13945.25
832.173	718.8688	15068.6	14208.1
832.3179	720.9608	15240.3	14378.9
832.4628	723.0522	15317.3	14458
832.6077	725.1429	15225.75	14367.05
832.7527	727.233	15142.95	14285
832.8976	729.3224	15074.25	14213.75
833.0425	731.4112	14883.15	14021.9
833.1874	733.4993	14699.3	13835.6
833.3324	735.5867	14464.1	13599.45
833.4773	737.6735	14245.15	13383
833.6222	739.7596	14115.15	13252.35
833.7672	741.845	13979.4	13118.45
833.9122	743.9298	13913.55	13049.4
834.0571	746.014	13847.6	12987.3
834.2021	748.0974	13844	12980.65
834.347	750.1802	13853.25	12991.45
834.492	752.2624	13867.8	13004.9
834.637	754.3439	13886.3	13024.75
834.782	756.4247	13966.25	13095
834.9269	758.5048	14099.05	13237.85
835.0719	760.5843	14362.2	13499.05
835.2169	762.6631	14726.65	13862.25
835.3619	764.7413	15259.3	14396.8
835.5069	766.8188	15927	15061.95
835.6519	768.8956	16458.75	15596.85
835.7969	770.9718	16812.55	15948.3
835.9419	773.0473	16694.25	15833.25
836.0869	775.1221	16378.25	15515.75
836.232	777.1962	16030	15166.8
836.377	779.2697	15861.6	14995.55
836.522	781.3426	15879.95	15003.1
836.667	783.4147	16059.85	15196.85
836.8121	785.4862	16187.25	15324.55
836.9571	787.557	16133.15	15269.9
837.1021	789.6271	15680.1	14814.75
837.2472	791.6966	15069.6	14204.5
837.3922	793.7654	14448.9	13582.4
837.5373	795.8335	14049.65	13186.2
837.6823	797.901	13735.05	12870.4
837.8274	799.9678	13597	12729.9
837.9724	802.0339	13542.75	12680.05
838.1175	804.0993	13509.3	12633.55
838.2626	806.1641	13444.65	12576.95
838.4076	808.2282	13385.9	12520
838.5527	810.2916	13284.05	12415.7
838.6978	812.3544	13196	12331
838.8428	814.4164	13117.75	12251.05
838.9879	816.4778	13134.7	12270.15
839.133	818.5385	13120.6	12253.9
839.2781	820.5986	13220.6	12353.3
839.4232	822.658	13405.05	12537.75
839.5682	824.7166	13650.2	12783.95
839.7133	826.7747	14031	13167.3
839.8584	828.832	14442.5	13577.2
840.0035	830.8886	14693.75	13826.45
840.1486	832.9446	14849	13981.25
840.2937	834.9999	14758.6	13893.85
840.4388	837.0545	14587	13715.25
840.5839	839.1085	14348	13481.35
840.729	841.1618	14127.85	13254.35
840.8741	843.2143	13947.75	13077.8
841.0192	845.2662	13780.7	12911.95
841.1643	847.3175	13690	12821.35
841.3095	849.368	13566.15	12698
841.4546	851.4179	13430.15	12561.9
841.5997	853.467	13282.55	12414.65
841.7448	855.5155	13182	12314.7
841.8899	857.5633	13089.3	12221.4
842.0351	859.6105	12969.2	12099.95
842.1802	861.6569	12904.6	12036.1
842.3253	863.7027	12783	11914.4
842.4704	865.7478	12719.3	11847.85
842.6156	867.7922	12696.75	11829.55
842.7607	869.8359	12698.25	11828.95
842.9058	871.8789	12764.2	11893.7
843.0509	873.9212	12867.2	11962.55
843.1961	875.9629	12991.3	12121.45
843.3412	878.0039	13094.85	12223
843.4863	880.0441	13227.75	12355.15
843.6315	882.0837	13216.9	12342.45
843.7766	884.1226	13182.7	12309.4
843.9218	886.1609	13164	12295.35
844.0669	888.1984	13172.7	12303.7
844.212	890.2352	13219.6	12349.05
844.3572	892.2714	13201.05	12327.75
844.5023	894.3069	13146.7	12274.85
844.6475	896.3416	13024	12151.7
844.7926	898.3757	12885.5	12012.3
844.9377	900.4091	12788.75	11914.85
845.0829	902.4418	12804	11927.45
845.228	904.4739	12796.3	11923
845.3732	906.5052	12832.05	11958.2
845.5183	908.5358	12750.8	11878.55
845.6635	910.5658	12606.7	11734.8
845.8086	912.595	12392.4	11521.35
845.9538	914.6236	12208.65	11337.05
846.0989	916.6515	12082.85	11211.55
846.2441	918.6786	12028.55	11152.95
846.3892	920.7051	12051.15	11177.65
846.5344	922.7309	12113.45	11240.85
846.6795	924.756	12116.1	11242.7
846.8246	926.7804	12183.05	11310.75
846.9698	928.8041	12140	11262.9
847.1149	930.8272	12202.7	11330.65
847.2601	932.8495	12169.2	11294.75
847.4052	934.8711	12095.55	11221.25
847.5504	936.892	11965.95	11091.4
847.6955	938.9123	11891.2	11017.55
847.8407	940.9318	11847.8	10974.45
847.9858	942.9506	11774.65	10899.65
848.131	944.9688	11662.4	10788.75
848.2761	946.9862	11603.25	10726.35
848.4213	949.003	11473.35	10600.35
848.5664	951.019	11387.6	10511.3
848.7115	953.0344	11383.85	10508.15
848.8567	955.0491	11369	10494.25
849.0018	957.063	11424.85	10547.35
849.147	959.0763	11523.4	10650.75
849.2921	961.0888	11539.95	10663.75
849.4373	963.1007	11595.8	10721.25
849.5824	965.1119	11615.1	10739.95
849.7275	967.1223	11613.75	10738.8
849.8727	969.1321	11610.65	10736.85
850.0178	971.1412	11612.25	10736.1
850.1629	973.1495	11580.65	10706.3
850.3081	975.1572	11603.75	10696.8
850.4532	977.1641	11638.75	10763.9
850.5983	979.1704	11602.9	10726.55
850.7435	981.1759	11522.9	10645.95
850.8886	983.1808	11565.25	10687.2
851.0337	985.1849	11611.4	10725.45
851.1788	987.1884	11714.3	10835.6
851.324	989.1911	11838.1	10957.95
851.4691	991.1932	11930.45	11053.45
851.6142	993.1945	11963.3	11084.85
851.7593	995.1951	11944.05	11068.2
851.9045	997.1951	11860.1	10979.25
852.0496	999.1943	11788.75	10912.55
852.1947	1001.1928	11750.85	10874.9
852.3398	1003.1906	11795.5	10919
852.4849	1005.1877	11889.95	11012.25
852.63	1007.1841	11890.35	11013
852.7751	1009.1798	11880.65	11004.1
852.9202	1011.1748	11746.05	10869.7
853.0653	1013.1691	11555.55	10677.1
853.2104	1015.1627	11324.6	10446.85
853.3555	1017.1556	11115.35	10240.35
853.5006	1019.1477	10981.15	10101.95
853.6457	1021.1392	10842.25	9966.65
853.7908	1023.1299	10850.95	9974.75
853.9359	1025.12	10848.05	9969.3
854.081	1027.1093	10877	10000.85
854.2261	1029.0979	10974.35	10099.05
854.3712	1031.0859	11068.3	10192.55
854.5163	1033.0731	11088.5	10209.65
854.6613	1035.0596	10997.2	10121.45
854.8064	1037.0454	10857	9979.55
854.9515	1039.0304	10759.1	9881.7
855.0965	1041.0148	10600.7	9722.3
855.2416	1042.9985	10495.15	9615.55
855.3867	1044.9814	10446	9569.55
855.5317	1046.9636	10360.05	9481.15
855.6768	1048.9452	10343.55	9468.9
855.8219	1050.926	10380.35	9505.9
855.9669	1052.9061	10370.7	9495.8
856.112	1054.8855	10373.95	9497.5
856.257	1056.8642	10421.8	9544.85
856.4021	1058.8421	10442.9	9565.15
856.5471	1060.8194	10490.8	9613.7
856.6921	1062.7959	10506.65	9628.75
856.8372	1064.7717	10556.15	9677.05
856.9822	1066.7469	10601.4	9725
857.1272	1068.7213	10635	9755.55
857.2723	1070.695	10679	9799.7
857.4173	1072.6679	10682.2	9804.35
857.5623	1074.6402	10638.25	9759.45
857.7073	1076.6117	10599.7	9716.85
857.8523	1078.5826	10515.75	9637.3
857.9973	1080.5527	10438.75	9557.8
858.1423	1082.5221	10431.95	9552.55
858.2873	1084.4908	10476.6	9597.6
858.4323	1086.4587	10577.1	9699.1
858.5773	1088.426	10648.45	9768.4
858.7223	1090.3925	10646.05	9761.75
858.8673	1092.3584	10668.75	9790.4
859.0123	1094.3235	10596.9	9720.4
859.1573	1096.2879	10612.25	9732.4
859.3022	1098.2515	10670.45	9789.75
859.4472	1100.2145	10743.3	9864.6
859.5922	1102.1767	10907.05	10026
859.7371	1104.1382	11080.3	10202.1
859.8821	1106.099	11342.35	10461.3
860.027	1108.0591	11568.7	10689.55
860.172	1110.0185	11732.4	10851.15
860.3169	1111.9771	11766.25	10888.1
860.4619	1113.9351	11630.7	10752.3
860.6068	1115.8923	11424.75	10542.25
860.7517	1117.8488	11202	10322.8
860.8967	1119.8045	10959.6	10079.25
861.0416	1121.7596	10816.15	9936.8
861.1865	1123.7139	10706.35	9826.25
861.3314	1125.6675	10673.95	9794.95
861.4763	1127.6204	10706.7	9829
861.6212	1129.5726	10668.2	9789.1
861.7661	1131.524	10611.6	9733.25
861.911	1133.4748	10507.2	9629.2
862.0559	1135.4248	10366.25	9484.45
862.2008	1137.3741	10262.15	9383.55
862.3457	1139.3226	10175.6	9294.15
862.4905	1141.2705	10135.25	9256.8
862.6354	1143.2176	10008.3	9122
862.7803	1145.164	9976	9095.9
862.9251	1147.1097	9948.8	9070.05
863.07	1149.0546	9878.55	8996.2
863.2148	1150.9989	9775.8	8895.85
863.3597	1152.9424	9647.75	8769.1
863.5045	1154.8852	9512.15	8629.55
863.6493	1156.8272	9445.55	8566.15
863.7942	1158.7686	9428.25	8542.1
863.939	1160.7092	9418.65	8538.85
864.0838	1162.6491	9443.85	8562.75
864.2286	1164.5883	9532.8	8652.9
864.3734	1166.5267	9631.35	8749.5
864.5182	1168.4644	9763	8881.95
864.663	1170.4014	9959.7	9076.1
864.8078	1172.3377	10218.55	9341.45
864.9526	1174.2732	10475.4	9594.65
865.0974	1176.2081	10865.8	9987.7
865.2421	1178.1421	11265	10384.2
865.3869	1180.0755	11682.4	10801
865.5317	1182.0082	11924.65	11043.75
865.6764	1183.9401	12070.6	11189.95
865.8212	1185.8713	11930.85	11050.35
865.9659	1187.8017	11651.1	10768.45
866.1106	1189.7315	11282.9	10403.1
866.2554	1191.6605	10905.35	9994.9
866.4001	1193.5888	10656	9772.5
866.5448	1195.5163	10485.35	9606.55
866.6895	1197.4432	10382	9500.1
866.8342	1199.3693	10357.3	9474.6
866.9789	1201.2947	10332.6	9445.7
867.1236	1203.2193	10294.15	9414
867.2683	1205.1432	10290.85	9411.2
867.413	1207.0664	10275.1	9393.8
867.5576	1208.9889	10270.5	9383.15
867.7023	1210.9106	10273.35	9394.35
867.847	1212.8316	10279.6	9399.9
867.9916	1214.7519	10340.65	9448.6
868.1363	1216.6715	10355.2	9474.65
868.2809	1218.5903	10377.15	9496.85
868.4255	1220.5084	10402	9522.1
868.5701	1222.4257	10470.35	9590.35
868.7148	1224.3424	10482.35	9602
868.8594	1226.2583	10556.95	9670.9
869.004	1228.1735	10694.9	9812.7
869.1486	1230.0879	10805.6	9922.7
869.2932	1232.0016	10958.45	10078.2
869.4377	1233.9146	11037.8	10156.25
869.5823	1235.8269	10987.15	10106.65
869.7269	1237.7384	10890.95	10010.5
869.8715	1239.6492	10733.3	9852
870.016	1241.5592	10651.3	9770.85
870.1606	1243.4686	10625.15	9742.3
870.3051	1245.3772	10712.9	9834.55
870.4496	1247.285	10795.1	9914.8
870.5941	1249.1922	10913.1	10031.25
870.7387	1251.0986	10959.7	10079.95
870.8832	1253.0042	11011.95	10131.45
871.0277	1254.9092	11059.2	10177.05
871.1722	1256.8134	11136.7	10255.65
871.3167	1258.7169	11294.2	10412.55
871.4611	1260.6196	11461.1	10581.25
871.6056	1262.5216	11690.05	10806.75
871.7501	1264.4229	11886.1	11008.25
871.8945	1266.3234	12092.3	11210.1
872.039	1268.2232	12174.05	11291.05
872.1834	1270.1223	12239.75	11357.15
872.3278	1272.0207	12238.65	11354.65
872.4723	1273.9183	12184.2	11295.1
872.6167	1275.8151	12129.85	11245.95
872.7611	1277.7113	12076.9	11194.5
872.9055	1279.6067	12040.7	11158.75
873.0499	1281.5014	12162	11276.95
873.1943	1283.3953	12340	11456.95
873.3386	1285.2885	12614.55	11733
873.483	1287.181	12953.35	12070.85
873.6274	1289.0727	13248.6	12367.2
873.7717	1290.9637	13498.55	12615.6
873.9161	1292.854	13644.75	12763.35
874.0604	1294.7435	13683.2	12799.3
874.2047	1296.6323	13694.1	12812.15
874.349	1298.5204	13697.55	12812.3
874.4933	1300.4077	13655.3	12772.2
874.6376	1302.2943	13569.9	12688.25
874.7819	1304.1802	13424.5	12543.25
874.9262	1306.0653	13088.3	12202.25
875.0705	1307.9497	12695.1	11814.25
875.2147	1309.8333	12392.2	11509.55
875.359	1311.7162	12178.75	11296.3
875.5032	1313.5984	12061.3	11176.1
875.6475	1315.4798	11998.2	11104.65
875.7917	1317.3605	12001.3	11101.95
875.9359	1319.2405	11972.9	11088.25
876.0801	1321.1197	11838.25	10953.45
876.2243	1322.9982	11611.55	10724.6
876.3685	1324.876	11425.15	10541.9
876.5127	1326.753	11226.7	10342.6
876.6569	1328.6293	11082.4	10200.05
876.801	1330.5048	10983.05	10099.35
876.9452	1332.3796	10868.65	9987.7
877.0893	1334.2537	10832.4	9924.2
877.2335	1336.127	10753.65	9870.05
877.3776	1337.9996	10734.1	9850.7
877.5217	1339.8714	10719	9834.85
877.6658	1341.7426	10746.3	9822.2
877.8099	1343.6129	10729.6	9846.65
877.954	1345.4826	10705.7	9823.95
878.0981	1347.3515	10703.65	9816.5
878.2422	1349.2196	10635.85	9751.5
878.3862	1351.087	10681.55	9797.95
878.5303	1352.9537	10745.75	9860.65
878.6743	1354.8197	10877.5	9996.15
878.8184	1356.6849	11043.8	10162.35
878.9624	1358.5493	11198.45	10314.45
879.1064	1360.4131	11312.15	10428.5
879.2504	1362.276	11396.55	10511.95
879.3944	1364.1383	11338.1	10453.95
879.5384	1365.9998	11134.85	10245.95
879.6823	1367.8606	10783.25	9899.45
879.8263	1369.7206	10410.2	9524.9
879.9702	1371.5799	10091.55	9206.9
880.1142	1373.4384	9836.45	8952.6
880.2581	1375.2962	9649.65	8765.5
880.402	1377.1533	9336	8450.65
880.5459	1379.0096	8985.05	8102.8
880.6898	1380.8652	8653.85	7770.4
880.8337	1382.7201	8368.15	7482.85
880.9776	1384.5742	8108.15	7226.6
881.1215	1386.4275	7924	7039.25
881.2653	1388.2802	7775.6	6894.75
881.4092	1390.132	7651.65	6767.55
881.553	1391.9832	7590.05	6704.65
881.6968	1393.8336	7503.3	6618.55
881.8406	1395.6832	7451.4	6566.85
881.9844	1397.5322	7422.25	6541.55
882.1282	1399.3803	7392.35	6505
882.272	1401.2278	7376.05	6492.15
882.4158	1403.0745	7361.7	6476.25
882.5595	1404.9204	7353.95	6474
882.7033	1406.7656	7385.7	6502.3
882.847	1408.6101	7396.5	6514.15
882.9908	1410.4538	7409.75	6525.7
883.1345	1412.2968	7472	6586.3
883.2782	1414.139	7527.2	6644.35
883.4219	1415.9805	7638.7	6755.4
883.5656	1417.8213	7708.6	6815.35
883.7092	1419.6613	7828.8	6945.95
883.8529	1421.5006	7964.3	7079.05
883.9965	1423.3391	8209.3	7325.15
884.1402	1425.1769	8527.1	7643.7
884.2838	1427.0139	8965.25	8080.4
884.4274	1428.8502	9526.85	8642.15
884.571	1430.6858	10116.85	9232.25
884.7146	1432.5206	10521.55	9635.95
884.8582	1434.3547	10766.85	9882
885.0018	1436.188	10782.5	9899.2
885.1453	1438.0206	10698.2	9813.15
885.2889	1439.8524	10507.35	9624.1
885.4324	1441.6835	10395.6	9511.75
885.5759	1443.5139	10282.5	9395.7
885.7194	1445.3435	10231	9346.55
885.8629	1447.1724	10189.9	9306.4
886.0064	1449.0005	10133.5	9250.85
886.1499	1450.8279	10054.65	9167.55
886.2933	1452.6545	10014.8	9130.7
886.4368	1454.4804	10060.3	9175.05
886.5802	1456.3056	10071.9	9178.1
886.7237	1458.13	9968.85	9088
886.8671	1459.9536	9794.45	8911
887.0105	1461.7766	9481	8599.55
887.1539	1463.5987	9115.4	8230
887.2972	1465.4202	8762.5	7879.45
887.4406	1467.2409	8391.15	7506.65
887.584	1469.0608	8088.6	7205.85
887.7273	1470.88	7818.7	6934
887.8706	1472.6984	7591.7	6707.1
888.0139	1474.5161	7396.45	6510.2
888.1572	1476.3331	7220.9	6338.75
888.3005	1478.1493	7111.4	6227.9
888.4438	1479.9648	7004.8	6123.15
888.5871	1481.7795	6916.1	6031.9
888.7303	1483.5935	6853.65	5970.2
888.8736	1485.4067	6791.65	5909.05
889.0168	1487.2192	6759.45	5875.7
889.16	1489.031	6682.15	5795.75
889.3032	1490.842	6653.15	5769.3
889.4464	1492.6522	6634.25	5753.1
889.5896	1494.4618	6572.45	5686.3
889.7327	1496.2705	6547	5663.65
889.8759	1498.0785	6496.1	5612.8
890.019	1499.8858	6466.7	5581.8
890.1622	1501.6924	6415.55	5532.75
890.3053	1503.4981	6415.3	5531.35
890.4484	1505.3032	6372.05	5487.55
890.5914	1507.1075	6345.9	5463.05
890.7345	1508.911	6294.85	5411.65
890.8776	1510.7138	6259.65	5377.85
891.0206	1512.5159	6218.65	5335.95
891.1637	1514.3172	6187.75	5302.75
891.3067	1516.1178	6128.2	5243.8
891.4497	1517.9176	6124.6	5236.2
891.5927	1519.7166	6068.55	5185.65
891.7357	1521.515	6057.95	5167.9
891.8786	1523.3126	6024.45	5140
892.0216	1525.1094	5999.45	5113.55
892.1645	1526.9055	5976.3	5093.65
892.3074	1528.7008	5946.35	5061.15
892.4503	1530.4954	5927.1	5040.85
892.5932	1532.2893	5897.75	5016.25
892.7361	1534.0824	5883.85	4994.45
892.879	1535.8747	5883.1	5000.55
893.0218	1537.6663	5871.25	4986.25
893.1647	1539.4572	5864.2	4980.2
893.3075	1541.2473	5867.6	4983.7
893.4503	1543.0367	5890.6	5007.15
893.5931	1544.8253	5879.2	4991.1
893.7359	1546.6132	5911.1	5024.8
893.8787	1548.4003	5908.25	5014.85
894.0214	1550.1867	5935.4	5042.6
894.1642	1551.9723	5993.8	5107.4
894.3069	1553.7572	6059	5173.5
894.4496	1555.5414	6143.65	5258.4
894.5923	1557.3247	6257.8	5374.4
894.735	1559.1074	6389.3	5505.7
894.8777	1560.8893	6532.1	5648.7
895.0204	1562.6705	6666.4	5780.85
895.163	1564.4509	6772.8	5888.9
895.3056	1566.2305	6847	5964.1
895.4482	1568.0094	6886.3	6002.7
895.5908	1569.7876	6917.65	6033.05
895.7334	1571.565	6894.25	6010.7
895.876	1573.3417	6907.85	6024.35
896.0186	1575.1176	6870.15	5985.9
896.1611	1576.8928	6854.95	5972.7
896.3036	1578.6672	6829.7	5948.9
896.4461	1580.4409	6783.6	5902.2
896.5886	1582.2138	6736.3	5849.4
896.7311	1583.986	6741.05	5857.95
896.8736	1585.7575	6763.15	5880.15
897.0161	1587.5282	6763.6	5881.9
897.1585	1589.2981	6827.2	5945.45
897.3009	1591.0673	6860.55	5975.75
897.4433	1592.8358	6926.9	6042.65
897.5857	1594.6035	7018.95	6134.25
897.7281	1596.3704	7057.5	6175.45
897.8705	1598.1366	7113.65	6230.25
898.0128	1599.9021	7216.9	6333.2
898.1551	1601.6668	7279.5	6393.35
898.2975	1603.4308	7397.75	6512.95
898.4398	1605.194	7548.7	6659.35
898.5821	1606.9564	7718.55	6833.95
898.7243	1608.7182	7932	7043.7
898.8666	1610.4791	8180.4	7296.65
899.0088	1612.2394	8446.8	7564.2
899.1511	1613.9988	8723.6	7839.85
899.2933	1615.7576	8994.6	8111.65
899.4355	1617.5156	9216.65	8327.5
899.5776	1619.2728	9327.5	8444.1
899.7198	1621.0293	9347.5	8463.75
899.862	1622.785	9233.65	8344.9
900.0041	1624.54	9042.25	8155.35
900.1462	1626.2942	8786.05	7899.5
900.2883	1628.0477	8422.25	7537.9
900.4304	1629.8005	8150.8	7262.2
900.5725	1631.5525	7874.4	6991.7
900.7145	1633.3037	7642.35	6758.75
900.8566	1635.0542	7450.05	6566.7
900.9986	1636.804	7322.8	6437.7
901.1406	1638.553	7260	6324.05
901.2826	1640.3013	7175.95	6292.8
901.4245	1642.0488	7169.95	6285.7
901.5665	1643.7955	7192.65	6311.8
901.7085	1645.5416	7237.6	6353.55
901.8504	1647.2868	7353.35	6470.3
901.9923	1649.0313	7455.75	6571.5
902.1342	1650.7751	7614.3	6728.05
902.2761	1652.5181	7785.65	6903.5
902.4179	1654.2604	7967.9	7082.65
902.5598	1656.0019	8221.85	7338.45
902.7016	1657.7427	8491.8	7608.3
902.8434	1659.4828	8788.3	7906.2
902.9852	1661.222	8957.75	8075.25
903.127	1662.9606	8917.2	8035.05
903.2687	1664.6984	8670.6	7787.45
903.4105	1666.4354	8247.8	7364.85
903.5522	1668.1717	7694.4	6812.95
903.6939	1669.9072	7139	6257.55
903.8356	1671.642	6666.2	5780.35
903.9773	1673.3761	6265.25	5383.95
904.119	1675.1094	5946.25	5062.15
904.2606	1676.8419	5718.8	4834.65
904.4022	1678.5737	5533.8	4651.05
904.5439	1680.3048	5387.3	4506.9
904.6855	1682.0351	5255.2	4371.7
904.827	1683.7646	5175.9	4288.85
904.9686	1685.4934	5094	4209.8
905.1101	1687.2215	5006	4121.15
905.2517	1688.9488	4954.55	4070.95
905.3932	1690.6754	4903.5	4022.95
905.5347	1692.4012	4852.35	3969.5
905.6761	1694.1263	4818	3936.8
905.8176	1695.8506	4790.35	3905
905.9591	1697.5742	4751.4	3869.5
906.1005	1699.297	4725.4	3840.75
906.2419	1701.0191	4684.7	3803.35
906.3833	1702.7404	4660.2	3777.05
906.5246	1704.461	4598.65	3713.4
906.666	1706.1808	4583.25	3700
906.8073	1707.8999	4561.7	3678.6
906.9487	1709.6182	4537.05	3651.1
907.09	1711.3358	4518.3	3636.05
907.2313	1713.0527	4499.35	3619.15
907.3725	1714.7688	4461.55	3571.85
907.5138	1716.4841	4426.05	3541.55
907.655	1718.1987	4427.05	3538.5
907.7962	1719.9126	4390.8	3508.15
907.9374	1721.6257	4383.05	3499.4
908.0786	1723.338	4368.05	3482.2
908.2198	1725.0496	4353.25	3470.9
908.3609	1726.7605	4347.3	3463.65
908.502	1728.4706	4330.35	3445.4
908.6431	1730.18	4312.3	3427.75
908.7842	1731.8886	4312.15	3430.15
908.9253	1733.5964	4292.65	3404.8
909.0664	1735.3036	4292.9	3406.5
909.2074	1737.0099	4263.25	3381.85
909.3484	1738.7156	4234.8	3353.35
909.4894	1740.4204	4207.85	3322.6
909.6304	1742.1246	4198.05	3314.7
909.7714	1743.8279	4172.45	3290.55
909.9123	1745.5306	4152.1	3268.45
910.0532	1747.2325	4146.6	3264.3
910.1941	1748.9336	4123.45	3240.65
910.335	1750.634	4106.45	3222.15
910.4759	1752.3336	4094.5	3211.85
910.6168	1754.0325	4095.4	3213.2
910.7576	1755.7307	4061.4	3178.25
910.8984	1757.4281	4071.1	3189.85
911.0392	1759.1247	4053.45	3161.55
911.18	1760.8206	4036.85	3149.65
911.3208	1762.5158	4050.35	3164.6
911.4615	1764.2102	4023.15	3141
911.6022	1765.9039	4009.55	3128
911.7429	1767.5968	3995.55	3112.8
911.8836	1769.289	3989.6	3107.3
912.0243	1770.9804	3984.25	3101.9
912.1649	1772.6711	3985.65	3103.1
912.3056	1774.361	3970.65	3087.65
912.4462	1776.0502	3948.35	3064.55
912.5868	1777.7386	3935.4	3050.45
912.7274	1779.4263	3935.15	3051.35
912.8679	1781.1132	3921.4	3039.85
913.0084	1782.7994	3924.65	3041
913.149	1784.4849	3912.55	3030.35
913.2895	1786.1696	3925.7	3025.1
913.4299	1787.8535	3902.5	3019.65
913.5704	1789.5367	3900.25	3015.9
913.7108	1791.2192	3891.5	3010.1
913.8513	1792.9009	3881.05	2983.4
913.9917	1794.5818	3865.7	2981.75
914.132	1796.2621	3859.15	2978.85
914.2724	1797.9415	3845.05	2961.25
914.4128	1799.6202	3839.9	2956.3
914.5531	1801.2982	3822.7	2940.65
914.6934	1802.9755	3820.1	2935.25
914.8337	1804.6519	3818.1	2934.3
914.9739	1806.3277	3802.7	2920.8
915.1142	1808.0027	3795.75	2915.05
915.2544	1809.6769	3790.05	2907.45
915.3946	1811.3504	3781.85	2897.9
915.5348	1813.0231	3774.55	2890.7
915.675	1814.6951	3773.35	2890
915.8151	1816.3664	3758.7	2873.25
915.9553	1818.0369	3757.75	2877.1
916.0954	1819.7067	3740.35	2857.05
916.2355	1821.3757	3741.3	2858.5
916.3755	1823.044	3733.75	2849.55
916.5156	1824.7115	3723.4	2841.35
916.6556	1826.3783	3722.65	2840.55
916.7956	1828.0443	3704.3	2824.15
916.9356	1829.7096	3712.85	2828.95
917.0756	1831.3741	3707.55	2822.05
917.2155	1833.0379	3695.85	2814.05
917.3555	1834.701	3681.45	2795.5
917.4954	1836.3633	3698.8	2814
917.6353	1838.0248	3690.4	2807.55
917.7751	1839.6856	3675.55	2792.35
917.915	1841.3457	3662.3	2781.15
918.0548	1843.005	3659.9	2777.35
918.1946	1844.6636	3658.45	2777.55
918.3344	1846.3214	3651.9	2769.9
918.4742	1847.9785	3654.85	2775.7
918.6139	1849.6349	3635.05	2750.2
918.7537	1851.2904	3639.55	2750.9
918.8934	1852.9453	3630.75	2747.9
919.0331	1854.5994	3626.2	2743.05
919.1727	1856.2528	3619.3	2730.6
919.3124	1857.9054	3608.2	2725.35
919.452	1859.5572	3600.2	2719.25
919.5916	1861.2083	3591.85	2707.3
919.7312	1862.8587	3600.1	2717.45
919.8708	1864.5084	3586.1	2703.95
920.0103	1866.1572	3579.4	2697.85
920.1498	1867.8054	3573.35	2692.1
920.2893	1869.4528	3547.3	2663.85
920.4288	1871.0994	3541.5	2659.05
920.5683	1872.7453	3541.6	2657.55
920.7077	1874.3905	3556.8	2655.5
920.8471	1876.0349	3538.05	2654.3
920.9865	1877.6786	3543.95	2660
921.1259	1879.3215	3521.45	2639.15
921.2653	1880.9637	3522.95	2639.45
921.4046	1882.6051	3507.9	2625.4
921.5439	1884.2458	3511.05	2625.3
921.6832	1885.8858	3491.3	2609.6
921.8225	1887.525	3481.35	2597.15
921.9617	1889.1634	3486.85	2606.2
922.101	1890.8011	3473.05	2587.8
922.2402	1892.4381	3453.3	2572.05
922.3794	1894.0743	3454.25	2572.85
922.5185	1895.7098	3453.1	2572.4
922.6577	1897.3446	3447.3	2565.1
922.7968	1898.9786	3451.35	2565.45
922.9359	1900.6118	3445.2	2564.55
923.075	1902.2443	3421	2535.85
923.214	1903.8761	3409.95	2527.7
923.3531	1905.5071	3409.7	2525.95
923.4921	1907.1374	3379.4	2495
923.6311	1908.7669	3388	2504.85
923.77	1910.3957	3392.95	2510.65
923.909	1912.0237	3372.15	2488.5
924.0479	1913.651	3362.7	2479.9
924.1868	1915.2776	3359.6	2477.85
924.3257	1916.9034	3363.5	2483.3
924.4646	1918.5285	3338.85	2456.2
924.6034	1920.1528	3340.55	2457.5
924.7422	1921.7764	3331.05	2449.75
924.881	1923.3992	3324.25	2441.2
925.0198	1925.0213	3319.65	2436.5
925.1586	1926.6427	3304.85	2423.3
925.2973	1928.2633	3385.7	2392.85
925.436	1929.8832	3306.4	2422.65
925.5747	1931.5023	3274.6	2391.35
925.7134	1933.1207	3276.2	2394.55
925.852	1934.7383	3268.45	2384.25
925.9906	1936.3552	3264.25	2382.35
926.1292	1937.9714	3245.3	2362.7
926.2678	1939.5868	3230	2344.8
926.4064	1941.2015	3232.1	2350.95
926.5449	1942.8154	3230.95	2348.55
926.6834	1944.4286	3219	2336.4
926.8219	1946.041	3208.3	2301.65
926.9604	1947.6528	3205.6	2317.45
927.0988	1949.2637	3183.25	2301.2
927.2372	1950.8739	3177.35	2293.8
927.3756	1952.4834	3172.95	2289.15
927.514	1954.0921	3164.8	2283.25
927.6523	1955.7001	3153.35	2267.55
927.7907	1957.3074	3151.8	2270.5
927.929	1958.9139	3137.55	2255.9
928.0673	1960.5197	3126.3	2241.2
928.2055	1962.1247	3119.85	2238.05
928.3438	1963.729	3117.3	2235.05
928.482	1965.3325	3119.95	2212.25
928.6202	1966.9353	3099.6	2216.95
928.7584	1968.5374	3095.55	2212.25
928.8965	1970.1387	3087.2	2203.7
929.0346	1971.7393	3068.35	2184.45
929.1727	1973.3392	3075.75	2192.2
929.3108	1974.9383	3068.15	2186.75
929.4489	1976.5366	3048.7	2164.1
929.5869	1978.1342	3053.65	2170.25
929.7249	1979.7311	3050.1	2165.15
929.8629	1981.3273	3044	2159.3
930.0009	1982.9227	3038.9	2153.85
930.1388	1984.5173	3032.85	2149.65
930.2767	1986.1112	3005.95	2123.55
930.4146	1987.7044	3009.45	2127.7
930.5525	1989.2968	2996.8	2114.15
930.6904	1990.8885	3003.35	2118.55
930.8282	1992.4795	2996.7	2111.85
930.966	1994.0697	2988.35	2106.4
931.1038	1995.6592	2969.6	2085.85
931.2415	1997.2479	2967.65	2084
931.3793	1998.8359	2961.5	2079.6
931.517	2000.4232	2955.85	2073.4
931.6547	2002.0097	2942.35	2061.4
931.7923	2003.5955	2932.65	2050.8
931.93	2005.1805	2943	2058.25
932.0676	2006.7648	2933.65	2052.8
932.2052	2008.3484	2932.95	2047.2
932.3427	2009.9312	2927.7	2043.45
932.4803	2011.5133	2924.8	2042.95
932.6178	2013.0946	2910.75	2027.15
932.7553	2014.6752	2911.15	2031.95
932.8928	2016.2551	2905.9	2019.95
933.0302	2017.8342	2906.45	2023.55
933.1676	2019.4126	2905.85	2023.5
933.305	2020.9902	2887.7	2005.25
933.4424	2022.5672	2888.1	2003.45
933.5798	2024.1433	2881.9	1995.9
933.7171	2025.7188	2875	1993.3
933.8544	2027.2935	2856.85	1971.3
933.9917	2028.8674	2850.7	1969.9
934.129	2030.4406	2853.85	1973.5
934.2662	2032.0131	2841.35	1958.3
934.4034	2033.5849	2839.55	1947
934.5406	2035.1559	2832.55	1950.15
934.6778	2036.7261	2836.15	1954.95
934.8149	2038.2957	2814	1930.05
934.952	2039.8645	2821.9	1939.85
935.0891	2041.4325	2820.55	1935.15
935.2262	2042.9998	2803.2	1920.9
935.3632	2044.5664	2815.3	1930.85
935.5002	2046.1323	2797.45	1914.45
935.6372	2047.6974	2797.4	1914.35
935.7742	2049.2617	2788.65	1906.2
935.9111	2050.8254	2798.8	1882.2
936.048	2052.3883	2795.4	1910.25
936.1849	2053.9504	2784.8	1903.2
936.3218	2055.5118	2773.55	1889.15
936.4586	2057.0725	2766.55	1879.75
936.5955	2058.6325	2764.25	1882.55
936.7323	2060.1917	2756.05	1873.1
936.869	2061.7502	2769	1883.7
937.0058	2063.3079	2750.1	1869.05
937.1425	2064.8649	2741	1853.3
937.2792	2066.4212	2748.35	1862.65
937.4159	2067.9767	2723.1	1840.65
937.5525	2069.5315	2716.85	1833.85
937.6891	2071.0856	2707.8	1822.8
937.8257	2072.6389	2710.45	1826.05
937.9623	2074.1915	2701.35	1820.25
938.0989	2075.7433	2692.35	1808.7
938.2354	2077.2945	2686.9	1805.8
938.3719	2078.8448	2679.15	1798.15
938.5084	2080.3945	2681.65	1799.45
938.6448	2081.9434	2679.15	1798
938.7812	2083.4916	2655.2	1771.7
938.9176	2085.039	2656.85	1773.45
939.054	2086.5857	2657.25	1773.15
939.1903	2088.1317	2652.8	1770.65
939.3267	2089.677	2649.5	1766.55
939.463	2091.2215	2646.1	1765
939.5992	2092.7652	2636.3	1753.35
939.7355	2094.3083	2631.05	1749.45
939.8717	2095.8506	2628.65	1747.9
940.0079	2097.3921	2633.4	1751.45
940.1441	2098.933	2616.65	1734.6
940.2802	2100.4731	2623.35	1741.45
940.4163	2102.0124	2623.6	1725.15
940.5524	2103.5511	2610.5	1726.5
940.6885	2105.089	2601.65	1717.45
940.8245	2106.6261	2611.65	1728.75
940.9606	2108.1626	2596.45	1712.9
941.0965	2109.6983	2623.65	1712.7
941.2325	2111.2332	2600.05	1718.15
941.3684	2112.7675	2585.95	1700.9
941.5044	2114.301	2579.65	1695.6
941.6403	2115.8337	2580.7	1698.25
941.7761	2117.3657	2573.7	1689
941.912	2118.897	2579.4	1697.2
942.0478	2120.4276	2573.25	1683.9
942.1835	2121.9575	2558.35	1675.75
942.3193	2123.4866	2575.2	1678
942.455	2125.0149	2554.2	1667.35
942.5907	2126.5426	2541.75	1658.85
942.7264	2128.0695	2556.05	1668.45
942.8621	2129.5956	2531.8	1647.05
942.9977	2131.1211	2531.75	1645.9
943.1333	2132.6458	2529.75	1649.05
943.2689	2134.1698	2530.65	1648.4
943.4044	2135.693	2520.15	1636.5
943.54	2137.2155	2534.75	1648.4
943.6755	2138.7373	2520.45	1635.4
943.8109	2140.2584	2510.3	1625.4
943.9464	2141.7787	2502.65	1614.3
944.0818	2143.2983	2503.4	1619.75
944.2172	2144.8171	2482.4	1602.5
944.3526	2146.3353	2481.45	1593.55
944.4879	2147.8527	2470.5	1588.25
944.6232	2149.3693	2480.4	1596.75
944.7585	2150.8853	2475.05	1591.5
944.8938	2152.4005	2464.7	1581.05
945.029	2153.9149	2449.45	1565.7
945.1642	2155.4287	2459.4	1576.55
945.2994	2156.9417	2460.8	1578.65
945.4346	2158.454	2467.8	1582.85
945.5697	2159.9655	2447.8	1564.6
945.7048	2161.4764	2447.15	1564.15
945.8399	2162.9865	2447.4	1562.85
945.9749	2164.4958	2432.3	1547.1
946.1099	2166.0045	2430.7	1543.9
946.2449	2167.5124	2423.5	1541.65
946.3799	2169.0195	2417.05	1535.1
946.5148	2170.526	2418.9	1534.9
946.6498	2172.0317	2413.6	1529.05
946.7846	2173.5367	2415.65	1534.55
946.9195	2175.0409	2414.3	1531.65
947.0543	2176.5445	2419.2	1539.2
947.1891	2178.0473	2400.1	1518
947.3239	2179.5494	2391.9	1503.95
947.4587	2181.0507	2395.9	1512.75
947.5934	2182.5513	2385.95	1503.9
947.7281	2184.0512	2383.25	1500.55
947.8628	2185.5504	2377.5	1495.4
947.9974	2187.0488	2373.7	1489.85
948.132	2188.5465	2364.3	1480.1
948.2666	2190.0435	2371.3	1487.45
948.4012	2191.5397	2357.9	1475.85
948.5357	2193.0353	2356.95	1472.15
948.6702	2194.5301	2350.3	1466.4
948.8047	2196.0241	2346.15	1463.55
948.9392	2197.5175	2342.25	1459.25
949.0736	2199.0101	2339.15	1453.9
949.208	2200.502	2336.25	1454.25
949.3424	2201.9931	2322.65	1441.55
949.4767	2203.4835	2321.15	1436.55
949.611	2204.9733	2332.95	1444.1
949.7453	2206.4622	2322.25	1438.65
949.8796	2207.9505	2311.7	1425.7
950.0138	2209.438	2298.25	1415.9
950.148	2210.9248	2296.85	1413.15
950.2822	2212.4109	2292.85	1409.75
950.4164	2213.8962	2297.9	1413.4
950.5505	2215.3809	2277.35	1394.85
950.6846	2216.8648	2283.95	1399.85
950.8186	2218.3479	2284.65	1395.75
950.9527	2219.8304	2277.2	1390.55
951.0867	2221.3121	2260.7	1376.85
951.2207	2222.7931	2266.35	1383.65
951.3546	2224.2733	2255.05	1370.35
951.4886	2225.7529	2257.3	1373.7
951.6225	2227.2317	2248.3	1362.15
951.7563	2228.7098	2250.85	1368.5
951.8902	2230.1872	2237.05	1352.55
952.024	2231.6638	2238.65	1353.75
952.1578	2233.1397	2235.4	1349.1
952.2916	2234.6149	2223.7	1340.7
952.4253	2236.0894	2225.5	1341.55
952.559	2237.5632	2230.85	1337.1
952.6927	2239.0362	2215.15	1330.05
952.8263	2240.5085	2205.05	1322.1
952.9599	2241.9801	2203.2	1320.15
953.0935	2243.4509	2207.55	1324.55
953.2271	2244.921	2195.6	1313.15
953.3606	2246.3904	2189.6	1304.35
953.4941	2247.8591	2184.85	1302.9
953.6276	2249.3271	2188.65	1306.35
953.7611	2250.7943	2174.2	1289.1
953.8945	2252.2608	2173.35	1289.3
954.0279	2253.7266	2171.95	1290.55
954.1612	2255.1917	2161.35	1278.8
954.2946	2256.656	2160.65	1276.7
954.4279	2258.1197	2163.45	1279.4
954.5612	2259.5826	2153.8	1270.05
954.6944	2261.0447	2151.75	1266.35
954.8276	2262.5062	2148.6	1264.25
954.9608	2263.9669	2139.55	1255.85
955.094	2265.4269	2129.75	1247.5
955.2271	2266.8862	2139.2	1255.85
955.3602	2268.3448	2135.3	1249.6
955.4933	2269.8026	2127.85	1244.45
955.6264	2271.2598	2124.65	1240.95
955.7594	2272.7162	2135.9	1253.05
955.8924	2274.1719	2126.3	1243.35
956.0253	2275.6268	2118.9	1235.6
956.1583	2277.0811	2120.5	1238.35
956.2912	2278.5346	2110.95	1228.8
956.4241	2279.9874	2115.85	1233.3
956.5569	2281.4395	2106.8	1224.15
956.6897	2282.8908	2106.45	1217.15
956.8225	2284.3414	2103.45	1218.65
956.9553	2285.7914	2106	1222.3
957.088	2287.2406	2094.6	1211.1
957.2207	2288.689	2103.05	1220.9
957.3534	2290.1368	2091.15	1208.2
957.486	2291.5838	2084.7	1201.25
957.6186	2293.0302	2081.75	1196.55
957.7512	2294.4758	2072.9	1189.95
957.8838	2295.9206	2084	1199.9
958.0163	2297.3648	2073.9	1191.2
958.1488	2298.8082	2071.75	1186
958.2813	2300.251	2065.9	1183.55
958.4137	2301.693	2060.85	1175.05
958.5461	2303.1343	2058.25	1175.1
958.6785	2304.5748	2049.2	1167.15
958.8108	2306.0147	2055.1	1172.2
958.9432	2307.4538	2059.6	1175.1
959.0754	2308.8922	2044.65	1163.7
959.2077	2310.3299	2042.85	1158.55
959.3399	2311.7669	2037.55	1153.6
959.4721	2313.2031	2027.55	1143.4
959.6043	2314.6387	2031.3	1148.3
959.7365	2316.0735	2027.05	1143.35
959.8686	2317.5076	2026.15	1143.8
960.0006	2318.941	2015.9	1131.25
960.1327	2320.3737	2018.3	1134.65
960.2647	2321.8056	2025.8	1140.6
960.3967	2323.2369	2010.5	1126.65
960.5287	2324.6674	2014.75	1129.35
960.6606	2326.0972	2018.25	1132.05
960.7925	2327.5263	1999.15	1118
960.9244	2328.9547	1999.55	1113.65
961.0562	2330.3823	1991.95	1107.35
961.1881	2331.8092	1992.35	1107.95
961.3198	2333.2355	1994.2	1109.65
961.4516	2334.661	1995.3	1109.75
961.5833	2336.0858	1995.45	1109
961.715	2337.5098	1981.25	1098.95
961.8467	2338.9332	1979.7	1096.25
961.9783	2340.3558	1975.8	1088.55
962.1099	2341.7778	1976.85	1094.7
962.2415	2343.199	1966.6	1080.3
962.373	2344.6195	1964.3	1082.55
962.5045	2346.0393	1969.75	1088.1
962.636	2347.4583	1961.7	1076.4
962.7675	2348.8767	1964.85	1079.2
962.8989	2350.2943	1962.4	1078.35
963.0303	2351.7113	1963.8	1079.6
963.1617	2353.1275	1955.7	1071.2
963.293	2354.543	1980.35	1072.6
963.4243	2355.9578	1952.75	1070.4
963.5556	2357.3718	1941.3	1059.5
963.6868	2358.7852	1944.5	1057.35
963.818	2360.1978	1940.5	1058.05
963.9492	2361.6098	1934.8	1053.05
964.0803	2363.021	1938.1	1050.05
964.2114	2364.4315	1940	1058.55
964.3425	2365.8413	1923.45	1038.35
964.4736	2367.2504	1926.45	1044.9
964.6046	2368.6587	1912.7	1028.9
964.7356	2370.0664	1913.05	1030.15
964.8666	2371.4733	1914.1	1031.05
964.9975	2372.8795	1904.45	1022.5
965.1284	2374.285	1903.45	1019.7
965.2593	2375.6899	1906.85	1025.35
965.3901	2377.0939	1896.25	1014.15
965.5209	2378.4973	1895.45	1014.2
965.6517	2379.9	1901.3	1018.9
965.7825	2381.3019	1887.5	1003.9
965.9132	2382.7032	1888.35	1005.45
966.0439	2384.1037	1884.9	1003.55
966.1745	2385.5035	1894.4	1012.6
966.3051	2386.9027	1883.85	1001.55
966.4357	2388.3011	1873.95	987.85
966.5663	2389.6987	1878.3	995.25
966.6968	2391.0957	1866.65	983
966.8273	2392.492	1861.05	979.8
966.9578	2393.8876	1852.4	970.2
967.0882	2395.2824	1848.35	964.8
967.2186	2396.6765	1846.75	965.75
967.349	2398.07	1844.8	960.7
967.4793	2399.4627	1846.65	965.1
967.6097	2400.8547	1840.25	956.75
967.7399	2402.246	1845.2	958.6
967.8702	2403.6366	1835.95	954.5
968.0004	2405.0265	1828.15	946.05
968.1306	2406.4156	1826.2	939.4
968.2607	2407.8041	1826.5	940.25
968.3909	2409.1918	1830.4	945.05
968.521	2410.5789	1823.15	940.5
968.651	2411.9652	1821.3	936
968.781	2413.3508	1818.65	935.4
968.911	2414.7358	1811.45	927.1
969.041	2416.12	1809.6	928.6
969.1709	2417.5035	1807.35	927.5
969.3008	2418.8863	1791.8	906.95
969.4307	2420.2684	1808.9	926.65
969.5606	2421.6497	1802.3	919.05
969.6904	2423.0304	1796.9	914.75
969.8201	2424.4104	1799.85	917.3
969.9499	2425.7896	1799.95	913.55
970.0796	2427.1682	1790.6	907
970.2093	2428.546	1786.65	902.05
970.3389	2429.9232	1785.25	900.4
970.4685	2431.2996	1780.45	898.5
970.5981	2432.6753	1784.9	903.2
970.7277	2434.0503	1787	904.05
970.8572	2435.4246	1776.6	894.5
970.9867	2436.7982	1768.95	884.2
971.1161	2438.1711	1775.6	895.35
971.2456	2439.5433	1759.9	877.6
971.375	2440.9148	1766.1	875.6
971.5043	2442.2856	1758.9	877.5
971.6336	2443.6557	1752.8	867.2
971.7629	2445.025	1754.3	870.7
971.8922	2446.3937	1748.25	865.6
972.0214	2447.7617	1743.3	859.35
972.1506	2449.1289	1745.9	865.35
972.2798	2450.4955	1752.15	865
972.4089	2451.8613	1743.75	862.1
972.538	2453.2265	1733.55	851.2
972.6671	2454.5909	1742.4	859.85
972.7961	2455.9546	1734.75	852.5
972.9251	2457.3177	1725.2	844.05
973.0541	2458.68	1730.35	846.1
973.1831	2460.0416	1729.95	846.7
973.312	2461.4025	1720.55	837.5
973.4408	2462.7627	1743.05	848.3
973.5697	2464.1222	1724.95	841.85
973.6985	2465.4811	1721.5	838.5
973.8273	2466.8392	1723.6	841.4
973.956	2468.1966	1721.4	835.7
974.0847	2469.5533	1730.55	844.75
974.2134	2470.9093	1718.7	834.7
974.3421	2472.2645	1719.35	831.7
974.4707	2473.6191	1716.4	834.6
974.5993	2474.973	1710.5	827.85
974.7278	2476.3262	1702.85	815.45
974.8563	2477.6787	1708	825
974.9848	2479.0305	1708.2	825.4
975.1132	2480.3816	1709.6	825.65
975.2417	2481.7319	1704.4	823.2
975.37	2483.0816	1690.8	804.35
975.4984	2484.4306	1692.15	809.85
975.6267	2485.7789	1688.5	804.7
975.755	2487.1264	1684.75	802.05
975.8833	2488.4733	1691.85	808.95
976.0115	2489.8195	1698.7	797.05
976.1397	2491.165	1684.2	798.5
976.2678	2492.5097	1666.05	780.85
976.3959	2493.8538	1669.75	788.5
976.524	2495.1972	1667	782.75
976.6521	2496.5398	1663.05	778.1
976.7801	2497.8818	1664.15	780.1
976.9081	2499.2231	1658.2	775.5
977.036	2500.5637	1662.25	778.2
977.164	2501.9035	1662.8	779.05
977.2918	2503.2427	1660.9	773.85
977.4197	2504.5812	1655	773.1
977.5475	2505.919	1656.15	768.5
977.6753	2507.256	1651.05	769.7
977.8031	2508.5924	1651.05	767.5
977.9308	2509.9281	1653.05	766.05
978.0585	2511.2631	1650	767.85
978.1861	2512.5974	1640.05	755.7
978.3137	2513.9309	1641.75	758.4
978.4413	2515.2638	1660.25	750.95
978.5689	2516.596	1636.45	754.1
978.6964	2517.9275	1633.3	749.25
978.8239	2519.2583	1625	740.45
978.9513	2520.5884	1625.35	741.05
979.0788	2521.9178	1625.5	739.95
979.2062	2523.2465	1625.3	743.4
979.3335	2524.5745	1625.1	743.9
979.4608	2525.9018	1621.3	737.35
979.5881	2527.2284	1618.6	739
979.7154	2528.5543	1611.8	730.35
979.8426	2529.8796	1622.1	739.25
979.9698	2531.2041	1623.8	741.3
980.0969	2532.5279	1617.3	735.15
980.224	2533.851	1615.6	732.35
980.3511	2535.1735	1609.7	727
980.4781	2536.4952	1610.9	727.75
980.6052	2537.8163	1609.95	728.75
980.7321	2539.1366	1614.7	730.9
980.8591	2540.4562	1604.8	719.85
980.986	2541.7752	1605.6	723.15
981.1129	2543.0935	1601.9	718.7
981.2397	2544.411	1608.05	724.9
981.3665	2545.7279	1605.35	722
981.4933	2547.0441	1604.8	720.75
981.62	2548.3596	1606.25	719.7
981.7467	2549.6744	1598.25	715.65
981.8734	2550.9885	1595.45	710.9
982.0001	2552.3019	1589.65	708.5
982.1267	2553.6146	1586.65	703.55
982.2532	2554.9266	1590.05	707.6
982.3798	2556.2379	1587.1	701.9
982.5063	2557.5485	1584.95	704.45
982.6327	2558.8585	1599.65	709.55
982.7592	2560.1677	1581.15	694.75
982.8856	2561.4762	1580.4	696.85
983.0119	2562.7841	1582.65	695.6
983.1383	2564.0913	1580.1	700.6
983.2646	2565.3977	1570.5	687.95
983.3908	2566.7035	1573.05	689.15
983.517	2568.0086	1582.35	698.5
983.6432	2569.313	1573	688.4
983.7694	2570.6167	1567.85	682.1
983.8955	2571.9197	1570.8	688.1
984.0216	2573.222	1568.9	681.45
984.1476	2574.5236	1564.65	681.15
984.2737	2575.8246	1574.95	689.35
984.3996	2577.1248	1577.9	691.6
984.5256	2578.4244	1566.65	683.3
984.6515	2579.7232	1576.1	692.65
984.7774	2581.0214	1592	677.4
984.9032	2582.3189	1564.1	681.4
985.029	2583.6157	1565.15	679.1
985.1548	2584.9118	1567.7	685
985.2806	2586.2072	1571.5	688.15
985.4063	2587.5019	1571.45	687.85
985.5319	2588.7959	1563.75	678.4
985.6576	2590.0893	1569.65	685.4
985.7832	2591.3819	1571.55	688.7
985.9087	2592.6739	1565.8	683.6
986.0343	2593.9652	1565.1	682.35
986.1597	2595.2557	1567.3	685.35
986.2852	2596.5456	1560.25	673.7
986.4106	2597.8348	1563.7	681.9
986.536	2599.1234	1564.95	681.5
986.6614	2600.4112	1561.2	677.6
986.7867	2601.6983	1573	686.55
986.912	2602.9848	1564.85	681.3
987.0372	2604.2705	1578.1	689.2
987.1624	2605.5556	1562.95	680.25
987.2876	2606.84	1559.8	676.45
987.4128	2608.1237	1557.45	673
987.5379	2609.4067	1554.5	671.05
987.6629	2610.689	1557.1	664.2
987.788	2611.9707	1557.5	670.3
987.913	2613.2516	1550.05	663.85
988.0379	2614.5319	1547.6	661.2
988.1629	2615.8115	1547.25	661.5
988.2878	2617.0903	1545.85	660.6
988.4126	2618.3685	1535.65	651.45
988.5375	2619.6461	1531.85	650.6
988.6622	2620.9229	1535.85	654.25
988.787	2622.199	1541.05	656.1
988.9117	2623.4745	1537.6	655.7
989.0364	2624.7493	1531.4	650.1
989.161	2626.0234	1536.55	654.9
989.2857	2627.2968	1530.35	645.9
989.4102	2628.5695	1533.25	647.2
989.5348	2629.8415	1531.2	650.7
989.6593	2631.1128	1533.85	646.35
989.7837	2632.3835	1530.05	646.95
989.9082	2633.6535	1522.75	640.55
990.0326	2634.9228	1522.65	640.25
990.1569	2636.1914	1526.2	645.3
990.2812	2637.4593	1523.5	639.5
990.4055	2638.7265	1524.3	642.45
990.5298	2639.9931	1524.15	640.95
990.654	2641.259	1521.4	636.2
990.7782	2642.5242	1516.3	634.35
990.9023	2643.7887	1514.95	631.15
991.0264	2645.0525	1511.85	629.75
991.1505	2646.3156	1504.6	620.8
991.2745	2647.5781	1500.9	618.65
991.3985	2648.8398	1497	615.8
991.5225	2650.1009	1537	617
991.6464	2651.3613	1506.45	622.75
991.7703	2652.6211	1500.7	616.9
991.8942	2653.8801	1497.05	614.65
992.018	2655.1385	1508.6	623.3
992.1418	2656.3961	1491.4	606.95
992.2655	2657.6531	1502	618.1
992.3892	2658.9094	1498.4	615.7
992.5129	2660.1651	1501	617.8
992.6366	2661.42	1500.25	617.75
992.7602	2662.6743	1499.5	615.4
992.8837	2663.9279	1507.15	625
993.0073	2665.1808	1510.35	626.7
993.1307	2666.433	1502.15	616.5
993.2542	2667.6846	1503.75	622.15
993.3776	2668.9354	1511.65	627.9
993.501	2670.1856	1517.55	633.9
993.6244	2671.4351	1510.35	628.35
993.7477	2672.6839	1515.55	629.65
993.8709	2673.9321	1514.3	633.55
993.9942	2675.1795	1520.6	636.55
994.1174	2676.4263	1516.15	633.15
994.2405	2677.6724	1521.1	640.1
994.3637	2678.9179	1516.65	630.15
994.4868	2680.1626	1515.65	634.3
994.6098	2681.4067	1511.05	628
994.7328	2682.6501	1517.7	633.25
994.8558	2683.8928	1514.15	631.7
994.9788	2685.1348	1512.5	629.15
995.1017	2686.3761	1503.5	621.5
995.2245	2687.6168	1499.25	616.95
995.3474	2688.8568	1493.95	608.9
995.4702	2690.0961	1488.5	606.25
995.5929	2691.3348	1495.75	611.25
995.7156	2692.5727	1502.15	620.05
995.8383	2693.81	1488.35	606.4
995.961	2695.0466	1482.6	602.4
996.0836	2696.2826	1479.5	593.95
996.2062	2697.5178	1504.65	601.15
996.3287	2698.7524	1489.6	607.6
996.4512	2699.9863	1494.85	608.9
996.5737	2701.2195	1485.55	604.6
996.6961	2702.452	1495.6	611.3
996.8185	2703.6839	1490.45	605.6
996.9408	2704.9151	1495.6	613.45
997.0631	2706.1456	1505.85	625.15
997.1854	2707.3755	1509.35	623.85
997.3077	2708.6046	1524.15	638.4
997.4299	2709.8331	1527.4	644.5
997.552	2711.0609	1535.15	652.55
997.6742	2712.2881	1526.9	642.55
997.7963	2713.5145	1550.05	664.2
997.9183	2714.7403	1554.2	672.65
998.0403	2715.9654	1555.2	671.05
998.1623	2717.1899	1587.7	689.35
998.2842	2718.4136	1584.1	702.3
998.4062	2719.6367	1604.25	721.45
998.528	2720.8591	1612.7	722.3
998.6498	2722.0809	1611.45	727.6
998.7716	2723.3019	1627.3	741.1
998.8934	2724.5223	1637.7	753.25
999.0151	2725.7421	1641.95	756.6
999.1368	2726.9611	1648.5	764.55
999.2584	2728.1795	1644.35	755.15
999.38	2729.3972	1626.85	745.75
999.5016	2730.6142	1635.55	741.6
999.6231	2731.8306	1611.85	728.2
999.7446	2733.0462	1596.3	712.95
999.8661	2734.2612	1583.1	695.05
999.9875	2735.4756	1559.9	675.5
1000.1089	2736.6892	1548.6	665.7
1000.2302	2737.9022	1530.3	649.75
1000.3515	2739.1145	1523.4	639.8
1000.4728	2740.3262	1514	622.25
1000.594	2741.5372	1489.65	605.5
1000.7152	2742.7475	1478.2	596.3
1000.8363	2743.9571	1473.75	590.05
1000.9575	2745.1661	1468.35	581.35
1001.0785	2746.3744	1452.35	567.95
1001.1996	2747.582	1448.3	565.4
1001.3206	2748.7889	1434.35	550.55
1001.4415	2749.9952	1430.85	546.55
1001.5625	2751.2008	1432.2	549.4
1001.6833	2752.4057	1428.7	541.55
1001.8042	2753.61	1422.55	536.45
1001.925	2754.8136	1420.4	535.85
1002.0458	2756.0165	1414.8	532.75
1002.1665	2757.2188	1415.75	535.65
1002.2872	2758.4204	1415.05	532.35
1002.4078	2759.6213	1418.55	533.2
1002.5285	2760.8215	1422.95	532.75
1002.649	2762.0211	1418.3	533.6
1002.7696	2763.22	1415.05	529.2
1002.8901	2764.4182	1402	517.8
1003.0106	2765.6158	1405.75	519.4
1003.131	2766.8127	1405.8	523.75
1003.2514	2768.009	1402.3	519.25
1003.3717	2769.2045	1393.65	510.7
1003.492	2770.3994	1397.5	513.6
1003.6123	2771.5936	1397.8	511.75
1003.7325	2772.7872	1394.05	513.65
1003.8527	2773.9801	1386.75	501.1
1003.9729	2775.1723	1400.85	500.2
1004.093	2776.3639	1380.05	498.25
1004.2131	2777.5548	1382.1	496.85
1004.3331	2778.745	1387.4	503.55
1004.4531	2779.9346	1385.05	503.55
1004.5731	2781.1235	1391.2	507.8
1004.693	2782.3117	1382.5	497.8
1004.8129	2783.4992	1396.7	513.8
1004.9328	2784.6861	1391.4	509.75
1005.0526	2785.8723	1405.8	521.1
1005.1723	2787.0579	1405.7	521.85
1005.2921	2788.2428	1410.6	531.2
1005.4118	2789.427	1415.65	531.45
1005.5314	2790.6106	1422.4	539.05
1005.651	2791.7935	1426.5	542.65
1005.7706	2792.9757	1441.85	559.4
1005.8902	2794.1573	1450.7	565.4
1006.0097	2795.3382	1456.1	571.5
1006.1291	2796.5184	1471.4	589.3
1006.2485	2797.698	1484.2	600.3
1006.3679	2798.8769	1492.15	609.75
1006.4873	2800.0551	1515.85	632.9
1006.6066	2801.2327	1528.75	642.75
1006.7258	2802.4096	1533.35	651.95
1006.8451	2803.5859	1556.05	674.15
1006.9642	2804.7615	1568.65	683.45
1007.0834	2805.9364	1587.65	707.4
1007.2025	2807.1106	1619.35	735.05
1007.3216	2808.2842	1645.65	763.55
1007.4406	2809.4572	1673.4	789.45
1007.5596	2810.6294	1706.6	822.75
1007.6785	2811.801	1739.65	859.65
1007.7975	2812.972	1789.85	906.4
1007.9163	2814.1423	1828.25	945.1
1008.0352	2815.3119	1863.4	981.85
1008.154	2816.4808	1912.75	1031.1
1008.2727	2817.6491	1955.2	1069.35
1008.3914	2818.8167	2021.5	1139.55
1008.5101	2819.9837	2060.75	1171.5
1008.6288	2821.15	2125.95	1241.2
1008.7474	2822.3157	2163.85	1282.4
1008.8659	2823.4807	2234.5	1352.9
1008.9844	2824.645	2285.1	1400.9
1009.1029	2825.8086	2331.3	1447.9
1009.2214	2826.9716	2394.15	1511.7
1009.3398	2828.134	2435.5	1552.25
1009.4581	2829.2957	2477.9	1594.8
1009.5764	2830.4567	2513.45	1631.25
1009.6947	2831.617	2541.15	1656.3
1009.813	2832.7767	2558.55	1678.45
1009.9312	2833.9358	2561.2	1679.4
1010.0493	2835.0941	2549.45	1665.3
1010.1675	2836.2519	2528.85	1645.15
1010.2855	2837.4089	2507.55	1622.75
1010.4036	2838.5653	2508.15	1624.35
1010.5216	2839.7211	2493.35	1611.9
1010.6396	2840.8761	2495	1610.3
1010.7575	2842.0306	2500.65	1619.25
1010.8754	2843.1843	2530.45	1646.6
1010.9932	2844.3374	2550.9	1668.75
1011.111	2845.4899	2596.95	1710.65
1011.2288	2846.6417	2669.45	1786.55
1011.3465	2847.7928	2715.75	1833.3
1011.4642	2848.9433	2797	1913.15
1011.5818	2850.0931	2869.85	1986.35
1011.6995	2851.2422	2939.35	2053.55
1011.817	2852.3907	3010.1	2125.75
1011.9345	2853.5385	3060.85	2177.2
1012.052	2854.6857	3122.95	2214.05
1012.1695	2855.8323	3151.1	2270.1
1012.2869	2856.9781	3207.7	2322.55
1012.4042	2858.1233	3257.85	2374.6
1012.5216	2859.2679	3317.4	2435.5
1012.6389	2860.4118	3361.3	2478.6
1012.7561	2861.555	3415.3	2527.55
1012.8733	2862.6976	3451.5	2566.7
1012.9905	2863.8395	3488.75	2607.05
1013.1076	2864.9808	3514.15	2633.1
1013.2247	2866.1214	3539	2656.45
1013.3417	2867.2614	3561.3	2680.15
1013.4587	2868.4007	3559.15	2676.9
1013.5757	2869.5393	3582	2697.65
1013.6926	2870.6773	3595.75	2711.1
1013.8095	2871.8146	3606.8	2720.75
1013.9263	2872.9513	3607.95	2723.85
1014.0431	2874.0874	3607.4	2723.1
1014.1599	2875.2227	3594.5	2710.85
1014.2766	2876.3574	3577.95	2695.65
1014.3933	2877.4915	3561	2679.45
1014.51	2878.6249	3528.95	2645.25
1014.6266	2879.7577	3516.45	2633.35
1014.7431	2880.8898	3483.4	2589.2
1014.8596	2882.0212	3462	2579.35
1014.9761	2883.152	3456.45	2571.55
1015.0925	2884.2821	3446.5	2564.15
1015.2089	2885.4116	3435.2	2554.15
1015.3253	2886.5405	3428.95	2545.4
1015.4416	2887.6686	3456.9	2570.05
1015.5579	2888.7962	3432.95	2550.4
1015.6741	2889.923	3449	2566.65
1015.7903	2891.0493	3474.3	2592.65
1015.9065	2892.1748	3462.75	2580.3
1016.0226	2893.2997	3475.8	2591.35
1016.1387	2894.424	3501.15	2618.25
1016.2547	2895.5476	3509.4	2627.25
1016.3707	2896.6706	3538.4	2656.5
1016.4866	2897.7929	3552.55	2667.85
1016.6025	2898.9145	3578.7	2696.9
1016.7184	2900.0355	3606.6	2724
1016.8342	2901.1559	3637.65	2752.6
1016.95	2902.2756	3689.05	2807.7
1017.0658	2903.3946	3698.9	2814.2
1017.1815	2904.513	3735.55	2851.25
1017.2971	2905.6308	3753.4	2870.8
1017.4127	2906.7479	3794.65	2912.65
1017.5283	2907.8643	3811.35	2926.05
1017.6439	2908.9801	3819.3	2936.2
1017.7594	2910.0953	3834.9	2952.85
1017.8748	2911.2098	3832.15	2947
1017.9902	2912.3236	3841.3	2949.6
1018.1056	2913.4368	3827.35	2941.6
1018.2209	2914.5494	3794.9	2911.75
1018.3362	2915.6613	3773.55	2885.45
1018.4515	2916.7725	3745.8	2859.8
1018.5667	2917.8831	3700.05	2814.7
1018.6819	2918.9931	3680	2794.7
1018.797	2920.1024	3647.3	2762.65
1018.9121	2921.211	3638.7	2754.6
1019.0271	2922.319	3594.75	2711.6
1019.1421	2923.4264	3587.1	2704.2
1019.2571	2924.5331	3581.6	2699.75
1019.372	2925.6391	3572.75	2689.9
1019.4869	2926.7445	3561.7	2681.6
1019.6017	2927.8493	3572.25	2691.45
1019.7165	2928.9534	3574.75	2690.5
1019.8313	2930.0569	3586.4	2699.6
1019.946	2931.1597	3565.7	2681.65
1020.0606	2932.2619	3574.4	2692.9
1020.1753	2933.3634	3573.9	2691.15
1020.2899	2934.4643	3582.95	2693.65
1020.4044	2935.5645	3562.3	2671.35
1020.5189	2936.6641	3542.65	2655.15
1020.6334	2937.763	3506.25	2624.35
1020.7478	2938.8613	3466.25	2583.45
1020.8622	2939.959	3417.95	2530.45
1020.9765	2941.056	3354.5	2470.8
1021.0908	2942.1523	3274.1	2390.8
1021.2051	2943.248	3200.65	2314.9
1021.3193	2944.3431	3110.85	2228.7
1021.4334	2945.4375	3014.2	2129.65
1021.5476	2946.5313	2920.05	2041.45
1021.6617	2947.6244	2802.7	1920.85
1021.7757	2948.7169	2704.75	1821.95
1021.8897	2949.8087	2604.75	1723.65
1022.0037	2950.8999	2510	1627.05
1022.1176	2951.9904	2448.25	1566.25
1022.2315	2953.0803	2366.5	1481.4
1022.3453	2954.1696	2303.3	1421.35
1022.4591	2955.2582	2250.7	1368.6
1022.5728	2956.3462	2203.7	1322.3
1022.6865	2957.4335	2166.05	1281.9
1022.8002	2958.5202	2129.9	1245.55
1022.9138	2959.6062	2099.25	1215.45
1023.0274	2960.6916	2069.25	1185.85
1023.141	2961.7764	2054.5	1169.9
1023.2545	2962.8605	2039.6	1156.9
1023.3679	2963.9439	2019	1137.7
1023.4813	2965.0267	2012.2	1127.3
1023.5947	2966.1089	2027.35	1123
1023.708	2967.1905	1999.65	1118.55
1023.8213	2968.2714	2003.05	1121.3
1023.9346	2969.3516	2000.7	1119
1024.0478	2970.4312	2014.85	1120.7
1024.1609	2971.5102	1996.85	1114.55
1024.274	2972.5885	2002	1120.45
1024.3871	2973.6662	2014.9	1127.8
1024.5002	2974.7432	2003.25	1123.1
1024.6132	2975.8196	2008.45	1121.9
1024.7261	2976.8954	1993.2	1112.2
1024.839	2977.9705	1989.5	1107.25
1024.9519	2979.045	1967.4	1086.25
1025.0647	2980.1188	1958.65	1078.95
1025.1775	2981.192	1943.45	1060.3
1025.2902	2982.2645	1930.85	1046.75
1025.4029	2983.3364	1897.3	1014.05
1025.5156	2984.4077	1870.15	987.65
1025.6282	2985.4783	1843.7	956.5
1025.7407	2986.5483	1810.95	928.3
1025.8532	2987.6177	1782.85	901.3
1025.9657	2988.6864	1743.4	859.7
1026.0782	2989.7545	1711.8	828.45
1026.1906	2990.8219	1673.1	791.45
1026.3029	2991.8887	1651.1	766.2
1026.4152	2992.9548	1616.6	732.45
1026.5275	2994.0204	1583.4	702.25
1026.6397	2995.0852	1555.8	674.7
1026.7519	2996.1495	1536.45	650.45
1026.864	2997.2131	1505.5	622.6
1026.9761	2998.276	1474.4	591.5
1027.0882	2999.3383	1459.8	575.65
1027.2002	3000.4	1436.35	552.25
1027.3122	3001.4611	1423.85	541.45
1027.4241	3002.5215	1403.95	520.2
1027.536	3003.5812	1388.7	507.4
1027.6478	3004.6404	1383.45	500.5
1027.7596	3005.6989	1371.4	486
1027.8714	3006.7567	1355.15	474.4
1027.9831	3007.8139	1380.9	469.1
1028.0947	3008.8705	1339.95	456.05
1028.2064	3009.9264	1346.8	447.4
1028.3179	3010.9818	1329.05	445.5
1028.4295	3012.0364	1315.9	431.85
1028.541	3013.0905	1314.3	430.05
1028.6524	3014.1439	1303.2	419.95
1028.7638	3015.1966	1304.5	422.8
1028.8752	3016.2487	1299.35	414.95
1028.9865	3017.3002	1304.25	414.9
1029.0978	3018.3511	1289.5	407.05
1029.209	3019.4013	1290.4	410.05
1029.3202	3020.4509	1291.2	409.65
1029.4314	3021.4998	1287.1	404.95
1029.5425	3022.5481	1296.1	413.6
1029.6535	3023.5958	1288.45	408.35
1029.7645	3024.6428	1287.6	403
1029.8755	3025.6892	1290.65	409.65
1029.9864	3026.735	1292.3	409.65
1030.0973	3027.7802	1286.8	403.55
1030.2082	3028.8247	1292.2	408.75
1030.319	3029.8685	1296.45	413.25
1030.4297	3030.9118	1297.4	414.6
1030.5404	3031.9544	1299.7	418.45
1030.6511	3032.9963	1299.4	415.5
1030.7617	3034.0376	1299.15	417.35
1030.8723	3035.0783	1306.15	419.7
1030.9829	3036.1184	1302.25	419.75
1031.0934	3037.1578	1311.15	430.65
1031.2038	3038.1966	1314.5	430.05
1031.3142	3039.2348	1313.7	433.45
1031.4246	3040.2723	1327.7	435.7
1031.5349	3041.3092	1320.5	439.9
1031.6452	3042.3455	1315.95	434.7
1031.7554	3043.3811	1307.75	426.25
1031.8656	3044.4161	1311.5	428.55
1031.9758	3045.4505	1307.45	426.2
1032.0859	3046.4842	1306.65	423.05
1032.1959	3047.5173	1299.95	418.6
1032.3059	3048.5498	1296.95	412.1
1032.4159	3049.5816	1295.45	411.15
1032.5258	3050.6128	1286.3	401.35
1032.6357	3051.6434	1287.85	404
1032.7455	3052.6734	1281.4	397
1032.8553	3053.7027	1277.25	395.25
1032.9651	3054.7314	1275	395.7
1033.0748	3055.7594	1267.55	384.3
1033.1845	3056.7868	1267	384.95
1033.2941	3057.8136	1259.05	375.1
1033.4037	3058.8398	1262.15	380.85
1033.5132	3059.8653	1252.85	369.2
1033.6227	3060.8902	1252.45	369.5
1033.7321	3061.9145	1248.55	366.55
1033.8415	3062.9381	1245.15	361.1
1033.9509	3063.9612	1259.15	361.05
1034.0602	3064.9835	1240.15	358
1034.1694	3066.0053	1235.15	350.65
1034.2787	3067.0264	1229.7	347.45
1034.3878	3068.0469	1230.9	346.45
1034.497	3069.0668	1221.4	337.1
1034.6061	3070.086	1213.85	334.2
1034.7151	3071.1046	1205.4	321.9
1034.8241	3072.1226	1202.2	317.75
1034.9331	3073.1399	1198.1	315.7
1035.042	3074.1567	1185.7	303.5
1035.1508	3075.1727	1182.45	299
1035.2597	3076.1882	1170.85	291.45
1035.3684	3077.203	1166.15	281.45
1035.4772	3078.2173	1159	273.9
1035.5859	3079.2308	1150.05	263.3
1035.6945	3080.2438	1144.7	261.1
1035.8031	3081.2561	1130.05	247.55
1035.9117	3082.2678	1125.4	243.35
1036.0202	3083.2789	1122	240.15
1036.1286	3084.2893	1114.5	232.3
1036.2371	3085.2991	1111.75	229.6
1036.3454	3086.3083	1108.8	221.7
1036.4538	3087.3169	1102.1	218.1
1036.562	3088.3248	1098.7	214.55
1036.6703	3089.3321	1097.55	212.55
1036.7785	3090.3388	1086.7	205.5
1036.8866	3091.3449	1085.15	201.45
1036.9948	3092.3503	1081.9	195.65
1037.1028	3093.3551	1078	196.5
1037.2108	3094.3593	1073.6	192.5
1037.3188	3095.3629	1070.1	188.7
1037.4267	3096.3658	1070.55	186.8
1037.5346	3097.3681	1066.85	185.45
1037.6425	3098.3698	1064.2	180.15
1037.7503	3099.3708	1067.6	180.6
1037.858	3100.3713	1059.9	176.6
1037.9657	3101.3711	1057.55	175.05
1038.0734	3102.3702	1197.25	175.45
1038.181	3103.3688	1047.65	162.3
1038.2886	3104.3667	1051.4	166.7
1038.3961	3105.364	1053.15	170
1038.5036	3106.3607	1041.35	157.25
1038.611	3107.3568	1044.45	158.95
1038.7184	3108.3522	1038.05	156.75
1038.8257	3109.347	1039.65	155.1
1038.933	3110.3412	1046.05	158.55
1039.0403	3111.3348	1032.8	152.15
1039.1475	3112.3277	1034	152.55
1039.2547	3113.32	1033.3	151.95
1039.3618	3114.3117	1033.35	149.2
1039.4689	3115.3028	1029.55	147.15
1039.5759	3116.2932	1026.9	142.3
1039.6829	3117.2831	1034.55	145.75
1039.7898	3118.2723	1024.5	142.35
1039.8967	3119.2608	1022.35	141.15
1040.0035	3120.2488	1023.45	139.15
1040.1103	3121.2361	1019.8	137.75
1040.2171	3122.2229	1018.1	134.15
1040.3238	3123.209	1020.1	137.5
1040.4305	3124.1944	1016.15	134.15
1040.5371	3125.1793	1016.15	131.9
1040.6437	3126.1635	1015.6	133.6
1040.7502	3127.1471	1014.95	133.7
1040.8567	3128.1301	1008.75	127.4
1040.9631	3129.1125	1007.5	123.9
1041.0695	3130.0942	1012.2	129.35
1041.1759	3131.0753	1017.85	126.8
1041.2822	3132.0558	1009.75	123.75
1041.3884	3133.0357	1007.9	125
1041.4946	3134.015	1003.1	118.25
1041.6008	3134.9936	1004.5	120.9
1041.7069	3135.9716	1024.85	122.3
1041.813	3136.949	998.95	117.2
1041.919	3137.9258	1019.35	119.3
1042.025	3138.902	1005.85	119.8
1042.1309	3139.8775	998.45	115.75
1042.2368	3140.8524	997	115.95
1042.3427	3141.8267	998.2	114.05
1042.4485	3142.8004	997.15	113.25
1042.5542	3143.7735	1001.3	113.6
1042.6599	3144.7459	998	112.25
1042.7656	3145.7178	991.95	109.7
1042.8712	3146.689	991.5	109.45
1042.9768	3147.6596	996.15	112.4
1043.0823	3148.6295	990.95	107.4
1043.1878	3149.5989	988.5	105
1043.2932	3150.5676	986.5	106.65
1043.3986	3151.5357	986.8	104.4
1043.5039	3152.5032	990.3	107.8
1043.6092	3153.4701	986.3	105.25
1043.7145	3154.4364	986.3	101.8
1043.8197	3155.402	985.8	106.1
1043.9248	3156.367	988	102.6
1044.03	3157.3315	1015.85	105.55
1044.135	3158.2952	977.15	95.6
1044.24	3159.2584	979.7	99.35
1044.345	3160.221	981.6	97.7
1044.4499	3161.1829	979.75	97.85
1044.5548	3162.1442	981.15	100.45
1044.6596	3163.105	978.65	95.1
1044.7644	3164.065	975.1	93.55
1044.8692	3165.0245	982	96.45
1044.9739	3165.9834	972.7	91.95
1045.0785	3166.9416	974.25	92.6
1045.1831	3167.8993	974.9	91.55
1045.2877	3168.8563	978.55	94.65
1045.3922	3169.8127	974.1	92.9
1045.4966	3170.7684	971.7	89.1
1045.6011	3171.7236	976.25	92.6
1045.7054	3172.6782	971.2	89.95
1045.8098	3173.6321	972.35	89.65
1045.914	3174.5854	975.55	88.55
1046.0183	3175.5381	972.7	90.95
1046.1224	3176.4902	969.5	86.65
1046.2266	3177.4417	966.5	83.55
1046.3307	3178.3926	967.15	85.75
1046.4347	3179.3428	968	87.35
1046.5387	3180.2924	966.55	85.35
1046.6427	3181.2415	969.4	86.45
1046.7466	3182.1899	968.1	84.35
1046.8504	3183.1377	964.9	83.75
1046.9542	3184.0848	970.1	84.3
1047.058	3185.0314	965.4	82.65
1047.1617	3185.9773	964.35	80.75
1047.2654	3186.9227	965.3	82.95
1047.369	3187.8674	964.4	80.75
1047.4726	3188.8115	964.2	78
1047.5761	3189.755	967.15	84.2
1047.6796	3190.6979	961.45	77.65
1047.783	3191.6402	958.8	77.55
1047.8864	3192.5818	960.05	76.35
1047.9898	3193.5229	984.35	80.55
1048.0931	3194.4633	960.8	79.95
1048.1963	3195.4031	959.85	78.75
1048.2995	3196.3423	960.85	80.7
1048.4027	3197.2809	958.55	76.35
1048.5058	3198.2189	959.05	77.9
1048.6089	3199.1563	974.3	73.9
1048.7119	3200.0931	958.1	75.9
1048.8148	3201.0292	955.2	74.35
1048.9178	3201.9648	955.6	74.15
1049.0206	3202.8997	960.05	73.2
1049.1235	3203.834	956.6	76.2
1049.2262	3204.7677	956.9	74.15
1049.329	3205.7008	956.05	72.65
1049.4317	3206.6333	954.15	73.4
1049.5343	3207.5652	956.85	71.7
1049.6369	3208.4964	955.8	75.5
1049.7394	3209.4271	953.9	71.5
1049.8419	3210.3571	950.05	67.05
1049.9444	3211.2865	952.9	68.2
1050.0468	3212.2154	953.25	69.6
1050.1491	3213.1436	953.7	68
1050.2514	3214.0712	959.8	71.9
1050.3537	3214.9982	949.6	67.35
1050.4559	3215.9246	950.4	67.95
1050.5581	3216.8503	948.3	65.85
1050.6602	3217.7755	950.4	69.55
1050.7623	3218.7001	952.85	71.1
1050.8643	3219.624	951.8	69.8
1050.9663	3220.5473	948.55	67.2
1051.0682	3221.4701	947.9	66.1
1051.1701	3222.3922	948.1	64.2
1051.2719	3223.3137	946.25	62.9
1051.3737	3224.2346	944.7	62.15
1051.4754	3225.1549	948.25	66.2
1051.5771	3226.0746	948.15	64.95
1051.6788	3226.9937	948.25	67.05
1051.7804	3227.9121	944.1	60.95
1051.8819	3228.83	944.65	61.9
1051.9834	3229.7473	945.6	64.65
1052.0849	3230.6639	946.5	65.25
1052.1863	3231.5799	944.9	65.35
1052.2876	3232.4954	942	58.1
1052.3889	3233.4102	943.45	63.55
1052.4902	3234.3244	944.5	62.4
1052.5914	3235.238	941.5	59.95
1052.6926	3236.151	966.5	59.5
1052.7937	3237.0634	943.45	63.15
1052.8948	3237.9752	944.05	61.6
1052.9958	3238.8864	942.95	62.1
1053.0968	3239.797	936.65	54.5
1053.1977	3240.7069	941.65	58.55
1053.2986	3241.6163	942.6	58.8
1053.3994	3242.5251	938.8	58.3
1053.5002	3243.4332	936.35	56.25
1053.6009	3244.3408	939.8	58.2
1053.7016	3245.2477	938.1	54.5
1053.8022	3246.154	941.35	59.2
1053.9028	3247.0598	937.45	54.85
1054.0034	3247.9649	935.2	53.7
1054.1039	3248.8694	937.7	54.5
1054.2043	3249.7733	937.7	55.55
1054.3047	3250.6766	935.45	52.3
1054.4051	3251.5793	936.9	54.35
1054.5054	3252.4814	931.15	50.35
1054.6056	3253.3829	933.3	52.2
1054.7058	3254.2838	933.55	51.65
1054.806	3255.1841	934	51.7
1054.9061	3256.0838	932.7	48.8
1055.0061	3256.9829	932.6	51.75
1055.1062	3257.8814	935.1	52.1
1055.2061	3258.7792	934.8	50.55
1055.306	3259.6765	930.45	48.2
1055.4059	3260.5731	930.45	47.6
1055.5057	3261.4692	929.3	46.7
1055.6055	3262.3647	930	46.45
1055.7052	3263.2595	929.2	45.55
1055.8049	3264.1538	929.45	48.6
1055.9045	3265.0474	928.45	43.8
1056.0041	3265.9404	927.6	45.85
1056.1036	3266.8329	925.15	44.7
1056.2031	3267.7247	932.85	40.45
1056.3025	3268.616	921.75	42.7
1056.4019	3269.5066	922.85	39.75
1056.5013	3270.3966	922.25	36.8
1056.6005	3271.286	917.25	36.95
