Software Version:	3.9.2.0
Unit SN:	10000200
Spectrometer SN:	6960
Date:	3/14/2024 1:44:11 PM
Data Line Index:	25
Spectral Points:	2048
Integration time (ms):	125
Averages:	20
Delay (ms):	30000
Sequence Number:	1
Processing:	dark subtract
Laser Power (mW):	305
Laser Current (mA):	825
Laser Diode Temp (C):	25
Laser Case Temp (C):	28.8
System Temp (C):	28.8
Spectrometer Temp (C):	26.7
CCD Temp (C):	0.009
Secondary Temp (C):	20.01
Heatsink Temp (C):	24.68
CCDPCB Temp (C):	38.297
SecondaryPCB Temp (C):	35.818

Wavelength	RamanShift	Raw Counts	Dark Subtracted
787.061	30.1047	464.35	52.85
787.2016	32.3739	468.3	58.6
787.3422	34.6426	476.2	65.35
787.4828	36.9109	479.3	67.25
787.6235	39.1787	490	73.2
787.7642	41.4461	502.45	81.7
787.9049	43.7131	509.75	86.2
788.0456	45.9796	520.7	93.6
788.1863	48.2456	528.65	98.2
788.3271	50.5112	541.6	106.2
788.4679	52.7764	547	109
788.6087	55.0411	560.6	121
788.7496	57.3054	572.1	124.5
788.8904	59.5692	584.55	132.95
789.0313	61.8326	598.75	143.55
789.1722	64.0955	615.7	157.75
789.3132	66.3579	631.6	168.8
789.4541	68.6199	655.55	190.1
789.5951	70.8815	689.45	221.6
789.7361	73.1426	773.5	302.9
789.8771	75.4032	987.8	509.4
790.0181	77.6634	1529.6	1045.6
790.1592	79.9231	2798.8	2309.3
790.3003	82.1824	5611.45	5111.85
790.4414	84.4412	10767.65	10253.4
790.5825	86.6995	18062	17520.75
790.7237	88.9574	25356.35	24792.6
790.8648	91.2148	30445.25	29866.7
791.006	93.4717	32900.1	32311.45
791.1472	95.7282	33496.45	32908.55
791.2885	97.9842	33442.1	32846.95
791.4297	100.2398	32867.2	32270.55
791.571	102.4949	32262.9	31659.25
791.7123	104.7495	31430.9	30824.85
791.8536	107.0036	30574.2	29965.4
791.9949	109.2573	29790.8	29186.2
792.1363	111.5105	29016.75	28410.7
792.2777	113.7632	28307.2	27701.35
792.4191	116.0154	27671.6	27054.05
792.5605	118.2672	27256.3	26646.5
792.7019	120.5185	26779.85	26168.5
792.8434	122.7693	26440.2	25825.5
792.9849	125.0197	26173.05	25552.55
793.1264	127.2696	25857.45	25235.95
793.2679	129.519	25715.9	25092.05
793.4094	131.7679	25473.8	24847.85
793.551	134.0163	25246.6	24616.65
793.6926	136.2642	25007.45	24374.45
793.8342	138.5117	24743.4	24099.5
793.9758	140.7587	24452.8	23815.75
794.1175	143.0052	24181.55	23538.85
794.2591	145.2512	23902.95	23260.55
794.4008	147.4967	23645.7	23004.1
794.5425	149.7417	23481.05	22837.45
794.6842	151.9863	23300.75	22655.1
794.826	154.2304	23239.6	22590.25
794.9677	156.4739	23087.2	22429.2
795.1095	158.717	22970.75	22315.95
795.2513	160.9596	22805.2	22148.9
795.3931	163.2017	22561.85	21903.45
795.535	165.4433	22231.65	21569.85
795.6768	167.6844	21879.85	21217.5
795.8187	169.925	21558.35	20889.55
795.9606	172.1651	21117.8	20448.05
796.1025	174.4047	20845.45	20169.95
796.2445	176.6439	20564.05	19888.8
796.3864	178.8825	20307.75	19627.5
796.5284	181.1206	20173.4	19493.5
796.6704	183.3582	19969.85	19282.95
796.8124	185.5954	19870.2	19183.6
796.9544	187.832	19765	19075.45
797.0965	190.0681	19723.25	19030.55
797.2386	192.3037	19714.6	19019.6
797.3806	194.5388	19660.95	18963.2
797.5228	196.7734	19706	19005.35
797.6649	199.0075	19795.95	19088.3
797.807	201.2411	19966	19260.8
797.9492	203.4742	19953.45	19244.7
798.0914	205.7068	20105.5	19396.25
798.2336	207.9389	20210.05	19500.25
798.3758	210.1704	20348.8	19637.2
798.518	212.4015	20447.6	19734.85
798.6603	214.632	20632.7	19918.6
798.8025	216.862	20789.8	20080.6
798.9448	219.0915	20926.65	20223.7
799.0871	221.3205	21139.95	20439.7
799.2294	223.549	21310.4	20615.3
799.3718	225.777	21537.3	20846.6
799.5141	228.0044	21830.6	21134.2
799.6565	230.2314	22245.25	21553
799.7989	232.4578	22561.9	21868.35
799.9413	234.6837	22862.55	22161.75
800.0837	236.909	23079.5	22376.45
800.2262	239.1339	23074.05	22346.7
800.3687	241.3582	22877.85	22167.6
800.5111	243.582	22579.75	21844.5
800.6536	245.8053	22287.45	21557.55
800.7961	248.0281	22053.9	21328.2
800.9387	250.2503	21865.1	21132.65
801.0812	252.472	21750.65	21017.65
801.2238	254.6932	21731.45	20996.45
801.3664	256.9139	21699.1	20958
801.509	259.134	21774.8	21031.85
801.6516	261.3536	21805.3	21063.8
801.7942	263.5727	21920.85	21179.65
801.9369	265.7912	21969.25	21226.35
802.0795	268.0092	22097.9	21357.5
802.2222	270.2267	22082.15	21340.05
802.3649	272.4436	22068.3	21325.35
802.5076	274.6601	22024.9	21273.35
802.6504	276.8759	21902.1	21154.15
802.7931	279.0913	21806.9	21061.85
802.9359	281.3061	21723.1	20972.45
803.0787	283.5204	21726.75	20974.9
803.2215	285.7341	21756.7	20999.75
803.3643	287.9473	21840.1	21071.7
803.5071	290.16	22071.75	21308.3
803.6499	292.3721	22277.85	21520.4
803.7928	294.5837	22711.85	21955.35
803.9357	296.7947	22988.3	22232.5
804.0786	299.0052	23179.7	22423.15
804.2215	301.2152	23065.5	22302.65
804.3644	303.4246	22753	21996.55
804.5074	305.6334	22192	21431.75
804.6503	307.8418	21685.05	20922.65
804.7933	310.0495	21153.15	20390.15
804.9363	312.2568	20798.65	20038.05
805.0793	314.4635	20489.85	19726.6
805.2223	316.6696	20333.15	19569.55
805.3653	318.8752	20240.9	19465.75
805.5084	321.0802	20255.85	19491.35
805.6514	323.2847	20322.75	19555
805.7945	325.4887	20371.75	19605.75
805.9376	327.692	20295.45	19526.8
806.0807	329.8949	20207.35	19440.65
806.2238	332.0972	19942.15	19172.95
806.367	334.2989	19652.35	18878.95
806.5101	336.5001	19337.75	18559.15
806.6533	338.7007	19154.9	18381.65
806.7965	340.9008	19002.8	18228.6
806.9397	343.1003	18849.3	18068.9
807.0829	345.2992	18777	17995.65
807.2261	347.4976	18730.95	17952.4
807.3693	349.6955	18664.1	17878.15
807.5126	351.8927	18738.75	17957.7
807.6559	354.0895	18638.15	17843.8
807.7991	356.2856	18706.85	17921.15
807.9424	358.4812	18638	17854.15
808.0857	360.6763	18653	17864.25
808.2291	362.8707	18610.95	17824.45
808.3724	365.0646	18666.9	17876.8
808.5158	367.258	18703	17910.85
808.6591	369.4508	18680.55	17887.45
808.8025	371.643	18761.7	17967.15
808.9459	373.8346	18737.55	17938.85
809.0893	376.0257	18736.05	17937.55
809.2327	378.2162	18674.1	17870.35
809.3762	380.4062	18617.9	17815.3
809.5196	382.5956	18391.2	17587.9
809.6631	384.7844	18274.5	17468.95
809.8066	386.9726	18141.5	17336.5
809.9501	389.1603	18092.7	17286.95
810.0936	391.3474	18018.3	17183.2
810.2371	393.5339	17988.55	17184.05
810.3806	395.7199	17889.3	17091.9
810.5241	397.9052	17924	17129.95
810.6677	400.09	17901.45	17110.8
810.8113	402.2743	17973.45	17180.35
810.9548	404.4579	18079.05	17284.9
811.0984	406.641	18233.2	17440.9
811.2421	408.8235	18440.65	17645.9
811.3857	411.0054	18742.85	17948.15
811.5293	413.1868	19093.1	18292.3
811.673	415.3675	19320.3	18520.65
811.8166	417.5477	19477.65	18677.45
811.9603	419.7273	19492.3	18691.2
812.104	421.9064	19388.65	18577.65
812.2477	424.0848	19290.3	18483.45
812.3914	426.2627	19044.1	18236.35
812.5351	428.4399	18716.25	17903.9
812.6788	430.6166	18351.95	17536.85
812.8226	432.7928	18002.6	17186.45
812.9663	434.9683	17637.65	16822.95
813.1101	437.1432	17396.5	16575.15
813.2539	439.3176	17206.3	16389.85
813.3977	441.4914	17051.7	16232.95
813.5415	443.6645	17010.1	16188.85
813.6853	445.8371	16901.35	16081.65
813.8291	448.0091	16815.85	15996.85
813.973	450.1806	16758.7	15937
814.1168	452.3514	16692.55	15867.8
814.2607	454.5216	16741.15	15908.15
814.4046	456.6913	16650.95	15827.6
814.5485	458.8603	16702.4	15879.05
814.6924	461.0288	16743.45	15922.3
814.8363	463.1967	16713.55	15891.05
814.9802	465.3639	16827.55	16003.2
815.1241	467.5306	16875.2	16050.3
815.2681	469.6967	16963.55	16138.6
815.412	471.8622	17045.1	16218.95
815.556	474.0271	17134.05	16309.45
815.7	476.1914	17188.3	16360.15
815.844	478.3551	17196.35	16369.3
815.988	480.5182	17203.15	16378
816.132	482.6807	17213.1	16384.6
816.276	484.8426	17338.4	16510.55
816.4201	487.0039	17607.45	16779.75
816.5641	489.1647	18022.85	17195.7
816.7082	491.3248	18438	17608.9
816.8522	493.4843	18588	17760.85
816.9963	495.6432	18533.65	17703.9
817.1404	497.8015	18464.05	17632.95
817.2845	499.9592	18387.55	17557.05
817.4286	502.1163	18253.15	17424.1
817.5727	504.2728	17960.9	17129.5
817.7168	506.4287	17666.45	16833.3
817.861	508.5839	17263.05	16432.65
818.0051	510.7386	16921.5	16091.85
818.1493	512.8927	16731.7	15892.35
818.2935	515.0461	16626.75	15796.85
818.4377	517.199	16570.95	15738.35
818.5818	519.3512	16609.3	15773
818.726	521.5029	16726	15885.25
818.8703	523.6539	16848.2	16012.8
819.0145	525.8043	16889.8	16053.15
819.1587	527.9541	16903.9	16064
819.303	530.1033	16795.9	15957.65
819.4472	532.2519	16769	15934.25
819.5915	534.3999	16845.45	16004.75
819.7357	536.5472	17048.7	16206.9
819.88	538.694	17436.3	16597.35
820.0243	540.8401	17934.4	17095.8
820.1686	542.9856	18339.5	17496.55
820.3129	545.1305	18446.4	17605.05
820.4572	547.2748	18300.1	17457.95
820.6016	549.4185	18017	17172
820.7459	551.5615	17680	16837.95
820.8902	553.704	17531.95	16688.65
821.0346	555.8458	17492.5	16649.2
821.1789	557.987	17518.2	16677.3
821.3233	560.1276	17576.75	16736.35
821.4677	562.2675	17694.8	16852.25
821.6121	564.4069	17824.1	16980.15
821.7565	566.5456	17938	17098.55
821.9009	568.6837	17965.4	17122.5
822.0453	570.8212	17607.6	16766.25
822.1897	572.958	17127.6	16282.6
822.3342	575.0942	16711.2	15871.6
822.4786	577.2299	16411.1	15568.35
822.6231	579.3648	16343.65	15500.15
822.7675	581.4992	16318.7	15474.05
822.912	583.6329	16495.8	15651.75
823.0565	585.766	16691.75	15847.75
823.201	587.8985	16825.5	15983.3
823.3454	590.0304	16863.55	15996.5
823.4899	592.1616	16750.6	15903.2
823.6345	594.2922	16634.15	15789.5
823.779	596.4222	16449.55	15601.35
823.9235	598.5515	16204.1	15357.95
824.068	600.6802	16046.75	15199
824.2126	602.8083	15816.1	14970
824.3571	604.9358	15782.85	14933.9
824.5017	607.0626	15726.1	14875.55
824.6462	609.1888	15761.1	14912.2
824.7908	611.3144	15709.95	14862.25
824.9354	613.4393	15632.8	14784.2
825.08	615.5636	15588.8	14740.1
825.2246	617.6873	15509	14660.4
825.3692	619.8103	15432.95	14581.5
825.5138	621.9327	15326.3	14476.45
825.6584	624.0544	15200.05	14351.65
825.803	626.1756	15118.95	14268.7
825.9477	628.2961	15018.75	14165.6
826.0923	630.4159	14929.75	14079.05
826.237	632.5351	14875.45	14025.3
826.3816	634.6537	14828.55	13977.1
826.5263	636.7716	14805.5	13954.95
826.6709	638.8889	14793.95	13941.9
826.8156	641.0056	14814.4	13962.2
826.9603	643.1216	14783	13927.55
827.105	645.237	14798.75	13942.1
827.2497	647.3518	14734.35	13877.45
827.3944	649.4659	14701.05	13844.25
827.5391	651.5793	14694.3	13842.15
827.6838	653.6922	14632.45	13776.65
827.8285	655.8043	14589.95	13734.4
827.9733	657.9159	14595.5	13741.15
828.118	660.0268	14504.9	13645.8
828.2627	662.137	14459.35	13605.5
828.4075	664.2466	14415.25	13555.75
828.5522	666.3556	14388	13528
828.697	668.4639	14358.35	13497.95
828.8418	670.5716	14381.2	13526.5
828.9865	672.6786	14408.3	13552
829.1313	674.785	14406.6	13545.75
829.2761	676.8907	14406.4	13546.4
829.4209	678.9958	14478.1	13621.35
829.5657	681.1002	14470.7	13610.35
829.7105	683.204	14430.05	13568.15
829.8553	685.3072	14374.55	13515.25
830.0001	687.4097	14267.2	13408.9
830.1449	689.5115	14224.25	13361.75
830.2898	691.6127	14203.05	13341.95
830.4346	693.7132	14126.95	13264.3
830.5794	695.8131	14103.7	13228.4
830.7243	697.9123	14043.85	13183.75
830.8691	700.0109	14051.45	13191.8
831.014	702.1089	13991.8	13133.55
831.1588	704.2061	13985.75	13126.4
831.3037	706.3028	14006	13142.85
831.4486	708.3987	14052.25	13189.75
831.5935	710.4941	14098.7	13238.15
831.7383	712.5887	14216.35	13353.95
831.8832	714.6827	14427.4	13561.05
832.0281	716.7761	14711.55	13847.45
832.173	718.8688	15033.8	14169.5
832.3179	720.9608	15226.6	14359.6
832.4628	723.0522	15283.5	14414.3
832.6077	725.1429	15149.55	14284.6
832.7527	727.233	14972.7	14107.65
832.8976	729.3224	14788	13926.2
833.0425	731.4112	14532.4	13667.25
833.1874	733.4993	14310.8	13444.1
833.3324	735.5867	14107.5	13241.5
833.4773	737.6735	13964.85	13097.6
833.6222	739.7596	13861.75	12992.9
833.7672	741.845	13751.65	12884.25
833.9122	743.9298	13684	12814.75
834.0571	746.014	13650.8	12783.35
834.2021	748.0974	13645.85	12780.15
834.347	750.1802	13638.7	12771.45
834.492	752.2624	13643.1	12777.75
834.637	754.3439	13658.4	12788.05
834.782	756.4247	13736.3	12860.9
834.9269	758.5048	13859.7	12994.45
835.0719	760.5843	14096.25	13226
835.2169	762.6631	14450.9	13584.55
835.3619	764.7413	14918.4	14051.3
835.5069	766.8188	15557.7	14689.7
835.6519	768.8956	16063.65	15193.25
835.7969	770.9718	16351.65	15485.35
835.9419	773.0473	16256.15	15392.35
836.0869	775.1221	15953.45	15087.75
836.232	777.1962	15571.85	14704.6
836.377	779.2697	15374.15	14507
836.522	781.3426	15403.65	14523.9
836.667	783.4147	15553.55	14686.2
836.8121	785.4862	15793.35	14928.1
836.9571	787.557	15760.4	14891.55
837.1021	789.6271	15349.85	14481.65
837.2472	791.6966	14774.95	13904.4
837.3922	793.7654	14182.95	13314.55
837.5373	795.8335	13804.85	12935.35
837.6823	797.901	13527.7	12657.15
837.8274	799.9678	13385.9	12516.85
837.9724	802.0339	13346.55	12477.75
838.1175	804.0993	13348.6	12469.8
838.2626	806.1641	13328.5	12458.25
838.4076	808.2282	13254.8	12384.75
838.5527	810.2916	13149.55	12277.6
838.6978	812.3544	13052.1	12182.1
838.8428	814.4164	12946.8	12078.7
838.9879	816.4778	12948.9	12078.45
839.133	818.5385	12954	12084.25
839.2781	820.5986	12996.95	12128.05
839.4232	822.658	13168.05	12296.9
839.5682	824.7166	13301.6	12431.65
839.7133	826.7747	13635.2	12766.2
839.8584	828.832	13942.95	13074.25
840.0035	830.8886	14132.65	13261.1
840.1486	832.9446	14290.65	13418.25
840.2937	834.9999	14238.75	13369.4
840.4388	837.0545	14145.1	13271.65
840.5839	839.1085	14019.9	13150.35
840.729	841.1618	13873.5	12998.7
840.8741	843.2143	13767.05	12896
841.0192	845.2662	13581.6	12709.7
841.1643	847.3175	13502.95	12634.45
841.3095	849.368	13387.7	12515.05
841.4546	851.4179	13275.8	12405.15
841.5997	853.467	13098.5	12226
841.7448	855.5155	12996.5	12123.75
841.8899	857.5633	12879.9	12007.65
842.0351	859.6105	12764.35	11889.8
842.1802	861.6569	12673.05	11803.8
842.3253	863.7027	12606.5	11732.7
842.4704	865.7478	12577.05	11702.8
842.6156	867.7922	12514.85	11644.45
842.7607	869.8359	12547.05	11672.55
842.9058	871.8789	12639.9	11767.2
843.0509	873.9212	12769.55	11859.3
843.1961	875.9629	12912.25	12039.45
843.3412	878.0039	13047.5	12173.65
843.4863	880.0441	13129.1	12256.75
843.6315	882.0837	13166.2	12291.35
843.7766	884.1226	13089.7	12215.7
843.9218	886.1609	12997.95	12126.55
844.0669	888.1984	12955.75	12082.1
844.212	890.2352	12948	12074.85
844.3572	892.2714	12889.2	12010
844.5023	894.3069	12846	11970.25
844.6475	896.3416	12731.1	11854.5
844.7926	898.3757	12650.55	11773.55
844.9377	900.4091	12596.6	11721.05
845.0829	902.4418	12590.2	11710.85
845.228	904.4739	12603.8	11728.2
845.3732	906.5052	12611.1	11734.65
845.5183	908.5358	12525.35	11652.05
845.6635	910.5658	12348.15	11466.7
845.8086	912.595	12209.85	11333.35
845.9538	914.6236	11981.4	11106.35
846.0989	916.6515	11895.25	11017.25
846.2441	918.6786	11824.25	10947.2
846.3892	920.7051	11875.1	10997.25
846.5344	922.7309	11954.65	11078
846.6795	924.756	11991.2	11115.85
846.8246	926.7804	12067.55	11187.7
846.9698	928.8041	12029.75	11152.95
847.1149	930.8272	12044.95	11166.2
847.2601	932.8495	11994.65	11119.65
847.4052	934.8711	11945.15	11067.9
847.5504	936.892	11806.3	10929.05
847.6955	938.9123	11709.95	10832.7
847.8407	940.9318	11602.9	10725.35
847.9858	942.9506	11512.5	10635.1
848.131	944.9688	11409.35	10534.5
848.2761	946.9862	11329.15	10453.95
848.4213	949.003	11222.85	10345.55
848.5664	951.019	11174.3	10298.75
848.7115	953.0344	11153.7	10277.05
848.8567	955.0491	11173.9	10295.2
849.0018	957.063	11222.75	10343.9
849.147	959.0763	11312.4	10435.55
849.2921	961.0888	11343.55	10466.6
849.4373	963.1007	11406.9	10528.6
849.5824	965.1119	11454.9	10579.65
849.7275	967.1223	11461.65	10584.35
849.8727	969.1321	11451.5	10572.6
850.0178	971.1412	11464.5	10582.9
850.1629	973.1495	11451.4	10573.95
850.3081	975.1572	11507.75	10595.9
850.4532	977.1641	11473.2	10595.8
850.5983	979.1704	11459.6	10579.85
850.7435	981.1759	11437.4	10556.55
850.8886	983.1808	11452.2	10569.85
851.0337	985.1849	11560.7	10675.05
851.1788	987.1884	11655.8	10775.55
851.324	989.1911	11774.05	10891.8
851.4691	991.1932	11892.5	11014
851.6142	993.1945	11932.2	11051.7
851.7593	995.1951	11915.65	11036.1
851.9045	997.1951	11871.6	10984.7
852.0496	999.1943	11771.05	10895.05
852.1947	1001.1928	11744.6	10865.9
852.3398	1003.1906	11738.85	10860.5
852.4849	1005.1877	11810.4	10930.55
852.63	1007.1841	11838	10959.9
852.7751	1009.1798	11762.2	10884.3
852.9202	1011.1748	11621.4	10746.1
853.0653	1013.1691	11422.45	10542.65
853.2104	1015.1627	11152.7	10273.45
853.3555	1017.1556	10964.75	10086.75
853.5006	1019.1477	10813.45	9930.55
853.6457	1021.1392	10699.65	9822.15
853.7908	1023.1299	10700.6	9818.05
853.9359	1025.12	10709.55	9829.5
854.081	1027.1093	10744.55	9866.8
854.2261	1029.0979	10824.45	9946.6
854.3712	1031.0859	10918.75	10038.6
854.5163	1033.0731	10934.6	10054.95
854.6613	1035.0596	10864.35	9986
854.8064	1037.0454	10684.4	9805.35
854.9515	1039.0304	10598.45	9719.1
855.0965	1041.0148	10451.65	9573.1
855.2416	1042.9985	10315.1	9434.05
855.3867	1044.9814	10281.65	9405.4
855.5317	1046.9636	10224.55	9344.35
855.6768	1048.9452	10190.6	9310.6
855.8219	1050.926	10199.7	9322.6
855.9669	1052.9061	10196.4	9315.85
856.112	1054.8855	10210.75	9330.95
856.257	1056.8642	10216.85	9336.15
856.4021	1058.8421	10242.4	9358.5
856.5471	1060.8194	10284.2	9406.55
856.6921	1062.7959	10331	9450.95
856.8372	1064.7717	10360.3	9478.75
856.9822	1066.7469	10384.4	9505
857.1272	1068.7213	10397.95	9515.3
857.2723	1070.695	10411	9532.4
857.4173	1072.6679	10360.5	9476.9
857.5623	1074.6402	10339.6	9458.85
857.7073	1076.6117	10310.2	9423.35
857.8523	1078.5826	10245.5	9364.75
857.9973	1080.5527	10215.7	9335.1
858.1423	1082.5221	10283.8	9401.35
858.2873	1084.4908	10380.75	9499.6
858.4323	1086.4587	10492.8	9609.75
858.5773	1088.426	10604.35	9722.45
858.7223	1090.3925	10633.55	9750.4
858.8673	1092.3584	10598.7	9716.1
859.0123	1094.3235	10471.9	9592.7
859.1573	1096.2879	10439.25	9558.6
859.3022	1098.2515	10482.35	9599.75
859.4472	1100.2145	10537	9658.65
859.5922	1102.1767	10670.2	9785.55
859.7371	1104.1382	10884.5	10004.15
859.8821	1106.099	11068.1	10184.8
860.027	1108.0591	11286.65	10405.2
860.172	1110.0185	11435.35	10553.95
860.3169	1111.9771	11465.35	10584.1
860.4619	1113.9351	11324.75	10443.4
860.6068	1115.8923	11059.25	10177.55
860.7517	1117.8488	10799	9914.4
860.8967	1119.8045	10520.8	9638.95
861.0416	1121.7596	10385.25	9501.85
861.1865	1123.7139	10309.25	9428.65
861.3314	1125.6675	10277.85	9396.35
861.4763	1127.6204	10329.7	9449.25
861.6212	1129.5726	10289.95	9407.05
861.7661	1131.524	10244.8	9364.75
861.911	1133.4748	10189.55	9306.45
862.0559	1135.4248	10091.75	9207.4
862.2008	1137.3741	10028.95	9146.45
862.3457	1139.3226	9973.45	9092.2
862.4905	1141.2705	9921.7	9041.35
862.6354	1143.2176	9809.8	8921
862.7803	1145.164	9773.15	8891.6
862.9251	1147.1097	9755.05	8872.65
863.07	1149.0546	9698.35	8815.1
863.2148	1150.9989	9613.3	8733.55
863.3597	1152.9424	9460.4	8578
863.5045	1154.8852	9333.25	8449.8
863.6493	1156.8272	9227.3	8345.95
863.7942	1158.7686	9208.55	8320.1
863.939	1160.7092	9186.55	8305.4
864.0838	1162.6491	9184.65	8298.9
864.2286	1164.5883	9268.85	8388.15
864.3734	1166.5267	9349.6	8464.65
864.5182	1168.4644	9515.8	8632.95
864.663	1170.4014	9687.75	8803.4
864.8078	1172.3377	9945.75	9066.15
864.9526	1174.2732	10181	9300.3
865.0974	1176.2081	10497.35	9617.5
865.2421	1178.1421	10807.1	9921.2
865.3869	1180.0755	11122.65	10243.5
865.5317	1182.0082	11335.2	10451.6
865.6764	1183.9401	11381.65	10498.6
865.8212	1185.8713	11273.7	10389.75
865.9659	1187.8017	10992.55	10107.5
866.1106	1189.7315	10679.5	9796.6
866.2554	1191.6605	10416.45	9504.15
866.4001	1193.5888	10140.8	9258.05
866.5448	1195.5163	9990.7	9109.6
866.6895	1197.4432	9896.85	9011.75
866.8342	1199.3693	9851.65	8970.15
866.9789	1201.2947	9818.5	8928.45
867.1236	1203.2193	9820.75	8937
867.2683	1205.1432	9792.6	8907.7
867.413	1207.0664	9774.75	8891.8
867.5576	1208.9889	9813.15	8929.7
867.7023	1210.9106	9828.75	8947.6
867.847	1212.8316	9863.8	8980.55
867.9916	1214.7519	9907.25	9017.95
868.1363	1216.6715	9913.25	9031.9
868.2809	1218.5903	9948.85	9066
868.4255	1220.5084	9986.15	9101.6
868.5701	1222.4257	9976.2	9093.8
868.7148	1224.3424	9986.45	9105.85
868.8594	1226.2583	10053.85	9167.25
869.004	1228.1735	10152.8	9269.7
869.1486	1230.0879	10244.05	9362
869.2932	1232.0016	10362.85	9478.75
869.4377	1233.9146	10423.35	9539.85
869.5823	1235.8269	10358.4	9475.65
869.7269	1237.7384	10221.35	9340.7
869.8715	1239.6492	10022.95	9140.15
870.016	1241.5592	9958.35	9075.85
870.1606	1243.4686	9925.9	9043.9
870.3051	1245.3772	9930.4	9049.4
870.4496	1247.285	9975.25	9093.4
870.5941	1249.1922	9976.1	9092.5
870.7387	1251.0986	10001.05	9118.9
870.8832	1253.0042	10013.9	9131.7
871.0277	1254.9092	10057.4	9176
871.1722	1256.8134	10147.6	9269.4
871.3167	1258.7169	10281	9396.9
871.4611	1260.6196	10455.25	9573.25
871.6056	1262.5216	10690.85	9807.9
871.7501	1264.4229	10845.15	9961
871.8945	1266.3234	11016.5	10132.8
872.039	1268.2232	11117.35	10234.05
872.1834	1270.1223	11135.9	10250.7
872.3278	1272.0207	11126.35	10243.2
872.4723	1273.9183	11103.2	10214.15
872.6167	1275.8151	11010.4	10128.3
872.7611	1277.7113	10969.75	10087
872.9055	1279.6067	10872.1	9989.25
873.0499	1281.5014	10896.7	10010.95
873.1943	1283.3953	10963.8	10080.3
873.3386	1285.2885	11090.15	10209.5
873.483	1287.181	11266.3	10382.55
873.6274	1289.0727	11469.7	10585.7
873.7717	1290.9637	11601.8	10719.45
873.9161	1292.854	11730.5	10846.4
874.0604	1294.7435	11829.7	10945.1
874.2047	1296.6323	11915.85	11034.7
874.349	1298.5204	11998.75	11112.3
874.4933	1300.4077	12105.75	11224
874.6376	1302.2943	12121.45	11238.4
874.7819	1304.1802	12040.1	11159.15
874.9262	1306.0653	11829.9	10943.7
875.0705	1307.9497	11565.15	10681.4
875.2147	1309.8333	11311.4	10429.45
875.359	1311.7162	11160.5	10273.6
875.5032	1313.5984	11105.6	10218.55
875.6475	1315.4798	11148.2	10261.65
875.7917	1317.3605	11192.25	10292.9
875.9359	1319.2405	11190	10304.85
876.0801	1321.1197	11126.7	10241.7
876.2243	1322.9982	10958.65	10071
876.3685	1324.876	10813.25	9932.25
876.5127	1326.753	10681.8	9796.25
876.6569	1328.6293	10609.1	9724.55
876.801	1330.5048	10532.65	9647.1
876.9452	1332.3796	10457.3	9575
877.0893	1334.2537	10463.25	9551.95
877.2335	1336.127	10391.5	9507.25
877.3776	1337.9996	10351.7	9468.3
877.5217	1339.8714	10342.9	9458
877.6658	1341.7426	10379.3	9451.05
877.8099	1343.6129	10347.45	9463.5
877.954	1345.4826	10284.1	9399.55
878.0981	1347.3515	10289.65	9404.2
878.2422	1349.2196	10255.4	9371.2
878.3862	1351.087	10288	9402.55
878.5303	1352.9537	10340.2	9456.85
878.6743	1354.8197	10458.15	9574.1
878.8184	1356.6849	10593.7	9710.4
878.9624	1358.5493	10734.45	9850.1
879.1064	1360.4131	10825.05	9940.85
879.2504	1362.276	10887.8	10003.7
879.3944	1364.1383	10774.55	9890.8
879.5384	1365.9998	10561.1	9670.05
879.6823	1367.8606	10224.05	9338.5
879.8263	1369.7206	9855.3	8971.15
879.9702	1371.5799	9615.6	8731.35
880.1142	1373.4384	9375	8491.6
880.2581	1375.2962	9174.45	8289.95
880.402	1377.1533	8900.2	8017.4
880.5459	1379.0096	8585.9	7700.1
880.6898	1380.8652	8269.45	7384.5
880.8337	1382.7201	7975.8	7091.7
880.9776	1384.5742	7742.3	6858.75
881.1215	1386.4275	7553.8	6668.35
881.2653	1388.2802	7407.1	6522.85
881.4092	1390.132	7314.65	6432.15
881.553	1391.9832	7243.5	6357.85
881.6968	1393.8336	7167.4	6281.5
881.8406	1395.6832	7135.8	6252.5
881.9844	1397.5322	7085.8	6201.3
882.1282	1399.3803	7058.6	6170.1
882.272	1401.2278	7020.25	6133.7
882.4158	1403.0745	7049	6163.6
882.5595	1404.9204	7016.7	6134.9
882.7033	1406.7656	7046.25	6160.75
882.847	1408.6101	7068.55	6182.9
882.9908	1410.4538	7091.8	6208.55
883.1345	1412.2968	7157.8	6274.05
883.2782	1414.139	7214.75	6330.8
883.4219	1415.9805	7312.65	6429.05
883.5656	1417.8213	7396.95	6506.4
883.7092	1419.6613	7514.45	6630.8
883.8529	1421.5006	7676.85	6790.95
883.9965	1423.3391	7921.45	7036.75
884.1402	1425.1769	8218.85	7333.15
884.2838	1427.0139	8712.35	7829.65
884.4274	1428.8502	9284.25	8396.85
884.571	1430.6858	9860.55	8975.4
884.7146	1432.5206	10289.15	9406.25
884.8582	1434.3547	10545.1	9659.7
885.0018	1436.188	10561.35	9676.65
885.1453	1438.0206	10500.75	9616.45
885.2889	1439.8524	10331.25	9447.65
885.4324	1441.6835	10229.7	9347.2
885.5759	1443.5139	10076.35	9188.65
885.7194	1445.3435	9992.15	9105.6
885.8629	1447.1724	9975.4	9090.5
886.0064	1449.0005	9918.8	9033.1
886.1499	1450.8279	9824.7	8938.75
886.2933	1452.6545	9780.3	8896.2
886.4368	1454.4804	9822.4	8939.2
886.5802	1456.3056	9831.15	8940.45
886.7237	1458.13	9757.9	8875.7
886.8671	1459.9536	9539.85	8655.65
887.0105	1461.7766	9212.8	8329.45
887.1539	1463.5987	8835.3	7948.8
887.2972	1465.4202	8461.15	7573.3
887.4406	1467.2409	8099.05	7215.7
887.584	1469.0608	7798.05	6913
887.7273	1470.88	7529.05	6644.35
887.8706	1472.6984	7296.25	6410.9
888.0139	1474.5161	7078	6191.1
888.1572	1476.3331	6926.6	6042.05
888.3005	1478.1493	6829.5	5944.2
888.4438	1479.9648	6725.15	5840.55
888.5871	1481.7795	6610.75	5726.4
888.7303	1483.5935	6541	5658.6
888.8736	1485.4067	6485.65	5599.95
889.0168	1487.2192	6427.3	5541.55
889.16	1489.031	6378.25	5489.1
889.3032	1490.842	6344.05	5459.5
889.4464	1492.6522	6300.1	5415.7
889.5896	1494.4618	6256	5369.8
889.7327	1496.2705	6223	5338.3
889.8759	1498.0785	6182.4	5297.95
890.019	1499.8858	6177.95	5292.45
890.1622	1501.6924	6140.75	5257.55
890.3053	1503.4981	6100.9	5217.55
890.4484	1505.3032	6075.75	5193.45
890.5914	1507.1075	6047	5162.05
890.7345	1508.911	6001.85	5117.95
890.8776	1510.7138	5991.55	5105.55
891.0206	1512.5159	5944.55	5061.45
891.1637	1514.3172	5916.8	5033.3
891.3067	1516.1178	5855.2	4970.8
891.4497	1517.9176	5865.3	4977.4
891.5927	1519.7166	5807.2	4923.05
891.7357	1521.515	5795.55	4905.5
891.8786	1523.3126	5767.75	4883.8
892.0216	1525.1094	5746.25	4862.55
892.1645	1526.9055	5702.55	4817.3
892.3074	1528.7008	5680.95	4797.45
892.4503	1530.4954	5652.9	4766.2
892.5932	1532.2893	5681.2	4799.15
892.7361	1534.0824	5628.65	4736.95
892.879	1535.8747	5631.2	4747.65
893.0218	1537.6663	5616.45	4732.35
893.1647	1539.4572	5616	4728
893.3075	1541.2473	5621.9	4737.95
893.4503	1543.0367	5597.5	4712
893.5931	1544.8253	5603.25	4714.2
893.7359	1546.6132	5639.35	4753.9
893.8787	1548.4003	5621.4	4728.4
894.0214	1550.1867	5650.3	4756.95
894.1642	1551.9723	5698.05	4810.45
894.3069	1553.7572	5759.85	4873.85
894.4496	1555.5414	5816.95	4932.3
894.5923	1557.3247	5880.4	4995.55
894.735	1559.1074	5987.85	5101.75
894.8777	1560.8893	6101.1	5218.5
895.0204	1562.6705	6228.9	5343.15
895.163	1564.4509	6327.6	5443.9
895.3056	1566.2305	6374.6	5492
895.4482	1568.0094	6419.65	5537.65
895.5908	1569.7876	6460.85	5577.55
895.7334	1571.565	6486.75	5602.1
895.876	1573.3417	6462.35	5579.45
896.0186	1575.1176	6462.75	5579.65
896.1611	1576.8928	6437.05	5551.4
896.3036	1578.6672	6380.35	5497.7
896.4461	1580.4409	6304.25	5420.35
896.5886	1582.2138	6253.7	5367.75
896.7311	1583.986	6188	5303.15
896.8736	1585.7575	6166.1	5282.95
897.0161	1587.5282	6133.8	5250.65
897.1585	1589.2981	6155.1	5272.4
897.3009	1591.0673	6164.5	5280
897.4433	1592.8358	6196.55	5312.55
897.5857	1594.6035	6241.7	5353.1
897.7281	1596.3704	6279.95	5396.45
897.8705	1598.1366	6336.5	5451.85
898.0128	1599.9021	6409.15	5524.75
898.1551	1601.6668	6466.85	5581.15
898.2975	1603.4308	6550.9	5665.5
898.4398	1605.194	6688	5798.35
898.5821	1606.9564	6856.85	5972.35
898.7243	1608.7182	7023.6	6135.9
898.8666	1610.4791	7239.1	6356.1
899.0088	1612.2394	7445.2	6562.45
899.1511	1613.9988	7677.5	6794.15
899.2933	1615.7576	7933.55	7049.3
899.4355	1617.5156	8140	7251.1
899.5776	1619.2728	8297.5	7416.35
899.7198	1621.0293	8369.15	7486.45
899.862	1622.785	8354.5	7465.75
900.0041	1624.54	8230.8	7344.65
900.1462	1626.2942	8011.3	7126.45
900.2883	1628.0477	7746.45	6859.8
900.4304	1629.8005	7480.2	6592.45
900.5725	1631.5525	7243.3	6358.75
900.7145	1633.3037	7046.4	6162.05
900.8566	1635.0542	6884.85	6001.6
900.9986	1636.804	6786.3	5902.15
901.1406	1638.553	6794.5	5802.1
901.2826	1640.3013	6664.9	5780.5
901.4245	1642.0488	6667.05	5782.2
901.5665	1643.7955	6686.3	5804.05
901.7085	1645.5416	6744.5	5860.55
901.8504	1647.2868	6837.25	5954.4
901.9923	1649.0313	6958.15	6074
902.1342	1650.7751	7101.1	6215.3
902.2761	1652.5181	7267	6383.9
902.4179	1654.2604	7454	6569
902.5598	1656.0019	7742.3	6858.3
902.7016	1657.7427	8020.95	7137.2
902.8434	1659.4828	8307.5	7424.65
902.9852	1661.222	8498.05	7613.8
903.127	1662.9606	8489.6	7606.4
903.2687	1664.6984	8268.2	7384.8
903.4105	1666.4354	7862.5	6978.95
903.5522	1668.1717	7337.35	6455.45
903.6939	1669.9072	6789.45	5907.3
903.8356	1671.642	6340.55	5455.3
903.9773	1673.3761	5955.5	5072.8
904.119	1675.1094	5649.25	4767.8
904.2606	1676.8419	5428.65	4545.5
904.4022	1678.5737	5253.85	4371.35
904.5439	1680.3048	5111.5	4230.2
904.6855	1682.0351	5009.75	4126.05
904.827	1683.7646	4913.1	4025.6
904.9686	1685.4934	4836.35	3952.45
905.1101	1687.2215	4784.7	3901.1
905.2517	1688.9488	4732.25	3849.1
905.3932	1690.6754	4681.95	3800.05
905.5347	1692.4012	4626.65	3743.3
905.6761	1694.1263	4600.25	3718.5
905.8176	1695.8506	4576.4	3693.75
905.9591	1697.5742	4534.05	3651.1
906.1005	1699.297	4522.75	3636.05
906.2419	1701.0191	4484	3603.4
906.3833	1702.7404	4446.4	3565.2
906.5246	1704.461	4416.1	3531.85
906.666	1706.1808	4370.15	3486.6
906.8073	1707.8999	4362.8	3476.55
906.9487	1709.6182	4343.7	3459.95
907.09	1711.3358	4332.35	3449.7
907.2313	1713.0527	4303.25	3422.6
907.3725	1714.7688	4279.5	3391.7
907.5138	1716.4841	4263.35	3379.6
907.655	1718.1987	4259.4	3372.05
907.7962	1719.9126	4229.9	3349.5
907.9374	1721.6257	4204.9	3319.9
908.0786	1723.338	4213.85	3329.55
908.2198	1725.0496	4186.9	3303.8
908.3609	1726.7605	4184.15	3301.8
908.502	1728.4706	4156.65	3272.15
908.6431	1730.18	4134.2	3247.45
908.7842	1731.8886	4123.55	3238.5
908.9253	1733.5964	4104.75	3216.5
909.0664	1735.3036	4100.8	3217.25
909.2074	1737.0099	4088.3	3206.15
909.3484	1738.7156	4079.05	3197.9
909.4894	1740.4204	4035.6	3151
909.6304	1742.1246	4034	3151
909.7714	1743.8279	4015.7	3133.35
909.9123	1745.5306	3978.85	3096.2
910.0532	1747.2325	3977.05	3093.5
910.1941	1748.9336	3963.15	3080.65
910.335	1750.634	3959.4	3075.1
910.4759	1752.3336	3953.7	3070.85
910.6168	1754.0325	3923.6	3044.05
910.7576	1755.7307	3918.05	3037.45
910.8984	1757.4281	3915.3	3032.8
911.0392	1759.1247	3917.05	3027.3
911.18	1760.8206	3898.25	3011.1
911.3208	1762.5158	3895.9	3010.6
911.4615	1764.2102	3858.4	2975.25
911.6022	1765.9039	3842.15	2960.1
911.7429	1767.5968	3851.4	2968.65
911.8836	1769.289	3847.3	2964.55
912.0243	1770.9804	3828.2	2946.05
912.1649	1772.6711	3822.1	2939.65
912.3056	1774.361	3830.3	2947
912.4462	1776.0502	3811.5	2929.75
912.5868	1777.7386	3812.15	2926.6
912.7274	1779.4263	3799.5	2916.45
912.8679	1781.1132	3791.6	2909
913.0084	1782.7994	3776.7	2891.8
913.149	1784.4849	3778.95	2896.6
913.2895	1786.1696	3785.75	2881.45
913.4299	1787.8535	3749.55	2867.3
913.5704	1789.5367	3749.15	2866.1
913.7108	1791.2192	3740.9	2858.9
913.8513	1792.9009	3735.55	2837.3
913.9917	1794.5818	3715.3	2832.2
914.132	1796.2621	3720	2836.8
914.2724	1797.9415	3718.65	2835.25
914.4128	1799.6202	3701.25	2819.3
914.5531	1801.2982	3695.45	2812.85
914.6934	1802.9755	3683.15	2798.45
914.8337	1804.6519	3690.95	2809.45
914.9739	1806.3277	3666.8	2785.25
915.1142	1808.0027	3650.25	2767.9
915.2544	1809.6769	3663.15	2779.55
915.3946	1811.3504	3646.25	2762.75
915.5348	1813.0231	3639	2756.3
915.675	1814.6951	3621.45	2740.35
915.8151	1816.3664	3634.5	2750.05
915.9553	1818.0369	3622.8	2739.05
916.0954	1819.7067	3616.4	2734
916.2355	1821.3757	3616.25	2734
916.3755	1823.044	3614.7	2732.4
916.5156	1824.7115	3611.9	2729.25
916.6556	1826.3783	3587.65	2706.85
916.7956	1828.0443	3583.9	2702.1
916.9356	1829.7096	3588.6	2706.8
917.0756	1831.3741	3587.35	2700.25
917.2155	1833.0379	3559.75	2677
917.3555	1834.701	3565.25	2681.6
917.4954	1836.3633	3548.05	2663.35
917.6353	1838.0248	3537.6	2651.9
917.7751	1839.6856	3540.5	2658.2
917.915	1841.3457	3537.35	2655
918.0548	1843.005	3541.65	2659.85
918.1946	1844.6636	3547	2666.3
918.3344	1846.3214	3523	2640.75
918.4742	1847.9785	3521.5	2639.2
918.6139	1849.6349	3518.05	2634.9
918.7537	1851.2904	3516.15	2628.8
918.8934	1852.9453	3502.35	2620.9
919.0331	1854.5994	3508.35	2623.95
919.1727	1856.2528	3495.4	2608.25
919.3124	1857.9054	3486.05	2604.15
919.452	1859.5572	3471.55	2587.2
919.5916	1861.2083	3468.85	2588.3
919.7312	1862.8587	3472	2588.5
919.8708	1864.5084	3459.9	2576.55
920.0103	1866.1572	3451	2570.7
920.1498	1867.8054	3435.15	2553.4
920.2893	1869.4528	3439.65	2558.05
920.4288	1871.0994	3419.7	2537.3
920.5683	1872.7453	3434.75	2550.5
920.7077	1874.3905	3443.15	2543.4
920.8471	1876.0349	3411.6	2528.8
920.9865	1877.6786	3407.6	2524.3
921.1259	1879.3215	3401.25	2518.5
921.2653	1880.9637	3371.35	2486.45
921.4046	1882.6051	3390.85	2508.65
921.5439	1884.2458	3379.55	2494.9
921.6832	1885.8858	3369.85	2487.5
921.8225	1887.525	3372.55	2489.2
921.9617	1889.1634	3344.55	2463.4
922.101	1890.8011	3339.95	2457.25
922.2402	1892.4381	3341.45	2462.8
922.3794	1894.0743	3337.4	2455.2
922.5185	1895.7098	3337.15	2454.8
922.6577	1897.3446	3334.8	2449.4
922.7968	1898.9786	3323.6	2437.7
922.9359	1900.6118	3330.2	2447.4
923.075	1902.2443	3304.6	2418.6
923.214	1903.8761	3317.35	2435.9
923.3531	1905.5071	3285.05	2401.45
923.4921	1907.1374	3280.05	2397.2
923.6311	1908.7669	3280.75	2397.75
923.77	1910.3957	3278.55	2396.45
923.909	1912.0237	3252.2	2368.6
924.0479	1913.651	3255.15	2373.7
924.1868	1915.2776	3248.2	2367.6
924.3257	1916.9034	3241.5	2360.75
924.4646	1918.5285	3226.05	2343.3
924.6034	1920.1528	3214.45	2333.25
924.7422	1921.7764	3227.3	2343.9
924.881	1923.3992	3200.8	2319.25
925.0198	1925.0213	3192.75	2310.05
925.1586	1926.6427	3181.6	2301.1
925.2973	1928.2633	3283.5	2277.8
925.436	1929.8832	3182.8	2300.3
925.5747	1931.5023	3163.6	2282.5
925.7134	1933.1207	3172.5	2289
925.852	1934.7383	3161.3	2277.4
925.9906	1936.3552	3145.3	2263.2
926.1292	1937.9714	3131.05	2248.5
926.2678	1939.5868	3129.15	2246
926.4064	1941.2015	3110.85	2227.2
926.5449	1942.8154	3100.4	2219.35
926.6834	1944.4286	3097.05	2215.1
926.8219	1946.041	3117.45	2210.95
926.9604	1947.6528	3095.95	2209.45
927.0988	1949.2637	3079.1	2196.2
927.2372	1950.8739	3080.6	2197.1
927.3756	1952.4834	3070.6	2188.2
927.514	1954.0921	3056.4	2173.55
927.6523	1955.7001	3065	2177.25
927.7907	1957.3074	3058.45	2177.65
927.929	1958.9139	3038.15	2156.6
928.0673	1960.5197	3033.15	2150.05
928.2055	1962.1247	3020	2138.45
928.3438	1963.729	3005.35	2124.55
928.482	1965.3325	3024.9	2117.85
928.6202	1966.9353	2998.15	2116.3
928.7584	1968.5374	2991.1	2108.45
928.8965	1970.1387	2982.95	2100.3
929.0346	1971.7393	2968.6	2086.2
929.1727	1973.3392	2958.65	2076.35
929.3108	1974.9383	2961.9	2077.25
929.4489	1976.5366	2955.85	2075.05
929.5869	1978.1342	2959.95	2076.95
929.7249	1979.7311	2936.4	2052.95
929.8629	1981.3273	2940.5	2058.8
930.0009	1982.9227	2929.95	2043.45
930.1388	1984.5173	2923	2039.8
930.2767	1986.1112	2913	2028.85
930.4146	1987.7044	2901.55	2019.4
930.5525	1989.2968	2889.45	2004.95
930.6904	1990.8885	2891.6	2006.1
930.8282	1992.4795	2899	2014.85
930.966	1994.0697	2895.8	2013
931.1038	1995.6592	2885.3	2003.6
931.2415	1997.2479	2876.55	1993.85
931.3793	1998.8359	2854	1973.25
931.517	2000.4232	2857.7	1975.45
931.6547	2002.0097	2846.65	1966.3
931.7923	2003.5955	2825.8	1941.8
931.93	2005.1805	2845.8	1961.8
932.0676	2006.7648	2850.35	1968.7
932.2052	2008.3484	2825.2	1940.8
932.3427	2009.9312	2835.9	1950.1
932.4803	2011.5133	2819.75	1938.9
932.6178	2013.0946	2834.1	1952.1
932.7553	2014.6752	2811	1931.55
932.8928	2016.2551	2810.8	1927.2
933.0302	2017.8342	2802.3	1920.2
933.1676	2019.4126	2789.1	1906.15
933.305	2020.9902	2784.8	1904.35
933.4424	2022.5672	2782.8	1897.15
933.5798	2024.1433	2786.1	1898.35
933.7171	2025.7188	2770.85	1889.5
933.8544	2027.2935	2775.75	1892.8
933.9917	2028.8674	2749.95	1867.9
934.129	2030.4406	2754.3	1872.1
934.2662	2032.0131	2749.95	1868.55
934.4034	2033.5849	2759.5	1865.15
934.5406	2035.1559	2743.05	1861.55
934.6778	2036.7261	2738.2	1855.7
934.8149	2038.2957	2729.85	1847.65
934.952	2039.8645	2728.65	1844.4
935.0891	2041.4325	2724.05	1839.95
935.2262	2042.9998	2718.6	1836
935.3632	2044.5664	2721.1	1835.85
935.5002	2046.1323	2708.1	1826.05
935.6372	2047.6974	2696.2	1814.25
935.7742	2049.2617	2695.65	1814.55
935.9111	2050.8254	2717.95	1801.85
936.048	2052.3883	2709.7	1825.85
936.1849	2053.9504	2689.95	1809.1
936.3218	2055.5118	2681.75	1799.4
936.4586	2057.0725	2687.6	1801.6
936.5955	2058.6325	2674.5	1791.75
936.7323	2060.1917	2671.1	1787.65
936.869	2061.7502	2665.2	1780.45
937.0058	2063.3079	2645.9	1764.8
937.1425	2064.8649	2663.35	1776.95
937.2792	2066.4212	2652.45	1770.7
937.4159	2067.9767	2637.35	1755.4
937.5525	2069.5315	2628.75	1746.65
937.6891	2071.0856	2631.5	1749.95
937.8257	2072.6389	2624.1	1738.6
937.9623	2074.1915	2606.35	1725
938.0989	2075.7433	2609.7	1725.6
938.2354	2077.2945	2602	1721.8
938.3719	2078.8448	2592.4	1710.65
938.5084	2080.3945	2582.3	1700.6
938.6448	2081.9434	2576.8	1695.75
938.7812	2083.4916	2582.3	1699.05
938.9176	2085.039	2584.8	1701.5
939.054	2086.5857	2563.05	1679.95
939.1903	2088.1317	2566.25	1683
939.3267	2089.677	2564.55	1682.55
939.463	2091.2215	2560.35	1680
939.5992	2092.7652	2556.7	1673.4
939.7355	2094.3083	2542.2	1658.45
939.8717	2095.8506	2527.65	1647.5
940.0079	2097.3921	2546.75	1664.7
940.1441	2098.933	2529.15	1645
940.2802	2100.4731	2529	1647.2
940.4163	2102.0124	2549.15	1650.65
940.5524	2103.5511	2522.4	1640.5
940.6885	2105.089	2532.95	1649.75
940.8245	2106.6261	2516	1633.85
940.9606	2108.1626	2519.8	1635.45
941.0965	2109.6983	2540.55	1629.65
941.2325	2111.2332	2515.25	1630.45
941.3684	2112.7675	2501	1617.7
941.5044	2114.301	2500.4	1615.9
941.6403	2115.8337	2493.3	1608.1
941.7761	2117.3657	2493.8	1611.65
941.912	2118.897	2489	1605.65
942.0478	2120.4276	2477	1588.8
942.1835	2121.9575	2475	1592.55
942.3193	2123.4866	2486.95	1588
942.455	2125.0149	2472.6	1586.7
942.5907	2126.5426	2465	1581.75
942.7264	2128.0695	2463	1575.45
942.8621	2129.5956	2447.35	1564.55
942.9977	2131.1211	2447.25	1560.2
943.1333	2132.6458	2451.25	1567.05
943.2689	2134.1698	2441	1559.15
943.4044	2135.693	2435.25	1549.15
943.54	2137.2155	2442.95	1559.15
943.6755	2138.7373	2436.35	1551.1
943.8109	2140.2584	2439.55	1555
943.9464	2141.7787	2436.8	1547.7
944.0818	2143.2983	2418.45	1536.3
944.2172	2144.8171	2401.05	1518.4
944.3526	2146.3353	2418.25	1532.05
944.4879	2147.8527	2397.95	1515.1
944.6232	2149.3693	2416.3	1531.35
944.7585	2150.8853	2404.2	1523.05
944.8938	2152.4005	2386.05	1503.4
945.029	2153.9149	2384.25	1500.85
945.1642	2155.4287	2381.65	1500.8
945.2994	2156.9417	2385.4	1501.6
945.4346	2158.454	2388.05	1502.15
945.5697	2159.9655	2372.6	1489.8
945.7048	2161.4764	2365.75	1482.95
945.8399	2162.9865	2354.75	1471.75
945.9749	2164.4958	2373.2	1487.25
946.1099	2166.0045	2347.5	1460.85
946.2449	2167.5124	2356.7	1474.55
946.3799	2169.0195	2342.35	1457.9
946.5148	2170.526	2356.05	1475
946.6498	2172.0317	2354.2	1470.5
946.7846	2173.5367	2340.25	1457.9
946.9195	2175.0409	2331.5	1450.5
947.0543	2176.5445	2331.7	1448.9
947.1891	2178.0473	2326.6	1444.95
947.3239	2179.5494	2328.55	1443.7
947.4587	2181.0507	2321.05	1436.5
947.5934	2182.5513	2311.9	1428.35
947.7281	2184.0512	2315.9	1432.1
947.8628	2185.5504	2308.05	1425.45
947.9974	2187.0488	2295.3	1415.25
948.132	2188.5465	2290.15	1407.85
948.2666	2190.0435	2294.7	1410.95
948.4012	2191.5397	2298.65	1417.4
948.5357	2193.0353	2286.5	1406.15
948.6702	2194.5301	2285.15	1402.25
948.8047	2196.0241	2284	1402.1
948.9392	2197.5175	2272.7	1390.1
949.0736	2199.0101	2271.4	1385
949.208	2200.502	2260.2	1378.65
949.3424	2201.9931	2252.05	1369.2
949.4767	2203.4835	2246.05	1362.1
949.611	2204.9733	2253.2	1364.3
949.7453	2206.4622	2254.75	1371.45
949.8796	2207.9505	2236.65	1349.7
950.0138	2209.438	2229.65	1347.6
950.148	2210.9248	2226.8	1342.55
950.2822	2212.4109	2231.05	1349.5
950.4164	2213.8962	2216.9	1333.1
950.5505	2215.3809	2212.1	1329.25
950.6846	2216.8648	2215.6	1332.25
950.8186	2218.3479	2206.4	1318.45
950.9527	2219.8304	2208.2	1322.95
951.0867	2221.3121	2201.9	1316.4
951.2207	2222.7931	2198.95	1317.8
951.3546	2224.2733	2187.2	1303.75
951.4886	2225.7529	2175.65	1291.85
951.6225	2227.2317	2192.4	1305.65
951.7563	2228.7098	2181.4	1299.55
951.8902	2230.1872	2173.15	1290.25
952.024	2231.6638	2181.5	1300.2
952.1578	2233.1397	2174.1	1283.6
952.2916	2234.6149	2162.55	1280.15
952.4253	2236.0894	2154.95	1270.55
952.559	2237.5632	2176.2	1283.85
952.6927	2239.0362	2152.8	1268.45
952.8263	2240.5085	2150.7	1265.5
952.9599	2241.9801	2144.85	1261.25
953.0935	2243.4509	2135.4	1253.25
953.2271	2244.921	2128.55	1244.4
953.3606	2246.3904	2128.75	1243.7
953.4941	2247.8591	2116.55	1234.35
953.6276	2249.3271	2119.8	1237.8
953.7611	2250.7943	2114.8	1231.65
953.8945	2252.2608	2112.1	1228.25
954.0279	2253.7266	2103.25	1222.5
954.1612	2255.1917	2108.05	1225.45
954.2946	2256.656	2101.2	1215.55
954.4279	2258.1197	2091.55	1210.1
954.5612	2259.5826	2095.85	1211.05
954.6944	2261.0447	2085.9	1200.55
954.8276	2262.5062	2083.8	1198.75
954.9608	2263.9669	2081.45	1196.3
955.094	2265.4269	2079.85	1197.5
955.2271	2266.8862	2073.25	1192.3
955.3602	2268.3448	2067.8	1183.15
955.4933	2269.8026	2072	1189.85
955.6264	2271.2598	2062.1	1180.35
955.7594	2272.7162	2059.05	1177.6
955.8924	2274.1719	2068.85	1186.75
956.0253	2275.6268	2057.25	1175.35
956.1583	2277.0811	2065.15	1183.5
956.2912	2278.5346	2053.75	1171.6
956.4241	2279.9874	2048.75	1165.5
956.5569	2281.4395	2053.6	1172.15
956.6897	2282.8908	2044.6	1156.35
956.8225	2284.3414	2049.05	1163.75
956.9553	2285.7914	2041.8	1158.05
957.088	2287.2406	2032.7	1147.9
957.2207	2288.689	2034.45	1151.5
957.3534	2290.1368	2030.35	1146.1
957.486	2291.5838	2022.35	1135.55
957.6186	2293.0302	2032.75	1149.45
957.7512	2294.4758	2018.9	1137.9
957.8838	2295.9206	2015.85	1130.55
958.0163	2297.3648	2019.15	1135.65
958.1488	2298.8082	2018.5	1135.3
958.2813	2300.251	2009.7	1128.2
958.4137	2301.693	2007.2	1123.1
958.5461	2303.1343	1999.15	1115.15
958.6785	2304.5748	2007.05	1125
958.8108	2306.0147	2003.3	1119.85
958.9432	2307.4538	1997.55	1111.7
959.0754	2308.8922	1990.05	1108.6
959.2077	2310.3299	1989.1	1105.5
959.3399	2311.7669	1980.75	1098.9
959.4721	2313.2031	1979.9	1099.25
959.6043	2314.6387	1967.5	1085.25
959.7365	2316.0735	1975.35	1093.8
959.8686	2317.5076	1965.85	1082.9
960.0006	2318.941	1964.95	1082.3
960.1327	2320.3737	1970.3	1087.75
960.2647	2321.8056	1959	1073.1
960.3967	2323.2369	1965.4	1080.15
960.5287	2324.6674	1957.2	1072.1
960.6606	2326.0972	1956.9	1072.4
960.7925	2327.5263	1938.7	1056.25
960.9244	2328.9547	1943	1059.9
961.0562	2330.3823	1941.25	1059.5
961.1881	2331.8092	1939.9	1052.45
961.3198	2333.2355	1932.6	1050.5
961.4516	2334.661	1939.75	1057.5
961.5833	2336.0858	1939.45	1053.9
961.715	2337.5098	1921.45	1037.9
961.8467	2338.9332	1928.05	1045.5
961.9783	2340.3558	1935.85	1048
962.1099	2341.7778	1913.9	1032.05
962.2415	2343.199	1919.45	1033.55
962.373	2344.6195	1912.85	1029.15
962.5045	2346.0393	1910.5	1027.05
962.636	2347.4583	1917.8	1033.7
962.7675	2348.8767	1904	1019.9
962.8989	2350.2943	1914.65	1030.1
963.0303	2351.7113	1904.5	1020.3
963.1617	2353.1275	1906.05	1022.9
963.293	2354.543	1920.75	1015.7
963.4243	2355.9578	1899.35	1017.2
963.5556	2357.3718	1897.2	1015.45
963.6868	2358.7852	1900.25	1013.5
963.818	2360.1978	1886.4	1003.45
963.9492	2361.6098	1886.25	1003.45
964.0803	2363.021	1887.4	999.85
964.2114	2364.4315	1879.65	996.1
964.3425	2365.8413	1878.85	995.2
964.4736	2367.2504	1883.1	1001.25
964.6046	2368.6587	1870.6	988.25
964.7356	2370.0664	1868.15	985.7
964.8666	2371.4733	1865.2	982.15
964.9975	2372.8795	1864	983.5
965.1284	2374.285	1857.5	975.1
965.2593	2375.6899	1847.6	966.8
965.3901	2377.0939	1852.1	969.2
965.5209	2378.4973	1841.55	960
965.6517	2379.9	1851.05	967.4
965.7825	2381.3019	1845.4	963.35
965.9132	2382.7032	1842.9	961.2
966.0439	2384.1037	1832.1	950.3
966.1745	2385.5035	1830.85	948.35
966.3051	2386.9027	1830.9	950.3
966.4357	2388.3011	1829	941.4
966.5663	2389.6987	1829.25	947.05
966.6968	2391.0957	1821.4	942.45
966.8273	2392.492	1813.65	930.7
966.9578	2393.8876	1808.4	926.7
967.0882	2395.2824	1807.9	925.2
967.2186	2396.6765	1807.2	926.9
967.349	2398.07	1796.9	915.2
967.4793	2399.4627	1803.6	919.25
967.6097	2400.8547	1794.65	910.45
967.7399	2402.246	1798.55	909.3
967.8702	2403.6366	1795.15	910.85
968.0004	2405.0265	1787.7	905.5
968.1306	2406.4156	1787.2	900
968.2607	2407.8041	1785.1	901.75
968.3909	2409.1918	1782.7	896.65
968.521	2410.5789	1768.7	886.75
968.651	2411.9652	1786.3	901.7
968.781	2413.3508	1771.7	888.95
968.911	2414.7358	1771.75	889.2
969.041	2416.12	1768	887.55
969.1709	2417.5035	1763.15	879.5
969.3008	2418.8863	1749.25	864.4
969.4307	2420.2684	1766.4	885.55
969.5606	2421.6497	1754.9	869.6
969.6904	2423.0304	1745.1	865.25
969.8201	2424.4104	1746.2	863.5
969.9499	2425.7896	1750.25	865.4
970.0796	2427.1682	1735.75	852.6
970.2093	2428.546	1738.15	856.5
970.3389	2429.9232	1739.4	854.85
970.4685	2431.2996	1737.4	854.4
970.5981	2432.6753	1730.65	850.55
970.7277	2434.0503	1728.6	844.65
970.8572	2435.4246	1719.5	838.65
970.9867	2436.7982	1728.95	844.45
971.1161	2438.1711	1733.65	851.2
971.2456	2439.5433	1719.2	835.35
971.375	2440.9148	1717.85	831.15
971.5043	2442.2856	1703.85	821.1
971.6336	2443.6557	1716.95	833.1
971.7629	2445.025	1711.8	829.5
971.8922	2446.3937	1712.05	828.9
972.0214	2447.7617	1704.95	821.65
972.1506	2449.1289	1714	832.85
972.2798	2450.4955	1710.35	824.55
972.4089	2451.8613	1695.6	813.7
972.538	2453.2265	1689.1	808.9
972.6671	2454.5909	1703.65	820.7
972.7961	2455.9546	1690.65	810.1
972.9251	2457.3177	1692.6	810.05
973.0541	2458.68	1687.85	804.35
973.1831	2460.0416	1688.15	805.7
973.312	2461.4025	1692	804.9
973.4408	2462.7627	1708.5	814.35
973.5697	2464.1222	1689.45	807
973.6985	2465.4811	1683.4	799
973.8273	2466.8392	1682.05	799.7
973.956	2468.1966	1682.05	797.1
974.0847	2469.5533	1681.8	797.1
974.2134	2470.9093	1682.9	801.6
974.3421	2472.2645	1676.85	792.95
974.4707	2473.6191	1672.15	790.85
974.5993	2474.973	1668.9	785.45
974.7278	2476.3262	1671.5	787.55
974.8563	2477.6787	1664.75	783.2
974.9848	2479.0305	1668.3	785.4
975.1132	2480.3816	1664.5	780.65
975.2417	2481.7319	1667.1	783.55
975.37	2483.0816	1649.55	764.15
975.4984	2484.4306	1651.55	767.45
975.6267	2485.7789	1653.7	770.2
975.755	2487.1264	1648.4	764.25
975.8833	2488.4733	1653.7	773.75
976.0115	2489.8195	1660.4	762.1
976.1397	2491.165	1643.95	757
976.2678	2492.5097	1641.65	756
976.3959	2493.8538	1637.65	754.25
976.524	2495.1972	1630.5	748.25
976.6521	2496.5398	1623.85	738.6
976.7801	2497.8818	1638.15	754.85
976.9081	2499.2231	1622.1	741.4
977.036	2500.5637	1621.9	738.3
977.164	2501.9035	1618.1	734.2
977.2918	2503.2427	1628.5	742.7
977.4197	2504.5812	1620.05	736.7
977.5475	2505.919	1618.5	734.3
977.6753	2507.256	1612.1	728.9
977.8031	2508.5924	1608.6	728
977.9308	2509.9281	1616.1	727.45
978.0585	2511.2631	1611.1	728.25
978.1861	2512.5974	1612.7	731.7
978.3137	2513.9309	1606.6	725.5
978.4413	2515.2638	1627.15	716.15
978.5689	2516.596	1607.2	724
978.6964	2517.9275	1594.65	711.9
978.8239	2519.2583	1595.85	712.45
978.9513	2520.5884	1594.05	710.05
979.0788	2521.9178	1592.4	707.7
979.2062	2523.2465	1592.85	710.05
979.3335	2524.5745	1588.95	706.75
979.4608	2525.9018	1590.15	709.2
979.5881	2527.2284	1586	703.8
979.7154	2528.5543	1588.5	705.45
979.8426	2529.8796	1587.1	704.45
979.9698	2531.2041	1583.7	701.05
980.0969	2532.5279	1579	696.75
980.224	2533.851	1589.7	704.7
980.3511	2535.1735	1576.6	695.2
980.4781	2536.4952	1576	694.65
980.6052	2537.8163	1572.15	689.65
980.7321	2539.1366	1566.9	686.95
980.8591	2540.4562	1577.65	695.1
980.986	2541.7752	1572.55	689.7
981.1129	2543.0935	1569.35	686.95
981.2397	2544.411	1563.7	681.55
981.3665	2545.7279	1567.95	685.6
981.4933	2547.0441	1572.7	690.45
981.62	2548.3596	1576.95	691.65
981.7467	2549.6744	1558	676.55
981.8734	2550.9885	1571.55	686.4
982.0001	2552.3019	1558.55	676.05
982.1267	2553.6146	1555.15	672.5
982.2532	2554.9266	1556.7	675.4
982.3798	2556.2379	1554	670.55
982.5063	2557.5485	1551.55	670.4
982.6327	2558.8585	1558.65	668.95
982.7592	2560.1677	1551.5	665.85
982.8856	2561.4762	1555.25	673.05
983.0119	2562.7841	1546.55	658.05
983.1383	2564.0913	1544.6	665.05
983.2646	2565.3977	1547.65	665.35
983.3908	2566.7035	1539.1	656.85
983.517	2568.0086	1543.45	658.2
983.6432	2569.313	1543.25	660.45
983.7694	2570.6167	1546.2	659.05
983.8955	2571.9197	1539.4	657.55
984.0216	2573.222	1533.95	647.2
984.1476	2574.5236	1529.15	646.05
984.2737	2575.8246	1530.75	645.5
984.3996	2577.1248	1534.35	649.8
984.5256	2578.4244	1532.55	650.6
984.6515	2579.7232	1533.8	650.45
984.7774	2581.0214	1562.05	648.05
984.9032	2582.3189	1531.2	648.25
985.029	2583.6157	1543.65	656.4
985.1548	2584.9118	1527.75	644.8
985.2806	2586.2072	1529.1	647.4
985.4063	2587.5019	1536.3	651.05
985.5319	2588.7959	1536	652.2
985.6576	2590.0893	1538.2	655.3
985.7832	2591.3819	1536.35	654.75
985.9087	2592.6739	1531.65	648.2
986.0343	2593.9652	1538.05	652.85
986.1597	2595.2557	1534.5	651.4
986.2852	2596.5456	1540.7	656.5
986.4106	2597.8348	1537	653.1
986.536	2599.1234	1536.8	654.35
986.6614	2600.4112	1532.7	649
986.7867	2601.6983	1535.15	647.9
986.912	2602.9848	1533.4	649.35
987.0372	2604.2705	1537.2	649
987.1624	2605.5556	1537.5	656.15
987.2876	2606.84	1532.85	648.55
987.4128	2608.1237	1533.65	649.9
987.5379	2609.4067	1528	643.8
987.6629	2610.689	1528.65	638.35
987.788	2611.9707	1528.7	642.85
987.913	2613.2516	1520.9	634.75
988.0379	2614.5319	1504.85	622.65
988.1629	2615.8115	1513.85	628.2
988.2878	2617.0903	1517.75	636.35
988.4126	2618.3685	1511.65	627.85
988.5375	2619.6461	1507.2	623.55
988.6622	2620.9229	1508.9	625.75
988.787	2622.199	1503.7	620.55
988.9117	2623.4745	1508.85	625.65
989.0364	2624.7493	1505.65	623.8
989.161	2626.0234	1509.65	627.4
989.2857	2627.2968	1503.45	621.75
989.4102	2628.5695	1505.5	620.5
989.5348	2629.8415	1503.6	621.1
989.6593	2631.1128	1504.1	622.3
989.7837	2632.3835	1500.5	616.9
989.9082	2633.6535	1498.45	616.45
990.0326	2634.9228	1497.95	616.75
990.1569	2636.1914	1494.95	612.85
990.2812	2637.4593	1502.55	617.55
990.4055	2638.7265	1489.25	606.55
990.5298	2639.9931	1502.05	619.2
990.654	2641.259	1493.4	611.05
990.7782	2642.5242	1494.1	610.45
990.9023	2643.7887	1492.35	608.9
991.0264	2645.0525	1490.65	608.85
991.1505	2646.3156	1488.95	606.9
991.2745	2647.5781	1479.55	598.2
991.3985	2648.8398	1474.8	593.95
991.5225	2650.1009	1514.2	592.5
991.6464	2651.3613	1481.85	599.65
991.7703	2652.6211	1475	592.8
991.8942	2653.8801	1480.5	599.1
992.018	2655.1385	1475.3	589.85
992.1418	2656.3961	1479.35	596.9
992.2655	2657.6531	1471.1	590.05
992.3892	2658.9094	1478.05	594
992.5129	2660.1651	1478.2	598.25
992.6366	2661.42	1476.2	593
992.7602	2662.6743	1483.75	600.05
992.8837	2663.9279	1482.1	599.9
993.0073	2665.1808	1479.75	597.45
993.1307	2666.433	1483.35	599.2
993.2542	2667.6846	1482.25	600.7
993.3776	2668.9354	1483.75	598.65
993.501	2670.1856	1487	603.15
993.6244	2671.4351	1492.5	610.3
993.7477	2672.6839	1487.1	601.65
993.8709	2673.9321	1486.95	605.05
993.9942	2675.1795	1486.55	603.75
994.1174	2676.4263	1491.6	609.2
994.2405	2677.6724	1499.05	619.35
994.3637	2678.9179	1500.2	617.05
994.4868	2680.1626	1497.2	616
994.6098	2681.4067	1502.85	619.3
994.7328	2682.6501	1496	614.55
994.8558	2683.8928	1492.9	611.4
994.9788	2685.1348	1491.1	609.6
995.1017	2686.3761	1487.5	605.35
995.2245	2687.6168	1484.4	600.8
995.3474	2688.8568	1483.6	601.85
995.4702	2690.0961	1475.15	593.4
995.5929	2691.3348	1480.35	596.4
995.7156	2692.5727	1466.35	583.4
995.8383	2693.81	1470.3	587.15
995.961	2695.0466	1468.15	584.75
996.0836	2696.2826	1467.3	582.65
996.2062	2697.5178	1484.75	584.15
996.3287	2698.7524	1462.7	580.25
996.4512	2699.9863	1463.75	579.75
996.5737	2701.2195	1468.5	586.7
996.6961	2702.452	1474.85	589.4
996.8185	2703.6839	1479.05	594.3
996.9408	2704.9151	1478.3	596.1
997.0631	2706.1456	1483.3	597.85
997.1854	2707.3755	1484.9	602.95
997.3077	2708.6046	1496.5	611.85
997.4299	2709.8331	1499.95	617.2
997.552	2711.0609	1514.65	630.95
997.6742	2712.2881	1514.15	631.2
997.7963	2713.5145	1527.95	642
997.9183	2714.7403	1534.9	652
998.0403	2715.9654	1545.6	662.6
998.1623	2717.1899	1571.55	673.65
998.2842	2718.4136	1567	683.2
998.4062	2719.6367	1582.6	700.65
998.528	2720.8591	1592.55	702.7
998.6498	2722.0809	1599	716.45
998.7716	2723.3019	1614.85	729.4
998.8934	2724.5223	1618.5	735.5
999.0151	2725.7421	1631.95	748.75
999.1368	2726.9611	1631.55	747.1
999.2584	2728.1795	1632.85	743.55
999.38	2729.3972	1617.5	736.75
999.5016	2730.6142	1619.4	724.65
999.6231	2731.8306	1590.7	706.55
999.7446	2733.0462	1577.6	690.85
999.8661	2734.2612	1567.15	680.75
999.9875	2735.4756	1550.5	665.8
1000.1089	2736.6892	1527.65	645.2
1000.2302	2737.9022	1519.3	636.05
1000.3515	2739.1145	1504.9	621
1000.4728	2740.3262	1499.05	608.95
1000.594	2741.5372	1472.75	592.1
1000.7152	2742.7475	1461.65	580.2
1000.8363	2743.9571	1462.6	578.35
1000.9575	2745.1661	1455.45	568.05
1001.0785	2746.3744	1439.65	554.9
1001.1996	2747.582	1431.85	548.55
1001.3206	2748.7889	1416.8	533.5
1001.4415	2749.9952	1413.2	528.45
1001.5625	2751.2008	1414.55	532
1001.6833	2752.4057	1414.3	529.35
1001.8042	2753.61	1404.6	522.25
1001.925	2754.8136	1403.05	518.25
1002.0458	2756.0165	1397.85	514
1002.1665	2757.2188	1400.4	519.85
1002.2872	2758.4204	1400	516.15
1002.4078	2759.6213	1398.1	512.85
1002.5285	2760.8215	1399.2	510.35
1002.649	2762.0211	1396.6	512.7
1002.7696	2763.22	1394.75	510.6
1002.8901	2764.4182	1393.7	511
1003.0106	2765.6158	1393.25	512.7
1003.131	2766.8127	1391.3	508.65
1003.2514	2768.009	1388.45	507.85
1003.3717	2769.2045	1387.75	504.55
1003.492	2770.3994	1380.85	495.25
1003.6123	2771.5936	1378.35	494.25
1003.7325	2772.7872	1373.75	491.6
1003.8527	2773.9801	1374.7	488.55
1003.9729	2775.1723	1385.75	487.15
1004.093	2776.3639	1373.6	491.65
1004.2131	2777.5548	1371.65	485.5
1004.3331	2778.745	1374.45	487.9
1004.4531	2779.9346	1370.4	487.75
1004.5731	2781.1235	1380.75	497.05
1004.693	2782.3117	1375.4	493.45
1004.8129	2783.4992	1383.4	502.65
1004.9328	2784.6861	1387.1	505.15
1005.0526	2785.8723	1390.1	506.55
1005.1723	2787.0579	1394.9	512.4
1005.2921	2788.2428	1404.6	520
1005.4118	2789.427	1408.95	525.65
1005.5314	2790.6106	1411.05	529.2
1005.651	2791.7935	1421.75	538
1005.7706	2792.9757	1440.15	559.6
1005.8902	2794.1573	1448.3	563.6
1006.0097	2795.3382	1452.4	569.25
1006.1291	2796.5184	1465.7	584.5
1006.2485	2797.698	1479.4	595.85
1006.3679	2798.8769	1497.4	614.45
1006.4873	2800.0551	1506.55	620.9
1006.6066	2801.2327	1528.25	642.15
1006.7258	2802.4096	1541	659.35
1006.8451	2803.5859	1558.15	675.65
1006.9642	2804.7615	1580.6	698.9
1007.0834	2805.9364	1604.2	721.05
1007.2025	2807.1106	1629.35	746.9
1007.3216	2808.2842	1655.45	772.75
1007.4406	2809.4572	1687.05	803.95
1007.5596	2810.6294	1711.95	828.85
1007.6785	2811.801	1760.8	879.85
1007.7975	2812.972	1797.6	915.95
1007.9163	2814.1423	1828	946.95
1008.0352	2815.3119	1885.95	1003.4
1008.154	2816.4808	1925.25	1043.65
1008.2727	2817.6491	1981.05	1098
1008.3914	2818.8167	2024.9	1144.1
1008.5101	2819.9837	2101.85	1215.25
1008.6288	2821.15	2134.55	1251.45
1008.7474	2822.3157	2187.45	1306.55
1008.8659	2823.4807	2248.15	1366.65
1008.9844	2824.645	2299.45	1413.7
1009.1029	2825.8086	2340.75	1458.15
1009.2214	2826.9716	2382.85	1500.05
1009.3398	2828.134	2434.15	1552.1
1009.4581	2829.2957	2479.6	1598.15
1009.5764	2830.4567	2504.3	1623.55
1009.6947	2831.617	2547.15	1665.05
1009.813	2832.7767	2545.15	1663.25
1009.9312	2833.9358	2545.55	1662.2
1010.0493	2835.0941	2547.3	1661.6
1010.1675	2836.2519	2537.6	1655.3
1010.2855	2837.4089	2509.9	1624.3
1010.4036	2838.5653	2494.25	1612.55
1010.5216	2839.7211	2483.95	1602.5
1010.6396	2840.8761	2494.3	1611.85
1010.7575	2842.0306	2502.2	1620.45
1010.8754	2843.1843	2548.9	1665.45
1010.9932	2844.3374	2580.65	1700.75
1011.111	2845.4899	2625	1741.35
1011.2288	2846.6417	2699.25	1818.5
1011.3465	2847.7928	2762.75	1879.2
1011.4642	2848.9433	2836.8	1955.55
1011.5818	2850.0931	2902.4	2019.45
1011.6995	2851.2422	2981.5	2095.5
1011.817	2852.3907	3038.35	2154.15
1011.9345	2853.5385	3111.1	2227.55
1012.052	2854.6857	3175.5	2266.65
1012.1695	2855.8323	3210.7	2328.65
1012.2869	2856.9781	3267.75	2386.4
1012.4042	2858.1233	3320	2437.95
1012.5216	2859.2679	3357.2	2473.8
1012.6389	2860.4118	3415.35	2532.65
1012.7561	2861.555	3474.9	2586.85
1012.8733	2862.6976	3510.1	2626.55
1012.9905	2863.8395	3534.4	2652
1013.1076	2864.9808	3565.65	2683.25
1013.2247	2866.1214	3580.45	2697.7
1013.3417	2867.2614	3593.4	2713.4
1013.4587	2868.4007	3613.4	2731.65
1013.5757	2869.5393	3631	2748.85
1013.6926	2870.6773	3640.75	2755.65
1013.8095	2871.8146	3653	2768.15
1013.9263	2872.9513	3654.8	2769.1
1014.0431	2874.0874	3657.4	2774.65
1014.1599	2875.2227	3652.55	2768.7
1014.2766	2876.3574	3634.55	2751.75
1014.3933	2877.4915	3609.1	2726.1
1014.51	2878.6249	3579.6	2699.05
1014.6266	2879.7577	3572.35	2688.1
1014.7431	2880.8898	3552.75	2658.65
1014.8596	2882.0212	3514.3	2633.7
1014.9761	2883.152	3493.3	2612.6
1015.0925	2884.2821	3497.6	2616.45
1015.2089	2885.4116	3472.35	2590.3
1015.3253	2886.5405	3474.8	2592.65
1015.4416	2887.6686	3496.55	2609.2
1015.5579	2888.7962	3494.15	2612.2
1015.6741	2889.923	3495.3	2614.7
1015.7903	2891.0493	3522.3	2639.85
1015.9065	2892.1748	3527.3	2645.5
1016.0226	2893.2997	3528.85	2645.35
1016.1387	2894.424	3552.1	2671.2
1016.2547	2895.5476	3562.75	2681.25
1016.3707	2896.6706	3599	2717.1
1016.4866	2897.7929	3616.5	2733.2
1016.6025	2898.9145	3638.7	2756.05
1016.7184	2900.0355	3670.35	2786.45
1016.8342	2901.1559	3692.05	2807.5
1016.95	2902.2756	3720.9	2838.9
1017.0658	2903.3946	3755.5	2873.35
1017.1815	2904.513	3788.1	2902.05
1017.2971	2905.6308	3813.55	2932.2
1017.4127	2906.7479	3841.9	2959.95
1017.5283	2907.8643	3877.85	2995.85
1017.6439	2908.9801	3887.15	3005.4
1017.7594	2910.0953	3895.65	3015.3
1017.8748	2911.2098	3896.3	3009.55
1017.9902	2912.3236	3905.35	3014.3
1018.1056	2913.4368	3880.7	2995.55
1018.2209	2914.5494	3875.85	2994.1
1018.3362	2915.6613	3830.9	2942.05
1018.4515	2916.7725	3800.1	2915.25
1018.5667	2917.8831	3776.7	2892.9
1018.6819	2918.9931	3744.95	2860.25
1018.797	2920.1024	3704.75	2822.25
1018.9121	2921.211	3690.1	2805.15
1019.0271	2922.319	3667.15	2786.25
1019.1421	2923.4264	3654.5	2773.6
1019.2571	2924.5331	3638.9	2756.65
1019.372	2925.6391	3631.9	2748.9
1019.4869	2926.7445	3641.65	2761.5
1019.6017	2927.8493	3626.9	2742.3
1019.7165	2928.9534	3637.2	2753.95
1019.8313	2930.0569	3629.3	2742.7
1019.946	2931.1597	3623.35	2739.85
1020.0606	2932.2619	3620.3	2737
1020.1753	2933.3634	3628.5	2746.55
1020.2899	2934.4643	3628.65	2739.45
1020.4044	2935.5645	3607.2	2719.8
1020.5189	2936.6641	3570.85	2684.8
1020.6334	2937.763	3528.35	2647.45
1020.7478	2938.8613	3511.5	2628.25
1020.8622	2939.959	3448.85	2562
1020.9765	2941.056	3377	2496.45
1021.0908	2942.1523	3303.75	2418.05
1021.2051	2943.248	3212.25	2330.05
1021.3193	2944.3431	3125.2	2242.75
1021.4334	2945.4375	3030	2148.65
1021.5476	2946.5313	2927.2	2045.6
1021.6617	2947.6244	2825.9	1943.8
1021.7757	2948.7169	2708.15	1825.6
1021.8897	2949.8087	2622.1	1740.55
1022.0037	2950.8999	2527.5	1644.35
1022.1176	2951.9904	2448.6	1567.85
1022.2315	2953.0803	2374.35	1491.55
1022.3453	2954.1696	2305.85	1423
1022.4591	2955.2582	2246.65	1364.05
1022.5728	2956.3462	2203.4	1320.9
1022.6865	2957.4335	2165.5	1281.95
1022.8002	2958.5202	2128.4	1240.45
1022.9138	2959.6062	2103.05	1221.8
1023.0274	2960.6916	2077.7	1195
1023.141	2961.7764	2058.05	1174.95
1023.2545	2962.8605	2046.1	1162.95
1023.3679	2963.9439	2029.25	1146.05
1023.4813	2965.0267	2004.55	1120.55
1023.5947	2966.1089	2036.95	1130.05
1023.708	2967.1905	2009.7	1125.3
1023.8213	2968.2714	2001.75	1120.05
1023.9346	2969.3516	1994.05	1111.75
1024.0478	2970.4312	2003.25	1115.3
1024.1609	2971.5102	1991.85	1110.15
1024.274	2972.5885	2002.65	1119.85
1024.3871	2973.6662	2012.9	1126.6
1024.5002	2974.7432	2005.65	1122.95
1024.6132	2975.8196	1997.9	1115.2
1024.7261	2976.8954	1992.25	1108.65
1024.839	2977.9705	1985.3	1103.6
1024.9519	2979.045	1967.95	1088
1025.0647	2980.1188	1956.9	1075.95
1025.1775	2981.192	1936.75	1055.3
1025.2902	2982.2645	1913.15	1028.15
1025.4029	2983.3364	1889.05	1007.15
1025.5156	2984.4077	1866.9	985
1025.6282	2985.4783	1839.85	949.75
1025.7407	2986.5483	1806.65	925.2
1025.8532	2987.6177	1772.95	891.65
1025.9657	2988.6864	1740.45	858.3
1026.0782	2989.7545	1706.85	824.05
1026.1906	2990.8219	1675.55	792.7
1026.3029	2991.8887	1630.35	746.1
1026.4152	2992.9548	1613.3	730.6
1026.5275	2994.0204	1574.5	691.9
1026.6397	2995.0852	1550	671.4
1026.7519	2996.1495	1523.85	640.1
1026.864	2997.2131	1497.5	617.85
1026.9761	2998.276	1473.95	592.65
1027.0882	2999.3383	1456.2	572.8
1027.2002	3000.4	1432.05	550.65
1027.3122	3001.4611	1418.05	532.5
1027.4241	3002.5215	1390.1	508.6
1027.536	3003.5812	1377.9	495.55
1027.6478	3004.6404	1372.4	488.55
1027.7596	3005.6989	1365.15	480.25
1027.8714	3006.7567	1350.55	469.35
1027.9831	3007.8139	1370.1	461.9
1028.0947	3008.8705	1331.05	448.8
1028.2064	3009.9264	1342.5	442.55
1028.3179	3010.9818	1317.4	435
1028.4295	3012.0364	1316.6	433.4
1028.541	3013.0905	1319.65	436.55
1028.6524	3014.1439	1310.15	429.2
1028.7638	3015.1966	1308.05	425.3
1028.8752	3016.2487	1303.45	421.85
1028.9865	3017.3002	1310.9	425.6
1029.0978	3018.3511	1303.85	423.5
1029.209	3019.4013	1297.8	416.8
1029.3202	3020.4509	1291.6	410.65
1029.4314	3021.4998	1298.25	415.2
1029.5425	3022.5481	1294.6	411.5
1029.6535	3023.5958	1294.75	412.55
1029.7645	3024.6428	1294.8	410.6
1029.8755	3025.6892	1290	408.75
1029.9864	3026.735	1299.8	417.25
1030.0973	3027.7802	1303.35	420.9
1030.2082	3028.8247	1298.8	417.2
1030.319	3029.8685	1300.45	418
1030.4297	3030.9118	1308.8	427.05
1030.5404	3031.9544	1306.9	425.35
1030.6511	3032.9963	1310.65	430.15
1030.7617	3034.0376	1317.35	435.65
1030.8723	3035.0783	1326.6	444.15
1030.9829	3036.1184	1327.6	443.45
1031.0934	3037.1578	1329.9	449.1
1031.2038	3038.1966	1328.35	446.35
1031.3142	3039.2348	1328.6	446.9
1031.4246	3040.2723	1337.15	445
1031.5349	3041.3092	1333.95	450.9
1031.6452	3042.3455	1328.6	447.05
1031.7554	3043.3811	1326.5	445.45
1031.8656	3044.4161	1325.15	441.65
1031.9758	3045.4505	1316.6	433.8
1032.0859	3046.4842	1316.85	434
1032.1959	3047.5173	1309.75	427.95
1032.3059	3048.5498	1305.9	423.75
1032.4159	3049.5816	1299.9	416.4
1032.5258	3050.6128	1305.35	421
1032.6357	3051.6434	1293.35	409.35
1032.7455	3052.6734	1288.75	407.4
1032.8553	3053.7027	1284.65	401.5
1032.9651	3054.7314	1275.45	393.8
1033.0748	3055.7594	1272.65	391.4
1033.1845	3056.7868	1268.95	384.9
1033.2941	3057.8136	1268.8	388.35
1033.4037	3058.8398	1256.9	375.15
1033.5132	3059.8653	1257.4	373.25
1033.6227	3060.8902	1256.45	374.75
1033.7321	3061.9145	1246.85	366.2
1033.8415	3062.9381	1245.6	362.75
1033.9509	3063.9612	1253.8	355.65
1034.0602	3064.9835	1238.4	353.9
1034.1694	3066.0053	1226	342.7
1034.2787	3067.0264	1228.15	346.55
1034.3878	3068.0469	1222.6	338.45
1034.497	3069.0668	1220.95	335.05
1034.6061	3070.086	1200.35	318.9
1034.7151	3071.1046	1200.95	317.1
1034.8241	3072.1226	1194.35	311
1034.9331	3073.1399	1183.45	301.9
1035.042	3074.1567	1180.55	300.3
1035.1508	3075.1727	1171.95	287.95
1035.2597	3076.1882	1160.6	280.25
1035.3684	3077.203	1152.3	270.5
1035.4772	3078.2173	1151.4	267.3
1035.5859	3079.2308	1138.2	254.75
1035.6945	3080.2438	1132.65	249
1035.8031	3081.2561	1127.7	245
1035.9117	3082.2678	1118.8	235.5
1036.0202	3083.2789	1116.5	232.1
1036.1286	3084.2893	1106.5	225.2
1036.2371	3085.2991	1100.9	218.6
1036.3454	3086.3083	1102.4	212.7
1036.4538	3087.3169	1093.45	211.15
1036.562	3088.3248	1086.65	203.35
1036.6703	3089.3321	1080.05	196.95
1036.7785	3090.3388	1072.8	192.55
1036.8866	3091.3449	1077	194.85
1036.9948	3092.3503	1074.75	190.45
1037.1028	3093.3551	1063.45	182.05
1037.2108	3094.3593	1063.75	182.55
1037.3188	3095.3629	1059.55	179.9
1037.4267	3096.3658	1058.5	174.6
1037.5346	3097.3681	1058.05	177.7
1037.6425	3098.3698	1059.85	175.15
1037.7503	3099.3708	1057.75	174.05
1037.858	3100.3713	1043.85	161.7
1037.9657	3101.3711	1041.75	158.7
1038.0734	3102.3702	1187.55	164.7
1038.181	3103.3688	1042.95	159.8
1038.2886	3104.3667	1041.7	161.5
1038.3961	3105.364	1037.85	155.3
1038.5036	3106.3607	1038	155.05
1038.611	3107.3568	1035.8	154.5
1038.7184	3108.3522	1029.9	150.55
1038.8257	3109.347	1030.6	147.2
1038.933	3110.3412	1036.9	149.5
1039.0403	3111.3348	1031.55	146.95
1039.1475	3112.3277	1026.8	146.55
1039.2547	3113.32	1025	143.35
1039.3618	3114.3117	1020.45	137.55
1039.4689	3115.3028	1022.65	139
1039.5759	3116.2932	1021.9	136.15
1039.6829	3117.2831	1021	133.15
1039.7898	3118.2723	1020.6	136.15
1039.8967	3119.2608	1016.9	136.05
1040.0035	3120.2488	1012.45	131.25
1040.1103	3121.2361	1014.35	132.05
1040.2171	3122.2229	1011	128.75
1040.3238	3123.209	1012.1	126.6
1040.4305	3124.1944	1010	129.5
1040.5371	3125.1793	1008.8	125.15
1040.6437	3126.1635	1010.1	126.8
1040.7502	3127.1471	1006	124.65
1040.8567	3128.1301	1002.3	122.4
1040.9631	3129.1125	1001.9	120.05
1041.0695	3130.0942	1005.55	126.05
1041.1759	3131.0753	1008.35	119.7
1041.2822	3132.0558	1004.4	119.4
1041.3884	3133.0357	1002.35	120.15
1041.4946	3134.015	1001.2	119.05
1041.6008	3134.9936	999.45	113.7
1041.7069	3135.9716	1018.95	115.9
1041.813	3136.949	1000.55	121.1
1041.919	3137.9258	1012.4	111.05
1042.025	3138.902	1000	111.2
1042.1309	3139.8775	990	108.35
1042.2368	3140.8524	994.15	113.4
1042.3427	3141.8267	991.25	108.1
1042.4485	3142.8004	990	107.3
1042.5542	3143.7735	995.85	107.6
1042.6599	3144.7459	993.45	108.15
1042.7656	3145.7178	988.55	107.65
1042.8712	3146.689	982.75	102.6
1042.9768	3147.6596	983.9	103
1043.0823	3148.6295	987.5	107.05
1043.1878	3149.5989	985.35	102.75
1043.2932	3150.5676	980.9	99.2
1043.3986	3151.5357	981.4	99.95
1043.5039	3152.5032	980.45	99.6
1043.6092	3153.4701	982	100.05
1043.7145	3154.4364	979.6	94.1
1043.8197	3155.402	976.85	95.05
1043.9248	3156.367	981.55	97.05
1044.03	3157.3315	1008.5	98.5
1044.135	3158.2952	977.05	93.6
1044.24	3159.2584	973.05	91.5
1044.345	3160.221	974.25	91.85
1044.4499	3161.1829	976.5	95.95
1044.5548	3162.1442	974.7	92.4
1044.6596	3163.105	974.55	90.75
1044.7644	3164.065	975.25	93.2
1044.8692	3165.0245	975.95	90.5
1044.9739	3165.9834	971.45	90.35
1045.0785	3166.9416	968.7	86.35
1045.1831	3167.8993	974.45	93.85
1045.2877	3168.8563	968.9	87.3
1045.3922	3169.8127	969.45	87.75
1045.4966	3170.7684	969.15	87.6
1045.6011	3171.7236	969.5	86.15
1045.7054	3172.6782	969.05	87.6
1045.8098	3173.6321	967.55	84.6
1045.914	3174.5854	968.05	80.45
1046.0183	3175.5381	968.45	85.9
1046.1224	3176.4902	963.8	81.65
1046.2266	3177.4417	961.3	80.85
1046.3307	3178.3926	963	80.45
1046.4347	3179.3428	962.25	82.4
1046.5387	3180.2924	958.35	77.5
1046.6427	3181.2415	965.65	83.25
1046.7466	3182.1899	963.65	80.5
1046.8504	3183.1377	962.75	84.05
1046.9542	3184.0848	964.5	78.4
1047.058	3185.0314	960.5	79.5
1047.1617	3185.9773	960.4	81.05
1047.2654	3186.9227	960.95	77.1
1047.369	3187.8674	956.45	74.8
1047.4726	3188.8115	963.85	77.3
1047.5761	3189.755	958.45	77.4
1047.6796	3190.6979	955.25	73.8
1047.783	3191.6402	956.45	77.05
1047.8864	3192.5818	955.5	76.15
1047.9898	3193.5229	977.85	74.25
1048.0931	3194.4633	954.15	72.75
1048.1963	3195.4031	953.95	70.8
1048.2995	3196.3423	954.8	74.1
1048.4027	3197.2809	954.65	71.4
1048.5058	3198.2189	955.15	72.55
1048.6089	3199.1563	972.3	71.05
1048.7119	3200.0931	954	73.5
1048.8148	3201.0292	950.4	69.4
1048.9178	3201.9648	952.25	70.85
1049.0206	3202.8997	954.95	68.35
1049.1235	3203.834	951.3	68.65
1049.2262	3204.7677	951.4	71
1049.329	3205.7008	952.35	69.25
1049.4317	3206.6333	949.1	67.95
1049.5343	3207.5652	952.85	67.95
1049.6369	3208.4964	949.35	66.95
1049.7394	3209.4271	949.7	71.15
1049.8419	3210.3571	950.9	69.2
1049.9444	3211.2865	949.3	67.7
1050.0468	3212.2154	947.7	64.15
1050.1491	3213.1436	955.05	70.6
1050.2514	3214.0712	954.8	67.85
1050.3537	3214.9982	947.35	66.7
1050.4559	3215.9246	946.45	65.15
1050.5581	3216.8503	943.5	64
1050.6602	3217.7755	949.8	66.6
1050.7623	3218.7001	944.75	64.85
1050.8643	3219.624	947.6	65.25
1050.9663	3220.5473	948.65	64.45
1051.0682	3221.4701	946.55	62.5
1051.1701	3222.3922	942.35	59.2
1051.2719	3223.3137	945.95	64.7
1051.3737	3224.2346	943.15	60.35
1051.4754	3225.1549	942.8	60
1051.5771	3226.0746	939.65	60
1051.6788	3226.9937	941.9	59.6
1051.7804	3227.9121	942.3	60.6
1051.8819	3228.83	942.45	59.1
1051.9834	3229.7473	942	59.75
1052.0849	3230.6639	942.3	60.25
1052.1863	3231.5799	939.65	58.55
1052.2876	3232.4954	942.8	61.05
1052.3889	3233.4102	941.25	59.8
1052.4902	3234.3244	942.3	60.2
1052.5914	3235.238	939.95	60.65
1052.6926	3236.151	964.05	58.7
1052.7937	3237.0634	939.6	60.3
1052.8948	3237.9752	940.55	59.55
1052.9958	3238.8864	938.3	56.05
1053.0968	3239.797	937.3	55.85
1053.1977	3240.7069	940.15	58.7
1053.2986	3241.6163	938.95	54.5
1053.3994	3242.5251	937.7	58.05
1053.5002	3243.4332	935.45	55.6
1053.6009	3244.3408	938.85	57.9
1053.7016	3245.2477	936.4	55.85
1053.8022	3246.154	936.05	55.9
1053.9028	3247.0598	933.3	50
1054.0034	3247.9649	935.05	51.85
1054.1039	3248.8694	933.75	50.4
1054.2043	3249.7733	933.6	52
1054.3047	3250.6766	934.55	51.9
1054.4051	3251.5793	931.5	50.1
1054.5054	3252.4814	929.6	49.25
1054.6056	3253.3829	929.85	51.15
1054.7058	3254.2838	930.85	48.8
1054.806	3255.1841	931.3	49.75
1054.9061	3256.0838	931.25	49.55
1055.0061	3256.9829	928	47.1
1055.1062	3257.8814	931.75	48.15
1055.2061	3258.7792	927.95	45.1
1055.306	3259.6765	931.4	48.1
1055.4059	3260.5731	927.1	45.7
1055.5057	3261.4692	927.2	44.45
1055.6055	3262.3647	927.6	47.45
1055.7052	3263.2595	927.6	47.05
1055.8049	3264.1538	923.35	43.2
1055.9045	3265.0474	926.9	47.05
1056.0041	3265.9404	923.4	41.55
1056.1036	3266.8329	922.25	42.8
1056.2031	3267.7247	931.25	37.35
1056.3025	3268.616	921.7	39.35
1056.4019	3269.5066	922.65	41.95
1056.5013	3270.3966	920.9	35.7
1056.6005	3271.286	915.25	34.5
