Software Version:	3.9.2.0
Unit SN:	10000200
Spectrometer SN:	6960
Date:	3/14/2024 2:16:28 PM
Data Line Index:	25
Spectral Points:	2048
Integration time (ms):	125
Averages:	20
Delay (ms):	30000
Sequence Number:	1
Processing:	dark subtract
Laser Power (mW):	305
Laser Current (mA):	825
Laser Diode Temp (C):	25
Laser Case Temp (C):	29.2
System Temp (C):	29.1
Spectrometer Temp (C):	26.9
CCD Temp (C):	0.01
Secondary Temp (C):	20.013
Heatsink Temp (C):	25.117
CCDPCB Temp (C):	38.441
SecondaryPCB Temp (C):	35.985

Wavelength	RamanShift	Raw Counts	Dark Subtracted
787.061	30.1047	456.7	46.7
787.2016	32.3739	458.35	48.9
787.3422	34.6426	464.6	56.15
787.4828	36.9109	470.5	59.95
787.6235	39.1787	479.9	64.55
787.7642	41.4461	486.4	67.6
787.9049	43.7131	496.95	72.45
788.0456	45.9796	504.55	78.5
788.1863	48.2456	513.65	83.2
788.3271	50.5112	523.9	89.05
788.4679	52.7764	532.55	95.75
788.6087	55.0411	540.5	98.35
788.7496	57.3054	555	108.15
788.8904	59.5692	565.65	116.95
789.0313	61.8326	575.6	122.05
789.1722	64.0955	586	129.8
789.3132	66.3579	609.15	146.3
789.4541	68.6199	619.5	154.55
789.5951	70.8815	657.5	188.3
789.7361	73.1426	728.9	259.2
789.8771	75.4032	914.3	437.65
790.0181	77.6634	1373.1	890.55
790.1592	79.9231	2468.65	1981.6
790.3003	82.1824	4862.15	4366.4
790.4414	84.4412	9292.5	8779.6
790.5825	86.6995	15590.3	15057.75
790.7237	88.9574	21946.95	21392.9
790.8648	91.2148	26441.2	25874.15
791.006	93.4717	28698.55	28121.5
791.1472	95.7282	29291.75	28710.45
791.2885	97.9842	29316.9	28734.6
791.4297	100.2398	28865.6	28278.4
791.571	102.4949	28323.8	27733.55
791.7123	104.7495	27589.75	26998.05
791.8536	107.0036	26772.45	26179.35
791.9949	109.2573	25943.05	25348.85
792.1363	111.5105	25067.7	24471.4
792.2777	113.7632	24296.2	23699.6
792.4191	116.0154	23599.45	22992.5
792.5605	118.2672	23039.05	22439.9
792.7019	120.5185	22474.85	21873.75
792.8434	122.7693	22082.9	21479.35
792.9849	125.0197	21722.2	21114.45
793.1264	127.2696	21454.7	20845.65
793.2679	129.519	21325.65	20713.15
793.4094	131.7679	21101.35	20487.1
793.551	134.0163	20999.9	20385.55
793.6926	136.2642	20883.2	20259.85
793.8342	138.5117	20664.15	20031.55
793.9758	140.7587	20479.15	19853.75
794.1175	143.0052	20280	19651.85
794.2591	145.2512	20094.8	19465.6
794.4008	147.4967	19881.95	19251.75
794.5425	149.7417	19765.45	19133.95
794.6842	151.9863	19661.45	19027.85
794.826	154.2304	19606.85	18966.25
794.9677	156.4739	19424.9	18779
795.1095	158.717	19344.8	18698.95
795.2513	160.9596	19181.85	18532.4
795.3931	163.2017	18889.9	18237.95
795.535	165.4433	18590.9	17937.75
795.6768	167.6844	18249.35	17598.8
795.8187	169.925	17891.8	17236.1
795.9606	172.1651	17509	16846.45
796.1025	174.4047	17193.95	16531.05
796.2445	176.6439	16872.4	16207.8
796.3864	178.8825	16592.45	15926.65
796.5284	181.1206	16393.9	15721.1
796.6704	183.3582	16223.25	15546.8
796.8124	185.5954	16065.3	15389.05
796.9544	187.832	15963.15	15283.35
797.0965	190.0681	15893.15	15212.1
797.2386	192.3037	15879.3	15196.95
797.3806	194.5388	15860.45	15174.25
797.5228	196.7734	15926.5	15235.6
797.6649	199.0075	15956.55	15260.85
797.807	201.2411	16089.95	15393.65
797.9492	203.4742	16081.3	15383.75
798.0914	205.7068	16276.8	15576.95
798.2336	207.9389	16343.05	15645.6
798.3758	210.1704	16484.05	15784.7
798.518	212.4015	16617.75	15913
798.6603	214.632	16786.65	16083.1
798.8025	216.862	16983.25	16285.7
798.9448	219.0915	17154.8	16464.65
799.0871	221.3205	17429.05	16741.7
799.2294	223.549	17722.8	17042.05
799.3718	225.777	18097.6	17418
799.5141	228.0044	18581.5	17897.65
799.6565	230.2314	19165.9	18481.8
799.7989	232.4578	19672.8	18990.45
799.9413	234.6837	20120.15	19429.15
800.0837	236.909	20357.1	19665.1
800.2262	239.1339	20288.1	19569.1
800.3687	241.3582	19973.8	19267.75
800.5111	243.582	19525.7	18796.5
800.6536	245.8053	19071.15	18346.75
800.7961	248.0281	18609.55	17893.4
800.9387	250.2503	18255.1	17533.5
801.0812	252.472	18036.4	17311.8
801.2238	254.6932	17891.1	17165.15
801.3664	256.9139	17713	16982.05
801.509	259.134	17613.55	16882.45
801.6516	261.3536	17493.6	16764.65
801.7942	263.5727	17457.15	16723.85
801.9369	265.7912	17269.35	16536.2
802.0795	268.0092	17194.1	16459.5
802.2222	270.2267	17093.75	16361
802.3649	272.4436	17018.1	16283.7
802.5076	274.6601	16947.75	16204.5
802.6504	276.8759	16898.2	16160.35
802.7931	279.0913	16889.15	16150.75
802.9359	281.3061	16912.85	16172.75
803.0787	283.5204	17033.7	16288.9
803.2215	285.7341	17134.9	16390.8
803.3643	287.9473	17355.85	16598.65
803.5071	290.16	17668.25	16914.9
803.6499	292.3721	18058.05	17310.95
803.7928	294.5837	18517	17769.05
803.9357	296.7947	18908.6	18162.6
804.0786	299.0052	19112.15	18367.25
804.2215	301.2152	18944.1	18194.05
804.3644	303.4246	18472.05	17722.9
804.5074	305.6334	17872.1	17124.45
804.6503	307.8418	17279.1	16529.45
804.7933	310.0495	16807.9	16053.25
804.9363	312.2568	16489.85	15735
805.0793	314.4635	16259.45	15504.55
805.2223	316.6696	16217.6	15459.9
805.3653	318.8752	16217.3	15456.35
805.5084	321.0802	16249.65	15494.7
805.6514	323.2847	16388.3	15629.5
805.7945	325.4887	16439.35	15681.75
805.9376	327.692	16420.15	15658.35
806.0807	329.8949	16261.05	15498.6
806.2238	332.0972	15889.3	15129.05
806.367	334.2989	15601.9	14834.1
806.5101	336.5001	15289.2	14525
806.6533	338.7007	15079.35	14312.05
806.7965	340.9008	14930.2	14161.5
806.9397	343.1003	14778.65	14009.95
807.0829	345.2992	14716.65	13946.8
807.2261	347.4976	14723.65	13952.8
807.3693	349.6955	14705.3	13930.55
807.5126	351.8927	14769.1	13992.7
807.6559	354.0895	14801.95	14019
807.7991	356.2856	14815.15	14040.15
807.9424	358.4812	14793.45	14017.75
808.0857	360.6763	14808.25	14032.1
808.2291	362.8707	14739.5	13958
808.3724	365.0646	14787	14005.5
808.5158	367.258	14758.75	13973.95
808.6591	369.4508	14760.65	13973
808.8025	371.643	14833.25	14045.5
808.9459	373.8346	14772	13984.85
809.0893	376.0257	14713.55	13925.85
809.2327	378.2162	14591.35	13798.95
809.3762	380.4062	14473.8	13679.45
809.5196	382.5956	14313.45	13518.7
809.6631	384.7844	14170.95	13378.15
809.8066	386.9726	14067.25	13274.7
809.9501	389.1603	13983.95	13189.8
810.0936	391.3474	13958.95	13127.1
810.2371	393.5339	13945.55	13151.15
810.3806	395.7199	13857.3	13070.1
810.5241	397.9052	13915.95	13131.8
810.6677	400.09	13864.35	13080.65
810.8113	402.2743	13920.9	13136.95
810.9548	404.4579	13942.35	13157.55
811.0984	406.641	14098.95	13312.5
811.2421	408.8235	14325.25	13536.9
811.3857	411.0054	14697.15	13909.7
811.5293	413.1868	15226.3	14434.85
811.673	415.3675	15616.8	14825.1
811.8166	417.5477	15901.75	15108.15
811.9603	419.7273	15911.6	15115.1
812.104	421.9064	15767.85	14963.85
812.2477	424.0848	15601.35	14801.1
812.3914	426.2627	15402	14598.1
812.5351	428.4399	15017.5	14213.8
812.6788	430.6166	14602.4	13794.5
812.8226	432.7928	14181.15	13373
812.9663	434.9683	13846.2	13040.15
813.1101	437.1432	13588.15	12777.8
813.2539	439.3176	13423.15	12614.5
813.3977	441.4914	13331.25	12520.55
813.5415	443.6645	13307.4	12496.1
813.6853	445.8371	13229.4	12414.75
813.8291	448.0091	13122.9	12313.95
813.973	450.1806	13029.7	12219.75
814.1168	452.3514	12972.05	12156.85
814.2607	454.5216	12980.4	12156.7
814.4046	456.6913	12879.9	12064.55
814.5485	458.8603	12932.25	12117.05
814.6924	461.0288	12951.3	12136.7
814.8363	463.1967	12963	12147.85
814.9802	465.3639	13122	12304.6
815.1241	467.5306	13267.45	12449.1
815.2681	469.6967	13496.55	12678.5
815.412	471.8622	13664.35	12848.5
815.556	474.0271	13788.45	12975.45
815.7	476.1914	13878.95	13060.15
815.844	478.3551	13810.05	12991.35
815.988	480.5182	13773.05	12953.15
816.132	482.6807	13706.6	12889.2
816.276	484.8426	13776.95	12958.85
816.4201	487.0039	14042.4	13222.9
816.5641	489.1647	14429.95	13609.65
816.7082	491.3248	14914.45	14094.2
816.8522	493.4843	15133.4	14312.8
816.9963	495.6432	15130.7	14307.8
817.1404	497.8015	15078.45	14251.95
817.2845	499.9592	15089.9	14267.15
817.4286	502.1163	15073.85	14255.2
817.5727	504.2728	14834.25	14009.3
817.7168	506.4287	14504.7	13680.95
817.861	508.5839	14014.75	13189.25
818.0051	510.7386	13610.85	12781.65
818.1493	512.8927	13367.35	12539.95
818.2935	515.0461	13194.95	12370.55
818.4377	517.199	13062.8	12238.15
818.5818	519.3512	13002	12176.05
818.726	521.5029	12954.9	12119.8
818.8703	523.6539	12980.5	12153.55
819.0145	525.8043	12962.35	12134.7
819.1587	527.9541	13000.8	12169.6
819.303	530.1033	13046.75	12218.5
819.4472	532.2519	13141.95	12308.45
819.5915	534.3999	13329.6	12496.1
819.7357	536.5472	13651.7	12819.25
819.88	538.694	14246.1	13414.7
820.0243	540.8401	14904.95	14071.55
820.1686	542.9856	15518.05	14683.45
820.3129	545.1305	15726.35	14890.25
820.4572	547.2748	15554.7	14721.9
820.6016	549.4185	15063.75	14229.9
820.7459	551.5615	14606.4	13772.3
820.8902	553.704	14401.85	13565.25
821.0346	555.8458	14258.7	13425.05
821.1789	557.987	14169.35	13334.5
821.3233	560.1276	14057.6	13219.6
821.4677	562.2675	13919	13087.95
821.6121	564.4069	13769.85	12936.15
821.7565	566.5456	13618	12784.6
821.9009	568.6837	13436	12602.25
822.0453	570.8212	13202.5	12369.3
822.1897	572.958	12937.85	12101.8
822.3342	575.0942	12771.6	11937.7
822.4786	577.2299	12654.05	11819.15
822.6231	579.3648	12675.85	11839.8
822.7675	581.4992	12794.1	11955.35
822.912	583.6329	13039.05	12202
823.0565	585.766	13298.4	12461.7
823.201	587.8985	13436.9	12600.85
823.3454	590.0304	13417.95	12572.15
823.4899	592.1616	13367.8	12525.75
823.6345	594.2922	13251.3	12413
823.779	596.4222	13099.1	12259.6
823.9235	598.5515	12908.55	12066.45
824.068	600.6802	12704.45	11863.05
824.2126	602.8083	12560.3	11721
824.3571	604.9358	12454	11611.6
824.5017	607.0626	12339.5	11496.9
824.6462	609.1888	12235.25	11392
824.7908	611.3144	12082.35	11241
824.9354	613.4393	11904.75	11064.05
825.08	615.5636	11727.15	10884.1
825.2246	617.6873	11595.9	10753.35
825.3692	619.8103	11514.5	10670.4
825.5138	621.9327	11443.45	10597.8
825.6584	624.0544	11435.75	10593.05
825.803	626.1756	11455.9	10612.95
825.9477	628.2961	11416.35	10572.1
826.0923	630.4159	11359.2	10515.2
826.237	632.5351	11302.25	10457.85
826.3816	634.6537	11202.75	10359.1
826.5263	636.7716	11182.35	10335.65
826.6709	638.8889	11173.3	10327.25
826.8156	641.0056	11175.75	10330.45
826.9603	643.1216	11143.7	10294.4
827.105	645.237	11199.55	10349.7
827.2497	647.3518	11192.6	10346.4
827.3944	649.4659	11188.35	10340.35
827.5391	651.5793	11194.45	10346.35
827.6838	653.6922	11197.3	10349.35
827.8285	655.8043	11164.25	10316.3
827.9733	657.9159	11120.45	10269.6
828.118	660.0268	11037	10184.55
828.2627	662.137	10946.8	10098.4
828.4075	664.2466	10910.7	10060.7
828.5522	666.3556	10862.75	10011.95
828.697	668.4639	10849.1	9995
828.8418	670.5716	10883.75	10035.95
828.9865	672.6786	11003.8	10151.75
829.1313	674.785	11082.05	10229
829.2761	676.8907	11153.25	10302.7
829.4209	678.9958	11240.95	10389.05
829.5657	681.1002	11228.5	10376.75
829.7105	683.204	11165.35	10311
829.8553	685.3072	11120.6	10267.55
830.0001	687.4097	10977.95	10125.65
830.1449	689.5115	10925.3	10068.7
830.2898	691.6127	10829.35	9978.75
830.4346	693.7132	10745.65	9888.6
830.5794	695.8131	10671.4	9791.85
830.7243	697.9123	10585.7	9729.2
830.8691	700.0109	10540.75	9685.65
831.014	702.1089	10515.4	9661.6
831.1588	704.2061	10495	9639.35
831.3037	706.3028	10535.25	9679.3
831.4486	708.3987	10574	9717.5
831.5935	710.4941	10691.5	9837.7
831.7383	712.5887	10898.8	10043.85
831.8832	714.6827	11232.5	10370.75
832.0281	716.7761	11633.45	10777.2
832.173	718.8688	12066.4	11209.65
832.3179	720.9608	12278.75	11418.55
832.4628	723.0522	12279.25	11418.9
832.6077	725.1429	11968.3	11113.05
832.7527	727.233	11553.55	10696.5
832.8976	729.3224	11159.9	10300.7
833.0425	731.4112	10800.15	9939.55
833.1874	733.4993	10566.1	9706.7
833.3324	735.5867	10413.1	9552.1
833.4773	737.6735	10336.3	9475.5
833.6222	739.7596	10279.35	9417.8
833.7672	741.845	10225.35	9363.25
833.9122	743.9298	10215.75	9353.4
834.0571	746.014	10217.35	9356.95
834.2021	748.0974	10240.8	9381.5
834.347	750.1802	10242.35	9382.25
834.492	752.2624	10237.35	9378.4
834.637	754.3439	10252.15	9388.95
834.782	756.4247	10304.5	9435.85
834.9269	758.5048	10372.5	9514.4
835.0719	760.5843	10566.55	9707.5
835.2169	762.6631	10838.55	9976.3
835.3619	764.7413	11254.5	10397.75
835.5069	766.8188	11857.9	10994.9
835.6519	768.8956	12344.85	11481.6
835.7969	770.9718	12668.05	11808.05
835.9419	773.0473	12527.75	11663.8
836.0869	775.1221	12168.75	11303.8
836.232	777.1962	11772.9	10909.7
836.377	779.2697	11534	10670.65
836.522	781.3426	11633.3	10758.5
836.667	783.4147	11937.45	11075.25
836.8121	785.4862	12288.3	11428.4
836.9571	787.557	12331.65	11468.8
837.1021	789.6271	11939.6	11076.85
837.2472	791.6966	11305.1	10442.75
837.3922	793.7654	10777.15	9914.2
837.5373	795.8335	10441.3	9578.8
837.6823	797.901	10239.75	9378.25
837.8274	799.9678	10205.35	9336.2
837.9724	802.0339	10197.75	9335.95
838.1175	804.0993	10273.55	9401
838.2626	806.1641	10256.35	9392.05
838.4076	808.2282	10173.7	9310.05
838.5527	810.2916	10052.2	9187.3
838.6978	812.3544	9915.65	9052
838.8428	814.4164	9863.35	9000.35
838.9879	816.4778	9830.5	8966.1
839.133	818.5385	9773.55	8910.25
839.2781	820.5986	9839.65	8974.45
839.4232	822.658	9867.35	9002.65
839.5682	824.7166	9914.85	9049.6
839.7133	826.7747	9991.1	9127.95
839.8584	828.832	10120	9255
840.0035	830.8886	10224.3	9357.7
840.1486	832.9446	10383.3	9517.45
840.2937	834.9999	10485.6	9622.3
840.4388	837.0545	10564.6	9695.15
840.5839	839.1085	10641.5	9775.65
840.729	841.1618	10682.6	9812.85
840.8741	843.2143	10620.15	9753.8
841.0192	845.2662	10568.5	9700.75
841.1643	847.3175	10510.1	9644.45
841.3095	849.368	10400.1	9533.05
841.4546	851.4179	10258	9392.95
841.5997	853.467	10071.4	9203.9
841.7448	855.5155	9960.6	9093.4
841.8899	857.5633	9821.1	8954.25
842.0351	859.6105	9723.8	8857.45
842.1802	861.6569	9627.7	8760.6
842.3253	863.7027	9546.2	8675.8
842.4704	865.7478	9512.3	8643.6
842.6156	867.7922	9536.25	8668.05
842.7607	869.8359	9601.1	8732.1
842.9058	871.8789	9703.6	8835.1
843.0509	873.9212	9922.15	9021.25
843.1961	875.9629	10096	9229.05
843.3412	878.0039	10272.4	9402.45
843.4863	880.0441	10360.35	9490.9
843.6315	882.0837	10343.65	9475.5
843.7766	884.1226	10220.65	9351.55
843.9218	886.1609	10027.6	9161.65
844.0669	888.1984	9859.95	8992.95
844.212	890.2352	9816.6	8948.95
844.3572	892.2714	9741.75	8869
844.5023	894.3069	9673.2	8803.5
844.6475	896.3416	9624.7	8755.55
844.7926	898.3757	9609.6	8739.55
844.9377	900.4091	9595.4	8722.45
845.0829	902.4418	9598.25	8726.65
845.228	904.4739	9595.1	8725.2
845.3732	906.5052	9585.25	8716.1
845.5183	908.5358	9437.6	8566.6
845.6635	910.5658	9266.4	8395.45
845.8086	912.595	9138.6	8267.55
845.9538	914.6236	8987.6	8117.9
846.0989	916.6515	8978.35	8106.6
846.2441	918.6786	8949.6	8077.9
846.3892	920.7051	9031.75	8158.55
846.5344	922.7309	9131.75	8262.3
846.6795	924.756	9204.9	8332.3
846.8246	926.7804	9272.25	8398.45
846.9698	928.8041	9268.4	8392.55
847.1149	930.8272	9293.6	8421.9
847.2601	932.8495	9192.7	8320
847.4052	934.8711	9086.15	8213.4
847.5504	936.892	8905.1	8033.1
847.6955	938.9123	8754.35	7880.4
847.8407	940.9318	8608.9	7737.7
847.9858	942.9506	8447.3	7576.1
848.131	944.9688	8355.85	7484.8
848.2761	946.9862	8306.3	7436.25
848.4213	949.003	8269.7	7398.1
848.5664	951.019	8278.45	7407.45
848.7115	953.0344	8307.25	7435
848.8567	955.0491	8359.65	7485.9
849.0018	957.063	8421.2	7549.8
849.147	959.0763	8524.4	7655.3
849.2921	961.0888	8562.6	7690.3
849.4373	963.1007	8650.05	7779.75
849.5824	965.1119	8674.05	7798.85
849.7275	967.1223	8716.4	7845.1
849.8727	969.1321	8738.25	7866.2
850.0178	971.1412	8789.25	7916.55
850.1629	973.1495	8807.95	7937.3
850.3081	975.1572	8875.55	7965.25
850.4532	977.1641	8871.3	7998.65
850.5983	979.1704	8830.25	7954.85
850.7435	981.1759	8838	7961.3
850.8886	983.1808	8908.15	8033.2
851.0337	985.1849	9033.95	8156.3
851.1788	987.1884	9193.6	8317.95
851.324	989.1911	9384.7	8507.7
851.4691	991.1932	9550.8	8674.85
851.6142	993.1945	9595.65	8722.15
851.7593	995.1951	9582.6	8708.7
851.9045	997.1951	9531.1	8651.8
852.0496	999.1943	9421.4	8549.45
852.1947	1001.1928	9371.6	8494.75
852.3398	1003.1906	9352.2	8479.8
852.4849	1005.1877	9387.25	8510.35
852.63	1007.1841	9337.45	8463.35
852.7751	1009.1798	9202.05	8326.75
852.9202	1011.1748	9038.15	8165.9
853.0653	1013.1691	8803.85	7929.4
853.2104	1015.1627	8575.85	7700.5
853.3555	1017.1556	8395.6	7522.45
853.5006	1019.1477	8307.7	7433
853.6457	1021.1392	8230.4	7357.85
853.7908	1023.1299	8233.95	7358.5
853.9359	1025.12	8259.25	7382.9
854.081	1027.1093	8294.5	7420.3
854.2261	1029.0979	8386.7	7514.05
854.3712	1031.0859	8447.45	7573.8
854.5163	1033.0731	8436.9	7562.2
854.6613	1035.0596	8346.55	7472.5
854.8064	1037.0454	8210.9	7336.05
854.9515	1039.0304	8067.3	7189.3
855.0965	1041.0148	7940.7	7065.95
855.2416	1042.9985	7862.05	6984.9
855.3867	1044.9814	7797.65	6922.8
855.5317	1046.9636	7778.65	6899.25
855.6768	1048.9452	7753.8	6879.05
855.8219	1050.926	7750.5	6875.85
855.9669	1052.9061	7725.9	6852.5
856.112	1054.8855	7699.8	6823.8
856.257	1056.8642	7736.75	6861.05
856.4021	1058.8421	7762.1	6884.6
856.5471	1060.8194	7811.05	6937.15
856.6921	1062.7959	7843.3	6968.45
856.8372	1064.7717	7838.3	6959.6
856.9822	1066.7469	7833.1	6954.4
857.1272	1068.7213	7805.25	6927.05
857.2723	1070.695	7774.75	6898.7
857.4173	1072.6679	7672.7	6797.3
857.5623	1074.6402	7643.1	6767.9
857.7073	1076.6117	7623.25	6742.5
857.8523	1078.5826	7632	6756.95
857.9973	1080.5527	7718.65	6836.35
858.1423	1082.5221	7872.35	6997.95
858.2873	1084.4908	8113.4	7240.15
858.4323	1086.4587	8349.15	7469.85
858.5773	1088.426	8525.85	7649.25
858.7223	1090.3925	8531.4	7648.35
858.8673	1092.3584	8426.45	7550
859.0123	1094.3235	8234.95	7359.55
859.1573	1096.2879	8130	7252.5
859.3022	1098.2515	8077.85	7204.8
859.4472	1100.2145	8106	7229.65
859.5922	1102.1767	8155.2	7278.45
859.7371	1104.1382	8306.65	7429.7
859.8821	1106.099	8510.75	7630.5
860.027	1108.0591	8724.7	7849.35
860.172	1110.0185	8866.4	7987.75
860.3169	1111.9771	8863.5	7988.1
860.4619	1113.9351	8623.35	7745.15
860.6068	1115.8923	8257.35	7381
860.7517	1117.8488	7895.2	7016.75
860.8967	1119.8045	7617.1	6742.1
861.0416	1121.7596	7458.5	6580.2
861.1865	1123.7139	7388	6514.55
861.3314	1125.6675	7377.2	6502.95
861.4763	1127.6204	7456.55	6581.6
861.6212	1129.5726	7466.9	6586.8
861.7661	1131.524	7505.55	6628.85
861.911	1133.4748	7576.1	6695.6
862.0559	1135.4248	7640.4	6760.9
862.2008	1137.3741	7655.8	6777.35
862.3457	1139.3226	7616.05	6737.85
862.4905	1141.2705	7580.35	6701.8
862.6354	1143.2176	7521.75	6639.5
862.7803	1145.164	7555.45	6676.4
862.9251	1147.1097	7571.35	6694.9
863.07	1149.0546	7557.1	6677.2
863.2148	1150.9989	7447	6569.2
863.3597	1152.9424	7252.8	6375
863.5045	1154.8852	7060.6	6181.05
863.6493	1156.8272	6889.9	6012.25
863.7942	1158.7686	6827.5	5943.15
863.939	1160.7092	6781.55	5903.8
864.0838	1162.6491	6778.3	5899.7
864.2286	1164.5883	6827.1	5950.2
864.3734	1166.5267	6924.1	6045.7
864.5182	1168.4644	7048.85	6171
864.663	1170.4014	7259.65	6381.35
864.8078	1172.3377	7469.45	6592.05
864.9526	1174.2732	7709.75	6831.65
865.0974	1176.2081	7891	7013.05
865.2421	1178.1421	8038.3	7159.75
865.3869	1180.0755	8180.85	7302.4
865.5317	1182.0082	8201.7	7325.45
865.6764	1183.9401	8100.25	7220.65
865.8212	1185.8713	7909.05	7031.45
865.9659	1187.8017	7665.7	6788.4
866.1106	1189.7315	7373.5	6497.9
866.2554	1191.6605	7137.5	6230.7
866.4001	1193.5888	6925.05	6046.2
866.5448	1195.5163	6801.65	5923.35
866.6895	1197.4432	6699.65	5822.9
866.8342	1199.3693	6629.4	5749.9
866.9789	1201.2947	6574	5694.85
867.1236	1203.2193	6572.2	5692.9
867.2683	1205.1432	6614.4	5734.7
867.413	1207.0664	6647.8	5767.35
867.5576	1208.9889	6740.05	5857.7
867.7023	1210.9106	6815.6	5936.05
867.847	1212.8316	6899.9	6021.7
867.9916	1214.7519	6981.6	6093.5
868.1363	1216.6715	7018.75	6142.55
868.2809	1218.5903	7022.25	6144.25
868.4255	1220.5084	6931.2	6052.55
868.5701	1222.4257	6910.75	6031.05
868.7148	1224.3424	6860.65	5980.9
868.8594	1226.2583	6900.45	6017
869.004	1228.1735	7013.1	6133.9
869.1486	1230.0879	7151.7	6271.4
869.2932	1232.0016	7285.4	6405.05
869.4377	1233.9146	7338.15	6456.75
869.5823	1235.8269	7250.4	6371.6
869.7269	1237.7384	7095.3	6216.15
869.8715	1239.6492	6913.55	6038.7
870.016	1241.5592	6773.55	5892.4
870.1606	1243.4686	6674.55	5794.55
870.3051	1245.3772	6614.85	5736.8
870.4496	1247.285	6559.75	5681.7
870.5941	1249.1922	6504.75	5627.3
870.7387	1251.0986	6534.25	5658.35
870.8832	1253.0042	6551.95	5673.95
871.0277	1254.9092	6609.45	5729.65
871.1722	1256.8134	6707.75	5830.3
871.3167	1258.7169	6865.45	5983.1
871.4611	1260.6196	7000	6120.85
871.6056	1262.5216	7206.1	6324.6
871.7501	1264.4229	7350.9	6472.9
871.8945	1266.3234	7435	6554.9
872.039	1268.2232	7450.25	6569.05
872.1834	1270.1223	7424.75	6544.45
872.3278	1272.0207	7406.3	6525.6
872.4723	1273.9183	7357.35	6472.1
872.6167	1275.8151	7301.05	6422.65
872.7611	1277.7113	7199.85	6319.6
872.9055	1279.6067	7037.2	6158.8
873.0499	1281.5014	6869.65	5988.1
873.1943	1283.3953	6734.15	5853.05
873.3386	1285.2885	6626.65	5747.6
873.483	1287.181	6581.65	5702.85
873.6274	1289.0727	6562.6	5685.15
873.7717	1290.9637	6579.35	5698.5
873.9161	1292.854	6724.5	5848.65
874.0604	1294.7435	6879.5	5997.9
874.2047	1296.6323	7105.65	6226
874.349	1298.5204	7403.05	6518.05
874.4933	1300.4077	7648.85	6768.4
874.6376	1302.2943	7826.55	6947.2
874.7819	1304.1802	7916.95	7037.3
874.9262	1306.0653	7867.05	6986.6
875.0705	1307.9497	7742.1	6861.25
875.2147	1309.8333	7657.95	6778.15
875.359	1311.7162	7656.2	6777.2
875.5032	1313.5984	7746.85	6866.75
875.6475	1315.4798	7922.85	7027.35
875.7917	1317.3605	8142.35	7245.4
875.9359	1319.2405	8279.35	7398.1
876.0801	1321.1197	8333.6	7448.1
876.2243	1322.9982	8271.95	7387.25
876.3685	1324.876	8269.15	7387.95
876.5127	1326.753	8251.15	7371
876.6569	1328.6293	8260.55	7377.85
876.801	1330.5048	8272.55	7390.55
876.9452	1332.3796	8253.4	7373.4
877.0893	1334.2537	8242.2	7335.3
877.2335	1336.127	8166.55	7286.45
877.3776	1337.9996	8125.1	7244.05
877.5217	1339.8714	8080	7198.5
877.6658	1341.7426	8058.2	7136
877.8099	1343.6129	7962.85	7083.1
877.954	1345.4826	7863	6982.5
878.0981	1347.3515	7813.65	6928.1
878.2422	1349.2196	7752.5	6871.55
878.3862	1351.087	7746.95	6867.5
878.5303	1352.9537	7807.75	6925.9
878.6743	1354.8197	7918.4	7037.85
878.8184	1356.6849	8065.2	7183.1
878.9624	1358.5493	8141.1	7259.95
879.1064	1360.4131	8151.75	7271.45
879.2504	1362.276	8063.05	7184.5
879.3944	1364.1383	7900.5	7021.55
879.5384	1365.9998	7673.3	6786.35
879.6823	1367.8606	7402.05	6520.05
879.8263	1369.7206	7169.65	6288.15
879.9702	1371.5799	6992.75	6109.2
880.1142	1373.4384	6892.4	6011.85
880.2581	1375.2962	6754.6	5873.4
880.402	1377.1533	6538.2	5654.75
880.5459	1379.0096	6246.8	5368.9
880.6898	1380.8652	5968.5	5087.8
880.8337	1382.7201	5739.15	4859.6
880.9776	1384.5742	5539.25	4657.05
881.1215	1386.4275	5415	4531.85
881.2653	1388.2802	5309.3	4431.5
881.4092	1390.132	5223.7	4342.25
881.553	1391.9832	5176.6	4295.3
881.6968	1393.8336	5123.9	4241.75
881.8406	1395.6832	5084.25	4202.55
881.9844	1397.5322	5056.05	4175.95
882.1282	1399.3803	5026.3	4139.65
882.272	1401.2278	4993.65	4111.8
882.4158	1403.0745	5018.15	4135.45
882.5595	1404.9204	4999.8	4119.05
882.7033	1406.7656	5037.5	4154.25
882.847	1408.6101	5034.35	4152.45
882.9908	1410.4538	5056.3	4174.45
883.1345	1412.2968	5093.6	4213.35
883.2782	1414.139	5157.5	4277.35
883.4219	1415.9805	5244	4364
883.5656	1417.8213	5339.7	4451.15
883.7092	1419.6613	5517.15	4636.8
883.8529	1421.5006	5716.25	4834.1
883.9965	1423.3391	5984.45	5104.1
884.1402	1425.1769	6356	5473.25
884.2838	1427.0139	6877.95	5995.55
884.4274	1428.8502	7514.15	6631.2
884.571	1430.6858	8134.65	7251.9
884.7146	1432.5206	8593.65	7713.3
884.8582	1434.3547	8856.2	7976.35
885.0018	1436.188	8916.6	8035.65
885.1453	1438.0206	8799.05	7916.55
885.2889	1439.8524	8695.5	7814.9
885.4324	1441.6835	8570.4	7686.35
885.5759	1443.5139	8497.55	7613.95
885.7194	1445.3435	8420.85	7539.45
885.8629	1447.1724	8373.9	7491.75
886.0064	1449.0005	8275.85	7396.05
886.1499	1450.8279	8191.55	7307.95
886.2933	1452.6545	8157.75	7276.3
886.4368	1454.4804	8200	7318.1
886.5802	1456.3056	8200.6	7310.1
886.7237	1458.13	8090.5	7211.6
886.8671	1459.9536	7835.85	6953.35
887.0105	1461.7766	7459.4	6576.8
887.1539	1463.5987	7034.35	6152.1
887.2972	1465.4202	6638.1	5757.75
887.4406	1467.2409	6276.8	5396.05
887.584	1469.0608	5991.9	5110.45
887.7273	1470.88	5722.8	4841.6
887.8706	1472.6984	5495.6	4614.35
888.0139	1474.5161	5288.6	4405.05
888.1572	1476.3331	5150.65	4271.5
888.3005	1478.1493	5034.55	4152.35
888.4438	1479.9648	4938.85	4059.25
888.5871	1481.7795	4838.8	3957.75
888.7303	1483.5935	4786.9	3906.45
888.8736	1485.4067	4712.8	3832.35
889.0168	1487.2192	4658.25	3777.05
889.16	1489.031	4616.65	3732.85
889.3032	1490.842	4582.3	3701.3
889.4464	1492.6522	4546.05	3661.9
889.5896	1494.4618	4512	3627.75
889.7327	1496.2705	4491.45	3609.55
889.8759	1498.0785	4476.6	3593.45
890.019	1499.8858	4461	3581.25
890.1622	1501.6924	4444.6	3564.2
890.3053	1503.4981	4415.05	3534.5
890.4484	1505.3032	4401.65	3519.55
890.5914	1507.1075	4390.65	3509.3
890.7345	1508.911	4363.1	3482.95
890.8776	1510.7138	4328.8	3447.4
891.0206	1512.5159	4303.1	3422.35
891.1637	1514.3172	4272.45	3387.9
891.3067	1516.1178	4231.7	3352.15
891.4497	1517.9176	4203.2	3317.6
891.5927	1519.7166	4192.4	3309.75
891.7357	1521.515	4169.6	3282.85
891.8786	1523.3126	4152.55	3273.3
892.0216	1525.1094	4143.8	3261.7
892.1645	1526.9055	4112.5	3231.8
892.3074	1528.7008	4119.85	3239.3
892.4503	1530.4954	4084.8	3197.2
892.5932	1532.2893	4073.4	3192.45
892.7361	1534.0824	4058.6	3169.65
892.879	1535.8747	4061.15	3180.85
893.0218	1537.6663	4042.85	3160.4
893.1647	1539.4572	4034.2	3153.4
893.3075	1541.2473	4035.6	3155.6
893.4503	1543.0367	4018.25	3137.1
893.5931	1544.8253	4026.65	3140.9
893.7359	1546.6132	4022.4	3139.7
893.8787	1548.4003	4051	3160.8
894.0214	1550.1867	4047.8	3156.1
894.1642	1551.9723	4067.65	3180.1
894.3069	1553.7572	4079.5	3196.6
894.4496	1555.5414	4092.9	3210
894.5923	1557.3247	4150	3267.6
894.735	1559.1074	4181.45	3300.05
894.8777	1560.8893	4223.5	3345.15
895.0204	1562.6705	4286.7	3407.25
895.163	1564.4509	4360.75	3480.85
895.3056	1566.2305	4457.25	3574.35
895.4482	1568.0094	4537.25	3658
895.5908	1569.7876	4631.45	3748.35
895.7334	1571.565	4708.85	3826.9
895.876	1573.3417	4750.25	3867.25
896.0186	1575.1176	4761.45	3879.95
896.1611	1576.8928	4728.3	3847.1
896.3036	1578.6672	4640.7	3760.55
896.4461	1580.4409	4528.2	3647.3
896.5886	1582.2138	4429.4	3546.4
896.7311	1583.986	4306.15	3424.65
896.8736	1585.7575	4190.7	3311.85
897.0161	1587.5282	4118.65	3239.4
897.1585	1589.2981	4066.5	3187.45
897.3009	1591.0673	4032.7	3152.35
897.4433	1592.8358	4008.8	3128.55
897.5857	1594.6035	3987.8	3104.95
897.7281	1596.3704	3988.15	3106.15
897.8705	1598.1366	3981.45	3100.85
898.0128	1599.9021	4022.5	3140.2
898.1551	1601.6668	4058.95	3173.05
898.2975	1603.4308	4092.95	3210.85
898.4398	1605.194	4166.3	3278.3
898.5821	1606.9564	4243.7	3361.25
898.7243	1608.7182	4363.6	3476.85
898.8666	1610.4791	4488.2	3606.2
899.0088	1612.2394	4640	3759.15
899.1511	1613.9988	4835.65	3952.75
899.2933	1615.7576	5055.2	4173.3
899.4355	1617.5156	5314.9	4427.7
899.5776	1619.2728	5549.5	4671.1
899.7198	1621.0293	5728.95	4849.5
899.862	1622.785	5796.25	4913.1
900.0041	1624.54	5759.2	4874.65
900.1462	1626.2942	5624.6	4743.5
900.2883	1628.0477	5393.85	4511
900.4304	1629.8005	5117.25	4233.55
900.5725	1631.5525	4891.05	4011.15
900.7145	1633.3037	4696.25	3816.95
900.8566	1635.0542	4540.9	3660.65
900.9986	1636.804	4378.5	3496.5
901.1406	1638.553	4351.1	3397.95
901.2826	1640.3013	4250.15	3370.25
901.4245	1642.0488	4197.1	3315.6
901.5665	1643.7955	4211	3333.55
901.7085	1645.5416	4222.6	3340.25
901.8504	1647.2868	4264.35	3385.15
901.9923	1649.0313	4350.85	3469.55
902.1342	1650.7751	4500.55	3617.2
902.2761	1652.5181	4704.9	3826.8
902.4179	1654.2604	4953.15	4068.6
902.5598	1656.0019	5283.7	4405.45
902.7016	1657.7427	5637.6	4757.65
902.8434	1659.4828	5991.7	5112.95
902.9852	1661.222	6228.3	5347.25
903.127	1662.9606	6283.9	5403.65
903.2687	1664.6984	6118.8	5238.2
903.4105	1666.4354	5753.3	4872.35
903.5522	1668.1717	5314.1	4434.2
903.6939	1669.9072	4866.4	3987.25
903.8356	1671.642	4479.95	3596.75
903.9773	1673.3761	4207.8	3328.7
904.119	1675.1094	3966.6	3085.95
904.2606	1676.8419	3805.2	2924.25
904.4022	1678.5737	3683.65	2803.45
904.5439	1680.3048	3584.25	2704.9
904.6855	1682.0351	3528.95	2648.8
904.827	1683.7646	3466.25	2581
904.9686	1685.4934	3427.3	2547.6
905.1101	1687.2215	3385	2505.4
905.2517	1688.9488	3358.25	2478.05
905.3932	1690.6754	3331.8	2454.05
905.5347	1692.4012	3311.55	2431.75
905.6761	1694.1263	3296.75	2417.3
905.8176	1695.8506	3272.5	2392.35
905.9591	1697.5742	3254.5	2374.45
906.1005	1699.297	3232.7	2350.95
906.2419	1701.0191	3206.8	2326.55
906.3833	1702.7404	3195.05	2316.25
906.5246	1704.461	3177.8	2296.75
906.666	1706.1808	3153.5	2272
906.8073	1707.8999	3144.35	2262.8
906.9487	1709.6182	3138.8	2259.65
907.09	1711.3358	3113.65	2233.95
907.2313	1713.0527	3105.55	2226.05
907.3725	1714.7688	3104.5	2216.95
907.5138	1716.4841	3088.8	2207.25
907.655	1718.1987	3079.75	2194.4
907.7962	1719.9126	3077.55	2197.95
907.9374	1721.6257	3045.55	2160.9
908.0786	1723.338	3040.5	2158.1
908.2198	1725.0496	3034.2	2153.55
908.3609	1726.7605	3028.15	2146.95
908.502	1728.4706	3013.05	2129.6
908.6431	1730.18	2992	2110.35
908.7842	1731.8886	2998.75	2118.5
908.9253	1733.5964	2983.25	2098.95
909.0664	1735.3036	2974.3	2091.45
909.2074	1737.0099	2968.75	2088.1
909.3484	1738.7156	2963.65	2083.45
909.4894	1740.4204	2959.4	2073.1
909.6304	1742.1246	2953.35	2072.2
909.7714	1743.8279	2948.45	2069.4
909.9123	1745.5306	2935.1	2053.8
910.0532	1747.2325	2921.55	2040.9
910.1941	1748.9336	2910.5	2031.5
910.335	1750.634	2905.05	2022.85
910.4759	1752.3336	2891.8	2012.8
910.6168	1754.0325	2904.4	2024.85
910.7576	1755.7307	2890.55	2011.95
910.8984	1757.4281	2872.85	1994.35
911.0392	1759.1247	2890.5	2002.6
911.18	1760.8206	2879.1	1997.3
911.3208	1762.5158	2871.95	1988.95
911.4615	1764.2102	2847.8	1969.05
911.6022	1765.9039	2857.85	1977.45
911.7429	1767.5968	2841.75	1960.85
911.8836	1769.289	2842.6	1962.6
912.0243	1770.9804	2844.65	1962.25
912.1649	1772.6711	2836.8	1956.6
912.3056	1774.361	2821.55	1942.5
912.4462	1776.0502	2817.95	1939.7
912.5868	1777.7386	2810.4	1928.05
912.7274	1779.4263	2803.45	1921.4
912.8679	1781.1132	2799.15	1915.6
913.0084	1782.7994	2794.1	1913.35
913.149	1784.4849	2796.6	1916.95
913.2895	1786.1696	2793.25	1894.15
913.4299	1787.8535	2785.35	1906.75
913.5704	1789.5367	2773.55	1893.4
913.7108	1791.2192	2777.65	1897.7
913.8513	1792.9009	2781.5	1872.65
913.9917	1794.5818	2760.2	1879.6
914.132	1796.2621	2761.3	1882.55
914.2724	1797.9415	2758.55	1878.05
914.4128	1799.6202	2753.6	1874.1
914.5531	1801.2982	2746.25	1866.75
914.6934	1802.9755	2733.05	1854.05
914.8337	1804.6519	2731.6	1852.35
914.9739	1806.3277	2734.15	1854.1
915.1142	1808.0027	2717.6	1837.5
915.2544	1809.6769	2721.55	1840.7
915.3946	1811.3504	2710.7	1830.25
915.5348	1813.0231	2718.1	1836.75
915.675	1814.6951	2691.75	1813.2
915.8151	1816.3664	2716.2	1833.2
915.9553	1818.0369	2697.8	1816.1
916.0954	1819.7067	2698	1819.35
916.2355	1821.3757	2690.35	1806.85
916.3755	1823.044	2689.6	1810.6
916.5156	1824.7115	2681.35	1802.15
916.6556	1826.3783	2672.95	1793.75
916.7956	1828.0443	2659.55	1781.55
916.9356	1829.7096	2663.85	1782.75
917.0756	1831.3741	2663.15	1779.1
917.2155	1833.0379	2660.3	1783.65
917.3555	1834.701	2649.4	1766.5
917.4954	1836.3633	2656.6	1776.35
917.6353	1838.0248	2642.05	1759.8
917.7751	1839.6856	2637.15	1756.5
917.915	1841.3457	2633.25	1754.45
918.0548	1843.005	2627.1	1744.85
918.1946	1844.6636	2629.6	1749.85
918.3344	1846.3214	2628	1745.25
918.4742	1847.9785	2626.8	1746.6
918.6139	1849.6349	2624.4	1744.15
918.7537	1851.2904	2626.15	1736.4
918.8934	1852.9453	2609.85	1730.8
919.0331	1854.5994	2607.85	1727.15
919.1727	1856.2528	2623.2	1737.65
919.3124	1857.9054	2599.5	1722.15
919.452	1859.5572	2598.65	1719.25
919.5916	1861.2083	2597.9	1717
919.7312	1862.8587	2593.75	1715.7
919.8708	1864.5084	2584.7	1703.9
920.0103	1866.1572	2583.05	1702.7
920.1498	1867.8054	2559.25	1678.25
920.2893	1869.4528	2567.8	1687.75
920.4288	1871.0994	2554.4	1676.35
920.5683	1872.7453	2568.5	1687.75
920.7077	1874.3905	2571.95	1674.35
920.8471	1876.0349	2552.6	1671.15
920.9865	1877.6786	2544.45	1663
921.1259	1879.3215	2555.25	1677.9
921.2653	1880.9637	2544.35	1664.25
921.4046	1882.6051	2525.2	1644.85
921.5439	1884.2458	2528.85	1645.5
921.6832	1885.8858	2513.95	1632.85
921.8225	1887.525	2522.45	1640.75
921.9617	1889.1634	2513.95	1633.5
922.101	1890.8011	2501	1619.4
922.2402	1892.4381	2496.7	1616.05
922.3794	1894.0743	2485.05	1605.05
922.5185	1895.7098	2496.3	1615.8
922.6577	1897.3446	2498.4	1618.85
922.7968	1898.9786	2487.75	1603.15
922.9359	1900.6118	2484.1	1604.85
923.075	1902.2443	2469.05	1585.85
923.214	1903.8761	2474.65	1597.2
923.3531	1905.5071	2464.6	1581.95
923.4921	1907.1374	2457.65	1579.65
923.6311	1908.7669	2464.65	1584.2
923.77	1910.3957	2451.85	1570
923.909	1912.0237	2452.2	1572
924.0479	1913.651	2450.85	1570
924.1868	1915.2776	2435.35	1555.45
924.3257	1916.9034	2436.85	1559.5
924.4646	1918.5285	2425.5	1545.6
924.6034	1920.1528	2423.15	1543.5
924.7422	1921.7764	2416.65	1536.4
924.881	1923.3992	2407.55	1528.6
925.0198	1925.0213	2405.25	1524.65
925.1586	1926.6427	2404.2	1522.85
925.2973	1928.2633	2489.7	1508.15
925.436	1929.8832	2414.65	1531.75
925.5747	1931.5023	2394.35	1513.85
925.7134	1933.1207	2383.85	1502.25
925.852	1934.7383	2382.95	1500.35
925.9906	1936.3552	2368.8	1489.65
926.1292	1937.9714	2372.85	1490.4
926.2678	1939.5868	2383.25	1503.6
926.4064	1941.2015	2359.95	1480.65
926.5449	1942.8154	2349	1467.8
926.6834	1944.4286	2330.8	1451.95
926.8219	1946.041	2348.5	1442.9
926.9604	1947.6528	2330.2	1446.1
927.0988	1949.2637	2329.5	1451.95
927.2372	1950.8739	2314.9	1433.2
927.3756	1952.4834	2312.75	1433.7
927.514	1954.0921	2306.55	1424.5
927.6523	1955.7001	2313.55	1428.7
927.7907	1957.3074	2309.75	1431.55
927.929	1958.9139	2288.6	1409.25
928.0673	1960.5197	2295.35	1412.9
928.2055	1962.1247	2278	1398.6
928.3438	1963.729	2275.8	1398.05
928.482	1965.3325	2293.3	1388.55
928.6202	1966.9353	2275.3	1394.65
928.7584	1968.5374	2270.75	1390.25
928.8965	1970.1387	2259.55	1377.95
929.0346	1971.7393	2261.7	1381.3
929.1727	1973.3392	2250.75	1371.05
929.3108	1974.9383	2244.55	1364.75
929.4489	1976.5366	2233.25	1353.75
929.5869	1978.1342	2243.1	1362.4
929.7249	1979.7311	2243.2	1360.8
929.8629	1981.3273	2231.65	1351.05
930.0009	1982.9227	2221.95	1339.95
930.1388	1984.5173	2219.6	1339.9
930.2767	1986.1112	2216.65	1335.3
930.4146	1987.7044	2211.45	1331.85
930.5525	1989.2968	2217.95	1336.1
930.6904	1990.8885	2216.1	1332.35
930.8282	1992.4795	2209.95	1326.95
930.966	1994.0697	2196.4	1317.45
931.1038	1995.6592	2199.05	1318.1
931.2415	1997.2479	2188.15	1309.45
931.3793	1998.8359	2188.8	1308.5
931.517	2000.4232	2183.95	1305.55
931.6547	2002.0097	2185.45	1306.5
931.7923	2003.5955	2177.2	1297.5
931.93	2005.1805	2173.7	1292.6
932.0676	2006.7648	2173.4	1293.05
932.2052	2008.3484	2164.45	1282.75
932.3427	2009.9312	2169.35	1287.85
932.4803	2011.5133	2156.6	1277.1
932.6178	2013.0946	2157.9	1277.95
932.7553	2014.6752	2151.15	1272.15
932.8928	2016.2551	2148.7	1267.1
933.0302	2017.8342	2147.75	1267.75
933.1676	2019.4126	2132.85	1252.75
933.305	2020.9902	2140.85	1261.75
933.4424	2022.5672	2143.85	1261.15
933.5798	2024.1433	2144	1259
933.7171	2025.7188	2119.3	1240.95
933.8544	2027.2935	2118.85	1235.9
933.9917	2028.8674	2119.35	1239.95
934.129	2030.4406	2122.95	1242.8
934.2662	2032.0131	2106.35	1226
934.4034	2033.5849	2118.6	1234.95
934.5406	2035.1559	2109.5	1229.05
934.6778	2036.7261	2108.55	1228.4
934.8149	2038.2957	2103.9	1224.3
934.952	2039.8645	2096.05	1217.2
935.0891	2041.4325	2098.6	1216.65
935.2262	2042.9998	2092.55	1212.85
935.3632	2044.5664	2088.8	1206.85
935.5002	2046.1323	2083.25	1202.65
935.6372	2047.6974	2081.1	1199.6
935.7742	2049.2617	2075.55	1195.7
935.9111	2050.8254	2095.85	1194.15
936.048	2052.3883	2081.6	1201.2
936.1849	2053.9504	2062.45	1182.65
936.3218	2055.5118	2071.4	1189.2
936.4586	2057.0725	2058.2	1174.85
936.5955	2058.6325	2061.7	1180.25
936.7323	2060.1917	2057.05	1176.1
936.869	2061.7502	2058.4	1175
937.0058	2063.3079	2049.3	1167.75
937.1425	2064.8649	2051.75	1167.95
937.2792	2066.4212	2044.35	1163.6
937.4159	2067.9767	2037.95	1158.3
937.5525	2069.5315	2035.55	1154.9
937.6891	2071.0856	2020.15	1137.5
937.8257	2072.6389	2025.95	1144.3
937.9623	2074.1915	2019.75	1139.9
938.0989	2075.7433	2007.2	1127.65
938.2354	2077.2945	2010.7	1131.65
938.3719	2078.8448	2005.15	1124.05
938.5084	2080.3945	2006.25	1126
938.6448	2081.9434	2006.85	1126.95
938.7812	2083.4916	2000.6	1119.9
938.9176	2085.039	1983.65	1102.7
939.054	2086.5857	1982.55	1101.35
939.1903	2088.1317	1987.9	1106.4
939.3267	2089.677	1994.2	1111.9
939.463	2091.2215	1979.7	1101.9
939.5992	2092.7652	1978.7	1095.6
939.7355	2094.3083	1981.5	1101.45
939.8717	2095.8506	1977.85	1098.8
940.0079	2097.3921	1974.35	1095.2
940.1441	2098.933	1980.1	1100.9
940.2802	2100.4731	1959.15	1079.2
940.4163	2102.0124	1971.45	1084
940.5524	2103.5511	1964.55	1083.45
940.6885	2105.089	1971.35	1090.3
940.8245	2106.6261	1954.5	1072.3
940.9606	2108.1626	1955.5	1074.5
941.0965	2109.6983	1990.4	1077.25
941.2325	2111.2332	1951.3	1067.9
941.3684	2112.7675	1945.35	1062.35
941.5044	2114.301	1940.9	1059.4
941.6403	2115.8337	1945.2	1065.75
941.7761	2117.3657	1945.7	1065.3
941.912	2118.897	1935.25	1053.9
942.0478	2120.4276	1933.65	1046.75
942.1835	2121.9575	1923.9	1043.05
942.3193	2123.4866	1950.75	1056.15
942.455	2125.0149	1925.3	1041.75
942.5907	2126.5426	1918.3	1037.8
942.7264	2128.0695	1919.5	1033.5
942.8621	2129.5956	1920.45	1038
942.9977	2131.1211	1922.1	1037
943.1333	2132.6458	1919.35	1039.65
943.2689	2134.1698	1907.5	1028.35
943.4044	2135.693	1916.55	1032.35
943.54	2137.2155	1902.9	1019.8
943.6755	2138.7373	1903.35	1025
943.8109	2140.2584	1903.1	1021.2
943.9464	2141.7787	1900.4	1013.6
944.0818	2143.2983	1890.5	1009.35
944.2172	2144.8171	1892.55	1011.3
944.3526	2146.3353	1890.65	1007.7
944.4879	2147.8527	1877.65	996.95
944.6232	2149.3693	1886.05	1004.9
944.7585	2150.8853	1878.8	997.35
944.8938	2152.4005	1871.2	989.55
945.029	2153.9149	1870	991.25
945.1642	2155.4287	1876.15	995
945.2994	2156.9417	1875.7	992.5
945.4346	2158.454	1864.2	980.5
945.5697	2159.9655	1858.05	975
945.7048	2161.4764	1862.95	983.2
945.8399	2162.9865	1857.4	974.7
945.9749	2164.4958	1863.1	978.2
946.1099	2166.0045	1858.3	973
946.2449	2167.5124	1856.35	974.6
946.3799	2169.0195	1844.5	962.55
946.5148	2170.526	1853.15	971.9
946.6498	2172.0317	1847.6	967.4
946.7846	2173.5367	1846.85	962.9
946.9195	2175.0409	1840.95	959.95
947.0543	2176.5445	1838.45	958.05
947.1891	2178.0473	1832.1	949.2
947.3239	2179.5494	1843.05	957.65
947.4587	2181.0507	1826.1	946.75
947.5934	2182.5513	1830.2	949.85
947.7281	2184.0512	1832.45	952.05
947.8628	2185.5504	1827.25	945.35
947.9974	2187.0488	1821.05	938.8
948.132	2188.5465	1815.8	935.5
948.2666	2190.0435	1817.3	933.5
948.4012	2191.5397	1811.35	930.85
948.5357	2193.0353	1805.3	927.3
948.6702	2194.5301	1812.95	929.9
948.8047	2196.0241	1802.5	921.5
948.9392	2197.5175	1806.35	927.05
949.0736	2199.0101	1806.55	920.95
949.208	2200.502	1792.7	913.25
949.3424	2201.9931	1794.2	911.2
949.4767	2203.4835	1780.65	898.9
949.611	2204.9733	1799.8	911.5
949.7453	2206.4622	1783.3	903.2
949.8796	2207.9505	1789.05	904.5
950.0138	2209.438	1776.75	897.1
950.148	2210.9248	1774.5	893.4
950.2822	2212.4109	1773.85	893
950.4164	2213.8962	1772.4	887.85
950.5505	2215.3809	1773.5	890.5
950.6846	2216.8648	1766.15	882.8
950.8186	2218.3479	1773.3	888.1
950.9527	2219.8304	1762.9	880.3
951.0867	2221.3121	1758.55	876.15
951.2207	2222.7931	1752.3	871.45
951.3546	2224.2733	1748.5	866.6
951.4886	2225.7529	1741.7	860.1
951.6225	2227.2317	1751.65	864.9
951.7563	2228.7098	1748.45	868.4
951.8902	2230.1872	1739.55	858.3
952.024	2231.6638	1737.25	854.6
952.1578	2233.1397	1739.1	853.75
952.2916	2234.6149	1728.4	847.15
952.4253	2236.0894	1730.75	846.55
952.559	2237.5632	1724.55	841.7
952.6927	2239.0362	1720.8	840.8
952.8263	2240.5085	1712.35	833.35
952.9599	2241.9801	1715.1	832
953.0935	2243.4509	1717.4	835.4
953.2271	2244.921	1709.55	830.3
953.3606	2246.3904	1710.85	825.2
953.4941	2247.8591	1697.5	816.85
953.6276	2249.3271	1698.85	816.7
953.7611	2250.7943	1696.65	815.55
953.8945	2252.2608	1695.05	814.15
954.0279	2253.7266	1693.7	813.5
954.1612	2255.1917	1684.05	803.15
954.2946	2256.656	1686.45	804.65
954.4279	2258.1197	1684.2	803.65
954.5612	2259.5826	1688.45	805.55
954.6944	2261.0447	1684.2	801.45
954.8276	2262.5062	1682.55	798.45
954.9608	2263.9669	1680.3	797
955.094	2265.4269	1675.35	796.05
955.2271	2266.8862	1671.9	790.6
955.3602	2268.3448	1679.55	798.85
955.4933	2269.8026	1678.75	796.9
955.6264	2271.2598	1674.15	791.75
955.7594	2272.7162	1660.5	780.8
955.8924	2274.1719	1668.6	787.8
956.0253	2275.6268	1662.75	780.35
956.1583	2277.0811	1662.8	781.35
956.2912	2278.5346	1661	781.5
956.4241	2279.9874	1664.75	781.05
956.5569	2281.4395	1666.95	786.85
956.6897	2282.8908	1667.55	781.8
956.8225	2284.3414	1658.45	776.3
956.9553	2285.7914	1647.6	766.55
957.088	2287.2406	1647.05	764.1
957.2207	2288.689	1655.45	775.5
957.3534	2290.1368	1649.65	766.75
957.486	2291.5838	1645.25	762.55
957.6186	2293.0302	1639.6	758.15
957.7512	2294.4758	1641.3	760.35
957.8838	2295.9206	1637.95	756.05
958.0163	2297.3648	1641.2	759.65
958.1488	2298.8082	1638.45	755.1
958.2813	2300.251	1633.6	752.55
958.4137	2301.693	1627	740.7
958.5461	2303.1343	1626.85	745.35
958.6785	2304.5748	1630.45	749.45
958.8108	2306.0147	1624.55	742.45
958.9432	2307.4538	1630.25	747.25
959.0754	2308.8922	1618.6	739.3
959.2077	2310.3299	1612.25	732
959.3399	2311.7669	1615.4	733.6
959.4721	2313.2031	1619.35	737.75
959.6043	2314.6387	1610.85	728.75
959.7365	2316.0735	1600.9	720.4
959.8686	2317.5076	1607.7	725.85
960.0006	2318.941	1603.65	723.9
960.1327	2320.3737	1598.9	718.45
960.2647	2321.8056	1599.35	715.15
960.3967	2323.2369	1594.35	712.2
960.5287	2324.6674	1593.6	709.6
960.6606	2326.0972	1585.65	703.85
960.7925	2327.5263	1590.05	709.55
960.9244	2328.9547	1591.65	708.55
961.0562	2330.3823	1588.15	706.2
961.1881	2331.8092	1595.5	711.05
961.3198	2333.2355	1582.9	701.75
961.4516	2334.661	1579.65	697.7
961.5833	2336.0858	1581.85	697.9
961.715	2337.5098	1576.25	693.6
961.8467	2338.9332	1574.55	693.25
961.9783	2340.3558	1571.95	689.5
962.1099	2341.7778	1572.45	691.9
962.2415	2343.199	1574.35	690.8
962.373	2344.6195	1567.05	685.95
962.5045	2346.0393	1569.4	688.05
962.636	2347.4583	1572.25	690.05
962.7675	2348.8767	1568.75	687
962.8989	2350.2943	1571.9	689.55
963.0303	2351.7113	1574.35	693.6
963.1617	2353.1275	1558.25	676.8
963.293	2354.543	1585.7	681.2
963.4243	2355.9578	1561.45	679.25
963.5556	2357.3718	1562.55	683.45
963.6868	2358.7852	1565.8	680.7
963.818	2360.1978	1556.05	674
963.9492	2361.6098	1558.3	678.55
964.0803	2363.021	1557.8	672.2
964.2114	2364.4315	1553.7	674.35
964.3425	2365.8413	1542.55	660.45
964.4736	2367.2504	1544.05	663.2
964.6046	2368.6587	1550.7	671.15
964.7356	2370.0664	1537	657.05
964.8666	2371.4733	1535.75	654.85
964.9975	2372.8795	1539.85	659.5
965.1284	2374.285	1539.65	658.55
965.2593	2375.6899	1525.85	644.95
965.3901	2377.0939	1530.15	648.25
965.5209	2378.4973	1524	643.95
965.6517	2379.9	1534.05	652.65
965.7825	2381.3019	1531.2	650.35
965.9132	2382.7032	1522.45	642.85
966.0439	2384.1037	1519.4	640.25
966.1745	2385.5035	1518.45	638.1
966.3051	2386.9027	1511.5	631.85
966.4357	2388.3011	1512.9	627.45
966.5663	2389.6987	1515.2	635.55
966.6968	2391.0957	1507.15	627.85
966.8273	2392.492	1498.6	620.55
966.9578	2393.8876	1505.5	625.05
967.0882	2395.2824	1496.95	617.7
967.2186	2396.6765	1498.5	620.6
967.349	2398.07	1490.65	610
967.4793	2399.4627	1501	618.45
967.6097	2400.8547	1489.85	610.8
967.7399	2402.246	1497.45	608.2
967.8702	2403.6366	1494.15	613.5
968.0004	2405.0265	1483.95	604.25
968.1306	2406.4156	1488.55	604.8
968.2607	2407.8041	1481.25	596.15
968.3909	2409.1918	1490.05	607.85
968.521	2410.5789	1483.3	602.5
968.651	2411.9652	1483.9	600.65
968.781	2413.3508	1487.2	607.2
968.911	2414.7358	1483.8	603.9
969.041	2416.12	1471.8	594.8
969.1709	2417.5035	1472.75	594.95
969.3008	2418.8863	1479.95	598.8
969.4307	2420.2684	1473.1	591.8
969.5606	2421.6497	1469.4	588.15
969.6904	2423.0304	1459.15	577.5
969.8201	2424.4104	1471.45	591.9
969.9499	2425.7896	1464.2	583.4
970.0796	2427.1682	1462.45	581.65
970.2093	2428.546	1465.25	583.2
970.3389	2429.9232	1456.75	576.85
970.4685	2431.2996	1462	581.1
970.5981	2432.6753	1459.15	578.55
970.7277	2434.0503	1457.15	576.5
970.8572	2435.4246	1450.1	570.7
970.9867	2436.7982	1454.65	571.2
971.1161	2438.1711	1446.5	566.75
971.2456	2439.5433	1446.45	565
971.375	2440.9148	1444.8	558.95
971.5043	2442.2856	1444.5	567
971.6336	2443.6557	1449.2	564.75
971.7629	2445.025	1439.4	559.7
971.8922	2446.3937	1443.15	561.95
972.0214	2447.7617	1442.15	561.15
972.1506	2449.1289	1439.1	559.15
972.2798	2450.4955	1440.95	555.25
972.4089	2451.8613	1441.6	562.2
972.538	2453.2265	1432.9	553.15
972.6671	2454.5909	1432.6	551.2
972.7961	2455.9546	1433.05	553.1
972.9251	2457.3177	1428.65	549.45
973.0541	2458.68	1430.8	549.7
973.1831	2460.0416	1432	551.45
973.312	2461.4025	1431.55	549.45
973.4408	2462.7627	1439.35	547.2
973.5697	2464.1222	1424.7	543.35
973.6985	2465.4811	1431.45	549.4
973.8273	2466.8392	1428.65	548.6
973.956	2468.1966	1417.2	533.7
974.0847	2469.5533	1431.85	548.65
974.2134	2470.9093	1428.7	549.7
974.3421	2472.2645	1431.35	550.1
974.4707	2473.6191	1425.7	547.2
974.5993	2474.973	1417.8	537.15
974.7278	2476.3262	1424.55	541.5
974.8563	2477.6787	1417.7	538.4
974.9848	2479.0305	1418.75	537.95
975.1132	2480.3816	1417.15	535.8
975.2417	2481.7319	1421.35	542.35
975.37	2483.0816	1408.7	526
975.4984	2484.4306	1408	527
975.6267	2485.7789	1413.65	532.45
975.755	2487.1264	1404.85	521.9
975.8833	2488.4733	1405.45	526.3
976.0115	2489.8195	1419.25	520.95
976.1397	2491.165	1403.7	519.65
976.2678	2492.5097	1403.75	519.35
976.3959	2493.8538	1405.45	526.8
976.524	2495.1972	1400.35	519.1
976.6521	2496.5398	1393.15	510.25
976.7801	2497.8818	1402.15	520.05
976.9081	2499.2231	1394.15	511.2
977.036	2500.5637	1400.1	519.6
977.164	2501.9035	1386.3	503.5
977.2918	2503.2427	1393.55	510.75
977.4197	2504.5812	1397	516.95
977.5475	2505.919	1397.5	513.8
977.6753	2507.256	1390.25	508.7
977.8031	2508.5924	1381.1	499.8
977.9308	2509.9281	1386.1	499.05
978.0585	2511.2631	1380.15	500.05
978.1861	2512.5974	1377.75	496.3
978.3137	2513.9309	1390.05	507.65
978.4413	2515.2638	1405.9	495
978.5689	2516.596	1381	501.7
978.6964	2517.9275	1376.35	492.8
978.8239	2519.2583	1378.9	496.3
978.9513	2520.5884	1371.45	489
979.0788	2521.9178	1371.55	489.65
979.2062	2523.2465	1368.9	489.6
979.3335	2524.5745	1362.95	482.05
979.4608	2525.9018	1366.75	484.7
979.5881	2527.2284	1357.5	479.25
979.7154	2528.5543	1367.8	488.75
979.8426	2529.8796	1367.8	486.3
979.9698	2531.2041	1359.55	478.65
980.0969	2532.5279	1361.45	480.1
980.224	2533.851	1361.85	482.4
980.3511	2535.1735	1360.4	480
980.4781	2536.4952	1358.2	476.95
980.6052	2537.8163	1363.95	481.95
980.7321	2539.1366	1353.55	474.9
980.8591	2540.4562	1355.7	474.4
980.986	2541.7752	1360.35	479.55
981.1129	2543.0935	1353.5	471.8
981.2397	2544.411	1358.45	476.7
981.3665	2545.7279	1353.1	471.85
981.4933	2547.0441	1359.6	479.9
981.62	2548.3596	1357.25	476.6
981.7467	2549.6744	1350.75	471.95
981.8734	2550.9885	1347.85	465.35
982.0001	2552.3019	1353.45	471.4
982.1267	2553.6146	1334.85	452.7
982.2532	2554.9266	1346.6	465.25
982.3798	2556.2379	1340.7	456.25
982.5063	2557.5485	1342.35	462.9
982.6327	2558.8585	1345.75	458.05
982.7592	2560.1677	1346.55	462.9
982.8856	2561.4762	1340.35	460.4
983.0119	2562.7841	1344	460.05
983.1383	2564.0913	1327.65	446.85
983.2646	2565.3977	1332.6	452.35
983.3908	2566.7035	1334.05	453.6
983.517	2568.0086	1336.95	453.1
983.6432	2569.313	1331.8	450.3
983.7694	2570.6167	1332.35	449
983.8955	2571.9197	1336.2	455
984.0216	2573.222	1334.45	450.15
984.1476	2574.5236	1332.95	450.9
984.2737	2575.8246	1333.65	450.45
984.3996	2577.1248	1334.75	449.9
984.5256	2578.4244	1339.7	460.3
984.6515	2579.7232	1333.1	452.9
984.7774	2581.0214	1374.8	458.15
984.9032	2582.3189	1340	462.05
985.029	2583.6157	1338.8	453
985.1548	2584.9118	1341.4	461.3
985.2806	2586.2072	1336.45	454.85
985.4063	2587.5019	1339.15	461.35
985.5319	2588.7959	1340.35	458.25
985.6576	2590.0893	1342.55	461.5
985.7832	2591.3819	1351.65	472.7
985.9087	2592.6739	1350.7	469.25
986.0343	2593.9652	1350.1	468.75
986.1597	2595.2557	1349.75	467.75
986.2852	2596.5456	1354.5	471.85
986.4106	2597.8348	1353.6	472.9
986.536	2599.1234	1344	462.85
986.6614	2600.4112	1353.95	473
986.7867	2601.6983	1346.65	461.25
986.912	2602.9848	1359.5	478.15
987.0372	2604.2705	1361.65	472
987.1624	2605.5556	1353.4	472.1
987.2876	2606.84	1353.05	473.3
987.4128	2608.1237	1349.35	466.05
987.5379	2609.4067	1353.95	473.3
987.6629	2610.689	1351.2	461.15
987.788	2611.9707	1347.7	464.75
987.913	2613.2516	1343.25	457.7
988.0379	2614.5319	1344.9	464.55
988.1629	2615.8115	1338	455.25
988.2878	2617.0903	1346.8	462.7
988.4126	2618.3685	1343.7	460.8
988.5375	2619.6461	1340.45	460
988.6622	2620.9229	1346.55	467.8
988.787	2622.199	1345.7	462.9
988.9117	2623.4745	1341.2	459.45
989.0364	2624.7493	1344.4	461.45
989.161	2626.0234	1334.45	453.55
989.2857	2627.2968	1340.95	458.5
989.4102	2628.5695	1343.2	459.8
989.5348	2629.8415	1342.2	461.05
989.6593	2631.1128	1342.65	460.85
989.7837	2632.3835	1338.9	459.1
989.9082	2633.6535	1342.55	463.65
990.0326	2634.9228	1338.65	457.3
990.1569	2636.1914	1333.95	454.1
990.2812	2637.4593	1344.85	461.6
990.4055	2638.7265	1344	462.9
990.5298	2639.9931	1337.5	455.5
990.654	2641.259	1339.6	457.7
990.7782	2642.5242	1334.8	454.95
990.9023	2643.7887	1331.15	450.55
991.0264	2645.0525	1338.2	455.6
991.1505	2646.3156	1329.95	447.75
991.2745	2647.5781	1337.1	458.5
991.3985	2648.8398	1328.95	448.6
991.5225	2650.1009	1337.7	446.5
991.6464	2651.3613	1330.75	448.25
991.7703	2652.6211	1329.95	448.6
991.8942	2653.8801	1328.6	446.95
992.018	2655.1385	1331.5	447.6
992.1418	2656.3961	1324.95	443.2
992.2655	2657.6531	1326	444.8
992.3892	2658.9094	1328.1	447.8
992.5129	2660.1651	1325.25	443.25
992.6366	2661.42	1328.7	446
992.7602	2662.6743	1335.95	452.45
992.8837	2663.9279	1328.9	447.35
993.0073	2665.1808	1338.5	458.3
993.1307	2666.433	1336.75	454.65
993.2542	2667.6846	1342.45	460.45
993.3776	2668.9354	1346.45	461.85
993.501	2670.1856	1340.5	458.7
993.6244	2671.4351	1341.65	461.3
993.7477	2672.6839	1346.15	465.5
993.8709	2673.9321	1348.5	468.9
993.9942	2675.1795	1350.65	468.65
994.1174	2676.4263	1351.95	470.75
994.2405	2677.6724	1358	476.65
994.3637	2678.9179	1361	478.25
994.4868	2680.1626	1356.65	475.25
994.6098	2681.4067	1358.75	477.15
994.7328	2682.6501	1365.55	483.25
994.8558	2683.8928	1357.05	476.4
994.9788	2685.1348	1358.55	475.5
995.1017	2686.3761	1355.6	477.05
995.2245	2687.6168	1346.05	464.8
995.3474	2688.8568	1348.55	467.7
995.4702	2690.0961	1342.05	464.05
995.5929	2691.3348	1337.1	456.4
995.7156	2692.5727	1333.85	452.3
995.8383	2693.81	1332.65	451.35
995.961	2695.0466	1335.9	455.1
996.0836	2696.2826	1339.75	455.65
996.2062	2697.5178	1341.2	455.9
996.3287	2698.7524	1330.4	448.4
996.4512	2699.9863	1339.85	455.95
996.5737	2701.2195	1339.75	458.9
996.6961	2702.452	1345.65	461.9
996.8185	2703.6839	1349.9	467.85
996.9408	2704.9151	1352.85	472.85
997.0631	2706.1456	1352.45	470.8
997.1854	2707.3755	1358.25	474.4
997.3077	2708.6046	1376.4	492.05
997.4299	2709.8331	1388.85	508.05
997.552	2711.0609	1396.5	512.25
997.6742	2712.2881	1397.5	518.1
997.7963	2713.5145	1401.8	515.6
997.9183	2714.7403	1422.65	544.55
998.0403	2715.9654	1425.45	542.75
998.1623	2717.1899	1445.75	549.35
998.2842	2718.4136	1449.85	568.05
998.4062	2719.6367	1470.05	588.15
998.528	2720.8591	1483.35	593.1
998.6498	2722.0809	1491.6	610.55
998.7716	2723.3019	1493.15	606.65
998.8934	2724.5223	1505.7	625.7
999.0151	2725.7421	1513.7	630.9
999.1368	2726.9611	1512.5	627.4
999.2584	2728.1795	1515.05	628.1
999.38	2729.3972	1504	620.55
999.5016	2730.6142	1505.1	610.3
999.6231	2731.8306	1479	596.95
999.7446	2733.0462	1465.9	582.55
999.8661	2734.2612	1458.75	573.2
999.9875	2735.4756	1433.6	551.95
1000.1089	2736.6892	1416.6	535.35
1000.2302	2737.9022	1401.95	522.55
1000.3515	2739.1145	1388.35	506.8
1000.4728	2740.3262	1380.3	491.2
1000.594	2741.5372	1359.65	479.75
1000.7152	2742.7475	1350.55	469.2
1000.8363	2743.9571	1343.45	460.9
1000.9575	2745.1661	1340.7	455.55
1001.0785	2746.3744	1324.2	441.9
1001.1996	2747.582	1315.65	434.9
1001.3206	2748.7889	1311.2	428.45
1001.4415	2749.9952	1303.45	422.45
1001.5625	2751.2008	1299.1	415.2
1001.6833	2752.4057	1297.2	414.1
1001.8042	2753.61	1291.4	409.1
1001.925	2754.8136	1295	410.6
1002.0458	2756.0165	1291.3	410.95
1002.1665	2757.2188	1289.75	409.4
1002.2872	2758.4204	1291.8	410.4
1002.4078	2759.6213	1290.6	407.85
1002.5285	2760.8215	1297.55	409.15
1002.649	2762.0211	1296.8	415.9
1002.7696	2763.22	1295.15	407.75
1002.8901	2764.4182	1290.45	406.05
1003.0106	2765.6158	1282.15	400.15
1003.131	2766.8127	1285.25	404.9
1003.2514	2768.009	1277.3	395.65
1003.3717	2769.2045	1273.55	390.75
1003.492	2770.3994	1278.55	396.25
1003.6123	2771.5936	1283.4	399.4
1003.7325	2772.7872	1263.75	381.9
1003.8527	2773.9801	1270.95	388.25
1003.9729	2775.1723	1283.85	385.1
1004.093	2776.3639	1275	393.75
1004.2131	2777.5548	1273.25	387.85
1004.3331	2778.745	1278.9	394.15
1004.4531	2779.9346	1281.05	398.5
1004.5731	2781.1235	1277.25	393.9
1004.693	2782.3117	1290.7	411.2
1004.8129	2783.4992	1295.05	414.3
1004.9328	2784.6861	1295.1	412.7
1005.0526	2785.8723	1300.3	418.55
1005.1723	2787.0579	1310.85	426.15
1005.2921	2788.2428	1317.1	436.15
1005.4118	2789.427	1332.55	450.2
1005.5314	2790.6106	1341	457.8
1005.651	2791.7935	1355.2	472.4
1005.7706	2792.9757	1366.5	484.15
1005.8902	2794.1573	1378.75	496.05
1006.0097	2795.3382	1397.55	515.15
1006.1291	2796.5184	1412	534.15
1006.2485	2797.698	1424.75	541.5
1006.3679	2798.8769	1449.8	569.05
1006.4873	2800.0551	1459.5	576.9
1006.6066	2801.2327	1486	602.35
1006.7258	2802.4096	1504.3	624.2
1006.8451	2803.5859	1527.45	646.15
1006.9642	2804.7615	1543.7	660.35
1007.0834	2805.9364	1577.25	696.7
1007.2025	2807.1106	1600.9	718.85
1007.3216	2808.2842	1639.55	757.65
1007.4406	2809.4572	1665.25	784.85
1007.5596	2810.6294	1709.85	826.05
1007.6785	2811.801	1751.75	872.65
1007.7975	2812.972	1800.95	920.25
1007.9163	2814.1423	1840.05	957.35
1008.0352	2815.3119	1898.3	1015
1008.154	2816.4808	1948.25	1067.4
1008.2727	2817.6491	1992.4	1109.25
1008.3914	2818.8167	2041.15	1163.75
1008.5101	2819.9837	2101.45	1215.6
1008.6288	2821.15	2127.3	1244.5
1008.7474	2822.3157	2185.6	1304.4
1008.8659	2823.4807	2235.2	1352.5
1008.9844	2824.645	2268.3	1383.6
1009.1029	2825.8086	2321.7	1440.2
1009.2214	2826.9716	2353.65	1472.85
1009.3398	2828.134	2407.2	1527.05
1009.4581	2829.2957	2433.6	1552.7
1009.5764	2830.4567	2453.55	1572.9
1009.6947	2831.617	2479.9	1598.45
1009.813	2832.7767	2483.9	1603.55
1009.9312	2833.9358	2479.4	1598.85
1010.0493	2835.0941	2473.4	1590.15
1010.1675	2836.2519	2462.55	1581.15
1010.2855	2837.4089	2452.25	1567.7
1010.4036	2838.5653	2461	1581.6
1010.5216	2839.7211	2461.4	1581.55
1010.6396	2840.8761	2461.45	1578.2
1010.7575	2842.0306	2480.8	1602.15
1010.8754	2843.1843	2528.6	1647.1
1010.9932	2844.3374	2578.5	1697.65
1011.111	2845.4899	2632.9	1750.2
1011.2288	2846.6417	2714.2	1832.45
1011.3465	2847.7928	2795.7	1915.55
1011.4642	2848.9433	2890.1	2008
1011.5818	2850.0931	2948.05	2066.85
1011.6995	2851.2422	3043.7	2159.55
1011.817	2852.3907	3105.1	2223.65
1011.9345	2853.5385	3180.2	2296.6
1012.052	2854.6857	3254.55	2347.4
1012.1695	2855.8323	3301.35	2419.85
1012.2869	2856.9781	3349.3	2468.55
1012.4042	2858.1233	3398.15	2517.6
1012.5216	2859.2679	3445.35	2565.3
1012.6389	2860.4118	3500.95	2619.45
1012.7561	2861.555	3548.7	2662.55
1012.8733	2862.6976	3571.8	2690.9
1012.9905	2863.8395	3600.8	2718.15
1013.1076	2864.9808	3620.3	2738.6
1013.2247	2866.1214	3636.35	2756.95
1013.3417	2867.2614	3672.4	2791.75
1013.4587	2868.4007	3669.7	2787.9
1013.5757	2869.5393	3672.9	2787.85
1013.6926	2870.6773	3704.45	2820.35
1013.8095	2871.8146	3715.45	2831.25
1013.9263	2872.9513	3723.9	2842.35
1014.0431	2874.0874	3714.2	2833
1014.1599	2875.2227	3709	2826.25
1014.2766	2876.3574	3676	2792.35
1014.3933	2877.4915	3661.55	2780.65
1014.51	2878.6249	3652.8	2771.7
1014.6266	2879.7577	3631.4	2749.6
1014.7431	2880.8898	3614.8	2722.55
1014.8596	2882.0212	3573.15	2693.6
1014.9761	2883.152	3556.15	2674.15
1015.0925	2884.2821	3550.05	2667.05
1015.2089	2885.4116	3548.2	2668.6
1015.3253	2886.5405	3550.55	2669.75
1015.4416	2887.6686	3554.2	2669.35
1015.5579	2888.7962	3558.15	2678.1
1015.6741	2889.923	3571.15	2688.8
1015.7903	2891.0493	3577.1	2697.1
1015.9065	2892.1748	3597.2	2715.35
1016.0226	2893.2997	3603.1	2720.45
1016.1387	2894.424	3632.6	2752.7
1016.2547	2895.5476	3654.6	2775.25
1016.3707	2896.6706	3663	2783.5
1016.4866	2897.7929	3705.45	2823.8
1016.6025	2898.9145	3742.65	2861.6
1016.7184	2900.0355	3766.7	2882.5
1016.8342	2901.1559	3800.6	2920
1016.95	2902.2756	3846.05	2964.7
1017.0658	2903.3946	3851.6	2970.7
1017.1815	2904.513	3898.65	3015.6
1017.2971	2905.6308	3912.6	3033.55
1017.4127	2906.7479	3944.8	3062.6
1017.5283	2907.8643	3977.55	3095.45
1017.6439	2908.9801	3988.85	3106.55
1017.7594	2910.0953	4001.1	3120.55
1017.8748	2911.2098	3999.15	3114.1
1017.9902	2912.3236	3999.75	3110.45
1018.1056	2913.4368	3990.55	3106
1018.2209	2914.5494	3967.5	3084.15
1018.3362	2915.6613	3951.6	3064.1
1018.4515	2916.7725	3909.9	3026.05
1018.5667	2917.8831	3873.35	2990.05
1018.6819	2918.9931	3857.1	2971.6
1018.797	2920.1024	3831.2	2949
1018.9121	2921.211	3791.25	2909.35
1019.0271	2922.319	3776.15	2892.75
1019.1421	2923.4264	3762.8	2883.5
1019.2571	2924.5331	3747.25	2866.55
1019.372	2925.6391	3747.3	2867.05
1019.4869	2926.7445	3743.55	2862.2
1019.6017	2927.8493	3720.45	2838.05
1019.7165	2928.9534	3723.65	2842.4
1019.8313	2930.0569	3710.35	2826.1
1019.946	2931.1597	3693.55	2812.4
1020.0606	2932.2619	3671.35	2788.7
1020.1753	2933.3634	3676.7	2796.35
1020.2899	2934.4643	3679.9	2792.35
1020.4044	2935.5645	3661.55	2775
1020.5189	2936.6641	3619.85	2732.15
1020.6334	2937.763	3558.45	2677
1020.7478	2938.8613	3512.6	2630.55
1020.8622	2939.959	3454.45	2566.85
1020.9765	2941.056	3382.6	2501.75
1021.0908	2942.1523	3300.95	2416.85
1021.2051	2943.248	3198.55	2315.25
1021.3193	2944.3431	3108.2	2229.15
1021.4334	2945.4375	2997.5	2113.95
1021.5476	2946.5313	2908.75	2027.5
1021.6617	2947.6244	2798.05	1916
1021.7757	2948.7169	2690.95	1807.15
1021.8897	2949.8087	2587.15	1707.45
1022.0037	2950.8999	2480.65	1597.65
1022.1176	2951.9904	2416.95	1536.85
1022.2315	2953.0803	2344	1461.35
1022.3453	2954.1696	2269.65	1389.15
1022.4591	2955.2582	2219.1	1339.7
1022.5728	2956.3462	2168.95	1286.95
1022.6865	2957.4335	2133.65	1252.5
1022.8002	2958.5202	2090.15	1206.55
1022.9138	2959.6062	2063.8	1182.3
1023.0274	2960.6916	2044.9	1164.9
1023.141	2961.7764	2029.1	1148.7
1023.2545	2962.8605	2004.8	1122.65
1023.3679	2963.9439	1999	1118.5
1023.4813	2965.0267	1988.45	1106.15
1023.5947	2966.1089	1998.85	1094.9
1023.708	2967.1905	1979.25	1096.05
1023.8213	2968.2714	1978.6	1097.95
1023.9346	2969.3516	1970.85	1089.4
1024.0478	2970.4312	1981.65	1092.45
1024.1609	2971.5102	1974.1	1094.65
1024.274	2972.5885	1976	1096
1024.3871	2973.6662	1982.35	1094.65
1024.5002	2974.7432	1965.5	1085.75
1024.6132	2975.8196	1957.7	1076.1
1024.7261	2976.8954	1956.9	1076.4
1024.839	2977.9705	1947.1	1066.05
1024.9519	2979.045	1928.2	1047.05
1025.0647	2980.1188	1913.8	1035.05
1025.1775	2981.192	1894.25	1014
1025.2902	2982.2645	1876.65	994.45
1025.4029	2983.3364	1854.2	971.65
1025.5156	2984.4077	1812.25	931.05
1025.6282	2985.4783	1784.2	897.4
1025.7407	2986.5483	1753.95	874.05
1025.8532	2987.6177	1717.45	837.25
1025.9657	2988.6864	1684.65	802.65
1026.0782	2989.7545	1651.2	768.05
1026.1906	2990.8219	1615.25	736.15
1026.3029	2991.8887	1587.9	705.3
1026.4152	2992.9548	1554.25	672.85
1026.5275	2994.0204	1525.15	644.9
1026.6397	2995.0852	1496.25	613.95
1026.7519	2996.1495	1464.05	580.25
1026.864	2997.2131	1453.35	573.7
1026.9761	2998.276	1427.95	547.45
1027.0882	2999.3383	1408.05	528.75
1027.2002	3000.4	1380.7	499.1
1027.3122	3001.4611	1370.35	488.5
1027.4241	3002.5215	1358.45	477.9
1027.536	3003.5812	1344.85	463.6
1027.6478	3004.6404	1328.7	447.9
1027.7596	3005.6989	1323.75	439.95
1027.8714	3006.7567	1319.4	438.7
1027.9831	3007.8139	1334.25	434.9
1028.0947	3008.8705	1305	424.75
1028.2064	3009.9264	1301.6	420
1028.3179	3010.9818	1299.1	417.3
1028.4295	3012.0364	1297.1	415.2
1028.541	3013.0905	1293.15	414.6
1028.6524	3014.1439	1299.1	415.45
1028.7638	3015.1966	1286.55	406.45
1028.8752	3016.2487	1293.1	409.95
1028.9865	3017.3002	1292.85	406.8
1029.0978	3018.3511	1289.8	409.45
1029.209	3019.4013	1285.75	405.35
1029.3202	3020.4509	1287.15	407.6
1029.4314	3021.4998	1287.75	406.7
1029.5425	3022.5481	1287.25	406.1
1029.6535	3023.5958	1298.15	417.95
1029.7645	3024.6428	1293.45	411.45
1029.8755	3025.6892	1297.95	418.95
1029.9864	3026.735	1298	416.6
1030.0973	3027.7802	1300.6	418.65
1030.2082	3028.8247	1302.85	422.8
1030.319	3029.8685	1309.5	428.15
1030.4297	3030.9118	1313.8	432.6
1030.5404	3031.9544	1315.8	435.45
1030.6511	3032.9963	1322.55	441.1
1030.7617	3034.0376	1322.1	440.35
1030.8723	3035.0783	1333.3	451.15
1030.9829	3036.1184	1334.75	451.4
1031.0934	3037.1578	1334.65	454.6
1031.2038	3038.1966	1347.1	462.45
1031.3142	3039.2348	1337.3	457.6
1031.4246	3040.2723	1351.7	461.2
1031.5349	3041.3092	1333.65	453.8
1031.6452	3042.3455	1344.9	463.8
1031.7554	3043.3811	1338.8	456.1
1031.8656	3044.4161	1336.65	455.9
1031.9758	3045.4505	1332.6	451.45
1032.0859	3046.4842	1322.95	441.3
1032.1959	3047.5173	1312.1	434.2
1032.3059	3048.5498	1310	427.8
1032.4159	3049.5816	1301.45	421.05
1032.5258	3050.6128	1298.2	416.5
1032.6357	3051.6434	1288.45	405.75
1032.7455	3052.6734	1284.6	401.75
1032.8553	3053.7027	1276.45	394.85
1032.9651	3054.7314	1268.35	388.95
1033.0748	3055.7594	1266.65	385.3
1033.1845	3056.7868	1257.4	374.2
1033.2941	3057.8136	1249.45	368.9
1033.4037	3058.8398	1247.9	367.05
1033.5132	3059.8653	1248.75	366.5
1033.6227	3060.8902	1234.25	352.3
1033.7321	3061.9145	1233	352.6
1033.8415	3062.9381	1223.25	343.5
1033.9509	3063.9612	1237.05	339.3
1034.0602	3064.9835	1215.1	336.5
1034.1694	3066.0053	1211.45	327.15
1034.2787	3067.0264	1202.65	321.7
1034.3878	3068.0469	1193.9	312.5
1034.497	3069.0668	1191.15	309.15
1034.6061	3070.086	1181.2	304.2
1034.7151	3071.1046	1168.3	284.9
1034.8241	3072.1226	1160.55	279.7
1034.9331	3073.1399	1153.9	273.25
1035.042	3074.1567	1142.05	262.2
1035.1508	3075.1727	1128.15	246.15
1035.2597	3076.1882	1123.15	243.85
1035.3684	3077.203	1114.25	232.55
1035.4772	3078.2173	1108.95	228.6
1035.5859	3079.2308	1105	220
1035.6945	3080.2438	1095.7	213.65
1035.8031	3081.2561	1088.75	208.15
1035.9117	3082.2678	1077.3	198
1036.0202	3083.2789	1070.3	190.45
1036.1286	3084.2893	1066.55	185.85
1036.2371	3085.2991	1059	179.6
1036.3454	3086.3083	1060.8	175.4
1036.4538	3087.3169	1053.6	173.65
1036.562	3088.3248	1047.15	164
1036.6703	3089.3321	1044.65	162.25
1036.7785	3090.3388	1036.45	156.5
1036.8866	3091.3449	1035.25	153.6
1036.9948	3092.3503	1033.05	149.1
1037.1028	3093.3551	1021.5	142.95
1037.2108	3094.3593	1026.8	146
1037.3188	3095.3629	1021.85	143.1
1037.4267	3096.3658	1018.15	137.15
1037.5346	3097.3681	1016.6	135.55
1037.6425	3098.3698	1016.85	132.9
1037.7503	3099.3708	1020.9	133.1
1037.858	3100.3713	1007	128.65
1037.9657	3101.3711	1006.6	125.25
1038.0734	3102.3702	1149.75	126.7
1038.181	3103.3688	1002.9	120.25
1038.2886	3104.3667	1000	120.05
1038.3961	3105.364	998.65	119.3
1038.5036	3106.3607	999.1	116.65
1038.611	3107.3568	1000.8	119.6
1038.7184	3108.3522	990.75	112.8
1038.8257	3109.347	993.15	113.25
1038.933	3110.3412	997.45	113.6
1039.0403	3111.3348	992.1	113.25
1039.1475	3112.3277	993.35	111.5
1039.2547	3113.32	989.25	110.2
1039.3618	3114.3117	990.8	109.45
1039.4689	3115.3028	988.3	108.55
1039.5759	3116.2932	985	102.6
1039.6829	3117.2831	989.2	103.75
1039.7898	3118.2723	984.35	104.1
1039.8967	3119.2608	981.1	100.45
1040.0035	3120.2488	982.85	104.05
1040.1103	3121.2361	977.9	99.15
1040.2171	3122.2229	979.8	99.25
1040.3238	3123.209	980.75	98.9
1040.4305	3124.1944	978.85	99
1040.5371	3125.1793	981.05	99.15
1040.6437	3126.1635	974.35	94.8
1040.7502	3127.1471	977.75	97.95
1040.8567	3128.1301	970.55	90.4
1040.9631	3129.1125	975.55	96.4
1041.0695	3130.0942	973.5	91.4
1041.1759	3131.0753	981.15	93.3
1041.2822	3132.0558	975.5	89.95
1041.3884	3133.0357	969.35	89.35
1041.4946	3134.015	970.3	87
1041.6008	3134.9936	970.05	89.4
1041.7069	3135.9716	988	87.6
1041.813	3136.949	967.05	87.3
1041.919	3137.9258	986.3	85.85
1042.025	3138.902	969.5	83.4
1042.1309	3139.8775	959.75	77.6
1042.2368	3140.8524	961.95	80.25
1042.3427	3141.8267	964.15	82.55
1042.4485	3142.8004	963	82.2
1042.5542	3143.7735	965.35	79.45
1042.6599	3144.7459	965.4	81.4
1042.7656	3145.7178	960.95	79.85
1042.8712	3146.689	956.7	78.85
1042.9768	3147.6596	957.85	75.8
1043.0823	3148.6295	955.55	76.1
1043.1878	3149.5989	956.15	74.65
1043.2932	3150.5676	952.95	74.2
1043.3986	3151.5357	953.3	74.7
1043.5039	3152.5032	952.95	72.05
1043.6092	3153.4701	951.25	71.35
1043.7145	3154.4364	954.85	71.7
1043.8197	3155.402	950.55	72.6
1043.9248	3156.367	953.2	70.25
1044.03	3157.3315	995.9	72.45
1044.135	3158.2952	953.5	72.85
1044.24	3159.2584	949.45	69.8
1044.345	3160.221	948.75	67.4
1044.4499	3161.1829	946.8	66.1
1044.5548	3162.1442	949.9	69
1044.6596	3163.105	946.65	67.1
1044.7644	3164.065	946	65.9
1044.8692	3165.0245	948.1	67.2
1044.9739	3165.9834	945.25	65.95
1045.0785	3166.9416	942.3	62.05
1045.1831	3167.8993	944.65	64.05
1045.2877	3168.8563	941.2	59.35
1045.3922	3169.8127	940.75	60.2
1045.4966	3170.7684	943.25	63.9
1045.6011	3171.7236	943.35	60.9
1045.7054	3172.6782	941.65	61.2
1045.8098	3173.6321	942.85	63.1
1045.914	3174.5854	945.15	62.25
1046.0183	3175.5381	941.85	62.55
1046.1224	3176.4902	941.8	61.5
1046.2266	3177.4417	937.6	58.55
1046.3307	3178.3926	939.85	61.6
1046.4347	3179.3428	936.8	57
1046.5387	3180.2924	938.05	57.75
1046.6427	3181.2415	936.3	54.85
1046.7466	3182.1899	935.65	54.1
1046.8504	3183.1377	936.3	56.05
1046.9542	3184.0848	940.85	57.15
1047.058	3185.0314	938.65	61
1047.1617	3185.9773	934.6	53.35
1047.2654	3186.9227	937.25	54.35
1047.369	3187.8674	935.4	55.1
1047.4726	3188.8115	940.05	56.2
1047.5761	3189.755	936.6	58.4
1047.6796	3190.6979	933.65	53
1047.783	3191.6402	931	52.05
1047.8864	3192.5818	933.35	53.65
1047.9898	3193.5229	953.85	51.4
1048.0931	3194.4633	933.55	52.8
1048.1963	3195.4031	931.25	51.95
1048.2995	3196.3423	929.9	49.05
1048.4027	3197.2809	932.6	52.85
1048.5058	3198.2189	933	51.25
1048.6089	3199.1563	950	52.45
1048.7119	3200.0931	933.25	54.25
1048.8148	3201.0292	929.55	50.15
1048.9178	3201.9648	928.6	50.2
1049.0206	3202.8997	933.1	48.75
1049.1235	3203.834	930.25	51.05
1049.2262	3204.7677	930.5	49.9
1049.329	3205.7008	932.75	52.6
1049.4317	3206.6333	924.75	46.1
1049.5343	3207.5652	931.2	48.55
1049.6369	3208.4964	930.05	50.25
1049.7394	3209.4271	928.85	49.05
1049.8419	3210.3571	927.65	46.6
1049.9444	3211.2865	926	44.85
1050.0468	3212.2154	929.5	47.6
1050.1491	3213.1436	932.9	49.9
1050.2514	3214.0712	935.05	47.2
1050.3537	3214.9982	928.6	47.65
1050.4559	3215.9246	926.7	45
1050.5581	3216.8503	925.35	46.7
1050.6602	3217.7755	927.3	48
1050.7623	3218.7001	926.3	44.8
1050.8643	3219.624	927.65	48.4
1050.9663	3220.5473	925.7	44.2
1051.0682	3221.4701	925.9	43.4
1051.1701	3222.3922	927	46
1051.2719	3223.3137	923.5	42.3
1051.3737	3224.2346	925	45.65
1051.4754	3225.1549	924.6	45.3
1051.5771	3226.0746	922.45	42.4
1051.6788	3226.9937	925.05	45.6
1051.7804	3227.9121	924.35	44.5
1051.8819	3228.83	922	41.4
1051.9834	3229.7473	925.3	44.45
1052.0849	3230.6639	923.8	41.95
1052.1863	3231.5799	921.8	43.3
1052.2876	3232.4954	925.5	44.65
1052.3889	3233.4102	923.1	42.2
1052.4902	3234.3244	920.2	38.4
1052.5914	3235.238	921.25	41.05
1052.6926	3236.151	945.5	40.4
1052.7937	3237.0634	918.85	39.7
1052.8948	3237.9752	920.6	40.6
1052.9958	3238.8864	921.7	41.5
1053.0968	3239.797	920.7	40.6
1053.1977	3240.7069	922.55	40.1
1053.2986	3241.6163	922.6	40.8
1053.3994	3242.5251	921.2	42.35
1053.5002	3243.4332	918.7	40.65
1053.6009	3244.3408	919.8	40.95
1053.7016	3245.2477	919	40.3
1053.8022	3246.154	919.55	38.25
1053.9028	3247.0598	921.75	41.55
1054.0034	3247.9649	918.6	37.85
1054.1039	3248.8694	914.6	34.7
1054.2043	3249.7733	916.1	34.95
1054.3047	3250.6766	916.5	35.6
1054.4051	3251.5793	917	35.05
1054.5054	3252.4814	913.7	34.1
1054.6056	3253.3829	916	36.05
1054.7058	3254.2838	915.8	36.2
1054.806	3255.1841	916.6	37.35
1054.9061	3256.0838	915.25	37.1
1055.0061	3256.9829	912.1	36.25
1055.1062	3257.8814	915.65	34.9
1055.2061	3258.7792	913	30.15
1055.306	3259.6765	913.5	31.95
1055.4059	3260.5731	912.2	30.45
1055.5057	3261.4692	913	33
1055.6055	3262.3647	913.55	32.85
1055.7052	3263.2595	909.7	28.35
1055.8049	3264.1538	910.4	33
1055.9045	3265.0474	910.05	29.1
1056.0041	3265.9404	910.3	31.1
1056.1036	3266.8329	906.45	26.55
1056.2031	3267.7247	917.85	28.45
1056.3025	3268.616	907.5	30.3
1056.4019	3269.5066	908	26.8
1056.5013	3270.3966	909.85	27.8
1056.6005	3271.286	905.35	25.95
