Software Version:	3.9.2.0
Unit SN:	10000200
Spectrometer SN:	6960
Date:	3/14/2024 12:47:07 PM
Data Line Index:	25
Spectral Points:	2048
Integration time (ms):	125
Averages:	20
Delay (ms):	30000
Sequence Number:	1
Processing:	dark subtract
Laser Power (mW):	305
Laser Current (mA):	823
Laser Diode Temp (C):	25
Laser Case Temp (C):	27.4
System Temp (C):	27.5
Spectrometer Temp (C):	25.2
CCD Temp (C):	0.008
Secondary Temp (C):	20.006
Heatsink Temp (C):	23.352
CCDPCB Temp (C):	37.018
SecondaryPCB Temp (C):	34.495

Wavelength	RamanShift	Raw Counts	Dark Subtracted
787.061	30.1047	417.6	4.95
787.2016	32.3739	414.95	4.65
787.3422	34.6426	418.55	8.25
787.4828	36.9109	421.1	8.2
787.6235	39.1787	422.75	5.1
787.7642	41.4461	427.65	6.7
787.9049	43.7131	434	9.4
788.0456	45.9796	437.8	8.4
788.1863	48.2456	441.65	9.3
788.3271	50.5112	446.35	7.75
788.4679	52.7764	448.1	9.6
788.6087	55.0411	453.65	11.85
788.7496	57.3054	457.6	10.45
788.8904	59.5692	460.4	10.55
789.0313	61.8326	465.15	11.4
789.1722	64.0955	473.65	16.1
789.3132	66.3579	480.75	17.95
789.4541	68.6199	484.4	20.05
789.5951	70.8815	493.4	25.1
789.7361	73.1426	506.95	36.7
789.8771	75.4032	535.95	61
790.0181	77.6634	600.55	120
790.1592	79.9231	734.15	248.3
790.3003	82.1824	1024.9	533.65
790.4414	84.4412	1525.65	1028.45
790.5825	86.6995	2170.65	1661.9
790.7237	88.9574	2799.7	2281.45
790.8648	91.2148	3263.15	2742.5
791.006	93.4717	3470.85	2947.1
791.1472	95.7282	3519.3	2990.95
791.2885	97.9842	3537.45	3004.7
791.4297	100.2398	3526.4	2991.1
791.571	102.4949	3509.6	2973.15
791.7123	104.7495	3478.7	2936.8
791.8536	107.0036	3456.55	2914.35
791.9949	109.2573	3398.9	2858.9
792.1363	111.5105	3353.55	2809
792.2777	113.7632	3301.75	2756.6
792.4191	116.0154	3257.6	2700.15
792.5605	118.2672	3193.4	2643.65
792.7019	120.5185	3135.7	2586.05
792.8434	122.7693	3087.35	2535.2
792.9849	125.0197	3043	2486.5
793.1264	127.2696	2989.55	2431.45
793.2679	129.519	2971.3	2410.7
793.4094	131.7679	2950.55	2386.2
793.551	134.0163	2942.15	2375.95
793.6926	136.2642	2937.15	2363.75
793.8342	138.5117	2943.05	2366.55
793.9758	140.7587	2909.3	2332.65
794.1175	143.0052	2894.8	2317.4
794.2591	145.2512	2870.7	2293.35
794.4008	147.4967	2828.85	2249.1
794.5425	149.7417	2796.05	2214.55
794.6842	151.9863	2767.5	2182.05
794.826	154.2304	2766.8	2177.4
794.9677	156.4739	2762.1	2167.65
795.1095	158.717	2772.95	2178.7
795.2513	160.9596	2790.3	2191.45
795.3931	163.2017	2789.8	2188.15
795.535	165.4433	2806.8	2205.05
795.6768	167.6844	2801.55	2198.05
795.8187	169.925	2790.85	2182
795.9606	172.1651	2742.4	2130.35
796.1025	174.4047	2721.8	2105.9
796.2445	176.6439	2701.4	2082.75
796.3864	178.8825	2680.9	2061.5
796.5284	181.1206	2668.4	2044.4
796.6704	183.3582	2663	2033.85
796.8124	185.5954	2663.45	2033.35
796.9544	187.832	2650.7	2018.3
797.0965	190.0681	2650.9	2014.45
797.2386	192.3037	2662.15	2023.2
797.3806	194.5388	2650.4	2009.4
797.5228	196.7734	2672.3	2030
797.6649	199.0075	2672	2022.9
797.807	201.2411	2703.9	2054.3
797.9492	203.4742	2707.9	2057.7
798.0914	205.7068	2706.35	2055.25
798.2336	207.9389	2726.9	2075.15
798.3758	210.1704	2733.35	2081.5
798.518	212.4015	2727.7	2067.2
798.6603	214.632	2726.65	2066.9
798.8025	216.862	2718.15	2065.75
798.9448	219.0915	2714.8	2068.5
799.0871	221.3205	2725.3	2082.75
799.2294	223.549	2715	2078.5
799.3718	225.777	2710.25	2073.85
799.5141	228.0044	2710.25	2071
799.6565	230.2314	2702.05	2064.55
799.7989	232.4578	2695.15	2057.85
799.9413	234.6837	2684.1	2037.9
800.0837	236.909	2682.4	2035.1
800.2262	239.1339	2692.05	2022.75
800.3687	241.3582	2666.2	2008.65
800.5111	243.582	2670.85	1992.8
800.6536	245.8053	2687.7	2011.9
800.7961	248.0281	2676.55	2005.9
800.9387	250.2503	2681.15	2004
801.0812	252.472	2675.5	1993.5
801.2238	254.6932	2686.8	2000.35
801.3664	256.9139	2688.75	2001.35
801.509	259.134	2694.5	2004
801.6516	261.3536	2702.15	2015.4
801.7942	263.5727	2725.2	2034.5
801.9369	265.7912	2743.8	2054.3
802.0795	268.0092	2772.35	2083.2
802.2222	270.2267	2808.05	2118
802.3649	272.4436	2839	2147
802.5076	274.6601	2844.05	2141.2
802.6504	276.8759	2850.4	2152.6
802.7931	279.0913	2859.2	2165.85
802.9359	281.3061	2850.85	2152.9
803.0787	283.5204	2873.8	2172.6
803.2215	285.7341	2890.05	2183.25
803.3643	287.9473	2903.3	2195.55
803.5071	290.16	2891.45	2178.45
803.6499	292.3721	2882.35	2176.35
803.7928	294.5837	2857	2149
803.9357	296.7947	2821.5	2113.05
804.0786	299.0052	2810.1	2100
804.2215	301.2152	2806.1	2093.6
804.3644	303.4246	2800.05	2093.8
804.5074	305.6334	2790.6	2081.1
804.6503	307.8418	2768	2057.5
804.7933	310.0495	2741.85	2029.7
804.9363	312.2568	2726	2017.05
805.0793	314.4635	2688.3	1975.15
805.2223	316.6696	2669.2	1952.15
805.3653	318.8752	2640.85	1917.2
805.5084	321.0802	2609.25	1891.35
805.6514	323.2847	2610.35	1890.95
805.7945	325.4887	2610.6	1893.2
805.9376	327.692	2609.4	1887.6
806.0807	329.8949	2624.5	1903.25
806.2238	332.0972	2654.5	1930.45
806.367	334.2989	2668.85	1941.9
806.5101	336.5001	2663.8	1937.45
806.6533	338.7007	2653.25	1924.15
806.7965	340.9008	2624.4	1893.15
806.9397	343.1003	2590.85	1857.85
807.0829	345.2992	2548.7	1816.3
807.2261	347.4976	2523.8	1790.6
807.3693	349.6955	2507.2	1768.6
807.5126	351.8927	2491.85	1753.3
807.6559	354.0895	2486.4	1737.8
807.7991	356.2856	2483.55	1741.45
807.9424	358.4812	2461.05	1722.75
808.0857	360.6763	2459.9	1719.15
808.2291	362.8707	2452.05	1709
808.3724	365.0646	2455.65	1709.1
808.5158	367.258	2445.75	1699.1
808.6591	369.4508	2447.55	1697.05
808.8025	371.643	2463.75	1714.9
808.9459	373.8346	2486.5	1734.75
809.0893	376.0257	2510.45	1753.75
809.2327	378.2162	2526.35	1769.55
809.3762	380.4062	2535.6	1775.65
809.5196	382.5956	2506.75	1743.85
809.6631	384.7844	2484.45	1725
809.8066	386.9726	2456.4	1690.95
809.9501	389.1603	2433.1	1670.1
810.0936	391.3474	2450	1656.95
810.2371	393.5339	2420.1	1656.05
810.3806	395.7199	2400.8	1644.85
810.5241	397.9052	2418.45	1667.3
810.6677	400.09	2440.2	1688.15
810.8113	402.2743	2465.4	1713.55
810.9548	404.4579	2481.45	1728.8
811.0984	406.641	2497.8	1744.45
811.2421	408.8235	2532.05	1777
811.3857	411.0054	2586.3	1829.4
811.5293	413.1868	2644.4	1886.75
811.673	415.3675	2707.75	1945.5
811.8166	417.5477	2712.5	1950.7
811.9603	419.7273	2647.25	1885.2
812.104	421.9064	2563.9	1791.6
812.2477	424.0848	2506.7	1740.15
812.3914	426.2627	2457.1	1689.4
812.5351	428.4399	2418.45	1645.9
812.6788	430.6166	2399.3	1622.1
812.8226	432.7928	2359.15	1581.2
812.9663	434.9683	2325.45	1549.05
813.1101	437.1432	2315.8	1535.6
813.2539	439.3176	2298.9	1518.55
813.3977	441.4914	2277.5	1497.05
813.5415	443.6645	2287.25	1503.35
813.6853	445.8371	2285	1503.35
813.8291	448.0091	2281.1	1498.8
813.973	450.1806	2275.15	1493.9
814.1168	452.3514	2270.15	1486.1
814.2607	454.5216	2258.85	1465.3
814.4046	456.6913	2248.05	1462
814.5485	458.8603	2258.7	1474
814.6924	461.0288	2259.25	1474.1
814.8363	463.1967	2249	1463.75
814.9802	465.3639	2267.7	1478
815.1241	467.5306	2242.9	1454.1
815.2681	469.6967	2240.45	1451.95
815.412	471.8622	2224.15	1434.8
815.556	474.0271	2218.35	1428.85
815.7	476.1914	2223.25	1430.95
815.844	478.3551	2218.55	1427.95
815.988	480.5182	2206.2	1413.65
816.132	482.6807	2223.75	1429.55
816.276	484.8426	2230.7	1439.4
816.4201	487.0039	2259.2	1465.25
816.5641	489.1647	2281.9	1485.5
816.7082	491.3248	2306.4	1513.55
816.8522	493.4843	2311.2	1516.7
816.9963	495.6432	2302.6	1507.4
817.1404	497.8015	2278.6	1482
817.2845	499.9592	2260.6	1462.55
817.4286	502.1163	2229.45	1431.15
817.5727	504.2728	2199.85	1400.4
817.7168	506.4287	2182.25	1383
817.861	508.5839	2170.55	1372.35
818.0051	510.7386	2169.1	1367.7
818.1493	512.8927	2170.7	1362.7
818.2935	515.0461	2169.95	1368.1
818.4377	517.199	2180.5	1378.85
818.5818	519.3512	2197.2	1397.35
818.726	521.5029	2251.05	1443.35
818.8703	523.6539	2276.55	1472.95
819.0145	525.8043	2279.8	1473.9
819.1587	527.9541	2243.3	1437.8
819.303	530.1033	2204.7	1399.7
819.4472	532.2519	2177.05	1370.3
819.5915	534.3999	2155.85	1347.9
819.7357	536.5472	2156.55	1348.75
819.88	538.694	2156.1	1348.8
820.0243	540.8401	2163.95	1356.45
820.1686	542.9856	2165.15	1355.35
820.3129	545.1305	2165.2	1354.05
820.4572	547.2748	2170.15	1359.95
820.6016	549.4185	2179.65	1366.6
820.7459	551.5615	2180.45	1368.55
820.8902	553.704	2186.3	1372.55
821.0346	555.8458	2201.45	1388.95
821.1789	557.987	2211.1	1397.65
821.3233	560.1276	2234	1419.9
821.4677	562.2675	2257.85	1446.8
821.6121	564.4069	2309.45	1496.4
821.7565	566.5456	2327.2	1515.95
821.9009	568.6837	2324.4	1512.75
822.0453	570.8212	2279.8	1465.85
822.1897	572.958	2224.45	1409.7
822.3342	575.0942	2196.35	1384.4
822.4786	577.2299	2176.75	1363.65
822.6231	579.3648	2147.45	1333.4
822.7675	581.4992	2135.2	1320.4
822.912	583.6329	2124	1308.7
823.0565	585.766	2150.1	1334.5
823.201	587.8985	2170	1354.7
823.3454	590.0304	2207.25	1378.35
823.4899	592.1616	2216.1	1394.8
823.6345	594.2922	2201.65	1383.9
823.779	596.4222	2181.15	1359.65
823.9235	598.5515	2140.7	1319.1
824.068	600.6802	2113.75	1294
824.2126	602.8083	2078.85	1257.3
824.3571	604.9358	2079.2	1257.3
824.5017	607.0626	2070.4	1247.6
824.6462	609.1888	2073.2	1250.6
824.7908	611.3144	2098.75	1274.15
824.9354	613.4393	2102.6	1279.2
825.08	615.5636	2140.5	1317.7
825.2246	617.6873	2170.95	1348.95
825.3692	619.8103	2187	1358.15
825.5138	621.9327	2189.1	1362.8
825.6584	624.0544	2164.65	1339.85
825.803	626.1756	2132.6	1307.05
825.9477	628.2961	2087.3	1260.95
826.0923	630.4159	2082.15	1255.35
826.237	632.5351	2090.9	1266.25
826.3816	634.6537	2067.15	1240.1
826.5263	636.7716	2072.75	1242.9
826.6709	638.8889	2064.15	1234.55
826.8156	641.0056	2070.6	1243.7
826.9603	643.1216	2076.05	1247.7
827.105	645.237	2079.1	1248
827.2497	647.3518	2051.1	1219.25
827.3944	649.4659	2035.6	1205.65
827.5391	651.5793	2038.25	1206.8
827.6838	653.6922	2027.6	1199.05
827.8285	655.8043	2023.4	1192.75
827.9733	657.9159	2009.25	1175.3
828.118	660.0268	2003.7	1168.55
828.2627	662.137	2008.4	1173.7
828.4075	664.2466	2007.5	1175.45
828.5522	666.3556	1993.55	1161.55
828.697	668.4639	1992.95	1157
828.8418	670.5716	1997.05	1164.5
828.9865	672.6786	1989.6	1155.15
829.1313	674.785	1974.9	1139.05
829.2761	676.8907	1966.4	1131.35
829.4209	678.9958	1970.25	1135.1
829.5657	681.1002	1967.05	1128.9
829.7105	683.204	1976.15	1136.9
829.8553	685.3072	1977.3	1137.75
830.0001	687.4097	1967.7	1130.2
830.1449	689.5115	1967.4	1126.35
830.2898	691.6127	1964.4	1124.4
830.4346	693.7132	1967.85	1129.95
830.5794	695.8131	1979.4	1129.5
830.7243	697.9123	1968	1127
830.8691	700.0109	1969.55	1129.85
831.014	702.1089	1973.75	1135.55
831.1588	704.2061	1977.75	1137.5
831.3037	706.3028	1982.55	1140.8
831.4486	708.3987	1997	1156.15
831.5935	710.4941	2013.15	1171.5
831.7383	712.5887	2009.1	1166.85
831.8832	714.6827	2016.3	1171.6
832.0281	716.7761	2002.2	1162.5
832.173	718.8688	1991.9	1147.8
832.3179	720.9608	1993.15	1148.05
832.4628	723.0522	2016.65	1169.65
832.6077	725.1429	2015.45	1174.2
832.7527	727.233	2042.7	1199.05
832.8976	729.3224	2086.6	1242.15
833.0425	731.4112	2109.5	1263.95
833.1874	733.4993	2112.85	1268
833.3324	735.5867	2086.4	1241.1
833.4773	737.6735	2045.15	1199.05
833.6222	739.7596	2014.1	1166.4
833.7672	741.845	2003.15	1156.25
833.9122	743.9298	2011.45	1161.25
834.0571	746.014	2019.55	1173.1
834.2021	748.0974	2032.1	1182.35
834.347	750.1802	2029	1180.8
834.492	752.2624	2021.85	1175.75
834.637	754.3439	2009.55	1163.15
834.782	756.4247	1995.9	1139.8
834.9269	758.5048	1985.1	1135.8
835.0719	760.5843	1986.4	1138.3
835.2169	762.6631	2003.45	1154.35
835.3619	764.7413	2023.25	1175
835.5069	766.8188	2082.25	1230.4
835.6519	768.8956	2119.3	1268.7
835.7969	770.9718	2149.45	1298.35
835.9419	773.0473	2139.3	1290.35
836.0869	775.1221	2136.25	1286.05
836.232	777.1962	2107.7	1257.7
836.377	779.2697	2139.2	1285.3
836.522	781.3426	2219.7	1359.2
836.667	783.4147	2241.55	1390
836.8121	785.4862	2245.05	1397
836.9571	787.557	2179.85	1330.6
837.1021	789.6271	2110	1257.8
837.2472	791.6966	2031.6	1181.35
837.3922	793.7654	1968.55	1114.6
837.5373	795.8335	1928.5	1074.1
837.6823	797.901	1905.75	1055.2
837.8274	799.9678	1907.95	1055.85
837.9724	802.0339	1911.45	1060.05
838.1175	804.0993	1917.35	1054.65
838.2626	806.1641	1906.75	1052.25
838.4076	808.2282	1903.1	1049.25
838.5527	810.2916	1890.8	1030.95
838.6978	812.3544	1876.85	1022.85
838.8428	814.4164	1868.8	1016.35
838.9879	816.4778	1877.55	1023.15
839.133	818.5385	1880.1	1028.8
839.2781	820.5986	1899.65	1046.8
839.4232	822.658	1932.4	1076.5
839.5682	824.7166	1962.45	1107
839.7133	826.7747	2012.1	1158.95
839.8584	828.832	2059.25	1202.65
840.0035	830.8886	2099.15	1241.55
840.1486	832.9446	2116.35	1260.55
840.2937	834.9999	2090.8	1236.4
840.4388	837.0545	2052.8	1194.15
840.5839	839.1085	1987.95	1130.4
840.729	841.1618	1950.75	1090.5
840.8741	843.2143	1917.05	1060.4
841.0192	845.2662	1895.65	1039.05
841.1643	847.3175	1883.9	1028.3
841.3095	849.368	1870.2	1013.35
841.4546	851.4179	1869.25	1012.45
841.5997	853.467	1871.1	1014.4
841.7448	855.5155	1867	1008.45
841.8899	857.5633	1877.45	1018.2
842.0351	859.6105	1869.95	1010.85
842.1802	861.6569	1863.75	1005.7
842.3253	863.7027	1856.5	998
842.4704	865.7478	1845.05	986.85
842.6156	867.7922	1825.15	965.85
842.7607	869.8359	1830.45	971.7
842.9058	871.8789	1818.7	958.75
843.0509	873.9212	1856.3	965.2
843.1961	875.9629	1825.55	966.85
843.3412	878.0039	1842.5	981
843.4863	880.0441	1840.5	980.35
843.6315	882.0837	1860.5	1000.5
843.7766	884.1226	1868.8	1008.65
843.9218	886.1609	1893.8	1035.9
844.0669	888.1984	1908.55	1050.85
844.212	890.2352	1940.4	1080.4
844.3572	892.2714	1951.05	1086.25
844.5023	894.3069	1912.95	1051.5
844.6475	896.3416	1892.4	1029.25
844.7926	898.3757	1863.8	1002.15
844.9377	900.4091	1852.55	988.4
845.0829	902.4418	1858.2	989.15
845.228	904.4739	1868.45	1003.7
845.3732	906.5052	1884.7	1021.25
845.5183	908.5358	1867	1005.8
845.6635	910.5658	1846.2	981.85
845.8086	912.595	1842.05	980.75
845.9538	914.6236	1816.65	954.95
846.0989	916.6515	1794.4	933.35
846.2441	918.6786	1778.65	913.7
846.3892	920.7051	1782.85	918.35
846.5344	922.7309	1779.85	916.6
846.6795	924.756	1774	909
846.8246	926.7804	1788.1	922.7
846.9698	928.8041	1783.6	918.05
847.1149	930.8272	1788.6	925.65
847.2601	932.8495	1800.25	935.35
847.4052	934.8711	1796.2	931.85
847.5504	936.892	1796.55	931.9
847.6955	938.9123	1805.55	939.85
847.8407	940.9318	1819.95	954.7
847.9858	942.9506	1828	960.85
848.131	944.9688	1813.8	948
848.2761	946.9862	1804.7	938.65
848.4213	949.003	1779.05	913.65
848.5664	951.019	1771.45	906
848.7115	953.0344	1764.4	899.1
848.8567	955.0491	1759.3	891.45
849.0018	957.063	1751.6	887.05
849.147	959.0763	1747.2	882.2
849.2921	961.0888	1734.85	865.55
849.4373	963.1007	1735.4	869.05
849.5824	965.1119	1735.4	870.75
849.7275	967.1223	1724.1	855.45
849.8727	969.1321	1726.15	858.35
850.0178	971.1412	1721.2	853.4
850.1629	973.1495	1716.95	848.15
850.3081	975.1572	1761.75	854.7
850.4532	977.1641	1715.1	848.25
850.5983	979.1704	1719.8	852.4
850.7435	981.1759	1713	842
850.8886	983.1808	1703.2	833.85
851.0337	985.1849	1709.55	834.1
851.1788	987.1884	1698.55	828.95
851.324	989.1911	1702.1	829.9
851.4691	991.1932	1708.85	841.25
851.6142	993.1945	1704.95	836.6
851.7593	995.1951	1698.8	829.6
851.9045	997.1951	1704.8	831.15
852.0496	999.1943	1697.25	829.05
852.1947	1001.1928	1690.7	821.1
852.3398	1003.1906	1695.8	826.9
852.4849	1005.1877	1703.4	832.25
852.63	1007.1841	1717.75	848.45
852.7751	1009.1798	1722.55	852.9
852.9202	1011.1748	1712.15	844
853.0653	1013.1691	1709.95	840.95
853.2104	1015.1627	1691.65	820
853.3555	1017.1556	1655.55	785.65
853.5006	1019.1477	1660.65	789.9
853.6457	1021.1392	1637.4	769.85
853.7908	1023.1299	1637.95	766.4
853.9359	1025.12	1636.5	763
854.081	1027.1093	1636.9	767.6
854.2261	1029.0979	1646.1	777.75
854.3712	1031.0859	1651.15	780.95
854.5163	1033.0731	1656.4	784.5
854.6613	1035.0596	1657.55	786.35
854.8064	1037.0454	1648.15	777.6
854.9515	1039.0304	1633	759.95
855.0965	1041.0148	1631.3	759.55
855.2416	1042.9985	1619.75	749.8
855.3867	1044.9814	1608.1	734.8
855.5317	1046.9636	1601.75	728.9
855.6768	1048.9452	1606.8	735.3
855.8219	1050.926	1607.1	735.55
855.9669	1052.9061	1622.45	751.4
856.112	1054.8855	1620.2	746.1
856.257	1056.8642	1622	749.6
856.4021	1058.8421	1622.95	746.75
856.5471	1060.8194	1611.05	740.3
856.6921	1062.7959	1610.8	737.7
856.8372	1064.7717	1617.15	744.7
856.9822	1066.7469	1612.35	738.95
857.1272	1068.7213	1608.65	735.1
857.2723	1070.695	1621.5	747.65
857.4173	1072.6679	1627.75	756.95
857.5623	1074.6402	1629.45	755.6
857.7073	1076.6117	1647.7	769.8
857.8523	1078.5826	1619.95	746.85
857.9973	1080.5527	1611.5	735.45
858.1423	1082.5221	1590.7	717.4
858.2873	1084.4908	1568.25	694.35
858.4323	1086.4587	1557.05	684.55
858.5773	1088.426	1559.1	685.7
858.7223	1090.3925	1561.95	684.45
858.8673	1092.3584	1552.9	680.95
859.0123	1094.3235	1554.4	680.75
859.1573	1096.2879	1565.85	691.3
859.3022	1098.2515	1573.1	700.15
859.4472	1100.2145	1593.15	720.5
859.5922	1102.1767	1606.9	730.25
859.7371	1104.1382	1630.25	757.3
859.8821	1106.099	1662.85	787.15
860.027	1108.0591	1670.6	796.6
860.172	1110.0185	1704.25	828.05
860.3169	1111.9771	1722.7	850.25
860.4619	1113.9351	1749.95	876.25
860.6068	1115.8923	1788.35	912.15
860.7517	1117.8488	1807.2	931.15
860.8967	1119.8045	1769.85	896.85
861.0416	1121.7596	1717.05	843.2
861.1865	1123.7139	1669.7	796.35
861.3314	1125.6675	1625.95	749.2
861.4763	1127.6204	1619.05	743.85
861.6212	1129.5726	1636.5	758.7
861.7661	1131.524	1633.55	760.25
861.911	1133.4748	1609.3	734.15
862.0559	1135.4248	1579.25	700.9
862.2008	1137.3741	1541.4	667.7
862.3457	1139.3226	1532	655.9
862.4905	1141.2705	1529.5	654.55
862.6354	1143.2176	1535.9	654.3
862.7803	1145.164	1536.7	658.8
862.9251	1147.1097	1532	655.8
863.07	1149.0546	1515.7	639
863.2148	1150.9989	1502.2	627.45
863.3597	1152.9424	1499.7	622
863.5045	1154.8852	1488.8	611.7
863.6493	1156.8272	1483.9	608.2
863.7942	1158.7686	1491.25	607.45
863.939	1160.7092	1474.05	597.1
864.0838	1162.6491	1488.2	610.15
864.2286	1164.5883	1486.4	610.85
864.3734	1166.5267	1498.05	622.35
864.5182	1168.4644	1501.15	623.15
864.663	1170.4014	1519.95	637.95
864.8078	1172.3377	1541.15	666.85
864.9526	1174.2732	1558.4	682.65
865.0974	1176.2081	1610.5	735.4
865.2421	1178.1421	1688.8	807.65
865.3869	1180.0755	1746.75	869.75
865.5317	1182.0082	1777.45	900.4
865.6764	1183.9401	1768.15	889.5
865.8212	1185.8713	1702.8	828.95
865.9659	1187.8017	1652.25	774.4
866.1106	1189.7315	1576.05	698.75
866.2554	1191.6605	1569.85	663.05
866.4001	1193.5888	1514.3	635.15
866.5448	1195.5163	1492.65	614.5
866.6895	1197.4432	1485.95	607.65
866.8342	1199.3693	1464.35	585.85
866.9789	1201.2947	1468.45	587.05
867.1236	1203.2193	1456.75	579.95
867.2683	1205.1432	1456.45	578.55
867.413	1207.0664	1446.45	568.95
867.5576	1208.9889	1442.15	562.6
867.7023	1210.9106	1444	565.25
867.847	1212.8316	1443.45	565.35
867.9916	1214.7519	1462.9	575.35
868.1363	1216.6715	1460.2	584.4
868.2809	1218.5903	1466.25	588.05
868.4255	1220.5084	1475.7	598
868.5701	1222.4257	1475.3	598
868.7148	1224.3424	1470.75	593.15
868.8594	1226.2583	1488.05	608.45
869.004	1228.1735	1503.55	623.9
869.1486	1230.0879	1521.8	644.9
869.2932	1232.0016	1540	660.95
869.4377	1233.9146	1557.3	675.35
869.5823	1235.8269	1569.7	693.4
869.7269	1237.7384	1573.9	694.7
869.8715	1239.6492	1564.25	685.85
870.016	1241.5592	1573.7	694.4
870.1606	1243.4686	1602.75	725.05
870.3051	1245.3772	1643.7	764.9
870.4496	1247.285	1686.05	806
870.5941	1249.1922	1729.1	851.65
870.7387	1251.0986	1763.5	884.9
870.8832	1253.0042	1799.65	920.3
871.0277	1254.9092	1851.65	973.9
871.1722	1256.8134	1894.9	1014.6
871.3167	1258.7169	1939.2	1060.75
871.4611	1260.6196	1965.6	1086.2
871.6056	1262.5216	1967.55	1086.55
871.7501	1264.4229	1960.5	1083.3
871.8945	1266.3234	1940.7	1062.1
872.039	1268.2232	1909.4	1029.95
872.1834	1270.1223	1879.35	997.15
872.3278	1272.0207	1854.65	975.9
872.4723	1273.9183	1856.65	970.75
872.6167	1275.8151	1846.05	968.6
872.7611	1277.7113	1860.1	979.4
872.9055	1279.6067	1903.8	1026.55
873.0499	1281.5014	2007.4	1125
873.1943	1283.3953	2084.15	1203.9
873.3386	1285.2885	2184.65	1305.7
873.483	1287.181	2270.15	1387.55
873.6274	1289.0727	2292.85	1413.95
873.7717	1290.9637	2257.85	1376.45
873.9161	1292.854	2208	1329.95
874.0604	1294.7435	2130.9	1250.75
874.2047	1296.6323	2080.9	1200.8
874.349	1298.5204	2021.9	1138.45
874.4933	1300.4077	1977.65	1094.8
874.6376	1302.2943	1950.1	1069.65
874.7819	1304.1802	1934.75	1053.9
874.9262	1306.0653	1913.35	1031.4
875.0705	1307.9497	1900.25	1020.45
875.2147	1309.8333	1886.25	1005.85
875.359	1311.7162	1869.4	991.45
875.5032	1313.5984	1849.35	965.4
875.6475	1315.4798	1853.3	963.05
875.7917	1317.3605	1849.7	953.9
875.9359	1319.2405	1840.95	958.75
876.0801	1321.1197	1829.75	947.7
876.2243	1322.9982	1802.25	915.75
876.3685	1324.876	1772.05	891.4
876.5127	1326.753	1719.15	839.1
876.6569	1328.6293	1671.35	789.95
876.801	1330.5048	1618.5	735.4
876.9452	1332.3796	1568.7	690.45
877.0893	1334.2537	1569.95	663.45
877.2335	1336.127	1527.35	647.45
877.3776	1337.9996	1511.65	630.9
877.5217	1339.8714	1504.2	622.25
877.6658	1341.7426	1529.45	606
877.8099	1343.6129	1486.1	606.2
877.954	1345.4826	1468.1	587.65
878.0981	1347.3515	1463.9	580.7
878.2422	1349.2196	1458.85	576.05
878.3862	1351.087	1450.65	568.7
878.5303	1352.9537	1447.9	567.35
878.6743	1354.8197	1454.9	574.9
878.8184	1356.6849	1461.05	578.9
878.9624	1358.5493	1458.6	578.6
879.1064	1360.4131	1463.7	583.1
879.2504	1362.276	1492.4	611.1
879.3944	1364.1383	1513.15	634.25
879.5384	1365.9998	1520.25	632.6
879.6823	1367.8606	1510.1	630.4
879.8263	1369.7206	1506.4	624.15
879.9702	1371.5799	1507.65	623.3
880.1142	1373.4384	1497.55	618.5
880.2581	1375.2962	1488.5	605.3
880.402	1377.1533	1461.55	580.3
880.5459	1379.0096	1427.1	542.1
880.6898	1380.8652	1409.25	528.6
880.8337	1382.7201	1397.7	518.2
880.9776	1384.5742	1382.4	499.7
881.1215	1386.4275	1372.25	488.75
881.2653	1388.2802	1362.3	483.35
881.4092	1390.132	1359.9	477.75
881.553	1391.9832	1349.05	466.7
881.6968	1393.8336	1347.9	466.7
881.8406	1395.6832	1340.95	456.9
881.9844	1397.5322	1333.35	453.1
882.1282	1399.3803	1335.75	448.25
882.272	1401.2278	1325.4	440.95
882.4158	1403.0745	1318.75	436.05
882.5595	1404.9204	1314.15	432.1
882.7033	1406.7656	1313.05	430.15
882.847	1408.6101	1310.4	426.2
882.9908	1410.4538	1305	423.8
883.1345	1412.2968	1302.7	421.35
883.2782	1414.139	1301.15	417.85
883.4219	1415.9805	1308.85	425.85
883.5656	1417.8213	1316	425.75
883.7092	1419.6613	1325.85	443.5
883.8529	1421.5006	1337.3	454.4
883.9965	1423.3391	1355.1	472.4
884.1402	1425.1769	1377.5	494.8
884.2838	1427.0139	1419.45	535.25
884.4274	1428.8502	1465.35	582.45
884.571	1430.6858	1500.3	617.4
884.7146	1432.5206	1505.05	623.1
884.8582	1434.3547	1507.15	623.4
885.0018	1436.188	1494.6	611.9
885.1453	1438.0206	1484.25	602.4
885.2889	1439.8524	1481.6	599.4
885.4324	1441.6835	1477.2	591.3
885.5759	1443.5139	1491.8	606.65
885.7194	1445.3435	1477	592.65
885.8629	1447.1724	1484.35	604.1
886.0064	1449.0005	1476.15	595.15
886.1499	1450.8279	1475.8	592.1
886.2933	1452.6545	1466.8	582.65
886.4368	1454.4804	1462.3	580.45
886.5802	1456.3056	1467.4	578
886.7237	1458.13	1455.15	573.65
886.8671	1459.9536	1441.4	557.2
887.0105	1461.7766	1418.4	536.35
887.1539	1463.5987	1399.2	515.8
887.2972	1465.4202	1380.5	497.9
887.4406	1467.2409	1361.1	478.6
887.584	1469.0608	1343.25	460.25
887.7273	1470.88	1332.95	450.05
887.8706	1472.6984	1312.15	429.9
888.0139	1474.5161	1301.1	415.3
888.1572	1476.3331	1289.8	406.4
888.3005	1478.1493	1283.7	401.1
888.4438	1479.9648	1288.4	405.85
888.5871	1481.7795	1283.5	400.15
888.7303	1483.5935	1283.75	401.1
888.8736	1485.4067	1285.3	402.5
889.0168	1487.2192	1286.9	403.7
889.16	1489.031	1283.6	398.55
889.3032	1490.842	1282.6	399.35
889.4464	1492.6522	1284.45	401.4
889.5896	1494.4618	1276.45	393.55
889.7327	1496.2705	1281.9	399.1
889.8759	1498.0785	1264.6	381.05
890.019	1499.8858	1260.15	376.9
890.1622	1501.6924	1265.05	383.1
890.3053	1503.4981	1259	377.2
890.4484	1505.3032	1253.95	370.05
890.5914	1507.1075	1251.55	368.9
890.7345	1508.911	1250.4	365.75
890.8776	1510.7138	1249.15	364.6
891.0206	1512.5159	1244.15	360.1
891.1637	1514.3172	1242.85	360.25
891.3067	1516.1178	1237.7	354.8
891.4497	1517.9176	1234.25	348.7
891.5927	1519.7166	1227.3	345.3
891.7357	1521.515	1234.65	344.8
891.8786	1523.3126	1226.1	341.2
892.0216	1525.1094	1221.25	337.35
892.1645	1526.9055	1214.1	332.7
892.3074	1528.7008	1207.55	324
892.4503	1530.4954	1217.7	333
892.5932	1532.2893	1214.95	332.9
892.7361	1534.0824	1214.55	326.6
892.879	1535.8747	1205.1	321.75
893.0218	1537.6663	1205.75	323.05
893.1647	1539.4572	1203.5	316.3
893.3075	1541.2473	1208.05	324
893.4503	1543.0367	1205.25	324.3
893.5931	1544.8253	1205.5	317.95
893.7359	1546.6132	1208.65	322.8
893.8787	1548.4003	1216.75	321.75
894.0214	1550.1867	1214.8	321.45
894.1642	1551.9723	1216.45	327.2
894.3069	1553.7572	1217	329.75
894.4496	1555.5414	1223.25	337.75
894.5923	1557.3247	1230.85	346.05
894.735	1559.1074	1255.15	373.2
894.8777	1560.8893	1264.75	381.45
895.0204	1562.6705	1291.45	408.05
895.163	1564.4509	1304	420.6
895.3056	1566.2305	1312.25	429.35
895.4482	1568.0094	1314.7	431.45
895.5908	1569.7876	1310.1	425.6
895.7334	1571.565	1305.5	420.4
895.876	1573.3417	1298.2	414.05
896.0186	1575.1176	1301.75	418.75
896.1611	1576.8928	1310	426.75
896.3036	1578.6672	1323.55	440
896.4461	1580.4409	1334.1	451.35
896.5886	1582.2138	1355	468.4
896.7311	1583.986	1368.75	485.3
896.8736	1585.7575	1385.6	501.5
897.0161	1587.5282	1404.1	520.6
897.1585	1589.2981	1413.55	530.1
897.3009	1591.0673	1417.4	533.6
897.4433	1592.8358	1422.4	537.8
897.5857	1594.6035	1422.75	536.45
897.7281	1596.3704	1415.35	530.65
897.8705	1598.1366	1400.45	515.65
898.0128	1599.9021	1385.5	500.25
898.1551	1601.6668	1376.5	488.6
898.2975	1603.4308	1371.1	484.65
898.4398	1605.194	1377.6	490.25
898.5821	1606.9564	1381.1	497.2
898.7243	1608.7182	1412.75	524.85
898.8666	1610.4791	1448.9	564.85
899.0088	1612.2394	1486.6	603.8
899.1511	1613.9988	1529.55	644.4
899.2933	1615.7576	1576.5	692.3
899.4355	1617.5156	1593.8	704.45
899.5776	1619.2728	1575.55	691.5
899.7198	1621.0293	1526.7	642.35
899.862	1622.785	1476.55	587.4
900.0041	1624.54	1417.4	531.85
900.1462	1626.2942	1366.65	480.1
900.2883	1628.0477	1310.4	422.25
900.4304	1629.8005	1276.7	390.3
900.5725	1631.5525	1241.85	356.55
900.7145	1633.3037	1221.4	338.95
900.8566	1635.0542	1200.55	316.95
900.9986	1636.804	1187.2	302.75
901.1406	1638.553	1236.75	288.05
901.2826	1640.3013	1166.8	281.6
901.4245	1642.0488	1156.4	269.85
901.5665	1643.7955	1143.45	259.25
901.7085	1645.5416	1133.55	247.1
901.8504	1647.2868	1135.6	250.6
901.9923	1649.0313	1133.65	249.7
902.1342	1650.7751	1133.35	244.55
902.2761	1652.5181	1125.85	240.65
902.4179	1654.2604	1128.1	242.8
902.5598	1656.0019	1124.85	240.3
902.7016	1657.7427	1130.7	245.3
902.8434	1659.4828	1138.15	254.05
902.9852	1661.222	1155.3	270.75
903.127	1662.9606	1163.3	280.85
903.2687	1664.6984	1183.65	298.95
903.4105	1666.4354	1188.8	304.05
903.5522	1668.1717	1178.8	294.1
903.6939	1669.9072	1158.4	274.05
903.8356	1671.642	1138.3	253.95
903.9773	1673.3761	1119.8	236.4
904.119	1675.1094	1110.35	224.85
904.2606	1676.8419	1102.25	217.95
904.4022	1678.5737	1090.05	204.95
904.5439	1680.3048	1087.15	201.2
904.6855	1682.0351	1081.85	199.5
904.827	1683.7646	1081.25	192.65
904.9686	1685.4934	1072.5	189.75
905.1101	1687.2215	1074.45	189.35
905.2517	1688.9488	1068.05	184
905.3932	1690.6754	1068.95	184.75
905.5347	1692.4012	1069.5	184.8
905.6761	1694.1263	1069.15	185.5
905.8176	1695.8506	1068.65	183.4
905.9591	1697.5742	1060.85	177.5
906.1005	1699.297	1065.2	181.2
906.2419	1701.0191	1059.2	174.35
906.3833	1702.7404	1058.3	175.55
906.5246	1704.461	1058.05	171.5
906.666	1706.1808	1062.8	176.95
906.8073	1707.8999	1055.65	169.65
906.9487	1709.6182	1056.75	172.7
907.09	1711.3358	1051.95	166.05
907.2313	1713.0527	1052.2	169.1
907.3725	1714.7688	1058.6	166.55
907.5138	1716.4841	1056.5	170.4
907.655	1718.1987	1055.85	167.1
907.7962	1719.9126	1047.2	163.45
907.9374	1721.6257	1051.8	163.85
908.0786	1723.338	1050	163.75
908.2198	1725.0496	1047.4	158.1
908.3609	1726.7605	1049.8	163.3
908.502	1728.4706	1049.4	163.65
908.6431	1730.18	1048.5	160.85
908.7842	1731.8886	1048.25	162.45
908.9253	1733.5964	1049.15	157
909.0664	1735.3036	1047.65	159.75
909.2074	1737.0099	1044	159.6
909.3484	1738.7156	1043.6	160.2
909.4894	1740.4204	1044.6	157.35
909.6304	1742.1246	1044.55	158.3
909.7714	1743.8279	1048.85	164.8
909.9123	1745.5306	1041.3	153.45
910.0532	1747.2325	1038.5	152.95
910.1941	1748.9336	1042.15	157.6
910.335	1750.634	1045.05	156.7
910.4759	1752.3336	1040.05	155.6
910.6168	1754.0325	1037.7	154.45
910.7576	1755.7307	1039.9	154.55
910.8984	1757.4281	1044.85	161.3
911.0392	1759.1247	1045.9	152.45
911.18	1760.8206	1041.05	152.15
911.3208	1762.5158	1045.7	157.65
911.4615	1764.2102	1038.1	152.85
911.6022	1765.9039	1038.05	152
911.7429	1767.5968	1038.15	152.7
911.8836	1769.289	1037.2	153.15
912.0243	1770.9804	1036.95	150.25
912.1649	1772.6711	1036	153.1
912.3056	1774.361	1035.1	150.35
912.4462	1776.0502	1032.55	147.2
912.5868	1777.7386	1040.15	150.15
912.7274	1779.4263	1038.05	150.3
912.8679	1781.1132	1031.75	147.35
913.0084	1782.7994	1035.6	147.85
913.149	1784.4849	1032.15	147.05
913.2895	1786.1696	1052.9	149.2
913.4299	1787.8535	1032.25	145.3
913.5704	1789.5367	1033.95	148.3
913.7108	1791.2192	1031.5	144.9
913.8513	1792.9009	1045.4	146.55
913.9917	1794.5818	1031	144.8
914.132	1796.2621	1028.8	144.35
914.2724	1797.9415	1026.05	140.3
914.4128	1799.6202	1030	145.25
914.5531	1801.2982	1029.8	144.4
914.6934	1802.9755	1032.55	147.05
914.8337	1804.6519	1027.5	143.8
914.9739	1806.3277	1026.35	140.4
915.1142	1808.0027	1026.15	141.9
915.2544	1809.6769	1028.8	141.05
915.3946	1811.3504	1027.15	138.85
915.5348	1813.0231	1027.7	140.3
915.675	1814.6951	1026.25	140.7
915.8151	1816.3664	1025.55	138.4
915.9553	1818.0369	1022.75	137.05
916.0954	1819.7067	1025.6	141.65
916.2355	1821.3757	1023.95	138.5
916.3755	1823.044	1022.1	137.6
916.5156	1824.7115	1020.2	135.3
916.6556	1826.3783	1019.45	135.1
916.7956	1828.0443	1017.4	132.95
916.9356	1829.7096	1024.35	139.25
917.0756	1831.3741	1025.8	137.5
917.2155	1833.0379	1021.3	137.1
917.3555	1834.701	1021.05	132.2
917.4954	1836.3633	1023.7	136.05
917.6353	1838.0248	1024.7	137.2
917.7751	1839.6856	1020.1	134
917.915	1841.3457	1014.95	132.2
918.0548	1843.005	1020.8	133.4
918.1946	1844.6636	1015.45	132.4
918.3344	1846.3214	1017.35	132.55
918.4742	1847.9785	1021.55	137.35
918.6139	1849.6349	1018.75	130.15
918.7537	1851.2904	1027.7	132.5
918.8934	1852.9453	1018.05	131.2
919.0331	1854.5994	1018.85	131.5
919.1727	1856.2528	1021.6	129.45
919.3124	1857.9054	1019.05	133.9
919.452	1859.5572	1013.4	129.95
919.5916	1861.2083	1016.15	129.65
919.7312	1862.8587	1015.45	131.05
919.8708	1864.5084	1017.85	131.95
920.0103	1866.1572	1013.65	129.1
920.1498	1867.8054	1013.15	126.9
920.2893	1869.4528	1015.3	130.5
920.4288	1871.0994	1015.65	130.7
920.5683	1872.7453	1009.3	123.25
920.7077	1874.3905	1020.4	130.3
920.8471	1876.0349	1016	129.85
920.9865	1877.6786	1012.4	126.2
921.1259	1879.3215	1010.15	125.15
921.2653	1880.9637	1014.2	127.5
921.4046	1882.6051	1009.75	124.05
921.5439	1884.2458	1015.05	126.75
921.6832	1885.8858	1011.9	125.2
921.8225	1887.525	1011.1	123.6
921.9617	1889.1634	1007.25	122.7
922.101	1890.8011	1012.5	127
922.2402	1892.4381	1010.95	126.05
922.3794	1894.0743	1011.3	125.4
922.5185	1895.7098	1010.25	126.55
922.6577	1897.3446	1010.95	124.95
922.7968	1898.9786	1014.15	123.55
922.9359	1900.6118	1006.8	122.6
923.075	1902.2443	1010.75	123.05
923.214	1903.8761	1008.4	124.3
923.3531	1905.5071	1011.7	124.95
923.4921	1907.1374	1009.25	124
923.6311	1908.7669	1005.9	121.45
923.77	1910.3957	1005.7	120.5
923.909	1912.0237	1006	121.3
924.0479	1913.651	1004.8	118.35
924.1868	1915.2776	1004.4	121.75
924.3257	1916.9034	1002.8	118.85
924.4646	1918.5285	1002.95	118.15
924.6034	1920.1528	1002.45	117.75
924.7422	1921.7764	1004.6	121.1
924.881	1923.3992	1002.15	116.95
925.0198	1925.0213	1002.9	117.85
925.1586	1926.6427	1001.85	119
925.2973	1928.2633	1106.95	116.1
925.436	1929.8832	1006.4	121
925.5747	1931.5023	1002.45	116.35
925.7134	1933.1207	998.2	112.35
925.852	1934.7383	1003.85	118.45
925.9906	1936.3552	997.1	113.45
926.1292	1937.9714	1001.55	116.05
926.2678	1939.5868	1002.15	114.9
926.4064	1941.2015	1000.35	111.9
926.5449	1942.8154	999	112.95
926.6834	1944.4286	999.5	114.75
926.8219	1946.041	1023.3	115.9
926.9604	1947.6528	1004.1	114.35
927.0988	1949.2637	996.4	110.6
927.2372	1950.8739	996.45	109.1
927.3756	1952.4834	997.9	111.45
927.514	1954.0921	999.7	113.55
927.6523	1955.7001	999.55	110.05
927.7907	1957.3074	994.85	109.25
927.929	1958.9139	994.6	107.7
928.0673	1960.5197	997.35	111.55
928.2055	1962.1247	994.6	111.65
928.3438	1963.729	993.75	109.7
928.482	1965.3325	1018	109.85
928.6202	1966.9353	996.95	110.95
928.7584	1968.5374	992.9	106.15
928.8965	1970.1387	994.9	108.8
929.0346	1971.7393	995.15	107.2
929.1727	1973.3392	993.6	106.65
929.3108	1974.9383	995.4	109.35
929.4489	1976.5366	991.4	106.35
929.5869	1978.1342	991.7	102.35
929.7249	1979.7311	998.15	111.65
929.8629	1981.3273	996.35	109.75
930.0009	1982.9227	992.05	104.4
930.1388	1984.5173	988.95	103.75
930.2767	1986.1112	989.45	103.8
930.4146	1987.7044	987.3	103.5
930.5525	1989.2968	992.1	106.15
930.6904	1990.8885	992.85	101.85
930.8282	1992.4795	995.35	108.45
930.966	1994.0697	990.7	103.95
931.1038	1995.6592	990.75	104.35
931.2415	1997.2479	990.65	104.6
931.3793	1998.8359	990.65	104.6
931.517	2000.4232	988.85	102.45
931.6547	2002.0097	987	102.7
931.7923	2003.5955	986.4	100.85
931.93	2005.1805	991.95	104.05
932.0676	2006.7648	992.65	107.55
932.2052	2008.3484	986.3	98.45
932.3427	2009.9312	990.5	102.95
932.4803	2011.5133	989	101.85
932.6178	2013.0946	984.55	98.3
932.7553	2014.6752	983.2	98.75
932.8928	2016.2551	990.7	103.8
933.0302	2017.8342	984.2	97.6
933.1676	2019.4126	986	100.65
933.305	2020.9902	986.7	102.45
933.4424	2022.5672	989.4	102.8
933.5798	2024.1433	998	105.25
933.7171	2025.7188	988.65	104.25
933.8544	2027.2935	987.7	100.3
933.9917	2028.8674	987.8	101.05
934.129	2030.4406	985.55	101.4
934.2662	2032.0131	985	98.85
934.4034	2033.5849	990.6	100.55
934.5406	2035.1559	985.9	100.6
934.6778	2036.7261	983.65	98.5
934.8149	2038.2957	984.6	100.6
934.952	2039.8645	982.5	97.3
935.0891	2041.4325	986.8	98.2
935.2262	2042.9998	983.75	100.25
935.3632	2044.5664	985.8	98.4
935.5002	2046.1323	985.55	98.4
935.6372	2047.6974	989.5	102.3
935.7742	2049.2617	979.65	92.55
935.9111	2050.8254	1021.2	101.15
936.048	2052.3883	988.5	101.15
936.1849	2053.9504	983.15	96.9
936.3218	2055.5118	988.5	101.05
936.4586	2057.0725	988.05	98.8
936.5955	2058.6325	984.05	97.3
936.7323	2060.1917	985.7	100.95
936.869	2061.7502	985	95.2
937.0058	2063.3079	985.15	99.15
937.1425	2064.8649	989.9	100.2
937.2792	2066.4212	984.7	97
937.4159	2067.9767	984.35	97.9
937.5525	2069.5315	982.65	96
937.6891	2071.0856	985.4	98.85
937.8257	2072.6389	980.25	94.1
937.9623	2074.1915	982.55	97.75
938.0989	2075.7433	986.85	100.2
938.2354	2077.2945	985.55	100.9
938.3719	2078.8448	983.3	98.05
938.5084	2080.3945	981.2	94.8
938.6448	2081.9434	983.1	98.55
938.7812	2083.4916	979.75	93.25
938.9176	2085.039	980.35	94.6
939.054	2086.5857	980.1	93.25
939.1903	2088.1317	981.6	97.9
939.3267	2089.677	980.55	94.05
939.463	2091.2215	981.7	97.8
939.5992	2092.7652	985.85	97.7
939.7355	2094.3083	977.55	90.6
939.8717	2095.8506	979.95	95
940.0079	2097.3921	983.25	99.65
940.1441	2098.933	981.75	96.35
940.2802	2100.4731	980.65	95.8
940.4163	2102.0124	995.5	92.35
940.5524	2103.5511	983.2	98.55
940.6885	2105.089	982.5	95.9
940.8245	2106.6261	981.6	96.25
940.9606	2108.1626	982.7	95.95
941.0965	2109.6983	1010.85	96.4
941.2325	2111.2332	984.5	98.25
941.3684	2112.7675	985.65	99
941.5044	2114.301	981.4	95
941.6403	2115.8337	983.1	96.9
941.7761	2117.3657	979.7	94.8
941.912	2118.897	982.65	95.55
942.0478	2120.4276	988.15	96.25
942.1835	2121.9575	980.35	94.8
942.3193	2123.4866	994.05	94.1
942.455	2125.0149	982.65	95.25
942.5907	2126.5426	978.6	94.6
942.7264	2128.0695	984.45	94.5
942.8621	2129.5956	979.35	94.4
942.9977	2131.1211	987.1	97.3
943.1333	2132.6458	977.2	90.65
943.2689	2134.1698	982.9	97.1
943.4044	2135.693	982.8	96.7
943.54	2137.2155	982.8	93.7
943.6755	2138.7373	983.05	95.8
943.8109	2140.2584	978.75	93.7
943.9464	2141.7787	987.55	95.75
944.0818	2143.2983	979.9	93.45
944.2172	2144.8171	975.7	90.05
944.3526	2146.3353	982.5	95.5
944.4879	2147.8527	978	93.35
944.6232	2149.3693	977.35	91.55
944.7585	2150.8853	980.25	94.7
944.8938	2152.4005	980.7	96.6
945.029	2153.9149	978.15	92.35
945.1642	2155.4287	976.65	91
945.2994	2156.9417	977.5	89.05
945.4346	2158.454	982.25	92.4
945.5697	2159.9655	978.35	90.8
945.7048	2161.4764	978.25	92.2
945.8399	2162.9865	980.8	94.15
945.9749	2164.4958	977.1	89.55
946.1099	2166.0045	982.45	94.3
946.2449	2167.5124	975.55	91.3
946.3799	2169.0195	980.05	95.4
946.5148	2170.526	978.9	93.05
946.6498	2172.0317	979.7	94.75
946.7846	2173.5367	980.05	94.25
946.9195	2175.0409	975.8	92.95
947.0543	2176.5445	978.45	92.6
947.1891	2178.0473	978.2	93.25
947.3239	2179.5494	979.45	90
947.4587	2181.0507	978.2	91.1
947.5934	2182.5513	975.35	88.7
947.7281	2184.0512	975.9	90.6
947.8628	2185.5504	978.15	91.5
947.9974	2187.0488	975.45	90.9
948.132	2188.5465	976.25	90.2
948.2666	2190.0435	976.25	89.6
948.4012	2191.5397	974.85	88.95
948.5357	2193.0353	972.65	87.8
948.6702	2194.5301	976.25	88.85
948.8047	2196.0241	978.35	92.7
948.9392	2197.5175	975.55	90.05
949.0736	2199.0101	977.65	89.15
949.208	2200.502	976.1	91.7
949.3424	2201.9931	970.95	84.8
949.4767	2203.4835	977.25	90.55
949.611	2204.9733	979.15	87.4
949.7453	2206.4622	974.85	89.1
949.8796	2207.9505	975.6	87.7
950.0138	2209.438	972.35	84.9
950.148	2210.9248	971.8	85.8
950.2822	2212.4109	974.1	88.7
950.4164	2213.8962	972.85	83.85
950.5505	2215.3809	974.15	85.45
950.6846	2216.8648	973.65	87.5
950.8186	2218.3479	974.95	84.8
950.9527	2219.8304	972.7	84.6
951.0867	2221.3121	971.75	84.2
951.2207	2222.7931	968.6	84.25
951.3546	2224.2733	967.7	81.45
951.4886	2225.7529	970.9	86.45
951.6225	2227.2317	972.15	82.95
951.7563	2228.7098	970.55	83.85
951.8902	2230.1872	968.2	80.15
952.024	2231.6638	969.3	82.9
952.1578	2233.1397	975	84.9
952.2916	2234.6149	970.05	83.7
952.4253	2236.0894	969.6	81.85
952.559	2237.5632	977.25	81.5
952.6927	2239.0362	971.25	84.75
952.8263	2240.5085	970.95	83.05
952.9599	2241.9801	970.15	83.75
953.0935	2243.4509	967	83.45
953.2271	2244.921	965.1	80
953.3606	2246.3904	971.85	84.2
953.4941	2247.8591	967.2	80.6
953.6276	2249.3271	965.25	79.65
953.7611	2250.7943	969.4	82.1
953.8945	2252.2608	965.4	79.65
954.0279	2253.7266	962.45	75
954.1612	2255.1917	966.25	81
954.2946	2256.656	965.15	79.1
954.4279	2258.1197	961.8	76.3
954.5612	2259.5826	968	80.85
954.6944	2261.0447	965.3	76.7
954.8276	2262.5062	964.85	76.5
954.9608	2263.9669	966.6	77.75
955.094	2265.4269	963.5	77.35
955.2271	2266.8862	963.65	79.4
955.3602	2268.3448	965.45	78.05
955.4933	2269.8026	962.95	76.95
955.6264	2271.2598	966.7	80.95
955.7594	2272.7162	961.5	77.05
955.8924	2274.1719	961.6	77.75
956.0253	2275.6268	961.3	76.9
956.1583	2277.0811	963.55	76.65
956.2912	2278.5346	963.4	77.75
956.4241	2279.9874	962	74.35
956.5569	2281.4395	960.9	75.6
956.6897	2282.8908	965.7	74
956.8225	2284.3414	964.3	76.95
956.9553	2285.7914	960.65	75.1
957.088	2287.2406	963.15	77.05
957.2207	2288.689	960.9	76.25
957.3534	2290.1368	959.95	74.05
957.486	2291.5838	959.35	71.4
957.6186	2293.0302	963.05	77.8
957.7512	2294.4758	960.05	74.2
957.8838	2295.9206	961.95	73.9
958.0163	2297.3648	962	75.95
958.1488	2298.8082	961.2	74.55
958.2813	2300.251	958.1	72.65
958.4137	2301.693	962.9	75.7
958.5461	2303.1343	962.3	75.75
958.6785	2304.5748	959.1	74.15
958.8108	2306.0147	958.75	71.65
958.9432	2307.4538	960.45	72.6
959.0754	2308.8922	956.55	72.3
959.2077	2310.3299	958.45	74.45
959.3399	2311.7669	960.4	75.4
959.4721	2313.2031	959.1	73.9
959.6043	2314.6387	958.65	72.45
959.7365	2316.0735	958.85	72.05
959.8686	2317.5076	960.2	74.75
960.0006	2318.941	958.65	73.85
960.1327	2320.3737	958.75	73.4
960.2647	2321.8056	961.85	75.1
960.3967	2323.2369	959.55	72.7
960.5287	2324.6674	963.45	73.6
960.6606	2326.0972	965.15	76.4
960.7925	2327.5263	965.5	80.4
960.9244	2328.9547	966.3	79.2
961.0562	2330.3823	966.75	80.15
961.1881	2331.8092	960.6	73.05
961.3198	2333.2355	953.75	68.65
961.4516	2334.661	957.85	70.95
961.5833	2336.0858	956.2	68.7
961.715	2337.5098	954.8	71.05
961.8467	2338.9332	957.85	71.75
961.9783	2340.3558	957.75	67.35
962.1099	2341.7778	953.6	66.45
962.2415	2343.199	955.5	68.7
962.373	2344.6195	956.1	69.55
962.5045	2346.0393	952.9	68.3
962.636	2347.4583	954.95	68.15
962.7675	2348.8767	950.85	65.45
962.8989	2350.2943	954.3	66.3
963.0303	2351.7113	959.35	72.45
963.1617	2353.1275	950.95	66.15
963.293	2354.543	962.95	69.05
963.4243	2355.9578	955.5	71.1
963.5556	2357.3718	953.95	65.45
963.6868	2358.7852	957.15	67.3
963.818	2360.1978	955.25	70.05
963.9492	2361.6098	951.65	67.25
964.0803	2363.021	955.85	66.3
964.2114	2364.4315	954.75	70.95
964.3425	2365.8413	953.55	66.55
964.4736	2367.2504	948.9	63.2
964.6046	2368.6587	951.55	65.55
964.7356	2370.0664	951.6	64.65
964.8666	2371.4733	952.4	65.8
964.9975	2372.8795	952.25	66.1
965.1284	2374.285	952.4	66.3
965.2593	2375.6899	949.35	63.95
965.3901	2377.0939	951	67
965.5209	2378.4973	950.15	64.5
965.6517	2379.9	949.55	64.95
965.7825	2381.3019	953.3	66.4
965.9132	2382.7032	947.75	61.95
966.0439	2384.1037	948.2	65.05
966.1745	2385.5035	949.7	62.65
966.3051	2386.9027	948.1	61.85
966.4357	2388.3011	951.75	63.65
966.5663	2389.6987	950.8	67.3
966.6968	2391.0957	948.45	64.25
966.8273	2392.492	950	64.55
966.9578	2393.8876	951.5	66
967.0882	2395.2824	947.3	59.75
967.2186	2396.6765	947.75	62.2
967.349	2398.07	947.45	63.3
967.4793	2399.4627	945.9	59.3
967.6097	2400.8547	950.85	64.9
967.7399	2402.246	950.65	59.1
967.8702	2403.6366	945.05	58.55
968.0004	2405.0265	944.2	57.45
968.1306	2406.4156	947.25	58.75
968.2607	2407.8041	952.1	65.1
968.3909	2409.1918	945.4	56.85
968.521	2410.5789	942.35	56.2
968.651	2411.9652	948.95	60.95
968.781	2413.3508	945.15	58.3
968.911	2414.7358	946.75	61.05
969.041	2416.12	939.85	54.75
969.1709	2417.5035	942.45	57.7
969.3008	2418.8863	947.2	61.95
969.4307	2420.2684	943.9	59.1
969.5606	2421.6497	945.45	56.3
969.6904	2423.0304	944.95	60.7
969.8201	2424.4104	946.05	59.55
969.9499	2425.7896	948.65	56.05
970.0796	2427.1682	943.7	56.6
970.2093	2428.546	943.3	56.65
970.3389	2429.9232	945.4	58.85
970.4685	2431.2996	942.35	55.3
970.5981	2432.6753	940.85	54
970.7277	2434.0503	945.6	59.9
970.8572	2435.4246	940.1	55.3
970.9867	2436.7982	945.6	57.65
971.1161	2438.1711	940.05	55.65
971.2456	2439.5433	942.3	57.6
971.375	2440.9148	945.45	54.75
971.5043	2442.2856	940.85	53.6
971.6336	2443.6557	941.9	53.55
971.7629	2445.025	939.35	52.3
971.8922	2446.3937	940.85	55.85
972.0214	2447.7617	941.25	53.85
972.1506	2449.1289	939.75	53.5
972.2798	2450.4955	944.45	55.95
972.4089	2451.8613	938.65	53.55
972.538	2453.2265	937.55	52.1
972.6671	2454.5909	940.2	54.1
972.7961	2455.9546	939.55	55.1
972.9251	2457.3177	940.2	54.3
973.0541	2458.68	939.95	50.9
973.1831	2460.0416	938.55	53.6
973.312	2461.4025	944	57.8
973.4408	2462.7627	953.15	55.95
973.5697	2464.1222	938.85	54.35
973.6985	2465.4811	939.55	53
973.8273	2466.8392	938.4	53.25
973.956	2468.1966	942.65	53.1
974.0847	2469.5533	941.05	52.35
974.2134	2470.9093	940.75	54.5
974.3421	2472.2645	937.6	48.5
974.4707	2473.6191	937.9	52.9
974.5993	2474.973	940.4	55.8
974.7278	2476.3262	939.6	51.75
974.8563	2477.6787	937.95	53.1
974.9848	2479.0305	937.25	52.5
975.1132	2480.3816	939.65	50.85
975.2417	2481.7319	937.1	50.4
975.37	2483.0816	936.95	48.65
975.4984	2484.4306	937.5	51.15
975.6267	2485.7789	937.4	53.15
975.755	2487.1264	938.55	51.95
975.8833	2488.4733	935.85	51.7
976.0115	2489.8195	957.75	55.5
976.1397	2491.165	942.7	53.4
976.2678	2492.5097	941.95	54.85
976.3959	2493.8538	935.25	49.65
976.524	2495.1972	936.4	49.05
976.6521	2496.5398	936.75	49.45
976.7801	2497.8818	934.3	47.6
976.9081	2499.2231	935.9	50
977.036	2500.5637	936.7	50.75
977.164	2501.9035	937.3	50.45
977.2918	2503.2427	939	47.8
977.4197	2504.5812	936.75	52.45
977.5475	2505.919	935.4	45.75
977.6753	2507.256	932.4	46.25
977.8031	2508.5924	936.1	50
977.9308	2509.9281	942.75	50.15
978.0585	2511.2631	935.65	50.25
978.1861	2512.5974	931.05	46.75
978.3137	2513.9309	933.4	47.05
978.4413	2515.2638	966.6	46.65
978.5689	2516.596	931.9	44.4
978.6964	2517.9275	935.55	47.7
978.8239	2519.2583	931.15	45.35
978.9513	2520.5884	933.6	44.05
979.0788	2521.9178	933.5	46.6
979.2062	2523.2465	932.5	47.45
979.3335	2524.5745	932.7	46.6
979.4608	2525.9018	934.8	48.4
979.5881	2527.2284	929.9	45.25
979.7154	2528.5543	932	47.3
979.8426	2529.8796	931.85	44.45
979.9698	2531.2041	931.95	47.8
980.0969	2532.5279	932.3	46.55
980.224	2533.851	933.6	46.55
980.3511	2535.1735	932.4	47.85
980.4781	2536.4952	929.95	45.65
980.6052	2537.8163	932.8	44.85
980.7321	2539.1366	930.55	45.5
980.8591	2540.4562	932.2	44.45
980.986	2541.7752	929.2	44.8
981.1129	2543.0935	932.4	47.1
981.2397	2544.411	933.15	46.3
981.3665	2545.7279	930.55	44.8
981.4933	2547.0441	928.6	42.95
981.62	2548.3596	932.2	41.95
981.7467	2549.6744	932.1	47.2
981.8734	2550.9885	934.95	47.25
982.0001	2552.3019	933.35	47.35
982.1267	2553.6146	932.4	46.55
982.2532	2554.9266	928.85	42.65
982.3798	2556.2379	932.1	44.9
982.5063	2557.5485	930.05	46.8
982.6327	2558.8585	937.7	46
982.7592	2560.1677	929.75	39.3
982.8856	2561.4762	927.95	40.85
983.0119	2562.7841	931.85	41.2
983.1383	2564.0913	928.5	42.85
983.2646	2565.3977	929.5	42.8
983.3908	2566.7035	928.85	44.35
983.517	2568.0086	932.15	47.25
983.6432	2569.313	931.15	45.7
983.7694	2570.6167	934.6	46.2
983.8955	2571.9197	931.3	46
984.0216	2573.222	928.2	38
984.1476	2574.5236	931	44.25
984.2737	2575.8246	931.9	43.15
984.3996	2577.1248	929.75	40.65
984.5256	2578.4244	928.75	43.6
984.6515	2579.7232	927.1	43.5
984.7774	2581.0214	957.7	42.8
984.9032	2582.3189	926.85	41
985.029	2583.6157	931.3	41.6
985.1548	2584.9118	927.05	40.7
985.2806	2586.2072	926.65	42.2
985.4063	2587.5019	928.3	42.9
985.5319	2588.7959	930.35	44.75
985.6576	2590.0893	928.2	40.6
985.7832	2591.3819	925.6	42.25
985.9087	2592.6739	926.7	41.8
986.0343	2593.9652	928.05	42.55
986.1597	2595.2557	927.3	42.5
986.2852	2596.5456	930.2	42.15
986.4106	2597.8348	927.6	43.85
986.536	2599.1234	925.35	41.25
986.6614	2600.4112	926.2	42.15
986.7867	2601.6983	930.3	41.2
986.912	2602.9848	924.6	37.95
987.0372	2604.2705	934.25	40.5
987.1624	2605.5556	925.65	40.45
987.2876	2606.84	925.8	42.1
987.4128	2608.1237	927.2	38.8
987.5379	2609.4067	924.5	41.05
987.6629	2610.689	933.1	39.25
987.788	2611.9707	929.85	40.85
987.913	2613.2516	929	40.85
988.0379	2614.5319	926.4	41.1
988.1629	2615.8115	925.8	38.95
988.2878	2617.0903	927.15	38.75
988.4126	2618.3685	924	35.65
988.5375	2619.6461	925.25	39.35
988.6622	2620.9229	926.05	41.45
988.787	2622.199	924.7	39
988.9117	2623.4745	926.9	39.3
989.0364	2624.7493	926	39.15
989.161	2626.0234	920.75	35.55
989.2857	2627.2968	923.3	37.85
989.4102	2628.5695	925.7	38.75
989.5348	2629.8415	923	37.7
989.6593	2631.1128	925.5	38
989.7837	2632.3835	923.05	37.25
989.9082	2633.6535	923.55	38.4
990.0326	2634.9228	919.9	34.4
990.1569	2636.1914	925.1	40.95
990.2812	2637.4593	929.45	37.5
990.4055	2638.7265	923.8	34.6
990.5298	2639.9931	924.15	37.9
990.654	2641.259	924.9	38.75
990.7782	2642.5242	923.55	38.7
990.9023	2643.7887	922.15	36.7
991.0264	2645.0525	918.35	32.2
991.1505	2646.3156	922.75	36.15
991.2745	2647.5781	919.85	36.3
991.3985	2648.8398	919.55	35.6
991.5225	2650.1009	960	35.45
991.6464	2651.3613	923.3	35.4
991.7703	2652.6211	917.95	32.3
991.8942	2653.8801	919.65	35.1
992.018	2655.1385	926.2	38.4
992.1418	2656.3961	919.65	34.25
992.2655	2657.6531	917.45	31.8
992.3892	2658.9094	918.6	31.05
992.5129	2660.1651	919.55	33.95
992.6366	2661.42	922.05	35.25
992.7602	2662.6743	924.8	36.8
992.8837	2663.9279	920.9	35
993.0073	2665.1808	920.95	37.3
993.1307	2666.433	918.55	30.45
993.2542	2667.6846	917.85	32
993.3776	2668.9354	923.95	35.35
993.501	2670.1856	921.4	34.1
993.6244	2671.4351	923.15	38.05
993.7477	2672.6839	921.65	34.55
993.8709	2673.9321	918.8	34.45
993.9942	2675.1795	920.4	33.65
994.1174	2676.4263	921.9	35.5
994.2405	2677.6724	917.75	32.35
994.3637	2678.9179	919.45	32.1
994.4868	2680.1626	920.95	35.45
994.6098	2681.4067	922.7	36.7
994.7328	2682.6501	920.9	34.6
994.8558	2683.8928	919.9	35.25
994.9788	2685.1348	920.8	36.7
995.1017	2686.3761	917.35	32.25
995.2245	2687.6168	920.05	32.9
995.3474	2688.8568	920.65	36.4
995.4702	2690.0961	917.55	31.35
995.5929	2691.3348	917.65	34.3
995.7156	2692.5727	918.8	31.75
995.8383	2693.81	917.1	31.55
995.961	2695.0466	916.7	31.7
996.0836	2696.2826	920	31.65
996.2062	2697.5178	935.7	46.8
996.3287	2698.7524	919.15	33.55
996.4512	2699.9863	919.6	31.5
996.5737	2701.2195	917	31.3
996.6961	2702.452	917.7	30.9
996.8185	2703.6839	920.75	34.15
996.9408	2704.9151	914.15	29.5
997.0631	2706.1456	919.1	33.15
997.1854	2707.3755	918.9	32.65
997.3077	2708.6046	921.85	35.35
997.4299	2709.8331	917.4	29.6
997.552	2711.0609	915.9	28.8
997.6742	2712.2881	917.05	31
997.7963	2713.5145	922.95	35.3
997.9183	2714.7403	918.15	32.7
998.0403	2715.9654	919.7	32.9
998.1623	2717.1899	919.85	31.55
998.2842	2718.4136	920.2	35.05
998.4062	2719.6367	921.5	34.75
998.528	2720.8591	929.35	37.5
998.6498	2722.0809	925.6	38.9
998.7716	2723.3019	924.1	35.25
998.8934	2724.5223	922.95	37.45
999.0151	2725.7421	923.35	36.6
999.1368	2726.9611	922.5	35.3
999.2584	2728.1795	927.2	37.6
999.38	2729.3972	921.9	36.65
999.5016	2730.6142	932.6	34
999.6231	2731.8306	919.7	31.45
999.7446	2733.0462	917.05	28.85
999.8661	2734.2612	923.7	35
999.9875	2735.4756	918.9	30
1000.1089	2736.6892	915.55	28.45
1000.2302	2737.9022	916.1	30.7
1000.3515	2739.1145	916.6	28.25
1000.4728	2740.3262	922.5	28.7
1000.594	2741.5372	914.3	29.35
1000.7152	2742.7475	915.05	30.5
1000.8363	2743.9571	917.75	29.9
1000.9575	2745.1661	918.7	27.4
1001.0785	2746.3744	915.3	29.05
1001.1996	2747.582	912.85	26.5
1001.3206	2748.7889	914.9	28.65
1001.4415	2749.9952	913.1	28.1
1001.5625	2751.2008	912.45	24.4
1001.6833	2752.4057	914	25.05
1001.8042	2753.61	913	27
1001.925	2754.8136	914.45	25.4
1002.0458	2756.0165	914.65	30.4
1002.1665	2757.2188	910.85	27.6
1002.2872	2758.4204	912.95	26.45
1002.4078	2759.6213	915.6	26.95
1002.5285	2760.8215	919.9	27.45
1002.649	2762.0211	915.6	27.4
1002.7696	2763.22	914	24.75
1002.8901	2764.4182	912.35	24.5
1003.0106	2765.6158	912.7	27.15
1003.131	2766.8127	911.65	25.2
1003.2514	2768.009	911.65	25.65
1003.3717	2769.2045	912.45	24.9
1003.492	2770.3994	915.5	25.2
1003.6123	2771.5936	910.95	24.6
1003.7325	2772.7872	911.85	25.95
1003.8527	2773.9801	912.5	25.35
1003.9729	2775.1723	927.3	25.5
1004.093	2776.3639	910.1	26.1
1004.2131	2777.5548	914.15	26.8
1004.3331	2778.745	911.7	27.1
1004.4531	2779.9346	910.65	25.85
1004.5731	2781.1235	910.7	22.15
1004.693	2782.3117	911.4	25.95
1004.8129	2783.4992	909.9	23.9
1004.9328	2784.6861	908.6	22.15
1005.0526	2785.8723	913.25	27.35
1005.1723	2787.0579	909.85	23.1
1005.2921	2788.2428	906.45	20.75
1005.4118	2789.427	910.7	25.9
1005.5314	2790.6106	909.9	22.3
1005.651	2791.7935	915.15	27
1005.7706	2792.9757	908.55	22.4
1005.8902	2794.1573	911.65	22.95
1006.0097	2795.3382	910.75	25.4
1006.1291	2796.5184	909.45	24.7
1006.2485	2797.698	912.5	23.55
1006.3679	2798.8769	909.6	25
1006.4873	2800.0551	911.4	24.7
1006.6066	2801.2327	913.95	25
1006.7258	2802.4096	909.6	25.65
1006.8451	2803.5859	912	25.95
1006.9642	2804.7615	912.15	26.2
1007.0834	2805.9364	911.6	27.4
1007.2025	2807.1106	911.65	26.05
1007.3216	2808.2842	914.45	29.3
1007.4406	2809.4572	913	27.45
1007.5596	2810.6294	916.3	30.25
1007.6785	2811.801	914.8	29.6
1007.7975	2812.972	914.05	29.05
1007.9163	2814.1423	915.75	30
1008.0352	2815.3119	914.5	29.65
1008.154	2816.4808	917.95	33.25
1008.2727	2817.6491	917.35	28.6
1008.3914	2818.8167	919.55	34.9
1008.5101	2819.9837	926.45	34.9
1008.6288	2821.15	924.4	39.4
1008.7474	2822.3157	924.8	40.35
1008.8659	2823.4807	930.35	45.3
1008.9844	2824.645	936	49.05
1009.1029	2825.8086	938.2	53.45
1009.2214	2826.9716	939	53.7
1009.3398	2828.134	943.5	56.95
1009.4581	2829.2957	947.9	61.9
1009.5764	2830.4567	945.35	59.65
1009.6947	2831.617	951.2	65.85
1009.813	2832.7767	952.8	67.8
1009.9312	2833.9358	953.25	69.6
1010.0493	2835.0941	952.35	65.65
1010.1675	2836.2519	949.8	65.8
1010.2855	2837.4089	951.1	64.45
1010.4036	2838.5653	947.05	62.05
1010.5216	2839.7211	942.8	59.4
1010.6396	2840.8761	943.55	55.8
1010.7575	2842.0306	942.35	57.25
1010.8754	2843.1843	941.5	54.95
1010.9932	2844.3374	942.7	56.5
1011.111	2845.4899	945.7	58.75
1011.2288	2846.6417	944.65	60.8
1011.3465	2847.7928	945.4	60.85
1011.4642	2848.9433	947.15	61
1011.5818	2850.0931	945.8	61.05
1011.6995	2851.2422	949.1	63.15
1011.817	2852.3907	949.35	62.75
1011.9345	2853.5385	951.35	63.15
1012.052	2854.6857	975.55	62.1
1012.1695	2855.8323	948.65	64.45
1012.2869	2856.9781	951.8	67.4
1012.4042	2858.1233	954.3	70.5
1012.5216	2859.2679	953.9	67.7
1012.6389	2860.4118	953.55	68.6
1012.7561	2861.555	958.5	67.75
1012.8733	2862.6976	959.35	73.15
1012.9905	2863.8395	958.05	71.65
1013.1076	2864.9808	960.15	75.05
1013.2247	2866.1214	960.4	75
1013.3417	2867.2614	961.3	75.4
1013.4587	2868.4007	958.15	70.75
1013.5757	2869.5393	964.9	78.4
1013.6926	2870.6773	966.55	79
1013.8095	2871.8146	963.05	73.15
1013.9263	2872.9513	966.3	76.35
1014.0431	2874.0874	964.75	78.3
1014.1599	2875.2227	967.45	82.5
1014.2766	2876.3574	963.35	77.7
1014.3933	2877.4915	971.5	87.1
1014.51	2878.6249	967.55	82.5
1014.6266	2879.7577	973.35	87.45
1014.7431	2880.8898	981.3	86.15
1014.8596	2882.0212	973.5	88.35
1014.9761	2883.152	970.9	83.55
1015.0925	2884.2821	972.55	87.35
1015.2089	2885.4116	976.95	91.35
1015.3253	2886.5405	978.95	93.5
1015.4416	2887.6686	978.75	91.3
1015.5579	2888.7962	975.75	89.85
1015.6741	2889.923	973.9	90.4
1015.7903	2891.0493	974.7	89.95
1015.9065	2892.1748	976.65	89.8
1016.0226	2893.2997	975.65	88.25
1016.1387	2894.424	974.4	88.75
1016.2547	2895.5476	977.55	92.45
1016.3707	2896.6706	972.3	87.05
1016.4866	2897.7929	977.3	90.55
1016.6025	2898.9145	976.4	90.15
1016.7184	2900.0355	975.45	89
1016.8342	2901.1559	976.3	88.7
1016.95	2902.2756	980.4	91.3
1017.0658	2903.3946	973.45	87.1
1017.1815	2904.513	976.95	89.65
1017.2971	2905.6308	973.55	88.8
1017.4127	2906.7479	973.3	87.3
1017.5283	2907.8643	973.1	87.55
1017.6439	2908.9801	975.2	88.05
1017.7594	2910.0953	975.5	91.2
1017.8748	2911.2098	975.25	85.25
1017.9902	2912.3236	979.85	85.85
1018.1056	2913.4368	975.35	86.1
1018.2209	2914.5494	970.5	83.1
1018.3362	2915.6613	976.3	84.9
1018.4515	2916.7725	974.55	87.75
1018.5667	2917.8831	969.35	81.4
1018.6819	2918.9931	972.8	84.75
1018.797	2920.1024	970.1	82.85
1018.9121	2921.211	963.8	78.15
1019.0271	2922.319	966.5	79.55
1019.1421	2923.4264	964.35	79.2
1019.2571	2924.5331	962.6	76.7
1019.372	2925.6391	962	75.9
1019.4869	2926.7445	963.85	80.65
1019.6017	2927.8493	963.2	77.1
1019.7165	2928.9534	964.9	79.4
1019.8313	2930.0569	968.45	79.45
1019.946	2931.1597	967.85	80.95
1020.0606	2932.2619	965.45	80.1
1020.1753	2933.3634	965.3	79.4
1020.2899	2934.4643	973.55	81.9
1020.4044	2935.5645	974.1	81.75
1020.5189	2936.6641	974.05	83.9
1020.6334	2937.763	965.55	84.3
1020.7478	2938.8613	971.05	84.95
1020.8622	2939.959	974.3	84.3
1020.9765	2941.056	966.85	84
1021.0908	2942.1523	964.6	77.5
1021.2051	2943.248	958.2	70.15
1021.3193	2944.3431	957.9	73.25
1021.4334	2945.4375	954.45	67.85
1021.5476	2946.5313	947.3	63.9
1021.6617	2947.6244	946.1	59.95
1021.7757	2948.7169	944.3	58.8
1021.8897	2949.8087	943.5	55.65
1022.0037	2950.8999	938.5	52.3
1022.1176	2951.9904	935.6	49.75
1022.2315	2953.0803	933.65	47.85
1022.3453	2954.1696	929.7	45.5
1022.4591	2955.2582	930.85	44.2
1022.5728	2956.3462	930	42.9
1022.6865	2957.4335	927.75	39.65
1022.8002	2958.5202	930.15	41.5
1022.9138	2959.6062	926.05	39.35
1023.0274	2960.6916	926.65	40.95
1023.141	2961.7764	928.95	40.4
1023.2545	2962.8605	924.85	38.15
1023.3679	2963.9439	928.4	43
1023.4813	2965.0267	927.95	38.65
1023.5947	2966.1089	952.05	43.15
1023.708	2967.1905	926.2	38.95
1023.8213	2968.2714	923.65	39.25
1023.9346	2969.3516	926.75	43.1
1024.0478	2970.4312	932.8	39.2
1024.1609	2971.5102	926.7	42.05
1024.274	2972.5885	924	38
1024.3871	2973.6662	929.95	39.45
1024.5002	2974.7432	925.45	41
1024.6132	2975.8196	923.75	37.5
1024.7261	2976.8954	928.15	43.95
1024.839	2977.9705	926.35	41.75
1024.9519	2979.045	928.3	41.1
1025.0647	2980.1188	926.4	40.15
1025.1775	2981.192	924.35	40.75
1025.2902	2982.2645	926.3	39.65
1025.4029	2983.3364	924.5	38.2
1025.5156	2984.4077	921.6	35.05
1025.6282	2985.4783	927.65	36.4
1025.7407	2986.5483	921.7	36.85
1025.8532	2987.6177	917.3	34.45
1025.9657	2988.6864	919.55	31.3
1026.0782	2989.7545	918.95	30.9
1026.1906	2990.8219	918	35.65
1026.3029	2991.8887	917.85	28.65
1026.4152	2992.9548	916.65	30.1
1026.5275	2994.0204	911.55	26.1
1026.6397	2995.0852	910.35	23.85
1026.7519	2996.1495	911.85	25.2
1026.864	2997.2131	911.25	26.35
1026.9761	2998.276	908.7	22.45
1027.0882	2999.3383	907.85	21.2
1027.2002	3000.4	906.6	19.8
1027.3122	3001.4611	906.25	20.35
1027.4241	3002.5215	905.65	18.95
1027.536	3003.5812	904.6	19.5
1027.6478	3004.6404	904.45	19.95
1027.7596	3005.6989	904.95	18.15
1027.8714	3006.7567	904.95	19.3
1027.9831	3007.8139	933.5	15.8
1028.0947	3008.8705	903.85	16.55
1028.2064	3009.9264	919.65	18.2
1028.3179	3010.9818	900.15	12.1
1028.4295	3012.0364	902.75	15.7
1028.541	3013.0905	902.65	17.2
1028.6524	3014.1439	901.05	16.1
1028.7638	3015.1966	900.6	16
1028.8752	3016.2487	902.75	17.4
1028.9865	3017.3002	909.6	17.2
1029.0978	3018.3511	900.4	15.8
1029.209	3019.4013	899.75	14.1
1029.3202	3020.4509	900.2	13.1
1029.4314	3021.4998	901.1	15.95
1029.5425	3022.5481	900.5	14.75
1029.6535	3023.5958	901.15	14.3
1029.7645	3024.6428	903.15	13.55
1029.8755	3025.6892	899.65	14.05
1029.9864	3026.735	900.3	13.4
1030.0973	3027.7802	900.45	12.8
1030.2082	3028.8247	900.05	14.6
1030.319	3029.8685	902.6	15.6
1030.4297	3030.9118	901.7	14.85
1030.5404	3031.9544	898	13.35
1030.6511	3032.9963	899.4	13.55
1030.7617	3034.0376	901.15	14.55
1030.8723	3035.0783	903.2	14.1
1030.9829	3036.1184	902.8	16.2
1031.0934	3037.1578	899.5	15.05
1031.2038	3038.1966	900.55	12.4
1031.3142	3039.2348	899.65	14.75
1031.4246	3040.2723	908.75	14.5
1031.5349	3041.3092	901.8	17.4
1031.6452	3042.3455	899.7	15.45
1031.7554	3043.3811	897.75	12.15
1031.8656	3044.4161	900.6	14.65
1031.9758	3045.4505	897.4	13.7
1032.0859	3046.4842	900.1	15.3
1032.1959	3047.5173	896.8	11.85
1032.3059	3048.5498	899.55	12.15
1032.4159	3049.5816	900.85	14.95
1032.5258	3050.6128	902.6	14.9
1032.6357	3051.6434	900.75	12.75
1032.7455	3052.6734	899.3	13.55
1032.8553	3053.7027	898.2	12.95
1032.9651	3054.7314	901.7	16.45
1033.0748	3055.7594	898.9	14.4
1033.1845	3056.7868	902.15	13.9
1033.2941	3057.8136	901.85	15.95
1033.4037	3058.8398	899.1	14.65
1033.5132	3059.8653	899	11.55
1033.6227	3060.8902	899	13.65
1033.7321	3061.9145	898.7	12.3
1033.8415	3062.9381	899.8	12.5
1033.9509	3063.9612	917.6	14.9
1034.0602	3064.9835	902.15	14.8
1034.1694	3066.0053	902.25	14.5
1034.2787	3067.0264	899.55	15.3
1034.3878	3068.0469	904.05	19.55
1034.497	3069.0668	905.25	18.25
1034.6061	3070.086	898.65	12.7
1034.7151	3071.1046	901.2	14.75
1034.8241	3072.1226	902.4	15.5
1034.9331	3073.1399	900.85	14.7
1035.042	3074.1567	900.2	12.8
1035.1508	3075.1727	901	12.95
1035.2597	3076.1882	901.75	16.3
1035.3684	3077.203	898.2	12.2
1035.4772	3078.2173	900.05	13.05
1035.5859	3079.2308	903.75	14.95
1035.6945	3080.2438	900.3	13.25
1035.8031	3081.2561	897.5	12.15
1035.9117	3082.2678	896	11.9
1036.0202	3083.2789	897.45	11.65
1036.1286	3084.2893	897.85	11.95
1036.2371	3085.2991	898.1	11.7
1036.3454	3086.3083	902.45	11.7
1036.4538	3087.3169	897.1	10.05
1036.562	3088.3248	895.8	8.7
1036.6703	3089.3321	899.3	13.3
1036.7785	3090.3388	895.85	10
1036.8866	3091.3449	899.3	12.5
1036.9948	3092.3503	897.75	9.35
1037.1028	3093.3551	896.8	12.8
1037.2108	3094.3593	896.3	13.7
1037.3188	3095.3629	895.3	10.05
1037.4267	3096.3658	898.2	12.55
1037.5346	3097.3681	895.15	9.45
1037.6425	3098.3698	898.85	10
1037.7503	3099.3708	898.2	11.55
1037.858	3100.3713	895.15	7.3
1037.9657	3101.3711	896	8.45
1038.0734	3102.3702	1036.9	11.15
1038.181	3103.3688	899.3	10.95
1038.2886	3104.3667	894.65	10.05
1038.3961	3105.364	895.65	12.05
1038.5036	3106.3607	897.4	9.25
1038.611	3107.3568	896.75	9.65
1038.7184	3108.3522	894.1	8.8
1038.8257	3109.347	896.45	10.25
1038.933	3110.3412	899.65	9.9
1039.0403	3111.3348	896.8	10.75
1039.1475	3112.3277	893.15	7.6
1039.2547	3113.32	894.5	7.55
1039.3618	3114.3117	894.9	9.05
1039.4689	3115.3028	893.5	8.45
1039.5759	3116.2932	895.75	10.05
1039.6829	3117.2831	900.85	8.6
1039.7898	3118.2723	893.9	8.65
1039.8967	3119.2608	894.2	8.75
1040.0035	3120.2488	894.6	6.4
1040.1103	3121.2361	895.8	9
1040.2171	3122.2229	894.2	10.8
1040.3238	3123.209	895.55	8.1
1040.4305	3124.1944	894.05	7.9
1040.5371	3125.1793	894.2	5.35
1040.6437	3126.1635	894	8
1040.7502	3127.1471	890.8	4.9
1040.8567	3128.1301	891.9	7.3
1040.9631	3129.1125	894.1	10
1041.0695	3130.0942	894	7.65
1041.1759	3131.0753	905.35	11.4
1041.2822	3132.0558	896.6	8.3
1041.3884	3133.0357	891.35	3.5
1041.4946	3134.015	895	8.65
1041.6008	3134.9936	893.05	6.4
1041.7069	3135.9716	912.9	5.45
1041.813	3136.949	896.05	7.45
1041.919	3137.9258	910.25	7.25
1042.025	3138.902	899.25	9.05
1042.1309	3139.8775	891.8	7.75
1042.2368	3140.8524	892.95	7.5
1042.3427	3141.8267	895.5	9.25
1042.4485	3142.8004	894.1	5.8
1042.5542	3143.7735	899.6	6.85
1042.6599	3144.7459	894.3	6.7
1042.7656	3145.7178	893.55	6.25
1042.8712	3146.689	892.75	6.95
1042.9768	3147.6596	893.65	7.1
1043.0823	3148.6295	894.2	6.8
1043.1878	3149.5989	891.65	4.75
1043.2932	3150.5676	890.65	6.55
1043.3986	3151.5357	890.6	6.35
1043.5039	3152.5032	892.35	6.95
1043.6092	3153.4701	891.6	5.4
1043.7145	3154.4364	895.8	8.45
1043.8197	3155.402	890.75	5.6
1043.9248	3156.367	894.45	7.75
1044.03	3157.3315	910.95	4.35
1044.135	3158.2952	893.2	6.15
1044.24	3159.2584	891.2	5.95
1044.345	3160.221	893.35	7.15
1044.4499	3161.1829	890.95	3.7
1044.5548	3162.1442	892.6	7.55
1044.6596	3163.105	892.65	6.65
1044.7644	3164.065	892.55	7.9
1044.8692	3165.0245	894.3	7.15
1044.9739	3165.9834	889.8	6.15
1045.0785	3166.9416	890.4	4.4
1045.1831	3167.8993	891.55	6
1045.2877	3168.8563	893.8	6.35
1045.3922	3169.8127	889.75	4.25
1045.4966	3170.7684	891.9	4.6
1045.6011	3171.7236	892.35	4.55
1045.7054	3172.6782	891.1	6.05
1045.8098	3173.6321	892.75	7.2
1045.914	3174.5854	895.6	5.35
1046.0183	3175.5381	890.25	4.55
1046.1224	3176.4902	890.25	4.55
1046.2266	3177.4417	891.1	4.7
1046.3307	3178.3926	891.2	5.25
1046.4347	3179.3428	889.25	4.15
1046.5387	3180.2924	889.9	2.75
1046.6427	3181.2415	890.45	3.4
1046.7466	3182.1899	893	4.15
1046.8504	3183.1377	890.6	4.9
1046.9542	3184.0848	894.6	5.9
1047.058	3185.0314	892.2	5.35
1047.1617	3185.9773	891.4	5.95
1047.2654	3186.9227	892	4.3
1047.369	3187.8674	892.3	5.9
1047.4726	3188.8115	896.15	7.75
1047.5761	3189.755	890.65	2.7
1047.6796	3190.6979	891.55	6.75
1047.783	3191.6402	889.55	3
1047.8864	3192.5818	891.75	6.3
1047.9898	3193.5229	903.2	3.65
1048.0931	3194.4633	893.35	8.05
1048.1963	3195.4031	891.2	5.5
1048.2995	3196.3423	890.85	5.35
1048.4027	3197.2809	891.45	4.8
1048.5058	3198.2189	890.7	4.55
1048.6089	3199.1563	897.6	2.25
1048.7119	3200.0931	890.75	4.9
1048.8148	3201.0292	890.6	4.45
1048.9178	3201.9648	889.3	3.3
1049.0206	3202.8997	894.6	7.9
1049.1235	3203.834	890.55	4.6
1049.2262	3204.7677	889.15	3.4
1049.329	3205.7008	894.05	7.45
1049.4317	3206.6333	890.05	4.1
1049.5343	3207.5652	891.4	4.7
1049.6369	3208.4964	890.9	4.1
1049.7394	3209.4271	890.8	6.75
1049.8419	3210.3571	890.35	5
1049.9444	3211.2865	892	5.65
1050.0468	3212.2154	891.6	3.15
1050.1491	3213.1436	893.15	2.9
1050.2514	3214.0712	896.65	4.7
1050.3537	3214.9982	890.4	3.9
1050.4559	3215.9246	891.3	3.85
1050.5581	3216.8503	887.9	3.1
1050.6602	3217.7755	890.9	4.05
1050.7623	3218.7001	887.9	4.15
1050.8643	3219.624	890.25	4.35
1050.9663	3220.5473	888.3	2.7
1051.0682	3221.4701	891.8	3.05
1051.1701	3222.3922	893.2	4.65
1051.2719	3223.3137	889.25	4.7
1051.3737	3224.2346	891.7	5.1
1051.4754	3225.1549	889.3	3.4
1051.5771	3226.0746	887.85	2
1051.6788	3226.9937	890.5	4.55
1051.7804	3227.9121	889.4	3.8
1051.8819	3228.83	888.95	2.5
1051.9834	3229.7473	891.9	5.7
1052.0849	3230.6639	889.45	4.4
1052.1863	3231.5799	889.8	4.95
1052.2876	3232.4954	891.2	3.3
1052.3889	3233.4102	888.7	4.9
1052.4902	3234.3244	890.25	4.85
1052.5914	3235.238	887.8	2.35
1052.6926	3236.151	914.65	4
1052.7937	3237.0634	889.6	4.2
1052.8948	3237.9752	890.4	5.6
1052.9958	3238.8864	891.95	6.45
1053.0968	3239.797	888.2	1.95
1053.1977	3240.7069	891.7	4
1053.2986	3241.6163	893.4	4.85
1053.3994	3242.5251	891.15	5.7
1053.5002	3243.4332	890.45	6.05
1053.6009	3244.3408	888.8	1.2
1053.7016	3245.2477	888.55	4.7
1053.8022	3246.154	890.75	5.25
1053.9028	3247.0598	889.75	4.95
1054.0034	3247.9649	888.95	2.95
1054.1039	3248.8694	891.7	6.35
1054.2043	3249.7733	891.1	4.95
1054.3047	3250.6766	892.2	6.4
1054.4051	3251.5793	891.6	6.1
1054.5054	3252.4814	891.5	4.6
1054.6056	3253.3829	887.6	1.6
1054.7058	3254.2838	889.75	2.3
1054.806	3255.1841	888.45	3.5
1054.9061	3256.0838	886.15	0.95
1055.0061	3256.9829	888.6	1.8
1055.1062	3257.8814	890.45	1.95
1055.2061	3258.7792	892.2	3.6
1055.306	3259.6765	892.3	6.35
1055.4059	3260.5731	890	4.2
1055.5057	3261.4692	891.5	4.25
1055.6055	3262.3647	890.25	2.2
1055.7052	3263.2595	888.85	3.7
1055.8049	3264.1538	890.55	3.15
1055.9045	3265.0474	890.35	4.15
1056.0041	3265.9404	888.35	2.25
1056.1036	3266.8329	887	2.5
1056.2031	3267.7247	898.05	3.25
1056.3025	3268.616	888.7	3.15
1056.4019	3269.5066	890.35	2.85
1056.5013	3270.3966	891.15	2.05
1056.6005	3271.286	887.6	3.1
