Software Version:	3.9.2.0
Unit SN:	10000200
Spectrometer SN:	6960
Date:	3/14/2024 2:33:00 PM
Data Line Index:	25
Spectral Points:	2048
Integration time (ms):	125
Averages:	20
Delay (ms):	30000
Sequence Number:	1
Processing:	dark subtract
Laser Power (mW):	300
Laser Current (mA):	824
Laser Diode Temp (C):	25
Laser Case Temp (C):	29.3
System Temp (C):	29.3
Spectrometer Temp (C):	27.1
CCD Temp (C):	0.008
Secondary Temp (C):	20.004
Heatsink Temp (C):	25.348
CCDPCB Temp (C):	38.552
SecondaryPCB Temp (C):	36.174

Wavelength	RamanShift	Raw Counts	Dark Subtracted
787.061	30.1047	437.55	28.75
787.2016	32.3739	440.75	35.3
787.3422	34.6426	442.05	34.55
787.4828	36.9109	445.9	37
787.6235	39.1787	450.7	36.7
787.7642	41.4461	460.2	40.6
787.9049	43.7131	468.1	46.4
788.0456	45.9796	474.8	49.4
788.1863	48.2456	484.55	54.95
788.3271	50.5112	488.4	54.6
788.4679	52.7764	493.4	57.15
788.6087	55.0411	502	63
788.7496	57.3054	509.55	64.15
788.8904	59.5692	519.05	69.85
789.0313	61.8326	528.6	73.1
789.1722	64.0955	538.05	80.4
789.3132	66.3579	549.65	88.05
789.4541	68.6199	563.45	98.6
789.5951	70.8815	585.4	117.35
789.7361	73.1426	628.9	157.2
789.8771	75.4032	751.7	275.8
790.0181	77.6634	1055	573
790.1592	79.9231	1761.65	1274.65
790.3003	82.1824	3312.35	2815.7
790.4414	84.4412	6113.65	5603.95
790.5825	86.6995	10077.1	9549.2
790.7237	88.9574	14107.5	13561.75
790.8648	91.2148	17040.05	16486.5
791.006	93.4717	18456.65	17893.3
791.1472	95.7282	18797.6	18232.3
791.2885	97.9842	18798.45	18226.4
791.4297	100.2398	18471.55	17896.8
791.571	102.4949	18038.35	17460.45
791.7123	104.7495	17564.1	16982.7
791.8536	107.0036	16998.75	16414.3
791.9949	109.2573	16426.15	15847.05
792.1363	111.5105	15845.9	15262.7
792.2777	113.7632	15241.75	14658.15
792.4191	116.0154	14779.9	14185.2
792.5605	118.2672	14360.9	13771.1
792.7019	120.5185	13993.35	13404.6
792.8434	122.7693	13669.55	13074.9
792.9849	125.0197	13440.45	12843.7
793.1264	127.2696	13220.85	12621.7
793.2679	129.519	13125.8	12524.05
793.4094	131.7679	12997.55	12397.2
793.551	134.0163	12917.65	12308.5
793.6926	136.2642	12817.15	12205.25
793.8342	138.5117	12715.2	12094.1
793.9758	140.7587	12583.1	11968.45
794.1175	143.0052	12470.25	11852.35
794.2591	145.2512	12302.8	11683.8
794.4008	147.4967	12172.35	11553.9
794.5425	149.7417	12062.25	11439.65
794.6842	151.9863	11987	11359.85
794.826	154.2304	11950.65	11323.2
794.9677	156.4739	11840.95	11207.9
795.1095	158.717	11816.4	11186.05
795.2513	160.9596	11695.4	11059.1
795.3931	163.2017	11506.05	10866.5
795.535	165.4433	11298.5	10657.75
795.6768	167.6844	11066.85	10424
795.8187	169.925	10837.35	10189.7
795.9606	172.1651	10536.8	9887.3
796.1025	174.4047	10331.55	9678.9
796.2445	176.6439	10108.9	9456.95
796.3864	178.8825	9923.5	9265.4
796.5284	181.1206	9789	9124.8
796.6704	183.3582	9672.75	9008
796.8124	185.5954	9552.1	8887.3
796.9544	187.832	9489	8818.95
797.0965	190.0681	9471.4	8797.35
797.2386	192.3037	9446.25	8772.8
797.3806	194.5388	9435.6	8757
797.5228	196.7734	9437.1	8756.35
797.6649	199.0075	9516.95	8835.55
797.807	201.2411	9586.25	8898.5
797.9492	203.4742	9601.55	8913.7
798.0914	205.7068	9671.9	8983.8
798.2336	207.9389	9766.6	9077.5
798.3758	210.1704	9867.25	9174.1
798.518	212.4015	9952.35	9256.15
798.6603	214.632	10064.25	9367.2
798.8025	216.862	10215.3	9525.05
798.9448	219.0915	10340.3	9657.75
799.0871	221.3205	10531.4	9853.75
799.2294	223.549	10735.25	10063.75
799.3718	225.777	10990.45	10320.9
799.5141	228.0044	11300.05	10626.15
799.6565	230.2314	11677.25	11003.25
799.7989	232.4578	12063.85	11388.3
799.9413	234.6837	12385.3	11704.2
800.0837	236.909	12546.1	11862.55
800.2262	239.1339	12513.2	11806.7
800.3687	241.3582	12303.1	11611.25
800.5111	243.582	12001.65	11283.7
800.6536	245.8053	11663.8	10951.4
800.7961	248.0281	11353.2	10645.65
800.9387	250.2503	11114.85	10403.2
801.0812	252.472	10956.25	10241.4
801.2238	254.6932	10849.95	10132.4
801.3664	256.9139	10730.55	10011.35
801.509	259.134	10677.7	9956.55
801.6516	261.3536	10611	9890.8
801.7942	263.5727	10544.35	9821.25
801.9369	265.7912	10450.25	9727.7
802.0795	268.0092	10403.5	9681.75
802.2222	270.2267	10303.55	9578.6
802.3649	272.4436	10278.4	9554.25
802.5076	274.6601	10238.8	9506.5
802.6504	276.8759	10184.4	9458.65
802.7931	279.0913	10185.85	9458.7
802.9359	281.3061	10209	9478.05
803.0787	283.5204	10262.45	9530.85
803.2215	285.7341	10395.15	9656.95
803.3643	287.9473	10542.85	9792.85
803.5071	290.16	10734.4	9990.95
803.6499	292.3721	10965.5	10226.85
803.7928	294.5837	11286.55	10544.85
803.9357	296.7947	11594.75	10854.95
804.0786	299.0052	11763.95	11024.5
804.2215	301.2152	11632.9	10889.85
804.3644	303.4246	11348.15	10607
804.5074	305.6334	10877.4	10139.1
804.6503	307.8418	10486.45	9739.4
804.7933	310.0495	10174.6	9432.45
804.9363	312.2568	9944.75	9203.4
805.0793	314.4635	9822.5	9079.3
805.2223	316.6696	9782.55	9036.9
805.3653	318.8752	9778.8	9023.5
805.5084	321.0802	9833.65	9086.5
805.6514	323.2847	9897.1	9146.3
805.7945	325.4887	9976.8	9226.55
805.9376	327.692	9928.85	9179.65
806.0807	329.8949	9817.3	9066.45
806.2238	332.0972	9594.2	8841.6
806.367	334.2989	9388.3	8632.05
806.5101	336.5001	9166.8	8410.35
806.6533	338.7007	9020.25	8266.4
806.7965	340.9008	8928.9	8169.8
806.9397	343.1003	8832.9	8069.25
807.0829	345.2992	8779.95	8016.6
807.2261	347.4976	8762.9	7999.05
807.3693	349.6955	8766.25	7999.55
807.5126	351.8927	8809	8041.45
807.6559	354.0895	8793.7	8013.15
807.7991	356.2856	8839	8074.3
807.9424	358.4812	8831.5	8063.5
808.0857	360.6763	8852.1	8082.65
808.2291	362.8707	8802.25	8032.6
808.3724	365.0646	8809.6	8035.2
808.5158	367.258	8822.4	8047.2
808.6591	369.4508	8837	8056.05
808.8025	371.643	8863.35	8087.55
808.9459	373.8346	8855.6	8073.1
809.0893	376.0257	8810.35	8025.3
809.2327	378.2162	8743.05	7958.7
809.3762	380.4062	8646.35	7860.65
809.5196	382.5956	8537	7748.2
809.6631	384.7844	8482.25	7695.65
809.8066	386.9726	8388.3	7596.85
809.9501	389.1603	8352.45	7564.45
810.0936	391.3474	8351.35	7514.25
810.2371	393.5339	8307.35	7520.5
810.3806	395.7199	8257.5	7475.2
810.5241	397.9052	8236.85	7456.9
810.6677	400.09	8280.3	7500.75
810.8113	402.2743	8283.45	7504.55
810.9548	404.4579	8310.85	7534.25
811.0984	406.641	8432.65	7652.85
811.2421	408.8235	8604.35	7823.45
811.3857	411.0054	8857.25	8077.8
811.5293	413.1868	9244.15	8458.6
811.673	415.3675	9559.55	8776.5
811.8166	417.5477	9705.95	8918.7
811.9603	419.7273	9726.05	8937.7
812.104	421.9064	9582.05	8786.05
812.2477	424.0848	9478.5	8686.45
812.3914	426.2627	9310.6	8515.55
812.5351	428.4399	9090.5	8292.95
812.6788	430.6166	8810.4	8009.5
812.8226	432.7928	8540.25	7738.8
812.9663	434.9683	8288.25	7486.45
813.1101	437.1432	8138.95	7335.8
813.2539	439.3176	8009.8	7205
813.3977	441.4914	7943.1	7139
813.5415	443.6645	7912.4	7103.95
813.6853	445.8371	7884.65	7080.65
813.8291	448.0091	7839	7035.25
813.973	450.1806	7800.8	6997.45
814.1168	452.3514	7772.9	6966
814.2607	454.5216	7760.55	6944.3
814.4046	456.6913	7696.6	6888.5
814.5485	458.8603	7705.15	6895.9
814.6924	461.0288	7734.65	6928.2
814.8363	463.1967	7756.5	6947.75
814.9802	465.3639	7855.35	7043.45
815.1241	467.5306	7964.65	7153
815.2681	469.6967	8087.85	7277.1
815.412	471.8622	8219.8	7410.95
815.556	474.0271	8339.55	7528.2
815.7	476.1914	8386.35	7570.4
815.844	478.3551	8358.75	7545.7
815.988	480.5182	8319.3	7506.95
816.132	482.6807	8286.7	7473.2
816.276	484.8426	8330.4	7519.15
816.4201	487.0039	8508.9	7693.8
816.5641	489.1647	8807.7	7994.35
816.7082	491.3248	9104.6	8289.45
816.8522	493.4843	9265.6	8452.7
816.9963	495.6432	9268.2	8452.05
817.1404	497.8015	9219	8401.95
817.2845	499.9592	9226.45	8411.15
817.4286	502.1163	9206.85	8389.1
817.5727	504.2728	9084	8263.95
817.7168	506.4287	8833.45	8017.35
817.861	508.5839	8504.65	7684.85
818.0051	510.7386	8258.35	7440.95
818.1493	512.8927	8063.5	7240.7
818.2935	515.0461	7938.95	7118.35
818.4377	517.199	7860.3	7042.25
818.5818	519.3512	7798.2	6977.65
818.726	521.5029	7794.15	6965.15
818.8703	523.6539	7791.1	6970.2
819.0145	525.8043	7810.75	6985.9
819.1587	527.9541	7849.5	7024.55
819.303	530.1033	7863.45	7038.5
819.4472	532.2519	7923.75	7100.5
819.5915	534.3999	8052	7226.75
819.7357	536.5472	8275.75	7446.3
819.88	538.694	8679.55	7853.9
820.0243	540.8401	9153.25	8325.1
820.1686	542.9856	9572.7	8744.25
820.3129	545.1305	9707.95	8875.35
820.4572	547.2748	9597.7	8769.65
820.6016	549.4185	9260.15	8429.9
820.7459	551.5615	8931.85	8105.4
820.8902	553.704	8825.9	7997.3
821.0346	555.8458	8707.8	7880.15
821.1789	557.987	8674.2	7846.4
821.3233	560.1276	8591.1	7762.05
821.4677	562.2675	8490.25	7663.55
821.6121	564.4069	8382.7	7554.6
821.7565	566.5456	8278.75	7449.4
821.9009	568.6837	8165.65	7338.25
822.0453	570.8212	8012.15	7184.1
822.1897	572.958	7855.95	7025.45
822.3342	575.0942	7729.75	6900.5
822.4786	577.2299	7662.1	6831.65
822.6231	579.3648	7678.8	6848
822.7675	581.4992	7756.7	6925.25
822.912	583.6329	7921.75	7092.05
823.0565	585.766	8109.8	7276.35
823.201	587.8985	8203.8	7369.15
823.3454	590.0304	8219.1	7361.4
823.4899	592.1616	8167.9	7333.35
823.6345	594.2922	8084.9	7251.15
823.779	596.4222	7998.45	7164.45
823.9235	598.5515	7844.15	7009.8
824.068	600.6802	7742.95	6907.65
824.2126	602.8083	7610.25	6771.65
824.3571	604.9358	7545.7	6706
824.5017	607.0626	7480.7	6642.55
824.6462	609.1888	7410	6573.45
824.7908	611.3144	7313	6474.65
824.9354	613.4393	7197.45	6361.25
825.08	615.5636	7092.25	6255.1
825.2246	617.6873	6985.5	6148.2
825.3692	619.8103	6927.6	6086.45
825.5138	621.9327	6885.7	6044.9
825.6584	624.0544	6895.45	6057.75
825.803	626.1756	6889.05	6049.3
825.9477	628.2961	6889.35	6049.4
826.0923	630.4159	6829.95	5989.5
826.237	632.5351	6800.65	5960.6
826.3816	634.6537	6752.8	5911.6
826.5263	636.7716	6722.55	5880.5
826.6709	638.8889	6716.2	5874.45
826.8156	641.0056	6717.7	5876.45
826.9603	643.1216	6701.55	5857.05
827.105	645.237	6723.8	5879.1
827.2497	647.3518	6745.85	5899.6
827.3944	649.4659	6749.5	5907
827.5391	651.5793	6757.45	5915.8
827.6838	653.6922	6747.25	5906.2
827.8285	655.8043	6733.3	5890.45
827.9733	657.9159	6707.85	5862.95
828.118	660.0268	6653.6	5806.9
828.2627	662.137	6596	5747.55
828.4075	664.2466	6551.1	5705.4
828.5522	666.3556	6535.2	5689
828.697	668.4639	6548.1	5697.45
828.8418	670.5716	6588.45	5742.75
828.9865	672.6786	6644.5	5795
829.1313	674.785	6706.15	5858.7
829.2761	676.8907	6762	5914
829.4209	678.9958	6823.8	5979.45
829.5657	681.1002	6790.15	5939.55
829.7105	683.204	6779.55	5928.6
829.8553	685.3072	6750.85	5901.55
830.0001	687.4097	6676.3	5827.95
830.1449	689.5115	6618.35	5766.35
830.2898	691.6127	6547.5	5699.3
830.4346	693.7132	6486.15	5637.3
830.5794	695.8131	6475.7	5602.4
830.7243	697.9123	6425.4	5574.35
830.8691	700.0109	6392.4	5542.25
831.014	702.1089	6344.05	5496.95
831.1588	704.2061	6376.6	5525.95
831.3037	706.3028	6381.45	5529.2
831.4486	708.3987	6420.65	5568.65
831.5935	710.4941	6482.2	5631.9
831.7383	712.5887	6623.2	5771.3
831.8832	714.6827	6866.25	6010.5
832.0281	716.7761	7136.8	6283.65
832.173	718.8688	7439.1	6583.85
832.3179	720.9608	7590.35	6733.25
832.4628	723.0522	7551.8	6693.35
832.6077	725.1429	7374.15	6520.4
832.7527	727.233	7091.25	6236.05
832.8976	729.3224	6826.6	5970.6
833.0425	731.4112	6601.45	5746.75
833.1874	733.4993	6436.95	5577.85
833.3324	735.5867	6338.65	5483.35
833.4773	737.6735	6287.55	5431.8
833.6222	739.7596	6247.4	5390.05
833.7672	741.845	6233.2	5377.05
833.9122	743.9298	6231.9	5372.85
834.0571	746.014	6256.65	5399.55
834.2021	748.0974	6235	5378.15
834.347	750.1802	6250.3	5394.1
834.492	752.2624	6244.8	5390.25
834.637	754.3439	6268.75	5411.4
834.782	756.4247	6311.75	5444.5
834.9269	758.5048	6360.1	5503.15
835.0719	760.5843	6486.45	5629.8
835.2169	762.6631	6658.6	5800.9
835.3619	764.7413	6972.9	6115.8
835.5069	766.8188	7358.9	6498.55
835.6519	768.8956	7717.85	6859.25
835.7969	770.9718	7936.65	7079
835.9419	773.0473	7864.7	7005
836.0869	775.1221	7593.95	6737.8
836.232	777.1962	7332.85	6475.1
836.377	779.2697	7178.5	6317.3
836.522	781.3426	7253.2	6376.05
836.667	783.4147	7468.15	6609.6
836.8121	785.4862	7704.75	6846.05
836.9571	787.557	7732.2	6871.35
837.1021	789.6271	7463.8	6605.85
837.2472	791.6966	7060.05	6198.95
837.3922	793.7654	6666.7	5805.65
837.5373	795.8335	6443.75	5583.8
837.6823	797.901	6317.95	5457.35
837.8274	799.9678	6287.6	5425.45
837.9724	802.0339	6296.4	5438.55
838.1175	804.0993	6344.55	5475.3
838.2626	806.1641	6344.35	5483.5
838.4076	808.2282	6299.2	5437.7
838.5527	810.2916	6223.8	5359.3
838.6978	812.3544	6136.25	5277.7
838.8428	814.4164	6087.95	5228.65
838.9879	816.4778	6087.35	5226.45
839.133	818.5385	6054.65	5193.85
839.2781	820.5986	6081.45	5219.85
839.4232	822.658	6108.6	5245.1
839.5682	824.7166	6160.15	5300.65
839.7133	826.7747	6230.3	5369.65
839.8584	828.832	6291.4	5429.05
840.0035	830.8886	6373.55	5509.8
840.1486	832.9446	6461.15	5597.65
840.2937	834.9999	6539.8	5680
840.4388	837.0545	6599.6	5731.45
840.5839	839.1085	6656.8	5792.85
840.729	841.1618	6659	5792.2
840.8741	843.2143	6666.55	5803.3
841.0192	845.2662	6627.45	5764.4
841.1643	847.3175	6578.3	5715.05
841.3095	849.368	6498.75	5635.7
841.4546	851.4179	6411.25	5548.6
841.5997	853.467	6296.4	5433.9
841.7448	855.5155	6228.75	5365
841.8899	857.5633	6148.55	5286.1
842.0351	859.6105	6071.85	5207.9
842.1802	861.6569	6001	5138.3
842.3253	863.7027	5961.65	5096.9
842.4704	865.7478	5940.3	5075.4
842.6156	867.7922	5929.35	5065.5
842.7607	869.8359	5998.9	5137.05
842.9058	871.8789	6068.15	5203.1
843.0509	873.9212	6225.2	5324.9
843.1961	875.9629	6329.8	5465
843.3412	878.0039	6475.2	5608.2
843.4863	880.0441	6537.7	5671.55
843.6315	882.0837	6528.3	5662.85
843.7766	884.1226	6432.7	5564.1
843.9218	886.1609	6309	5443.8
844.0669	888.1984	6209.35	5343.85
844.212	890.2352	6171.15	5306.75
844.3572	892.2714	6118.3	5248.95
844.5023	894.3069	6088.4	5220.85
844.6475	896.3416	6033.85	5166.55
844.7926	898.3757	6034.2	5165.3
844.9377	900.4091	6043.2	5174.9
845.0829	902.4418	6062.55	5191.9
845.228	904.4739	6046.6	5178.55
845.3732	906.5052	6042.45	5173.9
845.5183	908.5358	5957.8	5089.7
845.6635	910.5658	5859.55	4988.45
845.8086	912.595	5754.4	4888.5
845.9538	914.6236	5649.3	4780.75
846.0989	916.6515	5614.2	4746.95
846.2441	918.6786	5622	4753.3
846.3892	920.7051	5684.95	4815.1
846.5344	922.7309	5778.7	4913
846.6795	924.756	5826.4	4959.1
846.8246	926.7804	5886.9	5014.2
846.9698	928.8041	5861.2	4991.4
847.1149	930.8272	5880.8	5010.55
847.2601	932.8495	5842.55	4972.25
847.4052	934.8711	5788.7	4918.5
847.5504	936.892	5654.1	4783.25
847.6955	938.9123	5542.2	4671.2
847.8407	940.9318	5440.45	4571.05
847.9858	942.9506	5337	4468.2
848.131	944.9688	5264.6	4396.1
848.2761	946.9862	5247.35	4377.9
848.4213	949.003	5211.2	4341.15
848.5664	951.019	5230.85	4359.95
848.7115	953.0344	5246.15	4377.7
848.8567	955.0491	5294.25	4423.85
849.0018	957.063	5329.95	4458.1
849.147	959.0763	5400.8	4531.25
849.2921	961.0888	5438.5	4568
849.4373	963.1007	5506.25	4635.55
849.5824	965.1119	5543.8	4673.8
849.7275	967.1223	5546.15	4674.7
849.8727	969.1321	5562.35	4693.2
850.0178	971.1412	5597.55	4728.75
850.1629	973.1495	5619.5	4747.4
850.3081	975.1572	5675.2	4769.9
850.4532	977.1641	5660.05	4788.4
850.5983	979.1704	5662.7	4790.9
850.7435	981.1759	5648.45	4773.75
850.8886	983.1808	5700.45	4826.15
851.0337	985.1849	5783.75	4900.3
851.1788	987.1884	5922.1	5047.65
851.324	989.1911	6042.8	5167.95
851.4691	991.1932	6153	5280.75
851.6142	993.1945	6193.8	5321.6
851.7593	995.1951	6160.4	5287.45
851.9045	997.1951	6166	5289.75
852.0496	999.1943	6101.2	5230.5
852.1947	1001.1928	6047.85	5177.25
852.3398	1003.1906	6048.25	5176.7
852.4849	1005.1877	6083.15	5208.95
852.63	1007.1841	6066.25	5194
852.7751	1009.1798	5983.75	5110.85
852.9202	1011.1748	5861.05	4989.15
853.0653	1013.1691	5691.65	4820.15
853.2104	1015.1627	5541.7	4667.2
853.3555	1017.1556	5414.3	4543
853.5006	1019.1477	5363.85	4490.45
853.6457	1021.1392	5299.85	4430
853.7908	1023.1299	5317.75	4442.75
853.9359	1025.12	5340.7	4465.25
854.081	1027.1093	5399	4526.95
854.2261	1029.0979	5437.5	4565.6
854.3712	1031.0859	5498.05	4623.8
854.5163	1033.0731	5485.4	4612.55
854.6613	1035.0596	5424.25	4552.15
854.8064	1037.0454	5329.6	4456.5
854.9515	1039.0304	5243.7	4367.65
855.0965	1041.0148	5174.6	4302.15
855.2416	1042.9985	5114.25	4239.85
855.3867	1044.9814	5077.05	4203.95
855.5317	1046.9636	5044.55	4166.9
855.6768	1048.9452	5031.8	4158.65
855.8219	1050.926	5036.8	4164.8
855.9669	1052.9061	5025.35	4152.75
856.112	1054.8855	5024.4	4152.05
856.257	1056.8642	5055.05	4181.3
856.4021	1058.8421	5088.75	4211.7
856.5471	1060.8194	5096.2	4223.05
856.6921	1062.7959	5129.7	4255
856.8372	1064.7717	5132.1	4255.3
856.9822	1066.7469	5126.85	4251.8
857.1272	1068.7213	5119.85	4244.45
857.2723	1070.695	5083.1	4209.6
857.4173	1072.6679	5028.15	4153.7
857.5623	1074.6402	5010.75	4137.5
857.7073	1076.6117	5005.9	4125.8
857.8523	1078.5826	5017.9	4144.4
857.9973	1080.5527	5050.5	4175.4
858.1423	1082.5221	5161.2	4287.75
858.2873	1084.4908	5347.95	4472.45
858.4323	1086.4587	5492.9	4618.25
858.5773	1088.426	5620.5	4742.15
858.7223	1090.3925	5627	4749.85
858.8673	1092.3584	5557.7	4683
859.0123	1094.3235	5435.05	4561.7
859.1573	1096.2879	5370.15	4495.1
859.3022	1098.2515	5333.25	4459.95
859.4472	1100.2145	5348.8	4476.3
859.5922	1102.1767	5394.65	4516.7
859.7371	1104.1382	5494.5	4618.4
859.8821	1106.099	5648.25	4772.75
860.027	1108.0591	5786.15	4910.45
860.172	1110.0185	5888.1	5009.7
860.3169	1111.9771	5906.25	5032.6
860.4619	1113.9351	5738.3	4864.25
860.6068	1115.8923	5477.15	4602.2
860.7517	1117.8488	5251.6	4373.55
860.8967	1119.8045	5049	4173.4
861.0416	1121.7596	4954.55	4078.5
861.1865	1123.7139	4897.25	4023.25
861.3314	1125.6675	4892.35	4016.7
861.4763	1127.6204	4935.65	4060.1
861.6212	1129.5726	4966.75	4088.35
861.7661	1131.524	5006.05	4132.05
861.911	1133.4748	5030.3	4155.05
862.0559	1135.4248	5065.9	4186.65
862.2008	1137.3741	5096.85	4219.8
862.3457	1139.3226	5060.35	4182.7
862.4905	1141.2705	5045	4168.9
862.6354	1143.2176	5016.95	4134.5
862.7803	1145.164	5020.75	4143.55
862.9251	1147.1097	5056.25	4178.95
863.07	1149.0546	5050.85	4172.25
863.2148	1150.9989	4976.15	4098.85
863.3597	1152.9424	4850.2	3974.2
863.5045	1154.8852	4712.85	3836.45
863.6493	1156.8272	4582.35	3706.45
863.7942	1158.7686	4552.45	3668.75
863.939	1160.7092	4521.95	3644.85
864.0838	1162.6491	4544.5	3664.35
864.2286	1164.5883	4568.9	3692.55
864.3734	1166.5267	4614.7	3735.9
864.5182	1168.4644	4734.55	3856.25
864.663	1170.4014	4833.3	3952.35
864.8078	1172.3377	5003.05	4127.9
864.9526	1174.2732	5156.7	4281.4
865.0974	1176.2081	5288	4411.25
865.2421	1178.1421	5416.2	4534.7
865.3869	1180.0755	5499.55	4624.45
865.5317	1182.0082	5500.35	4623.1
865.6764	1183.9401	5453.7	4576.65
865.8212	1185.8713	5310.3	4435.25
865.9659	1187.8017	5128	4250.6
866.1106	1189.7315	4944.65	4067.4
866.2554	1191.6605	4806.15	3899.8
866.4001	1193.5888	4647.5	3770.15
866.5448	1195.5163	4561.9	3684.7
866.6895	1197.4432	4487.7	3610.75
866.8342	1199.3693	4469.8	3594.65
866.9789	1201.2947	4435.5	3555.4
867.1236	1203.2193	4424.35	3546.6
867.2683	1205.1432	4451.55	3571.45
867.413	1207.0664	4483.4	3606.05
867.5576	1208.9889	4546.3	3665.1
867.7023	1210.9106	4609.6	3731.3
867.847	1212.8316	4677.4	3802.45
867.9916	1214.7519	4727.05	3839.65
868.1363	1216.6715	4750.35	3875.7
868.2809	1218.5903	4733.4	3856.45
868.4255	1220.5084	4679.9	3803.65
868.5701	1222.4257	4669.25	3792.5
868.7148	1224.3424	4638.4	3762.65
868.8594	1226.2583	4682.25	3802.4
869.004	1228.1735	4748.6	3868.1
869.1486	1230.0879	4837.2	3958.85
869.2932	1232.0016	4947.85	4068.25
869.4377	1233.9146	4972.05	4091.2
869.5823	1235.8269	4898.3	4023.05
869.7269	1237.7384	4814.55	3934.7
869.8715	1239.6492	4689.7	3813.9
870.016	1241.5592	4613.9	3736.2
870.1606	1243.4686	4549.95	3674.2
870.3051	1245.3772	4504.25	3628.15
870.4496	1247.285	4454.1	3575.8
870.5941	1249.1922	4422.25	3542.65
870.7387	1251.0986	4425.5	3548.45
870.8832	1253.0042	4442.95	3565
871.0277	1254.9092	4489.6	3613.3
871.1722	1256.8134	4559.15	3681.8
871.3167	1258.7169	4661	3780.85
871.4611	1260.6196	4767.8	3891.3
871.6056	1262.5216	4891.6	4008.6
871.7501	1264.4229	4998.8	4122.9
871.8945	1266.3234	5082.1	4204.35
872.039	1268.2232	5092.45	4212.35
872.1834	1270.1223	5090.25	4209.25
872.3278	1272.0207	5060.5	4182.7
872.4723	1273.9183	5050.6	4165.95
872.6167	1275.8151	4990.7	4112.65
872.7611	1277.7113	4920.35	4041.7
872.9055	1279.6067	4820.15	3939.95
873.0499	1281.5014	4697	3813.9
873.1943	1283.3953	4605.9	3725.45
873.3386	1285.2885	4523.85	3645.6
873.483	1287.181	4480.1	3599.65
873.6274	1289.0727	4484.15	3607.2
873.7717	1290.9637	4522.65	3642.75
873.9161	1292.854	4616.25	3739.4
874.0604	1294.7435	4714.55	3833.55
874.2047	1296.6323	4873.95	3996.45
874.349	1298.5204	5040.4	4158.7
874.4933	1300.4077	5232.9	4354.15
874.6376	1302.2943	5364	4483.8
874.7819	1304.1802	5431.3	4551.55
874.9262	1306.0653	5390.5	4510.6
875.0705	1307.9497	5318.05	4438.9
875.2147	1309.8333	5266.25	4388.25
875.359	1311.7162	5264.3	4386.65
875.5032	1313.5984	5321	4440.4
875.6475	1315.4798	5438.8	4550.3
875.7917	1317.3605	5586.55	4691.4
875.9359	1319.2405	5676.1	4793.3
876.0801	1321.1197	5709.8	4828.8
876.2243	1322.9982	5686.1	4802.15
876.3685	1324.876	5676.4	4797
876.5127	1326.753	5665.25	4785.05
876.6569	1328.6293	5661.85	4780.85
876.801	1330.5048	5681.65	4801.4
876.9452	1332.3796	5671.2	4793.9
877.0893	1334.2537	5678	4772.3
877.2335	1336.127	5602.7	4721.8
877.3776	1337.9996	5588	4709.3
877.5217	1339.8714	5536.75	4657
877.6658	1341.7426	5542.85	4618.95
877.8099	1343.6129	5490.05	4610.7
877.954	1345.4826	5432.2	4553.1
878.0981	1347.3515	5379.45	4496.45
878.2422	1349.2196	5337.2	4457.9
878.3862	1351.087	5344.65	4464.85
878.5303	1352.9537	5361.2	4481.15
878.6743	1354.8197	5461.8	4581.45
878.8184	1356.6849	5591.15	4712.2
878.9624	1358.5493	5628.65	4749.75
879.1064	1360.4131	5621	4741.75
879.2504	1362.276	5582.75	4702.85
879.3944	1364.1383	5460.5	4581
879.5384	1365.9998	5311.2	4425.35
879.6823	1367.8606	5118.45	4238.45
879.8263	1369.7206	4953	4075.2
879.9702	1371.5799	4852.9	3970.4
880.1142	1373.4384	4772.25	3894.5
880.2581	1375.2962	4688.55	3808.75
880.402	1377.1533	4526.1	3644.9
880.5459	1379.0096	4333.2	3452.8
880.6898	1380.8652	4156.1	3276.35
880.8337	1382.7201	3997.7	3119.5
880.9776	1384.5742	3867.1	2986.45
881.1215	1386.4275	3785.95	2904.55
881.2653	1388.2802	3707.65	2829.95
881.4092	1390.132	3656.4	2775.95
881.553	1391.9832	3614.4	2732.2
881.6968	1393.8336	3576	2695.1
881.8406	1395.6832	3551.4	2671.05
881.9844	1397.5322	3534.45	2653.3
882.1282	1399.3803	3533.55	2648.15
882.272	1401.2278	3527.4	2647.45
882.4158	1403.0745	3523.6	2643.5
882.5595	1404.9204	3520.25	2640.5
882.7033	1406.7656	3531.8	2651.95
882.847	1408.6101	3543.8	2662.9
882.9908	1410.4538	3551.5	2671.7
883.1345	1412.2968	3580.5	2700.5
883.2782	1414.139	3627	2744.25
883.4219	1415.9805	3691.85	2810.55
883.5656	1417.8213	3762.95	2876.15
883.7092	1419.6613	3876.65	2997.2
883.8529	1421.5006	4005.85	3123.35
883.9965	1423.3391	4188.55	3306.3
884.1402	1425.1769	4444.2	3562.2
884.2838	1427.0139	4816.75	3935.95
884.4274	1428.8502	5264.05	4380.75
884.571	1430.6858	5676.15	4797.05
884.7146	1432.5206	5995.8	5115.65
884.8582	1434.3547	6166.55	5287.6
885.0018	1436.188	6206.55	5328.05
885.1453	1438.0206	6160.75	5280.7
885.2889	1439.8524	6052.75	5170.5
885.4324	1441.6835	5981.15	5099.35
885.5759	1443.5139	5918.4	5032.75
885.7194	1445.3435	5870.45	4990.95
885.8629	1447.1724	5820.4	4941.1
886.0064	1449.0005	5783.5	4904.4
886.1499	1450.8279	5723.9	4842.15
886.2933	1452.6545	5702	4818.95
886.4368	1454.4804	5737.65	4857.6
886.5802	1456.3056	5729.85	4841.85
886.7237	1458.13	5655.1	4775.35
886.8671	1459.9536	5495.6	4613.75
887.0105	1461.7766	5228.7	4347.8
887.1539	1463.5987	4942.4	4060.8
887.2972	1465.4202	4670.3	3792.15
887.4406	1467.2409	4398.4	3518.1
887.584	1469.0608	4220.8	3341.5
887.7273	1470.88	4043.7	3166.55
887.8706	1472.6984	3892.9	3012.65
888.0139	1474.5161	3764.95	2882.85
888.1572	1476.3331	3656.7	2776.05
888.3005	1478.1493	3583	2700.3
888.4438	1479.9648	3515.8	2636.45
888.5871	1481.7795	3441.4	2560.9
888.7303	1483.5935	3397.05	2515.25
888.8736	1485.4067	3350.9	2469.2
889.0168	1487.2192	3308.7	2427.95
889.16	1489.031	3301.3	2417.8
889.3032	1490.842	3262.8	2381.95
889.4464	1492.6522	3246.6	2366.65
889.5896	1494.4618	3215.65	2332.75
889.7327	1496.2705	3211.25	2330.9
889.8759	1498.0785	3194.95	2315.65
890.019	1499.8858	3193.15	2311.95
890.1622	1501.6924	3172.5	2293.95
890.3053	1503.4981	3163.3	2283.45
890.4484	1505.3032	3151.9	2270.95
890.5914	1507.1075	3139.2	2261.45
890.7345	1508.911	3117.75	2235.55
890.8776	1510.7138	3108.75	2228.5
891.0206	1512.5159	3087.1	2206.45
891.1637	1514.3172	3057.2	2176.85
891.3067	1516.1178	3044.05	2165.7
891.4497	1517.9176	3031.4	2147.35
891.5927	1519.7166	3013.6	2134.5
891.7357	1521.515	3005.05	2117.95
891.8786	1523.3126	2983.35	2103.05
892.0216	1525.1094	2975.65	2092.75
892.1645	1526.9055	2973.2	2094.25
892.3074	1528.7008	2957.5	2077.6
892.4503	1530.4954	2949.75	2062
892.5932	1532.2893	2936	2057.25
892.7361	1534.0824	2935.25	2049.65
892.879	1535.8747	2924.9	2045.6
893.0218	1537.6663	2931.3	2048.4
893.1647	1539.4572	2919.35	2038.05
893.3075	1541.2473	2925.05	2044.5
893.4503	1543.0367	2921.05	2041.6
893.5931	1544.8253	2927.65	2042.6
893.7359	1546.6132	2922.35	2040.4
893.8787	1548.4003	2931	2041.3
894.0214	1550.1867	2950.6	2061.5
894.1642	1551.9723	2945.55	2061.2
894.3069	1553.7572	2954.3	2073.65
894.4496	1555.5414	2975.8	2093.2
894.5923	1557.3247	3001.2	2117.65
894.735	1559.1074	3022.55	2144.6
894.8777	1560.8893	3068.75	2191.3
895.0204	1562.6705	3114.25	2231.6
895.163	1564.4509	3140.8	2261.15
895.3056	1566.2305	3203.85	2323.35
895.4482	1568.0094	3269.25	2388.85
895.5908	1569.7876	3335.05	2455.35
895.7334	1571.565	3386.45	2504.95
895.876	1573.3417	3423.85	2544
896.0186	1575.1176	3430.9	2550.4
896.1611	1576.8928	3416.1	2535.15
896.3036	1578.6672	3363.05	2483.35
896.4461	1580.4409	3284.35	2403.85
896.5886	1582.2138	3204.4	2320.65
896.7311	1583.986	3114.8	2233.55
896.8736	1585.7575	3047.25	2167
897.0161	1587.5282	2991.5	2110.65
897.1585	1589.2981	2966.55	2086.85
897.3009	1591.0673	2923.75	2041.4
897.4433	1592.8358	2925.45	2044.05
897.5857	1594.6035	2919.95	2037.5
897.7281	1596.3704	2915.2	2035.15
897.8705	1598.1366	2926.6	2048.65
898.0128	1599.9021	2943.05	2062.75
898.1551	1601.6668	2960.1	2076.75
898.2975	1603.4308	2996.2	2115.35
898.4398	1605.194	3031.85	2147.1
898.5821	1606.9564	3090.15	2209.55
898.7243	1608.7182	3170.8	2286.45
898.8666	1610.4791	3254.95	2373.9
899.0088	1612.2394	3363.3	2483.1
899.1511	1613.9988	3487.9	2605.95
899.2933	1615.7576	3650.35	2770.4
899.4355	1617.5156	3822.9	2936.05
899.5776	1619.2728	3984.05	3104.75
899.7198	1621.0293	4110.9	3231.15
899.862	1622.785	4155.4	3269.1
900.0041	1624.54	4131.1	3247.3
900.1462	1626.2942	4031.45	3149.85
900.2883	1628.0477	3868.45	2986.85
900.4304	1629.8005	3693.5	2809.8
900.5725	1631.5525	3523.3	2642.7
900.7145	1633.3037	3385.2	2503.65
900.8566	1635.0542	3279.1	2398.6
900.9986	1636.804	3186.85	2306.85
901.1406	1638.553	3202.95	2238.95
901.2826	1640.3013	3094.65	2216.2
901.4245	1642.0488	3068.65	2184.7
901.5665	1643.7955	3071.5	2191.9
901.7085	1645.5416	3065.2	2185.7
901.8504	1647.2868	3123.45	2244.15
901.9923	1649.0313	3166.8	2285.1
902.1342	1650.7751	3265.85	2384.1
902.2761	1652.5181	3399.5	2520.2
902.4179	1654.2604	3578.75	2696.65
902.5598	1656.0019	3795.5	2915.9
902.7016	1657.7427	4055.4	3175.25
902.8434	1659.4828	4286.05	3405.65
902.9852	1661.222	4442.15	3561.25
903.127	1662.9606	4469.75	3591.3
903.2687	1664.6984	4361.4	3481.05
903.4105	1666.4354	4122.9	3242.4
903.5522	1668.1717	3836.65	2957.2
903.6939	1669.9072	3540.55	2660.55
903.8356	1671.642	3269.95	2387.9
903.9773	1673.3761	3076.8	2198.2
904.119	1675.1094	2935.5	2054.6
904.2606	1676.8419	2816.2	1937.7
904.4022	1678.5737	2736.85	1856.35
904.5439	1680.3048	2663.65	1786.75
904.6855	1682.0351	2617	1738.65
904.827	1683.7646	2579.25	1696.2
904.9686	1685.4934	2549.8	1670.65
905.1101	1687.2215	2534.4	1652.7
905.2517	1688.9488	2512.65	1633
905.3932	1690.6754	2480.6	1601.1
905.5347	1692.4012	2470.6	1591.15
905.6761	1694.1263	2461.5	1580.45
905.8176	1695.8506	2456.95	1577.1
905.9591	1697.5742	2442.45	1561.95
906.1005	1699.297	2430.15	1549.7
906.2419	1701.0191	2415	1534.95
906.3833	1702.7404	2391.85	1513.25
906.5246	1704.461	2380.2	1500.3
906.666	1706.1808	2383.55	1500.55
906.8073	1707.8999	2381.4	1499.4
906.9487	1709.6182	2357.85	1476.7
907.09	1711.3358	2358.05	1478.1
907.2313	1713.0527	2346.4	1466.15
907.3725	1714.7688	2336.05	1449.8
907.5138	1716.4841	2323.65	1442.5
907.655	1718.1987	2327.45	1443.1
907.7962	1719.9126	2311.5	1434
907.9374	1721.6257	2307.55	1425.2
908.0786	1723.338	2300.95	1419.2
908.2198	1725.0496	2292.2	1412.05
908.3609	1726.7605	2293.55	1411.55
908.502	1728.4706	2278	1397.7
908.6431	1730.18	2271.55	1389.35
908.7842	1731.8886	2265.05	1386
908.9253	1733.5964	2266.5	1382.05
909.0664	1735.3036	2260.1	1379.25
909.2074	1737.0099	2249.7	1369.5
909.3484	1738.7156	2251.95	1374
909.4894	1740.4204	2253.4	1368.35
909.6304	1742.1246	2242.4	1361.25
909.7714	1743.8279	2232.2	1352.2
909.9123	1745.5306	2230.95	1348.55
910.0532	1747.2325	2233	1354.65
910.1941	1748.9336	2223.85	1344.85
910.335	1750.634	2206.5	1323.9
910.4759	1752.3336	2215.85	1335.65
910.6168	1754.0325	2202.5	1323.85
910.7576	1755.7307	2204.6	1323.8
910.8984	1757.4281	2204.4	1324.45
911.0392	1759.1247	2201.5	1314.75
911.18	1760.8206	2201.35	1317.15
911.3208	1762.5158	2196.8	1314.5
911.4615	1764.2102	2180.55	1302.55
911.6022	1765.9039	2175.9	1295.9
911.7429	1767.5968	2171.45	1291.5
911.8836	1769.289	2169.15	1289.45
912.0243	1770.9804	2171.1	1290.75
912.1649	1772.6711	2171.5	1290
912.3056	1774.361	2157.7	1278.55
912.4462	1776.0502	2167.9	1288.3
912.5868	1777.7386	2160.05	1277.55
912.7274	1779.4263	2141.2	1260.9
912.8679	1781.1132	2151.05	1267.75
913.0084	1782.7994	2140.75	1256.7
913.149	1784.4849	2141.25	1260.05
913.2895	1786.1696	2153.9	1254.65
913.4299	1787.8535	2138.75	1258.75
913.5704	1789.5367	2133.25	1252.7
913.7108	1791.2192	2130.55	1250.65
913.8513	1792.9009	2154.5	1247.5
913.9917	1794.5818	2126.2	1245.75
914.132	1796.2621	2113.6	1235.1
914.2724	1797.9415	2112.45	1233.55
914.4128	1799.6202	2118.1	1240.2
914.5531	1801.2982	2108.55	1226.95
914.6934	1802.9755	2105.95	1224.25
914.8337	1804.6519	2107.9	1227.6
914.9739	1806.3277	2098.35	1218.15
915.1142	1808.0027	2091.1	1211.85
915.2544	1809.6769	2096	1216.3
915.3946	1811.3504	2093.25	1213.4
915.5348	1813.0231	2099.15	1219.4
915.675	1814.6951	2075.25	1194.75
915.8151	1816.3664	2090.15	1209.05
915.9553	1818.0369	2075.25	1195.25
916.0954	1819.7067	2074.75	1195.4
916.2355	1821.3757	2074.75	1192
916.3755	1823.044	2075.75	1196.7
916.5156	1824.7115	2072.35	1192.4
916.6556	1826.3783	2057.65	1179.55
916.7956	1828.0443	2065.15	1187.45
916.9356	1829.7096	2058.6	1176.4
917.0756	1831.3741	2059.9	1176.5
917.2155	1833.0379	2054.7	1175.65
917.3555	1834.701	2061.2	1179.25
917.4954	1836.3633	2059.9	1179.05
917.6353	1838.0248	2056.25	1171.75
917.7751	1839.6856	2041.1	1161.75
917.915	1841.3457	2042.6	1164.1
918.0548	1843.005	2041.4	1162.95
918.1946	1844.6636	2033.7	1155.65
918.3344	1846.3214	2037.1	1158.15
918.4742	1847.9785	2043.65	1165.55
918.6139	1849.6349	2033.9	1153.75
918.7537	1851.2904	2042.45	1155.5
918.8934	1852.9453	2026.7	1146.85
919.0331	1854.5994	2031.75	1149.15
919.1727	1856.2528	2024.05	1140.15
919.3124	1857.9054	2026.4	1145.3
919.452	1859.5572	2026.9	1147.75
919.5916	1861.2083	2024.55	1144
919.7312	1862.8587	2016.5	1135.6
919.8708	1864.5084	2019.05	1138.3
920.0103	1866.1572	2003.85	1125.65
920.1498	1867.8054	2009.25	1130.1
920.2893	1869.4528	1993.35	1116.05
920.4288	1871.0994	1999.45	1120.3
920.5683	1872.7453	2001.4	1121.9
920.7077	1874.3905	2008.55	1112.6
920.8471	1876.0349	2001.65	1121.15
920.9865	1877.6786	1989.8	1110.25
921.1259	1879.3215	1996.65	1117.8
921.2653	1880.9637	1980.8	1098.75
921.4046	1882.6051	1985	1105.9
921.5439	1884.2458	1984.15	1102.6
921.6832	1885.8858	1975.25	1093.4
921.8225	1887.525	1976.35	1096.15
921.9617	1889.1634	1964.75	1086.55
922.101	1890.8011	1965.35	1085
922.2402	1892.4381	1960	1080.75
922.3794	1894.0743	1964.15	1085.3
922.5185	1895.7098	1957.75	1077.7
922.6577	1897.3446	1960.6	1078.65
922.7968	1898.9786	1952	1069.7
922.9359	1900.6118	1951.1	1073.4
923.075	1902.2443	1938.9	1056.55
923.214	1903.8761	1943.45	1064.25
923.3531	1905.5071	1940.95	1060.6
923.4921	1907.1374	1932	1053.9
923.6311	1908.7669	1934.05	1055.4
923.77	1910.3957	1936.6	1056.3
923.909	1912.0237	1926.45	1046
924.0479	1913.651	1923.1	1043.05
924.1868	1915.2776	1925.55	1046.9
924.3257	1916.9034	1920.9	1041.75
924.4646	1918.5285	1908	1030.1
924.6034	1920.1528	1909.45	1029.2
924.7422	1921.7764	1910.4	1030.85
924.881	1923.3992	1899.65	1022.45
925.0198	1925.0213	1892.55	1012.2
925.1586	1926.6427	1898.05	1019.1
925.2973	1928.2633	1960	1005.45
925.436	1929.8832	1898.85	1018.95
925.5747	1931.5023	1886.35	1006.65
925.7134	1933.1207	1891.05	1011.55
925.852	1934.7383	1888.35	1008.4
925.9906	1936.3552	1873	992.6
926.1292	1937.9714	1886.05	1007.9
926.2678	1939.5868	1870.2	988.15
926.4064	1941.2015	1875.05	994.4
926.5449	1942.8154	1866.7	987.35
926.6834	1944.4286	1859.4	980.5
926.8219	1946.041	1875.9	974.65
926.9604	1947.6528	1853.7	967.95
927.0988	1949.2637	1847.95	968.25
927.2372	1950.8739	1845.2	963.75
927.3756	1952.4834	1844.45	964.65
927.514	1954.0921	1841.2	961.45
927.6523	1955.7001	1838.6	952.55
927.7907	1957.3074	1837.65	958.5
927.929	1958.9139	1821.15	943
928.0673	1960.5197	1827.45	945.35
928.2055	1962.1247	1820.4	939.55
928.3438	1963.729	1814.25	935.7
928.482	1965.3325	1832.1	931.15
928.6202	1966.9353	1807.5	927.85
928.7584	1968.5374	1807.65	924.05
928.8965	1970.1387	1804.8	924.8
929.0346	1971.7393	1800.05	919.6
929.1727	1973.3392	1798.3	917.15
929.3108	1974.9383	1792.45	913.1
929.4489	1976.5366	1792.1	913.1
929.5869	1978.1342	1786.4	903.5
929.7249	1979.7311	1789.5	907.6
929.8629	1981.3273	1791	912.45
930.0009	1982.9227	1782.2	902.05
930.1388	1984.5173	1782.4	903.05
930.2767	1986.1112	1772.6	892.55
930.4146	1987.7044	1776.6	896.45
930.5525	1989.2968	1773.4	893.25
930.6904	1990.8885	1767.05	883.25
930.8282	1992.4795	1770.7	889.55
930.966	1994.0697	1766.55	887.15
931.1038	1995.6592	1763.05	883.75
931.2415	1997.2479	1762.7	881.85
931.3793	1998.8359	1757.7	877.95
931.517	2000.4232	1758.35	878.85
931.6547	2002.0097	1752.8	875.45
931.7923	2003.5955	1748.35	869.2
931.93	2005.1805	1761.3	880.8
932.0676	2006.7648	1743.65	863.95
932.2052	2008.3484	1746.4	865.6
932.3427	2009.9312	1750	867.8
932.4803	2011.5133	1736.45	857.05
932.6178	2013.0946	1739.25	859.35
932.7553	2014.6752	1736.4	856.9
932.8928	2016.2551	1736.95	858.1
933.0302	2017.8342	1730.45	850.4
933.1676	2019.4126	1721.9	842.85
933.305	2020.9902	1729	849.9
933.4424	2022.5672	1718.3	835.5
933.5798	2024.1433	1721.4	835.05
933.7171	2025.7188	1717.65	839.25
933.8544	2027.2935	1715.7	833.1
933.9917	2028.8674	1707.1	828.9
934.129	2030.4406	1707.55	828.75
934.2662	2032.0131	1704.2	823.95
934.4034	2033.5849	1716.75	833.1
934.5406	2035.1559	1704.95	826
934.6778	2036.7261	1699.2	820.65
934.8149	2038.2957	1695.35	814.45
934.952	2039.8645	1700.25	820.95
935.0891	2041.4325	1704.85	821.9
935.2262	2042.9998	1694	814.1
935.3632	2044.5664	1696.3	813.1
935.5002	2046.1323	1693.55	814.2
935.6372	2047.6974	1684.85	806.95
935.7742	2049.2617	1677.95	797.95
935.9111	2050.8254	1696.2	812.6
936.048	2052.3883	1688.75	806.3
936.1849	2053.9504	1684.4	803.65
936.3218	2055.5118	1676.95	796.55
936.4586	2057.0725	1682.5	798.1
936.5955	2058.6325	1671.45	790.4
936.7323	2060.1917	1671	791.45
936.869	2061.7502	1673.6	790.25
937.0058	2063.3079	1671.45	792.4
937.1425	2064.8649	1669.4	785.65
937.2792	2066.4212	1669.05	787.2
937.4159	2067.9767	1663.3	784.85
937.5525	2069.5315	1651.15	772.8
937.6891	2071.0856	1652.75	771.5
937.8257	2072.6389	1641.1	760.5
937.9623	2074.1915	1648.6	769.5
938.0989	2075.7433	1638.8	758.05
938.2354	2077.2945	1645.85	766.55
938.3719	2078.8448	1640.1	760.7
938.5084	2080.3945	1631.65	750.7
938.6448	2081.9434	1643.75	763.45
938.7812	2083.4916	1635.1	754.8
938.9176	2085.039	1629.95	749.2
939.054	2086.5857	1637.5	755.3
939.1903	2088.1317	1622.25	744.1
939.3267	2089.677	1632.5	750.85
939.463	2091.2215	1621.25	742.55
939.5992	2092.7652	1622.8	742.3
939.7355	2094.3083	1606.45	726.1
939.8717	2095.8506	1616.3	738.35
940.0079	2097.3921	1616.85	738.25
940.1441	2098.933	1612.15	733.25
940.2802	2100.4731	1617.25	740.2
940.4163	2102.0124	1625.4	738.6
940.5524	2103.5511	1607.75	727.2
940.6885	2105.089	1607.05	725.5
940.8245	2106.6261	1605.95	726.95
940.9606	2108.1626	1600.4	717.8
941.0965	2109.6983	1631.3	721.4
941.2325	2111.2332	1604.5	723.15
941.3684	2112.7675	1599.05	719.15
941.5044	2114.301	1607.9	726
941.6403	2115.8337	1597.85	719.1
941.7761	2117.3657	1595.7	715.15
941.912	2118.897	1602.1	721.1
942.0478	2120.4276	1601.85	715.85
942.1835	2121.9575	1585.15	705.1
942.3193	2123.4866	1599.35	703.35
942.455	2125.0149	1591.35	708.65
942.5907	2126.5426	1583.4	701.2
942.7264	2128.0695	1588.95	705.25
942.8621	2129.5956	1579.25	700.8
942.9977	2131.1211	1583.7	698.1
943.1333	2132.6458	1577.1	697.9
943.2689	2134.1698	1576.3	695.9
943.4044	2135.693	1578.7	695.9
943.54	2137.2155	1580.1	697.95
943.6755	2138.7373	1564.55	684.25
943.8109	2140.2584	1570.65	689.3
943.9464	2141.7787	1572.8	685.85
944.0818	2143.2983	1569.3	692.85
944.2172	2144.8171	1562.65	683.7
944.3526	2146.3353	1571.05	689.15
944.4879	2147.8527	1560.35	680.8
944.6232	2149.3693	1558.05	678.35
944.7585	2150.8853	1552.85	672
944.8938	2152.4005	1551.5	670.9
945.029	2153.9149	1551.95	670.65
945.1642	2155.4287	1548.5	670.2
945.2994	2156.9417	1552.05	669.65
945.4346	2158.454	1550.45	667.25
945.5697	2159.9655	1540.95	662.35
945.7048	2161.4764	1547.2	667.85
945.8399	2162.9865	1546.1	665.3
945.9749	2164.4958	1542	660.8
946.1099	2166.0045	1543.1	659.5
946.2449	2167.5124	1541.55	662.4
946.3799	2169.0195	1535.7	654.95
946.5148	2170.526	1537.05	656.05
946.6498	2172.0317	1533.95	653.55
946.7846	2173.5367	1533.9	653.15
946.9195	2175.0409	1534	654.5
947.0543	2176.5445	1533.45	651.6
947.1891	2178.0473	1530.65	651.95
947.3239	2179.5494	1531.2	647.05
947.4587	2181.0507	1525.95	647.25
947.5934	2182.5513	1528.4	649.75
947.7281	2184.0512	1525.7	644.55
947.8628	2185.5504	1523.45	643.75
947.9974	2187.0488	1522.15	642.85
948.132	2188.5465	1515.1	633.55
948.2666	2190.0435	1511.2	629.35
948.4012	2191.5397	1507.95	628.5
948.5357	2193.0353	1508.75	629.7
948.6702	2194.5301	1505.8	626.1
948.8047	2196.0241	1507.05	626.5
948.9392	2197.5175	1499.45	621.2
949.0736	2199.0101	1498.4	616.5
949.208	2200.502	1492.95	612.5
949.3424	2201.9931	1498.4	617.7
949.4767	2203.4835	1490.95	607.3
949.611	2204.9733	1494.4	607.35
949.7453	2206.4622	1494.2	613.55
949.8796	2207.9505	1493.7	608.9
950.0138	2209.438	1490.9	611.45
950.148	2210.9248	1491.05	607.9
950.2822	2212.4109	1485	606.85
950.4164	2213.8962	1489.7	606.25
950.5505	2215.3809	1485.5	604.15
950.6846	2216.8648	1482.35	602.9
950.8186	2218.3479	1487.55	604.2
950.9527	2219.8304	1476.65	594.55
951.0867	2221.3121	1475.95	594
951.2207	2222.7931	1468	586.8
951.3546	2224.2733	1470.1	591.55
951.4886	2225.7529	1463	582.05
951.6225	2227.2317	1462.45	578.6
951.7563	2228.7098	1466	584.5
951.8902	2230.1872	1460.5	581.1
952.024	2231.6638	1456.4	574.75
952.1578	2233.1397	1459.5	574.15
952.2916	2234.6149	1454.8	575.15
952.4253	2236.0894	1462.05	579.3
952.559	2237.5632	1455.05	572.55
952.6927	2239.0362	1450.55	571.15
952.8263	2240.5085	1449.55	568.45
952.9599	2241.9801	1440.55	559.25
953.0935	2243.4509	1447.45	569.35
953.2271	2244.921	1441.75	559.8
953.3606	2246.3904	1445.3	563.35
953.4941	2247.8591	1434.1	555.6
953.6276	2249.3271	1435.65	554.5
953.7611	2250.7943	1433	552.25
953.8945	2252.2608	1430.1	550.1
954.0279	2253.7266	1426.45	547.9
954.1612	2255.1917	1431.6	551
954.2946	2256.656	1431.8	550.45
954.4279	2258.1197	1424.15	543.45
954.5612	2259.5826	1421.35	539
954.6944	2261.0447	1427.9	546.8
954.8276	2262.5062	1425.95	544.6
954.9608	2263.9669	1423.55	541.3
955.094	2265.4269	1421.1	541.5
955.2271	2266.8862	1418.25	537.55
955.3602	2268.3448	1421.6	542
955.4933	2269.8026	1421.75	540.65
955.6264	2271.2598	1422.6	543.25
955.7594	2272.7162	1411.6	533
955.8924	2274.1719	1408.95	527.85
956.0253	2275.6268	1411.45	530.25
956.1583	2277.0811	1409.4	529.1
956.2912	2278.5346	1412.85	532.7
956.4241	2279.9874	1410.45	528.6
956.5569	2281.4395	1407.05	528.05
956.6897	2282.8908	1418.4	533.85
956.8225	2284.3414	1416.2	535.45
956.9553	2285.7914	1409.7	530.75
957.088	2287.2406	1407.45	523.55
957.2207	2288.689	1407.2	526.45
957.3534	2290.1368	1401.9	519.85
957.486	2291.5838	1403.65	524.25
957.6186	2293.0302	1397.95	516.85
957.7512	2294.4758	1401.35	522.2
957.8838	2295.9206	1398.6	516.1
958.0163	2297.3648	1394.6	514.3
958.1488	2298.8082	1396.2	515.3
958.2813	2300.251	1398.4	519.2
958.4137	2301.693	1391.95	509.1
958.5461	2303.1343	1389.9	508.1
958.6785	2304.5748	1388.05	508.3
958.8108	2306.0147	1386.95	506.5
958.9432	2307.4538	1387.9	506.2
959.0754	2308.8922	1381.45	500.25
959.2077	2310.3299	1383.65	503
959.3399	2311.7669	1369.4	490.9
959.4721	2313.2031	1379.95	501.05
959.6043	2314.6387	1374	493.75
959.7365	2316.0735	1373.6	493.6
959.8686	2317.5076	1378.9	497.7
960.0006	2318.941	1373.2	493.1
960.1327	2320.3737	1368.35	487.5
960.2647	2321.8056	1369.2	488
960.3967	2323.2369	1365.55	484.6
960.5287	2324.6674	1371.7	489.5
960.6606	2326.0972	1364.2	482.3
960.7925	2327.5263	1367.1	487.55
960.9244	2328.9547	1369.75	489.45
961.0562	2330.3823	1368.45	487.1
961.1881	2331.8092	1358.9	476.5
961.3198	2333.2355	1360.4	482
961.4516	2334.661	1356.65	475.65
961.5833	2336.0858	1355.65	471.6
961.715	2337.5098	1354.05	472.85
961.8467	2338.9332	1352.75	471.9
961.9783	2340.3558	1358.15	474.25
962.1099	2341.7778	1351.05	470.45
962.2415	2343.199	1346.35	465.7
962.373	2344.6195	1357.15	478.4
962.5045	2346.0393	1343.8	464.75
962.636	2347.4583	1348.4	467.8
962.7675	2348.8767	1351	468.95
962.8989	2350.2943	1346.05	465.15
963.0303	2351.7113	1347.05	465.1
963.1617	2353.1275	1352.55	472.15
963.293	2354.543	1366.9	462.8
963.4243	2355.9578	1339.75	458
963.5556	2357.3718	1343.35	462.8
963.6868	2358.7852	1344.15	459.2
963.818	2360.1978	1338.85	455.2
963.9492	2361.6098	1344.3	462.35
964.0803	2363.021	1340.4	458.3
964.2114	2364.4315	1340.85	459.05
964.3425	2365.8413	1346.6	461.4
964.4736	2367.2504	1333.1	453.5
964.6046	2368.6587	1334.95	455.75
964.7356	2370.0664	1334.35	454.4
964.8666	2371.4733	1328.25	447.85
964.9975	2372.8795	1328.45	447.95
965.1284	2374.285	1329.65	450.6
965.2593	2375.6899	1324.95	446.8
965.3901	2377.0939	1322.05	443.75
965.5209	2378.4973	1323.95	444.7
965.6517	2379.9	1324.75	444.8
965.7825	2381.3019	1321.55	443.75
965.9132	2382.7032	1319.4	440.1
966.0439	2384.1037	1317.65	439.2
966.1745	2385.5035	1318.65	439.45
966.3051	2386.9027	1313.6	433.25
966.4357	2388.3011	1319.05	436.1
966.5663	2389.6987	1316.8	437.65
966.6968	2391.0957	1312.05	433.1
966.8273	2392.492	1309.65	430.4
966.9578	2393.8876	1298.6	419.4
967.0882	2395.2824	1298.85	421.1
967.2186	2396.6765	1304.85	424.8
967.349	2398.07	1300.8	421.95
967.4793	2399.4627	1301.1	419.2
967.6097	2400.8547	1298.6	419.85
967.7399	2402.246	1307.3	421.05
967.8702	2403.6366	1294.9	414.55
968.0004	2405.0265	1292.5	413.95
968.1306	2406.4156	1294.75	410.85
968.2607	2407.8041	1300.3	418.75
968.3909	2409.1918	1296.45	416.6
968.521	2410.5789	1295.7	417.55
968.651	2411.9652	1294.8	411.3
968.781	2413.3508	1291.4	412.5
968.911	2414.7358	1292.5	413.55
969.041	2416.12	1289.5	411.05
969.1709	2417.5035	1289.45	410.4
969.3008	2418.8863	1285.65	404.2
969.4307	2420.2684	1283.55	404.75
969.5606	2421.6497	1285.2	403.15
969.6904	2423.0304	1278.2	398.25
969.8201	2424.4104	1276.5	395.8
969.9499	2425.7896	1287.5	403.25
970.0796	2427.1682	1277.85	398.35
970.2093	2428.546	1282.05	400.7
970.3389	2429.9232	1273.45	393.25
970.4685	2431.2996	1271.9	392.5
970.5981	2432.6753	1275	396.4
970.7277	2434.0503	1272.9	394.45
970.8572	2435.4246	1272.15	394.9
970.9867	2436.7982	1277.85	394.85
971.1161	2438.1711	1267.9	389.2
971.2456	2439.5433	1267.65	385.45
971.375	2440.9148	1277.3	392.95
971.5043	2442.2856	1262.75	383.7
971.6336	2443.6557	1270	388.65
971.7629	2445.025	1265	382.65
971.8922	2446.3937	1267.45	387.4
972.0214	2447.7617	1268.5	388.45
972.1506	2449.1289	1262.95	382.95
972.2798	2450.4955	1270.7	387.75
972.4089	2451.8613	1256.5	378.05
972.538	2453.2265	1259.3	379.7
972.6671	2454.5909	1259.2	379.45
972.7961	2455.9546	1260.4	381.95
972.9251	2457.3177	1252.65	373.4
973.0541	2458.68	1259.2	380.85
973.1831	2460.0416	1263.5	382.8
973.312	2461.4025	1258.25	375.75
973.4408	2462.7627	1268.25	376.2
973.5697	2464.1222	1259.15	379.4
973.6985	2465.4811	1259.25	378.45
973.8273	2466.8392	1253.65	372.7
973.956	2468.1966	1260.35	378.6
974.0847	2469.5533	1255.55	374.2
974.2134	2470.9093	1255	374.45
974.3421	2472.2645	1255.9	374.15
974.4707	2473.6191	1251.4	373.65
974.5993	2474.973	1251.45	371.75
974.7278	2476.3262	1245.15	363.8
974.8563	2477.6787	1254.6	374.6
974.9848	2479.0305	1247.25	367.85
975.1132	2480.3816	1249.35	367.7
975.2417	2481.7319	1245.7	366.75
975.37	2483.0816	1246.55	363.5
975.4984	2484.4306	1242.75	360.55
975.6267	2485.7789	1239.85	361.85
975.755	2487.1264	1247.15	364.8
975.8833	2488.4733	1241.55	362.7
976.0115	2489.8195	1257.3	361
976.1397	2491.165	1242.45	359.7
976.2678	2492.5097	1241.4	358.4
976.3959	2493.8538	1238.9	359.9
976.524	2495.1972	1236	355.2
976.6521	2496.5398	1229.55	348
976.7801	2497.8818	1237.4	352.7
976.9081	2499.2231	1238.35	360.6
977.036	2500.5637	1235.9	355.05
977.164	2501.9035	1235.4	355.2
977.2918	2503.2427	1227.85	345
977.4197	2504.5812	1228.9	349.95
977.5475	2505.919	1228.8	345.4
977.6753	2507.256	1229.65	349.5
977.8031	2508.5924	1225.55	345.1
977.9308	2509.9281	1224.6	337.8
978.0585	2511.2631	1225.85	346.7
978.1861	2512.5974	1225.55	345.5
978.3137	2513.9309	1220.75	339.95
978.4413	2515.2638	1240.45	332.6
978.5689	2516.596	1228	350.6
978.6964	2517.9275	1216.05	335.8
978.8239	2519.2583	1218.3	339.65
978.9513	2520.5884	1215.4	332.95
979.0788	2521.9178	1214.3	334.4
979.2062	2523.2465	1215.1	335.5
979.3335	2524.5745	1213.35	334.85
979.4608	2525.9018	1212	333.8
979.5881	2527.2284	1216.2	338.25
979.7154	2528.5543	1213.75	335.15
979.8426	2529.8796	1212.55	331.95
979.9698	2531.2041	1216	335.35
980.0969	2532.5279	1210.8	332.55
980.224	2533.851	1218.1	336.35
980.3511	2535.1735	1212.65	334.15
980.4781	2536.4952	1206.95	325.15
980.6052	2537.8163	1206.05	325.25
980.7321	2539.1366	1208.3	327.55
980.8591	2540.4562	1207.5	323.95
980.986	2541.7752	1205.1	325.9
981.1129	2543.0935	1207.55	326.8
981.2397	2544.411	1209.55	329.3
981.3665	2545.7279	1207.95	330.05
981.4933	2547.0441	1206.15	326
981.62	2548.3596	1206.05	324.1
981.7467	2549.6744	1204.65	324.95
981.8734	2550.9885	1203.85	319.5
982.0001	2552.3019	1204.85	326.7
982.1267	2553.6146	1203.15	322.05
982.2532	2554.9266	1202.05	321.4
982.3798	2556.2379	1199.5	320.75
982.5063	2557.5485	1193.7	313.9
982.6327	2558.8585	1203.4	316.75
982.7592	2560.1677	1195.55	311.25
982.8856	2561.4762	1196.3	317.45
983.0119	2562.7841	1201.15	317.7
983.1383	2564.0913	1195.15	315.1
983.2646	2565.3977	1191.6	312.65
983.3908	2566.7035	1194.25	315.4
983.517	2568.0086	1191.15	309.95
983.6432	2569.313	1195.2	313.7
983.7694	2570.6167	1195.75	312.2
983.8955	2571.9197	1182	304.85
984.0216	2573.222	1194.3	311.3
984.1476	2574.5236	1191.15	310.45
984.2737	2575.8246	1196.15	313.65
984.3996	2577.1248	1198.55	314.55
984.5256	2578.4244	1193.55	312.35
984.6515	2579.7232	1191.95	311.3
984.7774	2581.0214	1227	313.2
984.9032	2582.3189	1197.05	318.85
985.029	2583.6157	1196	311.25
985.1548	2584.9118	1194.25	314.2
985.2806	2586.2072	1196.35	315.65
985.4063	2587.5019	1192.55	310.35
985.5319	2588.7959	1196.35	315.95
985.6576	2590.0893	1201.85	323.05
985.7832	2591.3819	1191.7	313.5
985.9087	2592.6739	1198.5	319.75
986.0343	2593.9652	1201.45	321.8
986.1597	2595.2557	1199.3	319.05
986.2852	2596.5456	1202.45	321.55
986.4106	2597.8348	1204.95	324.8
986.536	2599.1234	1203.2	323.75
986.6614	2600.4112	1205.4	326.35
986.7867	2601.6983	1208.15	324.65
986.912	2602.9848	1198.7	319.3
987.0372	2604.2705	1212.8	325.5
987.1624	2605.5556	1204.4	326.3
987.2876	2606.84	1203.25	321.05
987.4128	2608.1237	1206.55	327.8
987.5379	2609.4067	1201.55	321.35
987.6629	2610.689	1210.05	320.9
987.788	2611.9707	1209.8	326.95
987.913	2613.2516	1205.2	320.6
988.0379	2614.5319	1197.4	317.1
988.1629	2615.8115	1194.85	312.3
988.2878	2617.0903	1199.85	318.65
988.4126	2618.3685	1196.9	318.8
988.5375	2619.6461	1204.45	323.15
988.6622	2620.9229	1193.9	315.5
988.787	2622.199	1196.75	317.15
988.9117	2623.4745	1200.35	319.35
989.0364	2624.7493	1194.25	315.55
989.161	2626.0234	1192.65	313.4
989.2857	2627.2968	1197.9	317.75
989.4102	2628.5695	1199.5	318.4
989.5348	2629.8415	1196.6	316.25
989.6593	2631.1128	1200.35	318.05
989.7837	2632.3835	1198	317.85
989.9082	2633.6535	1197.65	319
990.0326	2634.9228	1197.1	316.05
990.1569	2636.1914	1195.8	316
990.2812	2637.4593	1196	312.3
990.4055	2638.7265	1198.95	317.65
990.5298	2639.9931	1195.85	315.8
990.654	2641.259	1192.15	312.3
990.7782	2642.5242	1193.55	313.25
990.9023	2643.7887	1191.15	309.5
991.0264	2645.0525	1192.8	311.85
991.1505	2646.3156	1193.8	314.45
991.2745	2647.5781	1187.25	310.1
991.3985	2648.8398	1190.85	310.3
991.5225	2650.1009	1190.55	302.85
991.6464	2651.3613	1187.7	308.45
991.7703	2652.6211	1186.55	306.9
991.8942	2653.8801	1186.4	308.25
992.018	2655.1385	1183.95	299.3
992.1418	2656.3961	1186.85	306.25
992.2655	2657.6531	1186.55	307.15
992.3892	2658.9094	1188.7	307.8
992.5129	2660.1651	1191.35	311.9
992.6366	2661.42	1184.9	303.1
992.7602	2662.6743	1188.8	307.6
992.8837	2663.9279	1194.8	315.55
993.0073	2665.1808	1192.9	311.95
993.1307	2666.433	1189.85	309.8
993.2542	2667.6846	1192.35	313.5
993.3776	2668.9354	1196.45	312.55
993.501	2670.1856	1196.85	315.65
993.6244	2671.4351	1202.95	323.3
993.7477	2672.6839	1197	315.7
993.8709	2673.9321	1198	318.1
993.9942	2675.1795	1209.15	330.2
994.1174	2676.4263	1204.05	324.4
994.2405	2677.6724	1202.85	322.3
994.3637	2678.9179	1206.35	327
994.4868	2680.1626	1210.05	330.9
994.6098	2681.4067	1210.65	330.2
994.7328	2682.6501	1206.1	327.1
994.8558	2683.8928	1204.95	324.5
994.9788	2685.1348	1206.35	326.25
995.1017	2686.3761	1195.45	316.5
995.2245	2687.6168	1200.35	320.95
995.3474	2688.8568	1198.95	319.5
995.4702	2690.0961	1193.7	313.9
995.5929	2691.3348	1195.5	314.15
995.7156	2692.5727	1195.55	315
995.8383	2693.81	1193	311.85
995.961	2695.0466	1190.6	310.65
996.0836	2696.2826	1193.25	311.45
996.2062	2697.5178	1193.35	308.35
996.3287	2698.7524	1192.4	312.85
996.4512	2699.9863	1190.75	308.45
996.5737	2701.2195	1192.95	312.95
996.6961	2702.452	1193.2	310.05
996.8185	2703.6839	1199.9	319.95
996.9408	2704.9151	1206.75	328.7
997.0631	2706.1456	1209.35	327.45
997.1854	2707.3755	1208.1	327.5
997.3077	2708.6046	1222.1	339.65
997.4299	2709.8331	1216.9	335.95
997.552	2711.0609	1231.1	349.55
997.6742	2712.2881	1232.25	351.65
997.7963	2713.5145	1240.85	358.65
997.9183	2714.7403	1241.75	362.75
998.0403	2715.9654	1246.35	366.8
998.1623	2717.1899	1275.55	381.6
998.2842	2718.4136	1276.4	396.5
998.4062	2719.6367	1276.25	395.1
998.528	2720.8591	1288.35	399.8
998.6498	2722.0809	1291.65	410.9
998.7716	2723.3019	1310.3	425.85
998.8934	2724.5223	1304.15	423.7
999.0151	2725.7421	1313.65	430.15
999.1368	2726.9611	1313	431.75
999.2584	2728.1795	1308.75	424.6
999.38	2729.3972	1307.15	426.9
999.5016	2730.6142	1304.6	412.9
999.6231	2731.8306	1291.2	411.2
999.7446	2733.0462	1282.7	401.9
999.8661	2734.2612	1268.5	383.05
999.9875	2735.4756	1259.7	377.6
1000.1089	2736.6892	1246.6	366.5
1000.2302	2737.9022	1230.75	349.1
1000.3515	2739.1145	1224.5	342.5
1000.4728	2740.3262	1221.1	331.95
1000.594	2741.5372	1211.4	332
1000.7152	2742.7475	1199.65	319.15
1000.8363	2743.9571	1199.7	317.3
1000.9575	2745.1661	1192.25	307.5
1001.0785	2746.3744	1183.4	301.95
1001.1996	2747.582	1182.1	301.65
1001.3206	2748.7889	1173.55	290.75
1001.4415	2749.9952	1174.9	294.55
1001.5625	2751.2008	1172.15	290.3
1001.6833	2752.4057	1168.8	285.3
1001.8042	2753.61	1163.7	281.8
1001.925	2754.8136	1160.85	279.05
1002.0458	2756.0165	1163.05	283.85
1002.1665	2757.2188	1165.05	286.1
1002.2872	2758.4204	1161.6	279.65
1002.4078	2759.6213	1163.05	283.25
1002.5285	2760.8215	1168.8	283.8
1002.649	2762.0211	1165.9	283.95
1002.7696	2763.22	1157.4	273.4
1002.8901	2764.4182	1160.45	279.55
1003.0106	2765.6158	1148.95	266.8
1003.131	2766.8127	1151.75	271.45
1003.2514	2768.009	1153.95	273.45
1003.3717	2769.2045	1150.55	268.45
1003.492	2770.3994	1145.85	263.3
1003.6123	2771.5936	1149.7	268.35
1003.7325	2772.7872	1145.9	265.25
1003.8527	2773.9801	1146.9	265.05
1003.9729	2775.1723	1156.7	258.55
1004.093	2776.3639	1149.25	269.9
1004.2131	2777.5548	1146.15	263
1004.3331	2778.745	1150.65	267.95
1004.4531	2779.9346	1149.8	269.35
1004.5731	2781.1235	1154.55	274
1004.693	2782.3117	1156.8	278.5
1004.8129	2783.4992	1155.55	275.6
1004.9328	2784.6861	1167.2	287.9
1005.0526	2785.8723	1169.75	287.85
1005.1723	2787.0579	1172.8	289.9
1005.2921	2788.2428	1176.4	297
1005.4118	2789.427	1185.85	304.8
1005.5314	2790.6106	1196.05	314.7
1005.651	2791.7935	1202.85	322.5
1005.7706	2792.9757	1208.3	328.45
1005.8902	2794.1573	1223.05	340.1
1006.0097	2795.3382	1231	352.35
1006.1291	2796.5184	1242	363.2
1006.2485	2797.698	1252.7	370.85
1006.3679	2798.8769	1260.9	381.45
1006.4873	2800.0551	1280.5	398
1006.6066	2801.2327	1291.65	409.15
1006.7258	2802.4096	1302.35	422.8
1006.8451	2803.5859	1322.4	440.85
1006.9642	2804.7615	1335.2	454.95
1007.0834	2805.9364	1355.95	475.7
1007.2025	2807.1106	1367.2	488.35
1007.3216	2808.2842	1395.6	513.75
1007.4406	2809.4572	1419.65	540.45
1007.5596	2810.6294	1442.75	562
1007.6785	2811.801	1457.5	576.7
1007.7975	2812.972	1500.55	621.8
1007.9163	2814.1423	1537.85	658.55
1008.0352	2815.3119	1566.2	684.95
1008.154	2816.4808	1601.6	722.8
1008.2727	2817.6491	1633	753.3
1008.3914	2818.8167	1664.5	783.7
1008.5101	2819.9837	1700.75	815
1008.6288	2821.15	1724.85	843.65
1008.7474	2822.3157	1766.35	886.1
1008.8659	2823.4807	1794.3	913.85
1008.9844	2824.645	1826.95	943.7
1009.1029	2825.8086	1847.05	966.6
1009.2214	2826.9716	1872	992.55
1009.3398	2828.134	1909.45	1029.6
1009.4581	2829.2957	1938.9	1057.7
1009.5764	2830.4567	1948.6	1071.5
1009.6947	2831.617	1964.4	1082.75
1009.813	2832.7767	1964.95	1085.35
1009.9312	2833.9358	1967.75	1088.5
1010.0493	2835.0941	1953.9	1071.25
1010.1675	2836.2519	1958.05	1077.1
1010.2855	2837.4089	1948.35	1066.4
1010.4036	2838.5653	1943.45	1063.55
1010.5216	2839.7211	1938.8	1060.25
1010.6396	2840.8761	1952.8	1068.05
1010.7575	2842.0306	1968.8	1089.9
1010.8754	2843.1843	1997	1118.1
1010.9932	2844.3374	2035.25	1155.2
1011.111	2845.4899	2068.55	1189.4
1011.2288	2846.6417	2123	1243.65
1011.3465	2847.7928	2180.8	1301.9
1011.4642	2848.9433	2230.35	1349.65
1011.5818	2850.0931	2295.05	1415.25
1011.6995	2851.2422	2346.5	1465.05
1011.817	2852.3907	2395.6	1511
1011.9345	2853.5385	2440.85	1559.3
1012.052	2854.6857	2507.5	1601.2
1012.1695	2855.8323	2518.7	1640.95
1012.2869	2856.9781	2548	1669.2
1012.4042	2858.1233	2575	1695.35
1012.5216	2859.2679	2614.7	1735.8
1012.6389	2860.4118	2652.4	1773.3
1012.7561	2861.555	2688.15	1800.95
1012.8733	2862.6976	2711.75	1829.7
1012.9905	2863.8395	2723.15	1841.95
1013.1076	2864.9808	2732.55	1852.6
1013.2247	2866.1214	2747.55	1867.8
1013.3417	2867.2614	2750.1	1867.95
1013.4587	2868.4007	2771.6	1889.8
1013.5757	2869.5393	2769.85	1888.85
1013.6926	2870.6773	2794.35	1911.25
1013.8095	2871.8146	2802.7	1920.8
1013.9263	2872.9513	2801.55	1918.4
1014.0431	2874.0874	2794.8	1915
1014.1599	2875.2227	2791.6	1909.2
1014.2766	2876.3574	2778.75	1899.55
1014.3933	2877.4915	2764.45	1884.65
1014.51	2878.6249	2756.1	1875.35
1014.6266	2879.7577	2732.5	1849.8
1014.7431	2880.8898	2722.45	1832.65
1014.8596	2882.0212	2711.5	1833.55
1014.9761	2883.152	2701.25	1819.45
1015.0925	2884.2821	2696	1815.15
1015.2089	2885.4116	2680.65	1802.6
1015.3253	2886.5405	2699.55	1820.9
1015.4416	2887.6686	2691.65	1811.6
1015.5579	2888.7962	2702.05	1824.4
1015.6741	2889.923	2693.9	1815.15
1015.7903	2891.0493	2699.2	1821
1015.9065	2892.1748	2710	1827.35
1016.0226	2893.2997	2733.5	1853.3
1016.1387	2894.424	2746.6	1866.1
1016.2547	2895.5476	2747.5	1866.9
1016.3707	2896.6706	2768.05	1887.6
1016.4866	2897.7929	2798.4	1920.35
1016.6025	2898.9145	2819.25	1938.45
1016.7184	2900.0355	2842.5	1961.45
1016.8342	2901.1559	2856.7	1976.25
1016.95	2902.2756	2886.05	2005.15
1017.0658	2903.3946	2900.25	2018.45
1017.1815	2904.513	2928.1	2043.95
1017.2971	2905.6308	2940	2059.55
1017.4127	2906.7479	2950.25	2069.85
1017.5283	2907.8643	2970.4	2089.85
1017.6439	2908.9801	2991.05	2110.65
1017.7594	2910.0953	2985.05	2104.4
1017.8748	2911.2098	2981.85	2097.2
1017.9902	2912.3236	2993.9	2106.8
1018.1056	2913.4368	2991.4	2108.65
1018.2209	2914.5494	2956.5	2075.4
1018.3362	2915.6613	2956.55	2070.3
1018.4515	2916.7725	2933.2	2048.45
1018.5667	2917.8831	2914.75	2033.1
1018.6819	2918.9931	2895.3	2013.2
1018.797	2920.1024	2877.85	1996.7
1018.9121	2921.211	2852.55	1972.15
1019.0271	2922.319	2852.5	1971.45
1019.1421	2923.4264	2834.85	1955.5
1019.2571	2924.5331	2815.3	1935.95
1019.372	2925.6391	2804.15	1924.85
1019.4869	2926.7445	2813.3	1934.25
1019.6017	2927.8493	2802.15	1919.75
1019.7165	2928.9534	2794.55	1913.7
1019.8313	2930.0569	2789.45	1905.1
1019.946	2931.1597	2792.9	1911.9
1020.0606	2932.2619	2778.8	1901.45
1020.1753	2933.3634	2770.35	1890.45
1020.2899	2934.4643	2762.65	1874.9
1020.4044	2935.5645	2752.45	1868.05
1020.5189	2936.6641	2731.6	1848.7
1020.6334	2937.763	2700	1820.5
1020.7478	2938.8613	2663.05	1782.4
1020.8622	2939.959	2620.05	1733.8
1020.9765	2941.056	2575.25	1694.1
1021.0908	2942.1523	2513.3	1630
1021.2051	2943.248	2446.1	1566.9
1021.3193	2944.3431	2397	1514.7
1021.4334	2945.4375	2322.2	1442.05
1021.5476	2946.5313	2239.85	1358.5
1021.6617	2947.6244	2164.75	1285.35
1021.7757	2948.7169	2099.25	1217.25
1021.8897	2949.8087	2034.4	1153
1022.0037	2950.8999	1984.85	1105.85
1022.1176	2951.9904	1919.25	1037.65
1022.2315	2953.0803	1863.8	982.3
1022.3453	2954.1696	1821.35	941
1022.4591	2955.2582	1781.65	902.4
1022.5728	2956.3462	1753.75	873.5
1022.6865	2957.4335	1734.1	852.9
1022.8002	2958.5202	1701.25	816.2
1022.9138	2959.6062	1685.25	805.85
1023.0274	2960.6916	1661.75	780.6
1023.141	2961.7764	1658.55	778.8
1023.2545	2962.8605	1644.7	763.45
1023.3679	2963.9439	1644.55	765.4
1023.4813	2965.0267	1632.05	750.2
1023.5947	2966.1089	1648.2	745.9
1023.708	2967.1905	1626.7	746.9
1023.8213	2968.2714	1624	744.9
1023.9346	2969.3516	1622.4	739.3
1024.0478	2970.4312	1631.9	743.85
1024.1609	2971.5102	1617.25	734.9
1024.274	2972.5885	1616.5	736.4
1024.3871	2973.6662	1625.8	742.95
1024.5002	2974.7432	1622.5	743.5
1024.6132	2975.8196	1619.7	738.35
1024.7261	2976.8954	1604.5	724.35
1024.839	2977.9705	1600.95	720.3
1024.9519	2979.045	1589.35	710.85
1025.0647	2980.1188	1585.8	705.2
1025.1775	2981.192	1566.95	689.5
1025.2902	2982.2645	1555	673.7
1025.4029	2983.3364	1535.75	653.9
1025.5156	2984.4077	1521.35	641.05
1025.6282	2985.4783	1496.55	607.7
1025.7407	2986.5483	1471.8	594.3
1025.8532	2987.6177	1450.1	569.5
1025.9657	2988.6864	1423.6	542.45
1026.0782	2989.7545	1394.95	514.6
1026.1906	2990.8219	1384.55	505.45
1026.3029	2991.8887	1353.65	470.4
1026.4152	2992.9548	1338.45	457.6
1026.5275	2994.0204	1316	436.7
1026.6397	2995.0852	1293.55	415.15
1026.7519	2996.1495	1283.4	402.35
1026.864	2997.2131	1258.9	379.95
1026.9761	2998.276	1245.15	365.3
1027.0882	2999.3383	1238.75	358.85
1027.2002	3000.4	1224.05	343.4
1027.3122	3001.4611	1214.2	332.85
1027.4241	3002.5215	1201.65	321.2
1027.536	3003.5812	1193.65	314.95
1027.6478	3004.6404	1187.2	306.85
1027.7596	3005.6989	1181.7	301.1
1027.8714	3006.7567	1177.55	297.75
1027.9831	3007.8139	1189.5	290.75
1028.0947	3008.8705	1166.45	286.3
1028.2064	3009.9264	1169.3	286.3
1028.3179	3010.9818	1164	283.85
1028.4295	3012.0364	1160	278.75
1028.541	3013.0905	1158.5	279
1028.6524	3014.1439	1156.4	277.1
1028.7638	3015.1966	1153.8	274.65
1028.8752	3016.2487	1160.45	282.45
1028.9865	3017.3002	1161.85	277.65
1029.0978	3018.3511	1154.25	274.95
1029.209	3019.4013	1161.65	281
1029.3202	3020.4509	1156.15	274.9
1029.4314	3021.4998	1158.3	277.9
1029.5425	3022.5481	1155.4	275.65
1029.6535	3023.5958	1155.25	276.1
1029.7645	3024.6428	1160.75	280.2
1029.8755	3025.6892	1158.95	277.5
1029.9864	3026.735	1161.8	281.3
1030.0973	3027.7802	1166.5	287.7
1030.2082	3028.8247	1173.1	293.3
1030.319	3029.8685	1170.45	288.85
1030.4297	3030.9118	1177.25	295.45
1030.5404	3031.9544	1171.95	292.1
1030.6511	3032.9963	1182.4	303.05
1030.7617	3034.0376	1184.3	302.75
1030.8723	3035.0783	1186.5	304.35
1030.9829	3036.1184	1191.45	311.25
1031.0934	3037.1578	1191.5	311.55
1031.2038	3038.1966	1188.8	306.4
1031.3142	3039.2348	1192.6	313.7
1031.4246	3040.2723	1204.15	314.65
1031.5349	3041.3092	1199.95	321.25
1031.6452	3042.3455	1190.45	309.4
1031.7554	3043.3811	1193.1	312
1031.8656	3044.4161	1182.45	301.25
1031.9758	3045.4505	1181.7	303.5
1032.0859	3046.4842	1179.05	297.9
1032.1959	3047.5173	1172.4	293.55
1032.3059	3048.5498	1171.8	290.05
1032.4159	3049.5816	1165.7	286.3
1032.5258	3050.6128	1161	280.25
1032.6357	3051.6434	1156.4	275.25
1032.7455	3052.6734	1155.3	274.05
1032.8553	3053.7027	1151.95	273.35
1032.9651	3054.7314	1149.05	270.55
1033.0748	3055.7594	1140.7	261.5
1033.1845	3056.7868	1143.25	262.45
1033.2941	3057.8136	1133.45	255.2
1033.4037	3058.8398	1128.25	249.15
1033.5132	3059.8653	1129.25	249.25
1033.6227	3060.8902	1122.65	242.85
1033.7321	3061.9145	1119.25	239.25
1033.8415	3062.9381	1112.45	233.6
1033.9509	3063.9612	1125.6	229.55
1034.0602	3064.9835	1103.8	224.5
1034.1694	3066.0053	1106.2	226.05
1034.2787	3067.0264	1093.85	214.4
1034.3878	3068.0469	1096.75	215.2
1034.497	3069.0668	1089.15	206.8
1034.6061	3070.086	1082.95	204.95
1034.7151	3071.1046	1080.9	197.95
1034.8241	3072.1226	1068.5	187.25
1034.9331	3073.1399	1065.65	186.8
1035.042	3074.1567	1059.8	178.95
1035.1508	3075.1727	1056.15	175.25
1035.2597	3076.1882	1043.15	162.55
1035.3684	3077.203	1040.85	161.25
1035.4772	3078.2173	1033.85	151.4
1035.5859	3079.2308	1029.65	148
1035.6945	3080.2438	1025.15	141.05
1035.8031	3081.2561	1019.9	138.95
1035.9117	3082.2678	1012.75	131.55
1036.0202	3083.2789	1008.65	127.3
1036.1286	3084.2893	1007.4	128.8
1036.2371	3085.2991	1001.6	120.25
1036.3454	3086.3083	1003.05	119.2
1036.4538	3087.3169	993.15	113.1
1036.562	3088.3248	993.9	112.45
1036.6703	3089.3321	991.45	109.05
1036.7785	3090.3388	981.05	100.85
1036.8866	3091.3449	982.3	102.8
1036.9948	3092.3503	982.3	98.05
1037.1028	3093.3551	975.9	98.9
1037.2108	3094.3593	977.75	97.1
1037.3188	3095.3629	977.8	97.55
1037.4267	3096.3658	973.2	91.95
1037.5346	3097.3681	973.05	94.7
1037.6425	3098.3698	971.4	89.25
1037.7503	3099.3708	974.3	93.3
1037.858	3100.3713	966.7	86.6
1037.9657	3101.3711	965.9	86.3
1038.0734	3102.3702	1082.75	86.25
1038.181	3103.3688	965.25	84.9
1038.2886	3104.3667	962.05	81.5
1038.3961	3105.364	964.15	82.45
1038.5036	3106.3607	963.3	81.55
1038.611	3107.3568	964.1	83.55
1038.7184	3108.3522	958.75	79.75
1038.8257	3109.347	957.95	76.6
1038.933	3110.3412	961.9	78.8
1039.0403	3111.3348	954	73.5
1039.1475	3112.3277	954.15	74.1
1039.2547	3113.32	952.9	73
1039.3618	3114.3117	957.5	75.35
1039.4689	3115.3028	953.25	71.65
1039.5759	3116.2932	953.8	72.55
1039.6829	3117.2831	955.35	70.5
1039.7898	3118.2723	950.45	70.75
1039.8967	3119.2608	947.05	67.45
1040.0035	3120.2488	951.4	71.4
1040.1103	3121.2361	947.75	66.25
1040.2171	3122.2229	948.45	68.3
1040.3238	3123.209	945.7	64.85
1040.4305	3124.1944	950.15	71.35
1040.5371	3125.1793	950.5	69.3
1040.6437	3126.1635	944.85	67.7
1040.7502	3127.1471	946.6	69.2
1040.8567	3128.1301	942.5	62.9
1040.9631	3129.1125	940.8	60.5
1041.0695	3130.0942	941.85	61.85
1041.1759	3131.0753	952.35	64.7
1041.2822	3132.0558	945.5	62.8
1041.3884	3133.0357	941.75	61.7
1041.4946	3134.015	942.5	63.8
1041.6008	3134.9936	939.3	55.1
1041.7069	3135.9716	960.95	59.25
1041.813	3136.949	940.65	61.65
1041.919	3137.9258	954.25	55.45
1042.025	3138.902	942.65	58.25
1042.1309	3139.8775	935.6	57.9
1042.2368	3140.8524	937.45	58.65
1042.3427	3141.8267	937.1	56.8
1042.4485	3142.8004	936.2	57.1
1042.5542	3143.7735	939.65	52.9
1042.6599	3144.7459	933.9	52.9
1042.7656	3145.7178	934.05	52.7
1042.8712	3146.689	930.6	50.85
1042.9768	3147.6596	934.9	51.85
1043.0823	3148.6295	932.9	54.5
1043.1878	3149.5989	931.35	51.65
1043.2932	3150.5676	929.35	53.15
1043.3986	3151.5357	929.55	51.65
1043.5039	3152.5032	926.5	47.9
1043.6092	3153.4701	929.1	48.3
1043.7145	3154.4364	935.55	52.15
1043.8197	3155.402	925.25	47
1043.9248	3156.367	930.45	49.05
1044.03	3157.3315	970.35	46.35
1044.135	3158.2952	929.55	49.15
1044.24	3159.2584	925.85	46.95
1044.345	3160.221	922.7	39.9
1044.4499	3161.1829	923.35	43.7
1044.5548	3162.1442	925.8	44.85
1044.6596	3163.105	925.75	45.55
1044.7644	3164.065	924.3	43.75
1044.8692	3165.0245	927.15	43
1044.9739	3165.9834	923.9	45.4
1045.0785	3166.9416	924.3	44.85
1045.1831	3167.8993	922.7	43.15
1045.2877	3168.8563	923.65	45.2
1045.3922	3169.8127	921.55	41.55
1045.4966	3170.7684	921.7	41.3
1045.6011	3171.7236	923.1	41.65
1045.7054	3172.6782	921	41.9
1045.8098	3173.6321	920.15	41.05
1045.914	3174.5854	924.8	39.55
1046.0183	3175.5381	921.15	41.35
1046.1224	3176.4902	921.05	43
1046.2266	3177.4417	918.5	37.15
1046.3307	3178.3926	919.65	40.25
1046.4347	3179.3428	917.95	38.6
1046.5387	3180.2924	921.05	42.4
1046.6427	3181.2415	917.95	38.05
1046.7466	3182.1899	921.7	42.55
1046.8504	3183.1377	918.7	40.8
1046.9542	3184.0848	921.7	39.8
1047.058	3185.0314	921.25	39.7
1047.1617	3185.9773	916.25	35.65
1047.2654	3186.9227	918.05	37.25
1047.369	3187.8674	918.4	39.35
1047.4726	3188.8115	921.25	38.7
1047.5761	3189.755	916.4	39.45
1047.6796	3190.6979	916.5	37.6
1047.783	3191.6402	914.8	35.6
1047.8864	3192.5818	916.35	35.7
1047.9898	3193.5229	934.9	37.35
1048.0931	3194.4633	916.35	37.6
1048.1963	3195.4031	915.6	33.85
1048.2995	3196.3423	913.9	33.2
1048.4027	3197.2809	914.55	36.6
1048.5058	3198.2189	915.8	34.3
1048.6089	3199.1563	933.45	35.3
1048.7119	3200.0931	914.9	37.05
1048.8148	3201.0292	912.9	32.95
1048.9178	3201.9648	915.65	35.4
1049.0206	3202.8997	915.25	31.95
1049.1235	3203.834	915.45	36.7
1049.2262	3204.7677	915.45	36.45
1049.329	3205.7008	913.65	31.8
1049.4317	3206.6333	913.65	36.7
1049.5343	3207.5652	913.05	31.05
1049.6369	3208.4964	912.15	31.95
1049.7394	3209.4271	910.5	32.6
1049.8419	3210.3571	913.05	33.4
1049.9444	3211.2865	914.2	32.75
1050.0468	3212.2154	909.65	28.85
1050.1491	3213.1436	916.35	33.85
1050.2514	3214.0712	917.2	30.25
1050.3537	3214.9982	911.8	29.75
1050.4559	3215.9246	912.65	32.4
1050.5581	3216.8503	907.55	27.5
1050.6602	3217.7755	911.6	32.25
1050.7623	3218.7001	908.8	29.4
1050.8643	3219.624	909.15	29.7
1050.9663	3220.5473	912	34.4
1051.0682	3221.4701	912.55	31.9
1051.1701	3222.3922	913.45	32.1
1051.2719	3223.3137	911.6	32.45
1051.3737	3224.2346	907.1	25.35
1051.4754	3225.1549	909.45	31.85
1051.5771	3226.0746	908.85	28.2
1051.6788	3226.9937	909.4	29.05
1051.7804	3227.9121	910.85	32.35
1051.8819	3228.83	911.45	32.85
1051.9834	3229.7473	909.8	29.5
1052.0849	3230.6639	907.85	29.05
1052.1863	3231.5799	907.05	28.15
1052.2876	3232.4954	909.5	30.8
1052.3889	3233.4102	904.9	26.9
1052.4902	3234.3244	907.65	28.9
1052.5914	3235.238	908.25	28.9
1052.6926	3236.151	930.7	29.35
1052.7937	3237.0634	908.15	30.4
1052.8948	3237.9752	904.8	24.7
1052.9958	3238.8864	907.4	26.7
1053.0968	3239.797	907.25	27.25
1053.1977	3240.7069	906.6	27.9
1053.2986	3241.6163	907.5	26.9
1053.3994	3242.5251	905.25	25.55
1053.5002	3243.4332	903	23
1053.6009	3244.3408	907.9	24.55
1053.7016	3245.2477	906	27.4
1053.8022	3246.154	905.1	24.15
1053.9028	3247.0598	906.65	25.75
1054.0034	3247.9649	903.05	24.75
1054.1039	3248.8694	905.7	27.35
1054.2043	3249.7733	905.35	27.35
1054.3047	3250.6766	905.7	26.95
1054.4051	3251.5793	905.65	26.1
1054.5054	3252.4814	903.4	25.3
1054.6056	3253.3829	903.05	24.2
1054.7058	3254.2838	902.9	25.7
1054.806	3255.1841	902.05	22.05
1054.9061	3256.0838	903.2	25
1055.0061	3256.9829	902.95	25.15
1055.1062	3257.8814	905.2	22.55
1055.2061	3258.7792	903.35	22.4
1055.306	3259.6765	902.95	20.2
1055.4059	3260.5731	900.9	22.65
1055.5057	3261.4692	901.45	20.7
1055.6055	3262.3647	901.55	22
1055.7052	3263.2595	899.1	19.2
1055.8049	3264.1538	897.4	18.6
1055.9045	3265.0474	900.45	20.8
1056.0041	3265.9404	898.2	18.6
1056.1036	3266.8329	899.2	19.75
1056.2031	3267.7247	909.6	20.4
1056.3025	3268.616	898.7	21.05
1056.4019	3269.5066	895.1	13.2
1056.5013	3270.3966	896.25	13.55
1056.6005	3271.286	895.1	15.85
