Software Version:	3.9.2.0
Unit SN:	10000200
Spectrometer SN:	6960
Date:	3/14/2024 1:00:33 PM
Data Line Index:	25
Spectral Points:	2048
Integration time (ms):	125
Averages:	20
Delay (ms):	30000
Sequence Number:	1
Processing:	dark subtract
Laser Power (mW):	300
Laser Current (mA):	823
Laser Diode Temp (C):	25
Laser Case Temp (C):	27.9
System Temp (C):	27.9
Spectrometer Temp (C):	25.8
CCD Temp (C):	0.007
Secondary Temp (C):	20.011
Heatsink Temp (C):	23.786
CCDPCB Temp (C):	37.674
SecondaryPCB Temp (C):	35.029

Wavelength	RamanShift	Raw Counts	Dark Subtracted
787.061	30.1047	419.55	7.85
787.2016	32.3739	417.3	6.15
787.3422	34.6426	419.35	7.7
787.4828	36.9109	420.75	6.55
787.6235	39.1787	424.1	6.4
787.7642	41.4461	430.1	6.55
787.9049	43.7131	435	8.65
788.0456	45.9796	440.15	11.2
788.1863	48.2456	445.15	11.4
788.3271	50.5112	449.25	11.85
788.4679	52.7764	450	9.45
788.6087	55.0411	452.1	11.2
788.7496	57.3054	459.85	12
788.8904	59.5692	465.25	14.35
789.0313	61.8326	470.5	17.65
789.1722	64.0955	475.35	17.65
789.3132	66.3579	483.05	20.35
789.4541	68.6199	489.3	22.75
789.5951	70.8815	496.3	28.25
789.7361	73.1426	513.7	42.35
789.8771	75.4032	545.1	69.15
790.0181	77.6634	619.5	136.1
790.1592	79.9231	779.3	291.7
790.3003	82.1824	1122.4	626.75
790.4414	84.4412	1696.1	1192.2
790.5825	86.6995	2477.2	1958.85
790.7237	88.9574	3249.1	2719.1
790.8648	91.2148	3782.65	3246.1
791.006	93.4717	4058.75	3516.55
791.1472	95.7282	4132.95	3585.3
791.2885	97.9842	4155.85	3601.85
791.4297	100.2398	4132.25	3576.45
791.571	102.4949	4092.45	3535
791.7123	104.7495	4082.65	3519.65
791.8536	107.0036	4046.35	3484.9
791.9949	109.2573	3987.2	3427.65
792.1363	111.5105	3918.9	3357.05
792.2777	113.7632	3871.1	3305.75
792.4191	116.0154	3798.3	3222.45
792.5605	118.2672	3736.9	3170.6
792.7019	120.5185	3664.4	3094.85
792.8434	122.7693	3608.7	3036.9
792.9849	125.0197	3551.15	2974.15
793.1264	127.2696	3479.65	2901.7
793.2679	129.519	3470.35	2891.95
793.4094	131.7679	3436.85	2856.35
793.551	134.0163	3440	2855.9
793.6926	136.2642	3439.7	2847.4
793.8342	138.5117	3440.55	2846.55
793.9758	140.7587	3392.65	2798.1
794.1175	143.0052	3374.2	2776.3
794.2591	145.2512	3335.1	2733.8
794.4008	147.4967	3294.05	2694.05
794.5425	149.7417	3261.6	2660.5
794.6842	151.9863	3248.05	2641.95
794.826	154.2304	3244.15	2636.65
794.9677	156.4739	3231.2	2616.85
795.1095	158.717	3241.45	2630
795.2513	160.9596	3256.85	2640.2
795.3931	163.2017	3262.8	2641.3
795.535	165.4433	3270.15	2648.5
795.6768	167.6844	3269.55	2646.35
795.8187	169.925	3240.3	2612.1
795.9606	172.1651	3194.35	2561.9
796.1025	174.4047	3161.25	2526.4
796.2445	176.6439	3136.75	2501.55
796.3864	178.8825	3109.15	2471.25
796.5284	181.1206	3105.45	2462.9
796.6704	183.3582	3091.55	2442.2
796.8124	185.5954	3088.9	2441.2
796.9544	187.832	3090.05	2438.2
797.0965	190.0681	3088.05	2435.4
797.2386	192.3037	3104	2448.8
797.3806	194.5388	3089.35	2429
797.5228	196.7734	3089.65	2429.9
797.6649	199.0075	3107	2443.25
797.807	201.2411	3124.75	2457.4
797.9492	203.4742	3135.95	2469.7
798.0914	205.7068	3145.3	2476.25
798.2336	207.9389	3148.05	2478.55
798.3758	210.1704	3182.15	2509.7
798.518	212.4015	3180.25	2504.3
798.6603	214.632	3176.45	2500.3
798.8025	216.862	3180.45	2512.45
798.9448	219.0915	3164.95	2503.75
799.0871	221.3205	3162.55	2505.05
799.2294	223.549	3157.05	2503.9
799.3718	225.777	3162.15	2510.4
799.5141	228.0044	3153.8	2498.1
799.6565	230.2314	3132.7	2479.35
799.7989	232.4578	3128.05	2472.15
799.9413	234.6837	3118.35	2452.65
800.0837	236.909	3112.65	2447
800.2262	239.1339	3118.65	2429.2
800.3687	241.3582	3101.05	2425.5
800.5111	243.582	3118.2	2421.7
800.6536	245.8053	3112.35	2418.55
800.7961	248.0281	3120.45	2430.65
800.9387	250.2503	3116	2425.05
801.0812	252.472	3129.8	2431.25
801.2238	254.6932	3125.4	2425.5
801.3664	256.9139	3125.8	2422.8
801.509	259.134	3137.55	2431.3
801.6516	261.3536	3149.7	2445.85
801.7942	263.5727	3163.3	2457.9
801.9369	265.7912	3188.45	2482.7
802.0795	268.0092	3233.65	2526.45
802.2222	270.2267	3272.6	2563.75
802.3649	272.4436	3299.4	2590.4
802.5076	274.6601	3313.3	2600.2
802.6504	276.8759	3321.5	2611.55
802.7931	279.0913	3332.1	2618.2
802.9359	281.3061	3332.95	2618.65
803.0787	283.5204	3358.75	2640.65
803.2215	285.7341	3366.4	2645.95
803.3643	287.9473	3372.25	2647
803.5071	290.16	3363	2634
803.6499	292.3721	3337.5	2616.35
803.7928	294.5837	3301.3	2578.15
803.9357	296.7947	3275	2553.35
804.0786	299.0052	3276.45	2552
804.2215	301.2152	3264.8	2540.15
804.3644	303.4246	3240.45	2517
804.5074	305.6334	3213.95	2490.3
804.6503	307.8418	3205.75	2479.85
804.7933	310.0495	3192.75	2467
804.9363	312.2568	3153.1	2427.35
805.0793	314.4635	3117.6	2389.9
805.2223	316.6696	3079.05	2349.35
805.3653	318.8752	3059.5	2321.2
805.5084	321.0802	3019.6	2289.75
805.6514	323.2847	3009.65	2275.05
805.7945	325.4887	3012.15	2275.75
805.9376	327.692	3025	2291.25
806.0807	329.8949	3041.5	2307.3
806.2238	332.0972	3061.25	2324.1
806.367	334.2989	3082.3	2339.55
806.5101	336.5001	3066.25	2326.35
806.6533	338.7007	3050.4	2307.7
806.7965	340.9008	3033.35	2288.95
806.9397	343.1003	2979.35	2230.45
807.0829	345.2992	2943.3	2195.8
807.2261	347.4976	2915.35	2166.45
807.3693	349.6955	2884.85	2131.95
807.5126	351.8927	2891.95	2138.95
807.6559	354.0895	2870.55	2110.2
807.7991	356.2856	2865.25	2112
807.9424	358.4812	2846.15	2093.55
808.0857	360.6763	2843.9	2088.45
808.2291	362.8707	2824	2069.4
808.3724	365.0646	2828.65	2070.05
808.5158	367.258	2832.9	2072.75
808.6591	369.4508	2832.9	2068.75
808.8025	371.643	2845.1	2082.75
808.9459	373.8346	2868.35	2099.75
809.0893	376.0257	2887.6	2117.35
809.2327	378.2162	2904.35	2133.1
809.3762	380.4062	2898.45	2124.45
809.5196	382.5956	2882.45	2109.1
809.6631	384.7844	2848.3	2075.75
809.8066	386.9726	2816.65	2044.3
809.9501	389.1603	2796.55	2023.05
810.0936	391.3474	2803.05	1996.45
810.2371	393.5339	2785.75	2014
810.3806	395.7199	2775.1	2006.9
810.5241	397.9052	2789.85	2024.3
810.6677	400.09	2811.5	2044.75
810.8113	402.2743	2835.65	2070.75
810.9548	404.4579	2842.15	2077.6
811.0984	406.641	2876.85	2111.45
811.2421	408.8235	2907	2140.85
811.3857	411.0054	2944.35	2177.35
811.5293	413.1868	3008.25	2236.1
811.673	415.3675	3076.25	2305.2
811.8166	417.5477	3081.8	2308.55
811.9603	419.7273	3008.4	2232.45
812.104	421.9064	2930.2	2144.65
812.2477	424.0848	2874.85	2094.05
812.3914	426.2627	2825.75	2043.9
812.5351	428.4399	2779.25	1994.45
812.6788	430.6166	2741.95	1952.1
812.8226	432.7928	2709.45	1920.65
812.9663	434.9683	2657.35	1869.05
813.1101	437.1432	2642.7	1850.85
813.2539	439.3176	2628.1	1839.75
813.3977	441.4914	2615.9	1824.65
813.5415	443.6645	2615.95	1821
813.6853	445.8371	2613.45	1820.05
813.8291	448.0091	2607.5	1815.6
813.973	450.1806	2600.55	1807.9
814.1168	452.3514	2586.4	1791.2
814.2607	454.5216	2585.4	1784.35
814.4046	456.6913	2568.5	1769.8
814.5485	458.8603	2566.15	1769
814.6924	461.0288	2566.7	1769.35
814.8363	463.1967	2563.2	1768.2
814.9802	465.3639	2565.5	1764.2
815.1241	467.5306	2552.65	1751
815.2681	469.6967	2538.5	1737.85
815.412	471.8622	2538.4	1737.65
815.556	474.0271	2535.55	1735
815.7	476.1914	2527.65	1724.45
815.844	478.3551	2524.5	1724.35
815.988	480.5182	2516.35	1713.8
816.132	482.6807	2537.6	1733.55
816.276	484.8426	2538.05	1734.35
816.4201	487.0039	2559.85	1753.35
816.5641	489.1647	2589.9	1786.95
816.7082	491.3248	2626.55	1822.5
816.8522	493.4843	2632.35	1829.7
816.9963	495.6432	2623.1	1818.1
817.1404	497.8015	2605.1	1794.35
817.2845	499.9592	2564	1757.25
817.4286	502.1163	2534.95	1728.75
817.5727	504.2728	2492.8	1682.6
817.7168	506.4287	2489.95	1682
817.861	508.5839	2465.65	1655.1
818.0051	510.7386	2468.6	1659.55
818.1493	512.8927	2469.7	1652.25
818.2935	515.0461	2471.5	1659.7
818.4377	517.199	2458.35	1648.6
818.5818	519.3512	2496.55	1684.7
818.726	521.5029	2536.45	1721
818.8703	523.6539	2579.8	1765.55
819.0145	525.8043	2582.25	1769.7
819.1587	527.9541	2542.7	1728
819.303	530.1033	2511.1	1696.9
819.4472	532.2519	2467.65	1651.1
819.5915	534.3999	2445.15	1628.5
819.7357	536.5472	2442.05	1625.25
819.88	538.694	2441.7	1625.65
820.0243	540.8401	2454.5	1637.1
820.1686	542.9856	2460.55	1641.3
820.3129	545.1305	2471.35	1650.95
820.4572	547.2748	2477.3	1657.8
820.6016	549.4185	2477.6	1652.85
820.7459	551.5615	2481.45	1659.55
820.8902	553.704	2490.9	1670.9
821.0346	555.8458	2501.45	1680.45
821.1789	557.987	2508.15	1688.7
821.3233	560.1276	2530.8	1709
821.4677	562.2675	2545.1	1724.75
821.6121	564.4069	2595.75	1771.95
821.7565	566.5456	2614.9	1794.7
821.9009	568.6837	2607.8	1785.8
822.0453	570.8212	2564.05	1743.7
822.1897	572.958	2517.25	1692.45
822.3342	575.0942	2479.6	1660.2
822.4786	577.2299	2447.2	1621.8
822.6231	579.3648	2428.8	1607.8
822.7675	581.4992	2391	1566
822.912	583.6329	2406.85	1583.1
823.0565	585.766	2417.15	1591.6
823.201	587.8985	2444.1	1618.9
823.3454	590.0304	2479.15	1642.8
823.4899	592.1616	2489.75	1663.05
823.6345	594.2922	2479.55	1654.3
823.779	596.4222	2443.05	1616.35
823.9235	598.5515	2412.45	1583.8
824.068	600.6802	2376.25	1547.95
824.2126	602.8083	2355.75	1527.95
824.3571	604.9358	2332.65	1502.55
824.5017	607.0626	2329.5	1499.45
824.6462	609.1888	2330.3	1498.05
824.7908	611.3144	2347.9	1517.55
824.9354	613.4393	2376.7	1548.05
825.08	615.5636	2402.95	1571.75
825.2246	617.6873	2416.5	1584.6
825.3692	619.8103	2458.4	1625.1
825.5138	621.9327	2447.6	1613.15
825.6584	624.0544	2427.2	1595.8
825.803	626.1756	2391.35	1562.3
825.9477	628.2961	2352.95	1520.7
826.0923	630.4159	2339.1	1506.65
826.237	632.5351	2326.25	1493.2
826.3816	634.6537	2326	1492.5
826.5263	636.7716	2310.6	1474.9
826.6709	638.8889	2309.65	1475.1
826.8156	641.0056	2320.85	1486.85
826.9603	643.1216	2303.6	1468.25
827.105	645.237	2322.2	1483.45
827.2497	647.3518	2295.45	1459.6
827.3944	649.4659	2289.7	1450.65
827.5391	651.5793	2269.6	1430.85
827.6838	653.6922	2261	1421.85
827.8285	655.8043	2242.25	1403.05
827.9733	657.9159	2243.3	1404.35
828.118	660.0268	2231.1	1389.45
828.2627	662.137	2236.3	1398.75
828.4075	664.2466	2230.2	1388.4
828.5522	666.3556	2233	1392.15
828.697	668.4639	2227.6	1383.4
828.8418	670.5716	2215.95	1373.3
828.9865	672.6786	2217.95	1373.55
829.1313	674.785	2201.55	1358.65
829.2761	676.8907	2210.45	1368.3
829.4209	678.9958	2202.95	1360.95
829.5657	681.1002	2197.4	1356.3
829.7105	683.204	2192.1	1343.95
829.8553	685.3072	2195.25	1349.75
830.0001	687.4097	2193.9	1350.7
830.1449	689.5115	2199.25	1352.65
830.2898	691.6127	2192.3	1349.5
830.4346	693.7132	2188.75	1341.55
830.5794	695.8131	2199.75	1340.2
830.7243	697.9123	2193.05	1347
830.8691	700.0109	2185.7	1339.6
831.014	702.1089	2189.8	1344.4
831.1588	704.2061	2204.8	1359.15
831.3037	706.3028	2208.5	1361.9
831.4486	708.3987	2225.7	1378.2
831.5935	710.4941	2234.55	1389.65
831.7383	712.5887	2234.45	1384.75
831.8832	714.6827	2236.2	1384.4
832.0281	716.7761	2221.35	1376.25
832.173	718.8688	2225.2	1375.85
832.3179	720.9608	2231.15	1381.5
832.4628	723.0522	2240.55	1388.05
832.6077	725.1429	2245.85	1397.3
832.7527	727.233	2272.9	1424.8
832.8976	729.3224	2322.65	1473.25
833.0425	731.4112	2355.1	1501.8
833.1874	733.4993	2353.2	1500.7
833.3324	735.5867	2325.8	1475.45
833.4773	737.6735	2271.25	1419.7
833.6222	739.7596	2240.45	1386.85
833.7672	741.845	2228.25	1373.5
833.9122	743.9298	2216.1	1364.3
834.0571	746.014	2234.35	1385.7
834.2021	748.0974	2244.95	1391.55
834.347	750.1802	2241.8	1388.75
834.492	752.2624	2230.05	1378.25
834.637	754.3439	2205.4	1352.4
834.782	756.4247	2201.25	1340.4
834.9269	758.5048	2193.7	1340.6
835.0719	760.5843	2203.05	1352.5
835.2169	762.6631	2219.7	1365.4
835.3619	764.7413	2255.95	1404.9
835.5069	766.8188	2291.05	1436.3
835.6519	768.8956	2365.5	1509.7
835.7969	770.9718	2379.65	1526.95
835.9419	773.0473	2381	1527.2
836.0869	775.1221	2366	1511.9
836.232	777.1962	2347.85	1493.35
836.377	779.2697	2388.05	1531.5
836.522	781.3426	2460.3	1593.25
836.667	783.4147	2489.25	1632.35
836.8121	785.4862	2474.8	1622.55
836.9571	787.557	2416.45	1561.15
837.1021	789.6271	2328.15	1471.9
837.2472	791.6966	2243.05	1386.05
837.3922	793.7654	2191.55	1335.3
837.5373	795.8335	2147.05	1288.85
837.6823	797.901	2124.6	1268.9
837.8274	799.9678	2115.5	1255.65
837.9724	802.0339	2111.2	1255.45
838.1175	804.0993	2119.55	1253.65
838.2626	806.1641	2102.6	1244.65
838.4076	808.2282	2097.4	1239.1
838.5527	810.2916	2091.25	1230.55
838.6978	812.3544	2069.75	1213.2
838.8428	814.4164	2070.1	1212.85
838.9879	816.4778	2066.1	1206.45
839.133	818.5385	2076.95	1218.9
839.2781	820.5986	2090.2	1231.1
839.4232	822.658	2128.15	1270.05
839.5682	824.7166	2166.2	1308.05
839.7133	826.7747	2228.85	1370.05
839.8584	828.832	2280.5	1421.35
840.0035	830.8886	2325.25	1462.7
840.1486	832.9446	2343.5	1482.15
840.2937	834.9999	2293.1	1437.35
840.4388	837.0545	2256.2	1392.45
840.5839	839.1085	2197.9	1337.35
840.729	841.1618	2154.7	1293.1
840.8741	843.2143	2110.5	1248.4
841.0192	845.2662	2087.85	1226.15
841.1643	847.3175	2079.3	1220.95
841.3095	849.368	2067.85	1206.55
841.4546	851.4179	2063.75	1202.6
841.5997	853.467	2061.45	1201.95
841.7448	855.5155	2064.05	1202.3
841.8899	857.5633	2062.35	1200.85
842.0351	859.6105	2051.95	1190.45
842.1802	861.6569	2053.8	1191.95
842.3253	863.7027	2034.25	1173.5
842.4704	865.7478	2023.05	1161.1
842.6156	867.7922	2016.35	1153.3
842.7607	869.8359	2013.75	1151.15
842.9058	871.8789	2007.5	1143.75
843.0509	873.9212	2038.05	1139.3
843.1961	875.9629	2012.1	1150.2
843.3412	878.0039	2026.05	1161.7
843.4863	880.0441	2031.75	1167.25
843.6315	882.0837	2042	1176.65
843.7766	884.1226	2054.75	1189.55
843.9218	886.1609	2077.6	1215.05
844.0669	888.1984	2108	1242.4
844.212	890.2352	2132.05	1269.05
844.3572	892.2714	2147	1275.3
844.5023	894.3069	2118.7	1254.65
844.6475	896.3416	2088.6	1226.15
844.7926	898.3757	2068.1	1204.55
844.9377	900.4091	2042.85	1175.6
845.0829	902.4418	2050.75	1181.55
845.228	904.4739	2047.3	1180.3
845.3732	906.5052	2061.8	1195.1
845.5183	908.5358	2053.75	1190.35
845.6635	910.5658	2034.35	1167.9
845.8086	912.595	2013.6	1148
845.9538	914.6236	1983.5	1118.1
846.0989	916.6515	1963.2	1098.65
846.2441	918.6786	1944.4	1076.65
846.3892	920.7051	1943.45	1075.45
846.5344	922.7309	1949.8	1084.75
846.6795	924.756	1939.1	1073.4
846.8246	926.7804	1937.6	1069.1
846.9698	928.8041	1950.75	1087.05
847.1149	930.8272	1959.6	1093.15
847.2601	932.8495	1954.65	1087.05
847.4052	934.8711	1972.05	1101.75
847.5504	936.892	1963.95	1095.85
847.6955	938.9123	1978.75	1111.05
847.8407	940.9318	1993.8	1129.6
847.9858	942.9506	2000.9	1132.6
848.131	944.9688	1990.05	1120.7
848.2761	946.9862	1972.4	1105.55
848.4213	949.003	1950.4	1084.05
848.5664	951.019	1931.4	1063.05
848.7115	953.0344	1926.2	1056.5
848.8567	955.0491	1911.3	1041.55
849.0018	957.063	1899.6	1030.25
849.147	959.0763	1905.85	1039.6
849.2921	961.0888	1886.6	1015.75
849.4373	963.1007	1893.25	1024.65
849.5824	965.1119	1907.95	1041.55
849.7275	967.1223	1896.2	1027.4
849.8727	969.1321	1885.65	1015.35
850.0178	971.1412	1891.1	1021.2
850.1629	973.1495	1870.85	999.1
850.3081	975.1572	1901.95	1002.5
850.4532	977.1641	1877.25	1008.2
850.5983	979.1704	1867.6	998.65
850.7435	981.1759	1864.75	992.3
850.8886	983.1808	1859.95	988.25
851.0337	985.1849	1862.35	979.7
851.1788	987.1884	1854.2	983.05
851.324	989.1911	1862	989
851.4691	991.1932	1862.65	991.45
851.6142	993.1945	1864.15	992.05
851.7593	995.1951	1862	989.6
851.9045	997.1951	1854.75	976.55
852.0496	999.1943	1839.4	970.15
852.1947	1001.1928	1840.9	969.6
852.3398	1003.1906	1844.6	976.1
852.4849	1005.1877	1861.9	989.5
852.63	1007.1841	1878.7	1007.25
852.7751	1009.1798	1872.75	1002.65
852.9202	1011.1748	1864.65	995.7
853.0653	1013.1691	1853.35	981.85
853.2104	1015.1627	1823.75	949.95
853.3555	1017.1556	1807.55	938
853.5006	1019.1477	1799.45	927.1
853.6457	1021.1392	1782.95	911.3
853.7908	1023.1299	1781.9	909.9
853.9359	1025.12	1768.75	895
854.081	1027.1093	1772.15	899.9
854.2261	1029.0979	1787.6	916.2
854.3712	1031.0859	1798.1	926.2
854.5163	1033.0731	1797.85	925.35
854.6613	1035.0596	1803.7	932.9
854.8064	1037.0454	1783.15	911.4
854.9515	1039.0304	1784.9	911.85
855.0965	1041.0148	1757.7	886
855.2416	1042.9985	1747.4	874.45
855.3867	1044.9814	1738.7	865.9
855.5317	1046.9636	1741.15	865.2
855.6768	1048.9452	1734.65	862.8
855.8219	1050.926	1755.75	885.85
855.9669	1052.9061	1751.15	880.9
856.112	1054.8855	1756.45	883.7
856.257	1056.8642	1751.2	878.6
856.4021	1058.8421	1757.05	880.05
856.5471	1060.8194	1747.45	874.05
856.6921	1062.7959	1742	869.95
856.8372	1064.7717	1749.9	875.6
856.9822	1066.7469	1740.35	863.95
857.1272	1068.7213	1750.7	874.45
857.2723	1070.695	1751.4	877.85
857.4173	1072.6679	1760.4	886.3
857.5623	1074.6402	1772.6	899.85
857.7073	1076.6117	1780.05	902.05
857.8523	1078.5826	1760.9	887.1
857.9973	1080.5527	1741.25	863.4
858.1423	1082.5221	1714.2	841.3
858.2873	1084.4908	1693.45	820.05
858.4323	1086.4587	1683.4	808.6
858.5773	1088.426	1689.4	814.5
858.7223	1090.3925	1674.55	795.65
858.8673	1092.3584	1684.4	811.15
859.0123	1094.3235	1671.6	800
859.1573	1096.2879	1696.1	823
859.3022	1098.2515	1701.45	827.55
859.4472	1100.2145	1720.4	847.95
859.5922	1102.1767	1745.05	869.1
859.7371	1104.1382	1759.15	884.1
859.8821	1106.099	1800.8	924.1
860.027	1108.0591	1829.4	955.15
860.172	1110.0185	1853.95	977.3
860.3169	1111.9771	1878.95	1006.95
860.4619	1113.9351	1891.1	1015.7
860.6068	1115.8923	1934.7	1058.4
860.7517	1117.8488	1956.2	1077.1
860.8967	1119.8045	1911.55	1036.15
861.0416	1121.7596	1842.5	964.75
861.1865	1123.7139	1790.45	915.2
861.3314	1125.6675	1748.5	874.05
861.4763	1127.6204	1761.65	886.05
861.6212	1129.5726	1761.85	885.05
861.7661	1131.524	1755.2	880.2
861.911	1133.4748	1730.4	853.35
862.0559	1135.4248	1697.6	818.75
862.2008	1137.3741	1659.65	784.95
862.3457	1139.3226	1652.85	776.75
862.4905	1141.2705	1638.4	762.3
862.6354	1143.2176	1654.85	772.8
862.7803	1145.164	1642.35	764.95
862.9251	1147.1097	1640.6	764.5
863.07	1149.0546	1636.5	758.95
863.2148	1150.9989	1614.85	737.85
863.3597	1152.9424	1611.9	733.8
863.5045	1154.8852	1596.4	720.25
863.6493	1156.8272	1583.9	709.25
863.7942	1158.7686	1601.55	718.35
863.939	1160.7092	1595.1	717.1
864.0838	1162.6491	1591.7	713.6
864.2286	1164.5883	1594.95	718.1
864.3734	1166.5267	1605.65	728.45
864.5182	1168.4644	1613.3	737.65
864.663	1170.4014	1644.65	759.7
864.8078	1172.3377	1664.8	789.25
864.9526	1174.2732	1697.2	821.9
865.0974	1176.2081	1754.95	879.05
865.2421	1178.1421	1828.6	948.45
865.3869	1180.0755	1892.75	1016.6
865.5317	1182.0082	1927.3	1050.15
865.6764	1183.9401	1902.35	1022.85
865.8212	1185.8713	1836.6	960.75
865.9659	1187.8017	1761.15	884.35
866.1106	1189.7315	1701.5	823.15
866.2554	1191.6605	1669.45	764.05
866.4001	1193.5888	1629.75	752.65
866.5448	1195.5163	1606.75	730.3
866.6895	1197.4432	1589.05	711.55
866.8342	1199.3693	1569.5	692.4
866.9789	1201.2947	1572.9	688.05
867.1236	1203.2193	1556.25	677.35
867.2683	1205.1432	1566.25	685.35
867.413	1207.0664	1552.6	673.1
867.5576	1208.9889	1554.5	673.7
867.7023	1210.9106	1552.05	675.9
867.847	1212.8316	1548.4	670.75
867.9916	1214.7519	1576.5	689.25
868.1363	1216.6715	1567	690.3
868.2809	1218.5903	1568.95	691.85
868.4255	1220.5084	1574	695.7
868.5701	1222.4257	1589.85	711.5
868.7148	1224.3424	1588.25	709.7
868.8594	1226.2583	1605.3	723.15
869.004	1228.1735	1618.9	740.7
869.1486	1230.0879	1636.15	757.3
869.2932	1232.0016	1673.1	795.8
869.4377	1233.9146	1680.05	800.4
869.5823	1235.8269	1693.45	815.95
869.7269	1237.7384	1697.3	819.05
869.8715	1239.6492	1693.35	815.05
870.016	1241.5592	1710.9	832.65
870.1606	1243.4686	1732.65	853
870.3051	1245.3772	1775.5	896.15
870.4496	1247.285	1834.35	954.8
870.5941	1249.1922	1879.35	999.35
870.7387	1251.0986	1925.25	1048.95
870.8832	1253.0042	1968.9	1088.8
871.0277	1254.9092	2010.05	1129.55
871.1722	1256.8134	2060.3	1182.35
871.3167	1258.7169	2111.15	1231.35
871.4611	1260.6196	2115.55	1237.8
871.6056	1262.5216	2121.15	1241.8
871.7501	1264.4229	2111.9	1233
871.8945	1266.3234	2076.1	1197.95
872.039	1268.2232	2061.35	1180.25
872.1834	1270.1223	2037.9	1156.1
872.3278	1272.0207	2011.7	1132.9
872.4723	1273.9183	2008.6	1120.6
872.6167	1275.8151	1990.2	1114.8
872.7611	1277.7113	2028.65	1147.7
872.9055	1279.6067	2087.45	1206.9
873.0499	1281.5014	2166	1283.65
873.1943	1283.3953	2262.75	1381.45
873.3386	1285.2885	2369.65	1491.45
873.483	1287.181	2447.3	1566.35
873.6274	1289.0727	2473.7	1595
873.7717	1290.9637	2431.65	1549.25
873.9161	1292.854	2380.1	1500.25
874.0604	1294.7435	2318.7	1436.7
874.2047	1296.6323	2264.45	1384.05
874.349	1298.5204	2214.6	1332.35
874.4933	1300.4077	2150.95	1270.2
874.6376	1302.2943	2122.85	1241.8
874.7819	1304.1802	2112.1	1234.25
874.9262	1306.0653	2098.75	1218.1
875.0705	1307.9497	2072.6	1192.35
875.2147	1309.8333	2046.2	1166.3
875.359	1311.7162	2024.8	1145.2
875.5032	1313.5984	2003.1	1119.95
875.6475	1315.4798	2003.9	1114.55
875.7917	1317.3605	1986.65	1102.75
875.9359	1319.2405	1988.5	1104.95
876.0801	1321.1197	1958.5	1076.5
876.2243	1322.9982	1927.85	1043.25
876.3685	1324.876	1881.5	1001.85
876.5127	1326.753	1816.25	933.45
876.6569	1328.6293	1766.3	884.4
876.801	1330.5048	1718.95	836.4
876.9452	1332.3796	1669	789.05
877.0893	1334.2537	1669.6	762.6
877.2335	1336.127	1630.4	749
877.3776	1337.9996	1612.3	732.1
877.5217	1339.8714	1597.65	716.25
877.6658	1341.7426	1625.6	701.8
877.8099	1343.6129	1582.25	702
877.954	1345.4826	1568.35	687.55
878.0981	1347.3515	1563.65	682.6
878.2422	1349.2196	1543.85	662.2
878.3862	1351.087	1550.3	671.45
878.5303	1352.9537	1548.35	666.95
878.6743	1354.8197	1547.7	665
878.8184	1356.6849	1548.5	668.8
878.9624	1358.5493	1560.25	677.3
879.1064	1360.4131	1580.45	700.05
879.2504	1362.276	1597.55	716.5
879.3944	1364.1383	1615.6	732.9
879.5384	1365.9998	1632.95	746.55
879.6823	1367.8606	1615.25	733.5
879.8263	1369.7206	1604.75	723.6
879.9702	1371.5799	1612.65	728.15
880.1142	1373.4384	1598.65	716.75
880.2581	1375.2962	1583.95	701.8
880.402	1377.1533	1553.95	672.3
880.5459	1379.0096	1524.85	641.1
880.6898	1380.8652	1497.1	617.05
880.8337	1382.7201	1483.6	602.95
880.9776	1384.5742	1468.65	588.75
881.1215	1386.4275	1449.65	567.45
881.2653	1388.2802	1436.65	554.65
881.4092	1390.132	1435.8	553.1
881.553	1391.9832	1431.55	549.85
881.6968	1393.8336	1419.2	536.9
881.8406	1395.6832	1417	533.25
881.9844	1397.5322	1412.7	531.15
882.1282	1399.3803	1409.6	522.5
882.272	1401.2278	1396.75	513.7
882.4158	1403.0745	1395.8	513.75
882.5595	1404.9204	1385.1	504.5
882.7033	1406.7656	1381.8	499.35
882.847	1408.6101	1376.7	496.15
882.9908	1410.4538	1373.25	491.6
883.1345	1412.2968	1384.15	502.55
883.2782	1414.139	1387.7	504.15
883.4219	1415.9805	1382.8	500.95
883.5656	1417.8213	1392.9	504.4
883.7092	1419.6613	1389.35	509.35
883.8529	1421.5006	1408	526.9
883.9965	1423.3391	1434.75	550.95
884.1402	1425.1769	1461.5	578.55
884.2838	1427.0139	1501.05	617.2
884.4274	1428.8502	1551.75	669.2
884.571	1430.6858	1588.6	706.2
884.7146	1432.5206	1604.05	722.25
884.8582	1434.3547	1599.4	714.3
885.0018	1436.188	1589.2	707.55
885.1453	1438.0206	1575.45	690.35
885.2889	1439.8524	1570.85	688.35
885.4324	1441.6835	1571.75	688.7
885.5759	1443.5139	1572.6	686.4
885.7194	1445.3435	1573.05	689.65
885.8629	1447.1724	1566.6	684.8
886.0064	1449.0005	1572.75	690.75
886.1499	1450.8279	1559.35	675.35
886.2933	1452.6545	1552.7	671.75
886.4368	1454.4804	1561.8	680.35
886.5802	1456.3056	1554.65	664.75
886.7237	1458.13	1542.6	662.15
886.8671	1459.9536	1527.95	644.1
887.0105	1461.7766	1505.9	623.75
887.1539	1463.5987	1484.55	601.7
887.2972	1465.4202	1456.1	573.35
887.4406	1467.2409	1434.75	551.1
887.584	1469.0608	1413.3	529.85
887.7273	1470.88	1393.9	511.05
887.8706	1472.6984	1381.35	500
888.0139	1474.5161	1368.95	483.95
888.1572	1476.3331	1361.9	480.15
888.3005	1478.1493	1354.5	470.95
888.4438	1479.9648	1351.5	468.8
888.5871	1481.7795	1348.15	467.25
888.7303	1483.5935	1344.5	462.5
888.8736	1485.4067	1350.2	469.65
889.0168	1487.2192	1348.65	464.65
889.16	1489.031	1350.35	465.4
889.3032	1490.842	1347.85	466.05
889.4464	1492.6522	1343.7	462.15
889.5896	1494.4618	1347.15	464.95
889.7327	1496.2705	1336.7	455.6
889.8759	1498.0785	1330.1	447.5
890.019	1499.8858	1331.6	447.05
890.1622	1501.6924	1327.75	446.05
890.3053	1503.4981	1318.35	436.55
890.4484	1505.3032	1313.8	432.35
890.5914	1507.1075	1311.85	428.25
890.7345	1508.911	1303.3	422.5
890.8776	1510.7138	1305	421.05
891.0206	1512.5159	1301.35	420.05
891.1637	1514.3172	1294.95	410.75
891.3067	1516.1178	1293.1	412.35
891.4497	1517.9176	1290.75	406.65
891.5927	1519.7166	1287.5	407.1
891.7357	1521.515	1289	398.9
891.8786	1523.3126	1278.95	395.2
892.0216	1525.1094	1275.65	391.3
892.1645	1526.9055	1270.55	388.4
892.3074	1528.7008	1269.95	386.65
892.4503	1530.4954	1270.15	379.85
892.5932	1532.2893	1257.55	378.75
892.7361	1534.0824	1267.5	379.15
892.879	1535.8747	1261.9	377.95
893.0218	1537.6663	1256.15	373.6
893.1647	1539.4572	1254.75	371.85
893.3075	1541.2473	1255.3	370.3
893.4503	1543.0367	1250.1	367.55
893.5931	1544.8253	1253.7	365.3
893.7359	1546.6132	1257.4	372.45
893.8787	1548.4003	1263.7	371
894.0214	1550.1867	1272.1	381.75
894.1642	1551.9723	1269.85	382.2
894.3069	1553.7572	1266.55	382.4
894.4496	1555.5414	1280.45	397.7
894.5923	1557.3247	1296.1	411.75
894.735	1559.1074	1315.55	432.95
894.8777	1560.8893	1334.5	453.55
895.0204	1562.6705	1354.65	469.8
895.163	1564.4509	1365.4	481.9
895.3056	1566.2305	1372.2	489.8
895.4482	1568.0094	1367.4	485.2
895.5908	1569.7876	1369.8	486.25
895.7334	1571.565	1365.4	483.25
895.876	1573.3417	1357.3	475.3
896.0186	1575.1176	1371.35	489.6
896.1611	1576.8928	1372.05	487.4
896.3036	1578.6672	1380.9	498.95
896.4461	1580.4409	1395.35	513.85
896.5886	1582.2138	1419.15	534.65
896.7311	1583.986	1428.95	542.15
896.8736	1585.7575	1451.6	568.4
897.0161	1587.5282	1467	583.65
897.1585	1589.2981	1475.15	593.25
897.3009	1591.0673	1483.25	601.55
897.4433	1592.8358	1481.35	599
897.5857	1594.6035	1491.45	605.85
897.7281	1596.3704	1481.2	597.45
897.8705	1598.1366	1475.7	593.45
898.0128	1599.9021	1460.85	579.35
898.1551	1601.6668	1445.5	560.1
898.2975	1603.4308	1444.25	560.7
898.4398	1605.194	1445.7	560.25
898.5821	1606.9564	1459.6	575.9
898.7243	1608.7182	1486	601.35
898.8666	1610.4791	1523.1	637.9
899.0088	1612.2394	1575.6	694.2
899.1511	1613.9988	1624.45	741.15
899.2933	1615.7576	1660.65	776.95
899.4355	1617.5156	1676.4	787.2
899.5776	1619.2728	1642.25	758
899.7198	1621.0293	1596.85	716
899.862	1622.785	1537.45	649.9
900.0041	1624.54	1473.15	585.6
900.1462	1626.2942	1409.7	525.65
900.2883	1628.0477	1366.45	477.9
900.4304	1629.8005	1328.45	440.95
900.5725	1631.5525	1293.65	410.65
900.7145	1633.3037	1270.45	386.55
900.8566	1635.0542	1246.15	365.15
900.9986	1636.804	1228.65	344.7
901.1406	1638.553	1284.7	328.85
901.2826	1640.3013	1206.5	323.35
901.4245	1642.0488	1194.75	307.6
901.5665	1643.7955	1185.95	305
901.7085	1645.5416	1180.9	296.4
901.8504	1647.2868	1170.55	287.6
901.9923	1649.0313	1167.25	284.25
902.1342	1650.7751	1166.75	278.3
902.2761	1652.5181	1169.45	288.95
902.4179	1654.2604	1167.3	282.45
902.5598	1656.0019	1163.95	281.5
902.7016	1657.7427	1171.55	290.3
902.8434	1659.4828	1179.4	297.65
902.9852	1661.222	1194.35	311.45
903.127	1662.9606	1210.4	328.7
903.2687	1664.6984	1220.65	335.55
903.4105	1666.4354	1226.35	342.2
903.5522	1668.1717	1210.9	328.95
903.6939	1669.9072	1188.25	305.55
903.8356	1671.642	1170.1	284
903.9773	1673.3761	1149.8	268.8
904.119	1675.1094	1133.65	251.95
904.2606	1676.8419	1128	244
904.4022	1678.5737	1118.9	235.55
904.5439	1680.3048	1109.7	227.7
904.6855	1682.0351	1109.95	226.3
904.827	1683.7646	1117.25	232.5
904.9686	1685.4934	1104.75	222.5
905.1101	1687.2215	1103.05	217.95
905.2517	1688.9488	1094.95	212.35
905.3932	1690.6754	1093.45	210.05
905.5347	1692.4012	1096.1	213.4
905.6761	1694.1263	1092.6	208.95
905.8176	1695.8506	1090.55	208
905.9591	1697.5742	1090.65	207.7
906.1005	1699.297	1085	202.2
906.2419	1701.0191	1087.95	203.55
906.3833	1702.7404	1083.75	199.3
906.5246	1704.461	1085.8	202.4
906.666	1706.1808	1081.5	197.25
906.8073	1707.8999	1078.85	193.85
906.9487	1709.6182	1076.25	192.75
907.09	1711.3358	1077.35	193.7
907.2313	1713.0527	1072.35	189.85
907.3725	1714.7688	1082	192.55
907.5138	1716.4841	1078.7	194.4
907.655	1718.1987	1081.25	192.05
907.7962	1719.9126	1067.55	185.3
907.9374	1721.6257	1070.6	186.1
908.0786	1723.338	1072.95	188.75
908.2198	1725.0496	1069.25	184.25
908.3609	1726.7605	1071	185.75
908.502	1728.4706	1070.25	186.75
908.6431	1730.18	1069.55	183.2
908.7842	1731.8886	1069.85	187.45
908.9253	1733.5964	1075.35	186.95
909.0664	1735.3036	1067.85	182.75
909.2074	1737.0099	1064.9	180.85
909.3484	1738.7156	1063.85	180.7
909.4894	1740.4204	1066.75	179.7
909.6304	1742.1246	1066.05	181.1
909.7714	1743.8279	1064.35	182.4
909.9123	1745.5306	1066.85	183.6
910.0532	1747.2325	1065.1	183.05
910.1941	1748.9336	1063.4	181.9
910.335	1750.634	1065.65	181.75
910.4759	1752.3336	1058.65	175.3
910.6168	1754.0325	1064.4	182
910.7576	1755.7307	1063.8	179.75
910.8984	1757.4281	1060.25	176.45
911.0392	1759.1247	1070.8	178.8
911.18	1760.8206	1065.25	177.1
911.3208	1762.5158	1066.7	180.6
911.4615	1764.2102	1058.35	174.85
911.6022	1765.9039	1056.35	173.25
911.7429	1767.5968	1059.75	174.3
911.8836	1769.289	1055.8	173.8
912.0243	1770.9804	1058.95	174.35
912.1649	1772.6711	1058.05	175.8
912.3056	1774.361	1055.75	173.15
912.4462	1776.0502	1054.35	170.8
912.5868	1777.7386	1061.2	173
912.7274	1779.4263	1058.6	173.55
912.8679	1781.1132	1053.9	169.2
913.0084	1782.7994	1056.1	169.6
913.149	1784.4849	1055.8	172.45
913.2895	1786.1696	1074.25	170.75
913.4299	1787.8535	1054.75	172.7
913.5704	1789.5367	1051.9	169.55
913.7108	1791.2192	1052.3	169.8
913.8513	1792.9009	1064.55	165.7
913.9917	1794.5818	1051.5	168.55
914.132	1796.2621	1051.35	168.25
914.2724	1797.9415	1046.55	162.75
914.4128	1799.6202	1051.05	168.2
914.5531	1801.2982	1049.75	166.55
914.6934	1802.9755	1050.9	165.85
914.8337	1804.6519	1051.6	167.55
914.9739	1806.3277	1047.8	163.5
915.1142	1808.0027	1049.45	166.5
915.2544	1809.6769	1045.65	163.65
915.3946	1811.3504	1041.6	157.1
915.5348	1813.0231	1043.8	161.8
915.675	1814.6951	1046.1	161.6
915.8151	1816.3664	1047.6	163.05
915.9553	1818.0369	1040.85	158.75
916.0954	1819.7067	1039.75	156.8
916.2355	1821.3757	1043.15	158.1
916.3755	1823.044	1042.55	158.95
916.5156	1824.7115	1042.8	157.35
916.6556	1826.3783	1039.55	158.5
916.7956	1828.0443	1037.7	153.05
916.9356	1829.7096	1043.25	160.85
917.0756	1831.3741	1045.2	159.8
917.2155	1833.0379	1041	157.95
917.3555	1834.701	1038.95	151.1
917.4954	1836.3633	1039.1	152.85
917.6353	1838.0248	1038.15	152.35
917.7751	1839.6856	1037.15	152.5
917.915	1841.3457	1039.55	155.85
918.0548	1843.005	1035.75	153.35
918.1946	1844.6636	1039.15	155.55
918.3344	1846.3214	1038.6	156.45
918.4742	1847.9785	1037.05	152
918.6139	1849.6349	1037.4	152.45
918.7537	1851.2904	1043.4	151.45
918.8934	1852.9453	1033.3	149.75
919.0331	1854.5994	1038.4	154.8
919.1727	1856.2528	1038.45	149.95
919.3124	1857.9054	1035.25	151.05
919.452	1859.5572	1032.7	151.25
919.5916	1861.2083	1036	150
919.7312	1862.8587	1031.9	147.9
919.8708	1864.5084	1035	149.55
920.0103	1866.1572	1029.4	144.9
920.1498	1867.8054	1031.2	147.65
920.2893	1869.4528	1033.25	150.2
920.4288	1871.0994	1030.85	146.95
920.5683	1872.7453	1033.5	150.75
920.7077	1874.3905	1046	143.15
920.8471	1876.0349	1031.25	148.25
920.9865	1877.6786	1026.35	141.65
921.1259	1879.3215	1027.9	144.8
921.2653	1880.9637	1032.15	148
921.4046	1882.6051	1027.4	145.2
921.5439	1884.2458	1030.25	145.25
921.6832	1885.8858	1029.35	144
921.8225	1887.525	1028.9	143.4
921.9617	1889.1634	1023.35	139.6
922.101	1890.8011	1028.05	145.2
922.2402	1892.4381	1028.7	147.1
922.3794	1894.0743	1021.7	140.3
922.5185	1895.7098	1020.4	135.95
922.6577	1897.3446	1024.15	142.4
922.7968	1898.9786	1026.3	138.35
922.9359	1900.6118	1022.65	140.7
923.075	1902.2443	1021.4	136.95
923.214	1903.8761	1025.1	142.7
923.3531	1905.5071	1024	140.2
923.4921	1907.1374	1023.95	139.55
923.6311	1908.7669	1023.35	139.35
923.77	1910.3957	1019.85	135.9
923.909	1912.0237	1017.35	134.3
924.0479	1913.651	1020.35	134.15
924.1868	1915.2776	1021.15	138.7
924.3257	1916.9034	1016.6	133.5
924.4646	1918.5285	1018.1	135.3
924.6034	1920.1528	1020	137.7
924.7422	1921.7764	1016.65	133.3
924.881	1923.3992	1014.65	131.6
925.0198	1925.0213	1017.4	135.5
925.1586	1926.6427	1018.75	136.1
925.2973	1928.2633	1122.8	130.4
925.436	1929.8832	1018.8	134.7
925.5747	1931.5023	1015.25	131.2
925.7134	1933.1207	1017.1	134.45
925.852	1934.7383	1016.15	132.05
925.9906	1936.3552	1014.2	130.9
926.1292	1937.9714	1014.45	129.7
926.2678	1939.5868	1011.6	125.05
926.4064	1941.2015	1014.35	129.4
926.5449	1942.8154	1014.25	130.6
926.6834	1944.4286	1013	128.85
926.8219	1946.041	1034.1	127.1
926.9604	1947.6528	1016.3	124.7
927.0988	1949.2637	1011.2	127
927.2372	1950.8739	1011.15	128.8
927.3756	1952.4834	1010.65	126.35
927.514	1954.0921	1011.7	129.5
927.6523	1955.7001	1016.5	129.55
927.7907	1957.3074	1010.4	127.6
927.929	1958.9139	1011.95	129.4
928.0673	1960.5197	1009.8	123.35
928.2055	1962.1247	1010.4	125.45
928.3438	1963.729	1008.7	125.9
928.482	1965.3325	1033.55	125
928.6202	1966.9353	1007.5	123.6
928.7584	1968.5374	1009.3	122.85
928.8965	1970.1387	1008.85	124.4
929.0346	1971.7393	1009	125.7
929.1727	1973.3392	1006.75	123.9
929.3108	1974.9383	1006.65	124.55
929.4489	1976.5366	1005.35	120.2
929.5869	1978.1342	1005.25	121.6
929.7249	1979.7311	1006.7	122.3
929.8629	1981.3273	1006.1	120.45
930.0009	1982.9227	1006.45	121.15
930.1388	1984.5173	1004.2	120.7
930.2767	1986.1112	1002.3	118.2
930.4146	1987.7044	1004.55	120.45
930.5525	1989.2968	1004.75	119.95
930.6904	1990.8885	1003.75	118.25
930.8282	1992.4795	1006.55	122
930.966	1994.0697	1002.7	118.7
931.1038	1995.6592	1005.4	120.5
931.2415	1997.2479	1003.25	118.8
931.3793	1998.8359	1004.95	121.6
931.517	2000.4232	1002	117.05
931.6547	2002.0097	1000.65	119.7
931.7923	2003.5955	1003.2	117.9
931.93	2005.1805	1001.2	117.3
932.0676	2006.7648	1002.35	120
932.2052	2008.3484	1005.35	119.85
932.3427	2009.9312	1002.75	117.05
932.4803	2011.5133	999	116.55
932.6178	2013.0946	1002.9	119.2
932.7553	2014.6752	1002.3	122.3
932.8928	2016.2551	1001.8	116.6
933.0302	2017.8342	1002.35	119.9
933.1676	2019.4126	998.8	113.9
933.305	2020.9902	1002.55	119.85
933.4424	2022.5672	1004.3	121.05
933.5798	2024.1433	1004.4	114.55
933.7171	2025.7188	999	116.45
933.8544	2027.2935	1002.35	118.75
933.9917	2028.8674	1001.7	117.3
934.129	2030.4406	996.85	113.9
934.2662	2032.0131	997.55	112.5
934.4034	2033.5849	1005.65	116.15
934.5406	2035.1559	997.9	113.35
934.6778	2036.7261	1003.9	120.85
934.8149	2038.2957	998.75	115.6
934.952	2039.8645	1001.45	117.75
935.0891	2041.4325	996.4	109.7
935.2262	2042.9998	996.1	112.5
935.3632	2044.5664	999.7	113.9
935.5002	2046.1323	1000.2	118.95
935.6372	2047.6974	1000.1	116.05
935.7742	2049.2617	998.1	114.95
935.9111	2050.8254	1020.2	115.05
936.048	2052.3883	999.5	113.55
936.1849	2053.9504	1000.6	115.95
936.3218	2055.5118	999.3	115.85
936.4586	2057.0725	998.6	112.05
936.5955	2058.6325	999	115.45
936.7323	2060.1917	996.7	114.15
936.869	2061.7502	999.4	113.4
937.0058	2063.3079	993.75	111.75
937.1425	2064.8649	1000.2	111.65
937.2792	2066.4212	998.65	115.45
937.4159	2067.9767	997.4	115.1
937.5525	2069.5315	998.45	116.5
937.6891	2071.0856	997.55	113.35
937.8257	2072.6389	994.6	108.6
937.9623	2074.1915	994.45	113.7
938.0989	2075.7433	996.9	110.8
938.2354	2077.2945	996.8	113.9
938.3719	2078.8448	997.5	113.6
938.5084	2080.3945	995.4	111.05
938.6448	2081.9434	994.5	112.9
938.7812	2083.4916	1000.1	115.45
938.9176	2085.039	995.3	110.4
939.054	2086.5857	994.65	107.85
939.1903	2088.1317	993.75	108.5
939.3267	2089.677	993.3	108.3
939.463	2091.2215	991.95	109.25
939.5992	2092.7652	995.6	109.45
939.7355	2094.3083	991.8	108.45
939.8717	2095.8506	992	107.9
940.0079	2097.3921	991.3	109.25
940.1441	2098.933	994.35	111.9
940.2802	2100.4731	998.8	115.1
940.4163	2102.0124	1015.95	114.8
940.5524	2103.5511	991.9	108.3
940.6885	2105.089	994.55	111.95
940.8245	2106.6261	992.35	108.7
940.9606	2108.1626	993.8	109.35
941.0965	2109.6983	1020.9	109.55
941.2325	2111.2332	999.35	115.1
941.3684	2112.7675	998.8	116.65
941.5044	2114.301	994.45	109.2
941.6403	2115.8337	997.3	112.6
941.7761	2117.3657	992.55	110.5
941.912	2118.897	991.3	107.9
942.0478	2120.4276	999.15	110.25
942.1835	2121.9575	994.95	111.05
942.3193	2123.4866	1006.35	107.95
942.455	2125.0149	996.9	112.85
942.5907	2126.5426	995.8	112.5
942.7264	2128.0695	993.75	104.9
942.8621	2129.5956	991.5	108.4
942.9977	2131.1211	997.2	108.4
943.1333	2132.6458	993.05	111.9
943.2689	2134.1698	992.5	107.9
943.4044	2135.693	995.5	110.2
943.54	2137.2155	996.35	112.15
943.6755	2138.7373	986.6	102.8
943.8109	2140.2584	991.8	109.4
943.9464	2141.7787	999.2	111.9
944.0818	2143.2983	993.75	110.75
944.2172	2144.8171	987.85	106.1
944.3526	2146.3353	991.3	103.45
944.4879	2147.8527	992.9	111
944.6232	2149.3693	990.55	107.2
944.7585	2150.8853	991.1	107.75
944.8938	2152.4005	991.15	108.15
945.029	2153.9149	988.75	103.5
945.1642	2155.4287	990.1	106.25
945.2994	2156.9417	992.7	107.75
945.4346	2158.454	994.7	107.45
945.5697	2159.9655	989.05	106.9
945.7048	2161.4764	987.95	105
945.8399	2162.9865	991.1	106
945.9749	2164.4958	992.1	106.25
946.1099	2166.0045	994.55	108.85
946.2449	2167.5124	991.1	107.75
946.3799	2169.0195	990.15	105.3
946.5148	2170.526	991.35	107.6
946.6498	2172.0317	985.65	101.9
946.7846	2173.5367	987.9	102.7
946.9195	2175.0409	989.25	107.25
947.0543	2176.5445	984.65	101.4
947.1891	2178.0473	984	100.45
947.3239	2179.5494	989.95	102.3
947.4587	2181.0507	988.2	102.45
947.5934	2182.5513	988.55	104.6
947.7281	2184.0512	988.45	105.35
947.8628	2185.5504	982.2	98.8
947.9974	2187.0488	991.45	109.15
948.132	2188.5465	985.7	105.1
948.2666	2190.0435	987.8	103.75
948.4012	2191.5397	987.2	104.05
948.5357	2193.0353	985.6	103.05
948.6702	2194.5301	988.35	103.75
948.8047	2196.0241	987.85	103.35
948.9392	2197.5175	985.2	103.7
949.0736	2199.0101	990.6	103.7
949.208	2200.502	984.6	103.4
949.3424	2201.9931	982.1	96.5
949.4767	2203.4835	989.7	104.35
949.611	2204.9733	992.55	103.25
949.7453	2206.4622	984.1	102.15
949.8796	2207.9505	992.6	104.95
950.0138	2209.438	983.2	101.4
950.148	2210.9248	986.85	101.85
950.2822	2212.4109	981.5	98.55
950.4164	2213.8962	986.1	100.9
950.5505	2215.3809	985.45	101.4
950.6846	2216.8648	984.55	100.5
950.8186	2218.3479	983.55	96.25
950.9527	2219.8304	982.35	96.95
951.0867	2221.3121	983.55	97.9
951.2207	2222.7931	981.5	98.65
951.3546	2224.2733	981.85	99
951.4886	2225.7529	980.9	95.85
951.6225	2227.2317	980.75	95.8
951.7563	2228.7098	981.95	96.3
951.8902	2230.1872	978.75	95.3
952.024	2231.6638	982.05	98.6
952.1578	2233.1397	983.15	94.9
952.2916	2234.6149	980.8	97.85
952.4253	2236.0894	977.9	94.3
952.559	2237.5632	990.65	96
952.6927	2239.0362	978.55	96.55
952.8263	2240.5085	977	91.9
952.9599	2241.9801	980.3	95.25
953.0935	2243.4509	977.8	95.95
953.2271	2244.921	976.35	93
953.3606	2246.3904	981.95	97.2
953.4941	2247.8591	978.3	97.15
953.6276	2249.3271	974	92.35
953.7611	2250.7943	974.25	90
953.8945	2252.2608	975.65	94.35
954.0279	2253.7266	975	90.7
954.1612	2255.1917	974.4	90.7
954.2946	2256.656	978.75	93.15
954.4279	2258.1197	976.75	93.65
954.5612	2259.5826	979.05	93.4
954.6944	2261.0447	974.7	89.55
954.8276	2262.5062	978.65	93.9
954.9608	2263.9669	973.8	88.75
955.094	2265.4269	971.5	89.65
955.2271	2266.8862	973.3	89.6
955.3602	2268.3448	972.3	88.1
955.4933	2269.8026	973.95	88.9
955.6264	2271.2598	972.2	89.6
955.7594	2272.7162	974.1	92.9
955.8924	2274.1719	974.25	89.75
956.0253	2275.6268	970	86.75
956.1583	2277.0811	970.3	88.8
956.2912	2278.5346	969.75	88.85
956.4241	2279.9874	970	86.45
956.5569	2281.4395	972.7	91.15
956.6897	2282.8908	978.1	89.35
956.8225	2284.3414	974.45	88.5
956.9553	2285.7914	969.3	86.1
957.088	2287.2406	975.7	91
957.2207	2288.689	969.2	85.7
957.3534	2290.1368	970.65	87.05
957.486	2291.5838	972.85	88.05
957.6186	2293.0302	968.8	85.35
957.7512	2294.4758	971.25	87.85
957.8838	2295.9206	973.4	87.45
958.0163	2297.3648	971.2	87.55
958.1488	2298.8082	969.3	84.85
958.2813	2300.251	971.15	89.8
958.4137	2301.693	969.45	84.15
958.5461	2303.1343	970.8	86.75
958.6785	2304.5748	970.6	87
958.8108	2306.0147	968.1	83.05
958.9432	2307.4538	969	83.85
959.0754	2308.8922	964.1	83.9
959.2077	2310.3299	968.3	84.45
959.3399	2311.7669	968.65	85.65
959.4721	2313.2031	967.05	82.8
959.6043	2314.6387	968.65	85.65
959.7365	2316.0735	965.05	82.1
959.8686	2317.5076	965.05	82.5
960.0006	2318.941	967.2	83.35
960.1327	2320.3737	968.5	85.4
960.2647	2321.8056	967.35	81.95
960.3967	2323.2369	967	82.5
960.5287	2324.6674	968.55	82.9
960.6606	2326.0972	976.6	90.75
960.7925	2327.5263	971.85	90.6
960.9244	2328.9547	971.95	87.9
961.0562	2330.3823	971.1	86.05
961.1881	2331.8092	973.35	87.4
961.3198	2333.2355	967.95	84.1
961.4516	2334.661	965	81.95
961.5833	2336.0858	967.7	81.65
961.715	2337.5098	966.4	83.35
961.8467	2338.9332	966.85	80.95
961.9783	2340.3558	969.2	81.95
962.1099	2341.7778	966.25	82.8
962.2415	2343.199	963.55	78
962.373	2344.6195	965.3	82.15
962.5045	2346.0393	963.95	79.8
962.636	2347.4583	962.9	79.3
962.7675	2348.8767	964.8	79.2
962.8989	2350.2943	963.3	79.55
963.0303	2351.7113	961.95	76.1
963.1617	2353.1275	962.3	78.95
963.293	2354.543	967.2	74.95
963.4243	2355.9578	962.7	79.15
963.5556	2357.3718	958.75	75.9
963.6868	2358.7852	962.55	75.85
963.818	2360.1978	958.75	74.75
963.9492	2361.6098	959.85	78.45
964.0803	2363.021	964.1	77.15
964.2114	2364.4315	958.75	74.1
964.3425	2365.8413	963.15	79.7
964.4736	2367.2504	955.65	73.1
964.6046	2368.6587	958.85	75.4
964.7356	2370.0664	961.75	80.25
964.8666	2371.4733	960.8	76.3
964.9975	2372.8795	959.25	75.75
965.1284	2374.285	956.4	72.85
965.2593	2375.6899	956.05	72.65
965.3901	2377.0939	955.9	72.7
965.5209	2378.4973	956.75	73.6
965.6517	2379.9	959.25	75.4
965.7825	2381.3019	956.95	73.05
965.9132	2382.7032	956.15	72.75
966.0439	2384.1037	956.2	73.95
966.1745	2385.5035	957.45	73.2
966.3051	2386.9027	955.7	73.25
966.4357	2388.3011	961.05	74.25
966.5663	2389.6987	956.75	73.3
966.6968	2391.0957	953.8	71.6
966.8273	2392.492	952.15	68.2
966.9578	2393.8876	956.25	73.05
967.0882	2395.2824	957.65	74.35
967.2186	2396.6765	951.85	71
967.349	2398.07	954.4	70.65
967.4793	2399.4627	956.05	72.7
967.6097	2400.8547	954.6	72.6
967.7399	2402.246	962.9	73.25
967.8702	2403.6366	953	70.35
968.0004	2405.0265	954.5	71.8
968.1306	2406.4156	955.75	65.7
968.2607	2407.8041	957.5	69.15
968.3909	2409.1918	956.7	70.65
968.521	2410.5789	951.35	67
968.651	2411.9652	954.05	67.25
968.781	2413.3508	953.4	70.95
968.911	2414.7358	948.75	65.1
969.041	2416.12	948.3	67.1
969.1709	2417.5035	949.85	67.55
969.3008	2418.8863	949.25	65.35
969.4307	2420.2684	948.85	65.3
969.5606	2421.6497	949.4	65.25
969.6904	2423.0304	950.1	68.15
969.8201	2424.4104	950.85	66.15
969.9499	2425.7896	956.2	67.45
970.0796	2427.1682	949.15	66.7
970.2093	2428.546	950.1	66.05
970.3389	2429.9232	950.55	64.9
970.4685	2431.2996	947.25	63.5
970.5981	2432.6753	948.35	64.25
970.7277	2434.0503	947.75	65.3
970.8572	2435.4246	947.7	64
970.9867	2436.7982	950.8	64.05
971.1161	2438.1711	945.5	62.75
971.2456	2439.5433	947.7	63.7
971.375	2440.9148	955.55	66.7
971.5043	2442.2856	948.2	63.75
971.6336	2443.6557	947.85	62.55
971.7629	2445.025	947.25	65.8
971.8922	2446.3937	949.35	65.55
972.0214	2447.7617	948.05	65.8
972.1506	2449.1289	947.3	64.6
972.2798	2450.4955	950.65	64.55
972.4089	2451.8613	945.85	61.9
972.538	2453.2265	946.75	63.65
972.6671	2454.5909	946.6	64.35
972.7961	2455.9546	945.5	62.7
972.9251	2457.3177	944.6	62.5
973.0541	2458.68	946.2	62.45
973.1831	2460.0416	944.4	60.75
973.312	2461.4025	945.5	61.95
973.4408	2462.7627	955.65	61.05
973.5697	2464.1222	945.55	63.3
973.6985	2465.4811	947	62.45
973.8273	2466.8392	944.05	61.65
973.956	2468.1966	948.35	62.25
974.0847	2469.5533	945.55	59.1
974.2134	2470.9093	946.75	63.45
974.3421	2472.2645	946.2	61.2
974.4707	2473.6191	944.7	62.25
974.5993	2474.973	942.4	59
974.7278	2476.3262	944.3	58.75
974.8563	2477.6787	942.25	59.35
974.9848	2479.0305	942.5	59.15
975.1132	2480.3816	945.3	58.35
975.2417	2481.7319	943.25	60.15
975.37	2483.0816	944	57.75
975.4984	2484.4306	944.95	62.5
975.6267	2485.7789	940.5	57.85
975.755	2487.1264	944.9	58.1
975.8833	2488.4733	941.6	58.55
976.0115	2489.8195	957	55.5
976.1397	2491.165	947.15	59.7
976.2678	2492.5097	944.05	58.6
976.3959	2493.8538	939.4	55.7
976.524	2495.1972	941.9	58.55
976.6521	2496.5398	941.6	56.35
976.7801	2497.8818	941.7	55.3
976.9081	2499.2231	940.2	55.1
977.036	2500.5637	940.1	53.15
977.164	2501.9035	939.65	55.15
977.2918	2503.2427	942.75	56.2
977.4197	2504.5812	942.7	61.85
977.5475	2505.919	940.85	55.25
977.6753	2507.256	942.8	60.75
977.8031	2508.5924	940.15	55.6
977.9308	2509.9281	946	57.1
978.0585	2511.2631	938.2	53.7
978.1861	2512.5974	937.8	53.75
978.3137	2513.9309	938.9	55.55
978.4413	2515.2638	968.15	53.65
978.5689	2516.596	935	52.5
978.6964	2517.9275	936.55	51.65
978.8239	2519.2583	938	53.1
978.9513	2520.5884	940.9	55.05
979.0788	2521.9178	939.9	55.25
979.2062	2523.2465	937.15	55
979.3335	2524.5745	936.4	52.9
979.4608	2525.9018	934	51.35
979.5881	2527.2284	937.7	56.75
979.7154	2528.5543	935.1	53.2
979.8426	2529.8796	933.7	51.1
979.9698	2531.2041	935.6	50.95
980.0969	2532.5279	938.25	56.7
980.224	2533.851	936.25	51
980.3511	2535.1735	935.25	51.6
980.4781	2536.4952	941.05	58.35
980.6052	2537.8163	934.7	50.1
980.7321	2539.1366	934.55	50.05
980.8591	2540.4562	936.8	52.6
980.986	2541.7752	936.25	52.3
981.1129	2543.0935	936.4	52.95
981.2397	2544.411	934.45	51.45
981.3665	2545.7279	933.6	48.15
981.4933	2547.0441	936.1	54.85
981.62	2548.3596	937.85	52.2
981.7467	2549.6744	935.15	52.7
981.8734	2550.9885	937.65	52.7
982.0001	2552.3019	931.1	46.95
982.1267	2553.6146	935.2	51.15
982.2532	2554.9266	935.8	50.5
982.3798	2556.2379	934.25	48.1
982.5063	2557.5485	929.55	46.6
982.6327	2558.8585	941.05	48.9
982.7592	2560.1677	940.6	52.4
982.8856	2561.4762	932	48.6
983.0119	2562.7841	936.5	50.2
983.1383	2564.0913	930.65	48.8
983.2646	2565.3977	934.2	50.8
983.3908	2566.7035	932.25	48.1
983.517	2568.0086	932.35	48
983.6432	2569.313	937.4	53.6
983.7694	2570.6167	937.95	54.45
983.8955	2571.9197	932.35	48.75
984.0216	2573.222	935.8	49.65
984.1476	2574.5236	932.15	47.55
984.2737	2575.8246	933.25	46.9
984.3996	2577.1248	935.15	50.4
984.5256	2578.4244	933.1	49.05
984.6515	2579.7232	932.7	47.75
984.7774	2581.0214	962.35	45.75
984.9032	2582.3189	931.65	49.15
985.029	2583.6157	934.55	48.55
985.1548	2584.9118	931.45	49.6
985.2806	2586.2072	928.7	45.55
985.4063	2587.5019	928.3	44.45
985.5319	2588.7959	929.9	46.85
985.6576	2590.0893	935.1	48.45
985.7832	2591.3819	927.5	44.45
985.9087	2592.6739	930	44.05
986.0343	2593.9652	931.8	47.05
986.1597	2595.2557	931.25	49.35
986.2852	2596.5456	930.55	48.3
986.4106	2597.8348	930.45	47.85
986.536	2599.1234	929.55	47
986.6614	2600.4112	929.4	46.25
986.7867	2601.6983	934.55	46.85
986.912	2602.9848	931.1	47.15
987.0372	2604.2705	937.5	46.05
987.1624	2605.5556	927.85	43.25
987.2876	2606.84	929.05	45.05
987.4128	2608.1237	930.7	45.7
987.5379	2609.4067	930.1	46.7
987.6629	2610.689	937.45	46.65
987.788	2611.9707	932.95	45.9
987.913	2613.2516	930.75	43.6
988.0379	2614.5319	929.1	46.75
988.1629	2615.8115	928.4	44.8
988.2878	2617.0903	928.2	43.15
988.4126	2618.3685	927.6	43.5
988.5375	2619.6461	928.65	44.8
988.6622	2620.9229	925.95	43.35
988.787	2622.199	927.85	46.35
988.9117	2623.4745	929.1	45.15
989.0364	2624.7493	927.5	45.05
989.161	2626.0234	925.1	42.85
989.2857	2627.2968	926.2	41.65
989.4102	2628.5695	926.55	41.65
989.5348	2629.8415	924.4	41.35
989.6593	2631.1128	927.75	42.2
989.7837	2632.3835	924.15	41.2
989.9082	2633.6535	925.8	42.3
990.0326	2634.9228	924.4	42.15
990.1569	2636.1914	926.35	43.75
990.2812	2637.4593	929.05	39.9
990.4055	2638.7265	924.9	41.65
990.5298	2639.9931	924	41.05
990.654	2641.259	926.75	41.95
990.7782	2642.5242	924.4	40.95
990.9023	2643.7887	923.75	38.85
991.0264	2645.0525	922.5	39.6
991.1505	2646.3156	925.55	40.65
991.2745	2647.5781	921.75	39.8
991.3985	2648.8398	921.75	38.35
991.5225	2650.1009	957.25	35.2
991.6464	2651.3613	923	38.1
991.7703	2652.6211	922.45	37.65
991.8942	2653.8801	922.1	38.45
992.018	2655.1385	926.2	40.3
992.1418	2656.3961	925.95	42.5
992.2655	2657.6531	923.75	40.15
992.3892	2658.9094	922.9	39.95
992.5129	2660.1651	923.85	40.35
992.6366	2661.42	922.95	39.2
992.7602	2662.6743	925.45	41.9
992.8837	2663.9279	922.05	37.25
993.0073	2665.1808	926.15	43.8
993.1307	2666.433	923.1	36
993.2542	2667.6846	923.25	40.95
993.3776	2668.9354	924.95	36.9
993.501	2670.1856	924.45	42.1
993.6244	2671.4351	922.95	40.35
993.7477	2672.6839	927	42.05
993.8709	2673.9321	922.7	38.9
993.9942	2675.1795	923.5	41.15
994.1174	2676.4263	924.8	38.95
994.2405	2677.6724	923.1	42
994.3637	2678.9179	923.15	38.6
994.4868	2680.1626	921.3	38.35
994.6098	2681.4067	924.15	39.6
994.7328	2682.6501	921.1	37.2
994.8558	2683.8928	921.4	40.05
994.9788	2685.1348	923.95	40.85
995.1017	2686.3761	920.6	37.1
995.2245	2687.6168	918.7	35.85
995.3474	2688.8568	918.75	34.8
995.4702	2690.0961	917.35	34.4
995.5929	2691.3348	920.5	38.6
995.7156	2692.5727	921.8	39.55
995.8383	2693.81	919.2	35.75
995.961	2695.0466	917.65	35.55
996.0836	2696.2826	918.95	34.8
996.2062	2697.5178	939.1	37.4
996.3287	2698.7524	920.55	36.2
996.4512	2699.9863	922.1	37.55
996.5737	2701.2195	918.75	35.4
996.6961	2702.452	917.4	34.15
996.8185	2703.6839	922.4	36.15
996.9408	2704.9151	921.65	39.55
997.0631	2706.1456	920.75	37.8
997.1854	2707.3755	919.35	35.8
997.3077	2708.6046	922.2	37.25
997.4299	2709.8331	921.25	36.9
997.552	2711.0609	920	34.6
997.6742	2712.2881	922.35	38.65
997.7963	2713.5145	922.85	37.45
997.9183	2714.7403	920.55	38.25
998.0403	2715.9654	921.7	39.8
998.1623	2717.1899	934.9	36
998.2842	2718.4136	922.2	41.3
998.4062	2719.6367	920.05	35.15
998.528	2720.8591	930.6	40
998.6498	2722.0809	923.4	38.35
998.7716	2723.3019	926.3	39.45
998.8934	2724.5223	925.3	40.2
999.0151	2725.7421	925.5	42.45
999.1368	2726.9611	927.05	41.2
999.2584	2728.1795	929.8	41.15
999.38	2729.3972	923.3	38.9
999.5016	2730.6142	934.5	38.5
999.6231	2731.8306	923.85	40.2
999.7446	2733.0462	919.4	32.65
999.8661	2734.2612	927.05	37.4
999.9875	2735.4756	920.85	37.85
1000.1089	2736.6892	918.3	33.6
1000.2302	2737.9022	920.3	39.05
1000.3515	2739.1145	918.5	32.6
1000.4728	2740.3262	928.35	38.6
1000.594	2741.5372	917.25	33.5
1000.7152	2742.7475	916.5	31.8
1000.8363	2743.9571	916.15	31.95
1000.9575	2745.1661	920.3	31.6
1001.0785	2746.3744	916.5	30.35
1001.1996	2747.582	916.65	33.95
1001.3206	2748.7889	916.2	31.9
1001.4415	2749.9952	915.55	32
1001.5625	2751.2008	916.25	32
1001.6833	2752.4057	916.35	29.55
1001.8042	2753.61	912.85	27.8
1001.925	2754.8136	919.45	33
1002.0458	2756.0165	909.8	26.55
1002.1665	2757.2188	912.2	29.9
1002.2872	2758.4204	913	30.15
1002.4078	2759.6213	918.15	31.75
1002.5285	2760.8215	919.2	29.55
1002.649	2762.0211	913.65	27.15
1002.7696	2763.22	914.4	24.35
1002.8901	2764.4182	915.95	31
1003.0106	2765.6158	913.75	30.2
1003.131	2766.8127	913.45	29.95
1003.2514	2768.009	914.25	31.9
1003.3717	2769.2045	913.95	28.15
1003.492	2770.3994	914.05	28.6
1003.6123	2771.5936	913.95	29.05
1003.7325	2772.7872	910.6	28.2
1003.8527	2773.9801	912.8	27.5
1003.9729	2775.1723	928.1	27.55
1004.093	2776.3639	909.35	24.9
1004.2131	2777.5548	914.65	30.85
1004.3331	2778.745	913.8	29.2
1004.4531	2779.9346	911.95	29.2
1004.5731	2781.1235	913.95	29.4
1004.693	2782.3117	911.4	29
1004.8129	2783.4992	911.55	28.9
1004.9328	2784.6861	912.55	28.8
1005.0526	2785.8723	913.9	28.9
1005.1723	2787.0579	912.25	27.6
1005.2921	2788.2428	911.75	26.75
1005.4118	2789.427	910.9	27.3
1005.5314	2790.6106	910.4	26.85
1005.651	2791.7935	909.4	23.3
1005.7706	2792.9757	910.8	27.7
1005.8902	2794.1573	914.25	28.65
1006.0097	2795.3382	913.55	31.1
1006.1291	2796.5184	913.3	31.15
1006.2485	2797.698	914.45	29.3
1006.3679	2798.8769	910.3	26.95
1006.4873	2800.0551	910.15	25.6
1006.6066	2801.2327	913.45	29.8
1006.7258	2802.4096	910.1	26.45
1006.8451	2803.5859	911.95	27.95
1006.9642	2804.7615	915.9	30.25
1007.0834	2805.9364	911.55	29.45
1007.2025	2807.1106	910.9	26.85
1007.3216	2808.2842	912.4	27.25
1007.4406	2809.4572	914.2	29.7
1007.5596	2810.6294	918	33.1
1007.6785	2811.801	914.85	31.55
1007.7975	2812.972	915.5	32.75
1007.9163	2814.1423	919.4	38.95
1008.0352	2815.3119	916.75	31.8
1008.154	2816.4808	918.7	37
1008.2727	2817.6491	922	37.8
1008.3914	2818.8167	921.7	40.45
1008.5101	2819.9837	929.9	41.2
1008.6288	2821.15	927.1	42.5
1008.7474	2822.3157	932	50.25
1008.8659	2823.4807	933.1	48.4
1008.9844	2824.645	939	55.2
1009.1029	2825.8086	937.95	53.9
1009.2214	2826.9716	942.45	58.15
1009.3398	2828.134	947.4	61.9
1009.4581	2829.2957	948.9	64.35
1009.5764	2830.4567	954.75	72.15
1009.6947	2831.617	956.75	72.4
1009.813	2832.7767	958.85	74.8
1009.9312	2833.9358	959.7	76.85
1010.0493	2835.0941	961	76.2
1010.1675	2836.2519	956.2	71.85
1010.2855	2837.4089	954.1	69.35
1010.4036	2838.5653	951.5	69.4
1010.5216	2839.7211	947.85	65.6
1010.6396	2840.8761	949.8	63.2
1010.7575	2842.0306	943.85	63.15
1010.8754	2843.1843	945	62.6
1010.9932	2844.3374	944.75	60.75
1011.111	2845.4899	948.15	63.95
1011.2288	2846.6417	950.1	65.65
1011.3465	2847.7928	950.5	67.85
1011.4642	2848.9433	947.3	65.6
1011.5818	2850.0931	950.1	67.4
1011.6995	2851.2422	955.8	71.45
1011.817	2852.3907	954.35	70.7
1011.9345	2853.5385	953.15	67.2
1012.052	2854.6857	977.8	65.8
1012.1695	2855.8323	955.95	72.1
1012.2869	2856.9781	955.4	73.7
1012.4042	2858.1233	957.85	73.9
1012.5216	2859.2679	958.1	76.05
1012.6389	2860.4118	962.95	78.8
1012.7561	2861.555	964	76.3
1012.8733	2862.6976	966.35	79.65
1012.9905	2863.8395	962.85	80.6
1013.1076	2864.9808	966.4	80.4
1013.2247	2866.1214	966.3	83.2
1013.3417	2867.2614	964.9	82.7
1013.4587	2868.4007	969.05	85.9
1013.5757	2869.5393	972.6	87.4
1013.6926	2870.6773	973.45	85.1
1013.8095	2871.8146	973.7	87.4
1013.9263	2872.9513	972.75	88
1014.0431	2874.0874	972.3	88.7
1014.1599	2875.2227	972.95	87
1014.2766	2876.3574	973.05	89.9
1014.3933	2877.4915	975.1	90.65
1014.51	2878.6249	973	89.75
1014.6266	2879.7577	974.05	91.1
1014.7431	2880.8898	987.45	92.4
1014.8596	2882.0212	978.75	96
1014.9761	2883.152	982.65	98.7
1015.0925	2884.2821	979.85	98.1
1015.2089	2885.4116	980.5	96.95
1015.3253	2886.5405	979.35	96.5
1015.4416	2887.6686	985.9	99.5
1015.5579	2888.7962	980.25	99.65
1015.6741	2889.923	979.4	97.05
1015.7903	2891.0493	980.7	99.55
1015.9065	2892.1748	982.8	99.1
1016.0226	2893.2997	982.4	97.85
1016.1387	2894.424	981.4	99.6
1016.2547	2895.5476	982.1	96.85
1016.3707	2896.6706	981.15	97.6
1016.4866	2897.7929	981.65	96.3
1016.6025	2898.9145	982.15	99.1
1016.7184	2900.0355	982.2	98.45
1016.8342	2901.1559	985.9	102.2
1016.95	2902.2756	986.05	98.8
1017.0658	2903.3946	978.75	96.25
1017.1815	2904.513	982.2	96.3
1017.2971	2905.6308	981.2	97.6
1017.4127	2906.7479	983.5	99.4
1017.5283	2907.8643	983.2	97.95
1017.6439	2908.9801	978.15	95.7
1017.7594	2910.0953	980.65	97.35
1017.8748	2911.2098	983.3	96.8
1017.9902	2912.3236	988.55	96.6
1018.1056	2913.4368	983.4	97.2
1018.2209	2914.5494	979.15	94.6
1018.3362	2915.6613	981.7	91.95
1018.4515	2916.7725	976.95	90.15
1018.5667	2917.8831	976.5	92.35
1018.6819	2918.9931	978.45	91.9
1018.797	2920.1024	972.1	88.2
1018.9121	2921.211	977.2	91.45
1019.0271	2922.319	972.85	88.95
1019.1421	2923.4264	970.2	85.8
1019.2571	2924.5331	966.35	80.85
1019.372	2925.6391	966.3	83.75
1019.4869	2926.7445	969.55	85.75
1019.6017	2927.8493	966.7	84.3
1019.7165	2928.9534	968.1	85.45
1019.8313	2930.0569	972.8	87.3
1019.946	2931.1597	972.65	88.4
1020.0606	2932.2619	968.4	86.25
1020.1753	2933.3634	971.55	85.9
1020.2899	2934.4643	981.2	90.4
1020.4044	2935.5645	984.1	94.3
1020.5189	2936.6641	980.15	92.2
1020.6334	2937.763	972.7	89.05
1020.7478	2938.8613	976.45	93.2
1020.8622	2939.959	978.9	90
1020.9765	2941.056	971.8	89.75
1021.0908	2942.1523	968.9	83.2
1021.2051	2943.248	965.95	82.75
1021.3193	2944.3431	959.85	76.85
1021.4334	2945.4375	958.65	72.6
1021.5476	2946.5313	953	69.9
1021.6617	2947.6244	949.75	64.2
1021.7757	2948.7169	947.1	62.55
1021.8897	2949.8087	944.45	60.3
1022.0037	2950.8999	940.85	57.25
1022.1176	2951.9904	940.35	57.8
1022.2315	2953.0803	934.65	49.75
1022.3453	2954.1696	934.6	49.95
1022.4591	2955.2582	930.95	49
1022.5728	2956.3462	931.25	47.65
1022.6865	2957.4335	933.2	49.7
1022.8002	2958.5202	934.1	48.85
1022.9138	2959.6062	927.15	42.05
1023.0274	2960.6916	929.2	46.4
1023.141	2961.7764	932	48.1
1023.2545	2962.8605	927.6	43.35
1023.3679	2963.9439	929.85	45.5
1023.4813	2965.0267	931.3	46.45
1023.5947	2966.1089	949.15	41.55
1023.708	2967.1905	929.15	44.45
1023.8213	2968.2714	926.85	44.65
1023.9346	2969.3516	927.45	44.5
1024.0478	2970.4312	931.9	40.3
1024.1609	2971.5102	926.2	43.2
1024.274	2972.5885	925.85	42.55
1024.3871	2973.6662	931.65	42.8
1024.5002	2974.7432	926.8	44.15
1024.6132	2975.8196	927.55	46.1
1024.7261	2976.8954	923.95	40.2
1024.839	2977.9705	928.35	45.1
1024.9519	2979.045	927.6	44.55
1025.0647	2980.1188	926.05	44.2
1025.1775	2981.192	925.55	42.65
1025.2902	2982.2645	926.65	41.95
1025.4029	2983.3364	923.5	40.1
1025.5156	2984.4077	926.55	42.25
1025.6282	2985.4783	928.7	39.4
1025.7407	2986.5483	922.6	40.4
1025.8532	2987.6177	921.2	38.35
1025.9657	2988.6864	918.8	36.25
1026.0782	2989.7545	920.15	33.25
1026.1906	2990.8219	917.8	36.1
1026.3029	2991.8887	917.5	30.85
1026.4152	2992.9548	914.85	33.25
1026.5275	2994.0204	912.2	30
1026.6397	2995.0852	910.65	26.4
1026.7519	2996.1495	910.9	24.65
1026.864	2997.2131	911.15	27.45
1026.9761	2998.276	907.25	22.2
1027.0882	2999.3383	909.2	26.2
1027.2002	3000.4	908.85	23.9
1027.3122	3001.4611	907.65	25.4
1027.4241	3002.5215	904.5	20.65
1027.536	3003.5812	905.6	22.75
1027.6478	3004.6404	902	19.75
1027.7596	3005.6989	906.2	20.7
1027.8714	3006.7567	901.35	19.3
1027.9831	3007.8139	928.3	19.25
1028.0947	3008.8705	902.65	18.35
1028.2064	3009.9264	919.5	21.35
1028.3179	3010.9818	902.35	17.9
1028.4295	3012.0364	900.5	16.2
1028.541	3013.0905	901.6	18.25
1028.6524	3014.1439	899.3	16.05
1028.7638	3015.1966	900.1	16.35
1028.8752	3016.2487	900.75	16.3
1028.9865	3017.3002	907	18.25
1029.0978	3018.3511	900.5	18.35
1029.209	3019.4013	899.4	14.4
1029.3202	3020.4509	899.55	17.05
1029.4314	3021.4998	900.4	13.5
1029.5425	3022.5481	897.9	14.85
1029.6535	3023.5958	899.8	16.15
1029.7645	3024.6428	899.2	16.25
1029.8755	3025.6892	900.3	20.45
1029.9864	3026.735	900.45	16.95
1030.0973	3027.7802	900.75	18.4
1030.2082	3028.8247	899.75	16.9
1030.319	3029.8685	900.15	17.25
1030.4297	3030.9118	899.95	15.25
1030.5404	3031.9544	896.8	13.95
1030.6511	3032.9963	898.85	14.05
1030.7617	3034.0376	896.1	14.25
1030.8723	3035.0783	902.1	16.1
1030.9829	3036.1184	901.2	18.35
1031.0934	3037.1578	898.05	16.2
1031.2038	3038.1966	898.95	15.25
1031.3142	3039.2348	898.35	17.8
1031.4246	3040.2723	910.4	18.5
1031.5349	3041.3092	900.1	18.4
1031.6452	3042.3455	900.25	15.5
1031.7554	3043.3811	899.25	15.35
1031.8656	3044.4161	899.1	15.65
1031.9758	3045.4505	896.55	14.4
1032.0859	3046.4842	897.9	14.9
1032.1959	3047.5173	897.85	17.5
1032.3059	3048.5498	901.05	17.4
1032.4159	3049.5816	900.4	18.8
1032.5258	3050.6128	900.9	16.75
1032.6357	3051.6434	899.9	13.75
1032.7455	3052.6734	901.3	17.1
1032.8553	3053.7027	900.7	15.35
1032.9651	3054.7314	899.95	17.35
1033.0748	3055.7594	900.25	17.6
1033.1845	3056.7868	898.25	12.4
1033.2941	3057.8136	899.75	15.5
1033.4037	3058.8398	897.55	14.4
1033.5132	3059.8653	900.9	18.7
1033.6227	3060.8902	899.9	17.5
1033.7321	3061.9145	900.85	16.7
1033.8415	3062.9381	898.9	16.9
1033.9509	3063.9612	914.75	15.4
1034.0602	3064.9835	898.95	15.45
1034.1694	3066.0053	903.9	17.1
1034.2787	3067.0264	900.75	17.2
1034.3878	3068.0469	903.7	20.3
1034.497	3069.0668	901.05	14.2
1034.6061	3070.086	898.4	15.6
1034.7151	3071.1046	904.1	16.6
1034.8241	3072.1226	899.65	15.2
1034.9331	3073.1399	898.85	16.8
1035.042	3074.1567	900.55	15.4
1035.1508	3075.1727	902.25	16.95
1035.2597	3076.1882	899.05	15.4
1035.3684	3077.203	898.8	15.1
1035.4772	3078.2173	899.2	13.65
1035.5859	3079.2308	901.5	14.05
1035.6945	3080.2438	899.3	12.65
1035.8031	3081.2561	897.3	13.25
1035.9117	3082.2678	895.3	11.9
1036.0202	3083.2789	896.55	14.55
1036.1286	3084.2893	898.45	15.4
1036.2371	3085.2991	898.35	16.3
1036.3454	3086.3083	901.95	16.5
1036.4538	3087.3169	897.6	12.15
1036.562	3088.3248	899	15.3
1036.6703	3089.3321	896.6	12.85
1036.7785	3090.3388	896.8	13.15
1036.8866	3091.3449	896.8	11.4
1036.9948	3092.3503	897.65	12
1037.1028	3093.3551	892.05	9.85
1037.2108	3094.3593	895.6	11.9
1037.3188	3095.3629	892.6	9.55
1037.4267	3096.3658	896.4	12.25
1037.5346	3097.3681	894.8	10.05
1037.6425	3098.3698	896.1	11.85
1037.7503	3099.3708	896.6	13
1037.858	3100.3713	893.5	11.2
1037.9657	3101.3711	896.35	11.8
1038.0734	3102.3702	1034.35	7.95
1038.181	3103.3688	897.2	11.7
1038.2886	3104.3667	894.9	10.75
1038.3961	3105.364	894.55	11
1038.5036	3106.3607	896	12.25
1038.611	3107.3568	895.65	10.95
1038.7184	3108.3522	890.8	7.7
1038.8257	3109.347	896.05	12.75
1038.933	3110.3412	896.45	8.6
1039.0403	3111.3348	890.3	7.15
1039.1475	3112.3277	892.2	6.95
1039.2547	3113.32	889.85	10.15
1039.3618	3114.3117	894.3	10.45
1039.4689	3115.3028	892.9	10.65
1039.5759	3116.2932	895.55	12.25
1039.6829	3117.2831	899.85	9.6
1039.7898	3118.2723	892.45	10.55
1039.8967	3119.2608	894.1	10.15
1040.0035	3120.2488	894	9.45
1040.1103	3121.2361	891.7	7
1040.2171	3122.2229	892.15	8.9
1040.3238	3123.209	892.65	7.7
1040.4305	3124.1944	891.85	11.05
1040.5371	3125.1793	894.8	9.75
1040.6437	3126.1635	891.6	7.75
1040.7502	3127.1471	891.05	8.05
1040.8567	3128.1301	889.1	5.3
1040.9631	3129.1125	891.9	10.65
1041.0695	3130.0942	891.9	9.45
1041.1759	3131.0753	899.35	8.45
1041.2822	3132.0558	895.5	9.55
1041.3884	3133.0357	892.7	7.35
1041.4946	3134.015	892.7	8.3
1041.6008	3134.9936	891.5	6.35
1041.7069	3135.9716	914.1	11
1041.813	3136.949	893.4	9.3
1041.919	3137.9258	910.4	8.6
1042.025	3138.902	898.2	11
1042.1309	3139.8775	890.9	7.85
1042.2368	3140.8524	889.6	6.9
1042.3427	3141.8267	893.65	8.25
1042.4485	3142.8004	890	6.35
1042.5542	3143.7735	897.3	6.35
1042.6599	3144.7459	893.25	6.85
1042.7656	3145.7178	892.35	6.8
1042.8712	3146.689	889.3	6.7
1042.9768	3147.6596	895	9.15
1043.0823	3148.6295	892.95	9.1
1043.1878	3149.5989	891.6	7.65
1043.2932	3150.5676	889.7	5
1043.3986	3151.5357	889.6	7.85
1043.5039	3152.5032	890.05	7
1043.6092	3153.4701	888.8	6.1
1043.7145	3154.4364	894.05	8.65
1043.8197	3155.402	889	9.65
1043.9248	3156.367	891.3	6.15
1044.03	3157.3315	912.4	8.85
1044.135	3158.2952	890.8	8
1044.24	3159.2584	891.85	9.6
1044.345	3160.221	891.6	6.9
1044.4499	3161.1829	891.8	8.1
1044.5548	3162.1442	889.85	7.3
1044.6596	3163.105	890.75	10.7
1044.7644	3164.065	889	3.15
1044.8692	3165.0245	890.6	4.5
1044.9739	3165.9834	891.1	9.5
1045.0785	3166.9416	890.1	6.8
1045.1831	3167.8993	887.95	5.75
1045.2877	3168.8563	892.5	7.95
1045.3922	3169.8127	889.15	4.25
1045.4966	3170.7684	890.25	7.75
1045.6011	3171.7236	889.55	5.7
1045.7054	3172.6782	890.45	7.15
1045.8098	3173.6321	891.45	7.6
1045.914	3174.5854	894.3	6.1
1046.0183	3175.5381	887.95	3.2
1046.1224	3176.4902	889.85	6.45
1046.2266	3177.4417	889.35	4
1046.3307	3178.3926	889.85	4.55
1046.4347	3179.3428	888.85	7.15
1046.5387	3180.2924	889.3	5.7
1046.6427	3181.2415	891.2	6.75
1046.7466	3182.1899	890.7	6
1046.8504	3183.1377	890.65	8.85
1046.9542	3184.0848	894.25	7.7
1047.058	3185.0314	891.6	8.2
1047.1617	3185.9773	891.05	6.8
1047.2654	3186.9227	889.2	4.8
1047.369	3187.8674	889.8	5.85
1047.4726	3188.8115	894.35	4.95
1047.5761	3189.755	887.9	3.8
1047.6796	3190.6979	889.1	7.1
1047.783	3191.6402	886.6	3.05
1047.8864	3192.5818	891.05	9.25
1047.9898	3193.5229	903.75	7.75
1048.0931	3194.4633	890.4	7.15
1048.1963	3195.4031	889.9	5.75
1048.2995	3196.3423	888.65	4.3
1048.4027	3197.2809	890.9	6.75
1048.5058	3198.2189	886.95	2
1048.6089	3199.1563	906.2	7.85
1048.7119	3200.0931	889.75	6.8
1048.8148	3201.0292	886.15	2.1
1048.9178	3201.9648	888.25	5.35
1049.0206	3202.8997	893.35	7
1049.1235	3203.834	889.05	4.5
1049.2262	3204.7677	890.4	7
1049.329	3205.7008	892	4.85
1049.4317	3206.6333	887.6	6.35
1049.5343	3207.5652	890.55	3.5
1049.6369	3208.4964	889.75	5.6
1049.7394	3209.4271	888.55	6
1049.8419	3210.3571	888.2	4.45
1049.9444	3211.2865	889.25	4.5
1050.0468	3212.2154	889.2	5.05
1050.1491	3213.1436	890.5	2.05
1050.2514	3214.0712	895.45	6.15
1050.3537	3214.9982	889	6.1
1050.4559	3215.9246	888.65	5.3
1050.5581	3216.8503	886.35	2.8
1050.6602	3217.7755	887.8	4.3
1050.7623	3218.7001	887.4	4.95
1050.8643	3219.624	888.85	4.45
1050.9663	3220.5473	887.6	2.5
1051.0682	3221.4701	890.85	6.35
1051.1701	3222.3922	890.65	3.8
1051.2719	3223.3137	889.55	3.7
1051.3737	3224.2346	888.7	5.75
1051.4754	3225.1549	886.65	3.45
1051.5771	3226.0746	886.4	3.25
1051.6788	3226.9937	887.6	1.75
1051.7804	3227.9121	887	5.35
1051.8819	3228.83	887.65	2.9
1051.9834	3229.7473	888.9	4.4
1052.0849	3230.6639	890	5.75
1052.1863	3231.5799	887	3.1
1052.2876	3232.4954	888.1	4.85
1052.3889	3233.4102	887.3	5.3
1052.4902	3234.3244	887.8	3.15
1052.5914	3235.238	888.1	5.5
1052.6926	3236.151	911.15	2.2
1052.7937	3237.0634	887.8	4.15
1052.8948	3237.9752	886.65	2.55
1052.9958	3238.8864	886.25	1.9
1053.0968	3239.797	886.2	2.8
1053.1977	3240.7069	888.2	4.1
1053.2986	3241.6163	890.05	5.6
1053.3994	3242.5251	887.65	5.6
1053.5002	3243.4332	886.6	4.2
1053.6009	3244.3408	888.05	3.15
1053.7016	3245.2477	886.2	2
1053.8022	3246.154	889.15	4.65
1053.9028	3247.0598	887.4	3.3
1054.0034	3247.9649	886.45	2.25
1054.1039	3248.8694	889.05	5.25
1054.2043	3249.7733	889.5	5
1054.3047	3250.6766	887.55	2.45
1054.4051	3251.5793	888.85	5.55
1054.5054	3252.4814	886.8	4.9
1054.6056	3253.3829	888.9	7.2
1054.7058	3254.2838	885.75	3.2
1054.806	3255.1841	888.15	2.5
1054.9061	3256.0838	888.95	5.55
1055.0061	3256.9829	885.3	2.15
1055.1062	3257.8814	889	2
1055.2061	3258.7792	888.9	0.4
1055.306	3259.6765	887.8	2.05
1055.4059	3260.5731	889.25	5.55
1055.5057	3261.4692	888.35	3.95
1055.6055	3262.3647	889.6	6.05
1055.7052	3263.2595	887.2	3.95
1055.8049	3264.1538	885.65	5.9
1055.9045	3265.0474	890.2	4.7
1056.0041	3265.9404	886.15	3.45
1056.1036	3266.8329	886.55	2.3
1056.2031	3267.7247	896.3	4.05
1056.3025	3268.616	884.35	1.35
1056.4019	3269.5066	887.55	2.4
1056.5013	3270.3966	889.55	4.75
1056.6005	3271.286	887.1	5.15
