Software Version:	3.9.2.0
Unit SN:	10000200
Spectrometer SN:	6960
Date:	3/14/2024 1:41:02 PM
Data Line Index:	25
Spectral Points:	2048
Integration time (ms):	125
Averages:	20
Delay (ms):	30000
Sequence Number:	1
Processing:	dark subtract
Laser Power (mW):	305
Laser Current (mA):	824
Laser Diode Temp (C):	25.1
Laser Case Temp (C):	28.7
System Temp (C):	28.7
Spectrometer Temp (C):	26.5
CCD Temp (C):	0.009
Secondary Temp (C):	20.007
Heatsink Temp (C):	24.739
CCDPCB Temp (C):	38.263
SecondaryPCB Temp (C):	35.762

Wavelength	RamanShift	Raw Counts	Dark Subtracted
787.061	30.1047	467.35	53.75
787.2016	32.3739	471.15	60.9
787.3422	34.6426	474.8	65.8
787.4828	36.9109	481.7	71
787.6235	39.1787	490.85	74.45
787.7642	41.4461	501.1	80.4
787.9049	43.7131	511.95	86.25
788.0456	45.9796	520.15	90.35
788.1863	48.2456	532.2	99.15
788.3271	50.5112	540.45	103.85
788.4679	52.7764	548.75	111.85
788.6087	55.0411	562.05	122.15
788.7496	57.3054	575.7	129
788.8904	59.5692	581.3	131.25
789.0313	61.8326	598	143.4
789.1722	64.0955	614.35	156
789.3132	66.3579	630.1	166
789.4541	68.6199	651.55	186.8
789.5951	70.8815	686.4	217.55
789.7361	73.1426	774.25	299.9
789.8771	75.4032	995	517
790.0181	77.6634	1530.05	1046.25
790.1592	79.9231	2814	2325.4
790.3003	82.1824	5648.5	5147.8
790.4414	84.4412	10857.65	10338.45
790.5825	86.6995	18149.15	17606.5
790.7237	88.9574	25437.1	24873.1
790.8648	91.2148	30566.9	29987.15
791.006	93.4717	33007	32419.45
791.1472	95.7282	33557.95	32964.7
791.2885	97.9842	33442.95	32845.3
791.4297	100.2398	32868.75	32266.05
791.571	102.4949	32188.75	31581.65
791.7123	104.7495	31341.85	30732.1
791.8536	107.0036	30490.85	29880.65
791.9949	109.2573	29692.45	29084.1
792.1363	111.5105	28888.2	28276.35
792.2777	113.7632	28215.6	27604.1
792.4191	116.0154	27674.35	27052.75
792.5605	118.2672	27222.8	26609.9
792.7019	120.5185	26775	26159.45
792.8434	122.7693	26435.1	25812.4
792.9849	125.0197	26205.05	25582.1
793.1264	127.2696	25852.5	25228.15
793.2679	129.519	25760.4	25135.85
793.4094	131.7679	25470.3	24844.1
793.551	134.0163	25270.55	24640.3
793.6926	136.2642	24958.55	24318.9
793.8342	138.5117	24689.6	24041.55
793.9758	140.7587	24396.5	23755.4
794.1175	143.0052	24151.9	23505.9
794.2591	145.2512	23823.2	23180
794.4008	147.4967	23560.15	22917
794.5425	149.7417	23372.25	22722.8
794.6842	151.9863	23183.25	22532.4
794.826	154.2304	23138.45	22484.5
794.9677	156.4739	22937.2	22276.1
795.1095	158.717	22867.1	22206.7
795.2513	160.9596	22692.8	22030.3
795.3931	163.2017	22410.65	21745.3
795.535	165.4433	22084.4	21419.2
795.6768	167.6844	21740.7	21073.45
795.8187	169.925	21418.75	20746.75
795.9606	172.1651	21008.65	20334.95
796.1025	174.4047	20734	20052.3
796.2445	176.6439	20471.7	19793.55
796.3864	178.8825	20193.05	19510.8
796.5284	181.1206	20029.75	19345.9
796.6704	183.3582	19909.35	19220.5
796.8124	185.5954	19795.2	19105.55
796.9544	187.832	19677.65	18985.1
797.0965	190.0681	19630.75	18936.35
797.2386	192.3037	19635.1	18938.95
797.3806	194.5388	19588.55	18885.75
797.5228	196.7734	19624.55	18920.2
797.6649	199.0075	19681.5	18975.95
797.807	201.2411	19865.1	19154.6
797.9492	203.4742	19899.2	19189.35
798.0914	205.7068	20059.65	19349.65
798.2336	207.9389	20135.8	19423.8
798.3758	210.1704	20298.15	19585.65
798.518	212.4015	20414.95	19696.4
798.6603	214.632	20558.3	19840.65
798.8025	216.862	20757.85	20042.95
798.9448	219.0915	20852.1	20143.7
799.0871	221.3205	20994.5	20292.1
799.2294	223.549	21187.25	20488.85
799.3718	225.777	21380.6	20685.45
799.5141	228.0044	21663.75	20967
799.6565	230.2314	21948.4	21252.95
799.7989	232.4578	22235.5	21536.9
799.9413	234.6837	22515.75	21810.25
800.0837	236.909	22697.95	21992.9
800.2262	239.1339	22676.4	21947
800.3687	241.3582	22510.05	21795.5
800.5111	243.582	22270.5	21532.65
800.6536	245.8053	22047.35	21314
800.7961	248.0281	21829.65	21099.95
800.9387	250.2503	21642.15	20912.4
801.0812	252.472	21593.5	20852.55
801.2238	254.6932	21631.45	20890.5
801.3664	256.9139	21595.65	20852.5
801.509	259.134	21721.4	20975.2
801.6516	261.3536	21794.35	21054.05
801.7942	263.5727	21996.35	21251.6
801.9369	265.7912	22049.7	21309
802.0795	268.0092	22198.4	21454.95
802.2222	270.2267	22219.85	21471.4
802.3649	272.4436	22241.65	21496.7
802.5076	274.6601	22203.25	21445.3
802.6504	276.8759	22062.6	21310.9
802.7931	279.0913	22014.85	21263.75
802.9359	281.3061	21871.1	21120.15
803.0787	283.5204	21883.4	21128.3
803.2215	285.7341	21871.5	21113
803.3643	287.9473	21981.1	21210.6
803.5071	290.16	22153.1	21387.05
803.6499	292.3721	22363.95	21605.3
803.7928	294.5837	22710.05	21951.45
803.9357	296.7947	22989.25	22227
804.0786	299.0052	23187.6	22426.75
804.2215	301.2152	23048.05	22287.2
804.3644	303.4246	22748.35	21988.7
804.5074	305.6334	22216.7	21456.6
804.6503	307.8418	21738.9	20973.95
804.7933	310.0495	21290.75	20529.55
804.9363	312.2568	20917.25	20152.75
805.0793	314.4635	20552	19785.45
805.2223	316.6696	20361.7	19596.35
805.3653	318.8752	20213.25	19438.25
805.5084	321.0802	20216.35	19449.85
805.6514	323.2847	20270.5	19499.85
805.7945	325.4887	20300.3	19530.35
805.9376	327.692	20259.35	19488.5
806.0807	329.8949	20201.55	19430.85
806.2238	332.0972	19906.5	19134.5
806.367	334.2989	19651.25	18877.65
806.5101	336.5001	19350.3	18571.25
806.6533	338.7007	19138.3	18362.45
806.7965	340.9008	19025	18247.9
806.9397	343.1003	18862.7	18083.15
807.0829	345.2992	18754.35	17974.95
807.2261	347.4976	18684.45	17903.95
807.3693	349.6955	18631.1	17845.9
807.5126	351.8927	18689.7	17902.85
807.6559	354.0895	18631.7	17831.35
807.7991	356.2856	18620.85	17832.35
807.9424	358.4812	18555.95	17767.5
808.0857	360.6763	18596.95	17808.05
808.2291	362.8707	18556.45	17764.3
808.3724	365.0646	18588.9	17794.1
808.5158	367.258	18596.8	17800.9
808.6591	369.4508	18613.65	17814.2
808.8025	371.643	18724.45	17925.65
808.9459	373.8346	18737.25	17937.7
809.0893	376.0257	18726.4	17925.2
809.2327	378.2162	18666.2	17862.25
809.3762	380.4062	18608.4	17803.7
809.5196	382.5956	18417.8	17613.85
809.6631	384.7844	18275.45	17469.65
809.8066	386.9726	18174.5	17367.8
809.9501	389.1603	18089.25	17284.75
810.0936	391.3474	18064.6	17226.25
810.2371	393.5339	17982.75	17179.45
810.3806	395.7199	17921.7	17121.35
810.5241	397.9052	17915.85	17112.95
810.6677	400.09	17935.6	17138.55
810.8113	402.2743	18054.35	17257.75
810.9548	404.4579	18116	17321.4
811.0984	406.641	18309.35	17512.5
811.2421	408.8235	18484.85	17684.6
811.3857	411.0054	18742.5	17941.25
811.5293	413.1868	19059.4	18257.85
811.673	415.3675	19263.9	18459.95
811.8166	417.5477	19400.65	18594.15
811.9603	419.7273	19393.75	18585.5
812.104	421.9064	19284	18467.95
812.2477	424.0848	19191.9	18379.75
812.3914	426.2627	18959.3	18146.7
812.5351	428.4399	18621.5	17807.65
812.6788	430.6166	18292.6	17473.55
812.8226	432.7928	17909.7	17093.1
812.9663	434.9683	17553.4	16735.6
813.1101	437.1432	17306.15	16486.1
813.2539	439.3176	17135.1	16315.95
813.3977	441.4914	17010.15	16192.05
813.5415	443.6645	16941.15	16118.2
813.6853	445.8371	16888.2	16064.8
813.8291	448.0091	16775.1	15956.05
813.973	450.1806	16753.95	15930.65
814.1168	452.3514	16683.55	15859.8
814.2607	454.5216	16707.3	15869.9
814.4046	456.6913	16620.3	15793.6
814.5485	458.8603	16646.15	15822.25
814.6924	461.0288	16707.6	15884.55
814.8363	463.1967	16708.2	15883.45
814.9802	465.3639	16767.1	15940.1
815.1241	467.5306	16794.3	15967.4
815.2681	469.6967	16871.3	16045.9
815.412	471.8622	16938.2	16111.25
815.556	474.0271	17023.05	16197.6
815.7	476.1914	17107.7	16278.55
815.844	478.3551	17045.55	16214.3
815.988	480.5182	17081.9	16250.6
816.132	482.6807	17106.95	16279.05
816.276	484.8426	17257.15	16429.6
816.4201	487.0039	17564.65	16736.65
816.5641	489.1647	17956.15	17123.1
816.7082	491.3248	18329.9	17498.2
816.8522	493.4843	18496.05	17664
816.9963	495.6432	18381.95	17553.15
817.1404	497.8015	18278.25	17444.4
817.2845	499.9592	18204.2	17374.5
817.4286	502.1163	18050	17215.7
817.5727	504.2728	17789.75	16952.9
817.7168	506.4287	17495	16664.15
817.861	508.5839	17079.1	16243.7
818.0051	510.7386	16752.85	15920.45
818.1493	512.8927	16637.2	15795.2
818.2935	515.0461	16524.15	15688.95
818.4377	517.199	16507	15669.85
818.5818	519.3512	16591.15	15758.7
818.726	521.5029	16760.2	15918.3
818.8703	523.6539	16877.9	16037.95
819.0145	525.8043	16932.45	16093.65
819.1587	527.9541	16894.2	16053.3
819.303	530.1033	16793.7	15956.5
819.4472	532.2519	16737	15894.9
819.5915	534.3999	16765.8	15922.7
819.7357	536.5472	16941.95	16098.3
819.88	538.694	17286.4	16446.2
820.0243	540.8401	17728.05	16885.3
820.1686	542.9856	18122.3	17277.45
820.3129	545.1305	18206.85	17366.15
820.4572	547.2748	18089.95	17247.15
820.6016	549.4185	17766.95	16924.4
820.7459	551.5615	17441.35	16599.4
820.8902	553.704	17319.5	16476.8
821.0346	555.8458	17312.65	16470.7
821.1789	557.987	17446.9	16604
821.3233	560.1276	17491.9	16649.05
821.4677	562.2675	17625.1	16782.5
821.6121	564.4069	17884.85	17040.3
821.7565	566.5456	18105.95	17264.1
821.9009	568.6837	18122.8	17279.55
822.0453	570.8212	17752.3	16909.9
822.1897	572.958	17210.2	16359.45
822.3342	575.0942	16729.4	15883.9
822.4786	577.2299	16403.65	15556.9
822.6231	579.3648	16289.2	15445.15
822.7675	581.4992	16302.8	15455.35
822.912	583.6329	16461.2	15614.8
823.0565	585.766	16683.95	15837.75
823.201	587.8985	16740.85	15893.35
823.3454	590.0304	16755.7	15883.7
823.4899	592.1616	16673.05	15825.55
823.6345	594.2922	16525.65	15676.35
823.779	596.4222	16347.1	15500.8
823.9235	598.5515	16136.55	15287.6
824.068	600.6802	15944.65	15095.65
824.2126	602.8083	15766	14916.5
824.3571	604.9358	15721.6	14870.1
824.5017	607.0626	15647.6	14797.1
824.6462	609.1888	15657.65	14806.45
824.7908	611.3144	15688.5	14838.65
824.9354	613.4393	15673.6	14823.2
825.08	615.5636	15667.75	14816.75
825.2246	617.6873	15601.6	14751.2
825.3692	619.8103	15518.4	14660.85
825.5138	621.9327	15375.85	14520.35
825.6584	624.0544	15255.85	14401.45
825.803	626.1756	15133.3	14281.45
825.9477	628.2961	15035.9	14183.75
826.0923	630.4159	14953.2	14098.95
826.237	632.5351	14886.35	14034.9
826.3816	634.6537	14854	13999.75
826.5263	636.7716	14829.1	13973.8
826.6709	638.8889	14815.95	13962.05
826.8156	641.0056	14846.6	13991.85
826.9603	643.1216	14817.55	13962.4
827.105	645.237	14797.4	13938.05
827.2497	647.3518	14714.55	13856.45
827.3944	649.4659	14710.8	13856
827.5391	651.5793	14661.95	13804.2
827.6838	653.6922	14590.55	13734.45
827.8285	655.8043	14577.2	13720.9
827.9733	657.9159	14568.5	13712.9
828.118	660.0268	14499.35	13638.15
828.2627	662.137	14459	13599.25
828.4075	664.2466	14433.4	13574.7
828.5522	666.3556	14415.5	13559
828.697	668.4639	14360.05	13495.5
828.8418	670.5716	14367.95	13508.05
828.9865	672.6786	14388.75	13528.4
829.1313	674.785	14393.15	13532.45
829.2761	676.8907	14391.15	13529.9
829.4209	678.9958	14414.6	13555.05
829.5657	681.1002	14375.55	13515.7
829.7105	683.204	14332.6	13470.7
829.8553	685.3072	14306.95	13444.7
830.0001	687.4097	14244.95	13384.75
830.1449	689.5115	14186.7	13323.6
830.2898	691.6127	14144.15	13281.9
830.4346	693.7132	14098.35	13235.5
830.5794	695.8131	14064.8	13192
830.7243	697.9123	14044.1	13182.4
830.8691	700.0109	14015.7	13153
831.014	702.1089	14008.75	13143.9
831.1588	704.2061	14014.05	13150.2
831.3037	706.3028	14025.55	13162.25
831.4486	708.3987	14072.25	13209.7
831.5935	710.4941	14144.35	13279.15
831.7383	712.5887	14235.05	13370.95
831.8832	714.6827	14427.45	13557.65
832.0281	716.7761	14636.15	13773.9
832.173	718.8688	14948.75	14084.5
832.3179	720.9608	15094.3	14226.25
832.4628	723.0522	15221.75	14353.15
832.6077	725.1429	15091.15	14225.8
832.7527	727.233	14965.5	14103.65
832.8976	729.3224	14823.75	13956.05
833.0425	731.4112	14623.1	13755.35
833.1874	733.4993	14376.4	13507
833.3324	735.5867	14214.55	13348.2
833.4773	737.6735	14035.15	13166.25
833.6222	739.7596	13896.3	13029.85
833.7672	741.845	13778.35	12909
833.9122	743.9298	13698.05	12828.45
834.0571	746.014	13696.4	12830.35
834.2021	748.0974	13654.55	12786.6
834.347	750.1802	13652.15	12784.55
834.492	752.2624	13653	12782.7
834.637	754.3439	13673.55	12805.05
834.782	756.4247	13755.25	12878.7
834.9269	758.5048	13899.85	13029.95
835.0719	760.5843	14149.05	13281.15
835.2169	762.6631	14511	13641.3
835.3619	764.7413	15018.65	14150.2
835.5069	766.8188	15666.2	14794.75
835.6519	768.8956	16179.15	15307.8
835.7969	770.9718	16518	15647.1
835.9419	773.0473	16396	15525.35
836.0869	775.1221	16079.9	15210.5
836.232	777.1962	15701.3	14831.9
836.377	779.2697	15519.45	14646.3
836.522	781.3426	15546.15	14665.15
836.667	783.4147	15679	14809.3
836.8121	785.4862	15913.3	15044.15
836.9571	787.557	15859	14988.55
837.1021	789.6271	15427.7	14555.4
837.2472	791.6966	14817.75	13947.5
837.3922	793.7654	14195.7	13324.75
837.5373	795.8335	13814.85	12942.5
837.6823	797.901	13527.95	12655.55
837.8274	799.9678	13408.4	12535.55
837.9724	802.0339	13360.75	12492.25
838.1175	804.0993	13347.85	12465.95
838.2626	806.1641	13306.7	12434.4
838.4076	808.2282	13231.75	12360.45
838.5527	810.2916	13095.35	12219.45
838.6978	812.3544	13032.6	12161.25
838.8428	814.4164	12964.5	12093.85
838.9879	816.4778	12947.2	12072.15
839.133	818.5385	12955.1	12084.45
839.2781	820.5986	13045.25	12172.95
839.4232	822.658	13220.9	12349.4
839.5682	824.7166	13450.7	12579
839.7133	826.7747	13780.4	12908.35
839.8584	828.832	14110.5	13238.45
840.0035	830.8886	14358.5	13482.75
840.1486	832.9446	14508.75	13637
840.2937	834.9999	14431.85	13560.4
840.4388	837.0545	14290.2	13409.25
840.5839	839.1085	14091.2	13218.55
840.729	841.1618	13914	13036.75
840.8741	843.2143	13718.4	12844.65
841.0192	845.2662	13603.85	12733.7
841.1643	847.3175	13520.95	12646.35
841.3095	849.368	13385.75	12514.9
841.4546	851.4179	13278.95	12405.3
841.5997	853.467	13120.45	12245.35
841.7448	855.5155	13017.1	12144.2
841.8899	857.5633	12902.35	12030.2
842.0351	859.6105	12767.85	11893
842.1802	861.6569	12696.5	11820.9
842.3253	863.7027	12597.95	11723.3
842.4704	865.7478	12582.45	11705.25
842.6156	867.7922	12531.45	11658.25
842.7607	869.8359	12520.05	11643.25
842.9058	871.8789	12602.25	11726.7
843.0509	873.9212	12741	11833.45
843.1961	875.9629	12834.65	11960.05
843.3412	878.0039	12960.9	12082.1
843.4863	880.0441	13092.4	12214.05
843.6315	882.0837	13100.45	12225.25
843.7766	884.1226	13041.85	12162.75
843.9218	886.1609	12995.8	12121.2
844.0669	888.1984	12963.7	12088.65
844.212	890.2352	13007.7	12135.6
844.3572	892.2714	12985.1	12105.25
844.5023	894.3069	12901	12024.95
844.6475	896.3416	12797.25	11920.4
844.7926	898.3757	12691.1	11814.65
844.9377	900.4091	12611.55	11735.1
845.0829	902.4418	12606.05	11727.2
845.228	904.4739	12629.55	11750.8
845.3732	906.5052	12617.85	11740.65
845.5183	908.5358	12585.2	11707.85
845.6635	910.5658	12421.4	11541.25
845.8086	912.595	12187.7	11310.95
845.9538	914.6236	12027.4	11150.1
846.0989	916.6515	11928.6	11055.05
846.2441	918.6786	11866.4	10986.55
846.3892	920.7051	11866.4	10986.7
846.5344	922.7309	11937.1	11059.15
846.6795	924.756	11959.1	11080.35
846.8246	926.7804	12038.4	11156.85
846.9698	928.8041	12012.55	11132.3
847.1149	930.8272	12025.35	11145.3
847.2601	932.8495	11972.65	11095.3
847.4052	934.8711	11953.95	11073
847.5504	936.892	11824.85	10948.5
847.6955	938.9123	11745.85	10864.8
847.8407	940.9318	11651.2	10773.2
847.9858	942.9506	11579.15	10700.45
848.131	944.9688	11499.75	10619.1
848.2761	946.9862	11439.15	10560.15
848.4213	949.003	11279.5	10400.7
848.5664	951.019	11234.9	10356.85
848.7115	953.0344	11202	10324
848.8567	955.0491	11216.05	10337.9
849.0018	957.063	11255.45	10374.05
849.147	959.0763	11334.45	10456.3
849.2921	961.0888	11371.85	10491.1
849.4373	963.1007	11440.35	10561.9
849.5824	965.1119	11458.75	10581.65
849.7275	967.1223	11463.65	10585.05
849.8727	969.1321	11436.2	10557.1
850.0178	971.1412	11470.8	10591.45
850.1629	973.1495	11446.45	10567.9
850.3081	975.1572	11486.9	10571.9
850.4532	977.1641	11474.9	10594.75
850.5983	979.1704	11453.4	10575.35
850.7435	981.1759	11422.3	10537.5
850.8886	983.1808	11424.15	10544.8
851.0337	985.1849	11501.45	10612.9
851.1788	987.1884	11601.85	10719.9
851.324	989.1911	11737.65	10853.85
851.4691	991.1932	11835.8	10952.75
851.6142	993.1945	11867.85	10988.1
851.7593	995.1951	11831.4	10949.35
851.9045	997.1951	11797.25	10909.6
852.0496	999.1943	11717.6	10837.8
852.1947	1001.1928	11673.8	10792.6
852.3398	1003.1906	11682.9	10803.4
852.4849	1005.1877	11774.4	10892.3
852.63	1007.1841	11769.9	10889.6
852.7751	1009.1798	11735.2	10855.65
852.9202	1011.1748	11588.7	10707.05
853.0653	1013.1691	11413.6	10531.4
853.2104	1015.1627	11177.8	10296.05
853.3555	1017.1556	10959.95	10076.75
853.5006	1019.1477	10844.15	9961.25
853.6457	1021.1392	10733.2	9853.75
853.7908	1023.1299	10696.45	9814.75
853.9359	1025.12	10701.25	9820
854.081	1027.1093	10770.55	9890.25
854.2261	1029.0979	10845.8	9966.1
854.3712	1031.0859	10918.15	10037.3
854.5163	1033.0731	10919.8	10039.15
854.6613	1035.0596	10893.25	10010.9
854.8064	1037.0454	10756.25	9875.35
854.9515	1039.0304	10618.05	9738.6
855.0965	1041.0148	10480.3	9600.9
855.2416	1042.9985	10360.8	9479.45
855.3867	1044.9814	10304.3	9422.05
855.5317	1046.9636	10236.55	9353
855.6768	1048.9452	10217.9	9338.8
855.8219	1050.926	10260.65	9381.8
855.9669	1052.9061	10216.8	9333.5
856.112	1054.8855	10248.1	9367.1
856.257	1056.8642	10251.15	9371.8
856.4021	1058.8421	10285.5	9403.15
856.5471	1060.8194	10354.4	9472.15
856.6921	1062.7959	10381.7	9499.25
856.8372	1064.7717	10400.5	9516.7
856.9822	1066.7469	10431.4	9548.75
857.1272	1068.7213	10444.8	9560.85
857.2723	1070.695	10474.1	9593.1
857.4173	1072.6679	10473.6	9590.8
857.5623	1074.6402	10437.2	9555.55
857.7073	1076.6117	10395.75	9509.8
857.8523	1078.5826	10344.9	9465.1
857.9973	1080.5527	10268.95	9384.65
858.1423	1082.5221	10298.65	9415.1
858.2873	1084.4908	10383.85	9502
858.4323	1086.4587	10474.55	9594.3
858.5773	1088.426	10576.9	9694.05
858.7223	1090.3925	10557.9	9670.75
858.8673	1092.3584	10528.1	9645.35
859.0123	1094.3235	10484.25	9602.65
859.1573	1096.2879	10455.05	9573.35
859.3022	1098.2515	10507.35	9625.1
859.4472	1100.2145	10621.65	9739.8
859.5922	1102.1767	10738.85	9857.1
859.7371	1104.1382	10932.2	10048.6
859.8821	1106.099	11154.15	10269.65
860.027	1108.0591	11371.95	10490.8
860.172	1110.0185	11526.15	10641.2
860.3169	1111.9771	11607.15	10724.65
860.4619	1113.9351	11423.25	10540.5
860.6068	1115.8923	11183.25	10300.7
860.7517	1117.8488	10969.65	10081.75
860.8967	1119.8045	10695.8	9812.6
861.0416	1121.7596	10561.65	9678.95
861.1865	1123.7139	10472.95	9590.45
861.3314	1125.6675	10432.25	9552
861.4763	1127.6204	10466.75	9585.5
861.6212	1129.5726	10445.6	9563.8
861.7661	1131.524	10380.35	9497.25
861.911	1133.4748	10306.65	9422.7
862.0559	1135.4248	10163.5	9279.75
862.2008	1137.3741	10103.85	9222.85
862.3457	1139.3226	10028.35	9145.8
862.4905	1141.2705	9966.1	9085.5
862.6354	1143.2176	9868.15	8979.45
862.7803	1145.164	9829.5	8945.15
862.9251	1147.1097	9803.3	8919.45
863.07	1149.0546	9742.25	8856.8
863.2148	1150.9989	9626.15	8741.65
863.3597	1152.9424	9510.9	8628.65
863.5045	1154.8852	9363.1	8477.7
863.6493	1156.8272	9274.35	8391.1
863.7942	1158.7686	9269.8	8378.75
863.939	1160.7092	9261.1	8377.3
864.0838	1162.6491	9258.7	8374.9
864.2286	1164.5883	9346.05	8464.15
864.3734	1166.5267	9429.4	8546.2
864.5182	1168.4644	9612.15	8729.65
864.663	1170.4014	9796.1	8910.55
864.8078	1172.3377	10051.4	9169.75
864.9526	1174.2732	10306.1	9423.05
865.0974	1176.2081	10657.5	9775.85
865.2421	1178.1421	11003	10114
865.3869	1180.0755	11400.55	10518.25
865.5317	1182.0082	11624.2	10741.35
865.6764	1183.9401	11696.75	10811.7
865.8212	1185.8713	11562.05	10677.45
865.9659	1187.8017	11276.65	10394.1
866.1106	1189.7315	10940.3	10058.15
866.2554	1191.6605	10634.1	9724.2
866.4001	1193.5888	10365.85	9482.05
866.5448	1195.5163	10232.25	9349.45
866.6895	1197.4432	10136.2	9249.1
866.8342	1199.3693	10086.35	9204.6
866.9789	1201.2947	10063.7	9171.9
867.1236	1203.2193	10042.1	9157.8
867.2683	1205.1432	10029.95	9145.35
867.413	1207.0664	10002.15	9116.3
867.5576	1208.9889	10036.2	9148.15
867.7023	1210.9106	10037.95	9154.25
867.847	1212.8316	10065.1	9182.85
867.9916	1214.7519	10101.2	9207.7
868.1363	1216.6715	10103.8	9222.15
868.2809	1218.5903	10156.85	9273.2
868.4255	1220.5084	10157.55	9272.2
868.5701	1222.4257	10209.8	9323.05
868.7148	1224.3424	10210.2	9330.2
868.8594	1226.2583	10299.1	9408.9
869.004	1228.1735	10393.9	9507.8
869.1486	1230.0879	10472.55	9586.4
869.2932	1232.0016	10629.4	9745.95
869.4377	1233.9146	10698.85	9814.15
869.5823	1235.8269	10673.75	9790.65
869.7269	1237.7384	10540.5	9656.2
869.8715	1239.6492	10354.55	9470.9
870.016	1241.5592	10278.25	9393.65
870.1606	1243.4686	10249.8	9366
870.3051	1245.3772	10286.9	9401.8
870.4496	1247.285	10393.25	9507.25
870.5941	1249.1922	10446.75	9564.1
870.7387	1251.0986	10483.9	9602
870.8832	1253.0042	10506.2	9621.05
871.0277	1254.9092	10552.55	9667.8
871.1722	1256.8134	10643.6	9762.1
871.3167	1258.7169	10791.8	9907.3
871.4611	1260.6196	10962.5	10080.3
871.6056	1262.5216	11200.85	10315.7
871.7501	1264.4229	11375.55	10492.35
871.8945	1266.3234	11538.55	10655.65
872.039	1268.2232	11660.1	10773.65
872.1834	1270.1223	11669.25	10783.65
872.3278	1272.0207	11682.2	10796.5
872.4723	1273.9183	11649.75	10761.5
872.6167	1275.8151	11596.95	10712.25
872.7611	1277.7113	11512.45	10627.7
872.9055	1279.6067	11472.25	10589.15
873.0499	1281.5014	11528.6	10643.2
873.1943	1283.3953	11668.6	10780.2
873.3386	1285.2885	11915	11029.95
873.483	1287.181	12152.75	11265.4
873.6274	1289.0727	12421.65	11537.05
873.7717	1290.9637	12572.6	11685
873.9161	1292.854	12741.5	11858.55
874.0604	1294.7435	12793.3	11906.45
874.2047	1296.6323	12823.65	11939.6
874.349	1298.5204	12866.95	11979.35
874.4933	1300.4077	12886.4	11999.7
874.6376	1302.2943	12842	11960.3
874.7819	1304.1802	12746.05	11861.35
874.9262	1306.0653	12438.2	11553.9
875.0705	1307.9497	12114.95	11230.4
875.2147	1309.8333	11849.9	10964.9
875.359	1311.7162	11639.2	10754.05
875.5032	1313.5984	11593.6	10704.7
875.6475	1315.4798	11584.85	10688.25
875.7917	1317.3605	11606.5	10704.7
875.9359	1319.2405	11587.3	10700.65
876.0801	1321.1197	11472	10585.15
876.2243	1322.9982	11258.15	10370.95
876.3685	1324.876	11077.4	10194.65
876.5127	1326.753	10919.55	10032.75
876.6569	1328.6293	10804.45	9919.8
876.801	1330.5048	10746.2	9859.45
876.9452	1332.3796	10651.05	9767.8
877.0893	1334.2537	10601.6	9687.8
877.2335	1336.127	10535.05	9651.9
877.3776	1337.9996	10512	9627.65
877.5217	1339.8714	10507.9	9622.35
877.6658	1341.7426	10532.15	9603.9
877.8099	1343.6129	10498.1	9610.6
877.954	1345.4826	10448.9	9563.75
878.0981	1347.3515	10452.5	9563.85
878.2422	1349.2196	10417.3	9531.55
878.3862	1351.087	10458.8	9573.6
878.5303	1352.9537	10519	9633.5
878.6743	1354.8197	10623.5	9736.45
878.8184	1356.6849	10810	9923.45
878.9624	1358.5493	10932.35	10048.75
879.1064	1360.4131	11048.9	10163.1
879.2504	1362.276	11087.25	10203.7
879.3944	1364.1383	11053.2	10168.35
879.5384	1365.9998	10829.85	9937.7
879.6823	1367.8606	10471.45	9587.55
879.8263	1369.7206	10111.65	9225.3
879.9702	1371.5799	9807.85	8920.2
880.1142	1373.4384	9581.5	8695.95
880.2581	1375.2962	9379.35	8492.4
880.402	1377.1533	9092.55	8206.75
880.5459	1379.0096	8760.6	7874.6
880.6898	1380.8652	8431.2	7544.9
880.8337	1382.7201	8147.45	7260.2
880.9776	1384.5742	7893.15	7007.8
881.1215	1386.4275	7715.25	6829.6
881.2653	1388.2802	7579.3	6693.4
881.4092	1390.132	7488.35	6603
881.553	1391.9832	7418.2	6530.15
881.6968	1393.8336	7331.7	6445.65
881.8406	1395.6832	7258.9	6373.95
881.9844	1397.5322	7224.7	6338.85
882.1282	1399.3803	7218.35	6329.05
882.272	1401.2278	7218.75	6333.6
882.4158	1403.0745	7184.65	6299.1
882.5595	1404.9204	7187	6301.65
882.7033	1406.7656	7229.25	6343.65
882.847	1408.6101	7225.5	6340.85
882.9908	1410.4538	7253	6367.3
883.1345	1412.2968	7306.1	6420.9
883.2782	1414.139	7355	6470.65
883.4219	1415.9805	7437.95	6553.8
883.5656	1417.8213	7527.4	6635.6
883.7092	1419.6613	7625.7	6738.9
883.8529	1421.5006	7817.8	6930.4
883.9965	1423.3391	8048.8	7161.3
884.1402	1425.1769	8380.15	7492.35
884.2838	1427.0139	8825.55	7941.7
884.4274	1428.8502	9384.5	8497.5
884.571	1430.6858	9974.55	9090.25
884.7146	1432.5206	10369.8	9482.95
884.8582	1434.3547	10617.6	9731.55
885.0018	1436.188	10675.5	9789.55
885.1453	1438.0206	10541.7	9654.05
885.2889	1439.8524	10360.85	9474.8
885.4324	1441.6835	10258.25	9370.35
885.5759	1443.5139	10154.2	9264.9
885.7194	1445.3435	10074.95	9187.7
885.8629	1447.1724	10026.4	9141.65
886.0064	1449.0005	9985.55	9100
886.1499	1450.8279	9885.35	8997.9
886.2933	1452.6545	9874.05	8988.9
886.4368	1454.4804	9903.35	9018.75
886.5802	1456.3056	9880.4	8987.95
886.7237	1458.13	9806.85	8920.7
886.8671	1459.9536	9626.35	8740.05
887.0105	1461.7766	9278.5	8393.4
887.1539	1463.5987	8926.65	8042.05
887.2972	1465.4202	8563.55	7679.15
887.4406	1467.2409	8247.45	7362.4
887.584	1469.0608	7933.9	7049.2
887.7273	1470.88	7654.7	6769.9
887.8706	1472.6984	7416.7	6532.55
888.0139	1474.5161	7227.1	6340.95
888.1572	1476.3331	7064.45	6178.75
888.3005	1478.1493	6938.45	6052.6
888.4438	1479.9648	6843.75	5957.5
888.5871	1481.7795	6752.9	5867.9
888.7303	1483.5935	6678.85	5794.2
888.8736	1485.4067	6613.9	5727
889.0168	1487.2192	6580.7	5695.3
889.16	1489.031	6518.25	5631.3
889.3032	1490.842	6463.55	5579.85
889.4464	1492.6522	6457.75	5574.55
889.5896	1494.4618	6411.55	5524
889.7327	1496.2705	6362.6	5479.3
889.8759	1498.0785	6320.9	5433.1
890.019	1499.8858	6308.45	5423.85
890.1622	1501.6924	6283.9	5399.2
890.3053	1503.4981	6245.15	5360
890.4484	1505.3032	6191.3	5305.85
890.5914	1507.1075	6178.55	5292.65
890.7345	1508.911	6157.3	5271.65
890.8776	1510.7138	6104.8	5220.5
891.0206	1512.5159	6086	5200.4
891.1637	1514.3172	6032.15	5148.25
891.3067	1516.1178	5982.05	5097.2
891.4497	1517.9176	5966.55	5078.8
891.5927	1519.7166	5931.75	5047.05
891.7357	1521.515	5890.6	4996.75
891.8786	1523.3126	5874.3	4987.8
892.0216	1525.1094	5854	4967.35
892.1645	1526.9055	5834.7	4951.2
892.3074	1528.7008	5801.3	4915.95
892.4503	1530.4954	5773.6	4885.3
892.5932	1532.2893	5778.75	4895.05
892.7361	1534.0824	5753.05	4862.7
892.879	1535.8747	5757.65	4870.55
893.0218	1537.6663	5749.6	4863.1
893.1647	1539.4572	5717.7	4831.4
893.3075	1541.2473	5740.5	4853.85
893.4503	1543.0367	5731.6	4847.9
893.5931	1544.8253	5723.3	4833.6
893.7359	1546.6132	5748.65	4861.05
893.8787	1548.4003	5770.1	4874.75
894.0214	1550.1867	5800.55	4906.5
894.1642	1551.9723	5846.3	4956.9
894.3069	1553.7572	5889.35	5002.65
894.4496	1555.5414	5980.2	5095.2
894.5923	1557.3247	6078.55	5192.85
894.735	1559.1074	6180.3	5296.5
894.8777	1560.8893	6312.5	5429.05
895.0204	1562.6705	6410.4	5524.8
895.163	1564.4509	6538.15	5651.3
895.3056	1566.2305	6605.15	5720.9
895.4482	1568.0094	6678.5	5794.9
895.5908	1569.7876	6676.95	5791
895.7334	1571.565	6687.7	5801.65
895.876	1573.3417	6673.75	5789.15
896.0186	1575.1176	6656.05	5770.15
896.1611	1576.8928	6629.45	5742.05
896.3036	1578.6672	6581	5695.05
896.4461	1580.4409	6545.65	5663.35
896.5886	1582.2138	6498.65	5610.9
896.7311	1583.986	6459.25	5574.45
896.8736	1585.7575	6482.1	5598.6
897.0161	1587.5282	6444.65	5564.55
897.1585	1589.2981	6487.3	5601.85
897.3009	1591.0673	6511.85	5625
897.4433	1592.8358	6582.8	5697.9
897.5857	1594.6035	6620.9	5733.2
897.7281	1596.3704	6687.05	5799.2
897.8705	1598.1366	6741.1	5854.95
898.0128	1599.9021	6822.55	5937.2
898.1551	1601.6668	6900.9	6014.7
898.2975	1603.4308	6997.8	6112.1
898.4398	1605.194	7151.15	6261.2
898.5821	1606.9564	7307.05	6419.85
898.7243	1608.7182	7512.5	6623.45
898.8666	1610.4791	7724.85	6839.9
899.0088	1612.2394	7990.35	7106.85
899.1511	1613.9988	8228	7342.8
899.2933	1615.7576	8488.25	7603.9
899.4355	1617.5156	8690.8	7800.75
899.5776	1619.2728	8848.85	7964.45
899.7198	1621.0293	8863.55	7977.55
899.862	1622.785	8815	7926.55
900.0041	1624.54	8639.6	7752.8
900.1462	1626.2942	8396.75	7510.95
900.2883	1628.0477	8086.6	7199
900.4304	1629.8005	7813.9	6925.95
900.5725	1631.5525	7561.9	6676.35
900.7145	1633.3037	7326.95	6443
900.8566	1635.0542	7179.2	6293.2
900.9986	1636.804	7041.1	6157.05
901.1406	1638.553	7023.9	6068.2
901.2826	1640.3013	6935.3	6050.4
901.4245	1642.0488	6924.05	6038.4
901.5665	1643.7955	6942.6	6057.6
901.7085	1645.5416	7002.35	6117
901.8504	1647.2868	7100.25	6217.35
901.9923	1649.0313	7228.25	6344.85
902.1342	1650.7751	7360.15	6472.9
902.2761	1652.5181	7532.5	6649.8
902.4179	1654.2604	7729.2	6845.45
902.5598	1656.0019	7979.65	7095.3
902.7016	1657.7427	8258.1	7374.9
902.8434	1659.4828	8555.8	7673.5
902.9852	1661.222	8710.7	7824.4
903.127	1662.9606	8705.55	7822.75
903.2687	1664.6984	8467.5	7583.9
903.4105	1666.4354	8080.7	7197.85
903.5522	1668.1717	7491	6608.15
903.6939	1669.9072	6944.1	6061.15
903.8356	1671.642	6504.7	5618.85
903.9773	1673.3761	6107.65	5223.25
904.119	1675.1094	5817.9	4931.9
904.2606	1676.8419	5577.15	4692.2
904.4022	1678.5737	5379.1	4495.5
904.5439	1680.3048	5247.1	4364.6
904.6855	1682.0351	5130.55	4246.85
904.827	1683.7646	5034.7	4145.7
904.9686	1685.4934	4944.85	4061.45
905.1101	1687.2215	4902.55	4018.15
905.2517	1688.9488	4838.9	3956.75
905.3932	1690.6754	4789.85	3907.1
905.5347	1692.4012	4742.25	3859.45
905.6761	1694.1263	4705.25	3821.2
905.8176	1695.8506	4671.45	3788.15
905.9591	1697.5742	4628.5	3746.6
906.1005	1699.297	4597.9	3713.45
906.2419	1701.0191	4565.95	3679.8
906.3833	1702.7404	4531.1	3647.9
906.5246	1704.461	4505.65	3621.3
906.666	1706.1808	4497.2	3610.8
906.8073	1707.8999	4456.1	3569.95
906.9487	1709.6182	4437.05	3551.1
907.09	1711.3358	4403.95	3520.5
907.2313	1713.0527	4384.5	3503.95
907.3725	1714.7688	4371.8	3480.15
907.5138	1716.4841	4346.05	3462.35
907.655	1718.1987	4345.4	3458.65
907.7962	1719.9126	4314.5	3432.05
907.9374	1721.6257	4301.9	3415.65
908.0786	1723.338	4295.8	3411.9
908.2198	1725.0496	4270.25	3385.3
908.3609	1726.7605	4253.9	3368.15
908.502	1728.4706	4233.05	3348.9
908.6431	1730.18	4212.45	3324.95
908.7842	1731.8886	4215.5	3331.3
908.9253	1733.5964	4202.15	3312.35
909.0664	1735.3036	4172.95	3286.3
909.2074	1737.0099	4170.7	3287.65
909.3484	1738.7156	4147.55	3264.8
909.4894	1740.4204	4117.4	3230.5
909.6304	1742.1246	4113.3	3225.35
909.7714	1743.8279	4077.65	3195.25
909.9123	1745.5306	4072.8	3189.5
910.0532	1747.2325	4043.25	3160.1
910.1941	1748.9336	4031.8	3147.95
910.335	1750.634	4017.6	3132.35
910.4759	1752.3336	4013.55	3129.05
910.6168	1754.0325	4004.25	3123.7
910.7576	1755.7307	3988.1	3103.95
910.8984	1757.4281	3989.05	3106.5
911.0392	1759.1247	3980.4	3087.15
911.18	1760.8206	3972	3083.3
911.3208	1762.5158	3954.55	3069.15
911.4615	1764.2102	3930.25	3048.2
911.6022	1765.9039	3909.9	3025.65
911.7429	1767.5968	3935.35	3052.85
911.8836	1769.289	3919.3	3036.05
912.0243	1770.9804	3905.65	3021.6
912.1649	1772.6711	3897.8	3013.2
912.3056	1774.361	3898.3	3015.85
912.4462	1776.0502	3887.4	3004.4
912.5868	1777.7386	3876.25	2987.95
912.7274	1779.4263	3863.1	2979.45
912.8679	1781.1132	3844.8	2961.55
913.0084	1782.7994	3849.9	2964.9
913.149	1784.4849	3841.25	2957.1
913.2895	1786.1696	3850.4	2948.9
913.4299	1787.8535	3825.55	2940.55
913.5704	1789.5367	3816.65	2934.25
913.7108	1791.2192	3801.55	2917.75
913.8513	1792.9009	3796.9	2896.1
913.9917	1794.5818	3791.1	2906.1
914.132	1796.2621	3785.65	2902.1
914.2724	1797.9415	3760.5	2878.4
914.4128	1799.6202	3760.5	2878.9
914.5531	1801.2982	3752.05	2869.75
914.6934	1802.9755	3743.3	2859
914.8337	1804.6519	3747.4	2863.05
914.9739	1806.3277	3741.4	2858.8
915.1142	1808.0027	3704.2	2821.7
915.2544	1809.6769	3708.15	2823.85
915.3946	1811.3504	3707.6	2822.3
915.5348	1813.0231	3703.4	2819.8
915.675	1814.6951	3707.7	2823.55
915.8151	1816.3664	3713.45	2828.45
915.9553	1818.0369	3699.2	2816.25
916.0954	1819.7067	3679.1	2795.95
916.2355	1821.3757	3680.2	2794.25
916.3755	1823.044	3660.55	2777.65
916.5156	1824.7115	3649.9	2765.85
916.6556	1826.3783	3647.3	2765.7
916.7956	1828.0443	3629.6	2746.5
916.9356	1829.7096	3632.45	2746.65
917.0756	1831.3741	3641.05	2754.35
917.2155	1833.0379	3623.95	2739.3
917.3555	1834.701	3612.4	2725.8
917.4954	1836.3633	3604.65	2718.35
917.6353	1838.0248	3604.55	2717.2
917.7751	1839.6856	3600.1	2718.65
917.915	1841.3457	3595.3	2712.2
918.0548	1843.005	3591.95	2710.35
918.1946	1844.6636	3582.65	2700.55
918.3344	1846.3214	3576.95	2692.95
918.4742	1847.9785	3568.25	2685.75
918.6139	1849.6349	3570.7	2686.75
918.7537	1851.2904	3560.35	2668.05
918.8934	1852.9453	3560.65	2677.2
919.0331	1854.5994	3550.85	2666.55
919.1727	1856.2528	3558.65	2668.4
919.3124	1857.9054	3540.5	2658.45
919.452	1859.5572	3542.15	2659.85
919.5916	1861.2083	3526.55	2640.7
919.7312	1862.8587	3532.15	2650.1
919.8708	1864.5084	3520.2	2637.1
920.0103	1866.1572	3499.1	2617.5
920.1498	1867.8054	3494.85	2610.25
920.2893	1869.4528	3493.35	2608.9
920.4288	1871.0994	3476.4	2592.45
920.5683	1872.7453	3473.35	2589.95
920.7077	1874.3905	3479.25	2579.05
920.8471	1876.0349	3462.6	2578.9
920.9865	1877.6786	3470.2	2587.55
921.1259	1879.3215	3452	2569.35
921.2653	1880.9637	3454.3	2569.9
921.4046	1882.6051	3458.95	2575.85
921.5439	1884.2458	3442.45	2557.95
921.6832	1885.8858	3423.2	2539.65
921.8225	1887.525	3419.45	2534.4
921.9617	1889.1634	3413.3	2529.45
922.101	1890.8011	3390.3	2507.7
922.2402	1892.4381	3389.8	2507.35
922.3794	1894.0743	3399.35	2517.1
922.5185	1895.7098	3389.65	2506.35
922.6577	1897.3446	3376.75	2492.9
922.7968	1898.9786	3374.25	2487
922.9359	1900.6118	3364.4	2481.65
923.075	1902.2443	3357.75	2473.15
923.214	1903.8761	3354.35	2470.3
923.3531	1905.5071	3338.3	2453.95
923.4921	1907.1374	3351.65	2466.25
923.6311	1908.7669	3328.7	2443.95
923.77	1910.3957	3315.85	2434.05
923.909	1912.0237	3323.6	2438.35
924.0479	1913.651	3304.25	2418.95
924.1868	1915.2776	3307.55	2425.7
924.3257	1916.9034	3296.95	2416.15
924.4646	1918.5285	3288.1	2405.9
924.6034	1920.1528	3276.55	2393.7
924.7422	1921.7764	3280.05	2397.65
924.881	1923.3992	3255.1	2372.85
925.0198	1925.0213	3247.35	2362.65
925.1586	1926.6427	3242.05	2359.95
925.2973	1928.2633	3421.9	2308.3
925.436	1929.8832	3266.9	2379.45
925.5747	1931.5023	3217.4	2333.2
925.7134	1933.1207	3214.25	2332.35
925.852	1934.7383	3205.45	2320.8
925.9906	1936.3552	3211.1	2328
926.1292	1937.9714	3193.75	2310.4
926.2678	1939.5868	3178.3	2292.85
926.4064	1941.2015	3171.65	2288.55
926.5449	1942.8154	3158.35	2272.75
926.6834	1944.4286	3161.4	2278.35
926.8219	1946.041	3152.7	2245.45
926.9604	1947.6528	3146.4	2257.15
927.0988	1949.2637	3127.3	2245.1
927.2372	1950.8739	3133.5	2250.1
927.3756	1952.4834	3105.15	2221.45
927.514	1954.0921	3119.95	2235.4
927.6523	1955.7001	3099.85	2214.2
927.7907	1957.3074	3103.1	2219.45
927.929	1958.9139	3089.15	2206.6
928.0673	1960.5197	3085.6	2199.65
928.2055	1962.1247	3072.65	2189.35
928.3438	1963.729	3062.45	2179.9
928.482	1965.3325	3074	2167.15
928.6202	1966.9353	3037.05	2154.1
928.7584	1968.5374	3032.6	2146.6
928.8965	1970.1387	3030.75	2147.15
929.0346	1971.7393	3014.9	2131.2
929.1727	1973.3392	3004.5	2120.3
929.3108	1974.9383	3006.15	2123.95
929.4489	1976.5366	2999.1	2116.5
929.5869	1978.1342	3004.4	2120.3
929.7249	1979.7311	2983.7	2098.2
929.8629	1981.3273	2976.4	2092.8
930.0009	1982.9227	2984.05	2099.7
930.1388	1984.5173	2970.7	2085.85
930.2767	1986.1112	2956.05	2073.95
930.4146	1987.7044	2959	2077.1
930.5525	1989.2968	2940.55	2056.35
930.6904	1990.8885	2936.8	2050.2
930.8282	1992.4795	2933.45	2047.45
930.966	1994.0697	2917.55	2034.9
931.1038	1995.6592	2920.1	2035.55
931.2415	1997.2479	2912.75	2029.15
931.3793	1998.8359	2901.2	2019.1
931.517	2000.4232	2906.9	2023.75
931.6547	2002.0097	2902	2017
931.7923	2003.5955	2882.9	1998.9
931.93	2005.1805	2898.15	2012.35
932.0676	2006.7648	2882.25	1999.2
932.2052	2008.3484	2883.6	1998.3
932.3427	2009.9312	2883.05	1996.1
932.4803	2011.5133	2872.35	1991.75
932.6178	2013.0946	2862.05	1979.85
932.7553	2014.6752	2859.45	1976.4
932.8928	2016.2551	2859.45	1973.95
933.0302	2017.8342	2847.45	1963.4
933.1676	2019.4126	2844.5	1962.15
933.305	2020.9902	2848.25	1966.9
933.4424	2022.5672	2833.8	1947.95
933.5798	2024.1433	2841.35	1951.1
933.7171	2025.7188	2819.45	1936.05
933.8544	2027.2935	2813.5	1929.55
933.9917	2028.8674	2802.6	1918
934.129	2030.4406	2806.65	1924.05
934.2662	2032.0131	2795.9	1912.05
934.4034	2033.5849	2783.65	1889.25
934.5406	2035.1559	2792.65	1910.65
934.6778	2036.7261	2787.1	1906.25
934.8149	2038.2957	2784.1	1898.9
934.952	2039.8645	2764.3	1882.15
935.0891	2041.4325	2772.55	1886.35
935.2262	2042.9998	2762.6	1880.7
935.3632	2044.5664	2763	1876.55
935.5002	2046.1323	2751.7	1868.1
935.6372	2047.6974	2744.35	1862
935.7742	2049.2617	2752.5	1870.05
935.9111	2050.8254	2773.5	1857.6
936.048	2052.3883	2747.85	1862.95
936.1849	2053.9504	2729.8	1846.5
936.3218	2055.5118	2731.8	1846.65
936.4586	2057.0725	2722	1834.4
936.5955	2058.6325	2721.25	1837.3
936.7323	2060.1917	2705.55	1822.95
936.869	2061.7502	2703	1813.4
937.0058	2063.3079	2692.1	1808.35
937.1425	2064.8649	2682.6	1795.05
937.2792	2066.4212	2684.55	1800.6
937.4159	2067.9767	2674.9	1793.25
937.5525	2069.5315	2667.5	1784.55
937.6891	2071.0856	2660.5	1778.8
937.8257	2072.6389	2654.3	1767
937.9623	2074.1915	2649.15	1766
938.0989	2075.7433	2657.05	1771.25
938.2354	2077.2945	2639.8	1758.05
938.3719	2078.8448	2645.45	1762.05
938.5084	2080.3945	2632	1749.6
938.6448	2081.9434	2621	1735.8
938.7812	2083.4916	2616.95	1730.35
938.9176	2085.039	2606.45	1722.7
939.054	2086.5857	2612.55	1726.8
939.1903	2088.1317	2597.3	1713.2
939.3267	2089.677	2597.95	1716.3
939.463	2091.2215	2587.3	1705.55
939.5992	2092.7652	2598.5	1714.05
939.7355	2094.3083	2577.15	1694.3
939.8717	2095.8506	2583.45	1700.15
940.0079	2097.3921	2577.55	1695.15
940.1441	2098.933	2563.5	1681.8
940.2802	2100.4731	2568.95	1684.2
940.4163	2102.0124	2583.65	1682.2
940.5524	2103.5511	2576.7	1692.5
940.6885	2105.089	2569.4	1685.6
940.8245	2106.6261	2556.95	1673.7
940.9606	2108.1626	2568.15	1682.15
941.0965	2109.6983	2569.5	1658.4
941.2325	2111.2332	2549.05	1665
941.3684	2112.7675	2553.85	1670.3
941.5044	2114.301	2542.7	1658.55
941.6403	2115.8337	2537.15	1654.65
941.7761	2117.3657	2535.25	1650.25
941.912	2118.897	2537.7	1653.7
942.0478	2120.4276	2530.25	1639.15
942.1835	2121.9575	2510.3	1624.9
942.3193	2123.4866	2525.35	1627.9
942.455	2125.0149	2521.3	1634.25
942.5907	2126.5426	2498.8	1614.55
942.7264	2128.0695	2496.55	1607.85
942.8621	2129.5956	2490.65	1606.55
942.9977	2131.1211	2474.15	1585.6
943.1333	2132.6458	2487.6	1605.1
943.2689	2134.1698	2474.6	1591.25
943.4044	2135.693	2473.8	1587.25
943.54	2137.2155	2473.45	1587
943.6755	2138.7373	2472.55	1586.8
943.8109	2140.2584	2466.9	1583.5
943.9464	2141.7787	2466.45	1574.95
944.0818	2143.2983	2457.8	1573.65
944.2172	2144.8171	2447.65	1563.55
944.3526	2146.3353	2444.45	1558.65
944.4879	2147.8527	2424.3	1541.3
944.6232	2149.3693	2427.95	1543.95
944.7585	2150.8853	2424.85	1541.35
944.8938	2152.4005	2420.15	1536.8
945.029	2153.9149	2424.85	1541.15
945.1642	2155.4287	2415.45	1531.1
945.2994	2156.9417	2409.55	1524.95
945.4346	2158.454	2406.5	1518.05
945.5697	2159.9655	2401.4	1518.3
945.7048	2161.4764	2406.75	1520.8
945.8399	2162.9865	2397.7	1514.45
945.9749	2164.4958	2394.7	1508.6
946.1099	2166.0045	2387.65	1500.15
946.2449	2167.5124	2392	1508.7
946.3799	2169.0195	2395.05	1511.4
946.5148	2170.526	2378.2	1493.9
946.6498	2172.0317	2381.05	1496.95
946.7846	2173.5367	2381.4	1497.55
946.9195	2175.0409	2368.8	1484.15
947.0543	2176.5445	2367.05	1482.9
947.1891	2178.0473	2363.1	1479.4
947.3239	2179.5494	2364.8	1477.95
947.4587	2181.0507	2348.05	1463.1
947.5934	2182.5513	2342.55	1457.8
947.7281	2184.0512	2347.9	1464.95
947.8628	2185.5504	2346.75	1461.1
947.9974	2187.0488	2334.05	1448.45
948.132	2188.5465	2325.8	1441.6
948.2666	2190.0435	2324.1	1439.35
948.4012	2191.5397	2322.1	1437.95
948.5357	2193.0353	2331.35	1449.3
948.6702	2194.5301	2305.85	1420.55
948.8047	2196.0241	2305.65	1423.1
948.9392	2197.5175	2296.6	1415
949.0736	2199.0101	2295.45	1407.05
949.208	2200.502	2297.35	1415.4
949.3424	2201.9931	2280.8	1395.75
949.4767	2203.4835	2287.35	1404.9
949.611	2204.9733	2275.95	1385
949.7453	2206.4622	2293.4	1407.9
949.8796	2207.9505	2283.2	1396.45
950.0138	2209.438	2261.5	1379.15
950.148	2210.9248	2258.8	1373.35
950.2822	2212.4109	2251.3	1368.15
950.4164	2213.8962	2245.65	1359.65
950.5505	2215.3809	2252.9	1367.95
950.6846	2216.8648	2251.05	1365.95
950.8186	2218.3479	2251.05	1363.3
950.9527	2219.8304	2237.15	1353.05
951.0867	2221.3121	2225.75	1341.4
951.2207	2222.7931	2229.4	1344.6
951.3546	2224.2733	2219.9	1334.4
951.4886	2225.7529	2209.85	1325
951.6225	2227.2317	2218.25	1331.1
951.7563	2228.7098	2208.3	1324.25
951.8902	2230.1872	2203.6	1319.25
952.024	2231.6638	2205.05	1319.35
952.1578	2233.1397	2197.95	1306.6
952.2916	2234.6149	2200.3	1319.55
952.4253	2236.0894	2196.1	1313.9
952.559	2237.5632	2191.8	1297.9
952.6927	2239.0362	2176.3	1291.75
952.8263	2240.5085	2183.15	1299
952.9599	2241.9801	2172.1	1289.95
953.0935	2243.4509	2168.1	1283.5
953.2271	2244.921	2157.65	1273.9
953.3606	2246.3904	2156.85	1270.2
953.4941	2247.8591	2151.35	1267.7
953.6276	2249.3271	2133.8	1250.75
953.7611	2250.7943	2144.15	1258.4
953.8945	2252.2608	2136.7	1253.9
954.0279	2253.7266	2134.05	1250.4
954.1612	2255.1917	2135.55	1251.15
954.2946	2256.656	2122.65	1237.7
954.4279	2258.1197	2125.8	1240.65
954.5612	2259.5826	2124.45	1238.95
954.6944	2261.0447	2123.2	1237.4
954.8276	2262.5062	2117.75	1232.9
954.9608	2263.9669	2107.85	1221.9
955.094	2265.4269	2114.25	1230.55
955.2271	2266.8862	2102.65	1218
955.3602	2268.3448	2101.6	1217.25
955.4933	2269.8026	2105.85	1221.35
955.6264	2271.2598	2092.95	1209.8
955.7594	2272.7162	2095.05	1212.05
955.8924	2274.1719	2094.75	1211.45
956.0253	2275.6268	2085.6	1199.7
956.1583	2277.0811	2089.6	1205.55
956.2912	2278.5346	2077.75	1194.35
956.4241	2279.9874	2084.3	1199.1
956.5569	2281.4395	2079.9	1196.25
956.6897	2282.8908	2078.8	1187.3
956.8225	2284.3414	2069.1	1182.25
956.9553	2285.7914	2074.45	1190.9
957.088	2287.2406	2060.2	1175.55
957.2207	2288.689	2062.25	1178.9
957.3534	2290.1368	2052.25	1169
957.486	2291.5838	2065.75	1178.15
957.6186	2293.0302	2058.15	1172
957.7512	2294.4758	2060.3	1178.55
957.8838	2295.9206	2048.15	1162.1
958.0163	2297.3648	2039.25	1155.9
958.1488	2298.8082	2037.85	1153.25
958.2813	2300.251	2030.8	1146.3
958.4137	2301.693	2031.35	1144.7
958.5461	2303.1343	2039.75	1155.55
958.6785	2304.5748	2033.35	1148.75
958.8108	2306.0147	2022.9	1137.3
958.9432	2307.4538	2019.9	1134.05
959.0754	2308.8922	2007.7	1125.6
959.2077	2310.3299	2007.6	1121.75
959.3399	2311.7669	2013.9	1130.05
959.4721	2313.2031	2011.2	1125.9
959.6043	2314.6387	2000.85	1116.75
959.7365	2316.0735	1994.6	1109.1
959.8686	2317.5076	1987.2	1102.8
960.0006	2318.941	1983.5	1100.3
960.1327	2320.3737	1995.55	1111.9
960.2647	2321.8056	1993.9	1108.6
960.3967	2323.2369	1979.55	1094.5
960.5287	2324.6674	1983.4	1098.35
960.6606	2326.0972	1979.25	1093.15
960.7925	2327.5263	1966.15	1082.9
960.9244	2328.9547	1970.55	1086.3
961.0562	2330.3823	1969.05	1082.65
961.1881	2331.8092	1979.95	1092.5
961.3198	2333.2355	1960.4	1076.3
961.4516	2334.661	1968.65	1082.85
961.5833	2336.0858	1958.05	1072.65
961.715	2337.5098	1952.1	1067.4
961.8467	2338.9332	1946.65	1062.8
961.9783	2340.3558	1947.55	1059.05
962.1099	2341.7778	1946.3	1060.85
962.2415	2343.199	1938.85	1054.15
962.373	2344.6195	1936.4	1049.95
962.5045	2346.0393	1940	1056.8
962.636	2347.4583	1941.35	1057.6
962.7675	2348.8767	1933.2	1048.95
962.8989	2350.2943	1944.15	1058.9
963.0303	2351.7113	1933.2	1050.7
963.1617	2353.1275	1921	1037.05
963.293	2354.543	1956.8	1048.35
963.4243	2355.9578	1923.45	1039.45
963.5556	2357.3718	1923.4	1040.05
963.6868	2358.7852	1923.2	1036.55
963.818	2360.1978	1909.55	1023.75
963.9492	2361.6098	1907.6	1024.95
964.0803	2363.021	1915.15	1025.9
964.2114	2364.4315	1904.1	1021.35
964.3425	2365.8413	1895.3	1011.05
964.4736	2367.2504	1902.25	1018.1
964.6046	2368.6587	1901.7	1017.6
964.7356	2370.0664	1885.75	1002.45
964.8666	2371.4733	1890.3	1008.2
964.9975	2372.8795	1874.25	989.7
965.1284	2374.285	1882.15	996.9
965.2593	2375.6899	1873.85	988.75
965.3901	2377.0939	1871.4	988.2
965.5209	2378.4973	1864.45	981.9
965.6517	2379.9	1872.55	987.55
965.7825	2381.3019	1861	976.1
965.9132	2382.7032	1859.65	977.65
966.0439	2384.1037	1860.95	977.85
966.1745	2385.5035	1849.3	965.6
966.3051	2386.9027	1854.05	971.6
966.4357	2388.3011	1854.05	967.8
966.5663	2389.6987	1850.65	968.25
966.6968	2391.0957	1842.55	959.65
966.8273	2392.492	1835.75	954.1
966.9578	2393.8876	1824.4	940.55
967.0882	2395.2824	1828.8	944.45
967.2186	2396.6765	1821.25	940.45
967.349	2398.07	1823.5	939.6
967.4793	2399.4627	1833.3	948.75
967.6097	2400.8547	1815.3	929.65
967.7399	2402.246	1813.75	923.85
967.8702	2403.6366	1809.4	927.45
968.0004	2405.0265	1821.25	938.65
968.1306	2406.4156	1815.15	926.9
968.2607	2407.8041	1799.35	913
968.3909	2409.1918	1798.6	913.1
968.521	2410.5789	1790.85	906.5
968.651	2411.9652	1796.3	910.9
968.781	2413.3508	1797.1	914.7
968.911	2414.7358	1787.15	905.9
969.041	2416.12	1783.9	902.2
969.1709	2417.5035	1790.65	909.5
969.3008	2418.8863	1789.2	903.9
969.4307	2420.2684	1787.3	902.7
969.5606	2421.6497	1774.15	890.4
969.6904	2423.0304	1757.35	875.45
969.8201	2424.4104	1771.45	887.9
969.9499	2425.7896	1766.3	881.9
970.0796	2427.1682	1770.6	888.5
970.2093	2428.546	1756.95	872.35
970.3389	2429.9232	1765.45	880.15
970.4685	2431.2996	1767.5	883.05
970.5981	2432.6753	1756.55	872.7
970.7277	2434.0503	1752.55	868.55
970.8572	2435.4246	1742.15	859.15
970.9867	2436.7982	1745.7	860.6
971.1161	2438.1711	1744.7	862.9
971.2456	2439.5433	1743.05	858.15
971.375	2440.9148	1742.2	853.15
971.5043	2442.2856	1730.75	846.9
971.6336	2443.6557	1732.9	846.95
971.7629	2445.025	1724.7	839.8
971.8922	2446.3937	1724.5	841.1
972.0214	2447.7617	1732.15	847.25
972.1506	2449.1289	1728.25	845.6
972.2798	2450.4955	1726.5	840.15
972.4089	2451.8613	1712.9	829.95
972.538	2453.2265	1718.65	834.9
972.6671	2454.5909	1722	837.7
972.7961	2455.9546	1711.6	829.05
972.9251	2457.3177	1704.5	820.7
973.0541	2458.68	1707.6	821.1
973.1831	2460.0416	1706	822
973.312	2461.4025	1708.6	822.15
973.4408	2462.7627	1717	821.7
973.5697	2464.1222	1702.9	820.5
973.6985	2465.4811	1698.25	814.2
973.8273	2466.8392	1699.95	817.2
973.956	2468.1966	1707.5	820.6
974.0847	2469.5533	1709.75	824.8
974.2134	2470.9093	1703.4	818.4
974.3421	2472.2645	1701.45	815.95
974.4707	2473.6191	1684.05	800.8
974.5993	2474.973	1676.75	794.2
974.7278	2476.3262	1691.3	804
974.8563	2477.6787	1678.5	795.75
974.9848	2479.0305	1682.3	799.1
975.1132	2480.3816	1686.9	801.2
975.2417	2481.7319	1682.2	798.05
975.37	2483.0816	1670.55	786
975.4984	2484.4306	1676.5	792.75
975.6267	2485.7789	1669.7	786.15
975.755	2487.1264	1667.2	781.7
975.8833	2488.4733	1659.05	776.8
976.0115	2489.8195	1671	769.75
976.1397	2491.165	1658.4	769.05
976.2678	2492.5097	1658.8	772.8
976.3959	2493.8538	1658.85	774.9
976.524	2495.1972	1649.75	766.3
976.6521	2496.5398	1649.05	764.7
976.7801	2497.8818	1649.7	762.4
976.9081	2499.2231	1634.6	748.55
977.036	2500.5637	1642.7	757.4
977.164	2501.9035	1639.55	754.3
977.2918	2503.2427	1633.35	745.65
977.4197	2504.5812	1642.8	760.05
977.5475	2505.919	1636.6	750.9
977.6753	2507.256	1635.7	752.65
977.8031	2508.5924	1629.2	746.2
977.9308	2509.9281	1630.85	742.6
978.0585	2511.2631	1630.35	746.55
978.1861	2512.5974	1628.85	745.5
978.3137	2513.9309	1623.3	740.8
978.4413	2515.2638	1649.25	738.7
978.5689	2516.596	1617.1	734.05
978.6964	2517.9275	1618.4	734.75
978.8239	2519.2583	1618.95	731.85
978.9513	2520.5884	1608.7	724.45
979.0788	2521.9178	1610.3	727.3
979.2062	2523.2465	1609.2	726.6
979.3335	2524.5745	1597.55	714
979.4608	2525.9018	1601.6	718.1
979.5881	2527.2284	1604.15	719.8
979.7154	2528.5543	1606.3	723.35
979.8426	2529.8796	1593.75	710.85
979.9698	2531.2041	1600.2	718.05
980.0969	2532.5279	1602.65	719.25
980.224	2533.851	1597.5	714.25
980.3511	2535.1735	1595.6	711
980.4781	2536.4952	1600.9	716.85
980.6052	2537.8163	1595.65	710.35
980.7321	2539.1366	1585.05	700.7
980.8591	2540.4562	1592.95	706.9
980.986	2541.7752	1584.35	702.85
981.1129	2543.0935	1587.45	702
981.2397	2544.411	1591.5	708.3
981.3665	2545.7279	1584.45	701.55
981.4933	2547.0441	1572.95	688.6
981.62	2548.3596	1582.45	695.9
981.7467	2549.6744	1575.45	691.75
981.8734	2550.9885	1580.75	696.5
982.0001	2552.3019	1572.6	688.25
982.1267	2553.6146	1576.9	693.4
982.2532	2554.9266	1580.8	697.5
982.3798	2556.2379	1575.8	691.75
982.5063	2557.5485	1559.15	676.7
982.6327	2558.8585	1575.25	683.95
982.7592	2560.1677	1567.75	680.05
982.8856	2561.4762	1563.2	677.7
983.0119	2562.7841	1568.05	681.9
983.1383	2564.0913	1559.75	676.85
983.2646	2565.3977	1561.75	678.35
983.3908	2566.7035	1552.25	669.35
983.517	2568.0086	1553.85	668.35
983.6432	2569.313	1557.9	671.2
983.7694	2570.6167	1555.75	669
983.8955	2571.9197	1545.9	663.2
984.0216	2573.222	1549.85	664.15
984.1476	2574.5236	1553.25	668.65
984.2737	2575.8246	1552.85	667.1
984.3996	2577.1248	1561.6	675.05
984.5256	2578.4244	1549.45	665.8
984.6515	2579.7232	1559.45	675.4
984.7774	2581.0214	1580.9	666.05
984.9032	2582.3189	1551.95	668.9
985.029	2583.6157	1544.9	657.35
985.1548	2584.9118	1561.6	676.2
985.2806	2586.2072	1545.05	661
985.4063	2587.5019	1550.15	666.8
985.5319	2588.7959	1555.55	670.5
985.6576	2590.0893	1555.25	669.8
985.7832	2591.3819	1557.25	673.4
985.9087	2592.6739	1550.55	666.9
986.0343	2593.9652	1551	666.6
986.1597	2595.2557	1553.3	669.1
986.2852	2596.5456	1549.15	662.65
986.4106	2597.8348	1548.15	665.5
986.536	2599.1234	1551.85	670.55
986.6614	2600.4112	1548.75	667.85
986.7867	2601.6983	1560.2	672.9
986.912	2602.9848	1555.95	673.3
987.0372	2604.2705	1557.9	668.35
987.1624	2605.5556	1546.85	665
987.2876	2606.84	1546.1	663.4
987.4128	2608.1237	1546.75	660.8
987.5379	2609.4067	1539	653.4
987.6629	2610.689	1550.15	656.9
987.788	2611.9707	1535.9	647.65
987.913	2613.2516	1541.2	650.25
988.0379	2614.5319	1532.1	649.8
988.1629	2615.8115	1526.95	644.1
988.2878	2617.0903	1522.5	637.95
988.4126	2618.3685	1529.4	644.8
988.5375	2619.6461	1518.7	633.9
988.6622	2620.9229	1519.9	636.45
988.787	2622.199	1529.45	644.5
988.9117	2623.4745	1525.85	642.45
989.0364	2624.7493	1520.4	638.2
989.161	2626.0234	1512.45	628.4
989.2857	2627.2968	1512.55	629.1
989.4102	2628.5695	1522.85	637.05
989.5348	2629.8415	1514.4	632.95
989.6593	2631.1128	1517.35	632.8
989.7837	2632.3835	1511.75	629.9
989.9082	2633.6535	1512.5	626.75
990.0326	2634.9228	1517.35	632.3
990.1569	2636.1914	1512.1	629.25
990.2812	2637.4593	1518.5	632.8
990.4055	2638.7265	1507.25	624.65
990.5298	2639.9931	1500.6	617.35
990.654	2641.259	1504.95	622.75
990.7782	2642.5242	1510.6	624.6
990.9023	2643.7887	1503	619
991.0264	2645.0525	1493.4	610.35
991.1505	2646.3156	1497.5	612
991.2745	2647.5781	1498.85	616.5
991.3985	2648.8398	1491.9	608.45
991.5225	2650.1009	1523.45	601.75
991.6464	2651.3613	1492.9	610.85
991.7703	2652.6211	1494.75	612.75
991.8942	2653.8801	1489	606.75
992.018	2655.1385	1487.95	602.3
992.1418	2656.3961	1488.2	604.4
992.2655	2657.6531	1482.95	600.5
992.3892	2658.9094	1486.3	602.65
992.5129	2660.1651	1483.65	600.25
992.6366	2661.42	1485.25	600.65
992.7602	2662.6743	1485.35	599.95
992.8837	2663.9279	1490.25	608.45
993.0073	2665.1808	1489.75	606.1
993.1307	2666.433	1500.75	615.25
993.2542	2667.6846	1486.4	602.7
993.3776	2668.9354	1503.8	615.8
993.501	2670.1856	1498.4	613.5
993.6244	2671.4351	1495.55	612.1
993.7477	2672.6839	1505.1	620.35
993.8709	2673.9321	1497.95	615.45
993.9942	2675.1795	1503.15	618.55
994.1174	2676.4263	1507.05	624.75
994.2405	2677.6724	1504.25	622.8
994.3637	2678.9179	1507.75	623.55
994.4868	2680.1626	1505.3	621.5
994.6098	2681.4067	1508.45	625.2
994.7328	2682.6501	1507.4	623.4
994.8558	2683.8928	1499.85	616.45
994.9788	2685.1348	1499.4	616.1
995.1017	2686.3761	1497.55	612.8
995.2245	2687.6168	1490.8	606.85
995.3474	2688.8568	1480.55	598.8
995.4702	2690.0961	1484.35	601.85
995.5929	2691.3348	1478.75	596.85
995.7156	2692.5727	1479.95	596.2
995.8383	2693.81	1473.7	590.25
995.961	2695.0466	1470.45	587.4
996.0836	2696.2826	1481.25	595.5
996.2062	2697.5178	1495.2	591.5
996.3287	2698.7524	1476.4	592.6
996.4512	2699.9863	1479.6	593.75
996.5737	2701.2195	1473.15	589.7
996.6961	2702.452	1491.85	605.9
996.8185	2703.6839	1483.9	597.55
996.9408	2704.9151	1488.6	604.45
997.0631	2706.1456	1492.65	608.5
997.1854	2707.3755	1503.2	621.1
997.3077	2708.6046	1504.95	617.85
997.4299	2709.8331	1512.95	626.15
997.552	2711.0609	1514.3	630.45
997.6742	2712.2881	1523.7	640.7
997.7963	2713.5145	1539.55	654.75
997.9183	2714.7403	1543.95	661.1
998.0403	2715.9654	1552.8	668.7
998.1623	2717.1899	1579.55	680.2
998.2842	2718.4136	1572.3	688.5
998.4062	2719.6367	1585.35	703.6
998.528	2720.8591	1597.1	706
998.6498	2722.0809	1606.35	722.85
998.7716	2723.3019	1620.6	732.9
998.8934	2724.5223	1635.4	750.95
999.0151	2725.7421	1631.8	746.85
999.1368	2726.9611	1623.15	736
999.2584	2728.1795	1626.55	736.9
999.38	2729.3972	1619.7	736.3
999.5016	2730.6142	1625.05	726.95
999.6231	2731.8306	1591.35	705.95
999.7446	2733.0462	1583.25	698.6
999.8661	2734.2612	1575.75	686.5
999.9875	2735.4756	1548	661.8
1000.1089	2736.6892	1538.25	653.25
1000.2302	2737.9022	1522.5	641.25
1000.3515	2739.1145	1503.7	621
1000.4728	2740.3262	1506.2	614.05
1000.594	2741.5372	1480.25	598
1000.7152	2742.7475	1477.4	592.65
1000.8363	2743.9571	1468.65	582.85
1000.9575	2745.1661	1457.65	569.05
1001.0785	2746.3744	1453.5	569.15
1001.1996	2747.582	1441.2	558
1001.3206	2748.7889	1431.3	544
1001.4415	2749.9952	1417.1	535.1
1001.5625	2751.2008	1425.3	540.7
1001.6833	2752.4057	1418.7	532
1001.8042	2753.61	1413.2	528.95
1001.925	2754.8136	1407	520.85
1002.0458	2756.0165	1397.7	515.6
1002.1665	2757.2188	1408.65	525.1
1002.2872	2758.4204	1403.7	518.85
1002.4078	2759.6213	1407.95	522.15
1002.5285	2760.8215	1411.85	521.75
1002.649	2762.0211	1404.45	517.5
1002.7696	2763.22	1402.8	517.7
1002.8901	2764.4182	1400.75	515.85
1003.0106	2765.6158	1394.8	508.85
1003.131	2766.8127	1400.45	516.75
1003.2514	2768.009	1393.2	509.8
1003.3717	2769.2045	1391.3	506.6
1003.492	2770.3994	1391.25	505.1
1003.6123	2771.5936	1384.05	499.1
1003.7325	2772.7872	1375.6	491.3
1003.8527	2773.9801	1376.35	490.1
1003.9729	2775.1723	1393.25	493.05
1004.093	2776.3639	1379.45	497.3
1004.2131	2777.5548	1382	496.45
1004.3331	2778.745	1376.55	491.7
1004.4531	2779.9346	1382	498.15
1004.5731	2781.1235	1383.2	497.1
1004.693	2782.3117	1383.2	499.4
1004.8129	2783.4992	1383.5	499.7
1004.9328	2784.6861	1388.7	504.85
1005.0526	2785.8723	1395.15	510.55
1005.1723	2787.0579	1405.7	521.65
1005.2921	2788.2428	1405.05	518
1005.4118	2789.427	1411.9	527.85
1005.5314	2790.6106	1414.25	530.7
1005.651	2791.7935	1434.85	550.7
1005.7706	2792.9757	1432.55	551.2
1005.8902	2794.1573	1441.45	557.4
1006.0097	2795.3382	1449.6	566
1006.1291	2796.5184	1466.45	585.55
1006.2485	2797.698	1484.25	597.7
1006.3679	2798.8769	1492.8	609.9
1006.4873	2800.0551	1508.4	622.6
1006.6066	2801.2327	1528.45	640.5
1006.7258	2802.4096	1536	653.85
1006.8451	2803.5859	1561.35	678
1006.9642	2804.7615	1583.3	698.6
1007.0834	2805.9364	1593.65	710.45
1007.2025	2807.1106	1615.65	732.45
1007.3216	2808.2842	1651.65	767.85
1007.4406	2809.4572	1680.55	797.05
1007.5596	2810.6294	1709.75	824.75
1007.6785	2811.801	1746.05	861.5
1007.7975	2812.972	1787.25	903.15
1007.9163	2814.1423	1825.6	941.15
1008.0352	2815.3119	1869.5	985.05
1008.154	2816.4808	1920.3	1038.5
1008.2727	2817.6491	1964.35	1078.4
1008.3914	2818.8167	2023.7	1141.6
1008.5101	2819.9837	2076	1187.5
1008.6288	2821.15	2125.4	1242.45
1008.7474	2822.3157	2167.45	1284.9
1008.8659	2823.4807	2227.75	1343.7
1008.9844	2824.645	2290.35	1404.7
1009.1029	2825.8086	2330	1445.5
1009.2214	2826.9716	2374.65	1491.6
1009.3398	2828.134	2429.45	1547
1009.4581	2829.2957	2471.05	1586.95
1009.5764	2830.4567	2507.4	1625.05
1009.6947	2831.617	2521.95	1638.25
1009.813	2832.7767	2536.25	1653.95
1009.9312	2833.9358	2539.9	1657.35
1010.0493	2835.0941	2529.3	1644.15
1010.1675	2836.2519	2517.05	1632.9
1010.2855	2837.4089	2496.85	1613.5
1010.4036	2838.5653	2491.6	1607.95
1010.5216	2839.7211	2479.7	1596.15
1010.6396	2840.8761	2486.4	1599.2
1010.7575	2842.0306	2504.25	1623.65
1010.8754	2843.1843	2514.95	1631.35
1010.9932	2844.3374	2553.75	1671.5
1011.111	2845.4899	2610.25	1725.85
1011.2288	2846.6417	2661.35	1778.75
1011.3465	2847.7928	2739.85	1856.6
1011.4642	2848.9433	2810.35	1925.7
1011.5818	2850.0931	2871.45	1985.5
1011.6995	2851.2422	2945.05	2059.95
1011.817	2852.3907	3007	2124.7
1011.9345	2853.5385	3071.05	2185.15
1012.052	2854.6857	3137.65	2227.85
1012.1695	2855.8323	3175.95	2292.95
1012.2869	2856.9781	3215	2330.35
1012.4042	2858.1233	3281	2396.65
1012.5216	2859.2679	3312.35	2429.05
1012.6389	2860.4118	3367	2483.5
1012.7561	2861.555	3418.5	2529.25
1012.8733	2862.6976	3446.35	2560.85
1012.9905	2863.8395	3490.55	2608.55
1013.1076	2864.9808	3539.7	2655.1
1013.2247	2866.1214	3546.7	2666.15
1013.3417	2867.2614	3559.1	2675
1013.4587	2868.4007	3559.4	2674.55
1013.5757	2869.5393	3564.65	2678.6
1013.6926	2870.6773	3598.1	2712.1
1013.8095	2871.8146	3616.7	2729.55
1013.9263	2872.9513	3621.35	2735.05
1014.0431	2874.0874	3603.55	2717.75
1014.1599	2875.2227	3594.4	2709.35
1014.2766	2876.3574	3578.45	2695
1014.3933	2877.4915	3562.7	2680.2
1014.51	2878.6249	3523.05	2639.2
1014.6266	2879.7577	3503.55	2618.95
1014.7431	2880.8898	3492.2	2599.45
1014.8596	2882.0212	3475.35	2591
1014.9761	2883.152	3459.9	2574.2
1015.0925	2884.2821	3434.75	2552.5
1015.2089	2885.4116	3437.55	2554.7
1015.3253	2886.5405	3436.85	2555.15
1015.4416	2887.6686	3440.45	2552.8
1015.5579	2888.7962	3465.4	2582.9
1015.6741	2889.923	3457.1	2573.6
1015.7903	2891.0493	3462	2578.5
1015.9065	2892.1748	3475	2589.95
1016.0226	2893.2997	3486.55	2603.6
1016.1387	2894.424	3506.9	2624.7
1016.2547	2895.5476	3521.25	2638.65
1016.3707	2896.6706	3545.6	2662.8
1016.4866	2897.7929	3573.65	2689.65
1016.6025	2898.9145	3600.75	2715.75
1016.7184	2900.0355	3625.8	2741.35
1016.8342	2901.1559	3654.95	2770
1016.95	2902.2756	3683.15	2799.45
1017.0658	2903.3946	3716.6	2831.55
1017.1815	2904.513	3743.75	2857.65
1017.2971	2905.6308	3777.1	2892.8
1017.4127	2906.7479	3803.95	2921.4
1017.5283	2907.8643	3812	2926.85
1017.6439	2908.9801	3828.85	2947.7
1017.7594	2910.0953	3828.85	2945.35
1017.8748	2911.2098	3848.05	2962.1
1017.9902	2912.3236	3849.45	2958.15
1018.1056	2913.4368	3819.2	2933.25
1018.2209	2914.5494	3800.75	2916.85
1018.3362	2915.6613	3778.3	2888.95
1018.4515	2916.7725	3744.55	2857.7
1018.5667	2917.8831	3718.7	2834.3
1018.6819	2918.9931	3702.9	2818.4
1018.797	2920.1024	3670.05	2785
1018.9121	2921.211	3628.25	2746.25
1019.0271	2922.319	3613.95	2729.1
1019.1421	2923.4264	3607.35	2725.7
1019.2571	2924.5331	3594.05	2713.45
1019.372	2925.6391	3589.05	2706.1
1019.4869	2926.7445	3579.2	2695.5
1019.6017	2927.8493	3579.4	2694.05
1019.7165	2928.9534	3579.15	2695.3
1019.8313	2930.0569	3577.4	2690.3
1019.946	2931.1597	3578.05	2692.25
1020.0606	2932.2619	3587.85	2705.2
1020.1753	2933.3634	3581.15	2698.85
1020.2899	2934.4643	3573.4	2681.5
1020.4044	2935.5645	3563.8	2673.75
1020.5189	2936.6641	3533.2	2645.45
1020.6334	2937.763	3476.65	2594.1
1020.7478	2938.8613	3447.6	2563.8
1020.8622	2939.959	3411.8	2523.5
1020.9765	2941.056	3345.1	2464.35
1021.0908	2942.1523	3266.5	2380.2
1021.2051	2943.248	3184.6	2299.7
1021.3193	2944.3431	3096.25	2211.25
1021.4334	2945.4375	3002	2117.45
1021.5476	2946.5313	2907.85	2024.3
1021.6617	2947.6244	2804.15	1922.45
1021.7757	2948.7169	2689.75	1805.65
1021.8897	2949.8087	2603.6	1721.35
1022.0037	2950.8999	2518.75	1633.45
1022.1176	2951.9904	2431.6	1548.75
1022.2315	2953.0803	2353.7	1469.4
1022.3453	2954.1696	2293.55	1409.45
1022.4591	2955.2582	2244.15	1361.45
1022.5728	2956.3462	2194.75	1311.45
1022.6865	2957.4335	2148.4	1265.1
1022.8002	2958.5202	2112.95	1226.95
1022.9138	2959.6062	2086.3	1202.05
1023.0274	2960.6916	2067.4	1185.2
1023.141	2961.7764	2054.2	1169.9
1023.2545	2962.8605	2020.7	1136.2
1023.3679	2963.9439	2018.7	1136.95
1023.4813	2965.0267	2004.75	1119.5
1023.5947	2966.1089	2013.7	1104.55
1023.708	2967.1905	1993.05	1108.4
1023.8213	2968.2714	1989.2	1106.15
1023.9346	2969.3516	1992.3	1109.3
1024.0478	2970.4312	1998.15	1109.45
1024.1609	2971.5102	2000.1	1117.15
1024.274	2972.5885	1994.4	1110.75
1024.3871	2973.6662	1999.4	1112.6
1024.5002	2974.7432	1999.25	1116.5
1024.6132	2975.8196	1996.55	1113.1
1024.7261	2976.8954	1989.6	1107.35
1024.839	2977.9705	1978.2	1092.8
1024.9519	2979.045	1964.65	1082.85
1025.0647	2980.1188	1950.75	1066.95
1025.1775	2981.192	1939.95	1060.5
1025.2902	2982.2645	1916.8	1032
1025.4029	2983.3364	1889.65	1006.8
1025.5156	2984.4077	1868.7	987.55
1025.6282	2985.4783	1840.6	951.55
1025.7407	2986.5483	1808.65	926.2
1025.8532	2987.6177	1769	886.35
1025.9657	2988.6864	1738.7	854.4
1026.0782	2989.7545	1710.05	825.85
1026.1906	2990.8219	1679.25	796.9
1026.3029	2991.8887	1642.25	757.05
1026.4152	2992.9548	1610.25	728.15
1026.5275	2994.0204	1576.5	694.25
1026.6397	2995.0852	1542.3	661.35
1026.7519	2996.1495	1523.75	639
1026.864	2997.2131	1498.3	614.2
1026.9761	2998.276	1478.85	596.95
1027.0882	2999.3383	1458.55	572.95
1027.2002	3000.4	1436.15	551.5
1027.3122	3001.4611	1415.8	531.45
1027.4241	3002.5215	1407.25	521.65
1027.536	3003.5812	1390.55	506.95
1027.6478	3004.6404	1378.1	494.45
1027.7596	3005.6989	1364.9	479.9
1027.8714	3006.7567	1353.7	469.7
1027.9831	3007.8139	1363.6	453.9
1028.0947	3008.8705	1336.55	451.6
1028.2064	3009.9264	1343.35	441.55
1028.3179	3010.9818	1327.3	444.2
1028.4295	3012.0364	1319.75	435.55
1028.541	3013.0905	1312.2	427.95
1028.6524	3014.1439	1310.5	427.6
1028.7638	3015.1966	1302.4	421.1
1028.8752	3016.2487	1300.5	415.45
1028.9865	3017.3002	1295.65	406.45
1029.0978	3018.3511	1294.55	412.3
1029.209	3019.4013	1298.4	416.1
1029.3202	3020.4509	1294.45	413.2
1029.4314	3021.4998	1294.1	410
1029.5425	3022.5481	1299.3	416
1029.6535	3023.5958	1291.95	409.15
1029.7645	3024.6428	1289.05	404.35
1029.8755	3025.6892	1289.7	406.45
1029.9864	3026.735	1294.6	410.65
1030.0973	3027.7802	1294.1	411.2
1030.2082	3028.8247	1297.15	414.05
1030.319	3029.8685	1291.85	406.1
1030.4297	3030.9118	1296.65	414.2
1030.5404	3031.9544	1303.75	421.65
1030.6511	3032.9963	1312.75	429.35
1030.7617	3034.0376	1300.3	417.6
1030.8723	3035.0783	1312.5	426.45
1030.9829	3036.1184	1315.05	431.25
1031.0934	3037.1578	1312.2	428.9
1031.2038	3038.1966	1313.25	429.15
1031.3142	3039.2348	1318.55	434.55
1031.4246	3040.2723	1327.35	435.65
1031.5349	3041.3092	1318.9	436
1031.6452	3042.3455	1324.85	440.95
1031.7554	3043.3811	1310.5	426.8
1031.8656	3044.4161	1311.5	429.05
1031.9758	3045.4505	1310.8	428.05
1032.0859	3046.4842	1310.55	425.85
1032.1959	3047.5173	1303.6	421
1032.3059	3048.5498	1302.55	419.75
1032.4159	3049.5816	1297.6	414.15
1032.5258	3050.6128	1290.8	405.7
1032.6357	3051.6434	1292.7	408.95
1032.7455	3052.6734	1276.2	392.15
1032.8553	3053.7027	1279.6	398.1
1032.9651	3054.7314	1278.25	397.3
1033.0748	3055.7594	1264.55	381.55
1033.1845	3056.7868	1267.1	383.7
1033.2941	3057.8136	1258.95	375.85
1033.4037	3058.8398	1261.9	379.85
1033.5132	3059.8653	1256.85	374.85
1033.6227	3060.8902	1251.75	369.7
1033.7321	3061.9145	1250.7	367
1033.8415	3062.9381	1250.7	367.6
1033.9509	3063.9612	1254.65	354.8
1034.0602	3064.9835	1235.35	353.8
1034.1694	3066.0053	1223.4	337.85
1034.2787	3067.0264	1221.85	337.15
1034.3878	3068.0469	1217.1	335.2
1034.497	3069.0668	1213.35	327.2
1034.6061	3070.086	1210.85	329.65
1034.7151	3071.1046	1203.05	317.75
1034.8241	3072.1226	1200.25	316
1034.9331	3073.1399	1185.2	302.65
1035.042	3074.1567	1179.3	297.85
1035.1508	3075.1727	1172.15	288
1035.2597	3076.1882	1167.95	285.95
1035.3684	3077.203	1157	273.35
1035.4772	3078.2173	1151.9	266.8
1035.5859	3079.2308	1145.6	258.85
1035.6945	3080.2438	1137.9	253.3
1035.8031	3081.2561	1129.7	245
1035.9117	3082.2678	1121	239.05
1036.0202	3083.2789	1116.8	233.25
1036.1286	3084.2893	1112.05	228.6
1036.2371	3085.2991	1106.9	223.85
1036.3454	3086.3083	1106.45	218.6
1036.4538	3087.3169	1098.25	212.7
1036.562	3088.3248	1092.55	206.35
1036.6703	3089.3321	1089.7	205.55
1036.7785	3090.3388	1080.7	199.5
1036.8866	3091.3449	1076.1	192.65
1036.9948	3092.3503	1079.55	191.95
1037.1028	3093.3551	1073.95	192.7
1037.2108	3094.3593	1068.05	187.8
1037.3188	3095.3629	1066.35	184.7
1037.4267	3096.3658	1063.75	179.65
1037.5346	3097.3681	1061.65	177.5
1037.6425	3098.3698	1065.8	181.8
1037.7503	3099.3708	1059.95	169.25
1037.858	3100.3713	1053.15	169.85
1037.9657	3101.3711	1052.45	168.35
1038.0734	3102.3702	1190.2	167.8
1038.181	3103.3688	1050.45	165.2
1038.2886	3104.3667	1039.7	160
1038.3961	3105.364	1040.55	158.5
1038.5036	3106.3607	1044.75	159.05
1038.611	3107.3568	1042.05	160.7
1038.7184	3108.3522	1032.4	150.3
1038.8257	3109.347	1037.45	155
1038.933	3110.3412	1038.5	150.25
1039.0403	3111.3348	1029.7	147.5
1039.1475	3112.3277	1032.05	149.1
1039.2547	3113.32	1028.15	145
1039.3618	3114.3117	1026.85	143
1039.4689	3115.3028	1026.15	142.95
1039.5759	3116.2932	1024.2	139.85
1039.6829	3117.2831	1028.1	140.5
1039.7898	3118.2723	1023.65	139.55
1039.8967	3119.2608	1021.15	139.65
1040.0035	3120.2488	1013.65	129.8
1040.1103	3121.2361	1019.3	135
1040.2171	3122.2229	1015.6	132.75
1040.3238	3123.209	1011.25	127.55
1040.4305	3124.1944	1015.65	134.1
1040.5371	3125.1793	1015.2	130.6
1040.6437	3126.1635	1006.5	124
1040.7502	3127.1471	1011.6	128
1040.8567	3128.1301	1011.9	128.35
1040.9631	3129.1125	1003.75	120.4
1041.0695	3130.0942	1009.9	126.8
1041.1759	3131.0753	1014	123.2
1041.2822	3132.0558	1009.85	126.05
1041.3884	3133.0357	1006.85	121.95
1041.4946	3134.015	1002.75	120.3
1041.6008	3134.9936	1003.2	116.65
1041.7069	3135.9716	1020.05	116.05
1041.813	3136.949	999.9	116.8
1041.919	3137.9258	1017.35	116.85
1042.025	3138.902	1005	117.3
1042.1309	3139.8775	998.4	117.25
1042.2368	3140.8524	995.35	111.45
1042.3427	3141.8267	995.8	112.7
1042.4485	3142.8004	993.2	111.15
1042.5542	3143.7735	997.7	107.65
1042.6599	3144.7459	993.35	108
1042.7656	3145.7178	996.95	111.65
1042.8712	3146.689	988.4	105.7
1042.9768	3147.6596	988.05	103.7
1043.0823	3148.6295	989.75	104.65
1043.1878	3149.5989	986.15	103.7
1043.2932	3150.5676	986.15	103.95
1043.3986	3151.5357	986.35	104.15
1043.5039	3152.5032	982.6	101.25
1043.6092	3153.4701	980.95	98.6
1043.7145	3154.4364	983.8	100.9
1043.8197	3155.402	981.8	97.35
1043.9248	3156.367	980.05	93.1
1044.03	3157.3315	1009.75	94.5
1044.135	3158.2952	983.8	100.4
1044.24	3159.2584	979	96.9
1044.345	3160.221	977.55	94.1
1044.4499	3161.1829	979.2	96.55
1044.5548	3162.1442	978.95	97.55
1044.6596	3163.105	977.1	91.7
1044.7644	3164.065	971.4	89.6
1044.8692	3165.0245	977	91.2
1044.9739	3165.9834	974.75	94.8
1045.0785	3166.9416	973.95	88.7
1045.1831	3167.8993	976.55	94.3
1045.2877	3168.8563	971.35	87.75
1045.3922	3169.8127	968.4	84.35
1045.4966	3170.7684	968.5	83.95
1045.6011	3171.7236	972.3	86.5
1045.7054	3172.6782	969.6	85.85
1045.8098	3173.6321	970.05	86.8
1045.914	3174.5854	968.65	81.5
1046.0183	3175.5381	970.3	86.5
1046.1224	3176.4902	971.7	90
1046.2266	3177.4417	966	82.45
1046.3307	3178.3926	965.35	83.9
1046.4347	3179.3428	966.85	83.55
1046.5387	3180.2924	962.8	80.85
1046.6427	3181.2415	965.35	83.2
1046.7466	3182.1899	964.65	80.6
1046.8504	3183.1377	964.85	84.6
1046.9542	3184.0848	966.7	79.6
1047.058	3185.0314	964.35	80.3
1047.1617	3185.9773	965.25	81.75
1047.2654	3186.9227	963.75	77.8
1047.369	3187.8674	962.1	78.3
1047.4726	3188.8115	964.9	77.8
1047.5761	3189.755	960.7	77.95
1047.6796	3190.6979	959.95	77.6
1047.783	3191.6402	961	79.9
1047.8864	3192.5818	957.7	76.15
1047.9898	3193.5229	980.45	73.5
1048.0931	3194.4633	958.85	76.25
1048.1963	3195.4031	958.9	74.25
1048.2995	3196.3423	957.3	75.95
1048.4027	3197.2809	957.55	75.1
1048.5058	3198.2189	957.25	74.55
1048.6089	3199.1563	975.1	74.95
1048.7119	3200.0931	955.5	73.7
1048.8148	3201.0292	954.9	73.35
1048.9178	3201.9648	958.8	76.05
1049.0206	3202.8997	956.15	69.8
1049.1235	3203.834	954	70.8
1049.2262	3204.7677	954.05	72.05
1049.329	3205.7008	956.7	70.9
1049.4317	3206.6333	951.85	69.95
1049.5343	3207.5652	953.95	69.95
1049.6369	3208.4964	953.75	70.95
1049.7394	3209.4271	949.35	66
1049.8419	3210.3571	951.25	68.7
1049.9444	3211.2865	949.55	65.55
1050.0468	3212.2154	950.05	66.3
1050.1491	3213.1436	952.85	67.55
1050.2514	3214.0712	958.65	67.65
1050.3537	3214.9982	948.35	65.25
1050.4559	3215.9246	947.75	62.6
1050.5581	3216.8503	947.2	65.9
1050.6602	3217.7755	946.8	63.3
1050.7623	3218.7001	949.65	66.35
1050.8643	3219.624	947	64.95
1050.9663	3220.5473	947.3	64.45
1051.0682	3221.4701	947.65	64
1051.1701	3222.3922	949.85	63.7
1051.2719	3223.3137	943.1	61.8
1051.3737	3224.2346	947.65	65.7
1051.4754	3225.1549	944.55	61.15
1051.5771	3226.0746	947.45	64.5
1051.6788	3226.9937	946.65	63.75
1051.7804	3227.9121	945	64.25
1051.8819	3228.83	944.9	62.9
1051.9834	3229.7473	945.75	60.5
1052.0849	3230.6639	945.4	64.3
1052.1863	3231.5799	944.2	63.55
1052.2876	3232.4954	944.15	61.95
1052.3889	3233.4102	939.65	56.95
1052.4902	3234.3244	945.4	60.6
1052.5914	3235.238	941.5	57.7
1052.6926	3236.151	967.6	59.6
1052.7937	3237.0634	941.05	59.1
1052.8948	3237.9752	941.3	58.35
1052.9958	3238.8864	940.7	57.35
1053.0968	3239.797	939.2	56.6
1053.1977	3240.7069	940.6	55.75
1053.2986	3241.6163	939.45	55.15
1053.3994	3242.5251	937.3	54.7
1053.5002	3243.4332	938.15	56.25
1053.6009	3244.3408	942.05	59.95
1053.7016	3245.2477	937.25	55.4
1053.8022	3246.154	937.7	54.15
1053.9028	3247.0598	937.95	54.05
1054.0034	3247.9649	934.55	51.45
1054.1039	3248.8694	936.35	52.75
1054.2043	3249.7733	937.65	55.15
1054.3047	3250.6766	933.95	51.05
1054.4051	3251.5793	934.45	51.5
1054.5054	3252.4814	934.95	52.5
1054.6056	3253.3829	934.2	51.7
1054.7058	3254.2838	933.45	52.35
1054.806	3255.1841	932.4	50.7
1054.9061	3256.0838	929.85	47.9
1055.0061	3256.9829	934	52.45
1055.1062	3257.8814	934.6	48.35
1055.2061	3258.7792	934.15	51.25
1055.306	3259.6765	931.85	48.35
1055.4059	3260.5731	926.5	46.65
1055.5057	3261.4692	931.2	49.25
1055.6055	3262.3647	930.4	47.15
1055.7052	3263.2595	928.8	45.7
1055.8049	3264.1538	925.05	43.1
1055.9045	3265.0474	927.75	44.7
1056.0041	3265.9404	926.3	44.15
1056.1036	3266.8329	926.05	43.9
1056.2031	3267.7247	932.65	38.7
1056.3025	3268.616	922.75	41.95
1056.4019	3269.5066	922.8	40.1
1056.5013	3270.3966	923.8	37.75
1056.6005	3271.286	918.65	37.3
