Software Version:	3.9.2.0
Unit SN:	10000200
Spectrometer SN:	6960
Date:	3/14/2024 1:22:02 PM
Data Line Index:	25
Spectral Points:	2048
Integration time (ms):	125
Averages:	20
Delay (ms):	30000
Sequence Number:	1
Processing:	dark subtract
Laser Power (mW):	305
Laser Current (mA):	825
Laser Diode Temp (C):	25
Laser Case Temp (C):	28.3
System Temp (C):	28.3
Spectrometer Temp (C):	26.3
CCD Temp (C):	0.002
Secondary Temp (C):	20.008
Heatsink Temp (C):	24.339
CCDPCB Temp (C):	37.663
SecondaryPCB Temp (C):	35.484

Wavelength	RamanShift	Raw Counts	Dark Subtracted
787.061	30.1047	419.5	8
787.2016	32.3739	419.65	12.1
787.3422	34.6426	420.4	11.3
787.4828	36.9109	422.85	12
787.6235	39.1787	427.8	13.05
787.7642	41.4461	435.65	17.05
787.9049	43.7131	440.8	17.15
788.0456	45.9796	443.2	16.1
788.1863	48.2456	445.15	13.05
788.3271	50.5112	451.6	16.4
788.4679	52.7764	454.15	16.55
788.6087	55.0411	459.3	19.5
788.7496	57.3054	464.55	17.85
788.8904	59.5692	467.75	18.85
789.0313	61.8326	474.6	21.9
789.1722	64.0955	481	24.05
789.3132	66.3579	490.05	26.65
789.4541	68.6199	497	31.7
789.5951	70.8815	505.55	36.25
789.7361	73.1426	528.2	55.25
789.8771	75.4032	572.35	96.1
790.0181	77.6634	677	194.95
790.1592	79.9231	913.1	426.8
790.3003	82.1824	1408.2	913.9
790.4414	84.4412	2256.55	1749.6
790.5825	86.6995	3400.9	2876.75
790.7237	88.9574	4563.5	4025.35
790.8648	91.2148	5372.5	4824.05
791.006	93.4717	5779.8	5223.5
791.1472	95.7282	5871.15	5311.5
791.2885	97.9842	5842.65	5278.2
791.4297	100.2398	5754.25	5186
791.571	102.4949	5642.2	5071.65
791.7123	104.7495	5541.1	4967.75
791.8536	107.0036	5409.65	4835.95
791.9949	109.2573	5246.5	4675.35
792.1363	111.5105	5119.4	4542.2
792.2777	113.7632	5001.95	4424.4
792.4191	116.0154	4877.35	4290.5
792.5605	118.2672	4753.25	4173.35
792.7019	120.5185	4650.35	4068.35
792.8434	122.7693	4556.1	3971.15
792.9849	125.0197	4498.7	3909.9
793.1264	127.2696	4423.6	3834.25
793.2679	129.519	4388.75	3796.7
793.4094	131.7679	4342.85	3748.8
793.551	134.0163	4308.25	3713.05
793.6926	136.2642	4268.65	3664.65
793.8342	138.5117	4228.85	3624.6
793.9758	140.7587	4165.15	3559.25
794.1175	143.0052	4110.1	3498.25
794.2591	145.2512	4037.8	3430.1
794.4008	147.4967	3992.95	3383
794.5425	149.7417	3940.35	3325.25
794.6842	151.9863	3910.95	3294.85
794.826	154.2304	3890.4	3271.7
794.9677	156.4739	3883.85	3258.65
795.1095	158.717	3883.3	3258.95
795.2513	160.9596	3883.95	3257.4
795.3931	163.2017	3867.15	3237.5
795.535	165.4433	3835	3201.15
795.6768	167.6844	3791.8	3157.85
795.8187	169.925	3741.55	3101.15
795.9606	172.1651	3675.3	3034.55
796.1025	174.4047	3628.35	2980.9
796.2445	176.6439	3574.4	2927.45
796.3864	178.8825	3543.7	2892.2
796.5284	181.1206	3522.3	2868.7
796.6704	183.3582	3492.55	2835.95
796.8124	185.5954	3488.9	2829.75
796.9544	187.832	3475.75	2811.05
797.0965	190.0681	3488.05	2825.3
797.2386	192.3037	3490.3	2823.05
797.3806	194.5388	3497.4	2829.5
797.5228	196.7734	3501.5	2830.7
797.6649	199.0075	3510.9	2832.95
797.807	201.2411	3541.15	2861.95
797.9492	203.4742	3553.95	2872
798.0914	205.7068	3593.95	2912.75
798.2336	207.9389	3606.2	2925.1
798.3758	210.1704	3628.9	2949.25
798.518	212.4015	3639.9	2952.3
798.6603	214.632	3651.6	2960.55
798.8025	216.862	3680.5	2998.45
798.9448	219.0915	3677.75	3001.2
799.0871	221.3205	3683.9	3013.9
799.2294	223.549	3678.9	3016.8
799.3718	225.777	3687.8	3021.25
799.5141	228.0044	3669.95	2999
799.6565	230.2314	3675.35	3008.8
799.7989	232.4578	3657.55	2991.45
799.9413	234.6837	3667.55	2989.55
800.0837	236.909	3649.7	2974
800.2262	239.1339	3668.75	2970.35
800.3687	241.3582	3664.75	2980.25
800.5111	243.582	3660.4	2950.05
800.6536	245.8053	3663.35	2959.6
800.7961	248.0281	3655.65	2957.25
800.9387	250.2503	3652.7	2949.3
801.0812	252.472	3681.35	2972.6
801.2238	254.6932	3695.4	2985.8
801.3664	256.9139	3698.95	2986.6
801.509	259.134	3756.55	3039.9
801.6516	261.3536	3779.05	3064.3
801.7942	263.5727	3842.55	3126
801.9369	265.7912	3892.9	3174.7
802.0795	268.0092	3963.8	3246.55
802.2222	270.2267	3987.3	3269.5
802.3649	272.4436	4060.1	3340.25
802.5076	274.6601	4070.45	3340.85
802.6504	276.8759	4071	3349.05
802.7931	279.0913	4082.85	3358.85
802.9359	281.3061	4098.1	3373.45
803.0787	283.5204	4107.4	3380.8
803.2215	285.7341	4124.85	3392.6
803.3643	287.9473	4143.2	3398.9
803.5071	290.16	4140.6	3402.75
803.6499	292.3721	4121.9	3391.75
803.7928	294.5837	4110.1	3378.7
803.9357	296.7947	4111.05	3378.15
804.0786	299.0052	4113.25	3379.15
804.2215	301.2152	4123.4	3387.35
804.3644	303.4246	4083.8	3350.35
804.5074	305.6334	4038.9	3308.75
804.6503	307.8418	3990.95	3251.85
804.7933	310.0495	3943.65	3202.25
804.9363	312.2568	3883.1	3146.7
805.0793	314.4635	3798.9	3058.7
805.2223	316.6696	3718.1	2979.25
805.3653	318.8752	3663.05	2914.6
805.5084	321.0802	3636.15	2896.3
805.6514	323.2847	3630.9	2889.75
805.7945	325.4887	3629.35	2883.1
805.9376	327.692	3631.65	2887.3
806.0807	329.8949	3673.9	2927.2
806.2238	332.0972	3673.3	2924.95
806.367	334.2989	3668.95	2919.85
806.5101	336.5001	3630.85	2879.1
806.6533	338.7007	3596.1	2846.15
806.7965	340.9008	3573.15	2817.9
806.9397	343.1003	3509.2	2751.75
807.0829	345.2992	3460	2703.2
807.2261	347.4976	3428.25	2673.2
807.3693	349.6955	3377.9	2616.8
807.5126	351.8927	3370.05	2610.75
807.6559	354.0895	3353.8	2580.65
807.7991	356.2856	3339.9	2578
807.9424	358.4812	3330.9	2565
808.0857	360.6763	3326.9	2561.5
808.2291	362.8707	3315.9	2550.05
808.3724	365.0646	3317.95	2551.4
808.5158	367.258	3318.25	2548.9
808.6591	369.4508	3332.7	2559.2
808.8025	371.643	3360.85	2589.45
808.9459	373.8346	3391.95	2615.55
809.0893	376.0257	3415.85	2637.2
809.2327	378.2162	3426.05	2646.45
809.3762	380.4062	3438.2	2657.95
809.5196	382.5956	3399.9	2619.15
809.6631	384.7844	3385.1	2603.4
809.8066	386.9726	3347.3	2563.1
809.9501	389.1603	3318.25	2536.6
810.0936	391.3474	3327.35	2510.8
810.2371	393.5339	3290.9	2506.25
810.3806	395.7199	3275.45	2497.4
810.5241	397.9052	3290.75	2514.1
810.6677	400.09	3333.6	2556.2
810.8113	402.2743	3373.65	2599.25
810.9548	404.4579	3420	2646.2
811.0984	406.641	3459.6	2683.55
811.2421	408.8235	3496.65	2724.85
811.3857	411.0054	3550.45	2773.95
811.5293	413.1868	3633.1	2855.9
811.673	415.3675	3668.05	2887.1
811.8166	417.5477	3620.9	2840.45
811.9603	419.7273	3574.75	2790.85
812.104	421.9064	3503.4	2712
812.2477	424.0848	3447.75	2660.65
812.3914	426.2627	3393.05	2601.7
812.5351	428.4399	3334.7	2543.95
812.6788	430.6166	3281.15	2483.85
812.8226	432.7928	3205.7	2408.9
812.9663	434.9683	3150.9	2355.15
813.1101	437.1432	3118.9	2320.95
813.2539	439.3176	3087.1	2289.8
813.3977	441.4914	3064	2264.4
813.5415	443.6645	3062.55	2257.95
813.6853	445.8371	3045.85	2243.45
813.8291	448.0091	3043.25	2241.9
813.973	450.1806	3037.7	2239.05
814.1168	452.3514	3031	2228.9
814.2607	454.5216	3039.4	2227.1
814.4046	456.6913	3032.25	2227.45
814.5485	458.8603	3022.95	2218.95
814.6924	461.0288	3033.45	2229.15
814.8363	463.1967	3027.15	2222.1
814.9802	465.3639	3020.9	2214.5
815.1241	467.5306	3009.2	2203.85
815.2681	469.6967	3010.4	2203.05
815.412	471.8622	3001.15	2196
815.556	474.0271	2993.9	2186.2
815.7	476.1914	3002.95	2192.9
815.844	478.3551	2994.2	2184.8
815.988	480.5182	2992.5	2186.65
816.132	482.6807	3010.7	2198.8
816.276	484.8426	3026.45	2216.35
816.4201	487.0039	3079.9	2268.45
816.5641	489.1647	3143.6	2330.6
816.7082	491.3248	3193.05	2383.05
816.8522	493.4843	3208.5	2398.2
816.9963	495.6432	3209.8	2397
817.1404	497.8015	3182.1	2366.45
817.2845	499.9592	3145.9	2334.1
817.4286	502.1163	3069.9	2256.15
817.5727	504.2728	3019.75	2204.25
817.7168	506.4287	2983.8	2168.75
817.861	508.5839	2944.2	2127.15
818.0051	510.7386	2919.35	2101.85
818.1493	512.8927	2919.6	2093.8
818.2935	515.0461	2933.3	2115.25
818.4377	517.199	2942.95	2126
818.5818	519.3512	2990.55	2172.15
818.726	521.5029	3047.5	2224.75
818.8703	523.6539	3085.6	2266.2
819.0145	525.8043	3107.05	2286.9
819.1587	527.9541	3069.7	2247.2
819.303	530.1033	3009.45	2186.95
819.4472	532.2519	2970	2147.85
819.5915	534.3999	2953.1	2130.1
819.7357	536.5472	2954.35	2132.5
819.88	538.694	2945.3	2124.45
820.0243	540.8401	2966.5	2143.05
820.1686	542.9856	3006.7	2181.95
820.3129	545.1305	2995.05	2168.5
820.4572	547.2748	3005.6	2179.25
820.6016	549.4185	3010.35	2184
820.7459	551.5615	2988.7	2163.8
820.8902	553.704	3003.65	2177.85
821.0346	555.8458	3027.55	2201.45
821.1789	557.987	3072.1	2247.2
821.3233	560.1276	3085.85	2257.4
821.4677	562.2675	3149.7	2324
821.6121	564.4069	3233.05	2406.05
821.7565	566.5456	3297.65	2470.6
821.9009	568.6837	3297.15	2469.25
822.0453	570.8212	3241.55	2415.1
822.1897	572.958	3140	2310.55
822.3342	575.0942	3061.35	2234
822.4786	577.2299	2988.85	2159.9
822.6231	579.3648	2943.9	2111.75
822.7675	581.4992	2919.5	2087.8
822.912	583.6329	2924.15	2092.6
823.0565	585.766	2957.45	2126.75
823.201	587.8985	2997.25	2169.5
823.3454	590.0304	3043.75	2189.75
823.4899	592.1616	3051.4	2219
823.6345	594.2922	3026.5	2194.45
823.779	596.4222	2982.05	2147.85
823.9235	598.5515	2926.3	2092.9
824.068	600.6802	2875.65	2041.15
824.2126	602.8083	2833.45	2000.2
824.3571	604.9358	2821.65	1986.3
824.5017	607.0626	2822.3	1989.6
824.6462	609.1888	2846.8	2010
824.7908	611.3144	2863.1	2026.15
824.9354	613.4393	2911.3	2077.6
825.08	615.5636	2965.1	2130.7
825.2246	617.6873	2988.75	2153.65
825.3692	619.8103	3008.45	2170.35
825.5138	621.9327	2974.55	2132.8
825.6584	624.0544	2938.7	2103.35
825.803	626.1756	2882.3	2045.05
825.9477	628.2961	2852.45	2014.1
826.0923	630.4159	2829.35	1990.4
826.237	632.5351	2818.05	1979.95
826.3816	634.6537	2808.05	1969.55
826.5263	636.7716	2796.5	1954.9
826.6709	638.8889	2785.55	1946.2
826.8156	641.0056	2794.1	1957.15
826.9603	643.1216	2784	1942.2
827.105	645.237	2789.65	1947.9
827.2497	647.3518	2767.55	1927.5
827.3944	649.4659	2743.05	1901.65
827.5391	651.5793	2730.25	1887.55
827.6838	653.6922	2714.9	1875
827.8285	655.8043	2714.8	1873.15
827.9733	657.9159	2704.9	1860.95
828.118	660.0268	2688.45	1841.05
828.2627	662.137	2684.95	1840.65
828.4075	664.2466	2677	1832.8
828.5522	666.3556	2679.5	1834.4
828.697	668.4639	2674.5	1825.85
828.8418	670.5716	2664.7	1820.9
828.9865	672.6786	2665.95	1819.55
829.1313	674.785	2646.15	1798.5
829.2761	676.8907	2641.95	1795.65
829.4209	678.9958	2628.6	1782.85
829.5657	681.1002	2626.15	1778.75
829.7105	683.204	2627.35	1777.6
829.8553	685.3072	2625.75	1776.65
830.0001	687.4097	2617.8	1768.2
830.1449	689.5115	2612.3	1764.35
830.2898	691.6127	2613	1764.35
830.4346	693.7132	2609.1	1760.1
830.5794	695.8131	2633	1771.05
830.7243	697.9123	2634.9	1783
830.8691	700.0109	2624.95	1777.3
831.014	702.1089	2632.9	1781.25
831.1588	704.2061	2655.9	1805.65
831.3037	706.3028	2672.05	1821.55
831.4486	708.3987	2688.2	1837.25
831.5935	710.4941	2694.8	1842.35
831.7383	712.5887	2704.5	1852.4
831.8832	714.6827	2692.9	1840
832.0281	716.7761	2705.4	1854.1
832.173	718.8688	2705.3	1851.1
832.3179	720.9608	2711.35	1856
832.4628	723.0522	2752.85	1896.4
832.6077	725.1429	2784.75	1934.85
832.7527	727.233	2814.75	1960.85
832.8976	729.3224	2875.65	2021.5
833.0425	731.4112	2885.3	2030.5
833.1874	733.4993	2875.8	2020.05
833.3324	735.5867	2822.45	1966.3
833.4773	737.6735	2758.45	1903.3
833.6222	739.7596	2706.05	1850.1
833.7672	741.845	2681.9	1826.85
833.9122	743.9298	2668.2	1813.6
834.0571	746.014	2674.6	1820.95
834.2021	748.0974	2661.75	1805
834.347	750.1802	2665.4	1806.6
834.492	752.2624	2655.65	1802.9
834.637	754.3439	2653.3	1793.8
834.782	756.4247	2652.55	1784.9
834.9269	758.5048	2658.05	1801.05
835.0719	760.5843	2690.05	1830.9
835.2169	762.6631	2742.85	1886.65
835.3619	764.7413	2820	1963.7
835.5069	766.8188	2935.5	2078.2
835.6519	768.8956	3028.55	2168.2
835.7969	770.9718	3105	2249.5
835.9419	773.0473	3113.85	2256.45
836.0869	775.1221	3074.25	2214.4
836.232	777.1962	3067.05	2207.6
836.377	779.2697	3100.65	2238.55
836.522	781.3426	3160.95	2292
836.667	783.4147	3174.75	2316.45
836.8121	785.4862	3173.85	2314.7
836.9571	787.557	3105.25	2247.5
837.1021	789.6271	2988.45	2129.5
837.2472	791.6966	2865.55	2005.3
837.3922	793.7654	2742.35	1882.4
837.5373	795.8335	2664.3	1804.1
837.6823	797.901	2629.3	1771.1
837.8274	799.9678	2601.05	1740.65
837.9724	802.0339	2578.4	1718.3
838.1175	804.0993	2578.55	1709.75
838.2626	806.1641	2544.65	1684.75
838.4076	808.2282	2532.4	1672.15
838.5527	810.2916	2519.65	1656.7
838.6978	812.3544	2499.3	1639.7
838.8428	814.4164	2483.6	1625.65
838.9879	816.4778	2485.85	1623.2
839.133	818.5385	2512.9	1652.2
839.2781	820.5986	2542.2	1682.35
839.4232	822.658	2602.7	1739.65
839.5682	824.7166	2670.1	1810.9
839.7133	826.7747	2775.85	1914.8
839.8584	828.832	2876.35	2015.5
840.0035	830.8886	2951.3	2087.15
840.1486	832.9446	2980.8	2114.8
840.2937	834.9999	2930.05	2069
840.4388	837.0545	2870.5	2007
840.5839	839.1085	2784.15	1922.75
840.729	841.1618	2698.75	1831.45
840.8741	843.2143	2633.95	1772.4
841.0192	845.2662	2602.05	1740.4
841.1643	847.3175	2570.25	1709.2
841.3095	849.368	2539.1	1675.6
841.4546	851.4179	2529.75	1668.55
841.5997	853.467	2518.6	1655.05
841.7448	855.5155	2525.6	1661.1
841.8899	857.5633	2522.35	1658.7
842.0351	859.6105	2497.35	1631.85
842.1802	861.6569	2484.3	1620.05
842.3253	863.7027	2479.1	1612.8
842.4704	865.7478	2464.7	1599.55
842.6156	867.7922	2444.1	1578.25
842.7607	869.8359	2447.85	1582
842.9058	871.8789	2440.75	1574.4
843.0509	873.9212	2467.05	1569.25
843.1961	875.9629	2456	1590.85
843.3412	878.0039	2472.3	1604.05
843.4863	880.0441	2488.95	1623.6
843.6315	882.0837	2500.1	1635
843.7766	884.1226	2520.35	1652.55
843.9218	886.1609	2557.55	1693
844.0669	888.1984	2600.2	1734.4
844.212	890.2352	2633.25	1767.2
844.3572	892.2714	2648.15	1776.75
844.5023	894.3069	2624.4	1757.7
844.6475	896.3416	2573.4	1704.55
844.7926	898.3757	2531.65	1664.4
844.9377	900.4091	2510.4	1641.45
845.0829	902.4418	2512.8	1638.85
845.228	904.4739	2525.45	1657.3
845.3732	906.5052	2520.65	1654.7
845.5183	908.5358	2520.9	1655.15
845.6635	910.5658	2486.05	1618.8
845.8086	912.595	2457.6	1593.25
845.9538	914.6236	2416.95	1549.5
846.0989	916.6515	2373.85	1507.25
846.2441	918.6786	2363.65	1493.5
846.3892	920.7051	2341.05	1471
846.5344	922.7309	2346.45	1479.25
846.6795	924.756	2344.15	1476.9
846.8246	926.7804	2363.7	1494.35
846.9698	928.8041	2368	1497.95
847.1149	930.8272	2380.15	1512.45
847.2601	932.8495	2389.7	1517.6
847.4052	934.8711	2381.3	1513.15
847.5504	936.892	2379.4	1511.6
847.6955	938.9123	2407.7	1538.65
847.8407	940.9318	2421.65	1554.2
847.9858	942.9506	2418.75	1551.2
848.131	944.9688	2406.2	1538.2
848.2761	946.9862	2385.65	1516.75
848.4213	949.003	2361.8	1491
848.5664	951.019	2333.05	1462.35
848.7115	953.0344	2306.15	1438.65
848.8567	955.0491	2293.8	1422.75
849.0018	957.063	2299.9	1429.6
849.147	959.0763	2295	1425.4
849.2921	961.0888	2297.65	1424.5
849.4373	963.1007	2305.25	1431.6
849.5824	965.1119	2290.2	1420.5
849.7275	967.1223	2283.85	1412.7
849.8727	969.1321	2292.4	1423.05
850.0178	971.1412	2276.2	1404
850.1629	973.1495	2275.15	1404.95
850.3081	975.1572	2298.2	1391.35
850.4532	977.1641	2276.6	1407.9
850.5983	979.1704	2264.05	1393.2
850.7435	981.1759	2253.95	1378.05
850.8886	983.1808	2258.45	1385.95
851.0337	985.1849	2267.65	1385.45
851.1788	987.1884	2261.55	1386.35
851.324	989.1911	2263.5	1390.65
851.4691	991.1932	2269.1	1394.35
851.6142	993.1945	2263.7	1392.9
851.7593	995.1951	2262.15	1389.8
851.9045	997.1951	2275.7	1397.6
852.0496	999.1943	2245	1374.65
852.1947	1001.1928	2265.45	1391.65
852.3398	1003.1906	2264.5	1392.2
852.4849	1005.1877	2290.85	1414.95
852.63	1007.1841	2300.6	1425.8
852.7751	1009.1798	2327.3	1453.65
852.9202	1011.1748	2321.6	1449.9
853.0653	1013.1691	2280.65	1407.6
853.2104	1015.1627	2249.85	1376.4
853.3555	1017.1556	2205.95	1334
853.5006	1019.1477	2195.35	1321.85
853.6457	1021.1392	2175.3	1304.8
853.7908	1023.1299	2166.65	1293.8
853.9359	1025.12	2160.4	1284.85
854.081	1027.1093	2174.1	1300.9
854.2261	1029.0979	2196.5	1323.8
854.3712	1031.0859	2208.05	1333.55
854.5163	1033.0731	2234.65	1361.3
854.6613	1035.0596	2223.4	1350.1
854.8064	1037.0454	2197.25	1325.35
854.9515	1039.0304	2198.15	1322.15
855.0965	1041.0148	2165.4	1290.8
855.2416	1042.9985	2149.25	1274.7
855.3867	1044.9814	2135.05	1263.35
855.5317	1046.9636	2115.5	1240
855.6768	1048.9452	2125.3	1251.85
855.8219	1050.926	2141.5	1268.7
855.9669	1052.9061	2161	1287.55
856.112	1054.8855	2161.1	1288.55
856.257	1056.8642	2163.2	1289.7
856.4021	1058.8421	2163.65	1286.65
856.5471	1060.8194	2167.25	1294.25
856.6921	1062.7959	2160.7	1286.05
856.8372	1064.7717	2164.1	1288.7
856.9822	1066.7469	2184.2	1307.95
857.1272	1068.7213	2187.2	1312.85
857.2723	1070.695	2196.95	1321.45
857.4173	1072.6679	2215.65	1341.65
857.5623	1074.6402	2237.65	1361.8
857.7073	1076.6117	2234.95	1354.65
857.8523	1078.5826	2200.85	1325.45
857.9973	1080.5527	2173.1	1295.95
858.1423	1082.5221	2139.35	1262.35
858.2873	1084.4908	2121.5	1245.8
858.4323	1086.4587	2108.55	1231.2
858.5773	1088.426	2099.9	1223.2
858.7223	1090.3925	2102.95	1223.8
858.8673	1092.3584	2104.3	1232.45
859.0123	1094.3235	2109.85	1237.5
859.1573	1096.2879	2136.15	1260.55
859.3022	1098.2515	2173	1298.85
859.4472	1100.2145	2199.15	1324.45
859.5922	1102.1767	2249.9	1370.55
859.7371	1104.1382	2286.45	1410.6
859.8821	1106.099	2345.7	1468
860.027	1108.0591	2401.9	1523.9
860.172	1110.0185	2445.1	1567.4
860.3169	1111.9771	2485.75	1610.6
860.4619	1113.9351	2514.5	1637.95
860.6068	1115.8923	2544.2	1667.6
860.7517	1117.8488	2540.45	1661.4
860.8967	1119.8045	2468.8	1591.75
861.0416	1121.7596	2407.1	1529
861.1865	1123.7139	2330.75	1453.4
861.3314	1125.6675	2302.4	1427.95
861.4763	1127.6204	2299.7	1424.1
861.6212	1129.5726	2296.3	1416.75
861.7661	1131.524	2289.4	1414.4
861.911	1133.4748	2253.65	1379.05
862.0559	1135.4248	2200.4	1322.25
862.2008	1137.3741	2146.7	1271.15
862.3457	1139.3226	2127.45	1251.05
862.4905	1141.2705	2117.55	1240.45
862.6354	1143.2176	2110.1	1225.75
862.7803	1145.164	2126.9	1248.5
862.9251	1147.1097	2098.05	1221.95
863.07	1149.0546	2076.55	1199.45
863.2148	1150.9989	2054.25	1177.65
863.3597	1152.9424	2023.65	1149
863.5045	1154.8852	2013.6	1138.15
863.6493	1156.8272	2009.35	1133.15
863.7942	1158.7686	2018.4	1134.7
863.939	1160.7092	2015.95	1139.3
864.0838	1162.6491	2028.35	1148.4
864.2286	1164.5883	2042.55	1166.5
864.3734	1166.5267	2062.85	1185.45
864.5182	1168.4644	2093.45	1216.6
864.663	1170.4014	2133.55	1250.85
864.8078	1172.3377	2186.75	1311.7
864.9526	1174.2732	2259.85	1383.7
865.0974	1176.2081	2362.8	1488.6
865.2421	1178.1421	2478.95	1598
865.3869	1180.0755	2606.8	1729.85
865.5317	1182.0082	2662.25	1787.25
865.6764	1183.9401	2651.05	1772.55
865.8212	1185.8713	2569.8	1692.5
865.9659	1187.8017	2465.45	1587.6
866.1106	1189.7315	2359.05	1480
866.2554	1191.6605	2292.3	1386.95
866.4001	1193.5888	2211.6	1331.7
866.5448	1195.5163	2184.2	1307.35
866.6895	1197.4432	2142.85	1264.35
866.8342	1199.3693	2130.4	1252.4
866.9789	1201.2947	2127.8	1243.45
867.1236	1203.2193	2111.5	1234.95
867.2683	1205.1432	2107.35	1227.65
867.413	1207.0664	2100.25	1220.55
867.5576	1208.9889	2106.85	1224.85
867.7023	1210.9106	2104.7	1226.25
867.847	1212.8316	2105.6	1228.9
867.9916	1214.7519	2136.35	1248.4
868.1363	1216.6715	2136.2	1259.9
868.2809	1218.5903	2156	1278.5
868.4255	1220.5084	2170.25	1294.5
868.5701	1222.4257	2199.3	1320
868.7148	1224.3424	2207.05	1330.35
868.8594	1226.2583	2236.9	1353.65
869.004	1228.1735	2284.3	1406.8
869.1486	1230.0879	2320.9	1441.1
869.2932	1232.0016	2373.7	1497.55
869.4377	1233.9146	2407.55	1526.45
869.5823	1235.8269	2433.1	1554.15
869.7269	1237.7384	2449.5	1572.55
869.8715	1239.6492	2451.15	1575
870.016	1241.5592	2479.1	1599.5
870.1606	1243.4686	2513.05	1634.05
870.3051	1245.3772	2582.6	1702.25
870.4496	1247.285	2667.75	1789.45
870.5941	1249.1922	2759.65	1879.4
870.7387	1251.0986	2831.7	1954.85
870.8832	1253.0042	2912.2	2032.6
871.0277	1254.9092	2979.8	2101.55
871.1722	1256.8134	3030.65	2153.5
871.3167	1258.7169	3077.6	2197.6
871.4611	1260.6196	3079.65	2198.65
871.6056	1262.5216	3073.6	2192.85
871.7501	1264.4229	3059.8	2179.75
871.8945	1266.3234	3046.25	2168.5
872.039	1268.2232	3040.6	2159.9
872.1834	1270.1223	3016.25	2137.65
872.3278	1272.0207	3003.45	2125.4
872.4723	1273.9183	3010.5	2126.2
872.6167	1275.8151	2999.7	2121.75
872.7611	1277.7113	3061.75	2181.7
872.9055	1279.6067	3132.05	2254.75
873.0499	1281.5014	3246.6	2367.1
873.1943	1283.3953	3423.5	2542.15
873.3386	1285.2885	3569.85	2691.05
873.483	1287.181	3701.95	2819.2
873.6274	1289.0727	3783.7	2907.1
873.7717	1290.9637	3804	2923.25
873.9161	1292.854	3789.3	2911.55
874.0604	1294.7435	3720.4	2843.3
874.2047	1296.6323	3622.7	2742.95
874.349	1298.5204	3547.7	2664.4
874.4933	1300.4077	3486.25	2607.6
874.6376	1302.2943	3416.55	2536.5
874.7819	1304.1802	3364.1	2486.2
874.9262	1306.0653	3282.05	2398.6
875.0705	1307.9497	3179.05	2298.4
875.2147	1309.8333	3108.35	2229.4
875.359	1311.7162	3044.2	2165.35
875.5032	1313.5984	2999.3	2116.05
875.6475	1315.4798	2971.05	2072.85
875.7917	1317.3605	2943.6	2048.4
875.9359	1319.2405	2893.4	2013.45
876.0801	1321.1197	2830.5	1949.75
876.2243	1322.9982	2747.65	1863.2
876.3685	1324.876	2660.3	1780.15
876.5127	1326.753	2577.55	1697.45
876.6569	1328.6293	2495	1613.45
876.801	1330.5048	2434.8	1552.65
876.9452	1332.3796	2372.2	1492.9
877.0893	1334.2537	2335.85	1430.85
877.2335	1336.127	2284	1404.75
877.3776	1337.9996	2265.95	1386.55
877.5217	1339.8714	2245.9	1365.1
877.6658	1341.7426	2271.85	1347.2
877.8099	1343.6129	2240.85	1362.5
877.954	1345.4826	2209.65	1329.1
878.0981	1347.3515	2210.05	1327.3
878.2422	1349.2196	2197.6	1315.2
878.3862	1351.087	2193.75	1313.1
878.5303	1352.9537	2197.7	1315.8
878.6743	1354.8197	2205.1	1324
878.8184	1356.6849	2215.7	1334.15
878.9624	1358.5493	2256.6	1376.15
879.1064	1360.4131	2284.8	1404.4
879.2504	1362.276	2319.7	1438.55
879.3944	1364.1383	2356.4	1476.3
879.5384	1365.9998	2362.25	1477.35
879.6823	1367.8606	2318.3	1437.2
879.8263	1369.7206	2280.65	1399.4
879.9702	1371.5799	2258.05	1376.6
880.1142	1373.4384	2220.55	1340.65
880.2581	1375.2962	2181.2	1297.55
880.402	1377.1533	2109.2	1231.05
880.5459	1379.0096	2060.15	1178.25
880.6898	1380.8652	2021.55	1141.2
880.8337	1382.7201	1958.8	1078.75
880.9776	1384.5742	1928.95	1049.65
881.1215	1386.4275	1895.3	1014.95
881.2653	1388.2802	1882.8	1003.45
881.4092	1390.132	1853.55	973.3
881.553	1391.9832	1845.35	963.8
881.6968	1393.8336	1833.5	952.85
881.8406	1395.6832	1825.1	943.9
881.9844	1397.5322	1814.95	932.55
882.1282	1399.3803	1803.95	918.1
882.272	1401.2278	1785.7	905
882.4158	1403.0745	1778.25	896.55
882.5595	1404.9204	1770	889.25
882.7033	1406.7656	1770.75	889.75
882.847	1408.6101	1769.6	889.35
882.9908	1410.4538	1773.95	893.9
883.1345	1412.2968	1776	893.55
883.2782	1414.139	1783.4	904.05
883.4219	1415.9805	1788.6	905.5
883.5656	1417.8213	1811.3	923.75
883.7092	1419.6613	1822.3	942.55
883.8529	1421.5006	1855.5	974.85
883.9965	1423.3391	1890.1	1007.85
884.1402	1425.1769	1954.15	1071.45
884.2838	1427.0139	2026	1144
884.4274	1428.8502	2115.8	1235.15
884.571	1430.6858	2204.25	1323.45
884.7146	1432.5206	2251.6	1369.85
884.8582	1434.3547	2257.25	1378.2
885.0018	1436.188	2254.65	1375.1
885.1453	1438.0206	2244.75	1362.05
885.2889	1439.8524	2218.35	1336.05
885.4324	1441.6835	2206.5	1325.7
885.5759	1443.5139	2210.75	1328.75
885.7194	1445.3435	2202.4	1322.4
885.8629	1447.1724	2200	1317.95
886.0064	1449.0005	2202.9	1322.3
886.1499	1450.8279	2187.8	1303.95
886.2933	1452.6545	2184.5	1303.45
886.4368	1454.4804	2184.3	1304.9
886.5802	1456.3056	2191.6	1302.9
886.7237	1458.13	2167.8	1287.45
886.8671	1459.9536	2138.3	1256.5
887.0105	1461.7766	2102.4	1223.85
887.1539	1463.5987	2048.95	1166.35
887.2972	1465.4202	2007.85	1127.55
887.4406	1467.2409	1956.5	1074.25
887.584	1469.0608	1910.9	1030.45
887.7273	1470.88	1870.95	987.95
887.8706	1472.6984	1833.35	951.6
888.0139	1474.5161	1820.35	937.1
888.1572	1476.3331	1788.9	906.95
888.3005	1478.1493	1768.65	885.85
888.4438	1479.9648	1767.35	888.4
888.5871	1481.7795	1761.15	879.8
888.7303	1483.5935	1756.2	874.4
888.8736	1485.4067	1754.9	875
889.0168	1487.2192	1748.75	865.7
889.16	1489.031	1743.4	860.55
889.3032	1490.842	1737.4	855.9
889.4464	1492.6522	1739.15	859.25
889.5896	1494.4618	1731.1	848.7
889.7327	1496.2705	1726.4	845.95
889.8759	1498.0785	1729.2	847.45
890.019	1499.8858	1711.45	830.8
890.1622	1501.6924	1703.9	821.85
890.3053	1503.4981	1700.1	819.1
890.4484	1505.3032	1693.3	811.1
890.5914	1507.1075	1686.15	805.65
890.7345	1508.911	1674.55	793.75
890.8776	1510.7138	1666.2	784.15
891.0206	1512.5159	1657.1	777.85
891.1637	1514.3172	1653.95	771.15
891.3067	1516.1178	1641.4	762.65
891.4497	1517.9176	1645.45	759.45
891.5927	1519.7166	1633.8	751.05
891.7357	1521.515	1635.15	745.7
891.8786	1523.3126	1622.7	741.85
892.0216	1525.1094	1618.15	735
892.1645	1526.9055	1616.35	735.95
892.3074	1528.7008	1614.25	733.25
892.4503	1530.4954	1609.6	726.9
892.5932	1532.2893	1603.45	724
892.7361	1534.0824	1608.2	722.4
892.879	1535.8747	1607	726.1
893.0218	1537.6663	1607.65	725.65
893.1647	1539.4572	1602.1	718.55
893.3075	1541.2473	1597.55	716.35
893.4503	1543.0367	1607.5	727.45
893.5931	1544.8253	1612.8	726.25
893.7359	1546.6132	1623.7	739.55
893.8787	1548.4003	1630.9	740.2
894.0214	1550.1867	1642.85	752.35
894.1642	1551.9723	1654.2	767.1
894.3069	1553.7572	1674.35	790.95
894.4496	1555.5414	1699.6	816.4
894.5923	1557.3247	1742.85	858.65
894.735	1559.1074	1777.25	895.1
894.8777	1560.8893	1824.2	942.95
895.0204	1562.6705	1875.2	994.4
895.163	1564.4509	1892.85	1012.6
895.3056	1566.2305	1912.8	1030.6
895.4482	1568.0094	1919.15	1038.45
895.5908	1569.7876	1922.55	1042.05
895.7334	1571.565	1921.7	1040.45
895.876	1573.3417	1916.45	1035.5
896.0186	1575.1176	1935.45	1053.55
896.1611	1576.8928	1946.1	1063.6
896.3036	1578.6672	1964.25	1085.1
896.4461	1580.4409	1996	1117.05
896.5886	1582.2138	2015.55	1131.05
896.7311	1583.986	2052.2	1172.05
896.8736	1585.7575	2098.75	1218.95
897.0161	1587.5282	2123.55	1244.95
897.1585	1589.2981	2170.85	1293.3
897.3009	1591.0673	2197.3	1316.1
897.4433	1592.8358	2222.2	1342.1
897.5857	1594.6035	2231.7	1347.25
897.7281	1596.3704	2242.95	1359.75
897.8705	1598.1366	2246.45	1362.85
898.0128	1599.9021	2237.65	1356.35
898.1551	1601.6668	2242.25	1357.6
898.2975	1603.4308	2238.65	1358.15
898.4398	1605.194	2262.75	1375
898.5821	1606.9564	2312.25	1431
898.7243	1608.7182	2383	1498.55
898.8666	1610.4791	2460	1579.15
899.0088	1612.2394	2561.3	1682.55
899.1511	1613.9988	2659.6	1777.75
899.2933	1615.7576	2729.5	1848.5
899.4355	1617.5156	2759.85	1873.85
899.5776	1619.2728	2713.7	1830.6
899.7198	1621.0293	2638.85	1759.45
899.862	1622.785	2532.9	1649
900.0041	1624.54	2403.85	1518.35
900.1462	1626.2942	2282.7	1401.65
900.2883	1628.0477	2169.9	1285.6
900.4304	1629.8005	2062.45	1177.1
900.5725	1631.5525	1981.7	1100.65
900.7145	1633.3037	1911.9	1029.65
900.8566	1635.0542	1870.45	989.6
900.9986	1636.804	1825.45	944.3
901.1406	1638.553	1839.45	906.55
901.2826	1640.3013	1757.9	878.7
901.4245	1642.0488	1732.05	848.75
901.5665	1643.7955	1717.2	836.3
901.7085	1645.5416	1717.8	837.3
901.8504	1647.2868	1716.35	835.95
901.9923	1649.0313	1699.1	816.25
902.1342	1650.7751	1720.3	835.8
902.2761	1652.5181	1718.65	838.25
902.4179	1654.2604	1737.95	855
902.5598	1656.0019	1754.25	873.3
902.7016	1657.7427	1781.15	901.1
902.8434	1659.4828	1824.4	943.75
902.9852	1661.222	1864.35	982.6
903.127	1662.9606	1886.15	1005.95
903.2687	1664.6984	1883.25	1003.55
903.4105	1666.4354	1854.1	971.55
903.5522	1668.1717	1787.8	906.55
903.6939	1669.9072	1713.45	833.25
903.8356	1671.642	1662.5	778.8
903.9773	1673.3761	1594.95	715.3
904.119	1675.1094	1545.1	664.45
904.2606	1676.8419	1519.95	639.75
904.4022	1678.5737	1499.2	616.4
904.5439	1680.3048	1474.8	593.45
904.6855	1682.0351	1466.25	585.9
904.827	1683.7646	1449.4	567.55
904.9686	1685.4934	1431.55	550.3
905.1101	1687.2215	1426	544.1
905.2517	1688.9488	1416.8	536.65
905.3932	1690.6754	1410.35	531.05
905.5347	1692.4012	1405.3	525.8
905.6761	1694.1263	1399	519.35
905.8176	1695.8506	1393.3	513.95
905.9591	1697.5742	1392.8	514.85
906.1005	1699.297	1384.75	504.3
906.2419	1701.0191	1380.3	499.5
906.3833	1702.7404	1370.5	489.9
906.5246	1704.461	1368.95	483.65
906.666	1706.1808	1375.3	493.4
906.8073	1707.8999	1370.4	489.85
906.9487	1709.6182	1366.5	485.55
907.09	1711.3358	1362.95	482.85
907.2313	1713.0527	1353.8	473.05
907.3725	1714.7688	1356.5	470.3
907.5138	1716.4841	1348.9	467.6
907.655	1718.1987	1353.6	467.2
907.7962	1719.9126	1336.2	455.35
907.9374	1721.6257	1347.8	462
908.0786	1723.338	1340.45	458.2
908.2198	1725.0496	1332.8	449.6
908.3609	1726.7605	1335.15	452.6
908.502	1728.4706	1332.5	449.3
908.6431	1730.18	1334.05	450.05
908.7842	1731.8886	1329.85	448.95
908.9253	1733.5964	1329.05	443.35
909.0664	1735.3036	1333.4	450
909.2074	1737.0099	1321.05	438.7
909.3484	1738.7156	1318.5	439.55
909.4894	1740.4204	1322.05	438.3
909.6304	1742.1246	1315.55	433.05
909.7714	1743.8279	1315.05	434.9
909.9123	1745.5306	1314.9	433.55
910.0532	1747.2325	1311.75	429.4
910.1941	1748.9336	1304.9	424.5
910.335	1750.634	1309.95	426.1
910.4759	1752.3336	1302.8	421.4
910.6168	1754.0325	1300.9	419.9
910.7576	1755.7307	1303	422.6
910.8984	1757.4281	1301	422.45
911.0392	1759.1247	1307.95	418.7
911.18	1760.8206	1303.85	417.95
911.3208	1762.5158	1299.8	416.8
911.4615	1764.2102	1294.05	414.75
911.6022	1765.9039	1292	411.05
911.7429	1767.5968	1288.35	408.3
911.8836	1769.289	1293.55	412.5
912.0243	1770.9804	1289.2	408.75
912.1649	1772.6711	1287.55	405.3
912.3056	1774.361	1292.05	410.4
912.4462	1776.0502	1290.4	407.8
912.5868	1777.7386	1283	399.65
912.7274	1779.4263	1289.5	406.65
912.8679	1781.1132	1286	403.45
913.0084	1782.7994	1284.9	401.85
913.149	1784.4849	1282.9	401.75
913.2895	1786.1696	1297.85	396.35
913.4299	1787.8535	1286.8	406.7
913.5704	1789.5367	1277.45	395.15
913.7108	1791.2192	1282.4	400.35
913.8513	1792.9009	1291.25	393.65
913.9917	1794.5818	1279.8	397.35
914.132	1796.2621	1274.2	395.85
914.2724	1797.9415	1269.7	389.35
914.4128	1799.6202	1274.6	393.65
914.5531	1801.2982	1271.3	390.35
914.6934	1802.9755	1269.35	386.85
914.8337	1804.6519	1271.8	391.4
914.9739	1806.3277	1267.7	386.7
915.1142	1808.0027	1263.4	383
915.2544	1809.6769	1266.2	385.3
915.3946	1811.3504	1260.95	377.75
915.5348	1813.0231	1261.75	380.65
915.675	1814.6951	1256.85	375.25
915.8151	1816.3664	1266.05	384.35
915.9553	1818.0369	1259.1	377
916.0954	1819.7067	1257.9	376.95
916.2355	1821.3757	1256.6	375.4
916.3755	1823.044	1249.65	370.7
916.5156	1824.7115	1255.15	374.95
916.6556	1826.3783	1255.7	375.8
916.7956	1828.0443	1252.35	372.75
916.9356	1829.7096	1255	371.8
917.0756	1831.3741	1260.35	375.1
917.2155	1833.0379	1255.35	374.3
917.3555	1834.701	1251.75	369.35
917.4954	1836.3633	1250.95	368.75
917.6353	1838.0248	1254.45	370.8
917.7751	1839.6856	1255.3	375.7
917.915	1841.3457	1243	363.9
918.0548	1843.005	1244	364.65
918.1946	1844.6636	1242.3	362.9
918.3344	1846.3214	1245.8	363.1
918.4742	1847.9785	1251.4	373.9
918.6139	1849.6349	1239.25	358.7
918.7537	1851.2904	1254.35	363.1
918.8934	1852.9453	1243.05	363.8
919.0331	1854.5994	1242.65	360.5
919.1727	1856.2528	1246.95	360.2
919.3124	1857.9054	1238.35	356.9
919.452	1859.5572	1236.9	356
919.5916	1861.2083	1241.15	360.25
919.7312	1862.8587	1239.4	357.2
919.8708	1864.5084	1242.45	361.55
920.0103	1866.1572	1234.3	354.9
920.1498	1867.8054	1238.25	356.85
920.2893	1869.4528	1232	350.4
920.4288	1871.0994	1228.9	346.95
920.5683	1872.7453	1230.7	350.7
920.7077	1874.3905	1242.95	344.6
920.8471	1876.0349	1233.1	352.6
920.9865	1877.6786	1232.5	351.15
921.1259	1879.3215	1231.95	352.95
921.2653	1880.9637	1226.85	342.95
921.4046	1882.6051	1224.25	342.5
921.5439	1884.2458	1228.2	345.4
921.6832	1885.8858	1223.25	340.8
921.8225	1887.525	1229.75	348.55
921.9617	1889.1634	1224.55	342.65
922.101	1890.8011	1217.25	334.95
922.2402	1892.4381	1221.3	342
922.3794	1894.0743	1219.95	340.45
922.5185	1895.7098	1215.8	334.4
922.6577	1897.3446	1221.5	340.45
922.7968	1898.9786	1219.25	334
922.9359	1900.6118	1217.35	336.6
923.075	1902.2443	1218.15	335.35
923.214	1903.8761	1211.15	331.15
923.3531	1905.5071	1215	331.55
923.4921	1907.1374	1211.05	328.65
923.6311	1908.7669	1209.55	326.8
923.77	1910.3957	1209.05	328.45
923.909	1912.0237	1210.6	330.1
924.0479	1913.651	1200.4	319.4
924.1868	1915.2776	1207.3	327.45
924.3257	1916.9034	1206.4	324.3
924.4646	1918.5285	1202.05	322.55
924.6034	1920.1528	1203.05	320.5
924.7422	1921.7764	1204.7	325
924.881	1923.3992	1202.75	319.7
925.0198	1925.0213	1200.95	319.05
925.1586	1926.6427	1198.25	318.65
925.2973	1928.2633	1300.5	314.85
925.436	1929.8832	1201.75	318.3
925.5747	1931.5023	1193.25	313.5
925.7134	1933.1207	1195.4	314.05
925.852	1934.7383	1197.75	315.95
925.9906	1936.3552	1190.45	310.25
926.1292	1937.9714	1194.05	314.05
926.2678	1939.5868	1190.6	307.65
926.4064	1941.2015	1191.7	309.3
926.5449	1942.8154	1185.2	303.7
926.6834	1944.4286	1186.75	305.8
926.8219	1946.041	1206.1	305.95
926.9604	1947.6528	1186.65	300.35
927.0988	1949.2637	1186.1	305.7
927.2372	1950.8739	1182.35	302.6
927.3756	1952.4834	1179.05	297.9
927.514	1954.0921	1186.8	303.3
927.6523	1955.7001	1191.75	306.85
927.7907	1957.3074	1178.5	297.25
927.929	1958.9139	1177.3	295.8
928.0673	1960.5197	1184.1	300.3
928.2055	1962.1247	1176.65	296.85
928.3438	1963.729	1173.85	293.15
928.482	1965.3325	1197.8	290.65
928.6202	1966.9353	1173.5	291.8
928.7584	1968.5374	1175	293.7
928.8965	1970.1387	1173.85	291.35
929.0346	1971.7393	1163.8	282.65
929.1727	1973.3392	1166.9	284.5
929.3108	1974.9383	1166.5	286.45
929.4489	1976.5366	1160.6	277.6
929.5869	1978.1342	1164.5	283
929.7249	1979.7311	1170.6	290.3
929.8629	1981.3273	1169.2	286.4
930.0009	1982.9227	1161.65	279.95
930.1388	1984.5173	1163.15	280.2
930.2767	1986.1112	1159.65	278.85
930.4146	1987.7044	1163.65	285.15
930.5525	1989.2968	1160.3	277.65
930.6904	1990.8885	1166.55	281.6
930.8282	1992.4795	1159.95	277
930.966	1994.0697	1154.9	272.8
931.1038	1995.6592	1152	270.3
931.2415	1997.2479	1157	274.65
931.3793	1998.8359	1153.05	271.7
931.517	2000.4232	1156.65	277.1
931.6547	2002.0097	1148.9	268.6
931.7923	2003.5955	1154.65	272.2
931.93	2005.1805	1156	271.45
932.0676	2006.7648	1151	269.65
932.2052	2008.3484	1149.3	267.25
932.3427	2009.9312	1154.65	271.1
932.4803	2011.5133	1150.55	270.2
932.6178	2013.0946	1150.35	270.1
932.7553	2014.6752	1146.6	265.05
932.8928	2016.2551	1152.9	270.85
933.0302	2017.8342	1150.75	269
933.1676	2019.4126	1144	265.2
933.305	2020.9902	1143.3	263.6
933.4424	2022.5672	1148.25	266.75
933.5798	2024.1433	1154.75	265.4
933.7171	2025.7188	1146.7	266.3
933.8544	2027.2935	1136.75	252.8
933.9917	2028.8674	1141.05	260.75
934.129	2030.4406	1136.3	255.6
934.2662	2032.0131	1137.85	257.2
934.4034	2033.5849	1142.6	254.65
934.5406	2035.1559	1140.1	261.3
934.6778	2036.7261	1138.2	254.6
934.8149	2038.2957	1136.3	255.15
934.952	2039.8645	1133.85	254.1
935.0891	2041.4325	1144.9	260.1
935.2262	2042.9998	1138.3	256.55
935.3632	2044.5664	1137.7	252.55
935.5002	2046.1323	1135	254
935.6372	2047.6974	1136.45	256.2
935.7742	2049.2617	1133.3	252.15
935.9111	2050.8254	1161.75	244.8
936.048	2052.3883	1129.7	246.9
936.1849	2053.9504	1130.95	249.95
936.3218	2055.5118	1134.3	251.4
936.4586	2057.0725	1135.05	250.3
936.5955	2058.6325	1136.2	253.6
936.7323	2060.1917	1128.2	247.4
936.869	2061.7502	1126.3	242.5
937.0058	2063.3079	1128.65	248.25
937.1425	2064.8649	1132.6	247.65
937.2792	2066.4212	1129.4	246.65
937.4159	2067.9767	1120.15	239.8
937.5525	2069.5315	1123.25	241.65
937.6891	2071.0856	1125.45	242.9
937.8257	2072.6389	1124.2	243.1
937.9623	2074.1915	1117.75	237.95
938.0989	2075.7433	1119.75	237.05
938.2354	2077.2945	1117.55	236.4
938.3719	2078.8448	1118.75	237.1
938.5084	2080.3945	1116.25	235.1
938.6448	2081.9434	1114.65	233
938.7812	2083.4916	1115.6	231.55
938.9176	2085.039	1117.7	234.5
939.054	2086.5857	1116.05	234.35
939.1903	2088.1317	1121.05	240.55
939.3267	2089.677	1114.65	234.4
939.463	2091.2215	1118.4	238.4
939.5992	2092.7652	1115.75	233.25
939.7355	2094.3083	1112.6	230.25
939.8717	2095.8506	1110.8	230.6
940.0079	2097.3921	1116.75	236.25
940.1441	2098.933	1112.9	232.85
940.2802	2100.4731	1110.85	229.45
940.4163	2102.0124	1130.4	230.35
940.5524	2103.5511	1110.25	229.65
940.6885	2105.089	1109.2	225.85
940.8245	2106.6261	1108.2	228.45
940.9606	2108.1626	1116.7	234.25
941.0965	2109.6983	1133.05	222.7
941.2325	2111.2332	1106.5	223.8
941.3684	2112.7675	1108.75	227.1
941.5044	2114.301	1103.95	221.3
941.6403	2115.8337	1107.1	224.9
941.7761	2117.3657	1106.1	224.05
941.912	2118.897	1104.85	221.85
942.0478	2120.4276	1108.65	221.7
942.1835	2121.9575	1099.3	216.5
942.3193	2123.4866	1116.05	221.4
942.455	2125.0149	1107.6	223.8
942.5907	2126.5426	1100.55	219.5
942.7264	2128.0695	1101.9	214.45
942.8621	2129.5956	1106.5	225.75
942.9977	2131.1211	1104	215.8
943.1333	2132.6458	1097.7	217.5
943.2689	2134.1698	1098.2	217.25
943.4044	2135.693	1104.1	219.2
943.54	2137.2155	1102.5	217.75
943.6755	2138.7373	1098	214.8
943.8109	2140.2584	1097.6	216.3
943.9464	2141.7787	1104.55	215.95
944.0818	2143.2983	1101.3	219.8
944.2172	2144.8171	1096.35	215.9
944.3526	2146.3353	1094.6	209.1
944.4879	2147.8527	1089.15	210.4
944.6232	2149.3693	1093.35	211.4
944.7585	2150.8853	1091.85	208.9
944.8938	2152.4005	1095.1	214.8
945.029	2153.9149	1090.1	208.75
945.1642	2155.4287	1084.25	201.95
945.2994	2156.9417	1087.35	204.4
945.4346	2158.454	1091.55	207.7
945.5697	2159.9655	1092.5	210.7
945.7048	2161.4764	1087.1	205.2
945.8399	2162.9865	1081.35	198.55
945.9749	2164.4958	1088.95	204.55
946.1099	2166.0045	1089.3	204.8
946.2449	2167.5124	1082.45	199.75
946.3799	2169.0195	1087.5	205.05
946.5148	2170.526	1084.8	203.95
946.6498	2172.0317	1084.55	202.6
946.7846	2173.5367	1086.45	203.4
946.9195	2175.0409	1085.55	205
947.0543	2176.5445	1082.8	202.05
947.1891	2178.0473	1083.2	201.45
947.3239	2179.5494	1088.05	204.4
947.4587	2181.0507	1081.5	198.8
947.5934	2182.5513	1075.65	194.45
947.7281	2184.0512	1082.65	199
947.8628	2185.5504	1082.5	201.25
947.9974	2187.0488	1080.3	197.9
948.132	2188.5465	1077.05	194.8
948.2666	2190.0435	1072.9	189
948.4012	2191.5397	1077.9	196.55
948.5357	2193.0353	1075.75	193.65
948.6702	2194.5301	1079.4	195.2
948.8047	2196.0241	1073.45	191.95
948.9392	2197.5175	1073.75	191.4
949.0736	2199.0101	1077.45	193.65
949.208	2200.502	1074.4	194.4
949.3424	2201.9931	1075.2	192.9
949.4767	2203.4835	1078.8	193.05
949.611	2204.9733	1084.65	195.65
949.7453	2206.4622	1072.85	191.45
949.8796	2207.9505	1075.65	190.6
950.0138	2209.438	1070.2	189.75
950.148	2210.9248	1075.1	192.9
950.2822	2212.4109	1066.4	187.3
950.4164	2213.8962	1070.95	186.95
950.5505	2215.3809	1067.1	184.85
950.6846	2216.8648	1067.35	186.6
950.8186	2218.3479	1071.6	185.15
950.9527	2219.8304	1069.75	187.9
951.0867	2221.3121	1068.5	184.25
951.2207	2222.7931	1065.85	185.5
951.3546	2224.2733	1061.5	178.25
951.4886	2225.7529	1061.45	179.3
951.6225	2227.2317	1065.5	180.7
951.7563	2228.7098	1070.7	192.1
951.8902	2230.1872	1065.45	183.2
952.024	2231.6638	1058.6	176.65
952.1578	2233.1397	1064.2	177.6
952.2916	2234.6149	1059.15	177.9
952.4253	2236.0894	1063.9	182.65
952.559	2237.5632	1070.6	179.15
952.6927	2239.0362	1061.3	180.15
952.8263	2240.5085	1059.35	176.85
952.9599	2241.9801	1058.1	175.4
953.0935	2243.4509	1061.1	180.25
953.2271	2244.921	1056.65	175.45
953.3606	2246.3904	1053.7	169.35
953.4941	2247.8591	1056.35	176
953.6276	2249.3271	1057.4	176.15
953.7611	2250.7943	1055.45	174.25
953.8945	2252.2608	1053.2	172.2
954.0279	2253.7266	1051.5	169.55
954.1612	2255.1917	1053.85	171.9
954.2946	2256.656	1050.55	168.1
954.4279	2258.1197	1048.3	167.4
954.5612	2259.5826	1051.6	167.35
954.6944	2261.0447	1054	168.65
954.8276	2262.5062	1050.05	166.55
954.9608	2263.9669	1053.4	168.2
955.094	2265.4269	1052.1	170.85
955.2271	2266.8862	1052.4	170.8
955.3602	2268.3448	1050.45	168.1
955.4933	2269.8026	1049.2	167.5
955.6264	2271.2598	1046.7	165.1
955.7594	2272.7162	1050.05	168.85
955.8924	2274.1719	1048.25	167.2
956.0253	2275.6268	1048.15	166.7
956.1583	2277.0811	1045.3	164.5
956.2912	2278.5346	1044.2	162.45
956.4241	2279.9874	1047.2	165.7
956.5569	2281.4395	1044.65	163.95
956.6897	2282.8908	1049.55	161
956.8225	2284.3414	1044.5	160.7
956.9553	2285.7914	1046.15	165.5
957.088	2287.2406	1045.35	160.6
957.2207	2288.689	1044.45	162.6
957.3534	2290.1368	1044.8	162.05
957.486	2291.5838	1047.35	163.25
957.6186	2293.0302	1042.7	159.8
957.7512	2294.4758	1044.95	163.45
957.8838	2295.9206	1048.85	165.6
958.0163	2297.3648	1044.05	161.95
958.1488	2298.8082	1042.85	160.9
958.2813	2300.251	1041.45	161.15
958.4137	2301.693	1043.15	160.2
958.5461	2303.1343	1040.35	156.8
958.6785	2304.5748	1036.1	153.45
958.8108	2306.0147	1039.8	158
958.9432	2307.4538	1041	154.55
959.0754	2308.8922	1036.5	156.55
959.2077	2310.3299	1038.55	155.25
959.3399	2311.7669	1033.9	154.65
959.4721	2313.2031	1038.65	157
959.6043	2314.6387	1035.9	154.55
959.7365	2316.0735	1039.45	158.65
959.8686	2317.5076	1034.15	151.05
960.0006	2318.941	1035.1	155.65
960.1327	2320.3737	1038	154.9
960.2647	2321.8056	1040.95	157.3
960.3967	2323.2369	1036.4	152.1
960.5287	2324.6674	1038.05	155.6
960.6606	2326.0972	1036.7	154.3
960.7925	2327.5263	1039.35	157.5
960.9244	2328.9547	1036.7	154
961.0562	2330.3823	1037.55	154.6
961.1881	2331.8092	1037.7	154.5
961.3198	2333.2355	1033.55	153.9
961.4516	2334.661	1032.55	150.55
961.5833	2336.0858	1033.05	151.3
961.715	2337.5098	1028.6	147.7
961.8467	2338.9332	1032.15	151.7
961.9783	2340.3558	1031.8	145.6
962.1099	2341.7778	1025.9	143.2
962.2415	2343.199	1030.85	146.8
962.373	2344.6195	1028.25	147.9
962.5045	2346.0393	1023.9	144.1
962.636	2347.4583	1027.3	144.8
962.7675	2348.8767	1027.35	144.35
962.8989	2350.2943	1033.5	151.3
963.0303	2351.7113	1024.65	140.55
963.1617	2353.1275	1024.8	143.85
963.293	2354.543	1050.2	145.35
963.4243	2355.9578	1030.05	147.6
963.5556	2357.3718	1028.35	148.15
963.6868	2358.7852	1025.55	141.35
963.818	2360.1978	1025.9	142.7
963.9492	2361.6098	1022.25	141.75
964.0803	2363.021	1025.25	141.3
964.2114	2364.4315	1023.8	142.9
964.3425	2365.8413	1027.7	143.65
964.4736	2367.2504	1022.4	141.4
964.6046	2368.6587	1020.65	136.95
964.7356	2370.0664	1022.1	140.95
964.8666	2371.4733	1019.45	136.4
964.9975	2372.8795	1019.3	136.2
965.1284	2374.285	1019.35	138.8
965.2593	2375.6899	1019.95	138.75
965.3901	2377.0939	1019.65	139.15
965.5209	2378.4973	1018.2	136.4
965.6517	2379.9	1017.05	134.65
965.7825	2381.3019	1018.6	137.15
965.9132	2382.7032	1015.2	133.85
966.0439	2384.1037	1012.95	132.85
966.1745	2385.5035	1015.05	133.75
966.3051	2386.9027	1015.95	135.75
966.4357	2388.3011	1020.9	134.65
966.5663	2389.6987	1015.95	133.3
966.6968	2391.0957	1017	135.55
966.8273	2392.492	1010.65	128.75
966.9578	2393.8876	1009.3	127.75
967.0882	2395.2824	1011.85	129.65
967.2186	2396.6765	1012.3	130.7
967.349	2398.07	1010.3	129.75
967.4793	2399.4627	1009.4	126.65
967.6097	2400.8547	1009.95	127.65
967.7399	2402.246	1019.65	131.4
967.8702	2403.6366	1012.15	128.65
968.0004	2405.0265	1006.65	123
968.1306	2406.4156	1014	129.65
968.2607	2407.8041	1012.1	127.05
968.3909	2409.1918	1011.15	128.3
968.521	2410.5789	1008.85	129.4
968.651	2411.9652	1008.4	120.65
968.781	2413.3508	1006.45	126.1
968.911	2414.7358	1007.45	126.35
969.041	2416.12	1001.8	120
969.1709	2417.5035	1005.95	127.1
969.3008	2418.8863	1010.05	126.15
969.4307	2420.2684	1008.4	126.6
969.5606	2421.6497	1007.1	124.15
969.6904	2423.0304	1005.8	125.65
969.8201	2424.4104	1004.5	121.7
969.9499	2425.7896	1011.35	123.3
970.0796	2427.1682	1004.85	124.5
970.2093	2428.546	1003.3	121.2
970.3389	2429.9232	1007.55	124.25
970.4685	2431.2996	999.5	117.3
970.5981	2432.6753	1004.1	121.5
970.7277	2434.0503	1003.45	118.75
970.8572	2435.4246	1006	126.05
970.9867	2436.7982	1004.65	120.35
971.1161	2438.1711	997.6	119.65
971.2456	2439.5433	1001.95	118.45
971.375	2440.9148	1006.35	121.7
971.5043	2442.2856	1002.15	122.4
971.6336	2443.6557	1000.3	116
971.7629	2445.025	1001.75	120.45
971.8922	2446.3937	997.9	115.2
972.0214	2447.7617	998.8	116.85
972.1506	2449.1289	997.8	117
972.2798	2450.4955	1001.75	115.7
972.4089	2451.8613	993.95	112.8
972.538	2453.2265	997.85	117.05
972.6671	2454.5909	1002.35	120.55
972.7961	2455.9546	1000	118.6
972.9251	2457.3177	994.35	112.55
973.0541	2458.68	997.35	115.5
973.1831	2460.0416	994.95	112.75
973.312	2461.4025	998.65	115.65
973.4408	2462.7627	1007.2	114.65
973.5697	2464.1222	995.95	117.85
973.6985	2465.4811	999.95	118.05
973.8273	2466.8392	996.5	113.65
973.956	2468.1966	999.8	117
974.0847	2469.5533	996.7	112.85
974.2134	2470.9093	1000.5	118.6
974.3421	2472.2645	998.55	113.6
974.4707	2473.6191	993.4	111.1
974.5993	2474.973	996.4	114.4
974.7278	2476.3262	996.5	113.9
974.8563	2477.6787	994	111.75
974.9848	2479.0305	996.3	114.45
975.1132	2480.3816	995.3	111.3
975.2417	2481.7319	990.1	109.05
975.37	2483.0816	996.9	114
975.4984	2484.4306	996.1	112.35
975.6267	2485.7789	993.65	112.15
975.755	2487.1264	993.25	108.8
975.8833	2488.4733	992.15	110.65
976.0115	2489.8195	1010.4	111.25
976.1397	2491.165	997.65	113.8
976.2678	2492.5097	989.7	105.25
976.3959	2493.8538	991	109.15
976.524	2495.1972	989.45	109.7
976.6521	2496.5398	989.75	105.4
976.7801	2497.8818	991.8	110.4
976.9081	2499.2231	989.6	107.2
977.036	2500.5637	992.3	108.9
977.164	2501.9035	990.3	108.4
977.2918	2503.2427	993.4	108.2
977.4197	2504.5812	989.7	109.75
977.5475	2505.919	989.05	103.45
977.6753	2507.256	990.8	111.15
977.8031	2508.5924	983.65	103.15
977.9308	2509.9281	994.1	105.55
978.0585	2511.2631	983.95	103
978.1861	2512.5974	982.65	102.2
978.3137	2513.9309	989.2	108.8
978.4413	2515.2638	1016	103.6
978.5689	2516.596	985.8	106.5
978.6964	2517.9275	985.65	103.1
978.8239	2519.2583	986.45	103.8
978.9513	2520.5884	987.9	103.8
979.0788	2521.9178	986.2	103.8
979.2062	2523.2465	985.15	103.5
979.3335	2524.5745	983.1	101.85
979.4608	2525.9018	983.9	101
979.5881	2527.2284	981.45	102.6
979.7154	2528.5543	981.45	100.35
979.8426	2529.8796	982.55	100
979.9698	2531.2041	983.6	101.45
980.0969	2532.5279	983.55	104.3
980.224	2533.851	983.95	101.55
980.3511	2535.1735	982.95	101.25
980.4781	2536.4952	982.45	101.7
980.6052	2537.8163	984.3	102.25
980.7321	2539.1366	984.2	104.35
980.8591	2540.4562	984.45	99.85
980.986	2541.7752	979.3	98.9
981.1129	2543.0935	984.35	100.9
981.2397	2544.411	982.4	99.3
981.3665	2545.7279	981.85	101.6
981.4933	2547.0441	979.6	96.85
981.62	2548.3596	981.1	97.4
981.7467	2549.6744	982.55	101.25
981.8734	2550.9885	986.35	95.5
982.0001	2552.3019	977.55	96.9
982.1267	2553.6146	982.1	100.15
982.2532	2554.9266	980.4	97.75
982.3798	2556.2379	980.35	94.3
982.5063	2557.5485	973.55	91.5
982.6327	2558.8585	985.55	96.55
982.7592	2560.1677	984.55	100.1
982.8856	2561.4762	979	98.75
983.0119	2562.7841	983.55	97.1
983.1383	2564.0913	979.2	99.55
983.2646	2565.3977	980.1	98.25
983.3908	2566.7035	975.4	93.75
983.517	2568.0086	979.2	97.55
983.6432	2569.313	981.8	100.2
983.7694	2570.6167	980	96.9
983.8955	2571.9197	978.3	96
984.0216	2573.222	978.2	93.55
984.1476	2574.5236	977.2	97.15
984.2737	2575.8246	979.95	95.95
984.3996	2577.1248	978.95	96.25
984.5256	2578.4244	976.3	93.4
984.6515	2579.7232	979.65	99.15
984.7774	2581.0214	1010.2	95.35
984.9032	2582.3189	977.45	97.2
985.029	2583.6157	985.6	98.3
985.1548	2584.9118	977.75	97.6
985.2806	2586.2072	979.3	98.3
985.4063	2587.5019	974	92.8
985.5319	2588.7959	975.55	92.8
985.6576	2590.0893	979.3	95.15
985.7832	2591.3819	978.1	98.5
985.9087	2592.6739	976.1	97.8
986.0343	2593.9652	979.6	97.45
986.1597	2595.2557	977.1	96
986.2852	2596.5456	980.8	96.45
986.4106	2597.8348	975.7	94.5
986.536	2599.1234	974.75	94.9
986.6614	2600.4112	979	98.2
986.7867	2601.6983	981.4	96.35
986.912	2602.9848	974.1	92.05
987.0372	2604.2705	983.5	95.05
987.1624	2605.5556	980.3	98.4
987.2876	2606.84	974.25	92.45
987.4128	2608.1237	978.9	95.8
987.5379	2609.4067	975.5	93.95
987.6629	2610.689	984.1	95.65
987.788	2611.9707	979.5	96.55
987.913	2613.2516	980.65	93.55
988.0379	2614.5319	975	95.1
988.1629	2615.8115	972.75	88.85
988.2878	2617.0903	974.5	93.1
988.4126	2618.3685	973.35	90.75
988.5375	2619.6461	975.35	92.7
988.6622	2620.9229	971.5	89.45
988.787	2622.199	971.75	90.7
988.9117	2623.4745	971.75	89.8
989.0364	2624.7493	975.3	93.7
989.161	2626.0234	971.85	92.3
989.2857	2627.2968	971.55	89.4
989.4102	2628.5695	974.75	90
989.5348	2629.8415	967.55	87.9
989.6593	2631.1128	972.05	87.9
989.7837	2632.3835	970.4	89.95
989.9082	2633.6535	966.2	83.45
990.0326	2634.9228	966.45	86.1
990.1569	2636.1914	970.75	89.5
990.2812	2637.4593	971.15	87.65
990.4055	2638.7265	967.95	84.65
990.5298	2639.9931	963.85	80.4
990.654	2641.259	973.3	90.75
990.7782	2642.5242	966	84.45
990.9023	2643.7887	970.6	89.9
991.0264	2645.0525	972.3	93.2
991.1505	2646.3156	970.2	88.45
991.2745	2647.5781	968.55	86.4
991.3985	2648.8398	968.6	87.6
991.5225	2650.1009	1006.45	89.95
991.6464	2651.3613	968.35	84.7
991.7703	2652.6211	966.55	86.3
991.8942	2653.8801	965.25	84.3
992.018	2655.1385	968.6	83.65
992.1418	2656.3961	963.8	82.45
992.2655	2657.6531	963.7	82.95
992.3892	2658.9094	966.95	85.1
992.5129	2660.1651	965.4	85.45
992.6366	2661.42	964.7	83.3
992.7602	2662.6743	967.55	83.8
992.8837	2663.9279	964.9	85.85
993.0073	2665.1808	965.1	82.8
993.1307	2666.433	969.9	88.8
993.2542	2667.6846	966.15	85.8
993.3776	2668.9354	968.35	84.15
993.501	2670.1856	965.65	83.2
993.6244	2671.4351	970.85	87.55
993.7477	2672.6839	966.2	82.8
993.8709	2673.9321	967.8	86.25
993.9942	2675.1795	968	86.1
994.1174	2676.4263	969.65	86.6
994.2405	2677.6724	970.7	90.75
994.3637	2678.9179	967.75	85.75
994.4868	2680.1626	970.8	90.05
994.6098	2681.4067	970.6	86.95
994.7328	2682.6501	967.85	89.35
994.8558	2683.8928	964.55	85.05
994.9788	2685.1348	967.8	86.1
995.1017	2686.3761	967.75	87.45
995.2245	2687.6168	965.45	83.95
995.3474	2688.8568	964.1	82.45
995.4702	2690.0961	966.8	86.2
995.5929	2691.3348	966.35	83.85
995.7156	2692.5727	965.6	86.05
995.8383	2693.81	966.55	83.4
995.961	2695.0466	964.6	84.85
996.0836	2696.2826	962.1	81.5
996.2062	2697.5178	968.1	80.65
996.3287	2698.7524	964.15	82.45
996.4512	2699.9863	964.65	80.55
996.5737	2701.2195	965.75	85.35
996.6961	2702.452	965.25	82.25
996.8185	2703.6839	966.45	84.6
996.9408	2704.9151	965.55	84.8
997.0631	2706.1456	966.75	85.6
997.1854	2707.3755	969.7	87.55
997.3077	2708.6046	971.45	87.9
997.4299	2709.8331	965.5	82.95
997.552	2711.0609	969.4	86.75
997.6742	2712.2881	968.65	85.9
997.7963	2713.5145	969.45	85.5
997.9183	2714.7403	971.15	92.25
998.0403	2715.9654	970.5	88.75
998.1623	2717.1899	984.3	85.95
998.2842	2718.4136	971.5	89.1
998.4062	2719.6367	976.9	95.75
998.528	2720.8591	986.2	98.25
998.6498	2722.0809	979.85	98.65
998.7716	2723.3019	982.05	98.95
998.8934	2724.5223	983.1	98.85
999.0151	2725.7421	985.25	102.3
999.1368	2726.9611	982.2	98.5
999.2584	2728.1795	984.65	99.9
999.38	2729.3972	981.55	100.35
999.5016	2730.6142	995.55	101.3
999.6231	2731.8306	980.1	98.25
999.7446	2733.0462	976.55	93.1
999.8661	2734.2612	977.85	91.75
999.9875	2735.4756	971.65	88.4
1000.1089	2736.6892	969.05	87.2
1000.2302	2737.9022	969.75	90.8
1000.3515	2739.1145	968.8	86.3
1000.4728	2740.3262	970.15	82.05
1000.594	2741.5372	965.5	83.25
1000.7152	2742.7475	965.95	84.9
1000.8363	2743.9571	963	78.7
1000.9575	2745.1661	961.95	73.85
1001.0785	2746.3744	960.85	78.15
1001.1996	2747.582	957.15	75.5
1001.3206	2748.7889	959.65	77
1001.4415	2749.9952	957.5	76.1
1001.5625	2751.2008	956.15	72.95
1001.6833	2752.4057	958.4	74.2
1001.8042	2753.61	954.55	71.05
1001.925	2754.8136	957.1	72.85
1002.0458	2756.0165	952.8	72.1
1002.1665	2757.2188	954.1	72.9
1002.2872	2758.4204	954.8	75.45
1002.4078	2759.6213	953.4	69.15
1002.5285	2760.8215	959.3	71.5
1002.649	2762.0211	956.25	74.3
1002.7696	2763.22	957.55	71.95
1002.8901	2764.4182	953.55	68.95
1003.0106	2765.6158	952.3	68.8
1003.131	2766.8127	953.8	71.55
1003.2514	2768.009	951.95	70.7
1003.3717	2769.2045	951.1	67.7
1003.492	2770.3994	952.6	71.4
1003.6123	2771.5936	949.55	66.7
1003.7325	2772.7872	951.45	72.7
1003.8527	2773.9801	950.6	65.95
1003.9729	2775.1723	966.25	68.6
1004.093	2776.3639	950.5	69.55
1004.2131	2777.5548	952.55	67.05
1004.3331	2778.745	953	71.7
1004.4531	2779.9346	949.05	66.05
1004.5731	2781.1235	949.15	66.6
1004.693	2782.3117	949.9	69.4
1004.8129	2783.4992	948.4	66.05
1004.9328	2784.6861	952.2	71.85
1005.0526	2785.8723	951.95	70.25
1005.1723	2787.0579	954.3	72.15
1005.2921	2788.2428	951.45	69.65
1005.4118	2789.427	952.1	71
1005.5314	2790.6106	952.65	69.85
1005.651	2791.7935	950.05	67.9
1005.7706	2792.9757	948.2	67.25
1005.8902	2794.1573	956	71.75
1006.0097	2795.3382	955.05	74.3
1006.1291	2796.5184	952.5	72.6
1006.2485	2797.698	958.65	75.3
1006.3679	2798.8769	956.95	73.75
1006.4873	2800.0551	957.95	75
1006.6066	2801.2327	960.6	75.2
1006.7258	2802.4096	957	75.25
1006.8451	2803.5859	958.15	74.8
1006.9642	2804.7615	961.2	79.15
1007.0834	2805.9364	960.1	78.8
1007.2025	2807.1106	965.55	84.7
1007.3216	2808.2842	968.6	84.75
1007.4406	2809.4572	969.15	90.3
1007.5596	2810.6294	974.2	91.65
1007.6785	2811.801	974.2	93.9
1007.7975	2812.972	978	96.65
1007.9163	2814.1423	978.25	97.35
1008.0352	2815.3119	988.7	104.45
1008.154	2816.4808	991	110.8
1008.2727	2817.6491	1002.35	119.9
1008.3914	2818.8167	1004.15	124.1
1008.5101	2819.9837	1014.7	127.8
1008.6288	2821.15	1018.3	136.2
1008.7474	2822.3157	1026.6	146.65
1008.8659	2823.4807	1033.95	151.25
1008.9844	2824.645	1045.65	163.35
1009.1029	2825.8086	1055.05	173.2
1009.2214	2826.9716	1069.9	189.1
1009.3398	2828.134	1073.1	191.85
1009.4581	2829.2957	1084	202.35
1009.5764	2830.4567	1089.25	209.5
1009.6947	2831.617	1096.45	216.1
1009.813	2832.7767	1102.15	221
1009.9312	2833.9358	1107.5	227.9
1010.0493	2835.0941	1104.05	218.45
1010.1675	2836.2519	1094.55	214.4
1010.2855	2837.4089	1093.65	210.75
1010.4036	2838.5653	1086.6	204.9
1010.5216	2839.7211	1088.5	206.15
1010.6396	2840.8761	1082.3	198.6
1010.7575	2842.0306	1078.45	198.2
1010.8754	2843.1843	1081.6	199.95
1010.9932	2844.3374	1085.05	205.25
1011.111	2845.4899	1087.2	203
1011.2288	2846.6417	1089.4	208.5
1011.3465	2847.7928	1096.7	216
1011.4642	2848.9433	1103.3	222.95
1011.5818	2850.0931	1103.45	223.4
1011.6995	2851.2422	1117.4	234.2
1011.817	2852.3907	1120.1	237.6
1011.9345	2853.5385	1129.2	246.85
1012.052	2854.6857	1154.65	246.35
1012.1695	2855.8323	1136.6	255.85
1012.2869	2856.9781	1134.6	253.8
1012.4042	2858.1233	1148	267.15
1012.5216	2859.2679	1151.3	270.15
1012.6389	2860.4118	1160.75	278.2
1012.7561	2861.555	1169.05	283.9
1012.8733	2862.6976	1171.5	287.95
1012.9905	2863.8395	1172.8	293
1013.1076	2864.9808	1179.6	299.05
1013.2247	2866.1214	1178.1	296.85
1013.3417	2867.2614	1178	296.3
1013.4587	2868.4007	1183	300.3
1013.5757	2869.5393	1187.35	304.8
1013.6926	2870.6773	1185.15	301.1
1013.8095	2871.8146	1187.1	302.35
1013.9263	2872.9513	1196.75	312.9
1014.0431	2874.0874	1196.05	314.55
1014.1599	2875.2227	1187.7	303.8
1014.2766	2876.3574	1192.7	311.35
1014.3933	2877.4915	1192.95	312.2
1014.51	2878.6249	1190.55	309.3
1014.6266	2879.7577	1197.4	314.5
1014.7431	2880.8898	1205.2	312.9
1014.8596	2882.0212	1186.2	306
1014.9761	2883.152	1194.8	314.1
1015.0925	2884.2821	1192.95	312.9
1015.2089	2885.4116	1198.05	316.55
1015.3253	2886.5405	1198.6	317.8
1015.4416	2887.6686	1200.1	315.7
1015.5579	2888.7962	1195.2	314.75
1015.6741	2889.923	1196.25	314.7
1015.7903	2891.0493	1200.3	319.2
1015.9065	2892.1748	1203.2	321.05
1016.0226	2893.2997	1204.3	322.7
1016.1387	2894.424	1202.05	323.45
1016.2547	2895.5476	1201.7	320
1016.3707	2896.6706	1203.9	322.95
1016.4866	2897.7929	1211.4	328.1
1016.6025	2898.9145	1209.35	326.75
1016.7184	2900.0355	1211.75	328.5
1016.8342	2901.1559	1216.25	335.8
1016.95	2902.2756	1214.55	332.7
1017.0658	2903.3946	1214.4	332.9
1017.1815	2904.513	1218.7	332.3
1017.2971	2905.6308	1224.15	343.9
1017.4127	2906.7479	1220.4	340.65
1017.5283	2907.8643	1224.75	342.2
1017.6439	2908.9801	1221.8	340.45
1017.7594	2910.0953	1224	341.55
1017.8748	2911.2098	1228.25	342.9
1017.9902	2912.3236	1236.95	347.2
1018.1056	2913.4368	1222.85	338.55
1018.2209	2914.5494	1217.6	335.35
1018.3362	2915.6613	1229.35	339.65
1018.4515	2916.7725	1216	330.6
1018.5667	2917.8831	1211.5	328.35
1018.6819	2918.9931	1209.65	326.65
1018.797	2920.1024	1206.2	321.85
1018.9121	2921.211	1198.25	315.65
1019.0271	2922.319	1193.75	309.6
1019.1421	2923.4264	1196.5	314.85
1019.2571	2924.5331	1194	312.85
1019.372	2925.6391	1192.95	312.3
1019.4869	2926.7445	1189.8	310.05
1019.6017	2927.8493	1191.35	311.1
1019.7165	2928.9534	1198.15	314.65
1019.8313	2930.0569	1193.7	310.45
1019.946	2931.1597	1201.95	319.2
1020.0606	2932.2619	1199.2	318.2
1020.1753	2933.3634	1200.25	316.9
1020.2899	2934.4643	1205.6	317.8
1020.4044	2935.5645	1216.2	327.85
1020.5189	2936.6641	1203.6	317.95
1020.6334	2937.763	1195.8	314.95
1020.7478	2938.8613	1198.35	315.7
1020.8622	2939.959	1197.25	310.45
1020.9765	2941.056	1183.55	303.4
1021.0908	2942.1523	1174.2	291.65
1021.2051	2943.248	1165	283.3
1021.3193	2944.3431	1150	268.15
1021.4334	2945.4375	1142.45	259.95
1021.5476	2946.5313	1129.8	248.95
1021.6617	2947.6244	1118	236.2
1021.7757	2948.7169	1109.25	227.75
1021.8897	2949.8087	1095.2	215.4
1022.0037	2950.8999	1084.45	202.35
1022.1176	2951.9904	1070.45	191.2
1022.2315	2953.0803	1060.9	179.3
1022.3453	2954.1696	1055.1	173.55
1022.4591	2955.2582	1051.1	169.35
1022.5728	2956.3462	1045.2	161.9
1022.6865	2957.4335	1039.7	158.75
1022.8002	2958.5202	1038.35	155.55
1022.9138	2959.6062	1036.45	154.25
1023.0274	2960.6916	1029.65	148.3
1023.141	2961.7764	1028.7	145.55
1023.2545	2962.8605	1025.45	143.4
1023.3679	2963.9439	1025	144.4
1023.4813	2965.0267	1024.5	141
1023.5947	2966.1089	1043.55	138.75
1023.708	2967.1905	1024.95	143.55
1023.8213	2968.2714	1018.95	139.9
1023.9346	2969.3516	1017.6	135.85
1024.0478	2970.4312	1029.65	140.8
1024.1609	2971.5102	1021.9	142.05
1024.274	2972.5885	1026.2	145
1024.3871	2973.6662	1030.05	142.8
1024.5002	2974.7432	1020.4	138.6
1024.6132	2975.8196	1025.45	144.15
1024.7261	2976.8954	1025.65	145.3
1024.839	2977.9705	1024.2	144.05
1024.9519	2979.045	1021.9	139.8
1025.0647	2980.1188	1023.6	140.05
1025.1775	2981.192	1017.4	135.85
1025.2902	2982.2645	1017.9	135.1
1025.4029	2983.3364	1014.2	133.1
1025.5156	2984.4077	1011.8	130.3
1025.6282	2985.4783	1014.95	130.05
1025.7407	2986.5483	1003.7	124.45
1025.8532	2987.6177	1004.3	123.2
1025.9657	2988.6864	994.4	114.8
1026.0782	2989.7545	993.6	110.4
1026.1906	2990.8219	989.3	109.6
1026.3029	2991.8887	985.15	101.3
1026.4152	2992.9548	981.75	100
1026.5275	2994.0204	972.4	90.6
1026.6397	2995.0852	968.85	89.2
1026.7519	2996.1495	967.5	84.7
1026.864	2997.2131	963.25	82.5
1026.9761	2998.276	960.65	80.85
1027.0882	2999.3383	956.85	73.8
1027.2002	3000.4	957.2	74.65
1027.3122	3001.4611	951.95	70.9
1027.4241	3002.5215	950.95	70.3
1027.536	3003.5812	945.85	61.85
1027.6478	3004.6404	943.3	61.45
1027.7596	3005.6989	946.5	62.5
1027.8714	3006.7567	942.65	61.9
1027.9831	3007.8139	965.55	57.05
1028.0947	3008.8705	941.1	61.3
1028.2064	3009.9264	954.4	55.75
1028.3179	3010.9818	937.05	56.25
1028.4295	3012.0364	936.2	54.55
1028.541	3013.0905	937.8	56.4
1028.6524	3014.1439	931.75	51.15
1028.7638	3015.1966	934.2	52.3
1028.8752	3016.2487	932.6	50.55
1028.9865	3017.3002	940.8	52.05
1029.0978	3018.3511	932.1	53.25
1029.209	3019.4013	931.45	49.6
1029.3202	3020.4509	928.05	48.05
1029.4314	3021.4998	930.1	47.9
1029.5425	3022.5481	930.75	48.65
1029.6535	3023.5958	926.65	43.4
1029.7645	3024.6428	931.45	51.7
1029.8755	3025.6892	927.05	43.05
1029.9864	3026.735	929.05	47.15
1030.0973	3027.7802	928.8	48.65
1030.2082	3028.8247	929.7	48.05
1030.319	3029.8685	928.25	46.55
1030.4297	3030.9118	929.4	45.95
1030.5404	3031.9544	929.85	48.35
1030.6511	3032.9963	930.15	48.4
1030.7617	3034.0376	927	44.5
1030.8723	3035.0783	929.65	46
1030.9829	3036.1184	932.35	50.85
1031.0934	3037.1578	927.45	46.55
1031.2038	3038.1966	931.7	49.4
1031.3142	3039.2348	927.1	46.7
1031.4246	3040.2723	938.45	47.1
1031.5349	3041.3092	932.05	50.15
1031.6452	3042.3455	926.85	44.6
1031.7554	3043.3811	929.3	48
1031.8656	3044.4161	931.05	48.25
1031.9758	3045.4505	928	46.6
1032.0859	3046.4842	930.2	49.6
1032.1959	3047.5173	925.95	46.4
1032.3059	3048.5498	929.2	48.1
1032.4159	3049.5816	930.25	49.6
1032.5258	3050.6128	931.35	47.55
1032.6357	3051.6434	932.4	49.75
1032.7455	3052.6734	931.25	48.45
1032.8553	3053.7027	930.95	48.3
1032.9651	3054.7314	928.75	47.6
1033.0748	3055.7594	926.4	46.5
1033.1845	3056.7868	928.2	46.3
1033.2941	3057.8136	927.4	47.5
1033.4037	3058.8398	926.4	44.3
1033.5132	3059.8653	928.75	47.4
1033.6227	3060.8902	928.7	49.7
1033.7321	3061.9145	930	49.05
1033.8415	3062.9381	929	46.45
1033.9509	3063.9612	945.2	48.95
1034.0602	3064.9835	931.75	49.6
1034.1694	3066.0053	931	46.95
1034.2787	3067.0264	929.2	47.85
1034.3878	3068.0469	927.05	45.1
1034.497	3069.0668	929.9	47.2
1034.6061	3070.086	928.15	49.8
1034.7151	3071.1046	929.85	45
1034.8241	3072.1226	928.6	45.25
1034.9331	3073.1399	923.25	42.7
1035.042	3074.1567	926.1	42.75
1035.1508	3075.1727	928.85	44.1
1035.2597	3076.1882	923.65	42.9
1035.3684	3077.203	922.7	42
1035.4772	3078.2173	922.2	38.7
1035.5859	3079.2308	922.25	38.15
1035.6945	3080.2438	922.35	39.3
1035.8031	3081.2561	918.65	36.95
1035.9117	3082.2678	917.05	36.8
1036.0202	3083.2789	917.05	36.15
1036.1286	3084.2893	920.85	39.55
1036.2371	3085.2991	916.25	34.25
1036.3454	3086.3083	918.7	34.75
1036.4538	3087.3169	918.8	37.95
1036.562	3088.3248	915.3	33.85
1036.6703	3089.3321	914.9	32.6
1036.7785	3090.3388	911.65	30.7
1036.8866	3091.3449	911.9	28.9
1036.9948	3092.3503	913.2	27.15
1037.1028	3093.3551	912.9	31.7
1037.2108	3094.3593	912.85	32.5
1037.3188	3095.3629	911.15	31.1
1037.4267	3096.3658	911.6	27.55
1037.5346	3097.3681	910.95	31.4
1037.6425	3098.3698	912.35	30.15
1037.7503	3099.3708	916.05	28.2
1037.858	3100.3713	909.55	28.6
1037.9657	3101.3711	910.45	29.65
1038.0734	3102.3702	1045.6	27.75
1038.181	3103.3688	911.6	30.4
1038.2886	3104.3667	908.4	27.4
1038.3961	3105.364	905.55	23.5
1038.5036	3106.3607	909.2	26.7
1038.611	3107.3568	909.4	27.1
1038.7184	3108.3522	906.4	26.3
1038.8257	3109.347	908.95	27.4
1038.933	3110.3412	912.65	27.35
1039.0403	3111.3348	905.4	25.1
1039.1475	3112.3277	905.8	23.3
1039.2547	3113.32	905.9	26.85
1039.3618	3114.3117	904.35	21
1039.4689	3115.3028	906.9	26.5
1039.5759	3116.2932	905.7	21.85
1039.6829	3117.2831	911.25	25.8
1039.7898	3118.2723	903.4	20.6
1039.8967	3119.2608	904	22.3
1040.0035	3120.2488	904.05	22.2
1040.1103	3121.2361	902.8	20.9
1040.2171	3122.2229	902	20.5
1040.3238	3123.209	902.85	20.85
1040.4305	3124.1944	900.65	21.45
1040.5371	3125.1793	903.5	21.6
1040.6437	3126.1635	903.35	24.55
1040.7502	3127.1471	900.8	18.95
1040.8567	3128.1301	900.6	18.8
1040.9631	3129.1125	899.9	19.35
1041.0695	3130.0942	900.9	20.1
1041.1759	3131.0753	909.55	19.75
1041.2822	3132.0558	903.45	19.65
1041.3884	3133.0357	903	21.65
1041.4946	3134.015	901.75	19.8
1041.6008	3134.9936	903.25	20.1
1041.7069	3135.9716	921.15	19.65
1041.813	3136.949	900.3	20.2
1041.919	3137.9258	916.9	17.9
1042.025	3138.902	908.1	23.3
1042.1309	3139.8775	900.45	19.45
1042.2368	3140.8524	900.6	19
1042.3427	3141.8267	901.55	18.6
1042.4485	3142.8004	899.5	16.85
1042.5542	3143.7735	904.3	17.75
1042.6599	3144.7459	901.7	18.85
1042.7656	3145.7178	900.8	16.55
1042.8712	3146.689	896.95	14.65
1042.9768	3147.6596	900.75	17.75
1043.0823	3148.6295	898.15	16.15
1043.1878	3149.5989	900.15	17.8
1043.2932	3150.5676	897.6	16.6
1043.3986	3151.5357	898.2	18.05
1043.5039	3152.5032	898.1	17.75
1043.6092	3153.4701	897.05	18.05
1043.7145	3154.4364	900.85	17.15
1043.8197	3155.402	897.6	16.1
1043.9248	3156.367	898.85	15.15
1044.03	3157.3315	915.4	17.25
1044.135	3158.2952	897.7	17.1
1044.24	3159.2584	898	16.05
1044.345	3160.221	898.65	17.7
1044.4499	3161.1829	897.65	17.65
1044.5548	3162.1442	899.1	18.6
1044.6596	3163.105	896.85	16.15
1044.7644	3164.065	898.55	17.3
1044.8692	3165.0245	899.85	15.8
1044.9739	3165.9834	896.1	15.7
1045.0785	3166.9416	895.4	14.1
1045.1831	3167.8993	896.55	14.05
1045.2877	3168.8563	897.45	16.8
1045.3922	3169.8127	896.85	18.05
1045.4966	3170.7684	896.55	14.5
1045.6011	3171.7236	899.1	18.3
1045.7054	3172.6782	896.55	13.1
1045.8098	3173.6321	896.6	14.95
1045.914	3174.5854	898.2	12.4
1046.0183	3175.5381	895.95	15.6
1046.1224	3176.4902	891.75	11.6
1046.2266	3177.4417	895.6	15.3
1046.3307	3178.3926	895.65	14.8
1046.4347	3179.3428	895.4	16.75
1046.5387	3180.2924	894.05	11.65
1046.6427	3181.2415	896.25	15.15
1046.7466	3182.1899	897.15	13
1046.8504	3183.1377	893.25	11.25
1046.9542	3184.0848	896.75	12
1047.058	3185.0314	897.25	16.45
1047.1617	3185.9773	895.7	14.45
1047.2654	3186.9227	895.75	12.15
1047.369	3187.8674	895.65	13.85
1047.4726	3188.8115	899.35	14.75
1047.5761	3189.755	893.55	14.05
1047.6796	3190.6979	893.9	11.45
1047.783	3191.6402	890.95	11.15
1047.8864	3192.5818	893.9	12.7
1047.9898	3193.5229	914.25	12.7
1048.0931	3194.4633	894.5	12.35
1048.1963	3195.4031	894.7	12.15
1048.2995	3196.3423	892.55	10.85
1048.4027	3197.2809	895.5	15.65
1048.5058	3198.2189	891.75	12.15
1048.6089	3199.1563	900.35	10.7
1048.7119	3200.0931	892.15	10.75
1048.8148	3201.0292	894.1	12.9
1048.9178	3201.9648	893.2	12.1
1049.0206	3202.8997	895.15	11.45
1049.1235	3203.834	893.7	12.4
1049.2262	3204.7677	892.8	12.35
1049.329	3205.7008	894.95	12.6
1049.4317	3206.6333	889.85	9
1049.5343	3207.5652	895.6	12.35
1049.6369	3208.4964	892.5	10.95
1049.7394	3209.4271	893.5	11.9
1049.8419	3210.3571	891.9	10.95
1049.9444	3211.2865	893.45	10.25
1050.0468	3212.2154	891.2	10.6
1050.1491	3213.1436	895.9	10.5
1050.2514	3214.0712	899.2	11.05
1050.3537	3214.9982	892.35	10.6
1050.4559	3215.9246	892.7	10.4
1050.5581	3216.8503	892	12.65
1050.6602	3217.7755	891.1	9.5
1050.7623	3218.7001	893.05	12.95
1050.8643	3219.624	892.75	11.5
1050.9663	3220.5473	893.15	12.9
1051.0682	3221.4701	893.05	10.9
1051.1701	3222.3922	894.4	11.15
1051.2719	3223.3137	891.6	10.1
1051.3737	3224.2346	891.7	9.65
1051.4754	3225.1549	892.3	10.6
1051.5771	3226.0746	890.1	7.75
1051.6788	3226.9937	891.8	9.7
1051.7804	3227.9121	890.55	9.5
1051.8819	3228.83	890	8.4
1051.9834	3229.7473	891.25	9.85
1052.0849	3230.6639	893.7	14
1052.1863	3231.5799	890.95	9.6
1052.2876	3232.4954	893.15	11.9
1052.3889	3233.4102	889.8	9
1052.4902	3234.3244	890.95	8.8
1052.5914	3235.238	889.45	8.15
1052.6926	3236.151	915.25	7.55
1052.7937	3237.0634	890.8	10.25
1052.8948	3237.9752	891.85	12.6
1052.9958	3238.8864	891.1	9
1053.0968	3239.797	890.9	11.3
1053.1977	3240.7069	890.35	7.25
1053.2986	3241.6163	892.7	10
1053.3994	3242.5251	888.9	7.55
1053.5002	3243.4332	889.35	10.25
1053.6009	3244.3408	892.1	10.5
1053.7016	3245.2477	891.8	10.55
1053.8022	3246.154	891.3	8.8
1053.9028	3247.0598	891.45	7.5
1054.0034	3247.9649	888.4	5.95
1054.1039	3248.8694	890.95	9.4
1054.2043	3249.7733	890.65	11.15
1054.3047	3250.6766	891.4	9.65
1054.4051	3251.5793	892.4	10.9
1054.5054	3252.4814	888.95	8.4
1054.6056	3253.3829	888.75	8.4
1054.7058	3254.2838	890.55	11.7
1054.806	3255.1841	890.3	8.85
1054.9061	3256.0838	890.05	10.2
1055.0061	3256.9829	888.8	8.25
1055.1062	3257.8814	890.95	6.7
1055.2061	3258.7792	891.9	7.35
1055.306	3259.6765	889.15	6.9
1055.4059	3260.5731	886.4	5.85
1055.5057	3261.4692	890.55	7.65
1055.6055	3262.3647	889.35	7.75
1055.7052	3263.2595	889.65	8.15
1055.8049	3264.1538	888.35	7
1055.9045	3265.0474	889.2	5.95
1056.0041	3265.9404	887.2	5.85
1056.1036	3266.8329	888.05	7.05
1056.2031	3267.7247	897.15	6.05
1056.3025	3268.616	888.35	7.3
1056.4019	3269.5066	889.75	4.85
1056.5013	3270.3966	889.85	8.45
1056.6005	3271.286	885.8	4.95
