Software Version:	3.9.2.0
Unit SN:	10000200
Spectrometer SN:	6960
Date:	3/14/2024 1:03:44 PM
Data Line Index:	25
Spectral Points:	2048
Integration time (ms):	125
Averages:	20
Delay (ms):	30000
Sequence Number:	1
Processing:	dark subtract
Laser Power (mW):	305
Laser Current (mA):	823
Laser Diode Temp (C):	25.1
Laser Case Temp (C):	27.9
System Temp (C):	28.1
Spectrometer Temp (C):	25.9
CCD Temp (C):	0.004
Secondary Temp (C):	20.007
Heatsink Temp (C):	23.793
CCDPCB Temp (C):	37.441
SecondaryPCB Temp (C):	35.24

Wavelength	RamanShift	Raw Counts	Dark Subtracted
787.061	30.1047	418.8	8.8
787.2016	32.3739	416.15	6.55
787.3422	34.6426	417.45	7.55
787.4828	36.9109	422.95	10.65
787.6235	39.1787	426.5	9.9
787.7642	41.4461	431.75	9.5
787.9049	43.7131	437.6	12.45
788.0456	45.9796	440.1	10.85
788.1863	48.2456	444.7	12.4
788.3271	50.5112	449.45	11.85
788.4679	52.7764	452.45	13.65
788.6087	55.0411	456.65	15.7
788.7496	57.3054	461.65	15.8
788.8904	59.5692	464.85	14.9
789.0313	61.8326	471.9	18
789.1722	64.0955	479.65	22.7
789.3132	66.3579	484.45	21.85
789.4541	68.6199	488.15	22.95
789.5951	70.8815	498.5	29.8
789.7361	73.1426	514.65	42.85
789.8771	75.4032	551.4	75.05
790.0181	77.6634	628.8	146.1
790.1592	79.9231	803.45	316.9
790.3003	82.1824	1177.55	684.75
790.4414	84.4412	1815.1	1310.75
790.5825	86.6995	2644.75	2125.6
790.7237	88.9574	3477.85	2945.9
790.8648	91.2148	4068.7	3529.45
791.006	93.4717	4371.35	3823.7
791.1472	95.7282	4449.3	3898.85
791.2885	97.9842	4490	3936.25
791.4297	100.2398	4474.75	3919.65
791.571	102.4949	4422.7	3863.2
791.7123	104.7495	4393.15	3827.55
791.8536	107.0036	4358.05	3795.35
791.9949	109.2573	4303.2	3741.8
792.1363	111.5105	4236.2	3671.05
792.2777	113.7632	4154.95	3588.6
792.4191	116.0154	4093.75	3515.25
792.5605	118.2672	4012.45	3445
792.7019	120.5185	3949.7	3379.65
792.8434	122.7693	3876	3302.95
792.9849	125.0197	3815.5	3238.25
793.1264	127.2696	3773.95	3196.45
793.2679	129.519	3757.15	3174.4
793.4094	131.7679	3713.45	3129.5
793.551	134.0163	3711.45	3124.25
793.6926	136.2642	3697.85	3105.55
793.8342	138.5117	3687.5	3092.45
793.9758	140.7587	3667.5	3072.55
794.1175	143.0052	3639.85	3040.65
794.2591	145.2512	3592.95	2996.2
794.4008	147.4967	3562.25	2960
794.5425	149.7417	3529.8	2927.8
794.6842	151.9863	3515	2908.5
794.826	154.2304	3503.45	2894.65
794.9677	156.4739	3491.4	2875.65
795.1095	158.717	3487.5	2875.1
795.2513	160.9596	3504.2	2884.35
795.3931	163.2017	3524.9	2904.25
795.535	165.4433	3532.7	2907.95
795.6768	167.6844	3523.7	2899.15
795.8187	169.925	3482.8	2856.55
795.9606	172.1651	3432.75	2802.2
796.1025	174.4047	3406	2771.2
796.2445	176.6439	3373.4	2734.5
796.3864	178.8825	3352.25	2712.65
796.5284	181.1206	3348.6	2705.6
796.6704	183.3582	3330.7	2681.1
796.8124	185.5954	3338.35	2689.6
796.9544	187.832	3322.75	2671.45
797.0965	190.0681	3337.6	2684.65
797.2386	192.3037	3326.7	2669.9
797.3806	194.5388	3322.8	2665.2
797.5228	196.7734	3327.65	2666.05
797.6649	199.0075	3346.9	2682.8
797.807	201.2411	3353.85	2685.8
797.9492	203.4742	3383.45	2713.7
798.0914	205.7068	3396.45	2725.55
798.2336	207.9389	3413.8	2740.2
798.3758	210.1704	3424.65	2748.95
798.518	212.4015	3430.3	2752.9
798.6603	214.632	3430.15	2754.7
798.8025	216.862	3423.1	2749.3
798.9448	219.0915	3404.55	2736.65
799.0871	221.3205	3406.45	2740.8
799.2294	223.549	3407.95	2750
799.3718	225.777	3406.25	2748.8
799.5141	228.0044	3393	2734.95
799.6565	230.2314	3392.9	2735.4
799.7989	232.4578	3361.5	2703.25
799.9413	234.6837	3363	2697.8
800.0837	236.909	3344.9	2679.95
800.2262	239.1339	3357.7	2668.85
800.3687	241.3582	3339.5	2665.6
800.5111	243.582	3353.1	2653.5
800.6536	245.8053	3363.1	2667.6
800.7961	248.0281	3354.15	2666.2
800.9387	250.2503	3351.75	2658.4
801.0812	252.472	3362.05	2665.85
801.2238	254.6932	3363.45	2663.95
801.3664	256.9139	3356.45	2652.7
801.509	259.134	3378.4	2670.5
801.6516	261.3536	3391.6	2685.8
801.7942	263.5727	3412.15	2701.55
801.9369	265.7912	3449.4	2743.4
802.0795	268.0092	3485.6	2779.05
802.2222	270.2267	3533.35	2824
802.3649	272.4436	3539.75	2831.9
802.5076	274.6601	3558.55	2839.55
802.6504	276.8759	3566.35	2856.7
802.7931	279.0913	3589.85	2877.4
802.9359	281.3061	3593.85	2879
803.0787	283.5204	3612	2893.55
803.2215	285.7341	3614.8	2892.45
803.3643	287.9473	3643.2	2918.85
803.5071	290.16	3630.3	2900.55
803.6499	292.3721	3596.15	2871.35
803.7928	294.5837	3574.75	2850.8
803.9357	296.7947	3538.6	2817.5
804.0786	299.0052	3535.15	2811.65
804.2215	301.2152	3512.75	2787.15
804.3644	303.4246	3518.8	2793.45
804.5074	305.6334	3492.65	2768.2
804.6503	307.8418	3461.9	2735.35
804.7933	310.0495	3452.95	2725.05
804.9363	312.2568	3423.65	2695.4
805.0793	314.4635	3378.9	2653.4
805.2223	316.6696	3319.8	2589.75
805.3653	318.8752	3295.75	2554.8
805.5084	321.0802	3256.2	2523.2
805.6514	323.2847	3249	2516.8
805.7945	325.4887	3248.55	2510.45
805.9376	327.692	3268.25	2532.45
806.0807	329.8949	3275.85	2538.4
806.2238	332.0972	3291.95	2552.3
806.367	334.2989	3325.15	2581.15
806.5101	336.5001	3306.5	2566.35
806.6533	338.7007	3279.05	2536.35
806.7965	340.9008	3249	2504.45
806.9397	343.1003	3204.1	2454.3
807.0829	345.2992	3166.05	2416.7
807.2261	347.4976	3134.5	2384.05
807.3693	349.6955	3115.3	2363.85
807.5126	351.8927	3097	2344.2
807.6559	354.0895	3091.9	2326.9
807.7991	356.2856	3071.75	2318.1
807.9424	358.4812	3063.1	2309.65
808.0857	360.6763	3036.75	2281.05
808.2291	362.8707	3042.85	2284.8
808.3724	365.0646	3034.1	2274.55
808.5158	367.258	3053.1	2290.3
808.6591	369.4508	3066.15	2302.7
808.8025	371.643	3072.8	2308.75
808.9459	373.8346	3081.25	2313.85
809.0893	376.0257	3105.6	2336.95
809.2327	378.2162	3134.55	2363.75
809.3762	380.4062	3133.35	2362.75
809.5196	382.5956	3091.25	2315.75
809.6631	384.7844	3067.5	2294.75
809.8066	386.9726	3032.75	2257.85
809.9501	389.1603	3014.5	2240.05
810.0936	391.3474	3025.7	2221.5
810.2371	393.5339	2999.6	2224.3
810.3806	395.7199	2980.05	2209.55
810.5241	397.9052	3003.4	2235.3
810.6677	400.09	3022.95	2254.2
810.8113	402.2743	3047.75	2279.5
810.9548	404.4579	3075.7	2310.25
811.0984	406.641	3083.2	2315.3
811.2421	408.8235	3131.65	2364.55
811.3857	411.0054	3169.4	2400.6
811.5293	413.1868	3245.05	2474.05
811.673	415.3675	3282.9	2510.05
811.8166	417.5477	3301.05	2527.2
811.9603	419.7273	3208.75	2431.7
812.104	421.9064	3136.85	2352.15
812.2477	424.0848	3083.45	2303.45
812.3914	426.2627	3030.3	2248.1
812.5351	428.4399	2981.25	2199.35
812.6788	430.6166	2935.55	2147.5
812.8226	432.7928	2910.9	2122.35
812.9663	434.9683	2871.15	2081.4
813.1101	437.1432	2838.85	2047.5
813.2539	439.3176	2804.15	2012.8
813.3977	441.4914	2806.85	2014.65
813.5415	443.6645	2792.4	1996.5
813.6853	445.8371	2811.85	2016.8
813.8291	448.0091	2790.25	1996.7
813.973	450.1806	2784.85	1990.05
814.1168	452.3514	2770.15	1973.8
814.2607	454.5216	2772.35	1967.4
814.4046	456.6913	2752.75	1956.9
814.5485	458.8603	2760	1962.7
814.6924	461.0288	2770	1972.3
814.8363	463.1967	2757.8	1960.45
814.9802	465.3639	2764.05	1965.9
815.1241	467.5306	2744.9	1943.9
815.2681	469.6967	2716.7	1914.3
815.412	471.8622	2716.3	1915.85
815.556	474.0271	2718.1	1917.3
815.7	476.1914	2708	1903.65
815.844	478.3551	2703.15	1901
815.988	480.5182	2704.3	1901.25
816.132	482.6807	2709.1	1904.55
816.276	484.8426	2722.85	1917.1
816.4201	487.0039	2755.95	1950.9
816.5641	489.1647	2783	1976.6
816.7082	491.3248	2802.7	1997.8
816.8522	493.4843	2829.2	2025.4
816.9963	495.6432	2824.4	2017.6
817.1404	497.8015	2794.15	1985.6
817.2845	499.9592	2750.3	1942.95
817.4286	502.1163	2718.5	1911.5
817.5727	504.2728	2679.95	1869
817.7168	506.4287	2674.55	1866.1
817.861	508.5839	2644.5	1835.35
818.0051	510.7386	2640.25	1832.3
818.1493	512.8927	2644.15	1826.1
818.2935	515.0461	2644.7	1833.1
818.4377	517.199	2644.4	1833.8
818.5818	519.3512	2677.25	1861.65
818.726	521.5029	2729.15	1908.65
818.8703	523.6539	2758.75	1946.15
819.0145	525.8043	2757.8	1943.7
819.1587	527.9541	2728	1909.95
819.303	530.1033	2681.8	1864.85
819.4472	532.2519	2639.5	1824.65
819.5915	534.3999	2621.65	1803.65
819.7357	536.5472	2617.7	1801.95
819.88	538.694	2619.15	1801.15
820.0243	540.8401	2612.55	1794.8
820.1686	542.9856	2628.95	1811.15
820.3129	545.1305	2636.45	1814.5
820.4572	547.2748	2652.4	1830.9
820.6016	549.4185	2643.15	1821.6
820.7459	551.5615	2650	1829.1
820.8902	553.704	2660.15	1839.15
821.0346	555.8458	2670.25	1848.3
821.1789	557.987	2682.9	1863
821.3233	560.1276	2696.75	1873.1
821.4677	562.2675	2733.7	1913.25
821.6121	564.4069	2765.55	1946.15
821.7565	566.5456	2791.6	1968.2
821.9009	568.6837	2782.2	1960.45
822.0453	570.8212	2730.15	1908.9
822.1897	572.958	2680.45	1859
822.3342	575.0942	2652.3	1831.3
822.4786	577.2299	2622.75	1798.95
822.6231	579.3648	2600.55	1776
822.7675	581.4992	2572.65	1745.6
822.912	583.6329	2570.55	1744.7
823.0565	585.766	2580.5	1755.15
823.201	587.8985	2604.95	1781.2
823.3454	590.0304	2651.45	1814.05
823.4899	592.1616	2660.5	1831.4
823.6345	594.2922	2648.9	1823.95
823.779	596.4222	2608.55	1780.3
823.9235	598.5515	2579.45	1752.7
824.068	600.6802	2530.85	1702.45
824.2126	602.8083	2510.75	1681.25
824.3571	604.9358	2505.65	1676.2
824.5017	607.0626	2496.8	1667.9
824.6462	609.1888	2506.25	1675.3
824.7908	611.3144	2525.9	1693.2
824.9354	613.4393	2542.85	1714.25
825.08	615.5636	2571.75	1741.6
825.2246	617.6873	2596.5	1766
825.3692	619.8103	2616.05	1783.25
825.5138	621.9327	2610.6	1775.95
825.6584	624.0544	2584.35	1753.25
825.803	626.1756	2551.45	1718.95
825.9477	628.2961	2500.5	1669.5
826.0923	630.4159	2491.3	1658.85
826.237	632.5351	2488.75	1657.15
826.3816	634.6537	2473.4	1639.75
826.5263	636.7716	2469.1	1634.7
826.6709	638.8889	2464.45	1629.6
826.8156	641.0056	2473.65	1637.1
826.9603	643.1216	2470.1	1632.9
827.105	645.237	2463.5	1625.4
827.2497	647.3518	2456.7	1618.9
827.3944	649.4659	2445.5	1609.7
827.5391	651.5793	2430.05	1593.5
827.6838	653.6922	2409.1	1572
827.8285	655.8043	2404.8	1566.65
827.9733	657.9159	2400.9	1560.7
828.118	660.0268	2384.35	1541.3
828.2627	662.137	2378.2	1536.6
828.4075	664.2466	2376.55	1535
828.5522	666.3556	2369.1	1528.1
828.697	668.4639	2372.25	1529.5
828.8418	670.5716	2374.95	1534.1
828.9865	672.6786	2360.75	1521.5
829.1313	674.785	2360.95	1519.05
829.2761	676.8907	2344.55	1503.1
829.4209	678.9958	2351.8	1510.65
829.5657	681.1002	2355.4	1512.15
829.7105	683.204	2351.45	1505.4
829.8553	685.3072	2343.7	1498.75
830.0001	687.4097	2335.75	1492
830.1449	689.5115	2340.4	1498.4
830.2898	691.6127	2333.55	1491.2
830.4346	693.7132	2327.55	1482.8
830.5794	695.8131	2344.85	1485.1
830.7243	697.9123	2339.8	1494.1
830.8691	700.0109	2330.15	1484.35
831.014	702.1089	2334.9	1488.55
831.1588	704.2061	2340.05	1494.1
831.3037	706.3028	2357.05	1510
831.4486	708.3987	2375.4	1530.05
831.5935	710.4941	2379.2	1532.25
831.7383	712.5887	2390.6	1543.2
831.8832	714.6827	2383.9	1533.45
832.0281	716.7761	2370	1522.3
832.173	718.8688	2371.4	1521.7
832.3179	720.9608	2369.05	1518.55
832.4628	723.0522	2370.95	1519.9
832.6077	725.1429	2392.3	1543.9
832.7527	727.233	2432.2	1580.9
832.8976	729.3224	2475.9	1627.05
833.0425	731.4112	2504.05	1654.45
833.1874	733.4993	2497.8	1645.9
833.3324	735.5867	2466.1	1613.85
833.4773	737.6735	2407.3	1554.15
833.6222	739.7596	2377.75	1527.4
833.7672	741.845	2361.6	1509.95
833.9122	743.9298	2363.6	1507.8
834.0571	746.014	2357.45	1506.9
834.2021	748.0974	2371.8	1516.9
834.347	750.1802	2377.8	1524.6
834.492	752.2624	2358.2	1505.05
834.637	754.3439	2344.25	1490.35
834.782	756.4247	2338.85	1476.3
834.9269	758.5048	2324.3	1472.35
835.0719	760.5843	2333.45	1479.7
835.2169	762.6631	2361.8	1508.15
835.3619	764.7413	2400.4	1548.35
835.5069	766.8188	2449.65	1593.2
835.6519	768.8956	2499	1640.7
835.7969	770.9718	2538.85	1685.1
835.9419	773.0473	2533.45	1681
836.0869	775.1221	2519.35	1665.15
836.232	777.1962	2500.05	1644.35
836.377	779.2697	2544.55	1689.75
836.522	781.3426	2611.05	1744.4
836.667	783.4147	2651.05	1794.95
836.8121	785.4862	2628.95	1774.55
836.9571	787.557	2567.5	1712.15
837.1021	789.6271	2466.2	1610.05
837.2472	791.6966	2386.65	1529.55
837.3922	793.7654	2315.75	1457.1
837.5373	795.8335	2290.9	1434.55
837.6823	797.901	2252.75	1394.9
837.8274	799.9678	2256.15	1398.5
837.9724	802.0339	2243.55	1390.45
838.1175	804.0993	2249.2	1383.6
838.2626	806.1641	2238.65	1379.45
838.4076	808.2282	2219.5	1362.55
838.5527	810.2916	2208.6	1347.45
838.6978	812.3544	2195.65	1341.2
838.8428	814.4164	2192.85	1338.2
838.9879	816.4778	2195.15	1335.65
839.133	818.5385	2201.8	1344.45
839.2781	820.5986	2221.85	1360.4
839.4232	822.658	2253	1391.3
839.5682	824.7166	2314.75	1457.4
839.7133	826.7747	2371.7	1516.9
839.8584	828.832	2421.7	1566.5
840.0035	830.8886	2458.55	1597.75
840.1486	832.9446	2475.2	1617.25
840.2937	834.9999	2445.95	1587.95
840.4388	837.0545	2390.25	1529.5
840.5839	839.1085	2335	1475.15
840.729	841.1618	2287.9	1423.75
840.8741	843.2143	2231.65	1370.95
841.0192	845.2662	2220.15	1359.7
841.1643	847.3175	2207.55	1348.05
841.3095	849.368	2183.8	1324.25
841.4546	851.4179	2189.4	1327.8
841.5997	853.467	2186	1323.85
841.7448	855.5155	2182.05	1319.95
841.8899	857.5633	2184.5	1325.15
842.0351	859.6105	2168.05	1306.8
842.1802	861.6569	2166.95	1307.05
842.3253	863.7027	2165.4	1303.15
842.4704	865.7478	2155.3	1294.65
842.6156	867.7922	2146.3	1283.6
842.7607	869.8359	2136.4	1272.9
842.9058	871.8789	2137.1	1275.45
843.0509	873.9212	2153	1256.65
843.1961	875.9629	2129.05	1267.1
843.3412	878.0039	2143.25	1279.5
843.4863	880.0441	2152.85	1290.3
843.6315	882.0837	2167.5	1302.75
843.7766	884.1226	2181.6	1319.45
843.9218	886.1609	2209.2	1347.75
844.0669	888.1984	2230.35	1366.4
844.212	890.2352	2268.45	1405.45
844.3572	892.2714	2268.95	1402.5
844.5023	894.3069	2250.6	1385.1
844.6475	896.3416	2217.5	1352.3
844.7926	898.3757	2178.25	1314.35
844.9377	900.4091	2159.8	1294.15
845.0829	902.4418	2164.25	1294.1
845.228	904.4739	2174.55	1306.2
845.3732	906.5052	2192.65	1326.9
845.5183	908.5358	2173	1307.55
845.6635	910.5658	2160.45	1293.9
845.8086	912.595	2130.25	1265.15
845.9538	914.6236	2106.4	1242.1
846.0989	916.6515	2088.35	1224.85
846.2441	918.6786	2064.2	1198.7
846.3892	920.7051	2059.6	1192.6
846.5344	922.7309	2068.15	1202.45
846.6795	924.756	2050.2	1182.15
846.8246	926.7804	2066.1	1197.05
846.9698	928.8041	2057.1	1187.8
847.1149	930.8272	2077.6	1212.55
847.2601	932.8495	2075.9	1209.3
847.4052	934.8711	2083.2	1214.4
847.5504	936.892	2083.2	1217.55
847.6955	938.9123	2084.2	1216.85
847.8407	940.9318	2111.55	1246
847.9858	942.9506	2113.25	1245.4
848.131	944.9688	2109.25	1241.75
848.2761	946.9862	2089.15	1221.05
848.4213	949.003	2055.8	1185.95
848.5664	951.019	2052.35	1186.2
848.7115	953.0344	2030.25	1161.75
848.8567	955.0491	2008.2	1138.8
849.0018	957.063	2013.35	1147.1
849.147	959.0763	2013.9	1146.8
849.2921	961.0888	2011.5	1141.7
849.4373	963.1007	2011.05	1143.5
849.5824	965.1119	1994.4	1125
849.7275	967.1223	1996.95	1127.95
849.8727	969.1321	1995.55	1127.55
850.0178	971.1412	1980.85	1112
850.1629	973.1495	1970.7	1102.7
850.3081	975.1572	2012.4	1110.35
850.4532	977.1641	1988.75	1122.05
850.5983	979.1704	1970.55	1100.6
850.7435	981.1759	1975.7	1102.2
850.8886	983.1808	1959.5	1089.7
851.0337	985.1849	1959.75	1077.5
851.1788	987.1884	1953.25	1081.45
851.324	989.1911	1954.85	1081.2
851.4691	991.1932	1963.95	1092.35
851.6142	993.1945	1955.85	1086.1
851.7593	995.1951	1949.55	1078
851.9045	997.1951	1954.05	1080.35
852.0496	999.1943	1944.8	1074.8
852.1947	1001.1928	1940.1	1069.5
852.3398	1003.1906	1951.85	1080.15
852.4849	1005.1877	1971.85	1100.15
852.63	1007.1841	1990.25	1118.65
852.7751	1009.1798	1986.2	1116.8
852.9202	1011.1748	1970.95	1100.95
853.0653	1013.1691	1953.3	1079.8
853.2104	1015.1627	1923.55	1052.2
853.3555	1017.1556	1907.95	1036.6
853.5006	1019.1477	1894.75	1022.25
853.6457	1021.1392	1882.15	1012.8
853.7908	1023.1299	1865.8	995.2
853.9359	1025.12	1874	998.45
854.081	1027.1093	1872.75	1002.6
854.2261	1029.0979	1896.35	1025.35
854.3712	1031.0859	1898.3	1029.15
854.5163	1033.0731	1895.05	1021.1
854.6613	1035.0596	1892.05	1022.25
854.8064	1037.0454	1880.1	1009.2
854.9515	1039.0304	1875.35	1003.7
855.0965	1041.0148	1859.9	986.75
855.2416	1042.9985	1846.15	973.1
855.3867	1044.9814	1831.1	960.85
855.5317	1046.9636	1826.8	952.45
855.6768	1048.9452	1827.95	957.65
855.8219	1050.926	1834.15	963
855.9669	1052.9061	1853.05	980.6
856.112	1054.8855	1852.7	980.2
856.257	1056.8642	1836.3	962.3
856.4021	1058.8421	1840.95	964.45
856.5471	1060.8194	1846.75	972.55
856.6921	1062.7959	1837.7	965.1
856.8372	1064.7717	1835.6	962.65
856.9822	1066.7469	1827.1	953.85
857.1272	1068.7213	1839.25	965.3
857.2723	1070.695	1851.2	978.9
857.4173	1072.6679	1867.85	994.8
857.5623	1074.6402	1875.6	1003
857.7073	1076.6117	1869.85	991.1
857.8523	1078.5826	1850.7	978.8
857.9973	1080.5527	1821.1	944.3
858.1423	1082.5221	1794.95	919.4
858.2873	1084.4908	1786	913.25
858.4323	1086.4587	1771.8	897.55
858.5773	1088.426	1756.55	884.05
858.7223	1090.3925	1762.2	881.55
858.8673	1092.3584	1771.65	897.45
859.0123	1094.3235	1767.6	895.35
859.1573	1096.2879	1781	906.9
859.3022	1098.2515	1787.15	912.55
859.4472	1100.2145	1806.05	933
859.5922	1102.1767	1841.4	965.05
859.7371	1104.1382	1870.75	998.05
859.8821	1106.099	1900.25	1023.25
860.027	1108.0591	1913.45	1041.05
860.172	1110.0185	1944.6	1068.9
860.3169	1111.9771	1974.05	1097.6
860.4619	1113.9351	2003.15	1129.95
860.6068	1115.8923	2046.25	1169.8
860.7517	1117.8488	2062.3	1186.9
860.8967	1119.8045	2007.6	1133.2
861.0416	1121.7596	1958.85	1084.8
861.1865	1123.7139	1884.6	1010.4
861.3314	1125.6675	1842.4	969.5
861.4763	1127.6204	1851.8	977.9
861.6212	1129.5726	1852.75	975.4
861.7661	1131.524	1849.45	976
861.911	1133.4748	1814.75	938.85
862.0559	1135.4248	1785.2	909.35
862.2008	1137.3741	1749.85	874.85
862.3457	1139.3226	1729.85	853.8
862.4905	1141.2705	1729.15	855.9
862.6354	1143.2176	1745.6	864.2
862.7803	1145.164	1741.15	863.8
862.9251	1147.1097	1731.75	857.85
863.07	1149.0546	1717.8	840.75
863.2148	1150.9989	1705.85	830.3
863.3597	1152.9424	1689.7	813.45
863.5045	1154.8852	1678.45	802.75
863.6493	1156.8272	1671.65	796.7
863.7942	1158.7686	1675.35	791.55
863.939	1160.7092	1676.35	797.05
864.0838	1162.6491	1667.9	787.55
864.2286	1164.5883	1677.25	801.6
864.3734	1166.5267	1688.55	811.7
864.5182	1168.4644	1706.2	829.4
864.663	1170.4014	1724.7	844.15
864.8078	1172.3377	1744.25	868.75
864.9526	1174.2732	1788.05	912.15
865.0974	1176.2081	1843.55	968.1
865.2421	1178.1421	1916.65	1035.3
865.3869	1180.0755	1997.9	1120.25
865.5317	1182.0082	2034.5	1158.25
865.6764	1183.9401	2007.5	1130.15
865.8212	1185.8713	1936.25	1060.95
865.9659	1187.8017	1848	969.85
866.1106	1189.7315	1789.85	910.7
866.2554	1191.6605	1753.65	845.65
866.4001	1193.5888	1707.5	832.1
866.5448	1195.5163	1683.6	806.1
866.6895	1197.4432	1664.2	789.15
866.8342	1199.3693	1655.35	779.85
866.9789	1201.2947	1652.45	768.8
867.1236	1203.2193	1634.85	758.9
867.2683	1205.1432	1630.2	754.6
867.413	1207.0664	1628.4	752.3
867.5576	1208.9889	1634.25	754
867.7023	1210.9106	1636.15	758.45
867.847	1212.8316	1626.3	751.1
867.9916	1214.7519	1643.4	756.75
868.1363	1216.6715	1645.4	769.05
868.2809	1218.5903	1653.25	775.35
868.4255	1220.5084	1663.6	784.95
868.5701	1222.4257	1670.2	791.4
868.7148	1224.3424	1669.25	792.65
868.8594	1226.2583	1688.3	804.85
869.004	1228.1735	1713	833.75
869.1486	1230.0879	1730.5	850.8
869.2932	1232.0016	1758.6	881.7
869.4377	1233.9146	1779.55	898.2
869.5823	1235.8269	1791	914
869.7269	1237.7384	1792.4	914.15
869.8715	1239.6492	1780.6	901.85
870.016	1241.5592	1794.55	914.8
870.1606	1243.4686	1836.25	960.75
870.3051	1245.3772	1885.25	1007.6
870.4496	1247.285	1942.85	1066.15
870.5941	1249.1922	1987.5	1108.95
870.7387	1251.0986	2035.8	1157.75
870.8832	1253.0042	2081.7	1203.15
871.0277	1254.9092	2140.65	1260.4
871.1722	1256.8134	2183.05	1304.75
871.3167	1258.7169	2226.1	1347.2
871.4611	1260.6196	2240.05	1363.55
871.6056	1262.5216	2241.05	1361.8
871.7501	1264.4229	2214.5	1336.2
871.8945	1266.3234	2209.2	1332.35
872.039	1268.2232	2172.95	1293.5
872.1834	1270.1223	2139.05	1259.85
872.3278	1272.0207	2115.6	1236.3
872.4723	1273.9183	2105.45	1222.95
872.6167	1275.8151	2111.15	1232.5
872.7611	1277.7113	2143.2	1264.15
872.9055	1279.6067	2202.05	1322.25
873.0499	1281.5014	2287.95	1408.05
873.1943	1283.3953	2399.6	1517.7
873.3386	1285.2885	2520.45	1642.6
873.483	1287.181	2585.8	1706.15
873.6274	1289.0727	2603.4	1726.1
873.7717	1290.9637	2576.25	1697.5
873.9161	1292.854	2522.2	1643.1
874.0604	1294.7435	2451.4	1573.5
874.2047	1296.6323	2378.85	1500.65
874.349	1298.5204	2346.4	1462.75
874.4933	1300.4077	2293.4	1412
874.6376	1302.2943	2247.7	1368.1
874.7819	1304.1802	2228.1	1351.3
874.9262	1306.0653	2214.2	1331.9
875.0705	1307.9497	2194.45	1315.1
875.2147	1309.8333	2158.85	1280.6
875.359	1311.7162	2130.7	1250.5
875.5032	1313.5984	2122.75	1243.35
875.6475	1315.4798	2102.45	1206.9
875.7917	1317.3605	2097.7	1212.55
875.9359	1319.2405	2086.3	1205.65
876.0801	1321.1197	2070.85	1189.1
876.2243	1322.9982	2026.5	1142.85
876.3685	1324.876	1975.75	1094.25
876.5127	1326.753	1910	1031.45
876.6569	1328.6293	1861.9	980.35
876.801	1330.5048	1817.6	935.5
876.9452	1332.3796	1756.35	877.35
877.0893	1334.2537	1750.1	842.8
877.2335	1336.127	1705.55	825.3
877.3776	1337.9996	1690	808.4
877.5217	1339.8714	1670	787.8
877.6658	1341.7426	1705.2	781.25
877.8099	1343.6129	1656.95	776.1
877.954	1345.4826	1643.65	762.85
878.0981	1347.3515	1635.2	754.3
878.2422	1349.2196	1636.55	756.05
878.3862	1351.087	1621.95	742.8
878.5303	1352.9537	1618	736.4
878.6743	1354.8197	1617.95	736.3
878.8184	1356.6849	1629.9	749.25
878.9624	1358.5493	1635.55	756.1
879.1064	1360.4131	1666.9	786.7
879.2504	1362.276	1677.65	797.85
879.3944	1364.1383	1700.8	819.45
879.5384	1365.9998	1707.15	821.35
879.6823	1367.8606	1699.35	818.9
879.8263	1369.7206	1680.75	800.1
879.9702	1371.5799	1679.7	797.7
880.1142	1373.4384	1679.45	798
880.2581	1375.2962	1656.3	775.15
880.402	1377.1533	1618.5	739.2
880.5459	1379.0096	1590.3	708.15
880.6898	1380.8652	1571.3	688.65
880.8337	1382.7201	1541.25	660.8
880.9776	1384.5742	1527	644.5
881.1215	1386.4275	1514.3	632
881.2653	1388.2802	1512.15	632
881.4092	1390.132	1501.75	619.05
881.553	1391.9832	1497.4	616.5
881.6968	1393.8336	1487.25	608.1
881.8406	1395.6832	1485.7	603.4
881.9844	1397.5322	1467	586.65
882.1282	1399.3803	1470.8	584.5
882.272	1401.2278	1459.3	578.55
882.4158	1403.0745	1451.75	571.95
882.5595	1404.9204	1441.15	562.3
882.7033	1406.7656	1442.4	561.6
882.847	1408.6101	1435.35	551.9
882.9908	1410.4538	1435.25	554.65
883.1345	1412.2968	1430.9	549.15
883.2782	1414.139	1438.05	557.15
883.4219	1415.9805	1446.05	569.7
883.5656	1417.8213	1451.9	562.55
883.7092	1419.6613	1454	574.7
883.8529	1421.5006	1482.3	600.5
883.9965	1423.3391	1497.35	614.9
884.1402	1425.1769	1519.25	636.7
884.2838	1427.0139	1568.45	686.05
884.4274	1428.8502	1626.25	743.45
884.571	1430.6858	1663.8	783
884.7146	1432.5206	1682.25	800.45
884.8582	1434.3547	1676.85	794.8
885.0018	1436.188	1656.85	776.65
885.1453	1438.0206	1643.85	761.35
885.2889	1439.8524	1649.1	767.45
885.4324	1441.6835	1636.7	753.8
885.5759	1443.5139	1640.35	756.65
885.7194	1445.3435	1650.85	769.65
885.8629	1447.1724	1646.45	764
886.0064	1449.0005	1638.15	757.55
886.1499	1450.8279	1629.6	746.5
886.2933	1452.6545	1640.95	759.5
886.4368	1454.4804	1638.25	755.1
886.5802	1456.3056	1631.95	745
886.7237	1458.13	1606.55	726.95
886.8671	1459.9536	1599.6	717.85
887.0105	1461.7766	1577.55	697.45
887.1539	1463.5987	1547.4	666.5
887.2972	1465.4202	1523.15	641.65
887.4406	1467.2409	1500.85	619.4
887.584	1469.0608	1478.6	597.45
887.7273	1470.88	1456.1	571.9
887.8706	1472.6984	1431.55	551.25
888.0139	1474.5161	1423.45	538.25
888.1572	1476.3331	1412.8	533.25
888.3005	1478.1493	1411.65	528.9
888.4438	1479.9648	1410.75	530.7
888.5871	1481.7795	1399.1	515.95
888.7303	1483.5935	1405.1	525.15
888.8736	1485.4067	1400.25	516.85
889.0168	1487.2192	1405.45	523.05
889.16	1489.031	1401.6	517.95
889.3032	1490.842	1400.6	517.7
889.4464	1492.6522	1396.05	514.65
889.5896	1494.4618	1397.45	515.35
889.7327	1496.2705	1395.15	513.55
889.8759	1498.0785	1386.55	505.95
890.019	1499.8858	1378.3	496.85
890.1622	1501.6924	1376.4	494.8
890.3053	1503.4981	1366.45	485.9
890.4484	1505.3032	1365.55	484
890.5914	1507.1075	1369.25	487.7
890.7345	1508.911	1354.55	473.8
890.8776	1510.7138	1354.7	471.55
891.0206	1512.5159	1348.75	465.6
891.1637	1514.3172	1347.05	465.8
891.3067	1516.1178	1337.5	458.7
891.4497	1517.9176	1340.85	456
891.5927	1519.7166	1332.9	451.55
891.7357	1521.515	1334.05	445.7
891.8786	1523.3126	1324.6	443.7
892.0216	1525.1094	1310.65	427.7
892.1645	1526.9055	1312.5	431.95
892.3074	1528.7008	1309.15	425.9
892.4503	1530.4954	1314.55	426.4
892.5932	1532.2893	1309.75	430
892.7361	1534.0824	1305.4	417.05
892.879	1535.8747	1305.45	423.9
893.0218	1537.6663	1298.25	416.7
893.1647	1539.4572	1302.55	418.8
893.3075	1541.2473	1306.8	424.9
893.4503	1543.0367	1299.3	417.95
893.5931	1544.8253	1307.35	421.55
893.7359	1546.6132	1302.5	416.4
893.8787	1548.4003	1316.4	423.55
894.0214	1550.1867	1319.2	429.15
894.1642	1551.9723	1319	432.6
894.3069	1553.7572	1321.65	439.05
894.4496	1555.5414	1328.6	447.6
894.5923	1557.3247	1348.55	467.6
894.735	1559.1074	1362.75	482.55
894.8777	1560.8893	1388	506.25
895.0204	1562.6705	1410.25	528.5
895.163	1564.4509	1423.7	543.4
895.3056	1566.2305	1427.6	545.25
895.4482	1568.0094	1432.15	550.95
895.5908	1569.7876	1418.15	534.05
895.7334	1571.565	1417.9	533.75
895.876	1573.3417	1418.9	536.75
896.0186	1575.1176	1421.5	537.15
896.1611	1576.8928	1432.35	550.8
896.3036	1578.6672	1437.85	557.35
896.4461	1580.4409	1455.4	573.3
896.5886	1582.2138	1478.15	594.7
896.7311	1583.986	1493.2	608.9
896.8736	1585.7575	1515.7	634.2
897.0161	1587.5282	1528.95	649.75
897.1585	1589.2981	1548.6	667.6
897.3009	1591.0673	1558.8	676.65
897.4433	1592.8358	1554.45	671
897.5857	1594.6035	1551.55	666.85
897.7281	1596.3704	1554.55	672.1
897.8705	1598.1366	1534.15	651.95
898.0128	1599.9021	1519.9	639.4
898.1551	1601.6668	1502.45	615.85
898.2975	1603.4308	1499.4	618.15
898.4398	1605.194	1510.5	623.35
898.5821	1606.9564	1533	649.95
898.7243	1608.7182	1558.05	670.65
898.8666	1610.4791	1609.2	726.25
899.0088	1612.2394	1651.6	771.55
899.1511	1613.9988	1704.45	819.85
899.2933	1615.7576	1738.6	854.65
899.4355	1617.5156	1756.15	867.85
899.5776	1619.2728	1719.3	837.25
899.7198	1621.0293	1666.75	787.9
899.862	1622.785	1606.55	720.95
900.0041	1624.54	1542.6	656.3
900.1462	1626.2942	1475.95	594.2
900.2883	1628.0477	1421.05	536.2
900.4304	1629.8005	1380.65	495.35
900.5725	1631.5525	1342.05	459.5
900.7145	1633.3037	1312.05	428.3
900.8566	1635.0542	1289.45	407.6
900.9986	1636.804	1274	391.1
901.1406	1638.553	1320.15	374.25
901.2826	1640.3013	1244.75	362.05
901.4245	1642.0488	1233.95	348.85
901.5665	1643.7955	1226.95	345.15
901.7085	1645.5416	1216.1	334.3
901.8504	1647.2868	1214.95	332.55
901.9923	1649.0313	1208.75	327.8
902.1342	1650.7751	1209.95	323.4
902.2761	1652.5181	1200.15	317.05
902.4179	1654.2604	1205.15	321.7
902.5598	1656.0019	1205	321.9
902.7016	1657.7427	1214.15	331.6
902.8434	1659.4828	1225.15	341.8
902.9852	1661.222	1241	357.35
903.127	1662.9606	1260.8	380.95
903.2687	1664.6984	1259.5	378.35
903.4105	1666.4354	1269.5	387.45
903.5522	1668.1717	1248.7	364.85
903.6939	1669.9072	1224.95	342.75
903.8356	1671.642	1208.2	325.85
903.9773	1673.3761	1180.65	300.2
904.119	1675.1094	1171.3	291.1
904.2606	1676.8419	1156.85	274.25
904.4022	1678.5737	1154.15	271.85
904.5439	1680.3048	1145	262.35
904.6855	1682.0351	1139.15	257.25
904.827	1683.7646	1137.9	252.6
904.9686	1685.4934	1130.15	249.35
905.1101	1687.2215	1134.8	251.45
905.2517	1688.9488	1126	244.85
905.3932	1690.6754	1122.65	242
905.5347	1692.4012	1125.15	245.95
905.6761	1694.1263	1122.1	240.4
905.8176	1695.8506	1121.6	238.15
905.9591	1697.5742	1116.1	232.7
906.1005	1699.297	1116.25	233.05
906.2419	1701.0191	1116.9	235.3
906.3833	1702.7404	1107.9	224.3
906.5246	1704.461	1113.7	228.7
906.666	1706.1808	1108.45	225.95
906.8073	1707.8999	1110.05	227.15
906.9487	1709.6182	1103.5	221.1
907.09	1711.3358	1105.55	222.45
907.2313	1713.0527	1100.7	220.65
907.3725	1714.7688	1104	214.7
907.5138	1716.4841	1106.9	222.95
907.655	1718.1987	1103.35	215.2
907.7962	1719.9126	1101.6	221.45
907.9374	1721.6257	1105.2	219.7
908.0786	1723.338	1099.65	215.95
908.2198	1725.0496	1102.65	219.7
908.3609	1726.7605	1095.9	212.1
908.502	1728.4706	1100.9	218.15
908.6431	1730.18	1095.15	210.85
908.7842	1731.8886	1095.55	212.8
908.9253	1733.5964	1095.85	207.4
909.0664	1735.3036	1092.7	208.35
909.2074	1737.0099	1088.55	206.05
909.3484	1738.7156	1091.5	210.8
909.4894	1740.4204	1096.35	211.3
909.6304	1742.1246	1096.3	212.25
909.7714	1743.8279	1090.2	209.4
909.9123	1745.5306	1090.45	207.05
910.0532	1747.2325	1088.55	205.3
910.1941	1748.9336	1093.3	213.2
910.335	1750.634	1090.75	205.9
910.4759	1752.3336	1091.35	211
910.6168	1754.0325	1087	205.3
910.7576	1755.7307	1091.3	208.45
910.8984	1757.4281	1090.4	208.05
911.0392	1759.1247	1094.55	203.8
911.18	1760.8206	1091.45	204.8
911.3208	1762.5158	1088.4	201.25
911.4615	1764.2102	1084.9	202.25
911.6022	1765.9039	1087.5	204.1
911.7429	1767.5968	1088	205.55
911.8836	1769.289	1083.35	203.7
912.0243	1770.9804	1082.85	198.65
912.1649	1772.6711	1086.05	203.65
912.3056	1774.361	1082.65	199.4
912.4462	1776.0502	1082.3	199.2
912.5868	1777.7386	1082.85	196.65
912.7274	1779.4263	1078.65	196.15
912.8679	1781.1132	1081.4	198.45
913.0084	1782.7994	1076.4	192.55
913.149	1784.4849	1079.2	198.6
913.2895	1786.1696	1094.9	193.2
913.4299	1787.8535	1079.55	197.7
913.5704	1789.5367	1074.2	188.7
913.7108	1791.2192	1074.85	194.45
913.8513	1792.9009	1090.95	192.9
913.9917	1794.5818	1074.95	193.05
914.132	1796.2621	1073	193.25
914.2724	1797.9415	1075.4	193.2
914.4128	1799.6202	1072.25	191.05
914.5531	1801.2982	1069	189.2
914.6934	1802.9755	1071.75	187.8
914.8337	1804.6519	1065.05	182.55
914.9739	1806.3277	1068.4	185.9
915.1142	1808.0027	1069.25	188.25
915.2544	1809.6769	1069.5	186
915.3946	1811.3504	1068.55	184.75
915.5348	1813.0231	1069.4	184.6
915.675	1814.6951	1068.4	186.15
915.8151	1816.3664	1068.1	181.9
915.9553	1818.0369	1065.25	182.3
916.0954	1819.7067	1063.25	180.45
916.2355	1821.3757	1064.45	181.45
916.3755	1823.044	1064.15	180.7
916.5156	1824.7115	1066.7	183.75
916.6556	1826.3783	1056.3	175.6
916.7956	1828.0443	1063.95	183.85
916.9356	1829.7096	1061.25	177.75
917.0756	1831.3741	1062.5	178.6
917.2155	1833.0379	1064.7	181.5
917.3555	1834.701	1065.55	180.1
917.4954	1836.3633	1063.2	180.7
917.6353	1838.0248	1063.3	179
917.7751	1839.6856	1056.85	173.1
917.915	1841.3457	1056.5	172.9
918.0548	1843.005	1058.6	176.75
918.1946	1844.6636	1054.25	172.95
918.3344	1846.3214	1057.35	175.6
918.4742	1847.9785	1061.35	177.7
918.6139	1849.6349	1062.75	178.95
918.7537	1851.2904	1065.35	173.9
918.8934	1852.9453	1054.75	172.05
919.0331	1854.5994	1059.3	175.35
919.1727	1856.2528	1058.85	170.3
919.3124	1857.9054	1055.65	174.05
919.452	1859.5572	1051.5	169.6
919.5916	1861.2083	1053.35	169.35
919.7312	1862.8587	1053.2	173.05
919.8708	1864.5084	1052.8	168.8
920.0103	1866.1572	1051.85	172.5
920.1498	1867.8054	1049.5	167.9
920.2893	1869.4528	1053.75	171.8
920.4288	1871.0994	1046.55	163.45
920.5683	1872.7453	1052.2	168.05
920.7077	1874.3905	1069	167.3
920.8471	1876.0349	1052.6	168.8
920.9865	1877.6786	1051.5	166
921.1259	1879.3215	1051.25	168.75
921.2653	1880.9637	1050.55	166.75
921.4046	1882.6051	1046.45	166.2
921.5439	1884.2458	1047.65	165.4
921.6832	1885.8858	1049.6	165.65
921.8225	1887.525	1050.8	168.65
921.9617	1889.1634	1048.05	164.65
922.101	1890.8011	1040.05	158.75
922.2402	1892.4381	1045.1	161.75
922.3794	1894.0743	1043.85	161.55
922.5185	1895.7098	1047.5	164.35
922.6577	1897.3446	1046.95	163.95
922.7968	1898.9786	1054.15	165.45
922.9359	1900.6118	1042.7	163.55
923.075	1902.2443	1041.95	158.5
923.214	1903.8761	1042.1	160.25
923.3531	1905.5071	1042.3	158.85
923.4921	1907.1374	1044.8	163.15
923.6311	1908.7669	1042.35	159.95
923.77	1910.3957	1040.1	156.85
923.909	1912.0237	1041.1	160.9
924.0479	1913.651	1040	157.05
924.1868	1915.2776	1037.9	157.5
924.3257	1916.9034	1039.7	157.75
924.4646	1918.5285	1033.55	150.7
924.6034	1920.1528	1037.5	154.45
924.7422	1921.7764	1035.55	154.65
924.881	1923.3992	1033.5	152.9
925.0198	1925.0213	1033.9	152.4
925.1586	1926.6427	1034.8	153.75
925.2973	1928.2633	1141.85	152.55
925.436	1929.8832	1035.45	151.55
925.5747	1931.5023	1034.45	150.4
925.7134	1933.1207	1032.45	148.95
925.852	1934.7383	1034.4	148.9
925.9906	1936.3552	1032.35	149.4
926.1292	1937.9714	1033	150.65
926.2678	1939.5868	1037.65	152.7
926.4064	1941.2015	1033.15	151.55
926.5449	1942.8154	1030.7	147.95
926.6834	1944.4286	1029.25	146.8
926.8219	1946.041	1049.75	144.8
926.9604	1947.6528	1037.6	150.55
927.0988	1949.2637	1029.65	146.9
927.2372	1950.8739	1027.35	143.3
927.3756	1952.4834	1028.45	146.85
927.514	1954.0921	1032.35	149.25
927.6523	1955.7001	1033	145.85
927.7907	1957.3074	1028.2	148.65
927.929	1958.9139	1023.65	141.3
928.0673	1960.5197	1029	143.9
928.2055	1962.1247	1023.3	140.3
928.3438	1963.729	1023.7	144.45
928.482	1965.3325	1049.55	142.3
928.6202	1966.9353	1021.45	139.05
928.7584	1968.5374	1023.35	141.45
928.8965	1970.1387	1023.35	140.85
929.0346	1971.7393	1021.75	139.85
929.1727	1973.3392	1023.55	140.25
929.3108	1974.9383	1024.9	145.45
929.4489	1976.5366	1022.4	139.85
929.5869	1978.1342	1024.55	143.45
929.7249	1979.7311	1019.35	132.95
929.8629	1981.3273	1025.15	142.3
930.0009	1982.9227	1024.95	141.2
930.1388	1984.5173	1022.55	138.8
930.2767	1986.1112	1019.25	136.85
930.4146	1987.7044	1016.2	135.2
930.5525	1989.2968	1019.9	137.1
930.6904	1990.8885	1022.55	136.1
930.8282	1992.4795	1025.6	140.9
930.966	1994.0697	1019.65	136.95
931.1038	1995.6592	1017.4	134.25
931.2415	1997.2479	1017.8	134.45
931.3793	1998.8359	1017.45	134.75
931.517	2000.4232	1019.15	136.8
931.6547	2002.0097	1022.2	140
931.7923	2003.5955	1017.85	135.45
931.93	2005.1805	1022.7	136.35
932.0676	2006.7648	1018.85	136.2
932.2052	2008.3484	1017.45	134.75
932.3427	2009.9312	1018.7	133.9
932.4803	2011.5133	1013.2	131
932.6178	2013.0946	1020.1	136.7
932.7553	2014.6752	1016.2	134.2
932.8928	2016.2551	1016.5	131.5
933.0302	2017.8342	1018.45	136.55
933.1676	2019.4126	1013.5	133.15
933.305	2020.9902	1014.85	133.15
933.4424	2022.5672	1015.8	131
933.5798	2024.1433	1016.5	126.05
933.7171	2025.7188	1016.55	132.8
933.8544	2027.2935	1014.6	129.05
933.9917	2028.8674	1015.65	132.75
934.129	2030.4406	1014.15	133.55
934.2662	2032.0131	1014.75	132.9
934.4034	2033.5849	1017.45	128.35
934.5406	2035.1559	1013.35	130.1
934.6778	2036.7261	1011.9	131.05
934.8149	2038.2957	1012.35	129.35
934.952	2039.8645	1011.55	128.95
935.0891	2041.4325	1014.75	129.75
935.2262	2042.9998	1015.85	134.8
935.3632	2044.5664	1014.05	130.2
935.5002	2046.1323	1018.25	135.65
935.6372	2047.6974	1011.6	130
935.7742	2049.2617	1011.2	127
935.9111	2050.8254	1033.75	130.3
936.048	2052.3883	1012.65	129.3
936.1849	2053.9504	1013.35	130.35
936.3218	2055.5118	1013.45	130.75
936.4586	2057.0725	1016.65	129.55
936.5955	2058.6325	1012.75	129.45
936.7323	2060.1917	1010.9	128.65
936.869	2061.7502	1017.3	131.45
937.0058	2063.3079	1013.05	130.4
937.1425	2064.8649	1015	127.6
937.2792	2066.4212	1011.9	126
937.4159	2067.9767	1014	132.6
937.5525	2069.5315	1008.75	126.35
937.6891	2071.0856	1012.1	129.8
937.8257	2072.6389	1008.1	123.4
937.9623	2074.1915	1008.1	128.05
938.0989	2075.7433	1010.25	124.3
938.2354	2077.2945	1010.45	128.75
938.3719	2078.8448	1009.05	125.95
938.5084	2080.3945	1011.5	127.95
938.6448	2081.9434	1009.35	126.4
938.7812	2083.4916	1011.75	129.6
938.9176	2085.039	1007.65	124.35
939.054	2086.5857	1009.65	125.95
939.1903	2088.1317	1009.15	126.95
939.3267	2089.677	1009.55	127.3
939.463	2091.2215	1009.6	126.65
939.5992	2092.7652	1010.75	128.2
939.7355	2094.3083	1008.8	124.95
939.8717	2095.8506	1007.25	126.5
940.0079	2097.3921	1008	127.65
940.1441	2098.933	1010.9	126.35
940.2802	2100.4731	1008.05	127.1
940.4163	2102.0124	1026.2	128
940.5524	2103.5511	1009.65	127.3
940.6885	2105.089	1007.75	125.7
940.8245	2106.6261	1008.4	127.3
940.9606	2108.1626	1008.4	124.3
941.0965	2109.6983	1036.45	127.1
941.2325	2111.2332	1006.05	124.9
941.3684	2112.7675	1007.1	122.4
941.5044	2114.301	1007.1	122.45
941.6403	2115.8337	1008.25	126.65
941.7761	2117.3657	1007.15	124.25
941.912	2118.897	1010.35	126.25
942.0478	2120.4276	1012.8	123.75
942.1835	2121.9575	1006	122.05
942.3193	2123.4866	1021.1	123.9
942.455	2125.0149	1013.55	126.45
942.5907	2126.5426	1008.3	126.2
942.7264	2128.0695	1009.6	122.25
942.8621	2129.5956	1006.2	123.45
942.9977	2131.1211	1013.65	126.05
943.1333	2132.6458	1003.25	119.8
943.2689	2134.1698	1005.2	122.4
943.4044	2135.693	1010.25	126.65
943.54	2137.2155	1012.45	126.4
943.6755	2138.7373	1007.25	124.6
943.8109	2140.2584	1001	116.7
943.9464	2141.7787	1012.1	125.35
944.0818	2143.2983	1000.4	118.45
944.2172	2144.8171	1004.95	124.45
944.3526	2146.3353	1004.85	119.2
944.4879	2147.8527	999.75	116.3
944.6232	2149.3693	1005.05	122
944.7585	2150.8853	1005.65	122.6
944.8938	2152.4005	1001.2	119
945.029	2153.9149	1002.35	118.9
945.1642	2155.4287	1004.4	121.6
945.2994	2156.9417	1005.15	122.65
945.4346	2158.454	1004.9	121.55
945.5697	2159.9655	1003.35	121.45
945.7048	2161.4764	1000.35	118.35
945.8399	2162.9865	1002.65	120.2
945.9749	2164.4958	1007.75	123.2
946.1099	2166.0045	1008	122.4
946.2449	2167.5124	999.65	117.05
946.3799	2169.0195	996.8	114.3
946.5148	2170.526	1004.3	121
946.6498	2172.0317	1001.35	118.95
946.7846	2173.5367	999.5	116.65
946.9195	2175.0409	998.95	117.8
947.0543	2176.5445	1001	119.75
947.1891	2178.0473	1000.35	119.6
947.3239	2179.5494	1003.65	118
947.4587	2181.0507	1002.75	121.55
947.5934	2182.5513	997.15	113.85
947.7281	2184.0512	999.85	117.35
947.8628	2185.5504	996.2	114
947.9974	2187.0488	999.35	116.85
948.132	2188.5465	999.05	113.7
948.2666	2190.0435	999	116.5
948.4012	2191.5397	999.15	118.4
948.5357	2193.0353	998.65	118.9
948.6702	2194.5301	998.75	114.5
948.8047	2196.0241	998.95	116.05
948.9392	2197.5175	1000.55	118.65
949.0736	2199.0101	1001.95	115.4
949.208	2200.502	997.95	117.25
949.3424	2201.9931	996.5	113.7
949.4767	2203.4835	1001.1	116.2
949.611	2204.9733	1001.05	111.05
949.7453	2206.4622	995	112.65
949.8796	2207.9505	1000.5	114.55
950.0138	2209.438	996.05	115.6
950.148	2210.9248	996.55	112.45
950.2822	2212.4109	991.4	109.3
950.4164	2213.8962	995.5	110.6
950.5505	2215.3809	996.8	113.65
950.6846	2216.8648	997.55	115.05
950.8186	2218.3479	1000.75	114.65
950.9527	2219.8304	994.15	110.4
951.0867	2221.3121	996.65	112.55
951.2207	2222.7931	991.6	110.1
951.3546	2224.2733	990.1	106.05
951.4886	2225.7529	991.1	107.9
951.6225	2227.2317	996	109.4
951.7563	2228.7098	990.85	109.15
951.8902	2230.1872	992.7	109.15
952.024	2231.6638	991.9	108.85
952.1578	2233.1397	996.55	108.95
952.2916	2234.6149	991.8	109.2
952.4253	2236.0894	990.25	105.65
952.559	2237.5632	999.45	106.65
952.6927	2239.0362	989.95	108.15
952.8263	2240.5085	988.15	104.6
952.9599	2241.9801	989.95	107.55
953.0935	2243.4509	986.9	106.1
953.2271	2244.921	987.2	105.05
953.3606	2246.3904	989.7	105.7
953.4941	2247.8591	988.55	105.55
953.6276	2249.3271	987.65	105
953.7611	2250.7943	989.15	107.8
953.8945	2252.2608	987	106.05
954.0279	2253.7266	985	101.3
954.1612	2255.1917	985.3	103.85
954.2946	2256.656	986.05	104.05
954.4279	2258.1197	985.6	101.4
954.5612	2259.5826	988.2	105.2
954.6944	2261.0447	989.6	106.9
954.8276	2262.5062	984	98.2
954.9608	2263.9669	987.7	104.15
955.094	2265.4269	985.8	103.85
955.2271	2266.8862	981.25	98.3
955.3602	2268.3448	984.8	100.5
955.4933	2269.8026	984.1	101.15
955.6264	2271.2598	984.1	103.55
955.7594	2272.7162	982.65	101
955.8924	2274.1719	981.2	99.55
956.0253	2275.6268	982.2	101.05
956.1583	2277.0811	980.4	96.95
956.2912	2278.5346	981	99.75
956.4241	2279.9874	980.5	97
956.5569	2281.4395	981.25	101.45
956.6897	2282.8908	986.65	97.6
956.8225	2284.3414	984.2	100.25
956.9553	2285.7914	983.3	103.9
957.088	2287.2406	980.55	95.9
957.2207	2288.689	978.65	95.1
957.3534	2290.1368	982.8	100.4
957.486	2291.5838	982	99.2
957.6186	2293.0302	981.95	97.9
957.7512	2294.4758	983.85	102.4
957.8838	2295.9206	978.7	93.25
958.0163	2297.3648	977.95	97.5
958.1488	2298.8082	979.75	97.4
958.2813	2300.251	981.05	98.9
958.4137	2301.693	979.65	94.4
958.5461	2303.1343	978.15	93.65
958.6785	2304.5748	981.55	98.15
958.8108	2306.0147	980.15	95.5
958.9432	2307.4538	981.85	94.55
959.0754	2308.8922	974	93.3
959.2077	2310.3299	977.2	96.2
959.3399	2311.7669	978.5	96.95
959.4721	2313.2031	977.25	97.2
959.6043	2314.6387	977.35	95.8
959.7365	2316.0735	976.5	92.5
959.8686	2317.5076	976.25	92.15
960.0006	2318.941	975.05	93
960.1327	2320.3737	976.85	90.85
960.2647	2321.8056	980.3	94.65
960.3967	2323.2369	974.7	90.8
960.5287	2324.6674	978.4	93.45
960.6606	2326.0972	984.15	100.55
960.7925	2327.5263	982.25	100
960.9244	2328.9547	984.45	102.05
961.0562	2330.3823	982.9	100.25
961.1881	2331.8092	983.6	98.1
961.3198	2333.2355	976.2	94.05
961.4516	2334.661	975	91.8
961.5833	2336.0858	979.2	94.1
961.715	2337.5098	971.15	90.2
961.8467	2338.9332	974.5	90.6
961.9783	2340.3558	978.35	91.55
962.1099	2341.7778	973.55	90.1
962.2415	2343.199	973.35	88.95
962.373	2344.6195	967.3	85.25
962.5045	2346.0393	972.05	88.05
962.636	2347.4583	971.95	87.2
962.7675	2348.8767	971.5	88.5
962.8989	2350.2943	974.1	92.15
963.0303	2351.7113	973.75	88.8
963.1617	2353.1275	973.6	91
963.293	2354.543	982.25	91.05
963.4243	2355.9578	967.6	85.7
963.5556	2357.3718	968.55	85.95
963.6868	2358.7852	970.8	87
963.818	2360.1978	972.8	88.55
963.9492	2361.6098	970.7	88.45
964.0803	2363.021	972.4	85.1
964.2114	2364.4315	966.4	84.8
964.3425	2365.8413	971.2	86.4
964.4736	2367.2504	967.5	84.2
964.6046	2368.6587	968.1	85
964.7356	2370.0664	969.85	87.3
964.8666	2371.4733	968.35	85.6
964.9975	2372.8795	968.65	84.35
965.1284	2374.285	965.15	79.7
965.2593	2375.6899	966.75	85.35
965.3901	2377.0939	964.75	80.85
965.5209	2378.4973	961.55	80.35
965.6517	2379.9	966.9	84.8
965.7825	2381.3019	966.45	86.25
965.9132	2382.7032	964.95	84.5
966.0439	2384.1037	963.75	83.15
966.1745	2385.5035	963.4	79.7
966.3051	2386.9027	964.5	82.7
966.4357	2388.3011	968.15	81.65
966.5663	2389.6987	966.3	84
966.6968	2391.0957	964.35	84.4
966.8273	2392.492	962.2	79.75
966.9578	2393.8876	964.15	79.65
967.0882	2395.2824	960.25	78.6
967.2186	2396.6765	961.5	80.95
967.349	2398.07	962.5	79.85
967.4793	2399.4627	961.7	78.6
967.6097	2400.8547	958.45	76.3
967.7399	2402.246	968.25	79.55
967.8702	2403.6366	962.25	79.2
968.0004	2405.0265	961.55	78.9
968.1306	2406.4156	965.7	79
968.2607	2407.8041	964.7	78.3
968.3909	2409.1918	960.15	76.5
968.521	2410.5789	961.1	79.1
968.651	2411.9652	962.9	77.9
968.781	2413.3508	959.4	77
968.911	2414.7358	960.55	77.45
969.041	2416.12	957.4	77.4
969.1709	2417.5035	958.8	75
969.3008	2418.8863	958.25	74.7
969.4307	2420.2684	958.15	75.4
969.5606	2421.6497	959.9	76.4
969.6904	2423.0304	959.3	77.75
969.8201	2424.4104	957.05	71.35
969.9499	2425.7896	960.75	71.5
970.0796	2427.1682	955.15	72.65
970.2093	2428.546	955.7	71.6
970.3389	2429.9232	956.75	72.8
970.4685	2431.2996	956.85	74.65
970.5981	2432.6753	953.8	72.75
970.7277	2434.0503	953.85	71.85
970.8572	2435.4246	954.7	70.2
970.9867	2436.7982	956.45	72.05
971.1161	2438.1711	952.8	71.6
971.2456	2439.5433	955.5	71.5
971.375	2440.9148	959.6	70.45
971.5043	2442.2856	955.35	73.65
971.6336	2443.6557	954.75	70.4
971.7629	2445.025	953.7	72.05
971.8922	2446.3937	952.95	69.95
972.0214	2447.7617	951.3	68.85
972.1506	2449.1289	953.95	71.4
972.2798	2450.4955	953.2	65.6
972.4089	2451.8613	951.1	69
972.538	2453.2265	955.35	73.5
972.6671	2454.5909	952.8	68.5
972.7961	2455.9546	951.2	67.9
972.9251	2457.3177	950.05	68.35
973.0541	2458.68	952.95	68.35
973.1831	2460.0416	950.9	66.2
973.312	2461.4025	955.3	73
973.4408	2462.7627	963.15	68
973.5697	2464.1222	950.55	69.2
973.6985	2465.4811	951.35	66.6
973.8273	2466.8392	952.5	71
973.956	2468.1966	952.15	64.3
974.0847	2469.5533	954.25	68.5
974.2134	2470.9093	952.05	68.1
974.3421	2472.2645	951.7	66.85
974.4707	2473.6191	950.6	66.95
974.5993	2474.973	947.35	63.6
974.7278	2476.3262	951.4	66.9
974.8563	2477.6787	947.5	66.3
974.9848	2479.0305	948.55	65.35
975.1132	2480.3816	950.05	65.8
975.2417	2481.7319	949.55	66.55
975.37	2483.0816	949.8	65.25
975.4984	2484.4306	951.9	67.25
975.6267	2485.7789	948.8	66.8
975.755	2487.1264	951.1	65.1
975.8833	2488.4733	947.15	66.45
976.0115	2489.8195	962.7	60.6
976.1397	2491.165	952.7	67.8
976.2678	2492.5097	950.75	66.35
976.3959	2493.8538	948.5	67.15
976.524	2495.1972	945.6	62.9
976.6521	2496.5398	948.15	64
976.7801	2497.8818	951.65	67.65
976.9081	2499.2231	947.2	65.75
977.036	2500.5637	948.6	63.8
977.164	2501.9035	942.9	61.4
977.2918	2503.2427	947	57.45
977.4197	2504.5812	944.8	61.45
977.5475	2505.919	946.15	61.8
977.6753	2507.256	945.35	63.8
977.8031	2508.5924	945.85	63.5
977.9308	2509.9281	952.35	65.5
978.0585	2511.2631	942.25	60.05
978.1861	2512.5974	940.15	59.4
978.3137	2513.9309	946.7	63.75
978.4413	2515.2638	973.2	61.9
978.5689	2516.596	944.15	63.2
978.6964	2517.9275	946.2	60.85
978.8239	2519.2583	943.45	58.7
978.9513	2520.5884	944.35	59.9
979.0788	2521.9178	944.3	61.7
979.2062	2523.2465	942.15	60.6
979.3335	2524.5745	942.9	58.55
979.4608	2525.9018	944.65	63
979.5881	2527.2284	939.75	59.85
979.7154	2528.5543	942.9	61.7
979.8426	2529.8796	944.75	61.75
979.9698	2531.2041	943.65	61.4
980.0969	2532.5279	942.05	61.45
980.224	2533.851	941.95	58.8
980.3511	2535.1735	940.2	58.25
980.4781	2536.4952	940.75	58.2
980.6052	2537.8163	940.7	56.1
980.7321	2539.1366	940.45	60.85
980.8591	2540.4562	941.65	57.5
980.986	2541.7752	941.75	60.6
981.1129	2543.0935	940.95	58.5
981.2397	2544.411	940.55	57.8
981.3665	2545.7279	940.9	60.6
981.4933	2547.0441	937.35	56.5
981.62	2548.3596	942.35	55.95
981.7467	2549.6744	938.35	55
981.8734	2550.9885	940.05	54.55
982.0001	2552.3019	940.45	57.95
982.1267	2553.6146	943.1	58.75
982.2532	2554.9266	937.6	55.45
982.3798	2556.2379	940.2	55.25
982.5063	2557.5485	936.95	56.9
982.6327	2558.8585	942.6	53.65
982.7592	2560.1677	943.7	56.95
982.8856	2561.4762	938.75	55.4
983.0119	2562.7841	939.55	55.4
983.1383	2564.0913	938.4	58.25
983.2646	2565.3977	939	57.85
983.3908	2566.7035	935.45	53.9
983.517	2568.0086	940.1	57.85
983.6432	2569.313	937.75	52.85
983.7694	2570.6167	939.6	53.5
983.8955	2571.9197	937.5	56.45
984.0216	2573.222	940.05	53.2
984.1476	2574.5236	935.25	52.55
984.2737	2575.8246	941.1	56.55
984.3996	2577.1248	939.6	54.6
984.5256	2578.4244	934.75	51.55
984.6515	2579.7232	934.5	51.65
984.7774	2581.0214	967.7	53.65
984.9032	2582.3189	939.75	57.95
985.029	2583.6157	941.35	54.3
985.1548	2584.9118	936.35	51.75
985.2806	2586.2072	935.15	54.9
985.4063	2587.5019	934.05	49.9
985.5319	2588.7959	933.85	49.25
985.6576	2590.0893	937.2	51.4
985.7832	2591.3819	932.85	51.6
985.9087	2592.6739	935.45	54.5
986.0343	2593.9652	938.3	55.7
986.1597	2595.2557	938	55.75
986.2852	2596.5456	936.05	51.55
986.4106	2597.8348	930.75	48.45
986.536	2599.1234	935.5	54.55
986.6614	2600.4112	935.2	52.25
986.7867	2601.6983	939.5	54.9
986.912	2602.9848	934	51.25
987.0372	2604.2705	941.55	52.35
987.1624	2605.5556	932.45	49.25
987.2876	2606.84	939.05	57.1
987.4128	2608.1237	937.05	54.8
987.5379	2609.4067	933.05	49.95
987.6629	2610.689	940.5	49.9
987.788	2611.9707	935.95	50.45
987.913	2613.2516	938.35	50.9
988.0379	2614.5319	932.1	51.15
988.1629	2615.8115	932.5	48.1
988.2878	2617.0903	934.4	51.5
988.4126	2618.3685	931.6	50.15
988.5375	2619.6461	933.5	50.85
988.6622	2620.9229	927.8	46.55
988.787	2622.199	933.7	50.55
988.9117	2623.4745	932.5	48.95
989.0364	2624.7493	929.65	48.55
989.161	2626.0234	928.7	46.4
989.2857	2627.2968	930.4	48.2
989.4102	2628.5695	932.3	47.2
989.5348	2629.8415	932.7	51.8
989.6593	2631.1128	930.65	47.3
989.7837	2632.3835	930	47.35
989.9082	2633.6535	930.7	48.3
990.0326	2634.9228	928.75	46.35
990.1569	2636.1914	927.85	44.25
990.2812	2637.4593	935.65	46.75
990.4055	2638.7265	929.7	46
990.5298	2639.9931	928.75	47.3
990.654	2641.259	928.3	43.55
990.7782	2642.5242	929.3	46.65
990.9023	2643.7887	926.4	45.6
991.0264	2645.0525	930.8	49.5
991.1505	2646.3156	930.6	46.05
991.2745	2647.5781	925.6	44.35
991.3985	2648.8398	926.75	46
991.5225	2650.1009	965	44.85
991.6464	2651.3613	926.1	42.6
991.7703	2652.6211	929.3	45.9
991.8942	2653.8801	926.65	43.7
992.018	2655.1385	928.4	42.25
992.1418	2656.3961	927.55	45.9
992.2655	2657.6531	923.65	41.85
992.3892	2658.9094	925.45	41.85
992.5129	2660.1651	925.2	43.1
992.6366	2661.42	927.05	46.15
992.7602	2662.6743	929	45.2
992.8837	2663.9279	926.25	44.3
993.0073	2665.1808	926.25	42.1
993.1307	2666.433	927.65	45.7
993.2542	2667.6846	925.3	44
993.3776	2668.9354	930.55	45.95
993.501	2670.1856	927.5	44.2
993.6244	2671.4351	925.65	42.8
993.7477	2672.6839	927.45	43.5
993.8709	2673.9321	927.6	46.95
993.9942	2675.1795	925.3	41.1
994.1174	2676.4263	928.35	45.7
994.2405	2677.6724	926.55	45.6
994.3637	2678.9179	925.7	44.6
994.4868	2680.1626	926.75	43.7
994.6098	2681.4067	926.3	45.1
994.7328	2682.6501	924.9	40.8
994.8558	2683.8928	924.55	42.7
994.9788	2685.1348	923.15	42.05
995.1017	2686.3761	922.8	40
995.2245	2687.6168	924.4	40.85
995.3474	2688.8568	925	40.3
995.4702	2690.0961	924.8	45.3
995.5929	2691.3348	925.3	42.8
995.7156	2692.5727	922.9	41.8
995.8383	2693.81	922.9	42.1
995.961	2695.0466	920.3	38.2
996.0836	2696.2826	923.1	38.85
996.2062	2697.5178	924.9	37
996.3287	2698.7524	924.5	41.15
996.4512	2699.9863	924.5	40.4
996.5737	2701.2195	922.85	42.95
996.6961	2702.452	925.25	40.95
996.8185	2703.6839	922.95	39.9
996.9408	2704.9151	922.1	39.9
997.0631	2706.1456	925.5	41.8
997.1854	2707.3755	924.6	38.85
997.3077	2708.6046	925.5	41.85
997.4299	2709.8331	922.9	39.15
997.552	2711.0609	923.35	41
997.6742	2712.2881	925.05	42.45
997.7963	2713.5145	925.75	39.65
997.9183	2714.7403	923.7	42.2
998.0403	2715.9654	924.65	41.75
998.1623	2717.1899	940.65	43.5
998.2842	2718.4136	928.8	46.65
998.4062	2719.6367	926.15	43.2
998.528	2720.8591	933.55	44.45
998.6498	2722.0809	928.65	46.55
998.7716	2723.3019	929	41.65
998.8934	2724.5223	929.7	46.95
999.0151	2725.7421	928.1	45.45
999.1368	2726.9611	933.4	48.2
999.2584	2728.1795	931.65	45.75
999.38	2729.3972	925.4	42.1
999.5016	2730.6142	941.35	46
999.6231	2731.8306	928.55	44.45
999.7446	2733.0462	926.35	41.9
999.8661	2734.2612	927.6	40.95
999.9875	2735.4756	925.55	43.25
1000.1089	2736.6892	923.25	38.7
1000.2302	2737.9022	920.85	41.15
1000.3515	2739.1145	920.8	36.1
1000.4728	2740.3262	928.25	37.25
1000.594	2741.5372	919.05	36.25
1000.7152	2742.7475	919.3	35.95
1000.8363	2743.9571	920.7	38.05
1000.9575	2745.1661	923.25	34.7
1001.0785	2746.3744	919.95	36.6
1001.1996	2747.582	920.15	36.05
1001.3206	2748.7889	921.65	36.85
1001.4415	2749.9952	916.95	32.9
1001.5625	2751.2008	918.65	33.85
1001.6833	2752.4057	917.4	30.9
1001.8042	2753.61	918.35	34.65
1001.925	2754.8136	919.2	33.5
1002.0458	2756.0165	917.15	37.7
1002.1665	2757.2188	913.35	30.9
1002.2872	2758.4204	914.45	32
1002.4078	2759.6213	919.15	36.2
1002.5285	2760.8215	923.45	34.85
1002.649	2762.0211	921.1	37.45
1002.7696	2763.22	919.65	33.25
1002.8901	2764.4182	916.65	31.7
1003.0106	2765.6158	917.5	33.85
1003.131	2766.8127	914.9	31.65
1003.2514	2768.009	915.2	33.1
1003.3717	2769.2045	917.55	34.05
1003.492	2770.3994	918.3	32.6
1003.6123	2771.5936	912.75	29.55
1003.7325	2772.7872	914.4	33.8
1003.8527	2773.9801	914.4	29.3
1003.9729	2775.1723	933.5	34.85
1004.093	2776.3639	911.4	30
1004.2131	2777.5548	917.45	31.1
1004.3331	2778.745	915.35	30.95
1004.4531	2779.9346	914.35	33.45
1004.5731	2781.1235	914.6	31.45
1004.693	2782.3117	912.1	29.45
1004.8129	2783.4992	911.7	31.25
1004.9328	2784.6861	913.15	31.2
1005.0526	2785.8723	915.2	31.05
1005.1723	2787.0579	914.35	31
1005.2921	2788.2428	914.95	32.75
1005.4118	2789.427	915.3	32.35
1005.5314	2790.6106	913.6	28.25
1005.651	2791.7935	913.6	30.1
1005.7706	2792.9757	915.05	33.2
1005.8902	2794.1573	912.9	26.65
1006.0097	2795.3382	913.45	29.7
1006.1291	2796.5184	909.9	27.85
1006.2485	2797.698	912.3	28.15
1006.3679	2798.8769	911.7	27.4
1006.4873	2800.0551	913	29.5
1006.6066	2801.2327	917.35	32.55
1006.7258	2802.4096	912.8	30.35
1006.8451	2803.5859	916.95	32.6
1006.9642	2804.7615	916.9	33.8
1007.0834	2805.9364	914.3	31.9
1007.2025	2807.1106	917.05	36.1
1007.3216	2808.2842	918.15	33.65
1007.4406	2809.4572	915.15	32.5
1007.5596	2810.6294	919.95	36.95
1007.6785	2811.801	918.25	37.55
1007.7975	2812.972	918.3	35.8
1007.9163	2814.1423	919.65	37.1
1008.0352	2815.3119	919.9	36.7
1008.154	2816.4808	923	41.25
1008.2727	2817.6491	925.7	41.7
1008.3914	2818.8167	924.25	43.05
1008.5101	2819.9837	933.2	46.4
1008.6288	2821.15	929.35	45
1008.7474	2822.3157	933.35	52.85
1008.8659	2823.4807	938	55.1
1008.9844	2824.645	942.8	60.65
1009.1029	2825.8086	944.35	61.35
1009.2214	2826.9716	950.4	69.05
1009.3398	2828.134	952.15	70.5
1009.4581	2829.2957	959	77.1
1009.5764	2830.4567	960.05	77.45
1009.6947	2831.617	964.5	81.3
1009.813	2832.7767	962.85	80.85
1009.9312	2833.9358	964.45	82.3
1010.0493	2835.0941	963.5	79.55
1010.1675	2836.2519	960.8	80.4
1010.2855	2837.4089	960.95	77.85
1010.4036	2838.5653	956.45	74.3
1010.5216	2839.7211	952.35	72.15
1010.6396	2840.8761	954.65	69.9
1010.7575	2842.0306	951.8	71.4
1010.8754	2843.1843	951.15	67.6
1010.9932	2844.3374	952.8	69.75
1011.111	2845.4899	957.25	74.15
1011.2288	2846.6417	954.4	71.5
1011.3465	2847.7928	956.95	75.25
1011.4642	2848.9433	956.2	75.15
1011.5818	2850.0931	955.2	72.85
1011.6995	2851.2422	959.5	74.15
1011.817	2852.3907	959.95	77.4
1011.9345	2853.5385	957.75	73.65
1012.052	2854.6857	986.9	79.05
1012.1695	2855.8323	962.3	80.6
1012.2869	2856.9781	961.8	80.65
1012.4042	2858.1233	965.25	81.05
1012.5216	2859.2679	962.45	79.85
1012.6389	2860.4118	966.7	82.4
1012.7561	2861.555	973.75	86.15
1012.8733	2862.6976	970.9	88.85
1012.9905	2863.8395	970.6	88.55
1013.1076	2864.9808	975.4	92.35
1013.2247	2866.1214	973.55	91.2
1013.3417	2867.2614	973.6	90.05
1013.4587	2868.4007	976.8	92.85
1013.5757	2869.5393	979.75	95.4
1013.6926	2870.6773	980.75	93.5
1013.8095	2871.8146	977.8	92.45
1013.9263	2872.9513	982.35	94.95
1014.0431	2874.0874	976	93.3
1014.1599	2875.2227	984.05	102
1014.2766	2876.3574	980.3	97.8
1014.3933	2877.4915	978.95	96.35
1014.51	2878.6249	983.55	101.1
1014.6266	2879.7577	984.6	100.9
1014.7431	2880.8898	999.1	104.55
1014.8596	2882.0212	987.2	105.15
1014.9761	2883.152	988.1	105.3
1015.0925	2884.2821	987.6	105.05
1015.2089	2885.4116	990.2	108.25
1015.3253	2886.5405	988.5	106.25
1015.4416	2887.6686	993.4	108.3
1015.5579	2888.7962	989.4	108.5
1015.6741	2889.923	990.1	108.15
1015.7903	2891.0493	991.8	109
1015.9065	2892.1748	991.85	108.55
1016.0226	2893.2997	987.75	104.2
1016.1387	2894.424	991.95	110.9
1016.2547	2895.5476	989.05	108.15
1016.3707	2896.6706	991.05	108.95
1016.4866	2897.7929	992.8	111.55
1016.6025	2898.9145	992	108.95
1016.7184	2900.0355	994.9	113.85
1016.8342	2901.1559	991.8	109.6
1016.95	2902.2756	988.9	107
1017.0658	2903.3946	991.05	108.95
1017.1815	2904.513	994.25	108.05
1017.2971	2905.6308	993.35	112.7
1017.4127	2906.7479	991.25	108.65
1017.5283	2907.8643	991.5	110.4
1017.6439	2908.9801	989.1	106.45
1017.7594	2910.0953	991.3	109.45
1017.8748	2911.2098	992.4	109.5
1017.9902	2912.3236	997.4	106
1018.1056	2913.4368	991.4	103.65
1018.2209	2914.5494	990.55	109.6
1018.3362	2915.6613	995.1	104.15
1018.4515	2916.7725	987.05	101.5
1018.5667	2917.8831	985	100.6
1018.6819	2918.9931	987.45	102.25
1018.797	2920.1024	984.1	100.65
1018.9121	2921.211	980.85	96.95
1019.0271	2922.319	979.85	97.2
1019.1421	2923.4264	980.4	97.7
1019.2571	2924.5331	979.15	96.55
1019.372	2925.6391	975.6	94.4
1019.4869	2926.7445	978.1	94.85
1019.6017	2927.8493	976.6	93.3
1019.7165	2928.9534	983.9	100.5
1019.8313	2930.0569	980.95	96.15
1019.946	2931.1597	979.5	95.95
1020.0606	2932.2619	980.85	99.6
1020.1753	2933.3634	978.3	94.6
1020.2899	2934.4643	985.95	96.75
1020.4044	2935.5645	988.65	99.35
1020.5189	2936.6641	986.85	102.25
1020.6334	2937.763	981.65	99.35
1020.7478	2938.8613	980.85	97.05
1020.8622	2939.959	988.8	100.7
1020.9765	2941.056	975.25	92.7
1021.0908	2942.1523	976.1	90.95
1021.2051	2943.248	971	87.3
1021.3193	2944.3431	964.9	83.85
1021.4334	2945.4375	961.7	77.75
1021.5476	2946.5313	955.1	74.8
1021.6617	2947.6244	958.5	76.95
1021.7757	2948.7169	952.9	68.4
1021.8897	2949.8087	951.1	69
1022.0037	2950.8999	947.65	64.3
1022.1176	2951.9904	941.95	58.15
1022.2315	2953.0803	939.55	56.2
1022.3453	2954.1696	938.7	56.15
1022.4591	2955.2582	933.65	50.7
1022.5728	2956.3462	934.1	51.1
1022.6865	2957.4335	933	48.1
1022.8002	2958.5202	933.6	49.05
1022.9138	2959.6062	934.05	50.65
1023.0274	2960.6916	929.75	46.95
1023.141	2961.7764	936.05	54.2
1023.2545	2962.8605	936.8	54.3
1023.3679	2963.9439	930.45	48.3
1023.4813	2965.0267	933.9	50.05
1023.5947	2966.1089	955.45	49.6
1023.708	2967.1905	931.8	49.45
1023.8213	2968.2714	930	46.05
1023.9346	2969.3516	928.55	46.85
1024.0478	2970.4312	937.45	48.65
1024.1609	2971.5102	931.05	47.55
1024.274	2972.5885	929.7	47.3
1024.3871	2973.6662	933.55	44.6
1024.5002	2974.7432	929.85	49.15
1024.6132	2975.8196	929.5	47.95
1024.7261	2976.8954	927.35	44.45
1024.839	2977.9705	930.9	49.35
1024.9519	2979.045	931.5	50.55
1025.0647	2980.1188	931.15	49.4
1025.1775	2981.192	932.15	51.1
1025.2902	2982.2645	931.95	45.7
1025.4029	2983.3364	929.25	48.35
1025.5156	2984.4077	927.6	45.8
1025.6282	2985.4783	931.35	43.4
1025.7407	2986.5483	923.65	42.35
1025.8532	2987.6177	922.95	40.15
1025.9657	2988.6864	922	38.15
1026.0782	2989.7545	924.35	40.8
1026.1906	2990.8219	917.15	33.4
1026.3029	2991.8887	921.65	39.05
1026.4152	2992.9548	919.7	37
1026.5275	2994.0204	915.05	32.75
1026.6397	2995.0852	911.55	31.5
1026.7519	2996.1495	915.15	32.1
1026.864	2997.2131	912.85	30.9
1026.9761	2998.276	913.95	31.85
1027.0882	2999.3383	908.7	25
1027.2002	3000.4	908.2	24.8
1027.3122	3001.4611	909.4	26.45
1027.4241	3002.5215	906.9	25.35
1027.536	3003.5812	907.6	23.8
1027.6478	3004.6404	904.3	19.55
1027.7596	3005.6989	906.45	23.45
1027.8714	3006.7567	904.85	23.05
1027.9831	3007.8139	933.3	22.4
1028.0947	3008.8705	903.2	20.85
1028.2064	3009.9264	918.55	19.95
1028.3179	3010.9818	902.95	19.35
1028.4295	3012.0364	904.1	22.65
1028.541	3013.0905	901.6	19.35
1028.6524	3014.1439	901.95	18.75
1028.7638	3015.1966	904.15	22.65
1028.8752	3016.2487	902.85	20.55
1028.9865	3017.3002	909.65	21.2
1029.0978	3018.3511	900.6	21.45
1029.209	3019.4013	902.15	19.95
1029.3202	3020.4509	899.1	18.3
1029.4314	3021.4998	901.25	19.05
1029.5425	3022.5481	900.65	17
1029.6535	3023.5958	899.2	17.4
1029.7645	3024.6428	904.9	20.7
1029.8755	3025.6892	900.4	15.85
1029.9864	3026.735	901.2	18.9
1030.0973	3027.7802	901.85	18.6
1030.2082	3028.8247	899.85	19.15
1030.319	3029.8685	904.3	21.1
1030.4297	3030.9118	899.5	14.75
1030.5404	3031.9544	901.2	20.6
1030.6511	3032.9963	902.05	20.45
1030.7617	3034.0376	900.85	18.1
1030.8723	3035.0783	904.1	18.65
1030.9829	3036.1184	902.15	20.7
1031.0934	3037.1578	898.2	14.15
1031.2038	3038.1966	902.2	18
1031.3142	3039.2348	897.65	15.8
1031.4246	3040.2723	908.35	17.25
1031.5349	3041.3092	897.3	16.5
1031.6452	3042.3455	898.65	17.3
1031.7554	3043.3811	900.3	16.6
1031.8656	3044.4161	900.55	18.55
1031.9758	3045.4505	897.05	16.25
1032.0859	3046.4842	900.1	17.1
1032.1959	3047.5173	899.2	16.4
1032.3059	3048.5498	901.45	18.3
1032.4159	3049.5816	898.4	16.2
1032.5258	3050.6128	901.25	19.3
1032.6357	3051.6434	903.9	17.4
1032.7455	3052.6734	900.45	16.8
1032.8553	3053.7027	898.6	16.3
1032.9651	3054.7314	899.1	17.15
1033.0748	3055.7594	900.1	17.2
1033.1845	3056.7868	900.9	15.7
1033.2941	3057.8136	899.9	19.15
1033.4037	3058.8398	902.35	21.65
1033.5132	3059.8653	899.6	17.45
1033.6227	3060.8902	900.4	18.15
1033.7321	3061.9145	898.85	15.3
1033.8415	3062.9381	900.9	19.2
1033.9509	3063.9612	915.45	16.5
1034.0602	3064.9835	902.95	21.2
1034.1694	3066.0053	902.5	17.5
1034.2787	3067.0264	900.75	18.55
1034.3878	3068.0469	903.4	18.8
1034.497	3069.0668	900.75	17.2
1034.6061	3070.086	898.6	16.4
1034.7151	3071.1046	902.7	18.1
1034.8241	3072.1226	901.75	18.4
1034.9331	3073.1399	900.75	18.9
1035.042	3074.1567	900.7	17.65
1035.1508	3075.1727	900.65	15.05
1035.2597	3076.1882	900.1	17.8
1035.3684	3077.203	898.05	16.85
1035.4772	3078.2173	901.2	17.95
1035.5859	3079.2308	901.7	13.95
1035.6945	3080.2438	899.95	16.65
1035.8031	3081.2561	896.65	11.25
1035.9117	3082.2678	894.55	12.9
1036.0202	3083.2789	895.9	13.8
1036.1286	3084.2893	897.1	16.05
1036.2371	3085.2991	896.2	11.75
1036.3454	3086.3083	900.75	14.7
1036.4538	3087.3169	900.45	16.05
1036.562	3088.3248	897.45	13.45
1036.6703	3089.3321	898.35	14.1
1036.7785	3090.3388	895	12.6
1036.8866	3091.3449	895.4	12.5
1036.9948	3092.3503	898.1	11.55
1037.1028	3093.3551	894.45	14.25
1037.2108	3094.3593	894.85	14.3
1037.3188	3095.3629	895.5	14.55
1037.4267	3096.3658	895.2	11.15
1037.5346	3097.3681	893.95	11
1037.6425	3098.3698	896.05	12.7
1037.7503	3099.3708	900.85	10.6
1037.858	3100.3713	895.75	13.5
1037.9657	3101.3711	896.25	12.6
1038.0734	3102.3702	1034.25	13.6
1038.181	3103.3688	897.45	12.85
1038.2886	3104.3667	892.7	10.1
1038.3961	3105.364	893.35	11.7
1038.5036	3106.3607	896.35	13.3
1038.611	3107.3568	897.25	15.1
1038.7184	3108.3522	892.65	12.15
1038.8257	3109.347	893.5	9.3
1038.933	3110.3412	897.75	11.7
1039.0403	3111.3348	894.6	12.45
1039.1475	3112.3277	892.7	11
1039.2547	3113.32	891	9.3
1039.3618	3114.3117	893.75	9.35
1039.4689	3115.3028	893.65	11.85
1039.5759	3116.2932	895.35	12.15
1039.6829	3117.2831	898.2	9.65
1039.7898	3118.2723	893.75	11.05
1039.8967	3119.2608	892.1	9.35
1040.0035	3120.2488	894.05	11.05
1040.1103	3121.2361	892.55	10.05
1040.2171	3122.2229	892.1	9.3
1040.3238	3123.209	892.45	9.4
1040.4305	3124.1944	890.25	9.4
1040.5371	3125.1793	893.35	11.95
1040.6437	3126.1635	893.4	11.6
1040.7502	3127.1471	889.8	9.55
1040.8567	3128.1301	892.7	10.15
1040.9631	3129.1125	890.9	8.35
1041.0695	3130.0942	892.6	9
1041.1759	3131.0753	899.8	8.75
1041.2822	3132.0558	894.65	8.95
1041.3884	3133.0357	891.1	8.6
1041.4946	3134.015	891.95	7.85
1041.6008	3134.9936	892.8	6.9
1041.7069	3135.9716	912.65	10.5
1041.813	3136.949	892.5	10.7
1041.919	3137.9258	908.7	6.7
1042.025	3138.902	896	8.05
1042.1309	3139.8775	889.1	9.2
1042.2368	3140.8524	892.45	10.9
1042.3427	3141.8267	892.05	9.9
1042.4485	3142.8004	891.15	8.55
1042.5542	3143.7735	897.95	8.25
1042.6599	3144.7459	891.6	5.1
1042.7656	3145.7178	891.95	7.9
1042.8712	3146.689	889.35	9.25
1042.9768	3147.6596	892.6	7.25
1043.0823	3148.6295	890.3	7.5
1043.1878	3149.5989	890.2	7.6
1043.2932	3150.5676	889.9	7.4
1043.3986	3151.5357	890.2	9.45
1043.5039	3152.5032	889.95	6.15
1043.6092	3153.4701	892.6	10.35
1043.7145	3154.4364	892.3	5.35
1043.8197	3155.402	889.7	8.9
1043.9248	3156.367	891.95	6.15
1044.03	3157.3315	911.2	11.6
1044.135	3158.2952	888.95	5.5
1044.24	3159.2584	888.95	6.3
1044.345	3160.221	889.75	7.45
1044.4499	3161.1829	888.45	6.5
1044.5548	3162.1442	889.1	7.8
1044.6596	3163.105	888.75	7.75
1044.7644	3164.065	890.15	7.35
1044.8692	3165.0245	893.7	7.45
1044.9739	3165.9834	889.55	7.95
1045.0785	3166.9416	890.75	8.55
1045.1831	3167.8993	891.2	8.85
1045.2877	3168.8563	889.05	5.05
1045.3922	3169.8127	889.8	7.5
1045.4966	3170.7684	889.4	5.75
1045.6011	3171.7236	888.45	5.55
1045.7054	3172.6782	889.95	9.15
1045.8098	3173.6321	891.2	7.5
1045.914	3174.5854	894.5	6.95
1046.0183	3175.5381	891.5	8.2
1046.1224	3176.4902	885.95	5.25
1046.2266	3177.4417	888.1	5.4
1046.3307	3178.3926	887.9	6
1046.4347	3179.3428	888.55	6.35
1046.5387	3180.2924	888.9	7.2
1046.6427	3181.2415	889.6	7.05
1046.7466	3182.1899	891.15	6.55
1046.8504	3183.1377	889.6	9.55
1046.9542	3184.0848	891.15	5.9
1047.058	3185.0314	889.75	7.55
1047.1617	3185.9773	888.7	4.8
1047.2654	3186.9227	890.95	6.55
1047.369	3187.8674	889.65	6
1047.4726	3188.8115	891.45	6.3
1047.5761	3189.755	888	5.4
1047.6796	3190.6979	889.3	6.8
1047.783	3191.6402	886.5	4.5
1047.8864	3192.5818	887.9	5.35
1047.9898	3193.5229	895.5	6.2
1048.0931	3194.4633	888.9	7.2
1048.1963	3195.4031	888.95	5.5
1048.2995	3196.3423	887.5	5.3
1048.4027	3197.2809	889.15	5.75
1048.5058	3198.2189	888.05	5
1048.6089	3199.1563	907.85	8.05
1048.7119	3200.0931	887.95	5.55
1048.8148	3201.0292	889.1	8.35
1048.9178	3201.9648	889.15	6.75
1049.0206	3202.8997	890.2	3.1
1049.1235	3203.834	887.5	4.8
1049.2262	3204.7677	887.5	2.4
1049.329	3205.7008	890.7	7.65
1049.4317	3206.6333	887.3	6
1049.5343	3207.5652	889.95	4.4
1049.6369	3208.4964	887.6	6.35
1049.7394	3209.4271	887.9	4.3
1049.8419	3210.3571	888.25	7.35
1049.9444	3211.2865	888.9	5.75
1050.0468	3212.2154	890.25	6.3
1050.1491	3213.1436	892.3	5.45
1050.2514	3214.0712	894.5	5.55
1050.3537	3214.9982	888.25	4.5
1050.4559	3215.9246	889.7	7.5
1050.5581	3216.8503	886.2	4.1
1050.6602	3217.7755	886.5	3.9
1050.7623	3218.7001	887.3	6
1050.8643	3219.624	888.05	3.35
1050.9663	3220.5473	888.1	5.2
1051.0682	3221.4701	890.4	4.8
1051.1701	3222.3922	889.1	5.55
1051.2719	3223.3137	886.6	4.15
1051.3737	3224.2346	887.1	4.8
1051.4754	3225.1549	887.25	6.3
1051.5771	3226.0746	886.95	4
1051.6788	3226.9937	885.8	4.85
1051.7804	3227.9121	885.7	5.15
1051.8819	3228.83	888.2	8.1
1051.9834	3229.7473	886.7	2.9
1052.0849	3230.6639	886.1	1.4
1052.1863	3231.5799	887.95	7.05
1052.2876	3232.4954	889.15	5.2
1052.3889	3233.4102	888.2	5.05
1052.4902	3234.3244	887.3	4.45
1052.5914	3235.238	888.1	6.1
1052.6926	3236.151	912.6	5.15
1052.7937	3237.0634	888.45	5.2
1052.8948	3237.9752	886.7	3.55
1052.9958	3238.8864	885.5	2.5
1053.0968	3239.797	886.7	4.7
1053.1977	3240.7069	887.2	1.9
1053.2986	3241.6163	889.9	6.05
1053.3994	3242.5251	885.95	2.65
1053.5002	3243.4332	887.85	6.55
1053.6009	3244.3408	888.9	5.95
1053.7016	3245.2477	886.35	5.4
1053.8022	3246.154	891.2	6
1053.9028	3247.0598	888.9	5.75
1054.0034	3247.9649	886.4	4.6
1054.1039	3248.8694	888.15	6.35
1054.2043	3249.7733	887.9	4
1054.3047	3250.6766	887.8	6.55
1054.4051	3251.5793	885.95	2.6
1054.5054	3252.4814	886.9	4.65
1054.6056	3253.3829	886.9	4.55
1054.7058	3254.2838	886.65	4.2
1054.806	3255.1841	887.75	7.15
1054.9061	3256.0838	887.45	6.05
1055.0061	3256.9829	885.05	5.6
1055.1062	3257.8814	889.5	2.9
1055.2061	3258.7792	889.25	5.2
1055.306	3259.6765	889.45	6.75
1055.4059	3260.5731	885.15	1.05
1055.5057	3261.4692	886.9	3
1055.6055	3262.3647	885.9	3.3
1055.7052	3263.2595	886.6	4.1
1055.8049	3264.1538	886.45	2.55
1055.9045	3265.0474	886.9	4.1
1056.0041	3265.9404	886.8	2.85
1056.1036	3266.8329	886.45	5.4
1056.2031	3267.7247	896.65	2.3
1056.3025	3268.616	883.95	3.2
1056.4019	3269.5066	887.7	3.85
1056.5013	3270.3966	886.65	2.55
1056.6005	3271.286	882.7	2
