Software Version:	3.9.2.0
Unit SN:	10000200
Spectrometer SN:	6960
Date:	3/14/2024 12:47:54 PM
Data Line Index:	25
Spectral Points:	2048
Integration time (ms):	125
Averages:	20
Delay (ms):	30000
Sequence Number:	1
Processing:	dark subtract
Laser Power (mW):	300
Laser Current (mA):	823
Laser Diode Temp (C):	25.1
Laser Case Temp (C):	27.5
System Temp (C):	27.5
Spectrometer Temp (C):	25.2
CCD Temp (C):	0.008
Secondary Temp (C):	20.01
Heatsink Temp (C):	23.392
CCDPCB Temp (C):	36.696
SecondaryPCB Temp (C):	34.64

Wavelength	RamanShift	Raw Counts	Dark Subtracted
787.061	30.1047	416.55	5.3
787.2016	32.3739	413.75	1.35
787.3422	34.6426	416.85	2.8
787.4828	36.9109	418.7	2.85
787.6235	39.1787	423.05	4.05
787.7642	41.4461	427.75	5.25
787.9049	43.7131	431.9	6.95
788.0456	45.9796	437	8.3
788.1863	48.2456	444	12.05
788.3271	50.5112	447.65	9.15
788.4679	52.7764	450.55	10.4
788.6087	55.0411	455.05	11.2
788.7496	57.3054	458.05	10.35
788.8904	59.5692	461.2	12.45
789.0313	61.8326	466.9	13.35
789.1722	64.0955	471.75	13.9
789.3132	66.3579	478.95	16.9
789.4541	68.6199	484.2	20
789.5951	70.8815	490.25	21.75
789.7361	73.1426	507.65	35.3
789.8771	75.4032	535.8	59.5
790.0181	77.6634	597	116.25
790.1592	79.9231	729.7	246.2
790.3003	82.1824	1019.35	528.75
790.4414	84.4412	1514.05	1017.1
790.5825	86.6995	2152.6	1644.4
790.7237	88.9574	2792.6	2277.7
790.8648	91.2148	3238.55	2717.95
791.006	93.4717	3465.45	2940.15
791.1472	95.7282	3523.45	2996.85
791.2885	97.9842	3547	3016.7
791.4297	100.2398	3521.45	2988.4
791.571	102.4949	3492.9	2955.45
791.7123	104.7495	3472	2928.85
791.8536	107.0036	3461.15	2917.8
791.9949	109.2573	3396.25	2853.4
792.1363	111.5105	3347.85	2805.65
792.2777	113.7632	3295.9	2750.55
792.4191	116.0154	3243.8	2687.35
792.5605	118.2672	3192.6	2643.1
792.7019	120.5185	3133.55	2581.55
792.8434	122.7693	3075.15	2521.3
792.9849	125.0197	3030.65	2474.05
793.1264	127.2696	2982.5	2425.75
793.2679	129.519	2963.05	2400.7
793.4094	131.7679	2950.85	2386.55
793.551	134.0163	2933.75	2363.45
793.6926	136.2642	2925.6	2352.85
793.8342	138.5117	2928.1	2351.6
793.9758	140.7587	2898.9	2322.9
794.1175	143.0052	2890.25	2310.15
794.2591	145.2512	2857.7	2278.05
794.4008	147.4967	2821.6	2242.95
794.5425	149.7417	2794.45	2210.7
794.6842	151.9863	2767.95	2182.7
794.826	154.2304	2766.15	2177.55
794.9677	156.4739	2761.95	2165.1
795.1095	158.717	2768.2	2173.65
795.2513	160.9596	2780.45	2178.9
795.3931	163.2017	2798.2	2195.9
795.535	165.4433	2803.45	2197.75
795.6768	167.6844	2794.7	2187.85
795.8187	169.925	2777.25	2167.8
795.9606	172.1651	2744.45	2129.5
796.1025	174.4047	2715.2	2096.8
796.2445	176.6439	2684.75	2064.2
796.3864	178.8825	2665.6	2046.05
796.5284	181.1206	2670.9	2047.4
796.6704	183.3582	2644.5	2016.2
796.8124	185.5954	2647.35	2018.7
796.9544	187.832	2635.55	2000.95
797.0965	190.0681	2644.45	2009.7
797.2386	192.3037	2654.7	2016.1
797.3806	194.5388	2649.3	2007.2
797.5228	196.7734	2662.45	2019
797.6649	199.0075	2674	2027.15
797.807	201.2411	2684.75	2033.15
797.9492	203.4742	2677.95	2025.8
798.0914	205.7068	2702.1	2049.9
798.2336	207.9389	2714.5	2062.75
798.3758	210.1704	2714.6	2060.55
798.518	212.4015	2723.95	2065.25
798.6603	214.632	2730.65	2073.1
798.8025	216.862	2734.65	2084.1
798.9448	219.0915	2725.15	2081.65
799.0871	221.3205	2719.2	2076.3
799.2294	223.549	2705.95	2069.05
799.3718	225.777	2706.8	2069.95
799.5141	228.0044	2703	2061.4
799.6565	230.2314	2700.2	2061.35
799.7989	232.4578	2685.65	2044.85
799.9413	234.6837	2674.1	2024.85
800.0837	236.909	2662.15	2013
800.2262	239.1339	2674.9	2001.15
800.3687	241.3582	2662.15	2002.5
800.5111	243.582	2675.25	1991.2
800.6536	245.8053	2681.6	2003.4
800.7961	248.0281	2665.85	1992.2
800.9387	250.2503	2664.8	1987.1
801.0812	252.472	2674.35	1992.05
801.2238	254.6932	2684.05	1998.2
801.3664	256.9139	2684.6	1997.45
801.509	259.134	2683.35	1992.1
801.6516	261.3536	2690.75	2002.45
801.7942	263.5727	2719.95	2029.75
801.9369	265.7912	2736.95	2048.6
802.0795	268.0092	2766.75	2076.25
802.2222	270.2267	2796.9	2105.5
802.3649	272.4436	2816.95	2122.85
802.5076	274.6601	2840.1	2136.9
802.6504	276.8759	2843.95	2148.7
802.7931	279.0913	2860.05	2165.2
802.9359	281.3061	2872.65	2172.85
803.0787	283.5204	2878.55	2176.85
803.2215	285.7341	2890.85	2185.2
803.3643	287.9473	2892.75	2185.55
803.5071	290.16	2898.35	2185.7
803.6499	292.3721	2861.15	2154.15
803.7928	294.5837	2849.05	2139
803.9357	296.7947	2819.45	2109.4
804.0786	299.0052	2801.45	2093.7
804.2215	301.2152	2794.7	2082.8
804.3644	303.4246	2784	2073.1
804.5074	305.6334	2769.55	2060.5
804.6503	307.8418	2761.35	2048.7
804.7933	310.0495	2740.9	2025.5
804.9363	312.2568	2720.1	2008.7
805.0793	314.4635	2683.05	1970.75
805.2223	316.6696	2653.85	1937.85
805.3653	318.8752	2622.95	1899.15
805.5084	321.0802	2612.3	1896.4
805.6514	323.2847	2596.95	1876.4
805.7945	325.4887	2588.85	1868.55
805.9376	327.692	2598.05	1879.8
806.0807	329.8949	2626.55	1903.6
806.2238	332.0972	2644.9	1922.35
806.367	334.2989	2670.15	1941.15
806.5101	336.5001	2659.95	1931.6
806.6533	338.7007	2643.55	1914.7
806.7965	340.9008	2621.8	1893
806.9397	343.1003	2574.25	1843.3
807.0829	345.2992	2543.55	1809.05
807.2261	347.4976	2507.55	1771.15
807.3693	349.6955	2504.25	1766.75
807.5126	351.8927	2485.7	1746.3
807.6559	354.0895	2485.1	1734.7
807.7991	356.2856	2474.05	1732.75
807.9424	358.4812	2452.3	1713.15
808.0857	360.6763	2443	1701.3
808.2291	362.8707	2446.4	1702.4
808.3724	365.0646	2441	1696.9
808.5158	367.258	2457.35	1710.3
808.6591	369.4508	2456.7	1707.05
808.8025	371.643	2471.65	1722.4
808.9459	373.8346	2471.9	1717.95
809.0893	376.0257	2514.75	1757.8
809.2327	378.2162	2523.95	1766.2
809.3762	380.4062	2531.45	1772.9
809.5196	382.5956	2500.55	1740.1
809.6631	384.7844	2473.45	1715.7
809.8066	386.9726	2451.45	1689.8
809.9501	389.1603	2417.25	1655.5
810.0936	391.3474	2445.3	1652.15
810.2371	393.5339	2415.2	1652.65
810.3806	395.7199	2399.9	1641
810.5241	397.9052	2415.15	1660
810.6677	400.09	2420.2	1667.3
810.8113	402.2743	2457.35	1704.1
810.9548	404.4579	2482.9	1730.4
811.0984	406.641	2500.75	1744.95
811.2421	408.8235	2532.65	1776.1
811.3857	411.0054	2553.45	1795.7
811.5293	413.1868	2627.75	1868.4
811.673	415.3675	2706.6	1945.05
811.8166	417.5477	2712.25	1949.7
811.9603	419.7273	2628.85	1865.2
812.104	421.9064	2557.75	1786.8
812.2477	424.0848	2505.1	1736.65
812.3914	426.2627	2449.85	1679.25
812.5351	428.4399	2407.2	1635.85
812.6788	430.6166	2385.05	1608.7
812.8226	432.7928	2356.9	1580.85
812.9663	434.9683	2325.9	1549.25
813.1101	437.1432	2310.6	1530.75
813.2539	439.3176	2282.3	1502.15
813.3977	441.4914	2275.4	1495.45
813.5415	443.6645	2276.3	1491.85
813.6853	445.8371	2270.5	1487.65
813.8291	448.0091	2267.95	1486.7
813.973	450.1806	2270	1487.15
814.1168	452.3514	2266	1479.15
814.2607	454.5216	2251.95	1457.5
814.4046	456.6913	2248.85	1459.75
814.5485	458.8603	2250.3	1464.35
814.6924	461.0288	2251.1	1464.4
814.8363	463.1967	2242.65	1454.3
814.9802	465.3639	2245.05	1455.15
815.1241	467.5306	2242.15	1452.75
815.2681	469.6967	2223.3	1435.85
815.412	471.8622	2221.8	1431.7
815.556	474.0271	2211.45	1423.15
815.7	476.1914	2205.4	1411.45
815.844	478.3551	2211	1418.6
815.988	480.5182	2211.5	1417.95
816.132	482.6807	2204.9	1410.25
816.276	484.8426	2219.6	1425.7
816.4201	487.0039	2250.8	1454.8
816.5641	489.1647	2284.6	1486.55
816.7082	491.3248	2312.9	1517.4
816.8522	493.4843	2305.65	1510.75
816.9963	495.6432	2294.7	1498.75
817.1404	497.8015	2278.05	1478.6
817.2845	499.9592	2246.8	1449.25
817.4286	502.1163	2212.65	1415.05
817.5727	504.2728	2199.25	1399.3
817.7168	506.4287	2176.3	1375.55
817.861	508.5839	2163.1	1360.15
818.0051	510.7386	2151.55	1351
818.1493	512.8927	2171.7	1364.45
818.2935	515.0461	2175.85	1374.1
818.4377	517.199	2172.4	1371.35
818.5818	519.3512	2193.3	1389.25
818.726	521.5029	2237.7	1429.4
818.8703	523.6539	2259.65	1455.35
819.0145	525.8043	2262.9	1458.9
819.1587	527.9541	2247.8	1440.35
819.303	530.1033	2196.3	1388.05
819.4472	532.2519	2155.15	1349.65
819.5915	534.3999	2153.75	1345.95
819.7357	536.5472	2148.6	1342.45
819.88	538.694	2143.8	1337.25
820.0243	540.8401	2148.1	1339.3
820.1686	542.9856	2168.8	1359.35
820.3129	545.1305	2177.45	1368.65
820.4572	547.2748	2175.75	1365.55
820.6016	549.4185	2178.15	1365.55
820.7459	551.5615	2171.9	1361.15
820.8902	553.704	2179.8	1368.5
821.0346	555.8458	2184	1373.05
821.1789	557.987	2205.7	1393.95
821.3233	560.1276	2223.95	1413.35
821.4677	562.2675	2252.55	1440.7
821.6121	564.4069	2289.95	1477.8
821.7565	566.5456	2322.1	1508.95
821.9009	568.6837	2309.25	1492.9
822.0453	570.8212	2254.7	1439.55
822.1897	572.958	2215.55	1399.2
822.3342	575.0942	2186.25	1371.35
822.4786	577.2299	2168.95	1351.55
822.6231	579.3648	2143.6	1326.15
822.7675	581.4992	2124.45	1308.2
822.912	583.6329	2134.75	1316.85
823.0565	585.766	2129.75	1312.35
823.201	587.8985	2163.05	1347.6
823.3454	590.0304	2198.35	1368.55
823.4899	592.1616	2210.95	1390.1
823.6345	594.2922	2193.55	1374.85
823.779	596.4222	2173.35	1353.1
823.9235	598.5515	2147.7	1327.2
824.068	600.6802	2114.55	1294.5
824.2126	602.8083	2085	1263.95
824.3571	604.9358	2077.1	1252.95
824.5017	607.0626	2071.25	1245.75
824.6462	609.1888	2075.35	1252.7
824.7908	611.3144	2079	1254.4
824.9354	613.4393	2099.5	1279
825.08	615.5636	2134.5	1311.85
825.2246	617.6873	2154.25	1330.45
825.3692	619.8103	2181.4	1354.8
825.5138	621.9327	2171.2	1343.75
825.6584	624.0544	2157.2	1333.5
825.803	626.1756	2122.9	1299.65
825.9477	628.2961	2098.75	1272.65
826.0923	630.4159	2080.65	1254.15
826.237	632.5351	2069.45	1242.65
826.3816	634.6537	2066.8	1240.15
826.5263	636.7716	2057.45	1229.3
826.6709	638.8889	2054.15	1224.55
826.8156	641.0056	2064.3	1233.4
826.9603	643.1216	2060.5	1229.35
827.105	645.237	2063.15	1233
827.2497	647.3518	2054.75	1223.7
827.3944	649.4659	2035.7	1205.45
827.5391	651.5793	2027.75	1196.55
827.6838	653.6922	2013.25	1182.05
827.8285	655.8043	2011	1179.4
827.9733	657.9159	2005.1	1172.6
828.118	660.0268	1994.55	1157.9
828.2627	662.137	1984.7	1150.2
828.4075	664.2466	1985.5	1150.75
828.5522	666.3556	1988.45	1154.3
828.697	668.4639	1989.4	1151.95
828.8418	670.5716	1977.4	1143.15
828.9865	672.6786	1982.9	1148.6
829.1313	674.785	1974.05	1136.1
829.2761	676.8907	1964.85	1129.7
829.4209	678.9958	1961.95	1125.5
829.5657	681.1002	1962.6	1125
829.7105	683.204	1956.05	1117
829.8553	685.3072	1961.15	1123.05
830.0001	687.4097	1962.45	1124.1
830.1449	689.5115	1965.35	1127.95
830.2898	691.6127	1957.7	1120.2
830.4346	693.7132	1957.25	1118.6
830.5794	695.8131	1961.75	1114.35
830.7243	697.9123	1958.75	1119.25
830.8691	700.0109	1956.25	1116.3
831.014	702.1089	1968.85	1130.8
831.1588	704.2061	1968.6	1127.7
831.3037	706.3028	1985.9	1141.9
831.4486	708.3987	1994.85	1153.6
831.5935	710.4941	1997.95	1155.85
831.7383	712.5887	2009.75	1166.95
831.8832	714.6827	2003	1154.9
832.0281	716.7761	2002.95	1162.05
832.173	718.8688	1993.2	1149.25
832.3179	720.9608	1994.95	1148.6
832.4628	723.0522	2007.85	1161.15
832.6077	725.1429	2009.85	1165.9
832.7527	727.233	2038.7	1195.75
832.8976	729.3224	2075.85	1232.2
833.0425	731.4112	2097.95	1252.15
833.1874	733.4993	2114.95	1269.6
833.3324	735.5867	2084.25	1236.2
833.4773	737.6735	2040.9	1194.1
833.6222	739.7596	2002.05	1154.7
833.7672	741.845	2001.3	1154.7
833.9122	743.9298	2005	1156.2
834.0571	746.014	2018.65	1172.05
834.2021	748.0974	2029.9	1178.85
834.347	750.1802	2021.75	1171.8
834.492	752.2624	2012.35	1164.25
834.637	754.3439	2003.95	1155.1
834.782	756.4247	1994.25	1135.05
834.9269	758.5048	1982.45	1135.45
835.0719	760.5843	1980.45	1130.9
835.2169	762.6631	1993.6	1145.35
835.3619	764.7413	2013.95	1165.4
835.5069	766.8188	2067.35	1216
835.6519	768.8956	2124.75	1273.15
835.7969	770.9718	2145.05	1296.55
835.9419	773.0473	2131.85	1282.75
836.0869	775.1221	2115.45	1266.35
836.232	777.1962	2111.4	1261.85
836.377	779.2697	2138.75	1288.1
836.522	781.3426	2206.15	1342.75
836.667	783.4147	2235	1382.7
836.8121	785.4862	2224.3	1375.55
836.9571	787.557	2179.1	1328.35
837.1021	789.6271	2091.2	1239.4
837.2472	791.6966	2027.15	1175.8
837.3922	793.7654	1958.95	1106.05
837.5373	795.8335	1933.35	1081.2
837.6823	797.901	1922.4	1070
837.8274	799.9678	1907.7	1053.25
837.9724	802.0339	1898.65	1047.55
838.1175	804.0993	1922.5	1058.95
838.2626	806.1641	1900.6	1045.55
838.4076	808.2282	1880.95	1030.15
838.5527	810.2916	1884.6	1027
838.6978	812.3544	1883.4	1033
838.8428	814.4164	1859.4	1006.75
838.9879	816.4778	1863.7	1008.9
839.133	818.5385	1882.15	1028.65
839.2781	820.5986	1892.75	1036.6
839.4232	822.658	1928.15	1073.45
839.5682	824.7166	1959.2	1102.5
839.7133	826.7747	2014.9	1162.4
839.8584	828.832	2053.9	1199.4
840.0035	830.8886	2089.7	1232.75
840.1486	832.9446	2101.75	1245.9
840.2937	834.9999	2086.25	1231.9
840.4388	837.0545	2030.8	1171.35
840.5839	839.1085	1978	1122.15
840.729	841.1618	1939.1	1078.75
840.8741	843.2143	1907.45	1051.3
841.0192	845.2662	1880.9	1024.95
841.1643	847.3175	1874.25	1020.55
841.3095	849.368	1867.25	1011.65
841.4546	851.4179	1861.55	1003.3
841.5997	853.467	1858.95	1001.7
841.7448	855.5155	1869.1	1010.1
841.8899	857.5633	1872.6	1014.7
842.0351	859.6105	1864.3	1009.3
842.1802	861.6569	1854.15	996.95
842.3253	863.7027	1841.05	981.35
842.4704	865.7478	1853	993.95
842.6156	867.7922	1832.55	972.45
842.7607	869.8359	1819.7	959.65
842.9058	871.8789	1827.95	965.95
843.0509	873.9212	1853.65	958.3
843.1961	875.9629	1823.7	966.1
843.3412	878.0039	1822.5	961.95
843.4863	880.0441	1844.25	985.45
843.6315	882.0837	1854.95	994.05
843.7766	884.1226	1854.85	992.95
843.9218	886.1609	1881.8	1021.8
844.0669	888.1984	1909.35	1049.75
844.212	890.2352	1938.85	1079.9
844.3572	892.2714	1934.7	1070.3
844.5023	894.3069	1926.05	1063.85
844.6475	896.3416	1885.65	1025.65
844.7926	898.3757	1862.75	1001.55
844.9377	900.4091	1852.55	992.75
845.0829	902.4418	1847.2	980.75
845.228	904.4739	1860.45	996.8
845.3732	906.5052	1867.7	1004.85
845.5183	908.5358	1863.45	1001.4
845.6635	910.5658	1849.75	985.9
845.8086	912.595	1827.9	965.75
845.9538	914.6236	1810.55	950.4
846.0989	916.6515	1790.2	926.8
846.2441	918.6786	1773.3	908.45
846.3892	920.7051	1771.95	909.25
846.5344	922.7309	1764.55	901.65
846.6795	924.756	1766.55	902.3
846.8246	926.7804	1778.2	911.8
846.9698	928.8041	1779.1	914.45
847.1149	930.8272	1786	923.15
847.2601	932.8495	1784.5	919.05
847.4052	934.8711	1799.3	932.95
847.5504	936.892	1794.8	928.5
847.6955	938.9123	1800.1	934.95
847.8407	940.9318	1816.65	951.4
847.9858	942.9506	1823.35	957.4
848.131	944.9688	1822.75	957.65
848.2761	946.9862	1795.9	930.25
848.4213	949.003	1776.3	911.4
848.5664	951.019	1763	898
848.7115	953.0344	1748.95	881.95
848.8567	955.0491	1742.75	875.1
849.0018	957.063	1740.8	873.25
849.147	959.0763	1736.65	872
849.2921	961.0888	1733.65	866.65
849.4373	963.1007	1729.65	864.15
849.5824	965.1119	1726.85	859.4
849.7275	967.1223	1729.1	861.35
849.8727	969.1321	1716.2	850.2
850.0178	971.1412	1716.7	848.95
850.1629	973.1495	1715.05	848.6
850.3081	975.1572	1741.45	833.3
850.4532	977.1641	1709.5	842.95
850.5983	979.1704	1706.75	840.2
850.7435	981.1759	1710.05	839.55
850.8886	983.1808	1699.15	828.25
851.0337	985.1849	1701.5	824.25
851.1788	987.1884	1697.8	828.05
851.324	989.1911	1707	836.3
851.4691	991.1932	1695.7	824.5
851.6142	993.1945	1698.4	832.35
851.7593	995.1951	1693.9	824.15
851.9045	997.1951	1700.45	827
852.0496	999.1943	1685.65	816.5
852.1947	1001.1928	1690.45	821.1
852.3398	1003.1906	1693.55	824.2
852.4849	1005.1877	1702.8	833.25
852.63	1007.1841	1721.3	851.9
852.7751	1009.1798	1726.25	857.35
852.9202	1011.1748	1716.75	847.7
853.0653	1013.1691	1693.75	824.85
853.2104	1015.1627	1672.5	801.85
853.3555	1017.1556	1653.85	783.15
853.5006	1019.1477	1648.95	778.2
853.6457	1021.1392	1621.75	754.15
853.7908	1023.1299	1626.45	756.85
853.9359	1025.12	1625.15	754.4
854.081	1027.1093	1633.5	765.75
854.2261	1029.0979	1636.95	767.3
854.3712	1031.0859	1645.2	773.65
854.5163	1033.0731	1653.8	784.3
854.6613	1035.0596	1644.4	775.05
854.8064	1037.0454	1640	769.5
854.9515	1039.0304	1634.95	764.2
855.0965	1041.0148	1626.65	756.3
855.2416	1042.9985	1610.9	738.1
855.3867	1044.9814	1596.6	725.3
855.5317	1046.9636	1600.75	725.85
855.6768	1048.9452	1599.85	730.35
855.8219	1050.926	1607.15	738.2
855.9669	1052.9061	1615.45	745.95
856.112	1054.8855	1625.05	754.05
856.257	1056.8642	1618.4	748
856.4021	1058.8421	1618.05	742.3
856.5471	1060.8194	1603.65	730.9
856.6921	1062.7959	1604.35	732.35
856.8372	1064.7717	1600.35	728.05
856.9822	1066.7469	1610.8	738.25
857.1272	1068.7213	1607.9	732.4
857.2723	1070.695	1613.25	741.75
857.4173	1072.6679	1615.95	743.9
857.5623	1074.6402	1635.75	762.5
857.7073	1076.6117	1640.05	760.95
857.8523	1078.5826	1629.75	755.6
857.9973	1080.5527	1603	728.3
858.1423	1082.5221	1581.1	708.85
858.2873	1084.4908	1561.2	687
858.4323	1086.4587	1557.45	683.5
858.5773	1088.426	1558.05	684.8
858.7223	1090.3925	1547.2	669.3
858.8673	1092.3584	1550.75	677.6
859.0123	1094.3235	1547.05	675.45
859.1573	1096.2879	1555.8	680.1
859.3022	1098.2515	1568.7	695.7
859.4472	1100.2145	1578.9	704.45
859.5922	1102.1767	1600.6	723.75
859.7371	1104.1382	1616.05	741.5
859.8821	1106.099	1649.8	774.1
860.027	1108.0591	1676.15	802.4
860.172	1110.0185	1694.3	818.85
860.3169	1111.9771	1715.75	843.35
860.4619	1113.9351	1753.4	879.35
860.6068	1115.8923	1772.25	898.15
860.7517	1117.8488	1788.7	911.25
860.8967	1119.8045	1764.9	890.6
861.0416	1121.7596	1707.3	832.15
861.1865	1123.7139	1648.55	773.85
861.3314	1125.6675	1611.05	736.8
861.4763	1127.6204	1609.85	735.1
861.6212	1129.5726	1629.8	751.9
861.7661	1131.524	1625.25	751.75
861.911	1133.4748	1600.9	726.75
862.0559	1135.4248	1569.25	691.85
862.2008	1137.3741	1534.7	660.2
862.3457	1139.3226	1514.75	637.7
862.4905	1141.2705	1517.75	641.2
862.6354	1143.2176	1527.55	647.25
862.7803	1145.164	1536.5	659.2
862.9251	1147.1097	1527.5	651.3
863.07	1149.0546	1516.55	639.3
863.2148	1150.9989	1495.45	617
863.3597	1152.9424	1492.35	613.85
863.5045	1154.8852	1474.45	598.05
863.6493	1156.8272	1475.5	599.8
863.7942	1158.7686	1475.75	593.5
863.939	1160.7092	1471.9	595.6
864.0838	1162.6491	1476.65	598.3
864.2286	1164.5883	1479.7	604.5
864.3734	1166.5267	1486.7	610.1
864.5182	1168.4644	1497.85	620.65
864.663	1170.4014	1516.45	634.8
864.8078	1172.3377	1521.7	646.55
864.9526	1174.2732	1559.45	682.85
865.0974	1176.2081	1609.1	731.15
865.2421	1178.1421	1672.2	792.8
865.3869	1180.0755	1739.85	866.75
865.5317	1182.0082	1773.2	895.7
865.6764	1183.9401	1759.55	881.85
865.8212	1185.8713	1695.05	819.85
865.9659	1187.8017	1627.1	750.3
866.1106	1189.7315	1573.95	697.45
866.2554	1191.6605	1558.3	651.75
866.4001	1193.5888	1498.7	622.5
866.5448	1195.5163	1494.65	615.8
866.6895	1197.4432	1477.2	597.9
866.8342	1199.3693	1458.35	580.2
866.9789	1201.2947	1459.15	574.15
867.1236	1203.2193	1449.05	571.8
867.2683	1205.1432	1441.05	562.7
867.413	1207.0664	1441.05	562.55
867.5576	1208.9889	1442.3	561.9
867.7023	1210.9106	1439.95	564.6
867.847	1212.8316	1443.85	567.5
867.9916	1214.7519	1460.7	574.85
868.1363	1216.6715	1452.95	577.55
868.2809	1218.5903	1455.75	576.35
868.4255	1220.5084	1465.95	587.55
868.5701	1222.4257	1468.7	588.45
868.7148	1224.3424	1466.15	590.2
868.8594	1226.2583	1486.5	601
869.004	1228.1735	1498.2	617.45
869.1486	1230.0879	1524.55	645.85
869.2932	1232.0016	1537.2	658.65
869.4377	1233.9146	1554.55	674.7
869.5823	1235.8269	1555.35	677.05
869.7269	1237.7384	1563.55	686.6
869.8715	1239.6492	1561.9	685
870.016	1241.5592	1568.4	689.4
870.1606	1243.4686	1592.35	714.45
870.3051	1245.3772	1625.2	747.5
870.4496	1247.285	1678.45	798.65
870.5941	1249.1922	1706.2	827.7
870.7387	1251.0986	1764.5	885.05
870.8832	1253.0042	1786.6	908.8
871.0277	1254.9092	1833.2	953.5
871.1722	1256.8134	1886.75	1009.3
871.3167	1258.7169	1928.7	1048.65
871.4611	1260.6196	1948.35	1069.45
871.6056	1262.5216	1961.7	1081.4
871.7501	1264.4229	1938.5	1060.5
871.8945	1266.3234	1919.45	1040.5
872.039	1268.2232	1908.2	1027.95
872.1834	1270.1223	1855.2	975.15
872.3278	1272.0207	1850	969.85
872.4723	1273.9183	1832.45	945.75
872.6167	1275.8151	1834	955.85
872.7611	1277.7113	1856.4	975.3
872.9055	1279.6067	1908.55	1028
873.0499	1281.5014	1992.95	1113.5
873.1943	1283.3953	2079.4	1196.55
873.3386	1285.2885	2163.2	1283.2
873.483	1287.181	2261.6	1383.05
873.6274	1289.0727	2274.85	1396.2
873.7717	1290.9637	2248.4	1371.05
873.9161	1292.854	2196.1	1316.8
874.0604	1294.7435	2128.7	1249.6
874.2047	1296.6323	2067.2	1186.9
874.349	1298.5204	2018.8	1136.45
874.4933	1300.4077	1976.6	1095.9
874.6376	1302.2943	1946.75	1067.4
874.7819	1304.1802	1921.95	1041.9
874.9262	1306.0653	1915.55	1034.35
875.0705	1307.9497	1892	1009.75
875.2147	1309.8333	1877.3	998.7
875.359	1311.7162	1852.8	973
875.5032	1313.5984	1843	959.5
875.6475	1315.4798	1848.25	952.35
875.7917	1317.3605	1847.7	951.5
875.9359	1319.2405	1833.9	953.5
876.0801	1321.1197	1820.55	941.3
876.2243	1322.9982	1791.15	905.2
876.3685	1324.876	1751.7	870.45
876.5127	1326.753	1704.7	823.85
876.6569	1328.6293	1660.95	779.45
876.801	1330.5048	1612.75	730.25
876.9452	1332.3796	1568.85	688.05
877.0893	1334.2537	1566.15	661.25
877.2335	1336.127	1519.85	639.05
877.3776	1337.9996	1500.85	618.05
877.5217	1339.8714	1486.8	608
877.6658	1341.7426	1522.45	596.5
877.8099	1343.6129	1472.6	592.75
877.954	1345.4826	1465.8	585.5
878.0981	1347.3515	1459.7	577.9
878.2422	1349.2196	1450.3	568.7
878.3862	1351.087	1445.95	564.8
878.5303	1352.9537	1448.45	567.65
878.6743	1354.8197	1446.85	566.75
878.8184	1356.6849	1449	566.55
878.9624	1358.5493	1457	576.2
879.1064	1360.4131	1468.55	586.4
879.2504	1362.276	1484.9	603.9
879.3944	1364.1383	1503.8	623.5
879.5384	1365.9998	1516.15	628.3
879.6823	1367.8606	1505.15	623.8
879.8263	1369.7206	1495.65	611.4
879.9702	1371.5799	1499.75	616.4
880.1142	1373.4384	1494.9	615.1
880.2581	1375.2962	1479.25	594.75
880.402	1377.1533	1450.65	570.1
880.5459	1379.0096	1428.8	546.75
880.6898	1380.8652	1406.2	523.15
880.8337	1382.7201	1392.85	510.2
880.9776	1384.5742	1374.45	492.7
881.1215	1386.4275	1370.3	488
881.2653	1388.2802	1362.3	483.25
881.4092	1390.132	1351.35	471
881.553	1391.9832	1343.25	462
881.6968	1393.8336	1330	444.55
881.8406	1395.6832	1333.6	450.7
881.9844	1397.5322	1324.1	444.9
882.1282	1399.3803	1328.5	440.1
882.272	1401.2278	1316.1	433.85
882.4158	1403.0745	1314.15	431
882.5595	1404.9204	1309.4	429.8
882.7033	1406.7656	1307.3	425.05
882.847	1408.6101	1305.45	423.15
882.9908	1410.4538	1296.3	414
883.1345	1412.2968	1299.7	417.5
883.2782	1414.139	1302	420.3
883.4219	1415.9805	1310.1	428.3
883.5656	1417.8213	1318.1	427.2
883.7092	1419.6613	1322.25	441.4
883.8529	1421.5006	1330.7	448.8
883.9965	1423.3391	1346.6	465.2
884.1402	1425.1769	1371.1	486.45
884.2838	1427.0139	1416.25	533.35
884.4274	1428.8502	1456.25	573.8
884.571	1430.6858	1488.85	606.5
884.7146	1432.5206	1512.85	628.7
884.8582	1434.3547	1499.75	617.9
885.0018	1436.188	1493.75	611.8
885.1453	1438.0206	1480.1	597.55
885.2889	1439.8524	1468.6	585.5
885.4324	1441.6835	1468.45	585.5
885.5759	1443.5139	1478.55	593.05
885.7194	1445.3435	1475.4	593.05
885.8629	1447.1724	1476.95	594.2
886.0064	1449.0005	1472.2	588.1
886.1499	1450.8279	1463.45	580.05
886.2933	1452.6545	1462	581.1
886.4368	1454.4804	1463.4	580.4
886.5802	1456.3056	1468.55	579.2
886.7237	1458.13	1453.55	569.85
886.8671	1459.9536	1438.2	555.75
887.0105	1461.7766	1419.05	536.25
887.1539	1463.5987	1394.6	508.75
887.2972	1465.4202	1375.95	493.8
887.4406	1467.2409	1359.55	477.85
887.584	1469.0608	1339.1	456.1
887.7273	1470.88	1327.05	443.5
887.8706	1472.6984	1307.25	424.95
888.0139	1474.5161	1296.65	412
888.1572	1476.3331	1286.6	404.9
888.3005	1478.1493	1288.8	404.6
888.4438	1479.9648	1277.2	396.15
888.5871	1481.7795	1281.15	398.4
888.7303	1483.5935	1280	398.35
888.8736	1485.4067	1279.8	394.55
889.0168	1487.2192	1277.3	395.35
889.16	1489.031	1281.7	394.65
889.3032	1490.842	1273.1	391.4
889.4464	1492.6522	1272.25	388.85
889.5896	1494.4618	1271.7	390.5
889.7327	1496.2705	1270.65	387.25
889.8759	1498.0785	1268.7	386.9
890.019	1499.8858	1271.95	387.8
890.1622	1501.6924	1251.35	369.5
890.3053	1503.4981	1256.95	374.6
890.4484	1505.3032	1249.15	364.65
890.5914	1507.1075	1254.85	371.6
890.7345	1508.911	1246.4	362.15
890.8776	1510.7138	1244.8	361.9
891.0206	1512.5159	1239.95	355.65
891.1637	1514.3172	1236.6	352.35
891.3067	1516.1178	1231.65	349.95
891.4497	1517.9176	1232.05	347.05
891.5927	1519.7166	1222.45	339.5
891.7357	1521.515	1229.2	338.65
891.8786	1523.3126	1213.15	328.8
892.0216	1525.1094	1218.2	334.65
892.1645	1526.9055	1219.9	337.45
892.3074	1528.7008	1207.35	324.3
892.4503	1530.4954	1208.85	323.85
892.5932	1532.2893	1201.85	320.2
892.7361	1534.0824	1206.8	318.05
892.879	1535.8747	1206.4	324
893.0218	1537.6663	1200.1	313.7
893.1647	1539.4572	1200.15	316.05
893.3075	1541.2473	1201.9	315.9
893.4503	1543.0367	1197.45	313.65
893.5931	1544.8253	1201.8	312.75
893.7359	1546.6132	1201.7	314.05
893.8787	1548.4003	1212.85	321.55
894.0214	1550.1867	1212.15	321.1
894.1642	1551.9723	1212.65	325.45
894.3069	1553.7572	1216	330.8
894.4496	1555.5414	1222.45	337.75
894.5923	1557.3247	1236.5	353.55
894.735	1559.1074	1245.8	362.9
894.8777	1560.8893	1267.7	384.95
895.0204	1562.6705	1286.3	402.95
895.163	1564.4509	1297.9	414.25
895.3056	1566.2305	1300.45	416.25
895.4482	1568.0094	1306.5	424.6
895.5908	1569.7876	1304.4	419.95
895.7334	1571.565	1299.5	412.15
895.876	1573.3417	1292.85	409.3
896.0186	1575.1176	1303.05	419.15
896.1611	1576.8928	1302.65	416.9
896.3036	1578.6672	1312.55	427.9
896.4461	1580.4409	1330.15	447.25
896.5886	1582.2138	1344.35	458.6
896.7311	1583.986	1359.95	477.65
896.8736	1585.7575	1378.1	493.8
897.0161	1587.5282	1390.55	507.05
897.1585	1589.2981	1402.25	520.15
897.3009	1591.0673	1411.95	525.3
897.4433	1592.8358	1408.75	525.15
897.5857	1594.6035	1412.05	525.85
897.7281	1596.3704	1410.15	526.15
897.8705	1598.1366	1390.55	507.6
898.0128	1599.9021	1384.75	498.2
898.1551	1601.6668	1363.65	478.45
898.2975	1603.4308	1357.75	472.95
898.4398	1605.194	1372.3	482.25
898.5821	1606.9564	1369.25	484.8
898.7243	1608.7182	1399.5	510.35
898.8666	1610.4791	1433.7	548.25
899.0088	1612.2394	1485.55	600.75
899.1511	1613.9988	1529.35	644.5
899.2933	1615.7576	1564.3	679.85
899.4355	1617.5156	1580.25	690.45
899.5776	1619.2728	1557.1	673.45
899.7198	1621.0293	1522.4	638.8
899.862	1622.785	1468.65	580
900.0041	1624.54	1408.8	521.45
900.1462	1626.2942	1350.4	465
900.2883	1628.0477	1311.55	423.95
900.4304	1629.8005	1273.9	385.1
900.5725	1631.5525	1243.25	356.55
900.7145	1633.3037	1215.8	331.15
900.8566	1635.0542	1205.35	320.35
900.9986	1636.804	1184.35	301.05
901.1406	1638.553	1234.35	285.65
901.2826	1640.3013	1161.5	277.8
901.4245	1642.0488	1149.2	262.45
901.5665	1643.7955	1147.15	264.65
901.7085	1645.5416	1138.7	254.3
901.8504	1647.2868	1134.9	250.75
901.9923	1649.0313	1129.65	244.8
902.1342	1650.7751	1134.2	247.8
902.2761	1652.5181	1121.55	236.85
902.4179	1654.2604	1124.7	240.5
902.5598	1656.0019	1126.85	242.3
902.7016	1657.7427	1128.5	242.5
902.8434	1659.4828	1138.75	255.45
902.9852	1661.222	1154.95	269.35
903.127	1662.9606	1164.05	282.25
903.2687	1664.6984	1180.1	293.5
903.4105	1666.4354	1184.75	299.8
903.5522	1668.1717	1169.25	283.85
903.6939	1669.9072	1158.9	274.2
903.8356	1671.642	1137.05	249.5
903.9773	1673.3761	1111.75	227.85
904.119	1675.1094	1102.9	218.7
904.2606	1676.8419	1095.45	210.7
904.4022	1678.5737	1082.9	199.05
904.5439	1680.3048	1078.75	194.9
904.6855	1682.0351	1075.35	192.1
904.827	1683.7646	1076.1	189.8
904.9686	1685.4934	1077.25	194.1
905.1101	1687.2215	1072.75	185.5
905.2517	1688.9488	1071.05	188.9
905.3932	1690.6754	1067.1	181.7
905.5347	1692.4012	1065.95	183.25
905.6761	1694.1263	1063.5	180.3
905.8176	1695.8506	1064.45	177.8
905.9591	1697.5742	1057.75	174.45
906.1005	1699.297	1061.35	175.95
906.2419	1701.0191	1058.2	175.4
906.3833	1702.7404	1057.4	174.3
906.5246	1704.461	1054	167.25
906.666	1706.1808	1056.2	171.8
906.8073	1707.8999	1053.25	167.9
906.9487	1709.6182	1055.95	172.1
907.09	1711.3358	1054.2	170.75
907.2313	1713.0527	1051.75	168.35
907.3725	1714.7688	1054.45	162.65
907.5138	1716.4841	1053.25	166.6
907.655	1718.1987	1051.45	160.75
907.7962	1719.9126	1048.4	164.4
907.9374	1721.6257	1049.35	163.2
908.0786	1723.338	1047.45	162.4
908.2198	1725.0496	1049.45	164.2
908.3609	1726.7605	1047.65	162.3
908.502	1728.4706	1048	162.7
908.6431	1730.18	1046.65	158.6
908.7842	1731.8886	1044.2	158.35
908.9253	1733.5964	1051.15	162.1
909.0664	1735.3036	1044.05	156.6
909.2074	1737.0099	1043.5	158.05
909.3484	1738.7156	1041.55	158.85
909.4894	1740.4204	1039.9	151.55
909.6304	1742.1246	1044.55	158.8
909.7714	1743.8279	1036.85	153.2
909.9123	1745.5306	1039.15	152.8
910.0532	1747.2325	1042.1	157.1
910.1941	1748.9336	1037.55	152.3
910.335	1750.634	1038.8	152.85
910.4759	1752.3336	1040.6	155.3
910.6168	1754.0325	1032.95	146.05
910.7576	1755.7307	1041.6	156.7
910.8984	1757.4281	1038.55	154.85
911.0392	1759.1247	1046.65	153.45
911.18	1760.8206	1038.45	150.25
911.3208	1762.5158	1044.1	157.05
911.4615	1764.2102	1036.55	152.55
911.6022	1765.9039	1038.45	152.3
911.7429	1767.5968	1035.6	151.6
911.8836	1769.289	1036.2	149.65
912.0243	1770.9804	1037.05	151.95
912.1649	1772.6711	1034.9	150.6
912.3056	1774.361	1038.15	154.35
912.4462	1776.0502	1033.5	150.1
912.5868	1777.7386	1034.8	146.55
912.7274	1779.4263	1033.1	148.15
912.8679	1781.1132	1032.1	145.65
913.0084	1782.7994	1031.5	145.55
913.149	1784.4849	1031.15	146.85
913.2895	1786.1696	1051.3	146.85
913.4299	1787.8535	1031.25	144.9
913.5704	1789.5367	1033.95	150.05
913.7108	1791.2192	1032.55	146.25
913.8513	1792.9009	1044.75	142.7
913.9917	1794.5818	1025.8	139.8
914.132	1796.2621	1028.65	143.8
914.2724	1797.9415	1024.9	140.55
914.4128	1799.6202	1026.65	140.65
914.5531	1801.2982	1023.95	140.75
914.6934	1802.9755	1032.1	145.2
914.8337	1804.6519	1028.2	140.75
914.9739	1806.3277	1023.6	138.85
915.1142	1808.0027	1027.15	141.3
915.2544	1809.6769	1025.9	142.1
915.3946	1811.3504	1023.8	137.3
915.5348	1813.0231	1027.85	142.2
915.675	1814.6951	1025.55	142.2
915.8151	1816.3664	1029.7	141.55
915.9553	1818.0369	1021.2	136.1
916.0954	1819.7067	1019.9	136.1
916.2355	1821.3757	1021.85	134.25
916.3755	1823.044	1020.55	135.3
916.5156	1824.7115	1023.4	136.25
916.6556	1826.3783	1019.6	135.15
916.7956	1828.0443	1022.75	137.95
916.9356	1829.7096	1022.6	136.25
917.0756	1831.3741	1020.35	132.7
917.2155	1833.0379	1018.9	133.1
917.3555	1834.701	1024.3	137.15
917.4954	1836.3633	1019.2	132.6
917.6353	1838.0248	1021.6	134.7
917.7751	1839.6856	1017.65	133.45
917.915	1841.3457	1018.6	135.15
918.0548	1843.005	1016.4	130.95
918.1946	1844.6636	1015.35	131.8
918.3344	1846.3214	1017.05	132.95
918.4742	1847.9785	1015.95	132.4
918.6139	1849.6349	1015.1	127.4
918.7537	1851.2904	1023.3	130.6
918.8934	1852.9453	1015.25	131.25
919.0331	1854.5994	1016	128.1
919.1727	1856.2528	1020.95	131.5
919.3124	1857.9054	1013.05	126.2
919.452	1859.5572	1011.85	127.4
919.5916	1861.2083	1014.2	128.45
919.7312	1862.8587	1011	126.65
919.8708	1864.5084	1012.75	125.6
920.0103	1866.1572	1010.9	128.3
920.1498	1867.8054	1013.85	129.15
920.2893	1869.4528	1012.05	128.25
920.4288	1871.0994	1012.45	126.65
920.5683	1872.7453	1009.85	123.75
920.7077	1874.3905	1016.35	123.3
920.8471	1876.0349	1008.7	122.5
920.9865	1877.6786	1007.8	123.85
921.1259	1879.3215	1011.55	125.25
921.2653	1880.9637	1012.8	126.9
921.4046	1882.6051	1010.6	125.75
921.5439	1884.2458	1009.3	123.6
921.6832	1885.8858	1011.7	128.1
921.8225	1887.525	1012.15	125.25
921.9617	1889.1634	1009.3	123.8
922.101	1890.8011	1007.65	121.9
922.2402	1892.4381	1007.5	121.8
922.3794	1894.0743	1007.1	121.8
922.5185	1895.7098	1005.2	120.9
922.6577	1897.3446	1005.25	117.85
922.7968	1898.9786	1010.3	123
922.9359	1900.6118	1005.25	118.7
923.075	1902.2443	1007.9	120.1
923.214	1903.8761	1009.65	122.95
923.3531	1905.5071	1008.25	122.65
923.4921	1907.1374	1005.15	120.9
923.6311	1908.7669	1004.05	116.75
923.77	1910.3957	1005.05	118.2
923.909	1912.0237	1006.6	120.55
924.0479	1913.651	1002.75	116.85
924.1868	1915.2776	1000.35	115.85
924.3257	1916.9034	1003.35	119.65
924.4646	1918.5285	1005	120.75
924.6034	1920.1528	1004.15	118.55
924.7422	1921.7764	1003.8	117.65
924.881	1923.3992	999.65	114.25
925.0198	1925.0213	1000.95	114.75
925.1586	1926.6427	996.9	113.55
925.2973	1928.2633	1108.05	114.85
925.436	1929.8832	999.95	111.4
925.5747	1931.5023	1002.25	116.7
925.7134	1933.1207	1000.8	114.6
925.852	1934.7383	996.5	110.5
925.9906	1936.3552	995.85	112
926.1292	1937.9714	995.05	107.5
926.2678	1939.5868	1001.15	115.2
926.4064	1941.2015	998.3	113.35
926.5449	1942.8154	996.35	112.2
926.6834	1944.4286	995.7	111.85
926.8219	1946.041	1019.2	111.5
926.9604	1947.6528	998.25	108.65
927.0988	1949.2637	995.8	110
927.2372	1950.8739	994.25	109.1
927.3756	1952.4834	998.95	112.1
927.514	1954.0921	995.6	108.65
927.6523	1955.7001	998.2	109.15
927.7907	1957.3074	997.1	112.35
927.929	1958.9139	995.5	111.3
928.0673	1960.5197	992.75	105.55
928.2055	1962.1247	990.55	105.9
928.3438	1963.729	991.45	109.7
928.482	1965.3325	1015.7	105.95
928.6202	1966.9353	991.4	106.15
928.7584	1968.5374	997.85	109.95
928.8965	1970.1387	991.7	105.5
929.0346	1971.7393	991.7	106
929.1727	1973.3392	993.3	107.55
929.3108	1974.9383	992.45	106.8
929.4489	1976.5366	992.7	107
929.5869	1978.1342	992.5	105.2
929.7249	1979.7311	989.7	102.75
929.8629	1981.3273	991.6	106.7
930.0009	1982.9227	993.6	106.65
930.1388	1984.5173	994.35	110.6
930.2767	1986.1112	988.7	103.45
930.4146	1987.7044	989.3	106.4
930.5525	1989.2968	992	105.75
930.6904	1990.8885	990.05	99.95
930.8282	1992.4795	992.25	104
930.966	1994.0697	987.3	101.6
931.1038	1995.6592	986.6	102.35
931.2415	1997.2479	990.5	103.7
931.3793	1998.8359	988.15	102.3
931.517	2000.4232	986.45	100.35
931.6547	2002.0097	986	100.6
931.7923	2003.5955	983.15	95.65
931.93	2005.1805	986.05	99.4
932.0676	2006.7648	987.25	100.95
932.2052	2008.3484	986.85	98.35
932.3427	2009.9312	990.45	102.75
932.4803	2011.5133	987.3	102.55
932.6178	2013.0946	988.25	102.85
932.7553	2014.6752	981.7	97.2
932.8928	2016.2551	986.35	99.6
933.0302	2017.8342	985.75	101.5
933.1676	2019.4126	982.4	97.05
933.305	2020.9902	982.65	97.4
933.4424	2022.5672	990.35	102.75
933.5798	2024.1433	991.75	98
933.7171	2025.7188	985.1	100.45
933.8544	2027.2935	987.8	101.15
933.9917	2028.8674	983.85	97.85
934.129	2030.4406	985.75	100.4
934.2662	2032.0131	981.95	97.8
934.4034	2033.5849	992.6	101.55
934.5406	2035.1559	984.05	98.15
934.6778	2036.7261	985.2	100.35
934.8149	2038.2957	985	99.75
934.952	2039.8645	979.7	94.5
935.0891	2041.4325	987.15	101.1
935.2262	2042.9998	985	101.2
935.3632	2044.5664	984.7	96.5
935.5002	2046.1323	985.15	99.1
935.6372	2047.6974	982.9	97.6
935.7742	2049.2617	985.1	99.6
935.9111	2050.8254	1018.85	99.05
936.048	2052.3883	984	94.3
936.1849	2053.9504	986.4	100.9
936.3218	2055.5118	983.95	96.35
936.4586	2057.0725	988.85	98
936.5955	2058.6325	984.65	98.2
936.7323	2060.1917	983.15	99.5
936.869	2061.7502	987.3	100.15
937.0058	2063.3079	981.8	96.5
937.1425	2064.8649	985.65	96.25
937.2792	2066.4212	983.85	99.1
937.4159	2067.9767	980.75	95.15
937.5525	2069.5315	981.95	96.55
937.6891	2071.0856	982.3	95.2
937.8257	2072.6389	979.95	93.8
937.9623	2074.1915	977.6	93.4
938.0989	2075.7433	982.45	94.4
938.2354	2077.2945	980.35	97.2
938.3719	2078.8448	982.35	97.05
938.5084	2080.3945	982	97.6
938.6448	2081.9434	983.55	97.35
938.7812	2083.4916	982.4	97.55
938.9176	2085.039	980.75	91.35
939.054	2086.5857	984.8	97.95
939.1903	2088.1317	979.85	94.55
939.3267	2089.677	981.6	96
939.463	2091.2215	979.25	94.65
939.5992	2092.7652	980.8	93
939.7355	2094.3083	981.7	95.5
939.8717	2095.8506	979.35	95.9
940.0079	2097.3921	982.55	99.95
940.1441	2098.933	981.3	95.9
940.2802	2100.4731	980.45	95.85
940.4163	2102.0124	996.35	94.3
940.5524	2103.5511	979.95	95
940.6885	2105.089	984.75	100.25
940.8245	2106.6261	980.05	95.55
940.9606	2108.1626	980.35	93.65
941.0965	2109.6983	1009.6	93.35
941.2325	2111.2332	983.55	97.35
941.3684	2112.7675	979.6	92.95
941.5044	2114.301	983.45	96.9
941.6403	2115.8337	979	93.7
941.7761	2117.3657	978.1	92.8
941.912	2118.897	979.45	94.75
942.0478	2120.4276	985.85	94.75
942.1835	2121.9575	979.6	92.1
942.3193	2123.4866	992.7	93.1
942.455	2125.0149	984.9	97.7
942.5907	2126.5426	977.7	92.35
942.7264	2128.0695	984	92.6
942.8621	2129.5956	977.25	92.55
942.9977	2131.1211	986	96.4
943.1333	2132.6458	979.8	94.85
943.2689	2134.1698	972.7	87.1
943.4044	2135.693	983.75	95.15
943.54	2137.2155	981.25	92.55
943.6755	2138.7373	979.5	93.1
943.8109	2140.2584	978.8	94.05
943.9464	2141.7787	984.75	93.5
944.0818	2143.2983	976.5	90.9
944.2172	2144.8171	977.15	92.6
944.3526	2146.3353	980.15	91.15
944.4879	2147.8527	976.45	91.3
944.6232	2149.3693	977.25	91.45
944.7585	2150.8853	976.75	90.85
944.8938	2152.4005	975.55	90.85
945.029	2153.9149	975.3	92.6
945.1642	2155.4287	975.55	89.25
945.2994	2156.9417	981.85	96.05
945.4346	2158.454	978.35	90.35
945.5697	2159.9655	974.9	89.55
945.7048	2161.4764	976.55	90.8
945.8399	2162.9865	975.25	88.7
945.9749	2164.4958	979.2	93.1
946.1099	2166.0045	978	88.65
946.2449	2167.5124	977.55	90.95
946.3799	2169.0195	977.45	91.4
946.5148	2170.526	977.8	92.6
946.6498	2172.0317	975.1	90.25
946.7846	2173.5367	976.75	92.2
946.9195	2175.0409	973.9	89.25
947.0543	2176.5445	978.35	93.15
947.1891	2178.0473	975.65	89.3
947.3239	2179.5494	977.4	89.45
947.4587	2181.0507	973.3	87.55
947.5934	2182.5513	970.35	85.8
947.7281	2184.0512	975.9	87.9
947.8628	2185.5504	976.75	91.45
947.9974	2187.0488	973.45	89.6
948.132	2188.5465	974.85	89.95
948.2666	2190.0435	978.65	93.2
948.4012	2191.5397	972.25	87.1
948.5357	2193.0353	971.85	88.4
948.6702	2194.5301	972.95	87.2
948.8047	2196.0241	972.4	85.35
948.9392	2197.5175	973.25	87.3
949.0736	2199.0101	975.75	87
949.208	2200.502	973.65	88.8
949.3424	2201.9931	970.6	83.75
949.4767	2203.4835	976.1	88.15
949.611	2204.9733	977.6	85.7
949.7453	2206.4622	971.7	84.7
949.8796	2207.9505	974.4	86.45
950.0138	2209.438	972.2	86.9
950.148	2210.9248	972.95	86.5
950.2822	2212.4109	969.3	84.25
950.4164	2213.8962	971.5	82.85
950.5505	2215.3809	969.5	81.35
950.6846	2216.8648	969.85	84
950.8186	2218.3479	974.15	82.7
950.9527	2219.8304	970.9	82.7
951.0867	2221.3121	968.25	81.2
951.2207	2222.7931	970	87.6
951.3546	2224.2733	971.35	84.75
951.4886	2225.7529	970.4	83.5
951.6225	2227.2317	972.65	83.9
951.7563	2228.7098	968.35	82.55
951.8902	2230.1872	969.65	84.8
952.024	2231.6638	967	79.95
952.1578	2233.1397	975.85	85.85
952.2916	2234.6149	968.2	83.05
952.4253	2236.0894	966.25	80.85
952.559	2237.5632	980.6	84.45
952.6927	2239.0362	967.1	79.75
952.8263	2240.5085	967.95	82.85
952.9599	2241.9801	964.2	79.55
953.0935	2243.4509	966.95	81.55
953.2271	2244.921	966.05	80.65
953.3606	2246.3904	967	79.75
953.4941	2247.8591	963.7	77.9
953.6276	2249.3271	964.6	77.3
953.7611	2250.7943	966.3	79.45
953.8945	2252.2608	961.1	76.85
954.0279	2253.7266	967.2	81
954.1612	2255.1917	963.95	78.1
954.2946	2256.656	966.3	81.1
954.4279	2258.1197	963.95	79.9
954.5612	2259.5826	967.3	83.05
954.6944	2261.0447	966	79.85
954.8276	2262.5062	966.4	80.05
954.9608	2263.9669	960.35	71.1
955.094	2265.4269	962.4	77.2
955.2271	2266.8862	962.6	77.3
955.3602	2268.3448	962.85	76.55
955.4933	2269.8026	964.35	78.7
955.6264	2271.2598	964.65	79
955.7594	2272.7162	965.15	82.25
955.8924	2274.1719	961.95	76.4
956.0253	2275.6268	964.2	79.75
956.1583	2277.0811	959.55	72.55
956.2912	2278.5346	960.75	73.95
956.4241	2279.9874	958.35	73.7
956.5569	2281.4395	961.9	77.05
956.6897	2282.8908	966.8	75.25
956.8225	2284.3414	964.9	79.1
956.9553	2285.7914	959.6	74.5
957.088	2287.2406	962.7	74.4
957.2207	2288.689	962.65	79.7
957.3534	2290.1368	962.8	75.4
957.486	2291.5838	962.9	76.7
957.6186	2293.0302	960.75	76.3
957.7512	2294.4758	960.2	76.25
957.8838	2295.9206	960.45	73.4
958.0163	2297.3648	958.8	74.9
958.1488	2298.8082	962.85	77.5
958.2813	2300.251	958.25	73.95
958.4137	2301.693	961.55	73.8
958.5461	2303.1343	959.45	73.25
958.6785	2304.5748	961.05	74.7
958.8108	2306.0147	957.45	73
958.9432	2307.4538	959.65	70.55
959.0754	2308.8922	955.3	71.25
959.2077	2310.3299	960.7	74.5
959.3399	2311.7669	959.35	72.75
959.4721	2313.2031	960.75	75.35
959.6043	2314.6387	958.3	72.65
959.7365	2316.0735	958.15	71.85
959.8686	2317.5076	957	72.5
960.0006	2318.941	958.25	72.9
960.1327	2320.3737	959.8	74.2
960.2647	2321.8056	962	76.2
960.3967	2323.2369	956.7	70.75
960.5287	2324.6674	959.25	72.8
960.6606	2326.0972	963.75	76.4
960.7925	2327.5263	965.8	80.05
960.9244	2328.9547	965.2	78.35
961.0562	2330.3823	965.2	79.7
961.1881	2331.8092	960.3	72.95
961.3198	2333.2355	956.15	68.9
961.4516	2334.661	954.65	70.25
961.5833	2336.0858	956.3	68.3
961.715	2337.5098	956.25	71.15
961.8467	2338.9332	953.9	68.8
961.9783	2340.3558	959.2	68.55
962.1099	2341.7778	953.05	68.05
962.2415	2343.199	956.85	68.55
962.373	2344.6195	955.95	70
962.5045	2346.0393	952.55	68
962.636	2347.4583	954.5	67.8
962.7675	2348.8767	954.85	68.25
962.8989	2350.2943	953	67.35
963.0303	2351.7113	954.7	68.65
963.1617	2353.1275	952.75	66.45
963.293	2354.543	963.2	68.8
963.4243	2355.9578	950.75	64.25
963.5556	2357.3718	951.8	66.65
963.6868	2358.7852	955.95	68.1
963.818	2360.1978	952	67.3
963.9492	2361.6098	949.9	65.35
964.0803	2363.021	955.25	64.75
964.2114	2364.4315	949.45	63.65
964.3425	2365.8413	952.1	63.05
964.4736	2367.2504	952.75	66.8
964.6046	2368.6587	955.3	68.15
964.7356	2370.0664	953.2	67.25
964.8666	2371.4733	952.15	67.5
964.9975	2372.8795	951.55	64.35
965.1284	2374.285	951.05	65.35
965.2593	2375.6899	948.85	65.1
965.3901	2377.0939	951.9	65.3
965.5209	2378.4973	948.9	67.3
965.6517	2379.9	951	64.05
965.7825	2381.3019	946.95	61.9
965.9132	2382.7032	948.95	65
966.0439	2384.1037	951.2	67.7
966.1745	2385.5035	945.1	59.85
966.3051	2386.9027	946.65	61.9
966.4357	2388.3011	951.25	62.4
966.5663	2389.6987	946.7	60.7
966.6968	2391.0957	947.55	61.05
966.8273	2392.492	945.6	60.75
966.9578	2393.8876	945.55	59.35
967.0882	2395.2824	944.8	58.2
967.2186	2396.6765	945.2	63.6
967.349	2398.07	948.7	62.7
967.4793	2399.4627	946.8	61.05
967.6097	2400.8547	946.4	61.9
967.7399	2402.246	950.95	58.7
967.8702	2403.6366	943.15	56.55
968.0004	2405.0265	943.75	56.6
968.1306	2406.4156	945.4	56.4
968.2607	2407.8041	949.45	60.75
968.3909	2409.1918	945.6	56.2
968.521	2410.5789	944.8	57.8
968.651	2411.9652	947.55	58.15
968.781	2413.3508	943.4	57.6
968.911	2414.7358	943.95	57.5
969.041	2416.12	943.3	58.05
969.1709	2417.5035	944.95	61.2
969.3008	2418.8863	946.9	61
969.4307	2420.2684	940.9	53.05
969.5606	2421.6497	940.9	55.1
969.6904	2423.0304	944.45	59.8
969.8201	2424.4104	943.55	57.3
969.9499	2425.7896	949.55	57.55
970.0796	2427.1682	940.7	54.5
970.2093	2428.546	944.3	57.35
970.3389	2429.9232	942.75	57.4
970.4685	2431.2996	939.95	55.25
970.5981	2432.6753	939.7	54.3
970.7277	2434.0503	941.3	55.85
970.8572	2435.4246	940.6	55.9
970.9867	2436.7982	944.5	56.8
971.1161	2438.1711	942.05	57.15
971.2456	2439.5433	939.6	51.75
971.375	2440.9148	946.8	57.3
971.5043	2442.2856	941.5	55.95
971.6336	2443.6557	941.35	55.35
971.7629	2445.025	936.35	50.75
971.8922	2446.3937	938.9	52.2
972.0214	2447.7617	940.45	56.9
972.1506	2449.1289	942.35	56.45
972.2798	2450.4955	943.9	54.5
972.4089	2451.8613	941.05	56.35
972.538	2453.2265	939.2	52.2
972.6671	2454.5909	940.3	53.85
972.7961	2455.9546	937.45	52.4
972.9251	2457.3177	939.05	53.25
973.0541	2458.68	942.1	55.45
973.1831	2460.0416	937.5	51.5
973.312	2461.4025	941.55	55
973.4408	2462.7627	949.65	52.9
973.5697	2464.1222	938.05	53
973.6985	2465.4811	939.05	49.85
973.8273	2466.8392	938.9	53.1
973.956	2468.1966	939.9	51.6
974.0847	2469.5533	939.35	50.6
974.2134	2470.9093	942.4	54.9
974.3421	2472.2645	939.1	51.6
974.4707	2473.6191	935.8	50.15
974.5993	2474.973	938.45	54.15
974.7278	2476.3262	940.05	52.4
974.8563	2477.6787	940.5	56.35
974.9848	2479.0305	939.85	53.15
975.1132	2480.3816	938.9	50.8
975.2417	2481.7319	937.15	53.15
975.37	2483.0816	937.05	49.65
975.4984	2484.4306	935.9	49.65
975.6267	2485.7789	935.5	49.9
975.755	2487.1264	937.75	51.2
975.8833	2488.4733	933.1	49.2
976.0115	2489.8195	951.6	49.35
976.1397	2491.165	940.45	50.7
976.2678	2492.5097	939.75	51.35
976.3959	2493.8538	938.2	51.6
976.524	2495.1972	937	51.6
976.6521	2496.5398	936.8	50.6
976.7801	2497.8818	935.65	46.75
976.9081	2499.2231	934.9	49.25
977.036	2500.5637	937.4	51.9
977.164	2501.9035	935.55	48.4
977.2918	2503.2427	939.3	51.5
977.4197	2504.5812	936.15	50
977.5475	2505.919	935.5	49.15
977.6753	2507.256	935.1	51
977.8031	2508.5924	934.95	50
977.9308	2509.9281	941.05	47.95
978.0585	2511.2631	934.2	46.5
978.1861	2512.5974	936.65	49.8
978.3137	2513.9309	933	45.5
978.4413	2515.2638	965.9	46.7
978.5689	2516.596	931.55	47.75
978.6964	2517.9275	933.55	47.6
978.8239	2519.2583	930.95	44.55
978.9513	2520.5884	933.25	47.15
979.0788	2521.9178	934.65	50.35
979.2062	2523.2465	931.4	46.5
979.3335	2524.5745	932.15	44.95
979.4608	2525.9018	934.25	49.4
979.5881	2527.2284	931.95	46.4
979.7154	2528.5543	929.95	46.75
979.8426	2529.8796	932.45	44.9
979.9698	2531.2041	930.3	43.5
980.0969	2532.5279	931.05	46.1
980.224	2533.851	933.45	47.45
980.3511	2535.1735	928.35	43.45
980.4781	2536.4952	933.85	48.75
980.6052	2537.8163	931.35	43.4
980.7321	2539.1366	928.95	45.75
980.8591	2540.4562	933.2	47.15
980.986	2541.7752	928.5	43.3
981.1129	2543.0935	930.35	44.5
981.2397	2544.411	930.35	44.85
981.3665	2545.7279	929.35	44.45
981.4933	2547.0441	928.7	43.6
981.62	2548.3596	933.95	43.95
981.7467	2549.6744	929.05	43.85
981.8734	2550.9885	927.45	40.85
982.0001	2552.3019	928	43.45
982.1267	2553.6146	929.5	43.6
982.2532	2554.9266	929.4	43.05
982.3798	2556.2379	933	46.9
982.5063	2557.5485	929.35	45.85
982.6327	2558.8585	936.25	43.15
982.7592	2560.1677	933.05	42.95
982.8856	2561.4762	928.75	43.65
983.0119	2562.7841	931.85	43.55
983.1383	2564.0913	928.25	43.05
983.2646	2565.3977	926.75	39.45
983.3908	2566.7035	929.65	44.85
983.517	2568.0086	931.9	45.6
983.6432	2569.313	930.75	45.05
983.7694	2570.6167	931.25	42.4
983.8955	2571.9197	930.5	47.05
984.0216	2573.222	931.05	39.45
984.1476	2574.5236	927.5	40.45
984.2737	2575.8246	929	38.75
984.3996	2577.1248	929.65	41.35
984.5256	2578.4244	926.95	41.45
984.6515	2579.7232	927.3	40.85
984.7774	2581.0214	957.3	40.7
984.9032	2582.3189	926.95	42.7
985.029	2583.6157	932.3	43.15
985.1548	2584.9118	927.7	40.4
985.2806	2586.2072	926.35	41.35
985.4063	2587.5019	926.5	40.8
985.5319	2588.7959	928.75	43.85
985.6576	2590.0893	929.1	40.3
985.7832	2591.3819	928.25	43.15
985.9087	2592.6739	926	43.55
986.0343	2593.9652	926.65	41.35
986.1597	2595.2557	928.85	44.35
986.2852	2596.5456	928.2	40.75
986.4106	2597.8348	925.7	41.4
986.536	2599.1234	926.05	41.4
986.6614	2600.4112	927.95	41.25
986.7867	2601.6983	930.6	42.25
986.912	2602.9848	925.55	40.25
987.0372	2604.2705	932.2	39.35
987.1624	2605.5556	926.9	42.25
987.2876	2606.84	925.9	40.6
987.4128	2608.1237	926.95	39.2
987.5379	2609.4067	926.1	40
987.6629	2610.689	936.1	40.7
987.788	2611.9707	928.6	39
987.913	2613.2516	929.6	39.15
988.0379	2614.5319	922.55	38.3
988.1629	2615.8115	924.8	38.6
988.2878	2617.0903	926.65	41.35
988.4126	2618.3685	925.35	39.15
988.5375	2619.6461	923.6	37.45
988.6622	2620.9229	927.1	41.65
988.787	2622.199	925.15	37.75
988.9117	2623.4745	923.3	36.45
989.0364	2624.7493	925.9	38.5
989.161	2626.0234	924.05	39.5
989.2857	2627.2968	925	36.95
989.4102	2628.5695	923.8	37.15
989.5348	2629.8415	924.25	39.6
989.6593	2631.1128	925.15	38.55
989.7837	2632.3835	923.4	38.9
989.9082	2633.6535	924.15	37.05
990.0326	2634.9228	921.7	36.05
990.1569	2636.1914	922.65	38.9
990.2812	2637.4593	927.85	37.25
990.4055	2638.7265	922.95	35.4
990.5298	2639.9931	920.5	34.75
990.654	2641.259	925.75	37.8
990.7782	2642.5242	922.15	34.2
990.9023	2643.7887	920.8	34.3
991.0264	2645.0525	920.05	35
991.1505	2646.3156	923.95	39.85
991.2745	2647.5781	920	35.15
991.3985	2648.8398	920.5	35.9
991.5225	2650.1009	957.2	34.7
991.6464	2651.3613	922.4	36.15
991.7703	2652.6211	920.75	33.8
991.8942	2653.8801	917.5	33.7
992.018	2655.1385	922.95	34.65
992.1418	2656.3961	920.35	34.3
992.2655	2657.6531	918.5	34.75
992.3892	2658.9094	919.75	34
992.5129	2660.1651	919	33.6
992.6366	2661.42	919.35	35.55
992.7602	2662.6743	919.15	32.1
992.8837	2663.9279	919.05	34.55
993.0073	2665.1808	918.15	30.8
993.1307	2666.433	920.55	35.1
993.2542	2667.6846	920.2	36.1
993.3776	2668.9354	921.75	34.35
993.501	2670.1856	919.4	33.8
993.6244	2671.4351	917.05	32.1
993.7477	2672.6839	920.15	33.05
993.8709	2673.9321	920.45	34.85
993.9942	2675.1795	920.5	33.55
994.1174	2676.4263	919.85	34.7
994.2405	2677.6724	917.9	31.9
994.3637	2678.9179	921.65	35.8
994.4868	2680.1626	917.55	32.35
994.6098	2681.4067	920.9	35.2
994.7328	2682.6501	920.5	36.4
994.8558	2683.8928	919.5	33.9
994.9788	2685.1348	921.2	36.3
995.1017	2686.3761	918	35.25
995.2245	2687.6168	918.4	33.8
995.3474	2688.8568	918.45	32.7
995.4702	2690.0961	914.95	30.55
995.5929	2691.3348	916.05	30.6
995.7156	2692.5727	917.55	31.9
995.8383	2693.81	918.85	34.1
995.961	2695.0466	916.35	33.75
996.0836	2696.2826	918.75	31.8
996.2062	2697.5178	938.2	32.45
996.3287	2698.7524	915.8	29.15
996.4512	2699.9863	919.45	32
996.5737	2701.2195	916.95	34.55
996.6961	2702.452	919.05	30.1
996.8185	2703.6839	919.05	32.3
996.9408	2704.9151	915.95	29.9
997.0631	2706.1456	919.45	33
997.1854	2707.3755	916.75	31.05
997.3077	2708.6046	919.8	30.75
997.4299	2709.8331	919.4	32.45
997.552	2711.0609	919.1	33.95
997.6742	2712.2881	922.15	35.85
997.7963	2713.5145	918.65	30.55
997.9183	2714.7403	916.65	31.6
998.0403	2715.9654	919.7	31.1
998.1623	2717.1899	920.9	32.75
998.2842	2718.4136	918.9	33.2
998.4062	2719.6367	918.1	32.45
998.528	2720.8591	927.4	34
998.6498	2722.0809	921.45	34.2
998.7716	2723.3019	923.8	34.2
998.8934	2724.5223	920.7	35.05
999.0151	2725.7421	923.45	37.5
999.1368	2726.9611	924.1	35.05
999.2584	2728.1795	926.15	36.4
999.38	2729.3972	921.05	37
999.5016	2730.6142	931.95	32.1
999.6231	2731.8306	921.15	35.1
999.7446	2733.0462	919.25	32.2
999.8661	2734.2612	924.2	34
999.9875	2735.4756	918.1	32
1000.1089	2736.6892	917.95	30.85
1000.2302	2737.9022	916.55	31.5
1000.3515	2739.1145	916.6	31.15
1000.4728	2740.3262	923.6	29.95
1000.594	2741.5372	915.6	30.95
1000.7152	2742.7475	915	28.4
1000.8363	2743.9571	917.95	32.3
1000.9575	2745.1661	919	28.65
1001.0785	2746.3744	914.15	25.75
1001.1996	2747.582	912.05	24.85
1001.3206	2748.7889	913.55	24.55
1001.4415	2749.9952	912.5	26.8
1001.5625	2751.2008	914.65	26.45
1001.6833	2752.4057	917.45	29.5
1001.8042	2753.61	915.4	29.75
1001.925	2754.8136	915.65	27.35
1002.0458	2756.0165	910.7	25.75
1002.1665	2757.2188	912	27.95
1002.2872	2758.4204	910	22.45
1002.4078	2759.6213	914.55	26.7
1002.5285	2760.8215	915.45	20.55
1002.649	2762.0211	913.25	26.2
1002.7696	2763.22	914.2	24.15
1002.8901	2764.4182	914	27.05
1003.0106	2765.6158	910.7	26.55
1003.131	2766.8127	912.95	27
1003.2514	2768.009	911	24
1003.3717	2769.2045	912.75	25.6
1003.492	2770.3994	915.55	27.4
1003.6123	2771.5936	912.2	26.6
1003.7325	2772.7872	909.25	23.85
1003.8527	2773.9801	914.2	25.75
1003.9729	2775.1723	926.5	23.85
1004.093	2776.3639	911.3	26.8
1004.2131	2777.5548	911	23.35
1004.3331	2778.745	910.65	25.05
1004.4531	2779.9346	909	21.9
1004.5731	2781.1235	910.5	23.1
1004.693	2782.3117	910.35	25.85
1004.8129	2783.4992	909.95	25.55
1004.9328	2784.6861	909.25	24.05
1005.0526	2785.8723	912.15	25.2
1005.1723	2787.0579	911.65	24.9
1005.2921	2788.2428	909.1	24.65
1005.4118	2789.427	909.6	23.85
1005.5314	2790.6106	908.25	22.5
1005.651	2791.7935	910.8	24.7
1005.7706	2792.9757	906.95	21.7
1005.8902	2794.1573	911.8	23.1
1006.0097	2795.3382	912.25	25.95
1006.1291	2796.5184	910.2	26.6
1006.2485	2797.698	912.6	25.05
1006.3679	2798.8769	909.05	22.7
1006.4873	2800.0551	909.75	23.15
1006.6066	2801.2327	909.8	19.45
1006.7258	2802.4096	907.95	22.8
1006.8451	2803.5859	912	26.9
1006.9642	2804.7615	913.15	25.4
1007.0834	2805.9364	910.15	25.2
1007.2025	2807.1106	911.45	26.75
1007.3216	2808.2842	914.45	29.6
1007.4406	2809.4572	912.15	27.85
1007.5596	2810.6294	914.05	25.95
1007.6785	2811.801	910.25	26.15
1007.7975	2812.972	910.7	24.6
1007.9163	2814.1423	913.45	29.5
1008.0352	2815.3119	915.55	30.15
1008.154	2816.4808	916.75	31.8
1008.2727	2817.6491	916.4	29.2
1008.3914	2818.8167	917.45	30.85
1008.5101	2819.9837	925.45	34.35
1008.6288	2821.15	924.65	39.05
1008.7474	2822.3157	925.25	40.6
1008.8659	2823.4807	931.7	46.45
1008.9844	2824.645	932.25	47.25
1009.1029	2825.8086	935.25	49.95
1009.2214	2826.9716	935.7	50.9
1009.3398	2828.134	942.05	55.75
1009.4581	2829.2957	945.15	59.45
1009.5764	2830.4567	947.4	62.95
1009.6947	2831.617	950.4	63.45
1009.813	2832.7767	949.95	65.05
1009.9312	2833.9358	949.4	63.7
1010.0493	2835.0941	951.8	65.1
1010.1675	2836.2519	951.75	66.85
1010.2855	2837.4089	950.1	64.6
1010.4036	2838.5653	944.25	59.8
1010.5216	2839.7211	942.7	57
1010.6396	2840.8761	944.25	56.05
1010.7575	2842.0306	941.1	55.6
1010.8754	2843.1843	943.95	58.6
1010.9932	2844.3374	944.85	59.9
1011.111	2845.4899	942.1	54.65
1011.2288	2846.6417	943.8	57.55
1011.3465	2847.7928	945.45	60
1011.4642	2848.9433	944.85	59.85
1011.5818	2850.0931	946.25	61.1
1011.6995	2851.2422	947.05	59.5
1011.817	2852.3907	950.6	64.2
1011.9345	2853.5385	949.4	62.05
1012.052	2854.6857	973.5	59.75
1012.1695	2855.8323	946.4	63.05
1012.2869	2856.9781	949.2	64
1012.4042	2858.1233	950.75	64.05
1012.5216	2859.2679	952.85	65.4
1012.6389	2860.4118	953.7	68.85
1012.7561	2861.555	960.65	70.75
1012.8733	2862.6976	956.5	68.45
1012.9905	2863.8395	955	69.45
1013.1076	2864.9808	957.3	71.3
1013.2247	2866.1214	956.7	72.15
1013.3417	2867.2614	960.25	74.1
1013.4587	2868.4007	963.55	76.95
1013.5757	2869.5393	960.4	72.3
1013.6926	2870.6773	963.15	73.25
1013.8095	2871.8146	963.75	75.75
1013.9263	2872.9513	965.15	77
1014.0431	2874.0874	961.3	76.5
1014.1599	2875.2227	966.45	82.1
1014.2766	2876.3574	966.7	79.2
1014.3933	2877.4915	964.85	79.7
1014.51	2878.6249	964.5	78.6
1014.6266	2879.7577	973.7	85.85
1014.7431	2880.8898	983.05	86.6
1014.8596	2882.0212	968.75	83.2
1014.9761	2883.152	973.3	87.5
1015.0925	2884.2821	969.45	86.8
1015.2089	2885.4116	971.05	86.25
1015.3253	2886.5405	973.4	87.25
1015.4416	2887.6686	977.85	87.95
1015.5579	2888.7962	973.85	90.25
1015.6741	2889.923	970.65	85.5
1015.7903	2891.0493	974	88.45
1015.9065	2892.1748	974.9	88.85
1016.0226	2893.2997	971.95	85.6
1016.1387	2894.424	973.2	88.65
1016.2547	2895.5476	976	90.9
1016.3707	2896.6706	975.85	90
1016.4866	2897.7929	971.55	84.6
1016.6025	2898.9145	974.75	89.25
1016.7184	2900.0355	977.55	91.6
1016.8342	2901.1559	977.3	91.05
1016.95	2902.2756	977.25	90.05
1017.0658	2903.3946	971.55	84.9
1017.1815	2904.513	975.7	87.2
1017.2971	2905.6308	971.95	87.75
1017.4127	2906.7479	972.2	85.85
1017.5283	2907.8643	974.55	87.8
1017.6439	2908.9801	972.25	86.05
1017.7594	2910.0953	972.6	87.3
1017.8748	2911.2098	976.75	88.25
1017.9902	2912.3236	979.95	85.4
1018.1056	2913.4368	975.45	84.65
1018.2209	2914.5494	973.75	87.45
1018.3362	2915.6613	975	82.45
1018.4515	2916.7725	972.45	83.9
1018.5667	2917.8831	964.35	77.55
1018.6819	2918.9931	966.95	78
1018.797	2920.1024	971.95	84.65
1018.9121	2921.211	961.55	74.85
1019.0271	2922.319	963.85	76.75
1019.1421	2923.4264	966.85	79.75
1019.2571	2924.5331	964.3	78.6
1019.372	2925.6391	961.3	76.35
1019.4869	2926.7445	962.4	77.95
1019.6017	2927.8493	961.75	76.5
1019.7165	2928.9534	962.55	75.55
1019.8313	2930.0569	964.3	73.15
1019.946	2931.1597	966.9	79.25
1020.0606	2932.2619	966.45	81.6
1020.1753	2933.3634	964.3	78.85
1020.2899	2934.4643	974.5	80.95
1020.4044	2935.5645	974.35	82.65
1020.5189	2936.6641	968.75	79.6
1020.6334	2937.763	967	82
1020.7478	2938.8613	969.3	82.45
1020.8622	2939.959	971.85	82.2
1020.9765	2941.056	965.35	81.05
1021.0908	2942.1523	961.85	75.15
1021.2051	2943.248	959.2	74.55
1021.3193	2944.3431	954.5	68.95
1021.4334	2945.4375	950.15	64.15
1021.5476	2946.5313	947.55	61.75
1021.6617	2947.6244	945.8	59.05
1021.7757	2948.7169	943.6	55.9
1021.8897	2949.8087	941.95	56.85
1022.0037	2950.8999	936.1	49.4
1022.1176	2951.9904	932.7	47.1
1022.2315	2953.0803	933.45	45.55
1022.3453	2954.1696	931.3	45.3
1022.4591	2955.2582	929.65	44.65
1022.5728	2956.3462	928.7	43.05
1022.6865	2957.4335	931.4	45.5
1022.8002	2958.5202	927.8	38.9
1022.9138	2959.6062	926.95	39.95
1023.0274	2960.6916	927.75	43.85
1023.141	2961.7764	928.05	41.25
1023.2545	2962.8605	928.55	39.8
1023.3679	2963.9439	926.8	40.4
1023.4813	2965.0267	927.35	39.15
1023.5947	2966.1089	948.15	39.15
1023.708	2967.1905	926.15	42.4
1023.8213	2968.2714	924.9	39.4
1023.9346	2969.3516	928.25	43.35
1024.0478	2970.4312	931.5	37.95
1024.1609	2971.5102	926.25	41.7
1024.274	2972.5885	926.3	40.05
1024.3871	2973.6662	930.6	41.1
1024.5002	2974.7432	926.1	41.95
1024.6132	2975.8196	925	39.85
1024.7261	2976.8954	922.9	37.1
1024.839	2977.9705	927.1	39.8
1024.9519	2979.045	923.85	36.85
1025.0647	2980.1188	923.55	40
1025.1775	2981.192	925.55	43.05
1025.2902	2982.2645	927	41.9
1025.4029	2983.3364	924	39.65
1025.5156	2984.4077	921.4	36.65
1025.6282	2985.4783	926.5	35
1025.7407	2986.5483	920.1	35.8
1025.8532	2987.6177	917.65	32.85
1025.9657	2988.6864	914.6	29.3
1026.0782	2989.7545	918.05	30.15
1026.1906	2990.8219	915.9	29.05
1026.3029	2991.8887	916.55	26.55
1026.4152	2992.9548	914.4	26.9
1026.5275	2994.0204	912	25.2
1026.6397	2995.0852	909.75	27.15
1026.7519	2996.1495	911.85	25.65
1026.864	2997.2131	910.15	24.45
1026.9761	2998.276	907.9	21.35
1027.0882	2999.3383	909.25	22.65
1027.2002	3000.4	907.9	20.5
1027.3122	3001.4611	906.05	19.85
1027.4241	3002.5215	904.4	19.55
1027.536	3003.5812	905	20.7
1027.6478	3004.6404	905.9	20.35
1027.7596	3005.6989	905.5	18.15
1027.8714	3006.7567	904.1	18.7
1027.9831	3007.8139	930.95	14.05
1028.0947	3008.8705	904.75	17
1028.2064	3009.9264	919.85	17.9
1028.3179	3010.9818	899.9	14.55
1028.4295	3012.0364	901	14.95
1028.541	3013.0905	903.4	17.9
1028.6524	3014.1439	901.85	16.1
1028.7638	3015.1966	900	16.25
1028.8752	3016.2487	902.4	17.15
1028.9865	3017.3002	904.6	12
1029.0978	3018.3511	899	16.65
1029.209	3019.4013	898.2	12.8
1029.3202	3020.4509	901.15	17.4
1029.4314	3021.4998	900.15	15.8
1029.5425	3022.5481	899.6	13.85
1029.6535	3023.5958	898.6	12.75
1029.7645	3024.6428	899.5	9.75
1029.8755	3025.6892	898.1	11.9
1029.9864	3026.735	901.3	14.85
1030.0973	3027.7802	898.1	12.55
1030.2082	3028.8247	898.7	13.95
1030.319	3029.8685	900.15	13.05
1030.4297	3030.9118	901.4	14.9
1030.5404	3031.9544	900.1	14.35
1030.6511	3032.9963	898.6	11.7
1030.7617	3034.0376	900.35	15.5
1030.8723	3035.0783	899.95	12.35
1030.9829	3036.1184	899.8	11.65
1031.0934	3037.1578	899.6	14.65
1031.2038	3038.1966	900.9	13.3
1031.3142	3039.2348	899.15	14.6
1031.4246	3040.2723	909.8	14.9
1031.5349	3041.3092	897.65	13.65
1031.6452	3042.3455	901.75	17.3
1031.7554	3043.3811	900.5	14.25
1031.8656	3044.4161	900.55	15.8
1031.9758	3045.4505	898.05	14
1032.0859	3046.4842	899.8	13.1
1032.1959	3047.5173	898.45	11.65
1032.3059	3048.5498	900.2	13.4
1032.4159	3049.5816	900.4	14.8
1032.5258	3050.6128	900.6	14.9
1032.6357	3051.6434	900.4	12.7
1032.7455	3052.6734	902.9	16.45
1032.8553	3053.7027	898.5	13.8
1032.9651	3054.7314	900.95	14.45
1033.0748	3055.7594	900.95	15.1
1033.1845	3056.7868	901.25	13.9
1033.2941	3057.8136	899.65	15.65
1033.4037	3058.8398	900.45	15.95
1033.5132	3059.8653	902.55	15.8
1033.6227	3060.8902	899.3	14.25
1033.7321	3061.9145	900.15	14.55
1033.8415	3062.9381	902.8	15.6
1033.9509	3063.9612	916.9	13.25
1034.0602	3064.9835	901.35	15.25
1034.1694	3066.0053	904.55	15.8
1034.2787	3067.0264	901.9	14.85
1034.3878	3068.0469	902.55	14.15
1034.497	3069.0668	903.7	16
1034.6061	3070.086	899	13.25
1034.7151	3071.1046	903.75	13.3
1034.8241	3072.1226	900	12.25
1034.9331	3073.1399	899.05	12.45
1035.042	3074.1567	899.55	14.35
1035.1508	3075.1727	902.15	14.1
1035.2597	3076.1882	899.35	13.05
1035.3684	3077.203	899.4	12.3
1035.4772	3078.2173	900.05	13
1035.5859	3079.2308	902.6	13.35
1035.6945	3080.2438	900.45	13.1
1035.8031	3081.2561	899.25	13.1
1035.9117	3082.2678	896.9	12.25
1036.0202	3083.2789	898.2	12.6
1036.1286	3084.2893	898	13.2
1036.2371	3085.2991	896.6	11.4
1036.3454	3086.3083	900.95	10.45
1036.4538	3087.3169	899.65	11.95
1036.562	3088.3248	898.7	12
1036.6703	3089.3321	899.1	10.75
1036.7785	3090.3388	895.75	9.65
1036.8866	3091.3449	898.65	13.55
1036.9948	3092.3503	896.65	6.75
1037.1028	3093.3551	895.15	11.5
1037.2108	3094.3593	897.25	13.3
1037.3188	3095.3629	894.3	8.5
1037.4267	3096.3658	897.9	9.95
1037.5346	3097.3681	894.9	9
1037.6425	3098.3698	896.85	11.65
1037.7503	3099.3708	897.5	12.15
1037.858	3100.3713	894.9	8.95
1037.9657	3101.3711	895.45	8.6
1038.0734	3102.3702	1036.65	7.95
1038.181	3103.3688	899.7	11.65
1038.2886	3104.3667	894.65	10.45
1038.3961	3105.364	893.2	7.45
1038.5036	3106.3607	895.65	8.15
1038.611	3107.3568	895.8	10.2
1038.7184	3108.3522	893.7	8.3
1038.8257	3109.347	895	11
1038.933	3110.3412	898.85	9.7
1039.0403	3111.3348	894	6.25
1039.1475	3112.3277	894.4	8.6
1039.2547	3113.32	894.65	10.45
1039.3618	3114.3117	896.7	9.15
1039.4689	3115.3028	894.55	9.75
1039.5759	3116.2932	896.65	10.7
1039.6829	3117.2831	900.8	9.65
1039.7898	3118.2723	893.1	7.6
1039.8967	3119.2608	893.2	6.65
1040.0035	3120.2488	894.15	7.3
1040.1103	3121.2361	895.05	11
1040.2171	3122.2229	893.35	6.1
1040.3238	3123.209	893.5	6.15
1040.4305	3124.1944	895.6	9.9
1040.5371	3125.1793	893.85	5.45
1040.6437	3126.1635	894.85	9.95
1040.7502	3127.1471	892.75	6
1040.8567	3128.1301	892.55	8.6
1040.9631	3129.1125	893.3	6.65
1041.0695	3130.0942	891.9	5.3
1041.1759	3131.0753	901.45	7.3
1041.2822	3132.0558	894.1	5.5
1041.3884	3133.0357	894.9	8.5
1041.4946	3134.015	893	6.15
1041.6008	3134.9936	893.75	4.8
1041.7069	3135.9716	913.3	6.55
1041.813	3136.949	893.15	7.3
1041.919	3137.9258	911	6.05
1042.025	3138.902	899.95	7.1
1042.1309	3139.8775	892.4	7.8
1042.2368	3140.8524	893.2	8.65
1042.3427	3141.8267	893.75	6.5
1042.4485	3142.8004	894.25	8.1
1042.5542	3143.7735	899.85	7.8
1042.6599	3144.7459	895.7	7.15
1042.7656	3145.7178	893.9	7.9
1042.8712	3146.689	892.45	8.65
1042.9768	3147.6596	892.3	5.6
1043.0823	3148.6295	892.5	6.35
1043.1878	3149.5989	891.4	4.6
1043.2932	3150.5676	890.35	5.95
1043.3986	3151.5357	889.65	5.5
1043.5039	3152.5032	891.75	6.35
1043.6092	3153.4701	892.6	5.3
1043.7145	3154.4364	895.7	6.25
1043.8197	3155.402	892.35	7.25
1043.9248	3156.367	893.25	5.95
1044.03	3157.3315	911.05	6.6
1044.135	3158.2952	891.3	6.35
1044.24	3159.2584	891.85	5.45
1044.345	3160.221	891.25	5.45
1044.4499	3161.1829	892.3	6.15
1044.5548	3162.1442	890.5	4.25
1044.6596	3163.105	893.3	8.2
1044.7644	3164.065	892.4	6
1044.8692	3165.0245	893.8	5.1
1044.9739	3165.9834	892.2	6.55
1045.0785	3166.9416	890.8	5.4
1045.1831	3167.8993	891.7	3.95
1045.2877	3168.8563	892.15	5.6
1045.3922	3169.8127	889.65	4.55
1045.4966	3170.7684	891.75	6.55
1045.6011	3171.7236	892.55	6.95
1045.7054	3172.6782	891.4	6.2
1045.8098	3173.6321	891	4.9
1045.914	3174.5854	896.2	9.15
1046.0183	3175.5381	892.6	6.25
1046.1224	3176.4902	890.9	5.5
1046.2266	3177.4417	892.05	7.15
1046.3307	3178.3926	890.75	3.45
1046.4347	3179.3428	889.7	4.75
1046.5387	3180.2924	891.45	5.8
1046.6427	3181.2415	893.25	5.75
1046.7466	3182.1899	893.65	8.7
1046.8504	3183.1377	889.55	2.7
1046.9542	3184.0848	894.95	6.7
1047.058	3185.0314	892	6.6
1047.1617	3185.9773	891.65	4.35
1047.2654	3186.9227	893.05	5.75
1047.369	3187.8674	890.75	5.55
1047.4726	3188.8115	895.6	5.35
1047.5761	3189.755	891.95	7.6
1047.6796	3190.6979	889.95	4.25
1047.783	3191.6402	890.95	7.7
1047.8864	3192.5818	889.95	4.35
1047.9898	3193.5229	905	6.05
1048.0931	3194.4633	892.6	6.65
1048.1963	3195.4031	891.5	3.9
1048.2995	3196.3423	889.55	2.55
1048.4027	3197.2809	890.3	5.8
1048.5058	3198.2189	890.55	5.6
1048.6089	3199.1563	898.45	5.7
1048.7119	3200.0931	890.5	5.85
1048.8148	3201.0292	890.75	6.05
1048.9178	3201.9648	890.1	7.1
1049.0206	3202.8997	891.15	3.6
1049.1235	3203.834	889.9	5.75
1049.2262	3204.7677	889.85	4
1049.329	3205.7008	893.25	4.3
1049.4317	3206.6333	889.75	5.3
1049.5343	3207.5652	892.45	3.7
1049.6369	3208.4964	888.85	4
1049.7394	3209.4271	892.55	6.8
1049.8419	3210.3571	890.1	4.8
1049.9444	3211.2865	891.45	4.65
1050.0468	3212.2154	890.8	2.6
1050.1491	3213.1436	895.65	5.7
1050.2514	3214.0712	897.1	6.05
1050.3537	3214.9982	888.85	1.3
1050.4559	3215.9246	890.95	4
1050.5581	3216.8503	888.85	5.25
1050.6602	3217.7755	892.2	7.15
1050.7623	3218.7001	889.55	4.05
1050.8643	3219.624	888.3	1.1
1050.9663	3220.5473	892.2	6.6
1051.0682	3221.4701	892.45	4.95
1051.1701	3222.3922	891.8	3.8
1051.2719	3223.3137	891.9	6.8
1051.3737	3224.2346	889.5	4.45
1051.4754	3225.1549	891.85	7.75
1051.5771	3226.0746	888.2	1.45
1051.6788	3226.9937	890	4.8
1051.7804	3227.9121	890	5
1051.8819	3228.83	889.9	2.45
1051.9834	3229.7473	889.3	4.65
1052.0849	3230.6639	890.35	4.9
1052.1863	3231.5799	890.2	5.25
1052.2876	3232.4954	890.45	3.3
1052.3889	3233.4102	888.1	3.95
1052.4902	3234.3244	889.55	3.65
1052.5914	3235.238	888.05	2.55
1052.6926	3236.151	913.65	3.8
1052.7937	3237.0634	888.25	2.5
1052.8948	3237.9752	889.3	2.3
1052.9958	3238.8864	889.4	2.85
1053.0968	3239.797	888.2	2.05
1053.1977	3240.7069	891.25	5.75
1053.2986	3241.6163	891.1	3.75
1053.3994	3242.5251	889.55	3.55
1053.5002	3243.4332	886.6	2.35
1053.6009	3244.3408	890.05	2.6
1053.7016	3245.2477	889.5	4.35
1053.8022	3246.154	891.35	4.35
1053.9028	3247.0598	890.8	3.25
1054.0034	3247.9649	889.7	3.6
1054.1039	3248.8694	888.65	4.7
1054.2043	3249.7733	890.05	2.85
1054.3047	3250.6766	890.25	4.55
1054.4051	3251.5793	889.05	2.05
1054.5054	3252.4814	889.45	6.9
1054.6056	3253.3829	889.75	3.7
1054.7058	3254.2838	889.2	2.05
1054.806	3255.1841	889.95	6.25
1054.9061	3256.0838	890	4.25
1055.0061	3256.9829	887	1.45
1055.1062	3257.8814	892	3.1
1055.2061	3258.7792	890.3	1.55
1055.306	3259.6765	890	3.05
1055.4059	3260.5731	888.1	1.45
1055.5057	3261.4692	890.25	3.8
1055.6055	3262.3647	890.85	4.4
1055.7052	3263.2595	889.95	6.8
1055.8049	3264.1538	888.6	3.8
1055.9045	3265.0474	889.35	3.6
1056.0041	3265.9404	888.15	3.45
1056.1036	3266.8329	888.3	4.55
1056.2031	3267.7247	899.75	4.25
1056.3025	3268.616	889.1	3.75
1056.4019	3269.5066	888.5	1.4
1056.5013	3270.3966	891.85	3.25
1056.6005	3271.286	887.4	2.85
