Software Version:	3.9.2.0
Unit SN:	10000200
Spectrometer SN:	6960
Date:	3/14/2024 12:36:53 PM
Data Line Index:	25
Spectral Points:	2048
Integration time (ms):	125
Averages:	20
Delay (ms):	30000
Sequence Number:	1
Processing:	dark subtract
Laser Power (mW):	305
Laser Current (mA):	824
Laser Diode Temp (C):	25
Laser Case Temp (C):	26.7
System Temp (C):	26.7
Spectrometer Temp (C):	24.2
CCD Temp (C):	0.008
Secondary Temp (C):	20.008
Heatsink Temp (C):	22.972
CCDPCB Temp (C):	36.64
SecondaryPCB Temp (C):	34.095

Wavelength	RamanShift	Raw Counts	Dark Subtracted
787.061	30.1047	415.6	4.35
787.2016	32.3739	414.55	4
787.3422	34.6426	417.55	5.65
787.4828	36.9109	420.5	7.3
787.6235	39.1787	425.35	7.2
787.7642	41.4461	430.05	8.6
787.9049	43.7131	432.25	7.35
788.0456	45.9796	436	7.75
788.1863	48.2456	441.25	8
788.3271	50.5112	447.9	10.15
788.4679	52.7764	449.3	9.85
788.6087	55.0411	451.8	8.9
788.7496	57.3054	461.45	14.9
788.8904	59.5692	462.7	15.55
789.0313	61.8326	466.25	14.1
789.1722	64.0955	472.1	13.7
789.3132	66.3579	478.35	16.1
789.4541	68.6199	485.35	21.05
789.5951	70.8815	491.55	23.45
789.7361	73.1426	508.05	39
789.8771	75.4032	540.65	64.95
790.0181	77.6634	596.6	117.1
790.1592	79.9231	739.35	255.35
790.3003	82.1824	1032.9	544.45
790.4414	84.4412	1538	1044.65
790.5825	86.6995	2193	1692.25
790.7237	88.9574	2828.2	2319.35
790.8648	91.2148	3286.2	2773
791.006	93.4717	3507.4	2988.45
791.1472	95.7282	3563.3	3041.8
791.2885	97.9842	3577.55	3052.9
791.4297	100.2398	3548.4	3019.45
791.571	102.4949	3521.45	2989.95
791.7123	104.7495	3501.6	2966.65
791.8536	107.0036	3477.45	2942.95
791.9949	109.2573	3438.5	2903.9
792.1363	111.5105	3372.1	2835.95
792.2777	113.7632	3330.7	2793.15
792.4191	116.0154	3289.65	2741.6
792.5605	118.2672	3200.15	2659.75
792.7019	120.5185	3161.3	2617.6
792.8434	122.7693	3094.05	2546.9
792.9849	125.0197	3044.05	2494.55
793.1264	127.2696	2990.8	2439.5
793.2679	129.519	2965.1	2414.2
793.4094	131.7679	2926.85	2372.5
793.551	134.0163	2924.75	2364.4
793.6926	136.2642	2913.95	2347.25
793.8342	138.5117	2916.6	2347.85
793.9758	140.7587	2901.15	2333.1
794.1175	143.0052	2873.15	2300.35
794.2591	145.2512	2836.4	2266.6
794.4008	147.4967	2794.15	2222.3
794.5425	149.7417	2779.95	2203.85
794.6842	151.9863	2755.15	2175.5
794.826	154.2304	2736.5	2155.9
794.9677	156.4739	2733.65	2147.4
795.1095	158.717	2732.75	2145.5
795.2513	160.9596	2751.2	2158.9
795.3931	163.2017	2761	2168.3
795.535	165.4433	2779.05	2182.8
795.6768	167.6844	2787.45	2189.35
795.8187	169.925	2765.9	2165.65
795.9606	172.1651	2731.3	2125.6
796.1025	174.4047	2693.65	2084.5
796.2445	176.6439	2678.75	2068.45
796.3864	178.8825	2647.25	2033.8
796.5284	181.1206	2651.65	2035.95
796.6704	183.3582	2628.5	2008.4
796.8124	185.5954	2612.8	1992.1
796.9544	187.832	2627.15	2002.4
797.0965	190.0681	2608.5	1978.95
797.2386	192.3037	2629.8	1998.65
797.3806	194.5388	2631.2	1997.9
797.5228	196.7734	2632.8	1995.4
797.6649	199.0075	2639.1	1997.55
797.807	201.2411	2653.3	2009.85
797.9492	203.4742	2672.75	2027.3
798.0914	205.7068	2690.05	2046.05
798.2336	207.9389	2691	2047.55
798.3758	210.1704	2711.85	2067
798.518	212.4015	2710.35	2059.2
798.6603	214.632	2713.3	2058.15
798.8025	216.862	2692.35	2045.35
798.9448	219.0915	2700.6	2061.1
799.0871	221.3205	2692.9	2056.9
799.2294	223.549	2703.05	2073.3
799.3718	225.777	2696.05	2067.25
799.5141	228.0044	2692.7	2059.2
799.6565	230.2314	2678.45	2048.2
799.7989	232.4578	2671.15	2038.95
799.9413	234.6837	2667.65	2026.3
800.0837	236.909	2659.1	2019.05
800.2262	239.1339	2668.8	2005.1
800.3687	241.3582	2648.3	1997.85
800.5111	243.582	2669.35	1992.5
800.6536	245.8053	2659.35	1988.75
800.7961	248.0281	2668.2	2004.25
800.9387	250.2503	2665.8	1996.1
801.0812	252.472	2666.65	1992.15
801.2238	254.6932	2675.55	2000.15
801.3664	256.9139	2669.8	1988.1
801.509	259.134	2672.05	1988.75
801.6516	261.3536	2697.75	2019.15
801.7942	263.5727	2705.4	2020.65
801.9369	265.7912	2728.8	2046.9
802.0795	268.0092	2770.55	2086.45
802.2222	270.2267	2803.4	2118.2
802.3649	272.4436	2830.05	2142.85
802.5076	274.6601	2857	2162.15
802.6504	276.8759	2863.5	2172.75
802.7931	279.0913	2878.65	2189.7
802.9359	281.3061	2871.05	2176.85
803.0787	283.5204	2885.7	2190.45
803.2215	285.7341	2907.2	2207.1
803.3643	287.9473	2927.25	2225.85
803.5071	290.16	2919.35	2213.75
803.6499	292.3721	2898.25	2197.2
803.7928	294.5837	2856.65	2153.6
803.9357	296.7947	2841.9	2139.65
804.0786	299.0052	2821.35	2119.85
804.2215	301.2152	2813.15	2108.25
804.3644	303.4246	2805.45	2104.05
804.5074	305.6334	2785.05	2082.8
804.6503	307.8418	2772.5	2066.5
804.7933	310.0495	2761.35	2051
804.9363	312.2568	2743.15	2035.4
805.0793	314.4635	2709.3	2000.7
805.2223	316.6696	2676.1	1966.8
805.3653	318.8752	2645.55	1926.8
805.5084	321.0802	2621.95	1912.5
805.6514	323.2847	2615.45	1904.8
805.7945	325.4887	2607.3	1894.55
805.9376	327.692	2617.8	1903.65
806.0807	329.8949	2638.55	1922.45
806.2238	332.0972	2658.6	1940.45
806.367	334.2989	2694.55	1970.8
806.5101	336.5001	2693.4	1971.65
806.6533	338.7007	2667.85	1947.55
806.7965	340.9008	2651.2	1928.3
806.9397	343.1003	2591.6	1866.5
807.0829	345.2992	2569.8	1842.8
807.2261	347.4976	2535.6	1808
807.3693	349.6955	2507.7	1776.15
807.5126	351.8927	2492.5	1759.9
807.6559	354.0895	2493.55	1748.95
807.7991	356.2856	2481.85	1747.05
807.9424	358.4812	2468.45	1733.6
808.0857	360.6763	2474.2	1739.2
808.2291	362.8707	2449.65	1712.3
808.3724	365.0646	2454.15	1713.5
808.5158	367.258	2454.05	1714.4
808.6591	369.4508	2468	1722.75
808.8025	371.643	2481.15	1736.2
808.9459	373.8346	2497	1747.45
809.0893	376.0257	2528.55	1777.7
809.2327	378.2162	2555.75	1803.55
809.3762	380.4062	2564.25	1809.9
809.5196	382.5956	2545.5	1789.85
809.6631	384.7844	2517.4	1763.15
809.8066	386.9726	2478.4	1720.75
809.9501	389.1603	2452.35	1696.05
810.0936	391.3474	2454	1672.95
810.2371	393.5339	2430.1	1670.1
810.3806	395.7199	2419.75	1667.55
810.5241	397.9052	2435	1684.5
810.6677	400.09	2454.8	1703.45
810.8113	402.2743	2493.55	1744.65
810.9548	404.4579	2502.05	1755.15
811.0984	406.641	2535.9	1788.45
811.2421	408.8235	2564.15	1813.8
811.3857	411.0054	2599.45	1848.25
811.5293	413.1868	2660.9	1906.8
811.673	415.3675	2732.1	1976.95
811.8166	417.5477	2759.6	2003.5
811.9603	419.7273	2699.35	1940.5
812.104	421.9064	2608.85	1839.7
812.2477	424.0848	2552.65	1787.85
812.3914	426.2627	2502.85	1737.45
812.5351	428.4399	2453.35	1684.7
812.6788	430.6166	2411.6	1639.05
812.8226	432.7928	2385.05	1611
812.9663	434.9683	2349.05	1576.05
813.1101	437.1432	2337.75	1561.75
813.2539	439.3176	2313.4	1537.3
813.3977	441.4914	2310.85	1534.5
813.5415	443.6645	2291.85	1511.7
813.6853	445.8371	2299.7	1521.85
813.8291	448.0091	2304.7	1526.3
813.973	450.1806	2299.95	1521
814.1168	452.3514	2280.3	1497.3
814.2607	454.5216	2285.45	1495.25
814.4046	456.6913	2284.65	1500.85
814.5485	458.8603	2278.95	1498.3
814.6924	461.0288	2289.35	1509.9
814.8363	463.1967	2274.35	1490
814.9802	465.3639	2283	1498.9
815.1241	467.5306	2271.9	1488.15
815.2681	469.6967	2254.5	1468.85
815.412	471.8622	2260.75	1474.4
815.556	474.0271	2255.25	1469.3
815.7	476.1914	2250.1	1458
815.844	478.3551	2246.6	1459.45
815.988	480.5182	2243.7	1455.85
816.132	482.6807	2244.3	1455.6
816.276	484.8426	2260.3	1469.15
816.4201	487.0039	2282.85	1491.6
816.5641	489.1647	2332	1539.55
816.7082	491.3248	2344.85	1553.75
816.8522	493.4843	2357	1563.75
816.9963	495.6432	2357.75	1562.85
817.1404	497.8015	2325.45	1531.35
817.2845	499.9592	2301.3	1509.25
817.4286	502.1163	2258.65	1465.7
817.5727	504.2728	2240.15	1441.15
817.7168	506.4287	2222.75	1430.1
817.861	508.5839	2199.3	1402.35
818.0051	510.7386	2193.2	1396.4
818.1493	512.8927	2198.1	1394.75
818.2935	515.0461	2203.35	1405.2
818.4377	517.199	2221	1424.75
818.5818	519.3512	2237.6	1441.05
818.726	521.5029	2289.25	1485.15
818.8703	523.6539	2327.9	1526.6
819.0145	525.8043	2320.2	1517.4
819.1587	527.9541	2298.9	1494.95
819.303	530.1033	2235.1	1432.35
819.4472	532.2519	2213.8	1408.4
819.5915	534.3999	2187.85	1383.95
819.7357	536.5472	2189	1383.75
819.88	538.694	2185.15	1382.9
820.0243	540.8401	2191.35	1384.5
820.1686	542.9856	2205.05	1401.7
820.3129	545.1305	2213.45	1407.35
820.4572	547.2748	2218.25	1412.75
820.6016	549.4185	2224.8	1416.05
820.7459	551.5615	2230.65	1424.2
820.8902	553.704	2239.9	1430.4
821.0346	555.8458	2248.85	1441.95
821.1789	557.987	2261.9	1453.55
821.3233	560.1276	2277.55	1468.9
821.4677	562.2675	2323.95	1514.8
821.6121	564.4069	2364.8	1554.85
821.7565	566.5456	2389.75	1580.4
821.9009	568.6837	2377.15	1564.95
822.0453	570.8212	2334.95	1524.6
822.1897	572.958	2277.6	1465.45
822.3342	575.0942	2241.9	1429.9
822.4786	577.2299	2227.45	1415.55
822.6231	579.3648	2193.7	1379.4
822.7675	581.4992	2180.75	1366.5
822.912	583.6329	2164	1350
823.0565	585.766	2193.3	1378.3
823.201	587.8985	2212.65	1398.15
823.3454	590.0304	2255.45	1430.05
823.4899	592.1616	2276.4	1459
823.6345	594.2922	2270	1455.25
823.779	596.4222	2253.9	1436.5
823.9235	598.5515	2214.4	1397.6
824.068	600.6802	2182.1	1364.4
824.2126	602.8083	2139.3	1321.35
824.3571	604.9358	2131.2	1311.9
824.5017	607.0626	2111.6	1288.65
824.6462	609.1888	2123.35	1303.4
824.7908	611.3144	2136.4	1316.55
824.9354	613.4393	2159.4	1340.45
825.08	615.5636	2188.2	1368.5
825.2246	617.6873	2231.6	1409.1
825.3692	619.8103	2250.55	1427.95
825.5138	621.9327	2244.45	1418.6
825.6584	624.0544	2237.25	1415.1
825.803	626.1756	2197.85	1376.65
825.9477	628.2961	2154.75	1331.05
826.0923	630.4159	2137	1313.6
826.237	632.5351	2122.3	1297.85
826.3816	634.6537	2122.9	1297.35
826.5263	636.7716	2121.25	1293.2
826.6709	638.8889	2112.4	1286.45
826.8156	641.0056	2119.4	1293.45
826.9603	643.1216	2129.2	1299.95
827.105	645.237	2136.4	1307.8
827.2497	647.3518	2122.4	1292.4
827.3944	649.4659	2096.9	1269.65
827.5391	651.5793	2083.55	1253.8
827.6838	653.6922	2076.9	1247.75
827.8285	655.8043	2070.3	1241.55
827.9733	657.9159	2051.75	1220.85
828.118	660.0268	2046.8	1214.9
828.2627	662.137	2045.45	1214.3
828.4075	664.2466	2042.85	1209.55
828.5522	666.3556	2052.65	1221
828.697	668.4639	2041.55	1206.85
828.8418	670.5716	2029.35	1197.15
828.9865	672.6786	2036.2	1201.7
829.1313	674.785	2020.75	1187.25
829.2761	676.8907	2037.2	1203.45
829.4209	678.9958	2019.35	1185.85
829.5657	681.1002	2028.4	1194.1
829.7105	683.204	2024	1187
829.8553	685.3072	2029.4	1192.75
830.0001	687.4097	2019.75	1182.9
830.1449	689.5115	2018.4	1180.85
830.2898	691.6127	2010.95	1176
830.4346	693.7132	2000.9	1161.95
830.5794	695.8131	2018.5	1171.2
830.7243	697.9123	2019.95	1180.1
830.8691	700.0109	2014.55	1175.05
831.014	702.1089	2016.15	1178.85
831.1588	704.2061	2024.25	1183.75
831.3037	706.3028	2043.6	1201.6
831.4486	708.3987	2059.85	1221.35
831.5935	710.4941	2067.9	1228.1
831.7383	712.5887	2068.2	1229
831.8832	714.6827	2065.9	1222.1
832.0281	716.7761	2064.8	1224.85
832.173	718.8688	2061.5	1219.1
832.3179	720.9608	2062.9	1218.6
832.4628	723.0522	2065.2	1223.55
832.6077	725.1429	2071.05	1231
832.7527	727.233	2092.9	1251.4
832.8976	729.3224	2143.2	1300.5
833.0425	731.4112	2180.05	1336.45
833.1874	733.4993	2189.05	1345.2
833.3324	735.5867	2160.75	1315
833.4773	737.6735	2121.55	1277.2
833.6222	739.7596	2086.5	1239.95
833.7672	741.845	2053.75	1206.45
833.9122	743.9298	2062.6	1215.15
834.0571	746.014	2079.25	1235.25
834.2021	748.0974	2089.55	1242.4
834.347	750.1802	2089.25	1245.45
834.492	752.2624	2063.3	1219.15
834.637	754.3439	2052.25	1203.25
834.782	756.4247	2057.4	1201.3
834.9269	758.5048	2039.55	1193.65
835.0719	760.5843	2038.05	1192.35
835.2169	762.6631	2054.3	1208.6
835.3619	764.7413	2096.25	1250
835.5069	766.8188	2141.85	1293.4
835.6519	768.8956	2189.15	1340.05
835.7969	770.9718	2231.25	1383.9
835.9419	773.0473	2232.2	1383.2
836.0869	775.1221	2203.85	1354.45
836.232	777.1962	2185.95	1336.15
836.377	779.2697	2228.4	1379.65
836.522	781.3426	2308.85	1448.55
836.667	783.4147	2336.5	1484.55
836.8121	785.4862	2346.3	1498.65
836.9571	787.557	2284.65	1432.8
837.1021	789.6271	2210.25	1358.45
837.2472	791.6966	2114.9	1264.25
837.3922	793.7654	2047.2	1196.55
837.5373	795.8335	2003.05	1151.2
837.6823	797.901	1980.3	1128.4
837.8274	799.9678	1970.25	1116
837.9724	802.0339	1965.75	1116.1
838.1175	804.0993	1978.7	1117.7
838.2626	806.1641	1970.1	1117.65
838.4076	808.2282	1958.95	1106.85
838.5527	810.2916	1946.45	1089.85
838.6978	812.3544	1933.65	1083.9
838.8428	814.4164	1929.2	1077.45
838.9879	816.4778	1927.95	1073.75
839.133	818.5385	1935.05	1081.65
839.2781	820.5986	1956.9	1104.3
839.4232	822.658	2004.9	1150.9
839.5682	824.7166	2038.5	1183.7
839.7133	826.7747	2090.3	1236.6
839.8584	828.832	2134.65	1281.15
840.0035	830.8886	2181.55	1325.4
840.1486	832.9446	2197.8	1342.8
840.2937	834.9999	2182.35	1328.65
840.4388	837.0545	2136.6	1278.2
840.5839	839.1085	2074.45	1219.55
840.729	841.1618	2022.1	1164.75
840.8741	843.2143	1981.45	1128.55
841.0192	845.2662	1956.75	1101
841.1643	847.3175	1952.4	1095.2
841.3095	849.368	1929.2	1072.95
841.4546	851.4179	1929.1	1072.4
841.5997	853.467	1926.5	1069.3
841.7448	855.5155	1938.4	1081
841.8899	857.5633	1931.75	1074.9
842.0351	859.6105	1920.65	1063.35
842.1802	861.6569	1927.35	1069.95
842.3253	863.7027	1904.8	1046.8
842.4704	865.7478	1899.6	1042.3
842.6156	867.7922	1900.65	1043
842.7607	869.8359	1889.9	1031.2
842.9058	871.8789	1882.7	1022.55
843.0509	873.9212	1914.2	1021.75
843.1961	875.9629	1883.75	1025.2
843.3412	878.0039	1889.55	1030
843.4863	880.0441	1894.3	1037.9
843.6315	882.0837	1909.2	1049.4
843.7766	884.1226	1927.7	1068.1
843.9218	886.1609	1936.2	1079.15
844.0669	888.1984	1975.75	1117.5
844.212	890.2352	2012	1153.1
844.3572	892.2714	2019.6	1156.25
844.5023	894.3069	2003.4	1141.65
844.6475	896.3416	1961.1	1101.95
844.7926	898.3757	1935.25	1074.2
844.9377	900.4091	1908.2	1048.35
845.0829	902.4418	1920.45	1055.1
845.228	904.4739	1938.15	1074.75
845.3732	906.5052	1949	1088.6
845.5183	908.5358	1940.35	1079.3
845.6635	910.5658	1931.05	1069.25
845.8086	912.595	1907.9	1045.35
845.9538	914.6236	1879	1017.8
846.0989	916.6515	1851.2	991.15
846.2441	918.6786	1838.9	976.95
846.3892	920.7051	1837.2	972.1
846.5344	922.7309	1830.75	967.5
846.6795	924.756	1828	964.75
846.8246	926.7804	1830.05	965.3
846.9698	928.8041	1834.55	971.05
847.1149	930.8272	1844.6	980.45
847.2601	932.8495	1856.1	992.3
847.4052	934.8711	1853.7	987.45
847.5504	936.892	1863.05	999.6
847.6955	938.9123	1875.5	1009.85
847.8407	940.9318	1885.1	1020.95
847.9858	942.9506	1911.85	1046.5
848.131	944.9688	1891.2	1027.3
848.2761	946.9862	1878.25	1014.25
848.4213	949.003	1855	990.15
848.5664	951.019	1840.45	975.35
848.7115	953.0344	1831.4	965.4
848.8567	955.0491	1814.55	946.75
849.0018	957.063	1810.55	944.3
849.147	959.0763	1805.8	940.45
849.2921	961.0888	1804.25	936.35
849.4373	963.1007	1796.3	929.95
849.5824	965.1119	1797.15	929.8
849.7275	967.1223	1787.8	922.55
849.8727	969.1321	1777	913.2
850.0178	971.1412	1786.65	919.6
850.1629	973.1495	1774.75	909.6
850.3081	975.1572	1817.45	898.05
850.4532	977.1641	1779.3	913.2
850.5983	979.1704	1770.85	903.1
850.7435	981.1759	1775.3	904.25
850.8886	983.1808	1777.1	906.75
851.0337	985.1849	1772.15	893.5
851.1788	987.1884	1765	895.8
851.324	989.1911	1757	888
851.4691	991.1932	1758.2	888.9
851.6142	993.1945	1764.1	896.4
851.7593	995.1951	1752.6	883.85
851.9045	997.1951	1760.15	884.4
852.0496	999.1943	1743.3	876.55
852.1947	1001.1928	1749	881.4
852.3398	1003.1906	1750.8	884.3
852.4849	1005.1877	1768.8	901.15
852.63	1007.1841	1783.8	914.55
852.7751	1009.1798	1789.75	922.25
852.9202	1011.1748	1783.85	913.85
853.0653	1013.1691	1768.9	899.15
853.2104	1015.1627	1749.75	881.5
853.3555	1017.1556	1721.85	851.65
853.5006	1019.1477	1711.15	841.75
853.6457	1021.1392	1694.35	825.95
853.7908	1023.1299	1691.15	820.6
853.9359	1025.12	1690.55	818
854.081	1027.1093	1688	817.75
854.2261	1029.0979	1697.45	829.05
854.3712	1031.0859	1708.1	838.1
854.5163	1033.0731	1719.45	848.3
854.6613	1035.0596	1717.8	850.25
854.8064	1037.0454	1713.95	841.7
854.9515	1039.0304	1698.65	827.65
855.0965	1041.0148	1688.1	818.15
855.2416	1042.9985	1673.45	801.1
855.3867	1044.9814	1660	789.5
855.5317	1046.9636	1656.05	781.1
855.6768	1048.9452	1659.05	787.45
855.8219	1050.926	1666.65	797.65
855.9669	1052.9061	1682.05	813.1
856.112	1054.8855	1684.75	814.8
856.257	1056.8642	1680.85	809.4
856.4021	1058.8421	1680.2	803.85
856.5471	1060.8194	1683.1	810.8
856.6921	1062.7959	1665.3	793.25
856.8372	1064.7717	1672.75	797.6
856.9822	1066.7469	1672.15	800.05
857.1272	1068.7213	1668.45	793.5
857.2723	1070.695	1674.2	802.1
857.4173	1072.6679	1680.65	807.35
857.5623	1074.6402	1697.6	824.3
857.7073	1076.6117	1710.05	831.65
857.8523	1078.5826	1698.7	825.25
857.9973	1080.5527	1674.2	798.3
858.1423	1082.5221	1653.1	777.9
858.2873	1084.4908	1629.4	756.8
858.4323	1086.4587	1617.2	743.5
858.5773	1088.426	1609.8	735.65
858.7223	1090.3925	1605.55	729.2
858.8673	1092.3584	1603.3	730.7
859.0123	1094.3235	1607.1	733.3
859.1573	1096.2879	1628.1	753.45
859.3022	1098.2515	1627.55	753.6
859.4472	1100.2145	1642.25	769.25
859.5922	1102.1767	1673.5	797.7
859.7371	1104.1382	1697.45	824.4
859.8821	1106.099	1728.95	853.35
860.027	1108.0591	1757.15	882.6
860.172	1110.0185	1781.05	907.25
860.3169	1111.9771	1802.3	929.8
860.4619	1113.9351	1831	956.15
860.6068	1115.8923	1878.9	1002.35
860.7517	1117.8488	1914.25	1038.25
860.8967	1119.8045	1887.05	1011.85
861.0416	1121.7596	1810.3	934.75
861.1865	1123.7139	1737.45	863.85
861.3314	1125.6675	1697.1	824.6
861.4763	1127.6204	1683.15	808.75
861.6212	1129.5726	1709.1	833.65
861.7661	1131.524	1707.15	831.55
861.911	1133.4748	1678.5	802.9
862.0559	1135.4248	1647.55	770.9
862.2008	1137.3741	1608.95	734.25
862.3457	1139.3226	1590.15	713.15
862.4905	1141.2705	1581.2	706
862.6354	1143.2176	1598.1	716.55
862.7803	1145.164	1595.95	719.2
862.9251	1147.1097	1597.5	721.75
863.07	1149.0546	1586.55	708.75
863.2148	1150.9989	1572.85	694.95
863.3597	1152.9424	1562.4	686.35
863.5045	1154.8852	1543.85	667.25
863.6493	1156.8272	1533.4	657.95
863.7942	1158.7686	1547.6	664.65
863.939	1160.7092	1529.65	653.3
864.0838	1162.6491	1532	654.6
864.2286	1164.5883	1538.05	661.15
864.3734	1166.5267	1551.35	671.8
864.5182	1168.4644	1550.1	672
864.663	1170.4014	1582.5	701.2
864.8078	1172.3377	1594	719.15
864.9526	1174.2732	1626.7	750.65
865.0974	1176.2081	1674.65	798.2
865.2421	1178.1421	1749.25	870.05
865.3869	1180.0755	1837.2	960.55
865.5317	1182.0082	1885.7	1008.4
865.6764	1183.9401	1887	1008.6
865.8212	1185.8713	1827.7	950.55
865.9659	1187.8017	1736.55	857.3
866.1106	1189.7315	1675.2	798.05
866.2554	1191.6605	1636.65	730.3
866.4001	1193.5888	1581.1	702.9
866.5448	1195.5163	1562.55	684.55
866.6895	1197.4432	1544.85	666.65
866.8342	1199.3693	1525.6	648.05
866.9789	1201.2947	1521.3	636.9
867.1236	1203.2193	1515.9	640.5
867.2683	1205.1432	1506.85	627.1
867.413	1207.0664	1504.6	625
867.5576	1208.9889	1503.8	620.9
867.7023	1210.9106	1502.5	624.95
867.847	1212.8316	1490.2	611.85
867.9916	1214.7519	1510.75	622.9
868.1363	1216.6715	1512.5	636
868.2809	1218.5903	1525.25	646.8
868.4255	1220.5084	1525.75	644.4
868.5701	1222.4257	1537.3	659.8
868.7148	1224.3424	1538.15	660.65
868.8594	1226.2583	1554.6	671.05
869.004	1228.1735	1558.9	678.1
869.1486	1230.0879	1587.3	708.6
869.2932	1232.0016	1603.3	725.7
869.4377	1233.9146	1633.35	754.1
869.5823	1235.8269	1645.45	765.6
869.7269	1237.7384	1631.35	751.55
869.8715	1239.6492	1633.25	754.5
870.016	1241.5592	1639.6	760.35
870.1606	1243.4686	1659.8	780.7
870.3051	1245.3772	1704.25	824.65
870.4496	1247.285	1764.5	884.6
870.5941	1249.1922	1815.45	934.4
870.7387	1251.0986	1856.7	979.95
870.8832	1253.0042	1895.7	1015.25
871.0277	1254.9092	1947.8	1068
871.1722	1256.8134	2010.3	1133.5
871.3167	1258.7169	2065.95	1182.95
871.4611	1260.6196	2114.8	1236.55
871.6056	1262.5216	2144.55	1261.7
871.7501	1264.4229	2143.15	1263.05
871.8945	1266.3234	2120.1	1241.25
872.039	1268.2232	2086.3	1207.35
872.1834	1270.1223	2046.05	1165.45
872.3278	1272.0207	2012.5	1133.7
872.4723	1273.9183	2002.45	1116.2
872.6167	1275.8151	1990.6	1112.95
872.7611	1277.7113	2017.75	1137.05
872.9055	1279.6067	2058.8	1180.55
873.0499	1281.5014	2152.15	1269.5
873.1943	1283.3953	2263.75	1380.9
873.3386	1285.2885	2404.45	1524.5
873.483	1287.181	2511.05	1628
873.6274	1289.0727	2554.2	1672.95
873.7717	1290.9637	2522.55	1641.3
873.9161	1292.854	2460.05	1579.2
874.0604	1294.7435	2355.15	1473.8
874.2047	1296.6323	2269.65	1387.25
874.349	1298.5204	2194.8	1311.15
874.4933	1300.4077	2140.35	1260.4
874.6376	1302.2943	2105	1223.4
874.7819	1304.1802	2077.65	1198.1
874.9262	1306.0653	2055.9	1174.3
875.0705	1307.9497	2026.4	1146.1
875.2147	1309.8333	2026.2	1145.1
875.359	1311.7162	2001.1	1119.95
875.5032	1313.5984	1989.7	1105.95
875.6475	1315.4798	1987.95	1096.6
875.7917	1317.3605	1985.55	1089.3
875.9359	1319.2405	1992.5	1111.8
876.0801	1321.1197	1991.55	1107.9
876.2243	1322.9982	1966.35	1083
876.3685	1324.876	1926.7	1046
876.5127	1326.753	1870.1	987.15
876.6569	1328.6293	1812.6	930.85
876.801	1330.5048	1756.35	873.3
876.9452	1332.3796	1687.2	808.55
877.0893	1334.2537	1672.15	766
877.2335	1336.127	1617.9	735.5
877.3776	1337.9996	1594.8	712.15
877.5217	1339.8714	1592.7	709.6
877.6658	1341.7426	1611.85	685.85
877.8099	1343.6129	1565.5	683.3
877.954	1345.4826	1536.95	654.35
878.0981	1347.3515	1547.45	663.05
878.2422	1349.2196	1528.35	647.05
878.3862	1351.087	1519.85	637.65
878.5303	1352.9537	1514.95	632.3
878.6743	1354.8197	1516.5	634.3
878.8184	1356.6849	1533	650.35
878.9624	1358.5493	1530.85	648.45
879.1064	1360.4131	1550.95	668.65
879.2504	1362.276	1566.4	686.1
879.3944	1364.1383	1586.55	705.15
879.5384	1365.9998	1601.6	715.15
879.6823	1367.8606	1602.45	720.45
879.8263	1369.7206	1589.15	705.3
879.9702	1371.5799	1592.35	709.35
880.1142	1373.4384	1589.8	706.65
880.2581	1375.2962	1572	689.4
880.402	1377.1533	1540.3	657.9
880.5459	1379.0096	1506.25	622.75
880.6898	1380.8652	1490.65	606.2
880.8337	1382.7201	1472.55	591.25
880.9776	1384.5742	1449.45	567.45
881.1215	1386.4275	1442.9	560
881.2653	1388.2802	1416.6	535.6
881.4092	1390.132	1417.7	535.75
881.553	1391.9832	1412.05	527.05
881.6968	1393.8336	1408.45	524.85
881.8406	1395.6832	1405.2	520.7
881.9844	1397.5322	1397.75	514.25
882.1282	1399.3803	1393.05	504.4
882.272	1401.2278	1388.45	506.1
882.4158	1403.0745	1379.4	497.85
882.5595	1404.9204	1367.65	484.65
882.7033	1406.7656	1358.25	476.3
882.847	1408.6101	1362.65	479.3
882.9908	1410.4538	1357.2	473.8
883.1345	1412.2968	1367.75	486.6
883.2782	1414.139	1358.3	475.3
883.4219	1415.9805	1359	475.5
883.5656	1417.8213	1373.5	482.6
883.7092	1419.6613	1384.6	502
883.8529	1421.5006	1401.3	517.7
883.9965	1423.3391	1420	534.15
884.1402	1425.1769	1445	560.4
884.2838	1427.0139	1492.65	609.45
884.4274	1428.8502	1556.55	671.8
884.571	1430.6858	1601.1	716.8
884.7146	1432.5206	1617.85	735
884.8582	1434.3547	1605.3	721.3
885.0018	1436.188	1590.8	710.05
885.1453	1438.0206	1579.8	695.65
885.2889	1439.8524	1572.5	689.65
885.4324	1441.6835	1578.45	696.5
885.5759	1443.5139	1571.85	686.25
885.7194	1445.3435	1571.95	687.75
885.8629	1447.1724	1573.7	690.15
886.0064	1449.0005	1574.3	690.2
886.1499	1450.8279	1560.75	674.4
886.2933	1452.6545	1573.6	689.65
886.4368	1454.4804	1558.95	675.9
886.5802	1456.3056	1561.65	672.6
886.7237	1458.13	1541.05	656.6
886.8671	1459.9536	1537.65	653.55
887.0105	1461.7766	1513.15	629.75
887.1539	1463.5987	1490	602.4
887.2972	1465.4202	1462.2	578
887.4406	1467.2409	1434.65	550.8
887.584	1469.0608	1412.3	529.5
887.7273	1470.88	1401.7	516.55
887.8706	1472.6984	1377.85	495.05
888.0139	1474.5161	1365.1	479.35
888.1572	1476.3331	1350.3	466.3
888.3005	1478.1493	1345.5	459.05
888.4438	1479.9648	1347.35	463.75
888.5871	1481.7795	1342.8	460.8
888.7303	1483.5935	1338.8	457.3
888.8736	1485.4067	1339.7	456.05
889.0168	1487.2192	1342.15	457.05
889.16	1489.031	1345.35	459.95
889.3032	1490.842	1345.45	461.1
889.4464	1492.6522	1341.6	457.05
889.5896	1494.4618	1335.75	452.25
889.7327	1496.2705	1338.15	455.15
889.8759	1498.0785	1328.75	442.75
890.019	1499.8858	1335.15	450.2
890.1622	1501.6924	1329.1	446.6
890.3053	1503.4981	1320.75	436.45
890.4484	1505.3032	1313.55	428.75
890.5914	1507.1075	1316.7	432.05
890.7345	1508.911	1311.1	427.95
890.8776	1510.7138	1302.55	418.35
891.0206	1512.5159	1298.8	414.65
891.1637	1514.3172	1299.9	416.15
891.3067	1516.1178	1289.85	405.85
891.4497	1517.9176	1292.55	405.3
891.5927	1519.7166	1280.35	396.65
891.7357	1521.515	1287.95	398.8
891.8786	1523.3126	1272	387.4
892.0216	1525.1094	1278.05	391.55
892.1645	1526.9055	1272.85	389.8
892.3074	1528.7008	1270.25	386.85
892.4503	1530.4954	1266.65	377.25
892.5932	1532.2893	1264.35	382.8
892.7361	1534.0824	1262.3	373.3
892.879	1535.8747	1260.5	375.4
893.0218	1537.6663	1256.65	371.1
893.1647	1539.4572	1258.7	372.2
893.3075	1541.2473	1248.1	364.2
893.4503	1543.0367	1253.85	368.55
893.5931	1544.8253	1266.55	376.25
893.7359	1546.6132	1260.1	372.75
893.8787	1548.4003	1267.05	372
894.0214	1550.1867	1263.85	370
894.1642	1551.9723	1265.45	376.05
894.3069	1553.7572	1269.9	384.6
894.4496	1555.5414	1280.05	393.1
894.5923	1557.3247	1294.65	410.15
894.735	1559.1074	1313.6	429.55
894.8777	1560.8893	1337.5	454.1
895.0204	1562.6705	1358.1	474.15
895.163	1564.4509	1375.7	490.1
895.3056	1566.2305	1378.65	495.65
895.4482	1568.0094	1389.05	504.5
895.5908	1569.7876	1383.85	499.15
895.7334	1571.565	1381.9	496.5
895.876	1573.3417	1378.3	492.95
896.0186	1575.1176	1384.25	499.05
896.1611	1576.8928	1394.8	507.85
896.3036	1578.6672	1398.6	513.4
896.4461	1580.4409	1427.2	542.6
896.5886	1582.2138	1446.1	559
896.7311	1583.986	1469.6	582.05
896.8736	1585.7575	1484.65	600.95
897.0161	1587.5282	1511.8	626.8
897.1585	1589.2981	1529.65	644.5
897.3009	1591.0673	1521.8	633.4
897.4433	1592.8358	1536.7	650.15
897.5857	1594.6035	1532.85	646.2
897.7281	1596.3704	1522.95	637.5
897.8705	1598.1366	1517	629.9
898.0128	1599.9021	1490.35	605.65
898.1551	1601.6668	1479.05	590.8
898.2975	1603.4308	1467.2	580.7
898.4398	1605.194	1459.55	569
898.5821	1606.9564	1474.8	587.05
898.7243	1608.7182	1506.05	616.45
898.8666	1610.4791	1549.2	663.9
899.0088	1612.2394	1617.75	733.05
899.1511	1613.9988	1672.6	786.6
899.2933	1615.7576	1727.65	842.9
899.4355	1617.5156	1760.1	868.35
899.5776	1619.2728	1736.2	850.05
899.7198	1621.0293	1694.25	810.1
899.862	1622.785	1616.9	726.05
900.0041	1624.54	1559.45	669.45
900.1462	1626.2942	1477.45	591.2
900.2883	1628.0477	1424.1	534.9
900.4304	1629.8005	1374.5	483.2
900.5725	1631.5525	1327.35	440.9
900.7145	1633.3037	1295.4	409.1
900.8566	1635.0542	1269.4	383.45
900.9986	1636.804	1253.35	368.5
901.1406	1638.553	1297.75	349.7
901.2826	1640.3013	1222.7	336.45
901.4245	1642.0488	1210.35	326.35
901.5665	1643.7955	1206.05	321.3
901.7085	1645.5416	1194.25	308.35
901.8504	1647.2868	1187.1	301.7
901.9923	1649.0313	1188.05	301.55
902.1342	1650.7751	1185.25	294.5
902.2761	1652.5181	1170.1	285.35
902.4179	1654.2604	1174.45	288.45
902.5598	1656.0019	1176.6	290.6
902.7016	1657.7427	1182.05	296.85
902.8434	1659.4828	1192.25	306.3
902.9852	1661.222	1207.05	319.6
903.127	1662.9606	1224.85	339.65
903.2687	1664.6984	1249.45	362.3
903.4105	1666.4354	1255.05	368.75
903.5522	1668.1717	1253.3	368.35
903.6939	1669.9072	1229.15	343.6
903.8356	1671.642	1203.45	318.35
903.9773	1673.3761	1182.6	297.1
904.119	1675.1094	1161.1	275.35
904.2606	1676.8419	1149.5	263.35
904.4022	1678.5737	1136.9	250.65
904.5439	1680.3048	1132.2	248
904.6855	1682.0351	1126.6	241.55
904.827	1683.7646	1127.35	238.6
904.9686	1685.4934	1115.2	227.95
905.1101	1687.2215	1121.3	232.8
905.2517	1688.9488	1114	227.95
905.3932	1690.6754	1108.85	223.35
905.5347	1692.4012	1111.05	227.2
905.6761	1694.1263	1111	226.6
905.8176	1695.8506	1109.45	223.35
905.9591	1697.5742	1104.6	217.25
906.1005	1699.297	1101.75	215.55
906.2419	1701.0191	1102.65	216.35
906.3833	1702.7404	1100.75	214.45
906.5246	1704.461	1099.55	212.65
906.666	1706.1808	1094.75	207.4
906.8073	1707.8999	1097.15	210.45
906.9487	1709.6182	1092.55	205.6
907.09	1711.3358	1094.7	209.8
907.2313	1713.0527	1094.55	208.55
907.3725	1714.7688	1097.45	206.75
907.5138	1716.4841	1090.65	203.3
907.655	1718.1987	1092.45	200.45
907.7962	1719.9126	1088.2	204.05
907.9374	1721.6257	1090.75	199.95
908.0786	1723.338	1085.6	200.35
908.2198	1725.0496	1084	196.45
908.3609	1726.7605	1087.25	201.2
908.502	1728.4706	1086.55	200.35
908.6431	1730.18	1089.8	201.7
908.7842	1731.8886	1081.25	194.7
908.9253	1733.5964	1108.9	203.45
909.0664	1735.3036	1086.9	196.05
909.2074	1737.0099	1081.7	195.4
909.3484	1738.7156	1080.6	195.35
909.4894	1740.4204	1082.65	195.1
909.6304	1742.1246	1080.05	192.9
909.7714	1743.8279	1081.7	194.8
909.9123	1745.5306	1079.85	193.5
910.0532	1747.2325	1080.45	194.75
910.1941	1748.9336	1080.05	194.4
910.335	1750.634	1080.25	194.35
910.4759	1752.3336	1080.1	193.75
910.6168	1754.0325	1075.45	189.15
910.7576	1755.7307	1076.55	189.2
910.8984	1757.4281	1074.05	189.2
911.0392	1759.1247	1086.35	193.1
911.18	1760.8206	1080.1	187.6
911.3208	1762.5158	1078.6	188.6
911.4615	1764.2102	1072.2	187.4
911.6022	1765.9039	1068.85	181.95
911.7429	1767.5968	1073.35	189.15
911.8836	1769.289	1072.45	185.2
912.0243	1770.9804	1077.05	191
912.1649	1772.6711	1072.15	185.7
912.3056	1774.361	1070.4	186.6
912.4462	1776.0502	1074.25	187.5
912.5868	1777.7386	1077	187.95
912.7274	1779.4263	1069.65	184.2
912.8679	1781.1132	1073.25	185.4
913.0084	1782.7994	1072.25	185.3
913.149	1784.4849	1068.85	182.95
913.2895	1786.1696	1082.15	177
913.4299	1787.8535	1066.85	181.6
913.5704	1789.5367	1066.85	180.9
913.7108	1791.2192	1068.55	180.9
913.8513	1792.9009	1078.6	178.95
913.9917	1794.5818	1066.05	177
914.132	1796.2621	1063.8	179.65
914.2724	1797.9415	1064.15	178.65
914.4128	1799.6202	1056.9	169.6
914.5531	1801.2982	1061.3	177.45
914.6934	1802.9755	1063.85	176.2
914.8337	1804.6519	1064.1	179.2
914.9739	1806.3277	1059	173
915.1142	1808.0027	1059.1	174.05
915.2544	1809.6769	1057.7	172.35
915.3946	1811.3504	1063.25	176.85
915.5348	1813.0231	1060.75	172.3
915.675	1814.6951	1058.6	173.05
915.8151	1816.3664	1057.55	168.5
915.9553	1818.0369	1061.6	175.7
916.0954	1819.7067	1056.85	171.25
916.2355	1821.3757	1056	166.15
916.3755	1823.044	1058.85	173.85
916.5156	1824.7115	1060.65	172.5
916.6556	1826.3783	1057.6	172.2
916.7956	1828.0443	1052.95	167.9
916.9356	1829.7096	1057.3	168.7
917.0756	1831.3741	1056.7	168.05
917.2155	1833.0379	1051.95	164.05
917.3555	1834.701	1053.6	166.9
917.4954	1836.3633	1056.1	167.75
917.6353	1838.0248	1053.35	165.65
917.7751	1839.6856	1049.35	163.4
917.915	1841.3457	1054.35	169.65
918.0548	1843.005	1053.05	168.05
918.1946	1844.6636	1046.75	160.85
918.3344	1846.3214	1054.95	167.45
918.4742	1847.9785	1050.25	165.6
918.6139	1849.6349	1052.35	163.2
918.7537	1851.2904	1058.7	164.5
918.8934	1852.9453	1050.4	164.95
919.0331	1854.5994	1050.3	161.35
919.1727	1856.2528	1047	154.75
919.3124	1857.9054	1047.85	161.5
919.452	1859.5572	1048.85	164.1
919.5916	1861.2083	1045.95	157.45
919.7312	1862.8587	1048.95	163.3
919.8708	1864.5084	1044.4	157.95
920.0103	1866.1572	1046.95	158.95
920.1498	1867.8054	1042.45	158.8
920.2893	1869.4528	1041.95	154.6
920.4288	1871.0994	1044.85	158
920.5683	1872.7453	1042.75	157.95
920.7077	1874.3905	1047.5	151.95
920.8471	1876.0349	1045.85	158.85
920.9865	1877.6786	1042.7	155.3
921.1259	1879.3215	1042.45	154.95
921.2653	1880.9637	1042.8	154
921.4046	1882.6051	1039.95	153.95
921.5439	1884.2458	1048.35	159.8
921.6832	1885.8858	1041.75	153.8
921.8225	1887.525	1041.4	152.3
921.9617	1889.1634	1041.8	155.9
922.101	1890.8011	1040.75	154.65
922.2402	1892.4381	1038.95	150.4
922.3794	1894.0743	1041.3	156.9
922.5185	1895.7098	1036.1	147.7
922.6577	1897.3446	1037.05	147.5
922.7968	1898.9786	1043.6	152.45
922.9359	1900.6118	1036.25	151.35
923.075	1902.2443	1039.3	150.95
923.214	1903.8761	1036	149.85
923.3531	1905.5071	1038	149.8
923.4921	1907.1374	1032.65	145.9
923.6311	1908.7669	1034.8	147.55
923.77	1910.3957	1034.65	149.85
923.909	1912.0237	1033.35	147.1
924.0479	1913.651	1036.05	148.65
924.1868	1915.2776	1029.8	145.25
924.3257	1916.9034	1033.45	147.9
924.4646	1918.5285	1032.4	147.95
924.6034	1920.1528	1033.05	145.6
924.7422	1921.7764	1029.4	139.9
924.881	1923.3992	1027.9	144.1
925.0198	1925.0213	1029.45	143
925.1586	1926.6427	1028.7	142.8
925.2973	1928.2633	1144.75	143.45
925.436	1929.8832	1033	144.2
925.5747	1931.5023	1029.7	144.35
925.7134	1933.1207	1026.25	139.1
925.852	1934.7383	1027.05	138.4
925.9906	1936.3552	1027.3	139.75
926.1292	1937.9714	1029.3	141.7
926.2678	1939.5868	1031.1	144.55
926.4064	1941.2015	1026.35	136.85
926.5449	1942.8154	1028.3	142.5
926.6834	1944.4286	1028.8	141.05
926.8219	1946.041	1042.75	132.7
926.9604	1947.6528	1029.1	138.9
927.0988	1949.2637	1020.9	133.5
927.2372	1950.8739	1024.7	137.35
927.3756	1952.4834	1024.3	137.95
927.514	1954.0921	1026.15	137.35
927.6523	1955.7001	1027.55	137.3
927.7907	1957.3074	1021.05	135.8
927.929	1958.9139	1023.3	137.45
928.0673	1960.5197	1026.15	136.35
928.2055	1962.1247	1020.25	132.5
928.3438	1963.729	1017.55	132.1
928.482	1965.3325	1041.85	131.4
928.6202	1966.9353	1023.55	138.95
928.7584	1968.5374	1023.05	136.2
928.8965	1970.1387	1019.25	132.65
929.0346	1971.7393	1016.8	128.9
929.1727	1973.3392	1018.55	132.35
929.3108	1974.9383	1021.9	135.45
929.4489	1976.5366	1018.25	132.45
929.5869	1978.1342	1019.05	129.4
929.7249	1979.7311	1016.5	127.5
929.8629	1981.3273	1020.4	131.4
930.0009	1982.9227	1019.4	131.7
930.1388	1984.5173	1018.55	132.55
930.2767	1986.1112	1018.95	130.35
930.4146	1987.7044	1015.35	129.65
930.5525	1989.2968	1016.1	127.95
930.6904	1990.8885	1019.85	129.15
930.8282	1992.4795	1018.65	130.2
930.966	1994.0697	1017.25	128.3
931.1038	1995.6592	1016.15	132.5
931.2415	1997.2479	1016.1	128.4
931.3793	1998.8359	1013.75	126.4
931.517	2000.4232	1012.15	124.8
931.6547	2002.0097	1012.35	125.55
931.7923	2003.5955	1017.95	129.45
931.93	2005.1805	1014.85	126.75
932.0676	2006.7648	1015.15	129.45
932.2052	2008.3484	1014.25	126.05
932.3427	2009.9312	1012.05	122.7
932.4803	2011.5133	1008.85	122.8
932.6178	2013.0946	1014.5	126.9
932.7553	2014.6752	1010.65	124.8
932.8928	2016.2551	1012.35	125.4
933.0302	2017.8342	1008.2	120.75
933.1676	2019.4126	1008.85	121.75
933.305	2020.9902	1011.9	125.45
933.4424	2022.5672	1011.5	122.35
933.5798	2024.1433	1020.8	127.75
933.7171	2025.7188	1009.85	123.9
933.8544	2027.2935	1011.95	124.55
933.9917	2028.8674	1009	120.9
934.129	2030.4406	1010.6	124.85
934.2662	2032.0131	1008.6	122.9
934.4034	2033.5849	1011.2	118.9
934.5406	2035.1559	1010.35	122.4
934.6778	2036.7261	1009.8	125.45
934.8149	2038.2957	1006.6	121.45
934.952	2039.8645	1009.3	123.65
935.0891	2041.4325	1010.4	122.45
935.2262	2042.9998	1007.1	119.6
935.3632	2044.5664	1008.95	120.75
935.5002	2046.1323	1007.1	120.55
935.6372	2047.6974	1008.65	121.45
935.7742	2049.2617	1011	125.1
935.9111	2050.8254	1036.65	118.45
936.048	2052.3883	1011.45	122.35
936.1849	2053.9504	1008.95	121.35
936.3218	2055.5118	1007.8	120.9
936.4586	2057.0725	1015.3	125.25
936.5955	2058.6325	1006.15	118.45
936.7323	2060.1917	1005.75	120.6
936.869	2061.7502	1006.8	117.35
937.0058	2063.3079	1004.7	118.05
937.1425	2064.8649	1006.9	114.35
937.2792	2066.4212	1007.5	120.75
937.4159	2067.9767	1005.35	118.85
937.5525	2069.5315	1003.55	115.5
937.6891	2071.0856	1005.4	118.85
937.8257	2072.6389	1007.8	120.1
937.9623	2074.1915	1003.35	115.3
938.0989	2075.7433	1003.8	113.4
938.2354	2077.2945	1002.3	116.7
938.3719	2078.8448	1005.75	119.7
938.5084	2080.3945	1000.75	114.15
938.6448	2081.9434	1002.35	114.75
938.7812	2083.4916	1004.55	116.8
938.9176	2085.039	1003.55	114.25
939.054	2086.5857	1004.5	118
939.1903	2088.1317	1002.55	115.35
939.3267	2089.677	1003.6	118.1
939.463	2091.2215	1002.4	115.95
939.5992	2092.7652	1000.9	113.75
939.7355	2094.3083	1000.25	113.55
939.8717	2095.8506	1000.8	114.95
940.0079	2097.3921	998.1	111.4
940.1441	2098.933	1001.5	114.5
940.2802	2100.4731	1000.45	113.2
940.4163	2102.0124	1011.7	118.25
940.5524	2103.5511	1000.3	113.05
940.6885	2105.089	1004.5	119
940.8245	2106.6261	999.35	112.3
940.9606	2108.1626	1001.9	114.85
941.0965	2109.6983	1027.35	113.4
941.2325	2111.2332	1001.85	113.5
941.3684	2112.7675	1001.95	115.75
941.5044	2114.301	1000.35	111.25
941.6403	2115.8337	1001.45	116.1
941.7761	2117.3657	1002.7	116.75
941.912	2118.897	999.75	113.05
942.0478	2120.4276	1007.1	113.6
942.1835	2121.9575	1002.05	115.2
942.3193	2123.4866	1014.35	114.05
942.455	2125.0149	1005.45	115.85
942.5907	2126.5426	999.8	112.3
942.7264	2128.0695	999.3	107.7
942.8621	2129.5956	998.45	114.65
942.9977	2131.1211	1004.35	113.85
943.1333	2132.6458	1001.5	115.6
943.2689	2134.1698	996.3	110.7
943.4044	2135.693	1000.7	111.25
943.54	2137.2155	1000.85	111.1
943.6755	2138.7373	998.15	110.35
943.8109	2140.2584	998.15	112.15
943.9464	2141.7787	1005.65	113.1
944.0818	2143.2983	995.65	109.1
944.2172	2144.8171	998.8	115.55
944.3526	2146.3353	1000.95	111.55
944.4879	2147.8527	997.7	111.25
944.6232	2149.3693	1002.25	115.45
944.7585	2150.8853	997	109.05
944.8938	2152.4005	997.25	109.9
945.029	2153.9149	996.95	108.4
945.1642	2155.4287	998.3	109.8
945.2994	2156.9417	998.45	110.4
945.4346	2158.454	1000.25	110.85
945.5697	2159.9655	997.95	112.75
945.7048	2161.4764	996.6	110.3
945.8399	2162.9865	994.25	107.45
945.9749	2164.4958	994.95	106.1
946.1099	2166.0045	997.6	108.05
946.2449	2167.5124	997.7	112.75
946.3799	2169.0195	996.15	109.45
946.5148	2170.526	997.1	109.4
946.6498	2172.0317	996.25	108
946.7846	2173.5367	996.35	107.6
946.9195	2175.0409	995.25	109.1
947.0543	2176.5445	992.1	105.5
947.1891	2178.0473	996.7	109.75
947.3239	2179.5494	999.45	108.8
947.4587	2181.0507	992.8	106.9
947.5934	2182.5513	993.4	106.45
947.7281	2184.0512	993	107.25
947.8628	2185.5504	993	107.2
947.9974	2187.0488	993.5	106.85
948.132	2188.5465	992	106.6
948.2666	2190.0435	991.9	104.3
948.4012	2191.5397	992.6	105.4
948.5357	2193.0353	989.95	104.15
948.6702	2194.5301	991.45	104
948.8047	2196.0241	989.4	102.25
948.9392	2197.5175	989.95	102.2
949.0736	2199.0101	995.55	103.7
949.208	2200.502	991.65	107.55
949.3424	2201.9931	990.3	106.1
949.4767	2203.4835	988.75	100.1
949.611	2204.9733	995.2	103.2
949.7453	2206.4622	993.65	105.75
949.8796	2207.9505	992.85	103.2
950.0138	2209.438	987.95	101.8
950.148	2210.9248	990.7	101.7
950.2822	2212.4109	989.55	104.4
950.4164	2213.8962	988.35	97.55
950.5505	2215.3809	986.05	97.65
950.6846	2216.8648	989.4	103.15
950.8186	2218.3479	989.7	98.25
950.9527	2219.8304	988.5	98.45
951.0867	2221.3121	988.75	100.95
951.2207	2222.7931	983.35	95.95
951.3546	2224.2733	987.8	100.5
951.4886	2225.7529	987.65	101.3
951.6225	2227.2317	986.55	97.8
951.7563	2228.7098	984.75	98.3
951.8902	2230.1872	983.65	95.3
952.024	2231.6638	987.9	100.25
952.1578	2233.1397	990	99
952.2916	2234.6149	981.75	94.75
952.4253	2236.0894	983.85	96.75
952.559	2237.5632	994.3	99.2
952.6927	2239.0362	984.6	97.4
952.8263	2240.5085	985.1	96.75
952.9599	2241.9801	983.1	96.6
953.0935	2243.4509	981.3	94.1
953.2271	2244.921	985.15	98.25
953.3606	2246.3904	984.8	96.25
953.4941	2247.8591	977.6	92.15
953.6276	2249.3271	982.8	97.35
953.7611	2250.7943	983.35	96.15
953.8945	2252.2608	980.1	93.25
954.0279	2253.7266	978.5	93
954.1612	2255.1917	982.15	95.3
954.2946	2256.656	978.65	89
954.4279	2258.1197	981.65	95.1
954.5612	2259.5826	981.9	93.15
954.6944	2261.0447	983.95	97.1
954.8276	2262.5062	982.7	93.35
954.9608	2263.9669	980.7	92.45
955.094	2265.4269	977.95	91.15
955.2271	2266.8862	976.5	89.45
955.3602	2268.3448	982.2	94.85
955.4933	2269.8026	979.95	91.9
955.6264	2271.2598	978.2	91.95
955.7594	2272.7162	974.85	89.3
955.8924	2274.1719	980.65	94.05
956.0253	2275.6268	977.5	91.7
956.1583	2277.0811	981.6	94.75
956.2912	2278.5346	977.35	89.9
956.4241	2279.9874	977.35	92.25
956.5569	2281.4395	975.85	87.55
956.6897	2282.8908	981.95	91.4
956.8225	2284.3414	978.55	90.65
956.9553	2285.7914	975.45	90.05
957.088	2287.2406	978.25	90.2
957.2207	2288.689	977.3	91.55
957.3534	2290.1368	977.4	89.45
957.486	2291.5838	976.9	89.35
957.6186	2293.0302	974.35	87.9
957.7512	2294.4758	973.45	88.4
957.8838	2295.9206	976.45	88.8
958.0163	2297.3648	974.15	86.55
958.1488	2298.8082	975.3	88.3
958.2813	2300.251	975.7	88.4
958.4137	2301.693	974.65	86
958.5461	2303.1343	976.2	89.55
958.6785	2304.5748	975.8	88.65
958.8108	2306.0147	976	89.3
958.9432	2307.4538	976.7	85.7
959.0754	2308.8922	969.8	83.75
959.2077	2310.3299	970.9	84.9
959.3399	2311.7669	971.7	85.2
959.4721	2313.2031	973.1	87.5
959.6043	2314.6387	974	88.4
959.7365	2316.0735	974.25	86.6
959.8686	2317.5076	970.95	84.55
960.0006	2318.941	971	83.55
960.1327	2320.3737	969.5	80.8
960.2647	2321.8056	973.1	83.15
960.3967	2323.2369	973.85	88.85
960.5287	2324.6674	978.15	87.65
960.6606	2326.0972	975.95	86.65
960.7925	2327.5263	977.4	93.3
960.9244	2328.9547	980.35	92.55
961.0562	2330.3823	979.05	92
961.1881	2331.8092	975.6	87.55
961.3198	2333.2355	969.55	83.55
961.4516	2334.661	972.3	86.55
961.5833	2336.0858	970.65	82.5
961.715	2337.5098	968.75	82.2
961.8467	2338.9332	972.45	85.8
961.9783	2340.3558	973.55	83.5
962.1099	2341.7778	969.75	82.35
962.2415	2343.199	968.55	79.4
962.373	2344.6195	969.75	82.8
962.5045	2346.0393	966.75	81.4
962.636	2347.4583	967.05	79.35
962.7675	2348.8767	966.15	79.2
962.8989	2350.2943	968.05	80.35
963.0303	2351.7113	970.3	83.9
963.1617	2353.1275	969	81.75
963.293	2354.543	974.6	77.95
963.4243	2355.9578	967.15	80.4
963.5556	2357.3718	964.85	77.1
963.6868	2358.7852	967.1	78.6
963.818	2360.1978	968.45	80.75
963.9492	2361.6098	963.9	79.4
964.0803	2363.021	968.35	77.4
964.2114	2364.4315	966.15	80
964.3425	2365.8413	966.9	77.95
964.4736	2367.2504	962.3	76.3
964.6046	2368.6587	966.35	80.2
964.7356	2370.0664	961.15	74.85
964.8666	2371.4733	964.7	77.5
964.9975	2372.8795	963.05	77.75
965.1284	2374.285	965.15	78.1
965.2593	2375.6899	964.55	77.6
965.3901	2377.0939	959.15	71.95
965.5209	2378.4973	963.25	79.4
965.6517	2379.9	961.55	74.1
965.7825	2381.3019	961.4	74.3
965.9132	2382.7032	963.5	78.2
966.0439	2384.1037	959.5	74.6
966.1745	2385.5035	962.8	74.95
966.3051	2386.9027	961.7	74.9
966.4357	2388.3011	966.45	77.15
966.5663	2389.6987	960.1	72.55
966.6968	2391.0957	959.9	73.05
966.8273	2392.492	961.3	76.15
966.9578	2393.8876	959.85	73.15
967.0882	2395.2824	959.65	72.4
967.2186	2396.6765	956.9	71.8
967.349	2398.07	958.55	71.55
967.4793	2399.4627	963.15	74.5
967.6097	2400.8547	959.4	71.95
967.7399	2402.246	963.55	68.65
967.8702	2403.6366	959.85	72.6
968.0004	2405.0265	959.9	72.85
968.1306	2406.4156	963.9	73.1
968.2607	2407.8041	961.05	71.35
968.3909	2409.1918	960.25	72.5
968.521	2410.5789	955.05	67.95
968.651	2411.9652	956.75	66.5
968.781	2413.3508	955.8	69.1
968.911	2414.7358	956.8	67.5
969.041	2416.12	957.35	70.5
969.1709	2417.5035	955.2	68.5
969.3008	2418.8863	957.65	69.5
969.4307	2420.2684	955.45	67.55
969.5606	2421.6497	953.05	65.7
969.6904	2423.0304	952.4	66.05
969.8201	2424.4104	957.05	72.25
969.9499	2425.7896	959.4	65.7
970.0796	2427.1682	952.2	65.65
970.2093	2428.546	955.85	67.95
970.3389	2429.9232	956.75	66.8
970.4685	2431.2996	951.65	65.55
970.5981	2432.6753	953.9	67.25
970.7277	2434.0503	954.35	68
970.8572	2435.4246	951.25	64.5
970.9867	2436.7982	955.1	65.7
971.1161	2438.1711	955	69.65
971.2456	2439.5433	953.8	67.55
971.375	2440.9148	957.2	64.9
971.5043	2442.2856	954.45	66.05
971.6336	2443.6557	953.25	63.55
971.7629	2445.025	949.25	62.15
971.8922	2446.3937	953.7	66.2
972.0214	2447.7617	949.6	62.05
972.1506	2449.1289	949.55	62.3
972.2798	2450.4955	953.95	63.2
972.4089	2451.8613	952.3	66
972.538	2453.2265	950.35	63.2
972.6671	2454.5909	954.65	68.55
972.7961	2455.9546	947.4	60.8
972.9251	2457.3177	949.9	63.85
973.0541	2458.68	950.6	62.8
973.1831	2460.0416	950.45	65.05
973.312	2461.4025	948.35	60.65
973.4408	2462.7627	958.8	61.15
973.5697	2464.1222	949.25	63.45
973.6985	2465.4811	949.9	62.25
973.8273	2466.8392	950.55	64.5
973.956	2468.1966	952.75	63.65
974.0847	2469.5533	951.25	61.8
974.2134	2470.9093	952.1	64
974.3421	2472.2645	950.15	60.55
974.4707	2473.6191	951.15	64.45
974.5993	2474.973	949.3	61.75
974.7278	2476.3262	946.1	56.55
974.8563	2477.6787	946.1	60.35
974.9848	2479.0305	951.8	66.65
975.1132	2480.3816	950.05	61.8
975.2417	2481.7319	949.15	61.95
975.37	2483.0816	951.25	62.15
975.4984	2484.4306	949.25	61.4
975.6267	2485.7789	946.05	60.55
975.755	2487.1264	951.35	62.8
975.8833	2488.4733	944.2	57.5
976.0115	2489.8195	966.6	63.25
976.1397	2491.165	948.15	54.75
976.2678	2492.5097	950.65	62.9
976.3959	2493.8538	944.45	57.25
976.524	2495.1972	947.85	63.2
976.6521	2496.5398	949.55	60.55
976.7801	2497.8818	948.4	60.95
976.9081	2499.2231	947.3	59.6
977.036	2500.5637	948.1	58.35
977.164	2501.9035	945.1	57.2
977.2918	2503.2427	950.75	61.65
977.4197	2504.5812	942.55	54.9
977.5475	2505.919	948.65	59.45
977.6753	2507.256	946.1	60.25
977.8031	2508.5924	946.7	59.85
977.9308	2509.9281	949.4	54.8
978.0585	2511.2631	943.2	55.9
978.1861	2512.5974	943.9	57.85
978.3137	2513.9309	944.15	57.9
978.4413	2515.2638	974.95	56.1
978.5689	2516.596	944.6	58
978.6964	2517.9275	943.8	55.25
978.8239	2519.2583	941.95	53.7
978.9513	2520.5884	945.2	57.95
979.0788	2521.9178	943.5	54.25
979.2062	2523.2465	940.85	54
979.3335	2524.5745	942.8	55.75
979.4608	2525.9018	945.1	59.7
979.5881	2527.2284	942.8	57.55
979.7154	2528.5543	942.45	56.6
979.8426	2529.8796	940.9	51.85
979.9698	2531.2041	941.65	53.6
980.0969	2532.5279	940.2	53.85
980.224	2533.851	940.6	51.8
980.3511	2535.1735	941.6	55.15
980.4781	2536.4952	941.45	54.8
980.6052	2537.8163	940.9	53.15
980.7321	2539.1366	938.95	52.4
980.8591	2540.4562	945.65	56.15
980.986	2541.7752	939.7	55.4
981.1129	2543.0935	939	52.8
981.2397	2544.411	943.15	56.4
981.3665	2545.7279	941.45	54.6
981.4933	2547.0441	939.8	52.35
981.62	2548.3596	940.35	51.4
981.7467	2549.6744	939.5	52.55
981.8734	2550.9885	943.45	54.1
982.0001	2552.3019	938.15	51.75
982.1267	2553.6146	940.35	54.55
982.2532	2554.9266	939.85	51.55
982.3798	2556.2379	938.6	48.85
982.5063	2557.5485	939.45	55.6
982.6327	2558.8585	945.65	50.95
982.7592	2560.1677	942.65	51
982.8856	2561.4762	937.25	50.75
983.0119	2562.7841	941.9	49.95
983.1383	2564.0913	932.9	49.1
983.2646	2565.3977	936.6	49.7
983.3908	2566.7035	936.4	51.15
983.517	2568.0086	940.2	51.55
983.6432	2569.313	940.5	53.85
983.7694	2570.6167	939.25	48.35
983.8955	2571.9197	939.3	53.8
984.0216	2573.222	939.95	50.8
984.1476	2574.5236	936.2	48.15
984.2737	2575.8246	940.5	51.55
984.3996	2577.1248	941.95	52.9
984.5256	2578.4244	935.95	50.4
984.6515	2579.7232	937.75	51.15
984.7774	2581.0214	968.55	52.5
984.9032	2582.3189	936.3	50.15
985.029	2583.6157	943.65	52.95
985.1548	2584.9118	937.9	48.95
985.2806	2586.2072	937.4	51.85
985.4063	2587.5019	934.55	48.65
985.5319	2588.7959	936.95	49.1
985.6576	2590.0893	938.4	50.35
985.7832	2591.3819	934.4	48.3
985.9087	2592.6739	934.7	47.05
986.0343	2593.9652	937.2	48.7
986.1597	2595.2557	937.55	48.85
986.2852	2596.5456	939.45	51.7
986.4106	2597.8348	934.65	47.65
986.536	2599.1234	935.1	51.25
986.6614	2600.4112	938.5	51.8
986.7867	2601.6983	941.1	50.05
986.912	2602.9848	936.35	48.15
987.0372	2604.2705	944	52.05
987.1624	2605.5556	937.4	50.35
987.2876	2606.84	934.3	47.8
987.4128	2608.1237	936.75	47.65
987.5379	2609.4067	936.65	48.15
987.6629	2610.689	944.95	48.9
987.788	2611.9707	937.95	48.95
987.913	2613.2516	938.25	48.1
988.0379	2614.5319	935	47.4
988.1629	2615.8115	935.5	46.65
988.2878	2617.0903	935.4	49.15
988.4126	2618.3685	935.7	47.7
988.5375	2619.6461	931.35	43.7
988.6622	2620.9229	933.05	47.15
988.787	2622.199	933.55	47.1
988.9117	2623.4745	934.6	46.45
989.0364	2624.7493	933.85	48.8
989.161	2626.0234	930.5	44.35
989.2857	2627.2968	930.3	42.7
989.4102	2628.5695	932.7	42.65
989.5348	2629.8415	931.4	45
989.6593	2631.1128	933.65	44.85
989.7837	2632.3835	930.95	43.45
989.9082	2633.6535	930.45	43.75
990.0326	2634.9228	931.05	44.4
990.1569	2636.1914	931.75	43.75
990.2812	2637.4593	937.5	44.15
990.4055	2638.7265	933.45	43.95
990.5298	2639.9931	929.85	43.5
990.654	2641.259	932.35	43.4
990.7782	2642.5242	930.2	42.9
990.9023	2643.7887	929.7	42.6
991.0264	2645.0525	930.2	44.55
991.1505	2646.3156	930.4	40.8
991.2745	2647.5781	929.25	45.1
991.3985	2648.8398	927.75	43.35
991.5225	2650.1009	965.65	41.85
991.6464	2651.3613	931.25	44.25
991.7703	2652.6211	931.65	45.6
991.8942	2653.8801	929.2	43.45
992.018	2655.1385	933.5	44.35
992.1418	2656.3961	929.15	43.5
992.2655	2657.6531	929.1	42.65
992.3892	2658.9094	927.45	40.7
992.5129	2660.1651	928.8	40.2
992.6366	2661.42	927.55	39.7
992.7602	2662.6743	928.95	41.65
992.8837	2663.9279	926.45	39.7
993.0073	2665.1808	929.55	41.35
993.1307	2666.433	928.5	40.6
993.2542	2667.6846	927.95	42.5
993.3776	2668.9354	933.3	45.1
993.501	2670.1856	931.7	44.3
993.6244	2671.4351	931.55	44.8
993.7477	2672.6839	930.95	44.1
993.8709	2673.9321	926.8	38.35
993.9942	2675.1795	928.1	39.4
994.1174	2676.4263	928.2	40.4
994.2405	2677.6724	926.4	40.1
994.3637	2678.9179	929.35	39.45
994.4868	2680.1626	929.7	42.95
994.6098	2681.4067	929.2	42.65
994.7328	2682.6501	927.05	41.8
994.8558	2683.8928	927.2	39.85
994.9788	2685.1348	927.5	42.95
995.1017	2686.3761	926.15	37.4
995.2245	2687.6168	927.85	42.25
995.3474	2688.8568	927.5	41.8
995.4702	2690.0961	925.55	39.8
995.5929	2691.3348	926.9	40.9
995.7156	2692.5727	927.35	38.65
995.8383	2693.81	927	38.35
995.961	2695.0466	925	39.2
996.0836	2696.2826	927.6	39.55
996.2062	2697.5178	928.85	39
996.3287	2698.7524	927.7	38.35
996.4512	2699.9863	925.3	36.05
996.5737	2701.2195	924.8	37.9
996.6961	2702.452	925.5	37.9
996.8185	2703.6839	927.2	39.2
996.9408	2704.9151	925.9	38.95
997.0631	2706.1456	926	38.3
997.1854	2707.3755	927.15	40.1
997.3077	2708.6046	927.7	37.55
997.4299	2709.8331	927.3	39.2
997.552	2711.0609	927.5	40.8
997.6742	2712.2881	926.5	38.35
997.7963	2713.5145	934	44.7
997.9183	2714.7403	926.95	40.55
998.0403	2715.9654	928.25	40.35
998.1623	2717.1899	930.55	42.3
998.2842	2718.4136	928.95	41.8
998.4062	2719.6367	929.85	41.55
998.528	2720.8591	936.55	44.3
998.6498	2722.0809	930.95	43
998.7716	2723.3019	932.65	40.65
998.8934	2724.5223	932.65	44
999.0151	2725.7421	932.45	42.75
999.1368	2726.9611	932.15	41.9
999.2584	2728.1795	935.6	42.75
999.38	2729.3972	931.85	44.75
999.5016	2730.6142	942.9	43.45
999.6231	2731.8306	927.8	39.7
999.7446	2733.0462	928.05	40
999.8661	2734.2612	929.9	35.9
999.9875	2735.4756	928.8	39.35
1000.1089	2736.6892	925	38.35
1000.2302	2737.9022	925.35	40.75
1000.3515	2739.1145	923.25	35.2
1000.4728	2740.3262	932.95	35.95
1000.594	2741.5372	925.2	40.4
1000.7152	2742.7475	923.75	35.95
1000.8363	2743.9571	922.25	32.7
1000.9575	2745.1661	928.45	39.25
1001.0785	2746.3744	924.15	35.2
1001.1996	2747.582	922.25	34.8
1001.3206	2748.7889	922.75	36.9
1001.4415	2749.9952	921.2	35.2
1001.5625	2751.2008	919.1	31.2
1001.6833	2752.4057	922.1	31.85
1001.8042	2753.61	921.95	35.45
1001.925	2754.8136	921.95	32.95
1002.0458	2756.0165	919.55	32.8
1002.1665	2757.2188	917.8	30.6
1002.2872	2758.4204	919.55	32.7
1002.4078	2759.6213	923.45	33.95
1002.5285	2760.8215	924.25	29
1002.649	2762.0211	921.95	31.9
1002.7696	2763.22	924.95	34.2
1002.8901	2764.4182	920.35	31.7
1003.0106	2765.6158	919.25	32.55
1003.131	2766.8127	920.95	33.95
1003.2514	2768.009	921.6	34.85
1003.3717	2769.2045	919.9	31.95
1003.492	2770.3994	921.25	33.5
1003.6123	2771.5936	919.1	30.15
1003.7325	2772.7872	917.6	31.9
1003.8527	2773.9801	919.65	30.25
1003.9729	2775.1723	933.9	31.15
1004.093	2776.3639	915.85	29.85
1004.2131	2777.5548	918	29.8
1004.3331	2778.745	918.35	29.95
1004.4531	2779.9346	916.35	29.8
1004.5731	2781.1235	917.75	29.1
1004.693	2782.3117	916.55	29.15
1004.8129	2783.4992	917	30.1
1004.9328	2784.6861	917.05	29.8
1005.0526	2785.8723	917.4	29.4
1005.1723	2787.0579	919.4	32.55
1005.2921	2788.2428	915.9	27.65
1005.4118	2789.427	917	30
1005.5314	2790.6106	916.3	27.4
1005.651	2791.7935	916.4	28.85
1005.7706	2792.9757	916.1	30.75
1005.8902	2794.1573	919.1	29
1006.0097	2795.3382	918.15	30.45
1006.1291	2796.5184	917.3	31.95
1006.2485	2797.698	918.9	28.4
1006.3679	2798.8769	917.85	29.75
1006.4873	2800.0551	919	29.4
1006.6066	2801.2327	920.05	30.05
1006.7258	2802.4096	917.2	30.5
1006.8451	2803.5859	918.5	31.45
1006.9642	2804.7615	917.95	30.9
1007.0834	2805.9364	917.8	32.65
1007.2025	2807.1106	919	30.65
1007.3216	2808.2842	918.45	32.35
1007.4406	2809.4572	918.85	32.05
1007.5596	2810.6294	920.3	32.15
1007.6785	2811.801	916.6	30.05
1007.7975	2812.972	921.9	34.85
1007.9163	2814.1423	924.1	38.1
1008.0352	2815.3119	922.6	35.8
1008.154	2816.4808	924.55	38.9
1008.2727	2817.6491	927.35	41.4
1008.3914	2818.8167	926.25	38.95
1008.5101	2819.9837	938.4	47.15
1008.6288	2821.15	935.6	47.2
1008.7474	2822.3157	933.1	44.65
1008.8659	2823.4807	940.3	52.2
1008.9844	2824.645	944.4	55.1
1009.1029	2825.8086	951.5	66.5
1009.2214	2826.9716	951.5	64.45
1009.3398	2828.134	956.5	69.8
1009.4581	2829.2957	963	77.6
1009.5764	2830.4567	964.85	78.6
1009.6947	2831.617	969.75	81.6
1009.813	2832.7767	967.55	81
1009.9312	2833.9358	970.65	85.4
1010.0493	2835.0941	972.1	84.2
1010.1675	2836.2519	968.8	81.4
1010.2855	2837.4089	965.55	76.25
1010.4036	2838.5653	963.25	77.5
1010.5216	2839.7211	961.2	76.65
1010.6396	2840.8761	960.3	72.05
1010.7575	2842.0306	957.75	72.1
1010.8754	2843.1843	960.25	71.6
1010.9932	2844.3374	962.6	73.85
1011.111	2845.4899	961.2	74.8
1011.2288	2846.6417	963.4	76.05
1011.3465	2847.7928	963.1	77.95
1011.4642	2848.9433	960.5	74.6
1011.5818	2850.0931	962.4	76.35
1011.6995	2851.2422	964.4	75.3
1011.817	2852.3907	964.55	77.25
1011.9345	2853.5385	964.8	75.8
1012.052	2854.6857	993.2	79.05
1012.1695	2855.8323	965.8	78.3
1012.2869	2856.9781	964.35	77.95
1012.4042	2858.1233	966.25	80.7
1012.5216	2859.2679	976.25	89.25
1012.6389	2860.4118	972.25	87.7
1012.7561	2861.555	978.9	85.75
1012.8733	2862.6976	977.6	88.4
1012.9905	2863.8395	979	93.7
1013.1076	2864.9808	979.9	92.7
1013.2247	2866.1214	978.6	93.9
1013.3417	2867.2614	981.5	92.75
1013.4587	2868.4007	986.45	97.1
1013.5757	2869.5393	987.85	100.15
1013.6926	2870.6773	987.3	97.7
1013.8095	2871.8146	992.05	101.9
1013.9263	2872.9513	989.75	101.35
1014.0431	2874.0874	985.3	99.45
1014.1599	2875.2227	986.6	99.45
1014.2766	2876.3574	990.9	104
1014.3933	2877.4915	990.05	104.75
1014.51	2878.6249	992.4	106
1014.6266	2879.7577	996.3	107.65
1014.7431	2880.8898	1009.1	111.5
1014.8596	2882.0212	996	108.1
1014.9761	2883.152	999.85	112.3
1015.0925	2884.2821	995.6	109.8
1015.2089	2885.4116	1000.4	111.35
1015.3253	2886.5405	999.8	113.55
1015.4416	2887.6686	1006.85	117.55
1015.5579	2888.7962	1005.4	119.05
1015.6741	2889.923	1001.4	114.6
1015.7903	2891.0493	1000.35	115.2
1015.9065	2892.1748	1000.25	113.25
1016.0226	2893.2997	1004.1	116.9
1016.1387	2894.424	999.8	111.65
1016.2547	2895.5476	998.05	111.6
1016.3707	2896.6706	1003.35	115.65
1016.4866	2897.7929	1005.1	117.75
1016.6025	2898.9145	1001.05	113.85
1016.7184	2900.0355	1001.75	113.35
1016.8342	2901.1559	1000.05	111.7
1016.95	2902.2756	998.1	109.15
1017.0658	2903.3946	998.7	112.4
1017.1815	2904.513	998.65	108.7
1017.2971	2905.6308	997.45	110.15
1017.4127	2906.7479	998.85	112
1017.5283	2907.8643	995.45	106.75
1017.6439	2908.9801	999.05	112.05
1017.7594	2910.0953	999.6	111.9
1017.8748	2911.2098	995.7	103.55
1017.9902	2912.3236	1007.95	113.35
1018.1056	2913.4368	1001.35	110.75
1018.2209	2914.5494	996.6	108.2
1018.3362	2915.6613	1001.8	109
1018.4515	2916.7725	997.55	108.05
1018.5667	2917.8831	995.55	107.6
1018.6819	2918.9931	995.15	106.3
1018.797	2920.1024	987.9	98.45
1018.9121	2921.211	990.2	102.8
1019.0271	2922.319	987.8	98.55
1019.1421	2923.4264	989.3	103.45
1019.2571	2924.5331	983.1	97.35
1019.372	2925.6391	986.3	99.4
1019.4869	2926.7445	986.4	102
1019.6017	2927.8493	980.15	93
1019.7165	2928.9534	985.6	98.35
1019.8313	2930.0569	990.75	99
1019.946	2931.1597	984.65	97
1020.0606	2932.2619	985.05	99.55
1020.1753	2933.3634	989.65	103.45
1020.2899	2934.4643	992.65	96.15
1020.4044	2935.5645	993.35	99.55
1020.5189	2936.6641	995.55	103.85
1020.6334	2937.763	988.65	101.2
1020.7478	2938.8613	992.4	104.55
1020.8622	2939.959	997.9	106.1
1020.9765	2941.056	989.15	102.55
1021.0908	2942.1523	988.3	99.45
1021.2051	2943.248	982.7	95.65
1021.3193	2944.3431	973.3	89.25
1021.4334	2945.4375	973.4	83.95
1021.5476	2946.5313	969.45	83.2
1021.6617	2947.6244	965.75	77.35
1021.7757	2948.7169	961.3	73.5
1021.8897	2949.8087	957.9	71.75
1022.0037	2950.8999	952.1	64.2
1022.1176	2951.9904	949.15	63.25
1022.2315	2953.0803	947.6	57.15
1022.3453	2954.1696	943.9	56.65
1022.4591	2955.2582	943.65	58.3
1022.5728	2956.3462	939.8	54.25
1022.6865	2957.4335	939.95	53.05
1022.8002	2958.5202	941.1	51.3
1022.9138	2959.6062	942.65	57.8
1023.0274	2960.6916	939.5	54
1023.141	2961.7764	939.25	52.35
1023.2545	2962.8605	941.75	54.05
1023.3679	2963.9439	938.45	50.5
1023.4813	2965.0267	939.1	51.2
1023.5947	2966.1089	962.95	54.05
1023.708	2967.1905	939.45	50.6
1023.8213	2968.2714	939.55	52.4
1023.9346	2969.3516	936.65	50.8
1024.0478	2970.4312	943	48.85
1024.1609	2971.5102	937.2	50.3
1024.274	2972.5885	936.3	48.6
1024.3871	2973.6662	940.65	47.4
1024.5002	2974.7432	938.75	52.4
1024.6132	2975.8196	934.85	48.1
1024.7261	2976.8954	936.1	49.9
1024.839	2977.9705	933.85	47.2
1024.9519	2979.045	936	49.95
1025.0647	2980.1188	937.65	50.55
1025.1775	2981.192	936.25	50.65
1025.2902	2982.2645	936.85	47.45
1025.4029	2983.3364	936.7	46.85
1025.5156	2984.4077	934.55	46.7
1025.6282	2985.4783	938.2	47.7
1025.7407	2986.5483	931.85	44.6
1025.8532	2987.6177	929.55	43.1
1025.9657	2988.6864	930.2	43.15
1026.0782	2989.7545	929.15	39.75
1026.1906	2990.8219	925.5	38.95
1026.3029	2991.8887	928	39
1026.4152	2992.9548	924.7	36.8
1026.5275	2994.0204	919.25	33.1
1026.6397	2995.0852	920.05	35.15
1026.7519	2996.1495	920.2	34.75
1026.864	2997.2131	917.2	29.65
1026.9761	2998.276	916.8	31.45
1027.0882	2999.3383	916.55	28.6
1027.2002	3000.4	914.7	27.3
1027.3122	3001.4611	914.15	25.8
1027.4241	3002.5215	911.95	24.2
1027.536	3003.5812	913.5	26.6
1027.6478	3004.6404	909.3	22.5
1027.7596	3005.6989	911	21
1027.8714	3006.7567	909.9	23.4
1027.9831	3007.8139	938.6	21
1028.0947	3008.8705	910.9	24.5
1028.2064	3009.9264	922.4	18.3
1028.3179	3010.9818	905.5	17.55
1028.4295	3012.0364	908.1	20.25
1028.541	3013.0905	909.4	22.8
1028.6524	3014.1439	906.9	19.85
1028.7638	3015.1966	907.5	20.7
1028.8752	3016.2487	904.5	16.7
1028.9865	3017.3002	909.15	17.9
1029.0978	3018.3511	904.6	18.85
1029.209	3019.4013	904.65	17.3
1029.3202	3020.4509	906.2	19.45
1029.4314	3021.4998	906.55	19.1
1029.5425	3022.5481	906.05	20.3
1029.6535	3023.5958	906.55	21.1
1029.7645	3024.6428	905.4	15.8
1029.8755	3025.6892	904.35	18.35
1029.9864	3026.735	905.3	17.65
1030.0973	3027.7802	905.7	19.85
1030.2082	3028.8247	905.15	17
1030.319	3029.8685	904.2	13.95
1030.4297	3030.9118	904.8	18.5
1030.5404	3031.9544	904.1	19.1
1030.6511	3032.9963	904.8	17.75
1030.7617	3034.0376	902.3	16
1030.8723	3035.0783	909.7	18.35
1030.9829	3036.1184	904.5	16.1
1031.0934	3037.1578	903.65	16.9
1031.2038	3038.1966	904.4	17.7
1031.3142	3039.2348	903.35	16.7
1031.4246	3040.2723	913.5	16.45
1031.5349	3041.3092	905.55	19.4
1031.6452	3042.3455	904.9	17.45
1031.7554	3043.3811	906.05	19
1031.8656	3044.4161	906	18.6
1031.9758	3045.4505	904.35	17.05
1032.0859	3046.4842	906.55	19.35
1032.1959	3047.5173	904.85	19.15
1032.3059	3048.5498	904.6	18.45
1032.4159	3049.5816	905.05	17.95
1032.5258	3050.6128	906.5	19.1
1032.6357	3051.6434	905.9	17.8
1032.7455	3052.6734	906.5	17.05
1032.8553	3053.7027	905.45	17.25
1032.9651	3054.7314	905.15	19.6
1033.0748	3055.7594	905.6	17.05
1033.1845	3056.7868	906.55	20.65
1033.2941	3057.8136	907	17.75
1033.4037	3058.8398	904.55	17.7
1033.5132	3059.8653	904.65	19.5
1033.6227	3060.8902	905.1	17.3
1033.7321	3061.9145	908.75	20.7
1033.8415	3062.9381	906.95	19.3
1033.9509	3063.9612	921.2	17.65
1034.0602	3064.9835	905	16.85
1034.1694	3066.0053	907.4	17.8
1034.2787	3067.0264	906.7	18.8
1034.3878	3068.0469	909.25	23.05
1034.497	3069.0668	907.35	16.75
1034.6061	3070.086	904.75	19.15
1034.7151	3071.1046	909.95	21.3
1034.8241	3072.1226	907.35	18.7
1034.9331	3073.1399	903.6	17.45
1035.042	3074.1567	904.75	19.45
1035.1508	3075.1727	905.95	17.95
1035.2597	3076.1882	905.5	18.3
1035.3684	3077.203	906.05	20.15
1035.4772	3078.2173	906.4	18.45
1035.5859	3079.2308	906.5	17.6
1035.6945	3080.2438	906	16.2
1035.8031	3081.2561	903.75	16.6
1035.9117	3082.2678	901.45	16.85
1036.0202	3083.2789	902.35	14.8
1036.1286	3084.2893	901.2	14.45
1036.2371	3085.2991	901.75	13.6
1036.3454	3086.3083	909.2	17.2
1036.4538	3087.3169	902.95	13.95
1036.562	3088.3248	904.35	17.25
1036.6703	3089.3321	900.75	12.4
1036.7785	3090.3388	898.6	12.3
1036.8866	3091.3449	901.7	14.85
1036.9948	3092.3503	903.25	13.8
1037.1028	3093.3551	899.2	14.4
1037.2108	3094.3593	898.5	11.4
1037.3188	3095.3629	902.45	14.6
1037.4267	3096.3658	901.35	12.75
1037.5346	3097.3681	900.55	12.55
1037.6425	3098.3698	901.65	13.1
1037.7503	3099.3708	901.15	13.75
1037.858	3100.3713	901.2	13.55
1037.9657	3101.3711	899.6	12.4
1038.0734	3102.3702	1039.25	13.3
1038.181	3103.3688	902.3	11.3
1038.2886	3104.3667	897.4	11.5
1038.3961	3105.364	899.1	11.2
1038.5036	3106.3607	898.55	9.25
1038.611	3107.3568	899.9	10.55
1038.7184	3108.3522	897.85	12.55
1038.8257	3109.347	899.4	12.6
1038.933	3110.3412	904.75	16.3
1039.0403	3111.3348	897.05	9.7
1039.1475	3112.3277	897.4	11.2
1039.2547	3113.32	896.6	9.95
1039.3618	3114.3117	896.5	7
1039.4689	3115.3028	897.7	10
1039.5759	3116.2932	899.8	10.55
1039.6829	3117.2831	902.6	11.05
1039.7898	3118.2723	898.1	11.7
1039.8967	3119.2608	896.55	11.45
1040.0035	3120.2488	896.45	9.55
1040.1103	3121.2361	897.7	9.25
1040.2171	3122.2229	896.6	8.8
1040.3238	3123.209	898.15	11.35
1040.4305	3124.1944	897.05	9.6
1040.5371	3125.1793	896.6	6.65
1040.6437	3126.1635	896.45	9.65
1040.7502	3127.1471	895.65	9.9
1040.8567	3128.1301	894.9	8.95
1040.9631	3129.1125	895.75	8.45
1041.0695	3130.0942	893.95	7.55
1041.1759	3131.0753	905.1	7.25
1041.2822	3132.0558	899.95	8.25
1041.3884	3133.0357	896.35	8.45
1041.4946	3134.015	897.7	10.25
1041.6008	3134.9936	898.45	10.6
1041.7069	3135.9716	914.8	5.85
1041.813	3136.949	895.45	8
1041.919	3137.9258	914	9.65
1042.025	3138.902	902.3	11.45
1042.1309	3139.8775	896.45	9.3
1042.2368	3140.8524	895.4	8.2
1042.3427	3141.8267	895.85	7.45
1042.4485	3142.8004	895.9	9.3
1042.5542	3143.7735	903	9.15
1042.6599	3144.7459	897.65	7.75
1042.7656	3145.7178	895.9	8.25
1042.8712	3146.689	894.05	8.45
1042.9768	3147.6596	897.55	7.35
1043.0823	3148.6295	896.35	8.6
1043.1878	3149.5989	894.85	8.95
1043.2932	3150.5676	895.7	9.65
1043.3986	3151.5357	892.35	7.25
1043.5039	3152.5032	893.75	7.1
1043.6092	3153.4701	895.45	9.8
1043.7145	3154.4364	897.25	7.55
1043.8197	3155.402	893.3	5.3
1043.9248	3156.367	897.65	8.35
1044.03	3157.3315	927.3	0.95
1044.135	3158.2952	895.3	6.65
1044.24	3159.2584	893.05	7.15
1044.345	3160.221	894.6	5.75
1044.4499	3161.1829	893.6	6.85
1044.5548	3162.1442	894.5	7.7
1044.6596	3163.105	894.2	6.55
1044.7644	3164.065	896.1	8.2
1044.8692	3165.0245	898.25	7.05
1044.9739	3165.9834	892.95	7.95
1045.0785	3166.9416	894.45	7
1045.1831	3167.8993	895.7	8.6
1045.2877	3168.8563	893.3	4.45
1045.3922	3169.8127	892.8	4.85
1045.4966	3170.7684	894.3	7.65
1045.6011	3171.7236	895.75	6.6
1045.7054	3172.6782	894.15	7.55
1045.8098	3173.6321	896.15	9.4
1045.914	3174.5854	900.3	8.9
1046.0183	3175.5381	894.45	6
1046.1224	3176.4902	894	7.75
1046.2266	3177.4417	893.15	6.3
1046.3307	3178.3926	893.85	8.3
1046.4347	3179.3428	894.6	6.5
1046.5387	3180.2924	894	6.4
1046.6427	3181.2415	893.45	5.85
1046.7466	3182.1899	894.25	3.8
1046.8504	3183.1377	893.1	7.6
1046.9542	3184.0848	897.35	7.1
1047.058	3185.0314	895.75	6.95
1047.1617	3185.9773	895.25	7.95
1047.2654	3186.9227	894.95	6.95
1047.369	3187.8674	894.75	6.9
1047.4726	3188.8115	898.65	7.2
1047.5761	3189.755	894	7.4
1047.6796	3190.6979	892.8	7.45
1047.783	3191.6402	892.15	5.05
1047.8864	3192.5818	893.25	4.95
1047.9898	3193.5229	898.85	5.9
1048.0931	3194.4633	894.65	6.55
1048.1963	3195.4031	894.9	7.1
1048.2995	3196.3423	891.7	6.75
1048.4027	3197.2809	892.55	6.85
1048.5058	3198.2189	892.5	4
1048.6089	3199.1563	901.15	7.95
1048.7119	3200.0931	892.75	4.45
1048.8148	3201.0292	891.75	4.65
1048.9178	3201.9648	895.25	7.35
1049.0206	3202.8997	897.5	8.95
1049.1235	3203.834	892.8	5.85
1049.2262	3204.7677	895.05	9.55
1049.329	3205.7008	892.2	3.75
1049.4317	3206.6333	889.95	4.85
1049.5343	3207.5652	895	6.25
1049.6369	3208.4964	893.25	4.4
1049.7394	3209.4271	892.05	3.55
1049.8419	3210.3571	892.7	6.35
1049.9444	3211.2865	893.9	4.95
1050.0468	3212.2154	895.05	9.2
1050.1491	3213.1436	896.4	6.45
1050.2514	3214.0712	901.8	9.2
1050.3537	3214.9982	891.3	4
1050.4559	3215.9246	892.5	5.6
1050.5581	3216.8503	893	5.8
1050.6602	3217.7755	894	6.7
1050.7623	3218.7001	891.85	4.55
1050.8643	3219.624	893.6	5.5
1050.9663	3220.5473	891.65	4
1051.0682	3221.4701	894.45	7.9
1051.1701	3222.3922	896.1	6.95
1051.2719	3223.3137	893.45	8.1
1051.3737	3224.2346	893.05	4.65
1051.4754	3225.1549	890.85	3.6
1051.5771	3226.0746	892.65	5.25
1051.6788	3226.9937	891.75	3.75
1051.7804	3227.9121	894.35	5.9
1051.8819	3228.83	893.5	7.15
1051.9834	3229.7473	892.1	3.65
1052.0849	3230.6639	892.85	7.55
1052.1863	3231.5799	891.25	5
1052.2876	3232.4954	893	5.25
1052.3889	3233.4102	889.1	1.9
1052.4902	3234.3244	892.6	4.7
1052.5914	3235.238	891.55	3.75
1052.6926	3236.151	918.5	5
1052.7937	3237.0634	892.6	4.85
1052.8948	3237.9752	891.35	4.95
1052.9958	3238.8864	892.05	2.95
1053.0968	3239.797	891.8	5
1053.1977	3240.7069	892.45	6.3
1053.2986	3241.6163	892.15	2.6
1053.3994	3242.5251	891.1	4.8
1053.5002	3243.4332	890	3.95
1053.6009	3244.3408	891.6	5.25
1053.7016	3245.2477	891	2.55
1053.8022	3246.154	892.85	2.25
1053.9028	3247.0598	892.65	4.45
1054.0034	3247.9649	892.15	5.6
1054.1039	3248.8694	891.8	5.55
1054.2043	3249.7733	891.75	5.45
1054.3047	3250.6766	889.75	2.75
1054.4051	3251.5793	893.8	4.95
1054.5054	3252.4814	889.75	2.55
1054.6056	3253.3829	891.65	5.3
1054.7058	3254.2838	890.8	3.6
1054.806	3255.1841	890.45	2.75
1054.9061	3256.0838	891.5	4.85
1055.0061	3256.9829	888.85	3
1055.1062	3257.8814	892.85	3.15
1055.2061	3258.7792	895	6.05
1055.306	3259.6765	892.1	3.35
1055.4059	3260.5731	890.5	3.55
1055.5057	3261.4692	892.1	4.45
1055.6055	3262.3647	890.75	1.95
1055.7052	3263.2595	892.95	7.05
1055.8049	3264.1538	890.25	2.9
1055.9045	3265.0474	890.95	4.1
1056.0041	3265.9404	891.05	2.75
1056.1036	3266.8329	889.75	1.5
1056.2031	3267.7247	900.8	5.05
1056.3025	3268.616	890.9	3.45
1056.4019	3269.5066	890.05	2.4
1056.5013	3270.3966	892.05	3.9
1056.6005	3271.286	889.2	2.1
