Software Version:	3.9.2.0
Unit SN:	10000200
Spectrometer SN:	6960
Date:	3/14/2024 1:33:57 PM
Data Line Index:	25
Spectral Points:	2048
Integration time (ms):	125
Averages:	20
Delay (ms):	30000
Sequence Number:	1
Processing:	dark subtract
Laser Power (mW):	300
Laser Current (mA):	824
Laser Diode Temp (C):	25
Laser Case Temp (C):	28.6
System Temp (C):	28.6
Spectrometer Temp (C):	26.4
CCD Temp (C):	-0.003
Secondary Temp (C):	20.008
Heatsink Temp (C):	24.561
CCDPCB Temp (C):	38.163
SecondaryPCB Temp (C):	35.629

Wavelength	RamanShift	Raw Counts	Dark Subtracted
787.061	30.1047	466.8	56.7
787.2016	32.3739	473.45	64.5
787.3422	34.6426	476.3	65.5
787.4828	36.9109	483.1	72.25
787.6235	39.1787	493.7	79.45
787.7642	41.4461	503.25	82.9
787.9049	43.7131	513.65	90.5
788.0456	45.9796	520.15	94.2
788.1863	48.2456	532.1	99.4
788.3271	50.5112	541.4	105.3
788.4679	52.7764	552.1	113.95
788.6087	55.0411	560.95	119.95
788.7496	57.3054	572.35	124.35
788.8904	59.5692	583.75	134.6
789.0313	61.8326	598.3	145.5
789.1722	64.0955	617.8	158.5
789.3132	66.3579	634.2	171.15
789.4541	68.6199	655.1	189.7
789.5951	70.8815	689.45	220.4
789.7361	73.1426	782.55	310.25
789.8771	75.4032	1004.55	525
790.0181	77.6634	1548.95	1064.65
790.1592	79.9231	2887.95	2398.8
790.3003	82.1824	5787.5	5287.75
790.4414	84.4412	11089.95	10571.65
790.5825	86.6995	18537	17990.95
790.7237	88.9574	25939.35	25369.35
790.8648	91.2148	31101.15	30517.25
791.006	93.4717	33461.7	32866.5
791.1472	95.7282	33945.65	33345.9
791.2885	97.9842	33815.45	33213.3
791.4297	100.2398	33149.05	32545.35
791.571	102.4949	32380.25	31772.15
791.7123	104.7495	31440.3	30828.05
791.8536	107.0036	30558.1	29941.75
791.9949	109.2573	29704.95	29089.75
792.1363	111.5105	28930.2	28314.4
792.2777	113.7632	28254.4	27637.2
792.4191	116.0154	27721.85	27092.9
792.5605	118.2672	27326.6	26707.15
792.7019	120.5185	26867.75	26242.2
792.8434	122.7693	26533.95	25911.15
792.9849	125.0197	26321.3	25697.4
793.1264	127.2696	26054.45	25427.7
793.2679	129.519	25862.85	25230.5
793.4094	131.7679	25614.6	24981.45
793.551	134.0163	25374.05	24734.15
793.6926	136.2642	25039.05	24392.65
793.8342	138.5117	24704.25	24051
793.9758	140.7587	24336.35	23689.3
794.1175	143.0052	24027.2	23375.5
794.2591	145.2512	23672.1	23023.45
794.4008	147.4967	23387.55	22737.65
794.5425	149.7417	23153.15	22502.2
794.6842	151.9863	22937.25	22281.55
794.826	154.2304	22865.35	22205.8
794.9677	156.4739	22669.1	22004.7
795.1095	158.717	22615.4	21950.35
795.2513	160.9596	22438.3	21771
795.3931	163.2017	22160.9	21488.6
795.535	165.4433	21835.7	21168.7
795.6768	167.6844	21504.35	20831.45
795.8187	169.925	21141.6	20468.35
795.9606	172.1651	20754	20075.2
796.1025	174.4047	20483.2	19798.1
796.2445	176.6439	20218.8	19537.4
796.3864	178.8825	19974.15	19286.7
796.5284	181.1206	19832.75	19141.25
796.6704	183.3582	19667.9	18972.45
796.8124	185.5954	19560.1	18865.95
796.9544	187.832	19469.05	18770.9
797.0965	190.0681	19447.35	18747.3
797.2386	192.3037	19469.15	18764.25
797.3806	194.5388	19411.3	18703.25
797.5228	196.7734	19416.65	18706.75
797.6649	199.0075	19475.95	18761.3
797.807	201.2411	19628.45	18912.55
797.9492	203.4742	19687.6	18973.25
798.0914	205.7068	19866.55	19151.7
798.2336	207.9389	19982.75	19264.85
798.3758	210.1704	20142.25	19423.45
798.518	212.4015	20256.7	19535.4
798.6603	214.632	20411.9	19689.05
798.8025	216.862	20532.1	19820
798.9448	219.0915	20628	19920.6
799.0871	221.3205	20782.45	20076.9
799.2294	223.549	20892.6	20191.25
799.3718	225.777	21034.25	20334.55
799.5141	228.0044	21184.3	20479.15
799.6565	230.2314	21424.4	20723.95
799.7989	232.4578	21616.65	20913.2
799.9413	234.6837	21821.1	21109.9
800.0837	236.909	21935.65	21224.25
800.2262	239.1339	21913.05	21176.9
800.3687	241.3582	21805.85	21085.65
800.5111	243.582	21643.1	20896.4
800.6536	245.8053	21493.8	20753.05
800.7961	248.0281	21356.45	20622.4
800.9387	250.2503	21285.6	20548.25
801.0812	252.472	21297.7	20555.25
801.2238	254.6932	21394.7	20650.85
801.3664	256.9139	21427.1	20678
801.509	259.134	21589.35	20839.55
801.6516	261.3536	21746.3	20997.05
801.7942	263.5727	21994.7	21241.75
801.9369	265.7912	22178.85	21428.6
802.0795	268.0092	22397.5	21653.15
802.2222	270.2267	22548.15	21799.1
802.3649	272.4436	22615.9	21863.1
802.5076	274.6601	22575.1	21815.35
802.6504	276.8759	22502.05	21744.2
802.7931	279.0913	22380.75	21621.9
802.9359	281.3061	22262.85	21503.5
803.0787	283.5204	22231.6	21472.6
803.2215	285.7341	22194.85	21431.1
803.3643	287.9473	22242.5	21468.9
803.5071	290.16	22330.75	21562.5
803.6499	292.3721	22492.15	21727.6
803.7928	294.5837	22733.1	21967.55
803.9357	296.7947	22967.3	22201.3
804.0786	299.0052	23175.95	22411.05
804.2215	301.2152	23091.75	22320.45
804.3644	303.4246	22905.05	22141.05
804.5074	305.6334	22453.85	21689.6
804.6503	307.8418	21962.2	21193.5
804.7933	310.0495	21484.65	20716.6
804.9363	312.2568	21089.35	20320.15
805.0793	314.4635	20670.05	19898.75
805.2223	316.6696	20447.45	19677.55
805.3653	318.8752	20227.7	19447.85
805.5084	321.0802	20184.1	19408.45
805.6514	323.2847	20193.95	19418.05
805.7945	325.4887	20221.65	19448.35
805.9376	327.692	20173.4	19398.55
806.0807	329.8949	20141.65	19367.55
806.2238	332.0972	19892.85	19115.85
806.367	334.2989	19656.45	18876.5
806.5101	336.5001	19353.1	18571.75
806.6533	338.7007	19147	18366.45
806.7965	340.9008	19008.2	18226.55
806.9397	343.1003	18857.65	18072.45
807.0829	345.2992	18754.25	17969.7
807.2261	347.4976	18640.1	17852.25
807.3693	349.6955	18546.4	17756.35
807.5126	351.8927	18546.95	17754.65
807.6559	354.0895	18450.35	17649.75
807.7991	356.2856	18423.95	17629.55
807.9424	358.4812	18361.6	17569.85
808.0857	360.6763	18392.75	17601.6
808.2291	362.8707	18340.2	17546.3
808.3724	365.0646	18408.8	17611.15
808.5158	367.258	18426.55	17626.6
808.6591	369.4508	18444.95	17643
808.8025	371.643	18576.75	17777.75
808.9459	373.8346	18586.3	17783.45
809.0893	376.0257	18631.4	17823.15
809.2327	378.2162	18613.45	17808.5
809.3762	380.4062	18587	17778.45
809.5196	382.5956	18447.4	17637.05
809.6631	384.7844	18320.85	17510.55
809.8066	386.9726	18159.05	17347.95
809.9501	389.1603	18059.4	17250.9
810.0936	391.3474	17992.75	17149.2
810.2371	393.5339	17947.6	17137.65
810.3806	395.7199	17876.7	17070.1
810.5241	397.9052	17920.2	17117.4
810.6677	400.09	17932.8	17131.4
810.8113	402.2743	18038.8	17237.85
810.9548	404.4579	18184.55	17385.5
811.0984	406.641	18413.15	17611.4
811.2421	408.8235	18538.9	17734.85
811.3857	411.0054	18727.15	17921.55
811.5293	413.1868	19007.8	18199.85
811.673	415.3675	19096.9	18291.7
811.8166	417.5477	19146.5	18342
811.9603	419.7273	19157.65	18352.05
812.104	421.9064	19039.1	18219.75
812.2477	424.0848	18948.75	18134.1
812.3914	426.2627	18723.4	17906.8
812.5351	428.4399	18457.95	17639.2
812.6788	430.6166	18104.45	17286.1
812.8226	432.7928	17765.6	16943.95
812.9663	434.9683	17408.5	16584.7
813.1101	437.1432	17166.25	16343.1
813.2539	439.3176	16951.6	16130.15
813.3977	441.4914	16825.25	15999.65
813.5415	443.6645	16762.15	15935.05
813.6853	445.8371	16714.65	15887.65
813.8291	448.0091	16598.3	15772.85
813.973	450.1806	16567.4	15743.55
814.1168	452.3514	16509.5	15679.9
814.2607	454.5216	16575.45	15739.2
814.4046	456.6913	16515.15	15689.45
814.5485	458.8603	16539.6	15710.65
814.6924	461.0288	16582.55	15755.2
814.8363	463.1967	16568.05	15742
814.9802	465.3639	16597.6	15764.7
815.1241	467.5306	16559	15727.3
815.2681	469.6967	16626.35	15793.95
815.412	471.8622	16630.7	15803.6
815.556	474.0271	16721.15	15890.85
815.7	476.1914	16735.3	15901.8
815.844	478.3551	16714	15885.1
815.988	480.5182	16750.1	15917.75
816.132	482.6807	16837.95	16004
816.276	484.8426	17028.75	16197.65
816.4201	487.0039	17303.4	16466.1
816.5641	489.1647	17688.65	16854.15
816.7082	491.3248	18034.6	17198.95
816.8522	493.4843	18198.2	17365.75
816.9963	495.6432	18147.55	17314.35
817.1404	497.8015	17977.4	17142.45
817.2845	499.9592	17879.3	17045.45
817.4286	502.1163	17718.75	16883.7
817.5727	504.2728	17391.45	16551.65
817.7168	506.4287	17072.15	16234.05
817.861	508.5839	16672.25	15836.85
818.0051	510.7386	16452	15616.15
818.1493	512.8927	16347.4	15502.25
818.2935	515.0461	16264.35	15427.45
818.4377	517.199	16277.25	15438.2
818.5818	519.3512	16390.8	15551.65
818.726	521.5029	16625.25	15780.05
818.8703	523.6539	16826	15984.5
819.0145	525.8043	16909.05	16065.85
819.1587	527.9541	16837.25	15996.35
819.303	530.1033	16666.75	15823.6
819.4472	532.2519	16584.65	15743.45
819.5915	534.3999	16532.95	15688.6
819.7357	536.5472	16640.55	15795.95
819.88	538.694	16913.05	16067.15
820.0243	540.8401	17242.15	16396.25
820.1686	542.9856	17534.35	16690.5
820.3129	545.1305	17569.15	16724.1
820.4572	547.2748	17488.65	16642
820.6016	549.4185	17250.4	16404.5
820.7459	551.5615	16983.8	16138.95
820.8902	553.704	16936.8	16090.55
821.0346	555.8458	16943.65	16094.75
821.1789	557.987	17082.65	16235
821.3233	560.1276	17258.1	16408.5
821.4677	562.2675	17550.85	16708.2
821.6121	564.4069	17964.15	17118.7
821.7565	566.5456	18294.25	17450.1
821.9009	568.6837	18423.15	17578.2
822.0453	570.8212	18028.5	17181.4
822.1897	572.958	17384.85	16536.1
822.3342	575.0942	16785.4	15939.5
822.4786	577.2299	16326.3	15479.1
822.6231	579.3648	16175.25	15327.25
822.7675	581.4992	16112.15	15262.75
822.912	583.6329	16207.05	15355.3
823.0565	585.766	16379.65	15529.3
823.201	587.8985	16549.4	15703.15
823.3454	590.0304	16559.75	15684.65
823.4899	592.1616	16504.35	15651.15
823.6345	594.2922	16343.2	15491.05
823.779	596.4222	16103.55	15253.3
823.9235	598.5515	15894.65	15043.3
824.068	600.6802	15729.45	14876.25
824.2126	602.8083	15543.85	14692.35
824.3571	604.9358	15482.65	14629.55
824.5017	607.0626	15467.9	14616.95
824.6462	609.1888	15520.85	14666.85
824.7908	611.3144	15669.4	14815.1
824.9354	613.4393	15695.65	14843
825.08	615.5636	15758.55	14903.7
825.2246	617.6873	15686	14831.35
825.3692	619.8103	15677.75	14822.2
825.5138	621.9327	15456.65	14599.15
825.6584	624.0544	15262.3	14406.75
825.803	626.1756	15120.3	14266.3
825.9477	628.2961	14954.05	14098
826.0923	630.4159	14862.55	14006.4
826.237	632.5351	14844.45	13990.25
826.3816	634.6537	14777.8	13923.05
826.5263	636.7716	14773.3	13916.2
826.6709	638.8889	14775.25	13921.55
826.8156	641.0056	14802.6	13945
826.9603	643.1216	14755.95	13897.9
827.105	645.237	14751.65	13890.8
827.2497	647.3518	14655.75	13796.3
827.3944	649.4659	14599.65	13741.45
827.5391	651.5793	14532.9	13671.65
827.6838	653.6922	14499.15	13641.5
827.8285	655.8043	14455.65	13597.75
827.9733	657.9159	14451	13591.55
828.118	660.0268	14368.45	13506.6
828.2627	662.137	14375.75	13513.75
828.4075	664.2466	14362.75	13500.35
828.5522	666.3556	14360.6	13498.55
828.697	668.4639	14287.4	13419.25
828.8418	670.5716	14267.75	13406.6
828.9865	672.6786	14237.75	13375.6
829.1313	674.785	14179.4	13313.3
829.2761	676.8907	14176.7	13315.3
829.4209	678.9958	14203.8	13341.55
829.5657	681.1002	14155.9	13292.95
829.7105	683.204	14155.7	13285.25
829.8553	685.3072	14105.7	13239.75
830.0001	687.4097	14048.2	13182.7
830.1449	689.5115	14000.4	13134.15
830.2898	691.6127	13979.45	13116.35
830.4346	693.7132	13970.45	13103.3
830.5794	695.8131	13957	13076.85
830.7243	697.9123	13949.1	13082.7
830.8691	700.0109	13925.3	13060.6
831.014	702.1089	13931.55	13066.55
831.1588	704.2061	13954.45	13088.35
831.3037	706.3028	13984.95	13116
831.4486	708.3987	14003.5	13139.95
831.5935	710.4941	14045.1	13178.9
831.7383	712.5887	14125.15	13258.8
831.8832	714.6827	14236.65	13366.35
832.0281	716.7761	14414.65	13547.3
832.173	718.8688	14649.65	13784.3
832.3179	720.9608	14782.5	13911.85
832.4628	723.0522	14915.9	14043.45
832.6077	725.1429	14918.7	14051.95
832.7527	727.233	14885.45	14014.9
832.8976	729.3224	14862.5	13994.05
833.0425	731.4112	14698	13828.8
833.1874	733.4993	14517.05	13646.85
833.3324	735.5867	14299.55	13430.5
833.4773	737.6735	14075	13203.9
833.6222	739.7596	13903.25	13033.45
833.7672	741.845	13783.65	12912.9
833.9122	743.9298	13668.3	12796.85
834.0571	746.014	13612.75	12744.25
834.2021	748.0974	13542.4	12672.1
834.347	750.1802	13584.65	12713
834.492	752.2624	13620.15	12751.1
834.637	754.3439	13635.3	12763.75
834.782	756.4247	13712.5	12835.1
834.9269	758.5048	13838.75	12969.8
835.0719	760.5843	14143.6	13275.45
835.2169	762.6631	14524.55	13653.4
835.3619	764.7413	15077.45	14209.4
835.5069	766.8188	15778.2	14908.25
835.6519	768.8956	16343.85	15471.05
835.7969	770.9718	16712.75	15839.25
835.9419	773.0473	16638.7	15767.8
836.0869	775.1221	16356.55	15483.5
836.232	777.1962	16038.1	15166.55
836.377	779.2697	15863.45	14988.2
836.522	781.3426	15923.5	15042.15
836.667	783.4147	16075.2	15199.5
836.8121	785.4862	16180.45	15310.55
836.9571	787.557	16024.25	15152.65
837.1021	789.6271	15579.95	14705.75
837.2472	791.6966	14930.3	14056.45
837.3922	793.7654	14292.15	13416.65
837.5373	795.8335	13875.8	13002.35
837.6823	797.901	13565.75	12691.45
837.8274	799.9678	13368.15	12494.4
837.9724	802.0339	13290.7	12419.25
838.1175	804.0993	13255.05	12369.45
838.2626	806.1641	13222.9	12351.75
838.4076	808.2282	13145	12273.75
838.5527	810.2916	13029.2	12153.45
838.6978	812.3544	12948.95	12073.05
838.8428	814.4164	12841.5	11973.3
838.9879	816.4778	12866.4	11991.7
839.133	818.5385	12907.7	12034.45
839.2781	820.5986	13023.7	12153.05
839.4232	822.658	13216.2	12339.55
839.5682	824.7166	13496.2	12623.25
839.7133	826.7747	13942.45	13069.65
839.8584	828.832	14433.15	13558.4
840.0035	830.8886	14763.25	13886.95
840.1486	832.9446	14888.9	14016.1
840.2937	834.9999	14784.85	13913.5
840.4388	837.0545	14566.2	13687.8
840.5839	839.1085	14304.1	13426.95
840.729	841.1618	14022.65	13143.75
840.8741	843.2143	13771.3	12895.15
841.0192	845.2662	13554.9	12679.65
841.1643	847.3175	13427.15	12553.25
841.3095	849.368	13299.55	12424.2
841.4546	851.4179	13193.8	12321.25
841.5997	853.467	13042.2	12164
841.7448	855.5155	12964.5	12088.1
841.8899	857.5633	12901.15	12024
842.0351	859.6105	12746.5	11869.15
842.1802	861.6569	12654.75	11779.8
842.3253	863.7027	12556.8	11678.05
842.4704	865.7478	12516.05	11639.75
842.6156	867.7922	12491.7	11614.95
842.7607	869.8359	12473.05	11595.3
842.9058	871.8789	12514.55	11636.95
843.0509	873.9212	12610.9	11702.95
843.1961	875.9629	12685.15	11810.05
843.3412	878.0039	12810.05	11932.3
843.4863	880.0441	12905.25	12028.6
843.6315	882.0837	12961.05	12083.5
843.7766	884.1226	12933.65	12052.7
843.9218	886.1609	12957.85	12083.5
844.0669	888.1984	12992.75	12116.35
844.212	890.2352	13082.65	12206.6
844.3572	892.2714	13070.2	12190.85
844.5023	894.3069	13013.8	12137.65
844.6475	896.3416	12834.35	11956.7
844.7926	898.3757	12720.45	11844.15
844.9377	900.4091	12623.35	11745
845.0829	902.4418	12622.4	11736.35
845.228	904.4739	12641.15	11762.25
845.3732	906.5052	12675.3	11795.7
845.5183	908.5358	12604.15	11723.55
845.6635	910.5658	12469.1	11590.7
845.8086	912.595	12269.95	11392.1
845.9538	914.6236	12018.8	11140.3
846.0989	916.6515	11926	11046.95
846.2441	918.6786	11807.45	10927.8
846.3892	920.7051	11820.1	10939
846.5344	922.7309	11848.45	10969.05
846.6795	924.756	11858	10979.4
846.8246	926.7804	11960.95	11081.1
846.9698	928.8041	11915.9	11036.75
847.1149	930.8272	11969.05	11088.75
847.2601	932.8495	11891.35	11012.6
847.4052	934.8711	11894	11012.7
847.5504	936.892	11800.2	10922.05
847.6955	938.9123	11739.85	10861.1
847.8407	940.9318	11737.1	10855.95
847.9858	942.9506	11675.75	10795.85
848.131	944.9688	11604.6	10723.7
848.2761	946.9862	11522.65	10644.1
848.4213	949.003	11379.55	10497.95
848.5664	951.019	11279.1	10397.35
848.7115	953.0344	11221.65	10339.6
848.8567	955.0491	11202.1	10320.3
849.0018	957.063	11246.15	10364.6
849.147	959.0763	11325.55	10447.35
849.2921	961.0888	11345.4	10464.1
849.4373	963.1007	11404.15	10523.4
849.5824	965.1119	11433	10554.5
849.7275	967.1223	11411.3	10531.05
849.8727	969.1321	11388.5	10509.95
850.0178	971.1412	11386.9	10506.6
850.1629	973.1495	11354.9	10473.8
850.3081	975.1572	11393	10481
850.4532	977.1641	11414.1	10532.05
850.5983	979.1704	11347.4	10468
850.7435	981.1759	11327	10446.1
850.8886	983.1808	11339.95	10459.85
851.0337	985.1849	11368.2	10474.9
851.1788	987.1884	11430.05	10545.2
851.324	989.1911	11574.75	10689.3
851.4691	991.1932	11645.6	10761.1
851.6142	993.1945	11653.7	10773.6
851.7593	995.1951	11598.8	10719.25
851.9045	997.1951	11551.5	10664.5
852.0496	999.1943	11500.3	10619.15
852.1947	1001.1928	11499.95	10616.95
852.3398	1003.1906	11492.05	10613.35
852.4849	1005.1877	11623.55	10741.25
852.63	1007.1841	11686.5	10804.8
852.7751	1009.1798	11687.15	10804.4
852.9202	1011.1748	11552.1	10672.4
853.0653	1013.1691	11388.9	10508.5
853.2104	1015.1627	11162.85	10281
853.3555	1017.1556	10940.5	10057.9
853.5006	1019.1477	10815.65	9934.75
853.6457	1021.1392	10695.65	9815.3
853.7908	1023.1299	10660.65	9777.9
853.9359	1025.12	10637.45	9751.8
854.081	1027.1093	10690	9808.15
854.2261	1029.0979	10814.05	9934.65
854.3712	1031.0859	10883.2	10002.5
854.5163	1033.0731	10918.2	10034.35
854.6613	1035.0596	10873.7	9993.45
854.8064	1037.0454	10718.85	9835.25
854.9515	1039.0304	10606.15	9722.7
855.0965	1041.0148	10491	9610.15
855.2416	1042.9985	10374.4	9489.95
855.3867	1044.9814	10283.2	9402.8
855.5317	1046.9636	10215.8	9331.75
855.6768	1048.9452	10195.2	9313.95
855.8219	1050.926	10204.15	9323.55
855.9669	1052.9061	10256.8	9375.15
856.112	1054.8855	10250.05	9367.35
856.257	1056.8642	10289.35	9406.6
856.4021	1058.8421	10334.55	9448.25
856.5471	1060.8194	10373.1	9491.35
856.6921	1062.7959	10408.45	9526.7
856.8372	1064.7717	10432.3	9549.35
856.9822	1066.7469	10505.35	9620.95
857.1272	1068.7213	10557.5	9670.75
857.2723	1070.695	10622.35	9741.15
857.4173	1072.6679	10635.85	9753.15
857.5623	1074.6402	10614.05	9732.5
857.7073	1076.6117	10559.55	9671.55
857.8523	1078.5826	10484.4	9601.55
857.9973	1080.5527	10384.5	9499.7
858.1423	1082.5221	10323.2	9441.9
858.2873	1084.4908	10346.4	9464.6
858.4323	1086.4587	10377.9	9493.5
858.5773	1088.426	10439.45	9557.3
858.7223	1090.3925	10449.8	9561.3
858.8673	1092.3584	10456.15	9575.7
859.0123	1094.3235	10393.85	9513.7
859.1573	1096.2879	10429.15	9545.7
859.3022	1098.2515	10539.7	9657.6
859.4472	1100.2145	10702.3	9820.85
859.5922	1102.1767	10860.45	9974.85
859.7371	1104.1382	11065.6	10184.2
859.8821	1106.099	11322.9	10438.35
860.027	1108.0591	11542.75	10658.4
860.172	1110.0185	11692.1	10807.45
860.3169	1111.9771	11789.3	10907.4
860.4619	1113.9351	11663.6	10781.15
860.6068	1115.8923	11493.9	10609.45
860.7517	1117.8488	11310.95	10425.15
860.8967	1119.8045	11100.55	10217.25
861.0416	1121.7596	10934.25	10050.1
861.1865	1123.7139	10802.55	9921.5
861.3314	1125.6675	10771.3	9889.1
861.4763	1127.6204	10764.9	9881.95
861.6212	1129.5726	10719	9833.9
861.7661	1131.524	10663	9779.95
861.911	1133.4748	10529.05	9644.7
862.0559	1135.4248	10372.05	9488.75
862.2008	1137.3741	10233.25	9350.8
862.3457	1139.3226	10141.7	9255.05
862.4905	1141.2705	10063.35	9179.35
862.6354	1143.2176	9938.55	9047.35
862.7803	1145.164	9902.15	9016.75
862.9251	1147.1097	9863.1	8979.55
863.07	1149.0546	9777.95	8891.65
863.2148	1150.9989	9667.1	8782.7
863.3597	1152.9424	9552.9	8669.2
863.5045	1154.8852	9417.55	8534.25
863.6493	1156.8272	9359.5	8475.75
863.7942	1158.7686	9349.3	8459.55
863.939	1160.7092	9361.8	8475.5
864.0838	1162.6491	9385.95	8499.8
864.2286	1164.5883	9478.25	8595.5
864.3734	1166.5267	9594.8	8711.4
864.5182	1168.4644	9755.7	8874.1
864.663	1170.4014	9925.55	9038.8
864.8078	1172.3377	10194.75	9313.05
864.9526	1174.2732	10509.8	9624.15
865.0974	1176.2081	10891.3	10006.85
865.2421	1178.1421	11315.4	10427.55
865.3869	1180.0755	11835.9	10951.9
865.5317	1182.0082	12147.9	11267.25
865.6764	1183.9401	12315.25	11430.9
865.8212	1185.8713	12214.4	11331.9
865.9659	1187.8017	11874.9	10992.3
866.1106	1189.7315	11485.6	10602.3
866.2554	1191.6605	11110.05	10196.75
866.4001	1193.5888	10808.25	9924.05
866.5448	1195.5163	10617.5	9731.55
866.6895	1197.4432	10526.6	9640.25
866.8342	1199.3693	10480.6	9598.25
866.9789	1201.2947	10436.9	9546.15
867.1236	1203.2193	10429.6	9546.05
867.2683	1205.1432	10415.15	9530.55
867.413	1207.0664	10381.7	9498.45
867.5576	1208.9889	10354.3	9468.4
867.7023	1210.9106	10336.75	9452.5
867.847	1212.8316	10337.7	9456.7
867.9916	1214.7519	10376.85	9483.25
868.1363	1216.6715	10416.4	9533
868.2809	1218.5903	10451.85	9568.75
868.4255	1220.5084	10528.25	9645.15
868.5701	1222.4257	10627.95	9744.5
868.7148	1224.3424	10649.3	9767.15
868.8594	1226.2583	10760.45	9870.6
869.004	1228.1735	10903.1	10018.55
869.1486	1230.0879	11047.1	10162.7
869.2932	1232.0016	11176.5	10295.25
869.4377	1233.9146	11304.8	10418.05
869.5823	1235.8269	11300.1	10417.4
869.7269	1237.7384	11227.55	10344.1
869.8715	1239.6492	11044.3	10160.55
870.016	1241.5592	11011.7	10126.75
870.1606	1243.4686	10993.75	10110.85
870.3051	1245.3772	11126.55	10242.4
870.4496	1247.285	11299.7	10415.1
870.5941	1249.1922	11433.65	10551.6
870.7387	1251.0986	11554.65	10671.35
870.8832	1253.0042	11595.9	10711.9
871.0277	1254.9092	11722.15	10839
871.1722	1256.8134	11797.75	10915.6
871.3167	1258.7169	11958.25	11072.9
871.4611	1260.6196	12108.3	11225.8
871.6056	1262.5216	12346.5	11461.55
871.7501	1264.4229	12535.4	11653.1
871.8945	1266.3234	12754.7	11871.3
872.039	1268.2232	12851.25	11967.25
872.1834	1270.1223	12886.95	12000.95
872.3278	1272.0207	12945	12061.1
872.4723	1273.9183	12906.45	12017.35
872.6167	1275.8151	12840.95	11957.35
872.7611	1277.7113	12837.2	11950.55
872.9055	1279.6067	12826.25	11942.2
873.0499	1281.5014	13005.75	12117.05
873.1943	1283.3953	13325.1	12440.35
873.3386	1285.2885	13757.7	12872.55
873.483	1287.181	14184.05	13299.05
873.6274	1289.0727	14615.5	13731.7
873.7717	1290.9637	14896.3	14012.1
873.9161	1292.854	15096.6	14213.25
874.0604	1294.7435	15094.1	14210.3
874.2047	1296.6323	15064.45	14178.5
874.349	1298.5204	14969.2	14080.4
874.4933	1300.4077	14832.35	13948.95
874.6376	1302.2943	14641.75	13757.65
874.7819	1304.1802	14400.85	13517.7
874.9262	1306.0653	13968.4	13080.8
875.0705	1307.9497	13507.95	12622.95
875.2147	1309.8333	13155.65	12272.4
875.359	1311.7162	12864.5	11978.65
875.5032	1313.5984	12710.75	11823.4
875.6475	1315.4798	12622.3	11726.3
875.7917	1317.3605	12530.35	11628.55
875.9359	1319.2405	12488.2	11601.4
876.0801	1321.1197	12270.3	11382.7
876.2243	1322.9982	11998.35	11108.9
876.3685	1324.876	11731	10846.4
876.5127	1326.753	11490.8	10605
876.6569	1328.6293	11275.5	10388.4
876.801	1330.5048	11173.15	10283.45
876.9452	1332.3796	11006.4	10121.95
877.0893	1334.2537	10928.85	10016.65
877.2335	1336.127	10846.9	9960.35
877.3776	1337.9996	10798.75	9913.8
877.5217	1339.8714	10783.8	9898.3
877.6658	1341.7426	10844.35	9913.25
877.8099	1343.6129	10826.1	9938.1
877.954	1345.4826	10814	9927.2
878.0981	1347.3515	10809.5	9922.4
878.2422	1349.2196	10767.5	9882.9
878.3862	1351.087	10784.65	9900.9
878.5303	1352.9537	10857.35	9972.1
878.6743	1354.8197	10986.7	10102.75
878.8184	1356.6849	11137.25	10252
878.9624	1358.5493	11302.9	10417.55
879.1064	1360.4131	11483.05	10596.15
879.2504	1362.276	11622.3	10737
879.3944	1364.1383	11585	10698.45
879.5384	1365.9998	11414.5	10524.45
879.6823	1367.8606	11057.6	10170
879.8263	1369.7206	10673.95	9788.65
879.9702	1371.5799	10333.15	9447.2
880.1142	1373.4384	10060.7	9176.05
880.2581	1375.2962	9811.3	8924.25
880.402	1377.1533	9508.15	8622.25
880.5459	1379.0096	9143.6	8256.15
880.6898	1380.8652	8808.65	7923.05
880.8337	1382.7201	8496	7611.15
880.9776	1384.5742	8221.5	7336.8
881.1215	1386.4275	8033.85	7149.55
881.2653	1388.2802	7875.25	6990.35
881.4092	1390.132	7774.8	6889.7
881.553	1391.9832	7700.95	6814.4
881.6968	1393.8336	7620.55	6735.75
881.8406	1395.6832	7587.6	6701.1
881.9844	1397.5322	7528.4	6642
882.1282	1399.3803	7511.5	6623.3
882.272	1401.2278	7485.25	6599.8
882.4158	1403.0745	7464.75	6579.3
882.5595	1404.9204	7428.65	6544.95
882.7033	1406.7656	7452.75	6567.5
882.847	1408.6101	7464.35	6579.75
882.9908	1410.4538	7487.4	6599.55
883.1345	1412.2968	7555.65	6670.25
883.2782	1414.139	7621.9	6738.7
883.4219	1415.9805	7687.5	6803.75
883.5656	1417.8213	7788.05	6895.2
883.7092	1419.6613	7887.3	7003.75
883.8529	1421.5006	8041.6	7153.5
883.9965	1423.3391	8250.2	7362
884.1402	1425.1769	8537.1	7649
884.2838	1427.0139	8982.8	8097.9
884.4274	1428.8502	9538.8	8653.95
884.571	1430.6858	10107.95	9223.95
884.7146	1432.5206	10502	9615.75
884.8582	1434.3547	10748.3	9861.9
885.0018	1436.188	10793.8	9909.3
885.1453	1438.0206	10706.9	9822.45
885.2889	1439.8524	10522.2	9635
885.4324	1441.6835	10370.9	9484.55
885.5759	1443.5139	10304.45	9413.4
885.7194	1445.3435	10237.2	9351.1
885.8629	1447.1724	10187.25	9303.55
886.0064	1449.0005	10119.2	9235.9
886.1499	1450.8279	10071.55	9181.55
886.2933	1452.6545	10039.75	9155.15
886.4368	1454.4804	10055.8	9172.35
886.5802	1456.3056	10080	9186.7
886.7237	1458.13	10000.2	9115.8
886.8671	1459.9536	9834	8948.65
887.0105	1461.7766	9540.65	8656.9
887.1539	1463.5987	9193.85	8307.8
887.2972	1465.4202	8869.8	7985.4
887.4406	1467.2409	8505.9	7620.85
887.584	1469.0608	8200.85	7316.25
887.7273	1470.88	7906.4	7019.4
887.8706	1472.6984	7708.35	6822.65
888.0139	1474.5161	7492.7	6602.35
888.1572	1476.3331	7316.5	6432.2
888.3005	1478.1493	7210.75	6324.55
888.4438	1479.9648	7104.25	6220.05
888.5871	1481.7795	7038.5	6152.95
888.7303	1483.5935	6957	6071.9
888.8736	1485.4067	6915.65	6028.55
889.0168	1487.2192	6879.8	5993.55
889.16	1489.031	6823.65	5936.9
889.3032	1490.842	6793.9	5910.5
889.4464	1492.6522	6719.9	5834.3
889.5896	1494.4618	6683.25	5794
889.7327	1496.2705	6647.8	5762.85
889.8759	1498.0785	6611.15	5724.35
890.019	1499.8858	6594.9	5707.1
890.1622	1501.6924	6540.3	5655.65
890.3053	1503.4981	6502.7	5618.6
890.4484	1505.3032	6471.35	5588.05
890.5914	1507.1075	6432.55	5547
890.7345	1508.911	6382.15	5494.35
890.8776	1510.7138	6344.5	5458.55
891.0206	1512.5159	6307.2	5421.05
891.1637	1514.3172	6262.5	5378.65
891.3067	1516.1178	6242.3	5359.25
891.4497	1517.9176	6224.25	5336.55
891.5927	1519.7166	6156.85	5272.4
891.7357	1521.515	6138.2	5243.75
891.8786	1523.3126	6126.3	5239.55
892.0216	1525.1094	6100	5213.4
892.1645	1526.9055	6073.5	5190
892.3074	1528.7008	6052.85	5168.25
892.4503	1530.4954	6010.45	5123.35
892.5932	1532.2893	5994.2	5112.7
892.7361	1534.0824	5971.95	5080.25
892.879	1535.8747	5984.2	5098.8
893.0218	1537.6663	5973.5	5089.15
893.1647	1539.4572	5958.6	5071.85
893.3075	1541.2473	5969.3	5083.55
893.4503	1543.0367	5963.1	5079.55
893.5931	1544.8253	5961.15	5073
893.7359	1546.6132	5989.55	5102.05
893.8787	1548.4003	5994.95	5100.75
894.0214	1550.1867	6057.95	5165.4
894.1642	1551.9723	6108.75	5219.1
894.3069	1553.7572	6194.55	5309.15
894.4496	1555.5414	6296.4	5412.15
894.5923	1557.3247	6407	5521.35
894.735	1559.1074	6565.6	5681.9
894.8777	1560.8893	6724.85	5842.25
895.0204	1562.6705	6867.9	5984.6
895.163	1564.4509	7029.25	6145.8
895.3056	1566.2305	7075.75	6191.25
895.4482	1568.0094	7143.6	6259.95
895.5908	1569.7876	7142.3	6259.4
895.7334	1571.565	7125.95	6243.45
895.876	1573.3417	7112.6	6227.2
896.0186	1575.1176	7094.2	6209.8
896.1611	1576.8928	7096.95	6213.75
896.3036	1578.6672	7082.65	6200.3
896.4461	1580.4409	7073.9	6191.2
896.5886	1582.2138	7069.45	6182.95
896.7311	1583.986	7080.5	6195.1
896.8736	1585.7575	7143.85	6260.85
897.0161	1587.5282	7195.15	6312.1
897.1585	1589.2981	7279.7	6396.5
897.3009	1591.0673	7340.5	6457.35
897.4433	1592.8358	7440.85	6556.75
897.5857	1594.6035	7532.55	6646
897.7281	1596.3704	7616.5	6732
897.8705	1598.1366	7700.55	6817
898.0128	1599.9021	7780.55	6896.3
898.1551	1601.6668	7864.55	6978.5
898.2975	1603.4308	7991.5	7106.25
898.4398	1605.194	8150.4	7263.35
898.5821	1606.9564	8352.2	7468.15
898.7243	1608.7182	8571.7	7681.95
898.8666	1610.4791	8875.8	7992.85
899.0088	1612.2394	9191.9	8307.95
899.1511	1613.9988	9498.3	8613.15
899.2933	1615.7576	9762.1	8878.35
899.4355	1617.5156	9992.85	9103.35
899.5776	1619.2728	10098.65	9215.4
899.7198	1621.0293	10070.45	9188.6
899.862	1622.785	9927.35	9037.1
900.0041	1624.54	9634.65	8747.8
900.1462	1626.2942	9321.9	8434.35
900.2883	1628.0477	8929.45	8041.35
900.4304	1629.8005	8578.85	7690.5
900.5725	1631.5525	8290.95	7408.4
900.7145	1633.3037	8015.8	7129.95
900.8566	1635.0542	7828.6	6946.1
900.9986	1636.804	7613.35	6729.85
901.1406	1638.553	7546.45	6610.55
901.2826	1640.3013	7435.55	6552.05
901.4245	1642.0488	7404.8	6519.3
901.5665	1643.7955	7431.6	6549.25
901.7085	1645.5416	7496.4	6611.35
901.8504	1647.2868	7582.9	6699.25
901.9923	1649.0313	7690.95	6807.25
902.1342	1650.7751	7861.35	6973.1
902.2761	1652.5181	8014.6	7131.25
902.4179	1654.2604	8184.5	7298.55
902.5598	1656.0019	8409.95	7524.5
902.7016	1657.7427	8682.3	7798.5
902.8434	1659.4828	8937.6	8053.6
902.9852	1661.222	9110.2	8226.05
903.127	1662.9606	9103.25	8220.3
903.2687	1664.6984	8885.15	8001.05
903.4105	1666.4354	8461.35	7578.55
903.5522	1668.1717	7892.4	7006.9
903.6939	1669.9072	7313.5	6432.1
903.8356	1671.642	6819.5	5933.3
903.9773	1673.3761	6435.4	5552.75
904.119	1675.1094	6093.95	5210.3
904.2606	1676.8419	5861.05	4979.1
904.4022	1678.5737	5674.1	4790.7
904.5439	1680.3048	5500.95	4617.75
904.6855	1682.0351	5368.3	4486.75
904.827	1683.7646	5257.65	4371.25
904.9686	1685.4934	5174.25	4292.35
905.1101	1687.2215	5104.25	4218.35
905.2517	1688.9488	5036.5	4153.9
905.3932	1690.6754	4981.7	4098.95
905.5347	1692.4012	4936.2	4053
905.6761	1694.1263	4897.2	4013.9
905.8176	1695.8506	4860.4	3977.1
905.9591	1697.5742	4828.25	3946.2
906.1005	1699.297	4761.5	3877.35
906.2419	1701.0191	4717.55	3836.55
906.3833	1702.7404	4702.4	3818.55
906.5246	1704.461	4661.1	3775
906.666	1706.1808	4638.5	3753.05
906.8073	1707.8999	4595.9	3712.25
906.9487	1709.6182	4574.4	3691.5
907.09	1711.3358	4546	3663.75
907.2313	1713.0527	4526.6	3643
907.3725	1714.7688	4510.3	3620.95
907.5138	1716.4841	4486.65	3602
907.655	1718.1987	4461.3	3572.95
907.7962	1719.9126	4454.25	3570.1
907.9374	1721.6257	4432.25	3545.65
908.0786	1723.338	4425.75	3539.5
908.2198	1725.0496	4392.55	3507.9
908.3609	1726.7605	4369.15	3487.1
908.502	1728.4706	4376.75	3496.55
908.6431	1730.18	4356.5	3469.75
908.7842	1731.8886	4340.85	3457.25
908.9253	1733.5964	4336.5	3449.5
909.0664	1735.3036	4319.3	3434.45
909.2074	1737.0099	4302.15	3420.4
909.3484	1738.7156	4255.95	3374.85
909.4894	1740.4204	4239.4	3353.5
909.6304	1742.1246	4232.95	3348.15
909.7714	1743.8279	4211.1	3327.05
909.9123	1745.5306	4175.15	3291.9
910.0532	1747.2325	4156.5	3272.7
910.1941	1748.9336	4137.3	3256.6
910.335	1750.634	4146.55	3262.55
910.4759	1752.3336	4142.05	3258.85
910.6168	1754.0325	4112.1	3231.55
910.7576	1755.7307	4102.65	3219.5
910.8984	1757.4281	4105.65	3220
911.0392	1759.1247	4100.1	3209.1
911.18	1760.8206	4094.65	3207.9
911.3208	1762.5158	4072.8	3184.85
911.4615	1764.2102	4060.95	3179
911.6022	1765.9039	4030.4	3148.15
911.7429	1767.5968	4026.2	3144.4
911.8836	1769.289	4020.4	3135.75
912.0243	1770.9804	4004.25	3120.8
912.1649	1772.6711	4002	3119.2
912.3056	1774.361	3981.65	3097.1
912.4462	1776.0502	3998.5	3116.15
912.5868	1777.7386	3987.85	3102.5
912.7274	1779.4263	3969.65	3086.05
912.8679	1781.1132	3963.3	3079.6
913.0084	1782.7994	3965.25	3080.05
913.149	1784.4849	3949.7	3067.3
913.2895	1786.1696	3954.55	3052.45
913.4299	1787.8535	3917.1	3035
913.5704	1789.5367	3909.2	3024.35
913.7108	1791.2192	3911.05	3028.35
913.8513	1792.9009	3903.95	3007.8
913.9917	1794.5818	3896.45	3011.75
914.132	1796.2621	3881.1	3000.5
914.2724	1797.9415	3880.7	2997.7
914.4128	1799.6202	3874.2	2992.5
914.5531	1801.2982	3857.8	2974.3
914.6934	1802.9755	3859.2	2972.6
914.8337	1804.6519	3851.9	2969.3
914.9739	1806.3277	3831.5	2948.75
915.1142	1808.0027	3828.35	2944.6
915.2544	1809.6769	3819.35	2935.6
915.3946	1811.3504	3812.35	2929.1
915.5348	1813.0231	3805.9	2921.15
915.675	1814.6951	3806.65	2922.75
915.8151	1816.3664	3794.25	2907.3
915.9553	1818.0369	3776.6	2893.5
916.0954	1819.7067	3780.85	2897.9
916.2355	1821.3757	3763.65	2878.25
916.3755	1823.044	3765.55	2883.65
916.5156	1824.7115	3753.55	2870.95
916.6556	1826.3783	3750.55	2870.05
916.7956	1828.0443	3733.1	2850.7
916.9356	1829.7096	3741.35	2859
917.0756	1831.3741	3738.05	2852.65
917.2155	1833.0379	3726.55	2844.05
917.3555	1834.701	3717.6	2832.95
917.4954	1836.3633	3717.85	2832.7
917.6353	1838.0248	3710.35	2825.05
917.7751	1839.6856	3711.95	2828.35
917.915	1841.3457	3692.4	2809.2
918.0548	1843.005	3680.55	2799.9
918.1946	1844.6636	3680.65	2798.05
918.3344	1846.3214	3676.05	2792.4
918.4742	1847.9785	3689.3	2807.55
918.6139	1849.6349	3680.65	2797.7
918.7537	1851.2904	3676	2784.75
918.8934	1852.9453	3647.55	2764.9
919.0331	1854.5994	3649.05	2763.8
919.1727	1856.2528	3656.65	2769.45
919.3124	1857.9054	3642.3	2759.75
919.452	1859.5572	3633.65	2749.35
919.5916	1861.2083	3628.3	2744
919.7312	1862.8587	3620.9	2738.55
919.8708	1864.5084	3609.55	2727.95
920.0103	1866.1572	3606.15	2725.05
920.1498	1867.8054	3602.2	2718.6
920.2893	1869.4528	3592.4	2713.35
920.4288	1871.0994	3588.8	2706.65
920.5683	1872.7453	3570.95	2689.1
920.7077	1874.3905	3580.45	2679.35
920.8471	1876.0349	3549.3	2668
920.9865	1877.6786	3564.3	2680.5
921.1259	1879.3215	3565.6	2684.85
921.2653	1880.9637	3542.7	2658.9
921.4046	1882.6051	3541.6	2659.4
921.5439	1884.2458	3530.85	2647.85
921.6832	1885.8858	3522.85	2642.2
921.8225	1887.525	3524.65	2643.05
921.9617	1889.1634	3504.5	2621.75
922.101	1890.8011	3501.7	2619.3
922.2402	1892.4381	3492.35	2609.85
922.3794	1894.0743	3485.1	2601.75
922.5185	1895.7098	3475.65	2592.8
922.6577	1897.3446	3476.5	2592.65
922.7968	1898.9786	3473	2586.1
922.9359	1900.6118	3476.05	2596.2
923.075	1902.2443	3453.9	2568.4
923.214	1903.8761	3439.15	2556.45
923.3531	1905.5071	3413.5	2528.5
923.4921	1907.1374	3420.7	2538.5
923.6311	1908.7669	3409.75	2526.05
923.77	1910.3957	3413.1	2530.8
923.909	1912.0237	3405.05	2522.2
924.0479	1913.651	3398	2515.7
924.1868	1915.2776	3389.1	2508.95
924.3257	1916.9034	3394	2513.1
924.4646	1918.5285	3362.25	2480.8
924.6034	1920.1528	3361.65	2478.55
924.7422	1921.7764	3347.95	2464.95
924.881	1923.3992	3357.05	2474.05
925.0198	1925.0213	3342.35	2459.5
925.1586	1926.6427	3320.3	2440.5
925.2973	1928.2633	3416.8	2428.5
925.436	1929.8832	3320.2	2437.35
925.5747	1931.5023	3301.95	2417.35
925.7134	1933.1207	3297.7	2415
925.852	1934.7383	3302.85	2421.1
925.9906	1936.3552	3282.2	2399.85
926.1292	1937.9714	3278.1	2395.1
926.2678	1939.5868	3261.9	2376.8
926.4064	1941.2015	3270.5	2386.85
926.5449	1942.8154	3260.3	2377.15
926.6834	1944.4286	3229.6	2345.9
926.8219	1946.041	3243.4	2335.7
926.9604	1947.6528	3216.7	2328.55
927.0988	1949.2637	3217	2335.4
927.2372	1950.8739	3194.15	2312.85
927.3756	1952.4834	3192.1	2306.35
927.514	1954.0921	3187.65	2304.35
927.6523	1955.7001	3187.25	2301.4
927.7907	1957.3074	3183.85	2301.25
927.929	1958.9139	3173.2	2292.5
928.0673	1960.5197	3168.3	2283.7
928.2055	1962.1247	3150.1	2267
928.3438	1963.729	3126.7	2246
928.482	1965.3325	3142.75	2236.8
928.6202	1966.9353	3126	2245.7
928.7584	1968.5374	3129.4	2243.4
928.8965	1970.1387	3112.65	2231.9
929.0346	1971.7393	3112.75	2229.7
929.1727	1973.3392	3099.5	2217.1
929.3108	1974.9383	3097	2214.95
929.4489	1976.5366	3064.65	2180.9
929.5869	1978.1342	3078.1	2195.5
929.7249	1979.7311	3071.8	2188
929.8629	1981.3273	3063.3	2179.7
930.0009	1982.9227	3054.45	2168.85
930.1388	1984.5173	3051.2	2166.8
930.2767	1986.1112	3040.3	2156.85
930.4146	1987.7044	3041.7	2160.6
930.5525	1989.2968	3026.95	2142.95
930.6904	1990.8885	3030.5	2142.75
930.8282	1992.4795	3028.25	2144.9
930.966	1994.0697	3011.85	2129.65
931.1038	1995.6592	3016.4	2133.7
931.2415	1997.2479	2994.95	2112.5
931.3793	1998.8359	2996.1	2113.35
931.517	2000.4232	2988.55	2106.1
931.6547	2002.0097	2973.4	2091.6
931.7923	2003.5955	2975.55	2091
931.93	2005.1805	2964.35	2078.9
932.0676	2006.7648	2962.1	2080.4
932.2052	2008.3484	2947.45	2062.8
932.3427	2009.9312	2965.65	2080.6
932.4803	2011.5133	2951.85	2069.25
932.6178	2013.0946	2945	2060.95
932.7553	2014.6752	2939.75	2058.9
932.8928	2016.2551	2925.4	2040.85
933.0302	2017.8342	2927	2044.5
933.1676	2019.4126	2910.3	2026.65
933.305	2020.9902	2911.5	2028.7
933.4424	2022.5672	2902.45	2018.1
933.5798	2024.1433	2905.95	2016.95
933.7171	2025.7188	2903.85	2023
933.8544	2027.2935	2903.3	2020.6
933.9917	2028.8674	2880.3	1999.2
934.129	2030.4406	2874	1992.3
934.2662	2032.0131	2871.05	1988.25
934.4034	2033.5849	2857.3	1967.9
934.5406	2035.1559	2863.25	1979.6
934.6778	2036.7261	2862.95	1981.5
934.8149	2038.2957	2847.9	1965.25
934.952	2039.8645	2852.45	1972.5
935.0891	2041.4325	2850.4	1964.6
935.2262	2042.9998	2832.7	1951.65
935.3632	2044.5664	2836.95	1952.5
935.5002	2046.1323	2821.6	1939.75
935.6372	2047.6974	2816.7	1934.5
935.7742	2049.2617	2811.05	1928.7
935.9111	2050.8254	2838.15	1922
936.048	2052.3883	2814.65	1930.75
936.1849	2053.9504	2796.6	1914.35
936.3218	2055.5118	2810.05	1926.7
936.4586	2057.0725	2795.25	1907.8
936.5955	2058.6325	2777.95	1895.65
936.7323	2060.1917	2779.25	1896.45
936.869	2061.7502	2774.9	1889.65
937.0058	2063.3079	2765.85	1881.5
937.1425	2064.8649	2768.25	1882.85
937.2792	2066.4212	2762.25	1879.3
937.4159	2067.9767	2755.95	1872.1
937.5525	2069.5315	2745.35	1863.3
937.6891	2071.0856	2738.6	1854.3
937.8257	2072.6389	2725.1	1841.2
937.9623	2074.1915	2724.1	1842.85
938.0989	2075.7433	2720.75	1836.45
938.2354	2077.2945	2711.75	1830.7
938.3719	2078.8448	2710.05	1826.8
938.5084	2080.3945	2703.6	1821.35
938.6448	2081.9434	2698	1814.6
938.7812	2083.4916	2690.1	1806.75
938.9176	2085.039	2682.2	1798.05
939.054	2086.5857	2670.35	1786.95
939.1903	2088.1317	2669.6	1787.4
939.3267	2089.677	2669.2	1786.25
939.463	2091.2215	2671.3	1788.9
939.5992	2092.7652	2652.25	1768.5
939.7355	2094.3083	2652.4	1768.8
939.8717	2095.8506	2651.65	1770.2
940.0079	2097.3921	2639.8	1756.9
940.1441	2098.933	2649.15	1767.6
940.2802	2100.4731	2633.05	1749.45
940.4163	2102.0124	2659.75	1760.5
940.5524	2103.5511	2639.65	1758.4
940.6885	2105.089	2620.1	1736.6
940.8245	2106.6261	2640.7	1758.1
940.9606	2108.1626	2630.2	1747.2
941.0965	2109.6983	2646.9	1736.6
941.2325	2111.2332	2611.3	1727.25
941.3684	2112.7675	2610.65	1726.1
941.5044	2114.301	2615.1	1730
941.6403	2115.8337	2607.3	1724
941.7761	2117.3657	2602.5	1721.7
941.912	2118.897	2593.3	1712.1
942.0478	2120.4276	2598.75	1708.6
942.1835	2121.9575	2585.8	1703.95
942.3193	2123.4866	2595.7	1698.95
942.455	2125.0149	2584.5	1698.7
942.5907	2126.5426	2568.35	1685
942.7264	2128.0695	2570.3	1685.1
942.8621	2129.5956	2560.45	1678.55
942.9977	2131.1211	2563.7	1675.4
943.1333	2132.6458	2549	1666.9
943.2689	2134.1698	2541.75	1660.35
943.4044	2135.693	2549.7	1664.75
943.54	2137.2155	2544.7	1659.8
943.6755	2138.7373	2534.05	1650.4
943.8109	2140.2584	2528.05	1644
943.9464	2141.7787	2528.2	1639
944.0818	2143.2983	2510.1	1628.35
944.2172	2144.8171	2509.6	1626.9
944.3526	2146.3353	2496.1	1611.65
944.4879	2147.8527	2490.95	1608.6
944.6232	2149.3693	2505	1622.1
944.7585	2150.8853	2489.8	1605.9
944.8938	2152.4005	2489.55	1605.4
945.029	2153.9149	2490.1	1608.3
945.1642	2155.4287	2480.95	1599.2
945.2994	2156.9417	2472.85	1587.4
945.4346	2158.454	2478.45	1592.95
945.5697	2159.9655	2465.35	1582.8
945.7048	2161.4764	2464.8	1581.5
945.8399	2162.9865	2466.6	1585.1
945.9749	2164.4958	2463.75	1577.85
946.1099	2166.0045	2443.35	1557.05
946.2449	2167.5124	2443.5	1559.3
946.3799	2169.0195	2444.85	1561.6
946.5148	2170.526	2441.05	1558.6
946.6498	2172.0317	2442.5	1560.6
946.7846	2173.5367	2428.05	1543.3
946.9195	2175.0409	2433.45	1551.65
947.0543	2176.5445	2428.8	1547.65
947.1891	2178.0473	2419.15	1538.55
947.3239	2179.5494	2414.5	1525.6
947.4587	2181.0507	2418.7	1537.55
947.5934	2182.5513	2413.2	1528.15
947.7281	2184.0512	2397.85	1514.25
947.8628	2185.5504	2400.9	1518.75
947.9974	2187.0488	2383.55	1498.95
948.132	2188.5465	2388.55	1506.2
948.2666	2190.0435	2378.25	1494.05
948.4012	2191.5397	2376.5	1494.1
948.5357	2193.0353	2369.4	1485.9
948.6702	2194.5301	2369.15	1485.2
948.8047	2196.0241	2365.5	1484.1
948.9392	2197.5175	2371.45	1490.85
949.0736	2199.0101	2363.7	1478.75
949.208	2200.502	2354.1	1473.65
949.3424	2201.9931	2343.5	1460.65
949.4767	2203.4835	2343.3	1458.2
949.611	2204.9733	2351.15	1461.3
949.7453	2206.4622	2342.9	1461.05
949.8796	2207.9505	2334.55	1447.65
950.0138	2209.438	2322.9	1442.15
950.148	2210.9248	2316.95	1431.25
950.2822	2212.4109	2311.05	1429.8
950.4164	2213.8962	2309.35	1426.45
950.5505	2215.3809	2310.25	1426.05
950.6846	2216.8648	2306.45	1423.05
950.8186	2218.3479	2308.8	1423.2
950.9527	2219.8304	2287.15	1402.35
951.0867	2221.3121	2288.45	1406.35
951.2207	2222.7931	2280.6	1397
951.3546	2224.2733	2268.05	1386.15
951.4886	2225.7529	2269.35	1387.2
951.6225	2227.2317	2268.1	1381.4
951.7563	2228.7098	2264.5	1381.75
951.8902	2230.1872	2257.55	1375.95
952.024	2231.6638	2254.4	1371.3
952.1578	2233.1397	2258.1	1369.95
952.2916	2234.6149	2253.95	1370.65
952.4253	2236.0894	2254.05	1371.4
952.559	2237.5632	2242.9	1346.45
952.6927	2239.0362	2230	1346.35
952.8263	2240.5085	2238.95	1356.65
952.9599	2241.9801	2219.05	1335.35
953.0935	2243.4509	2232.95	1349.9
953.2271	2244.921	2206.9	1324.85
953.3606	2246.3904	2201.95	1317.1
953.4941	2247.8591	2208.3	1328.05
953.6276	2249.3271	2203.9	1321.2
953.7611	2250.7943	2195.35	1315.5
953.8945	2252.2608	2187.25	1304.05
954.0279	2253.7266	2186.1	1303.05
954.1612	2255.1917	2184.85	1303.25
954.2946	2256.656	2185.2	1300.35
954.4279	2258.1197	2175.1	1294.3
954.5612	2259.5826	2187.8	1302.9
954.6944	2261.0447	2168.35	1285.35
954.8276	2262.5062	2165.75	1281.9
954.9608	2263.9669	2174.8	1288.6
955.094	2265.4269	2155.9	1273.4
955.2271	2266.8862	2156.4	1271.7
955.3602	2268.3448	2151.75	1267.45
955.4933	2269.8026	2150.2	1265.55
955.6264	2271.2598	2145.05	1261.5
955.7594	2272.7162	2140.95	1259.25
955.8924	2274.1719	2146.95	1265.1
956.0253	2275.6268	2136	1252.65
956.1583	2277.0811	2128.6	1246.35
956.2912	2278.5346	2138.05	1255.55
956.4241	2279.9874	2127.85	1245.75
956.5569	2281.4395	2121.05	1239.45
956.6897	2282.8908	2130.1	1242.2
956.8225	2284.3414	2127.7	1242.1
956.9553	2285.7914	2116.2	1236.55
957.088	2287.2406	2110.55	1225.5
957.2207	2288.689	2114.2	1232.3
957.3534	2290.1368	2104.7	1222.7
957.486	2291.5838	2113.4	1228.95
957.6186	2293.0302	2113.65	1228.85
957.7512	2294.4758	2095.7	1212.25
957.8838	2295.9206	2097.25	1213.05
958.0163	2297.3648	2090.75	1206.7
958.1488	2298.8082	2091.85	1208.1
958.2813	2300.251	2096.6	1213.8
958.4137	2301.693	2080.85	1195.15
958.5461	2303.1343	2090.45	1208.25
958.6785	2304.5748	2076.45	1193.05
958.8108	2306.0147	2069.15	1186.45
958.9432	2307.4538	2076.4	1190.6
959.0754	2308.8922	2067.7	1183.95
959.2077	2310.3299	2063.6	1180.55
959.3399	2311.7669	2051.65	1168.15
959.4721	2313.2031	2053.45	1171.75
959.6043	2314.6387	2049.25	1166.4
959.7365	2316.0735	2041.6	1159.3
959.8686	2317.5076	2041.3	1158.15
960.0006	2318.941	2051.2	1167.7
960.1327	2320.3737	2033.65	1152.35
960.2647	2321.8056	2033.6	1148.95
960.3967	2323.2369	2025.6	1142
960.5287	2324.6674	2025.2	1140.2
960.6606	2326.0972	2029.1	1144.5
960.7925	2327.5263	2025.8	1144
960.9244	2328.9547	2016.1	1130.5
961.0562	2330.3823	2017.35	1133.85
961.1881	2331.8092	2009.35	1125.55
961.3198	2333.2355	2005.15	1120.7
961.4516	2334.661	2004.55	1120.85
961.5833	2336.0858	2007.85	1123.7
961.715	2337.5098	2000.55	1117.1
961.8467	2338.9332	2001.8	1118
961.9783	2340.3558	1996.75	1109.8
962.1099	2341.7778	1983.25	1098.05
962.2415	2343.199	1991.15	1107.1
962.373	2344.6195	1983.4	1100.05
962.5045	2346.0393	1987.8	1107.35
962.636	2347.4583	1981.55	1097.75
962.7675	2348.8767	1987.45	1105.15
962.8989	2350.2943	1962.9	1080.6
963.0303	2351.7113	1972.3	1090.5
963.1617	2353.1275	1969.5	1086.35
963.293	2354.543	1990.25	1082.95
963.4243	2355.9578	1974.9	1091.5
963.5556	2357.3718	1968.25	1085.5
963.6868	2358.7852	1970.35	1085.75
963.818	2360.1978	1955.2	1070.45
963.9492	2361.6098	1953.7	1071.25
964.0803	2363.021	1956.85	1071.1
964.2114	2364.4315	1940.25	1059.1
964.3425	2365.8413	1948.1	1061.55
964.4736	2367.2504	1938.95	1056.75
964.6046	2368.6587	1939.15	1055.35
964.7356	2370.0664	1934.25	1052.25
964.8666	2371.4733	1937.4	1056.45
964.9975	2372.8795	1928.05	1045.15
965.1284	2374.285	1926.75	1044.2
965.2593	2375.6899	1919	1034.4
965.3901	2377.0939	1913.25	1029.25
965.5209	2378.4973	1911.5	1030.85
965.6517	2379.9	1910	1026.1
965.7825	2381.3019	1897.65	1015.05
965.9132	2382.7032	1901.4	1020.1
966.0439	2384.1037	1909.05	1025
966.1745	2385.5035	1894.45	1013.3
966.3051	2386.9027	1901.65	1017.5
966.4357	2388.3011	1893.6	1008.4
966.5663	2389.6987	1894.8	1009.85
966.6968	2391.0957	1894.25	1013.4
966.8273	2392.492	1868.6	987.8
966.9578	2393.8876	1874.05	990.45
967.0882	2395.2824	1878.2	995.15
967.2186	2396.6765	1865.65	984.3
967.349	2398.07	1862.95	982.15
967.4793	2399.4627	1864.3	980.8
967.6097	2400.8547	1848.1	964.05
967.7399	2402.246	1862.5	975.2
967.8702	2403.6366	1852.65	969.35
968.0004	2405.0265	1846.5	964.85
968.1306	2406.4156	1851.2	965
968.2607	2407.8041	1851.5	965.5
968.3909	2409.1918	1838.8	954.15
968.521	2410.5789	1839.7	957.1
968.651	2411.9652	1838.6	953.95
968.781	2413.3508	1826.85	946.55
968.911	2414.7358	1836.7	953.85
969.041	2416.12	1824.95	943.5
969.1709	2417.5035	1831.05	948.95
969.3008	2418.8863	1822.95	940.1
969.4307	2420.2684	1822.15	939.25
969.5606	2421.6497	1817.15	933.15
969.6904	2423.0304	1814.4	933.55
969.8201	2424.4104	1820.2	938.45
969.9499	2425.7896	1809.4	923.45
970.0796	2427.1682	1815.9	933.9
970.2093	2428.546	1801.05	917.95
970.3389	2429.9232	1811.7	928.9
970.4685	2431.2996	1801.1	919
970.5981	2432.6753	1807.45	924.1
970.7277	2434.0503	1793.3	909.75
970.8572	2435.4246	1784.05	902.4
970.9867	2436.7982	1791	906.9
971.1161	2438.1711	1782.45	901.45
971.2456	2439.5433	1778.9	896.5
971.375	2440.9148	1788.5	899.35
971.5043	2442.2856	1774.55	892.75
971.6336	2443.6557	1768.3	882.85
971.7629	2445.025	1767.2	884.7
971.8922	2446.3937	1771.3	889.55
972.0214	2447.7617	1759.75	875.5
972.1506	2449.1289	1759.05	878.1
972.2798	2450.4955	1762.8	877.15
972.4089	2451.8613	1759.45	877.75
972.538	2453.2265	1745.45	862.45
972.6671	2454.5909	1760.5	878.05
972.7961	2455.9546	1757.95	877.4
972.9251	2457.3177	1747.15	865.6
973.0541	2458.68	1753.5	869.5
973.1831	2460.0416	1744.25	861.1
973.312	2461.4025	1744.85	862.35
973.4408	2462.7627	1755.9	861.5
973.5697	2464.1222	1745.45	864.1
973.6985	2465.4811	1749.25	866.5
973.8273	2466.8392	1746.75	865.3
973.956	2468.1966	1737.15	852.1
974.0847	2469.5533	1737.7	852.45
974.2134	2470.9093	1736.1	850.8
974.3421	2472.2645	1731.9	847.3
974.4707	2473.6191	1729.05	848
974.5993	2474.973	1726.8	842.95
974.7278	2476.3262	1726.05	843.2
974.8563	2477.6787	1731.3	848.8
974.9848	2479.0305	1719.95	836.7
975.1132	2480.3816	1721.4	836.15
975.2417	2481.7319	1713.25	830.4
975.37	2483.0816	1711	825.85
975.4984	2484.4306	1705.75	820.85
975.6267	2485.7789	1708.95	826.05
975.755	2487.1264	1699.45	814.2
975.8833	2488.4733	1698	815.9
976.0115	2489.8195	1717.1	816.8
976.1397	2491.165	1700.95	815.05
976.2678	2492.5097	1695.9	809.9
976.3959	2493.8538	1681.8	799.35
976.524	2495.1972	1689.25	806.2
976.6521	2496.5398	1682.7	798.35
976.7801	2497.8818	1681.2	794.1
976.9081	2499.2231	1681.9	798.55
977.036	2500.5637	1678.15	794.35
977.164	2501.9035	1668.75	785.85
977.2918	2503.2427	1674.7	787.85
977.4197	2504.5812	1678.15	796.45
977.5475	2505.919	1664.7	781.35
977.6753	2507.256	1662.5	779.65
977.8031	2508.5924	1669.15	786.2
977.9308	2509.9281	1664.8	776.35
978.0585	2511.2631	1660.7	777.75
978.1861	2512.5974	1657.85	773.8
978.3137	2513.9309	1651.55	769.3
978.4413	2515.2638	1678	768.15
978.5689	2516.596	1657.5	775.15
978.6964	2517.9275	1641.2	757.2
978.8239	2519.2583	1646.5	763.45
978.9513	2520.5884	1652.1	768.55
979.0788	2521.9178	1642.2	758.3
979.2062	2523.2465	1634.15	751.9
979.3335	2524.5745	1642.35	759.95
979.4608	2525.9018	1640.05	758.95
979.5881	2527.2284	1631.15	748.9
979.7154	2528.5543	1630.2	748.45
979.8426	2529.8796	1636.95	754.05
979.9698	2531.2041	1626.5	743.3
980.0969	2532.5279	1623.15	740.8
980.224	2533.851	1625.25	742.9
980.3511	2535.1735	1632.4	749.65
980.4781	2536.4952	1626.5	744.3
980.6052	2537.8163	1635.2	752.45
980.7321	2539.1366	1617.85	734.4
980.8591	2540.4562	1620.1	736.9
980.986	2541.7752	1619.9	738.55
981.1129	2543.0935	1619.2	736.6
981.2397	2544.411	1615.1	730.2
981.3665	2545.7279	1610.7	729.5
981.4933	2547.0441	1612.95	730.05
981.62	2548.3596	1612.65	725.7
981.7467	2549.6744	1618	734
981.8734	2550.9885	1609.2	723.3
982.0001	2552.3019	1605.75	723.2
982.1267	2553.6146	1608.5	724.8
982.2532	2554.9266	1611.8	728.6
982.3798	2556.2379	1600.4	715.4
982.5063	2557.5485	1601.95	720.65
982.6327	2558.8585	1601.95	711.6
982.7592	2560.1677	1602.15	716.45
982.8856	2561.4762	1598.05	714.5
983.0119	2562.7841	1598.25	712.45
983.1383	2564.0913	1593.15	712.1
983.2646	2565.3977	1586.85	705.95
983.3908	2566.7035	1590.9	706.6
983.517	2568.0086	1599.75	715.9
983.6432	2569.313	1584.35	702.55
983.7694	2570.6167	1592.7	706.15
983.8955	2571.9197	1589.35	707.95
984.0216	2573.222	1587.45	702.85
984.1476	2574.5236	1587	702.95
984.2737	2575.8246	1583.5	699.9
984.3996	2577.1248	1597.4	710.05
984.5256	2578.4244	1586.55	705.7
984.6515	2579.7232	1578.65	696
984.7774	2581.0214	1612.9	698
984.9032	2582.3189	1582.35	700.25
985.029	2583.6157	1582.15	693.1
985.1548	2584.9118	1579.8	698.6
985.2806	2586.2072	1584.75	702
985.4063	2587.5019	1576.6	694.7
985.5319	2588.7959	1582.3	699.1
985.6576	2590.0893	1587	703.6
985.7832	2591.3819	1585.4	705.1
985.9087	2592.6739	1579.2	697.95
986.0343	2593.9652	1580.25	695.7
986.1597	2595.2557	1585.95	704.65
986.2852	2596.5456	1583.55	700.05
986.4106	2597.8348	1583.65	702.55
986.536	2599.1234	1588.15	706.6
986.6614	2600.4112	1580.75	698.25
986.7867	2601.6983	1581.85	695.75
986.912	2602.9848	1579.15	697.55
987.0372	2604.2705	1581.95	693
987.1624	2605.5556	1579.05	696.3
987.2876	2606.84	1569.75	688.35
987.4128	2608.1237	1567.75	684
987.5379	2609.4067	1569.75	688.5
987.6629	2610.689	1577.05	684.85
987.788	2611.9707	1560.6	673.9
987.913	2613.2516	1563.55	676.15
988.0379	2614.5319	1561.25	678.9
988.1629	2615.8115	1562.1	678.95
988.2878	2617.0903	1558.35	673.4
988.4126	2618.3685	1554.1	671.4
988.5375	2619.6461	1540.05	656.4
988.6622	2620.9229	1544.3	662.6
988.787	2622.199	1548.25	664
988.9117	2623.4745	1546.35	660.9
989.0364	2624.7493	1539	656.85
989.161	2626.0234	1545.2	664.7
989.2857	2627.2968	1543.45	660.5
989.4102	2628.5695	1545.95	665.1
989.5348	2629.8415	1534.2	653.6
989.6593	2631.1128	1538.25	654.1
989.7837	2632.3835	1533.6	653.95
989.9082	2633.6535	1535.2	652.85
990.0326	2634.9228	1533.85	652.15
990.1569	2636.1914	1534.45	650.65
990.2812	2637.4593	1535.1	649.9
990.4055	2638.7265	1529	646.45
990.5298	2639.9931	1528.95	645.2
990.654	2641.259	1528.85	644.8
990.7782	2642.5242	1527.2	643.75
990.9023	2643.7887	1531.95	652.15
991.0264	2645.0525	1517.2	635
991.1505	2646.3156	1522.25	638.65
991.2745	2647.5781	1513.75	631.7
991.3985	2648.8398	1511.3	630.65
991.5225	2650.1009	1551.3	631.85
991.6464	2651.3613	1510.15	626.4
991.7703	2652.6211	1505.95	622.15
991.8942	2653.8801	1505.95	625.2
992.018	2655.1385	1504.8	620.6
992.1418	2656.3961	1507.05	623.9
992.2655	2657.6531	1500.65	620.2
992.3892	2658.9094	1507.7	625.65
992.5129	2660.1651	1502.05	619.35
992.6366	2661.42	1503.75	621.65
992.7602	2662.6743	1504.85	621.4
992.8837	2663.9279	1510.2	626.9
993.0073	2665.1808	1514.1	630.95
993.1307	2666.433	1514.95	630.2
993.2542	2667.6846	1506.4	625.05
993.3776	2668.9354	1518.7	634
993.501	2670.1856	1521.6	640.45
993.6244	2671.4351	1524.85	642.9
993.7477	2672.6839	1521.3	636.35
993.8709	2673.9321	1526.85	644.2
993.9942	2675.1795	1528.3	645.8
994.1174	2676.4263	1526.8	645.5
994.2405	2677.6724	1532.05	650.05
994.3637	2678.9179	1536.55	653.55
994.4868	2680.1626	1532.1	650.75
994.6098	2681.4067	1523.55	640.4
994.7328	2682.6501	1519.9	639.3
994.8558	2683.8928	1521.35	638.9
994.9788	2685.1348	1514.7	633.1
995.1017	2686.3761	1517.75	637.1
995.2245	2687.6168	1505.5	622.75
995.3474	2688.8568	1499.55	618.45
995.4702	2690.0961	1501.65	620.35
995.5929	2691.3348	1501.3	618.55
995.7156	2692.5727	1495.85	613.4
995.8383	2693.81	1493.6	610.65
995.961	2695.0466	1492.45	610.15
996.0836	2696.2826	1498.15	614.75
996.2062	2697.5178	1498.05	613.7
996.3287	2698.7524	1495.45	612.65
996.4512	2699.9863	1497.3	613
996.5737	2701.2195	1495.25	613.2
996.6961	2702.452	1501.2	615.05
996.8185	2703.6839	1501.8	618.4
996.9408	2704.9151	1511.2	630.2
997.0631	2706.1456	1514.5	631
997.1854	2707.3755	1520.35	638.4
997.3077	2708.6046	1525.45	640.65
997.4299	2709.8331	1530.6	648.5
997.552	2711.0609	1529.1	647
997.6742	2712.2881	1535.95	652.85
997.7963	2713.5145	1550.25	665.25
997.9183	2714.7403	1561.05	678.9
998.0403	2715.9654	1567.35	684.45
998.1623	2717.1899	1592	694.75
998.2842	2718.4136	1591.35	708.65
998.4062	2719.6367	1595.55	712.85
998.528	2720.8591	1615.55	724.2
998.6498	2722.0809	1626.05	742.75
998.7716	2723.3019	1631	744.95
998.8934	2724.5223	1642.2	758.3
999.0151	2725.7421	1649.35	764.8
999.1368	2726.9611	1646.75	763.85
999.2584	2728.1795	1649.15	762.2
999.38	2729.3972	1650.35	768.55
999.5016	2730.6142	1636.95	745
999.6231	2731.8306	1622.35	739.8
999.7446	2733.0462	1603.7	718.8
999.8661	2734.2612	1587.75	700.1
999.9875	2735.4756	1572.95	687.05
1000.1089	2736.6892	1558.4	674.9
1000.2302	2737.9022	1535.9	652.75
1000.3515	2739.1145	1528.25	646.6
1000.4728	2740.3262	1522.9	632.45
1000.594	2741.5372	1498.4	616.2
1000.7152	2742.7475	1488.7	606.95
1000.8363	2743.9571	1476.7	591.9
1000.9575	2745.1661	1474.9	588.8
1001.0785	2746.3744	1464	581.65
1001.1996	2747.582	1455.8	572.8
1001.3206	2748.7889	1449	564.95
1001.4415	2749.9952	1440.5	556.55
1001.5625	2751.2008	1429.3	548.4
1001.6833	2752.4057	1433.1	547.7
1001.8042	2753.61	1433.15	550.1
1001.925	2754.8136	1422.1	536.1
1002.0458	2756.0165	1429.9	545.95
1002.1665	2757.2188	1430.2	548.95
1002.2872	2758.4204	1418.8	536.55
1002.4078	2759.6213	1420.9	535.2
1002.5285	2760.8215	1424.4	535.25
1002.649	2762.0211	1422.5	538.8
1002.7696	2763.22	1416.85	531.05
1002.8901	2764.4182	1418.2	535.95
1003.0106	2765.6158	1413.7	530.15
1003.131	2766.8127	1409.2	527.05
1003.2514	2768.009	1404.6	522.25
1003.3717	2769.2045	1400.6	518.8
1003.492	2770.3994	1396.45	511.15
1003.6123	2771.5936	1406.1	522.55
1003.7325	2772.7872	1393.7	510.35
1003.8527	2773.9801	1389.05	505.8
1003.9729	2775.1723	1409.05	510.95
1004.093	2776.3639	1396.3	513.1
1004.2131	2777.5548	1393.65	508.45
1004.3331	2778.745	1387.6	505.3
1004.4531	2779.9346	1388.95	505.7
1004.5731	2781.1235	1400.85	517
1004.693	2782.3117	1398.8	516.75
1004.8129	2783.4992	1390.05	507.8
1004.9328	2784.6861	1402.15	518.95
1005.0526	2785.8723	1405.35	522.25
1005.1723	2787.0579	1405.6	523.2
1005.2921	2788.2428	1410.5	527.65
1005.4118	2789.427	1417.7	536.6
1005.5314	2790.6106	1424.2	541.15
1005.651	2791.7935	1424	541.35
1005.7706	2792.9757	1431.25	547.95
1005.8902	2794.1573	1453.8	569.25
1006.0097	2795.3382	1443.8	561.5
1006.1291	2796.5184	1459.5	579.05
1006.2485	2797.698	1478.55	594.45
1006.3679	2798.8769	1485.65	604.15
1006.4873	2800.0551	1498.5	616
1006.6066	2801.2327	1523.5	638.55
1006.7258	2802.4096	1530.1	648.8
1006.8451	2803.5859	1536.95	652.5
1006.9642	2804.7615	1550.2	665.6
1007.0834	2805.9364	1572.55	690.75
1007.2025	2807.1106	1603.75	720.3
1007.3216	2808.2842	1625.15	743.25
1007.4406	2809.4572	1657.85	775.55
1007.5596	2810.6294	1689.5	806.95
1007.6785	2811.801	1730.75	849
1007.7975	2812.972	1753.6	873.6
1007.9163	2814.1423	1793	910.45
1008.0352	2815.3119	1844.9	963.2
1008.154	2816.4808	1878.95	994.95
1008.2727	2817.6491	1934.9	1052.6
1008.3914	2818.8167	1992	1110.75
1008.5101	2819.9837	2041.8	1153.5
1008.6288	2821.15	2098.35	1213.75
1008.7474	2822.3157	2150.4	1269.75
1008.8659	2823.4807	2198.45	1316
1008.9844	2824.645	2263.4	1381.05
1009.1029	2825.8086	2310.6	1427.65
1009.2214	2826.9716	2363.4	1481.8
1009.3398	2828.134	2421.65	1539.1
1009.4581	2829.2957	2464.95	1579.9
1009.5764	2830.4567	2513.05	1631.25
1009.6947	2831.617	2535.05	1653.4
1009.813	2832.7767	2543.05	1660.05
1009.9312	2833.9358	2542.5	1660.5
1010.0493	2835.0941	2539.2	1656.1
1010.1675	2836.2519	2519	1638.85
1010.2855	2837.4089	2502.8	1618.05
1010.4036	2838.5653	2481.8	1598.95
1010.5216	2839.7211	2467.85	1587.3
1010.6396	2840.8761	2465.75	1580.85
1010.7575	2842.0306	2476.85	1595.85
1010.8754	2843.1843	2497.2	1613.95
1010.9932	2844.3374	2524.7	1642.8
1011.111	2845.4899	2576.35	1693.35
1011.2288	2846.6417	2621.15	1739.6
1011.3465	2847.7928	2679.35	1798.2
1011.4642	2848.9433	2753.1	1870.9
1011.5818	2850.0931	2813.25	1929.5
1011.6995	2851.2422	2877.3	1993
1011.817	2852.3907	2951.65	2068.35
1011.9345	2853.5385	3012.45	2128.8
1012.052	2854.6857	3075.8	2168.35
1012.1695	2855.8323	3094.4	2213.9
1012.2869	2856.9781	3132.55	2249.2
1012.4042	2858.1233	3189.4	2307.75
1012.5216	2859.2679	3245	2361.55
1012.6389	2860.4118	3294.8	2411.35
1012.7561	2861.555	3340.85	2451.05
1012.8733	2862.6976	3393.05	2510
1012.9905	2863.8395	3430.6	2548.95
1013.1076	2864.9808	3473.15	2591.05
1013.2247	2866.1214	3480.75	2602.15
1013.3417	2867.2614	3497.5	2616.65
1013.4587	2868.4007	3520.9	2637.4
1013.5757	2869.5393	3528.3	2644.6
1013.6926	2870.6773	3543.95	2657.85
1013.8095	2871.8146	3557.7	2674.2
1013.9263	2872.9513	3560.3	2675.55
1014.0431	2874.0874	3542.35	2661.15
1014.1599	2875.2227	3543.2	2659.9
1014.2766	2876.3574	3524.2	2642.25
1014.3933	2877.4915	3493.8	2612.8
1014.51	2878.6249	3475.7	2594.05
1014.6266	2879.7577	3444.15	2561.15
1014.7431	2880.8898	3436.3	2541.55
1014.8596	2882.0212	3413	2532.05
1014.9761	2883.152	3400.45	2517.15
1015.0925	2884.2821	3383.3	2504.2
1015.2089	2885.4116	3372.2	2489.95
1015.3253	2886.5405	3371.85	2489.35
1015.4416	2887.6686	3383.35	2498.1
1015.5579	2888.7962	3379.4	2499.55
1015.6741	2889.923	3394.15	2512.8
1015.7903	2891.0493	3396.4	2512.45
1015.9065	2892.1748	3415.3	2534.5
1016.0226	2893.2997	3423.4	2541.25
1016.1387	2894.424	3431.2	2549.9
1016.2547	2895.5476	3459	2576.05
1016.3707	2896.6706	3485.7	2604.35
1016.4866	2897.7929	3487.7	2604.05
1016.6025	2898.9145	3511.9	2629.25
1016.7184	2900.0355	3545.95	2663.45
1016.8342	2901.1559	3579.7	2695.7
1016.95	2902.2756	3604.15	2721
1017.0658	2903.3946	3646.45	2765.95
1017.1815	2904.513	3675.5	2789.65
1017.2971	2905.6308	3688.9	2806.1
1017.4127	2906.7479	3710.7	2826.7
1017.5283	2907.8643	3741.45	2858.25
1017.6439	2908.9801	3760.6	2878.15
1017.7594	2910.0953	3757.95	2876.1
1017.8748	2911.2098	3772.75	2885.15
1017.9902	2912.3236	3766.9	2878
1018.1056	2913.4368	3738.35	2853.1
1018.2209	2914.5494	3727.25	2844.8
1018.3362	2915.6613	3696.9	2807.85
1018.4515	2916.7725	3672.75	2785.7
1018.5667	2917.8831	3638.1	2756.1
1018.6819	2918.9931	3603.05	2717.5
1018.797	2920.1024	3583.55	2699.9
1018.9121	2921.211	3574.4	2691.6
1019.0271	2922.319	3538.7	2654.05
1019.1421	2923.4264	3535.1	2653.2
1019.2571	2924.5331	3511.7	2630.35
1019.372	2925.6391	3508.6	2626.25
1019.4869	2926.7445	3506.75	2624.7
1019.6017	2927.8493	3500.85	2618.25
1019.7165	2928.9534	3515.7	2634.55
1019.8313	2930.0569	3507.65	2622.3
1019.946	2931.1597	3517.6	2634.9
1020.0606	2932.2619	3522.4	2639.75
1020.1753	2933.3634	3510	2626.55
1020.2899	2934.4643	3514.9	2625.4
1020.4044	2935.5645	3511.7	2623.75
1020.5189	2936.6641	3491.75	2603.95
1020.6334	2937.763	3447	2566.5
1020.7478	2938.8613	3412.45	2529.3
1020.8622	2939.959	3388.35	2502.65
1020.9765	2941.056	3314.15	2434.65
1021.0908	2942.1523	3258.55	2374.05
1021.2051	2943.248	3164.65	2281.8
1021.3193	2944.3431	3071.85	2189.85
1021.4334	2945.4375	2983.35	2099.9
1021.5476	2946.5313	2898.1	2015.85
1021.6617	2947.6244	2795	1911.15
1021.7757	2948.7169	2694.25	1809.35
1021.8897	2949.8087	2593.65	1712.25
1022.0037	2950.8999	2507.95	1625.1
1022.1176	2951.9904	2419.5	1538.2
1022.2315	2953.0803	2350.35	1468.9
1022.3453	2954.1696	2298.4	1416.8
1022.4591	2955.2582	2242.3	1360.05
1022.5728	2956.3462	2192.95	1310.7
1022.6865	2957.4335	2156.55	1272.85
1022.8002	2958.5202	2117.2	1231.95
1022.9138	2959.6062	2093.35	1210.85
1023.0274	2960.6916	2058.45	1175.25
1023.141	2961.7764	2045	1162.5
1023.2545	2962.8605	2032.7	1149.4
1023.3679	2963.9439	2019.8	1139.5
1023.4813	2965.0267	2005.05	1121.65
1023.5947	2966.1089	2013.3	1106.7
1023.708	2967.1905	1986.55	1105.1
1023.8213	2968.2714	1985.95	1104.95
1023.9346	2969.3516	1983.75	1102.2
1024.0478	2970.4312	1994.9	1103.15
1024.1609	2971.5102	1996.25	1114.2
1024.274	2972.5885	1996	1114.9
1024.3871	2973.6662	1999.15	1111.1
1024.5002	2974.7432	1993.5	1113.7
1024.6132	2975.8196	1997.55	1115.1
1024.7261	2976.8954	1980.75	1101.2
1024.839	2977.9705	1976.25	1094.45
1024.9519	2979.045	1970.95	1088.25
1025.0647	2980.1188	1953.1	1071.55
1025.1775	2981.192	1941.85	1061.15
1025.2902	2982.2645	1924	1040.2
1025.4029	2983.3364	1899.4	1017.25
1025.5156	2984.4077	1867.05	987.45
1025.6282	2985.4783	1861.55	973.6
1025.7407	2986.5483	1820.2	938.8
1025.8532	2987.6177	1789.35	908.15
1025.9657	2988.6864	1752.8	871.15
1026.0782	2989.7545	1722.45	837.8
1026.1906	2990.8219	1686.55	805.6
1026.3029	2991.8887	1662.05	779.35
1026.4152	2992.9548	1611.55	728.5
1026.5275	2994.0204	1585.2	704.9
1026.6397	2995.0852	1559.5	677.95
1026.7519	2996.1495	1545.15	661.7
1026.864	2997.2131	1509.95	629.2
1026.9761	2998.276	1484.35	602.7
1027.0882	2999.3383	1465.15	582.75
1027.2002	3000.4	1440.15	558.15
1027.3122	3001.4611	1425.8	541.9
1027.4241	3002.5215	1405.75	525.1
1027.536	3003.5812	1390.3	507.65
1027.6478	3004.6404	1376.2	494.35
1027.7596	3005.6989	1368.65	483.8
1027.8714	3006.7567	1353.5	471.25
1027.9831	3007.8139	1367.2	458.6
1028.0947	3008.8705	1340.6	458.05
1028.2064	3009.9264	1345	446.05
1028.3179	3010.9818	1317.65	434.7
1028.4295	3012.0364	1314.9	431.9
1028.541	3013.0905	1307.65	426.05
1028.6524	3014.1439	1304.75	420
1028.7638	3015.1966	1301.1	421.8
1028.8752	3016.2487	1294.4	411.25
1028.9865	3017.3002	1296.2	410.3
1029.0978	3018.3511	1291.75	411.55
1029.209	3019.4013	1289.15	406.15
1029.3202	3020.4509	1283.8	402.55
1029.4314	3021.4998	1283.35	401.25
1029.5425	3022.5481	1279.9	398.75
1029.6535	3023.5958	1279.2	397.7
1029.7645	3024.6428	1283.45	399.25
1029.8755	3025.6892	1286.2	405.2
1029.9864	3026.735	1277.8	396.5
1030.0973	3027.7802	1281.15	397.55
1030.2082	3028.8247	1278.85	397.55
1030.319	3029.8685	1274.2	392.9
1030.4297	3030.9118	1278.85	394.7
1030.5404	3031.9544	1282.8	401.7
1030.6511	3032.9963	1286.6	404
1030.7617	3034.0376	1287.75	408.5
1030.8723	3035.0783	1294.4	408.65
1030.9829	3036.1184	1298.25	416.3
1031.0934	3037.1578	1297.9	416.9
1031.2038	3038.1966	1299.2	414.9
1031.3142	3039.2348	1298.35	418.5
1031.4246	3040.2723	1312.75	422.3
1031.5349	3041.3092	1301.4	420.7
1031.6452	3042.3455	1302.05	419.85
1031.7554	3043.3811	1301.65	419.55
1031.8656	3044.4161	1303.8	421.9
1031.9758	3045.4505	1290.35	410.2
1032.0859	3046.4842	1289.35	404.95
1032.1959	3047.5173	1285.85	404.7
1032.3059	3048.5498	1285.3	402.55
1032.4159	3049.5816	1279.95	397.1
1032.5258	3050.6128	1282.95	398.85
1032.6357	3051.6434	1278.1	394.05
1032.7455	3052.6734	1270.65	387.65
1032.8553	3053.7027	1267.45	384.3
1032.9651	3054.7314	1260.45	379.8
1033.0748	3055.7594	1261.5	382.3
1033.1845	3056.7868	1258.45	374.1
1033.2941	3057.8136	1251.05	371.65
1033.4037	3058.8398	1253.2	373.8
1033.5132	3059.8653	1246.7	364.75
1033.6227	3060.8902	1251.8	368.9
1033.7321	3061.9145	1246.65	363.5
1033.8415	3062.9381	1241.1	360.5
1033.9509	3063.9612	1254.9	357.75
1034.0602	3064.9835	1235.9	355.5
1034.1694	3066.0053	1233.15	348.65
1034.2787	3067.0264	1226.1	343
1034.3878	3068.0469	1227	342.8
1034.497	3069.0668	1226.65	341.1
1034.6061	3070.086	1209	327.1
1034.7151	3071.1046	1214.55	331.7
1034.8241	3072.1226	1195.3	311.55
1034.9331	3073.1399	1190.15	309.3
1035.042	3074.1567	1187.65	304.3
1035.1508	3075.1727	1183.55	300.25
1035.2597	3076.1882	1165.85	284.85
1035.3684	3077.203	1167.5	284.15
1035.4772	3078.2173	1161.75	277.3
1035.5859	3079.2308	1151.65	265.9
1035.6945	3080.2438	1149.95	266.2
1035.8031	3081.2561	1135.75	253.65
1035.9117	3082.2678	1132.1	249.8
1036.0202	3083.2789	1129.6	245.8
1036.1286	3084.2893	1123.55	242
1036.2371	3085.2991	1116.85	233.7
1036.3454	3086.3083	1118.45	233.3
1036.4538	3087.3169	1104.6	220.75
1036.562	3088.3248	1104.4	218.9
1036.6703	3089.3321	1099.05	214.4
1036.7785	3090.3388	1096.6	216.65
1036.8866	3091.3449	1089.45	208.6
1036.9948	3092.3503	1086	200.85
1037.1028	3093.3551	1079.85	198.45
1037.2108	3094.3593	1079.55	199.4
1037.3188	3095.3629	1078.8	196.6
1037.4267	3096.3658	1077.3	195.4
1037.5346	3097.3681	1075	192.85
1037.6425	3098.3698	1072.9	189.8
1037.7503	3099.3708	1070.55	182.65
1037.858	3100.3713	1067.1	184.55
1037.9657	3101.3711	1063.45	179.8
1038.0734	3102.3702	1202.2	179.9
1038.181	3103.3688	1062.25	178.5
1038.2886	3104.3667	1054.65	174.75
1038.3961	3105.364	1050.9	170.7
1038.5036	3106.3607	1054.8	171.8
1038.611	3107.3568	1047.85	165.85
1038.7184	3108.3522	1046.7	164.9
1038.8257	3109.347	1048.95	166.85
1038.933	3110.3412	1045.55	159.7
1039.0403	3111.3348	1043.1	161.5
1039.1475	3112.3277	1038.5	157.7
1039.2547	3113.32	1036.1	154.2
1039.3618	3114.3117	1036.35	155.95
1039.4689	3115.3028	1034.45	150.15
1039.5759	3116.2932	1032.95	150.45
1039.6829	3117.2831	1038	150.3
1039.7898	3118.2723	1025.9	143.55
1039.8967	3119.2608	1025.35	143.6
1040.0035	3120.2488	1030.9	148
1040.1103	3121.2361	1029.1	147.55
1040.2171	3122.2229	1022.15	138.55
1040.3238	3123.209	1026.6	142.3
1040.4305	3124.1944	1019.5	139.4
1040.5371	3125.1793	1020.6	137.3
1040.6437	3126.1635	1018.3	136.8
1040.7502	3127.1471	1014.25	134.05
1040.8567	3128.1301	1014.35	130.85
1040.9631	3129.1125	1014.1	133.1
1041.0695	3130.0942	1011.95	129.9
1041.1759	3131.0753	1020.6	131
1041.2822	3132.0558	1015.05	130.95
1041.3884	3133.0357	1009.8	124.65
1041.4946	3134.015	1012.05	131
1041.6008	3134.9936	1011.8	128.2
1041.7069	3135.9716	1026.35	123.4
1041.813	3136.949	1004.35	123.1
1041.919	3137.9258	1020	120.25
1042.025	3138.902	1007.7	122.4
1042.1309	3139.8775	1003.95	122.7
1042.2368	3140.8524	1002.25	119.75
1042.3427	3141.8267	999.2	117.45
1042.4485	3142.8004	1002.8	120.6
1042.5542	3143.7735	1006.9	118.35
1042.6599	3144.7459	1003	118.75
1042.7656	3145.7178	998.85	117.1
1042.8712	3146.689	996.6	116.65
1042.9768	3147.6596	990.55	105.25
1043.0823	3148.6295	994.6	112.4
1043.1878	3149.5989	992.85	111.15
1043.2932	3150.5676	993.3	112.95
1043.3986	3151.5357	991.1	111.95
1043.5039	3152.5032	985.6	101.35
1043.6092	3153.4701	985.55	104.8
1043.7145	3154.4364	994.7	110.65
1043.8197	3155.402	987.5	106.5
1043.9248	3156.367	990.95	109.65
1044.03	3157.3315	1016.5	102.7
1044.135	3158.2952	985.65	105.5
1044.24	3159.2584	987.7	107.2
1044.345	3160.221	984.95	103.8
1044.4499	3161.1829	981.5	99.7
1044.5548	3162.1442	980.65	99.5
1044.6596	3163.105	981.45	97.55
1044.7644	3164.065	982.3	101.1
1044.8692	3165.0245	981.2	96.85
1044.9739	3165.9834	976.85	96.85
1045.0785	3166.9416	978.3	96.35
1045.1831	3167.8993	980.1	98.45
1045.2877	3168.8563	977.45	94.95
1045.3922	3169.8127	973.65	90.3
1045.4966	3170.7684	975.95	94.2
1045.6011	3171.7236	981.15	99.35
1045.7054	3172.6782	975.25	94.45
1045.8098	3173.6321	975.15	94.3
1045.914	3174.5854	980.1	92.85
1046.0183	3175.5381	976.15	95.1
1046.1224	3176.4902	974.15	92.15
1046.2266	3177.4417	971.05	89.95
1046.3307	3178.3926	971.1	90.75
1046.4347	3179.3428	969.25	88.15
1046.5387	3180.2924	973.1	91.9
1046.6427	3181.2415	971.8	88.3
1046.7466	3182.1899	968.7	85.2
1046.8504	3183.1377	969.95	88.05
1046.9542	3184.0848	971.55	87
1047.058	3185.0314	970.5	87.35
1047.1617	3185.9773	969.2	87.7
1047.2654	3186.9227	968.8	84.55
1047.369	3187.8674	966.35	84.75
1047.4726	3188.8115	971	84.2
1047.5761	3189.755	963.35	81
1047.6796	3190.6979	963.4	79.85
1047.783	3191.6402	966.15	85.35
1047.8864	3192.5818	961.55	80.55
1047.9898	3193.5229	985.15	83.65
1048.0931	3194.4633	963.75	81.7
1048.1963	3195.4031	960.7	78.35
1048.2995	3196.3423	962.85	81.6
1048.4027	3197.2809	962.65	80.95
1048.5058	3198.2189	962.35	81.95
1048.6089	3199.1563	976.65	76.35
1048.7119	3200.0931	958.35	75.7
1048.8148	3201.0292	957.5	77.75
1048.9178	3201.9648	957.15	74.75
1049.0206	3202.8997	958.65	75.65
1049.1235	3203.834	959.5	77.85
1049.2262	3204.7677	959.65	79.1
1049.329	3205.7008	960.5	77.75
1049.4317	3206.6333	954.6	74.55
1049.5343	3207.5652	957.2	73.3
1049.6369	3208.4964	960.75	79.75
1049.7394	3209.4271	953.7	72.4
1049.8419	3210.3571	953.7	71
1049.9444	3211.2865	955.3	73.25
1050.0468	3212.2154	952.85	69.9
1050.1491	3213.1436	958.65	73.4
1050.2514	3214.0712	961.75	73.3
1050.3537	3214.9982	955.95	73.75
1050.4559	3215.9246	953.8	72.95
1050.5581	3216.8503	950.45	69.6
1050.6602	3217.7755	950.65	69.25
1050.7623	3218.7001	952.25	72.5
1050.8643	3219.624	952.65	67.85
1050.9663	3220.5473	949.55	69.35
1051.0682	3221.4701	953.9	69.6
1051.1701	3222.3922	950.75	64.45
1051.2719	3223.3137	949.4	67.1
1051.3737	3224.2346	947.7	66.4
1051.4754	3225.1549	949.55	69.3
1051.5771	3226.0746	947.4	63.25
1051.6788	3226.9937	947.95	67.3
1051.7804	3227.9121	947.2	65.15
1051.8819	3228.83	946.45	64.8
1051.9834	3229.7473	949.7	68.65
1052.0849	3230.6639	948.2	64.7
1052.1863	3231.5799	946.65	65.35
1052.2876	3232.4954	948.2	67.45
1052.3889	3233.4102	947.5	65.05
1052.4902	3234.3244	948.6	68.45
1052.5914	3235.238	944.7	64.2
1052.6926	3236.151	968.5	62.1
1052.7937	3237.0634	942.95	62.45
1052.8948	3237.9752	945.1	62.85
1052.9958	3238.8864	944.1	61.9
1053.0968	3239.797	945.3	63.75
1053.1977	3240.7069	945.55	61.8
1053.2986	3241.6163	946.05	62.85
1053.3994	3242.5251	940.25	58.1
1053.5002	3243.4332	938.95	58
1053.6009	3244.3408	941.3	60.5
1053.7016	3245.2477	940.5	59.4
1053.8022	3246.154	941	60.4
1053.9028	3247.0598	941.25	57.05
1054.0034	3247.9649	939.9	58.3
1054.1039	3248.8694	940.9	59
1054.2043	3249.7733	938.35	56.25
1054.3047	3250.6766	936.65	54.55
1054.4051	3251.5793	935.85	51.6
1054.5054	3252.4814	936.8	56.35
1054.6056	3253.3829	933.3	53.9
1054.7058	3254.2838	935.2	53.95
1054.806	3255.1841	935.95	54.65
1054.9061	3256.0838	934.7	53.8
1055.0061	3256.9829	930.65	52.7
1055.1062	3257.8814	936.85	51.85
1055.2061	3258.7792	932.55	48.35
1055.306	3259.6765	934.95	52.85
1055.4059	3260.5731	929.4	48.05
1055.5057	3261.4692	928.75	45.55
1055.6055	3262.3647	930.9	46.6
1055.7052	3263.2595	926.05	44.5
1055.8049	3264.1538	928.8	47.5
1055.9045	3265.0474	927.4	44.9
1056.0041	3265.9404	926.25	46.1
1056.1036	3266.8329	925.5	43.75
1056.2031	3267.7247	936.3	44.75
1056.3025	3268.616	924.15	44.05
1056.4019	3269.5066	922.3	39.4
1056.5013	3270.3966	925.2	40.6
1056.6005	3271.286	919.9	39.85
