Software Version:	3.9.2.0
Unit SN:	10000200
Spectrometer SN:	6960
Date:	3/14/2024 1:33:10 PM
Data Line Index:	25
Spectral Points:	2048
Integration time (ms):	125
Averages:	20
Delay (ms):	30000
Sequence Number:	1
Processing:	dark subtract
Laser Power (mW):	300
Laser Current (mA):	824
Laser Diode Temp (C):	25
Laser Case Temp (C):	28.6
System Temp (C):	28.6
Spectrometer Temp (C):	26.4
CCD Temp (C):	0.008
Secondary Temp (C):	20.007
Heatsink Temp (C):	24.504
CCDPCB Temp (C):	38.063
SecondaryPCB Temp (C):	35.64

Wavelength	RamanShift	Raw Counts	Dark Subtracted
787.061	30.1047	467.3	56.35
787.2016	32.3739	470.75	62
787.3422	34.6426	473.05	64.1
787.4828	36.9109	480.05	68.25
787.6235	39.1787	489.3	74.75
787.7642	41.4461	501.25	81.05
787.9049	43.7131	512.9	89.1
788.0456	45.9796	517.4	90.85
788.1863	48.2456	533.85	103.1
788.3271	50.5112	539.05	104.05
788.4679	52.7764	549.05	111.6
788.6087	55.0411	560.3	116.8
788.7496	57.3054	574	127.8
788.8904	59.5692	586.55	136.7
789.0313	61.8326	597.25	144.8
789.1722	64.0955	612.7	153.95
789.3132	66.3579	632.75	169.25
789.4541	68.6199	653.65	186.8
789.5951	70.8815	696.25	228.6
789.7361	73.1426	774.2	302.7
789.8771	75.4032	999.65	522.15
790.0181	77.6634	1545.6	1061.95
790.1592	79.9231	2862.15	2373.15
790.3003	82.1824	5741.95	5241.85
790.4414	84.4412	11013.95	10495.1
790.5825	86.6995	18372.25	17827.75
790.7237	88.9574	25615.05	25046.5
790.8648	91.2148	30719.7	30131.95
791.006	93.4717	33101.95	32504.45
791.1472	95.7282	33595.7	32996.3
791.2885	97.9842	33440.2	32835.85
791.4297	100.2398	32776.05	32169.15
791.571	102.4949	32032.75	31420.6
791.7123	104.7495	31143.3	30525.75
791.8536	107.0036	30213	29599.45
791.9949	109.2573	29445.1	28830.35
792.1363	111.5105	28695.3	28081.15
792.2777	113.7632	28016.45	27399.2
792.4191	116.0154	27467.9	26840.15
792.5605	118.2672	27056.15	26434.45
792.7019	120.5185	26644.25	26021.3
792.8434	122.7693	26325.9	25698.2
792.9849	125.0197	26117.75	25493.95
793.1264	127.2696	25793.85	25162.75
793.2679	129.519	25646	25012.45
793.4094	131.7679	25388	24754.15
793.551	134.0163	25136.25	24498.05
793.6926	136.2642	24848.85	24207.5
793.8342	138.5117	24503.55	23851.3
793.9758	140.7587	24150.05	23502.05
794.1175	143.0052	23813.85	23163.05
794.2591	145.2512	23500.2	22851.95
794.4008	147.4967	23216.2	22563.6
794.5425	149.7417	22977.95	22326.1
794.6842	151.9863	22779.1	22123.9
794.826	154.2304	22705.55	22044.65
794.9677	156.4739	22503.5	21837.9
795.1095	158.717	22440.8	21778
795.2513	160.9596	22227	21559.2
795.3931	163.2017	21961.85	21294.8
795.535	165.4433	21668.85	20997.65
795.6768	167.6844	21352.6	20680.95
795.8187	169.925	21030.8	20355.6
795.9606	172.1651	20665.3	19983.35
796.1025	174.4047	20379.15	19696.8
796.2445	176.6439	20101.9	19418.2
796.3864	178.8825	19867.9	19180.45
796.5284	181.1206	19750.55	19061.3
796.6704	183.3582	19573.8	18879.1
796.8124	185.5954	19495.2	18801.45
796.9544	187.832	19392.25	18693
797.0965	190.0681	19347.1	18646.45
797.2386	192.3037	19350.9	18647.85
797.3806	194.5388	19290.7	18578.2
797.5228	196.7734	19306.4	18596.6
797.6649	199.0075	19401.35	18688
797.807	201.2411	19542.15	18826.75
797.9492	203.4742	19597.85	18882.75
798.0914	205.7068	19759.7	19044.25
798.2336	207.9389	19897.1	19181.4
798.3758	210.1704	20033.75	19312.4
798.518	212.4015	20143.25	19421.15
798.6603	214.632	20300.15	19581.65
798.8025	216.862	20421.25	19707.05
798.9448	219.0915	20515.85	19807.4
799.0871	221.3205	20632.25	19925.7
799.2294	223.549	20724.45	20022.9
799.3718	225.777	20879.7	20176.65
799.5141	228.0044	21020.1	20316.7
799.6565	230.2314	21221.8	20520.35
799.7989	232.4578	21416.6	20713.3
799.9413	234.6837	21596.1	20884.45
800.0837	236.909	21705.85	20992.95
800.2262	239.1339	21758.85	21026.3
800.3687	241.3582	21597.25	20875.7
800.5111	243.582	21456.2	20709.35
800.6536	245.8053	21316.55	20575.85
800.7961	248.0281	21174.65	20440.35
800.9387	250.2503	21103.25	20364.05
801.0812	252.472	21130.65	20388.15
801.2238	254.6932	21226.45	20481.35
801.3664	256.9139	21274.05	20523.5
801.509	259.134	21419.5	20670.25
801.6516	261.3536	21606.95	20860.2
801.7942	263.5727	21876.4	21123.3
801.9369	265.7912	22046.6	21296
802.0795	268.0092	22269.15	21517.3
802.2222	270.2267	22395.45	21646.1
802.3649	272.4436	22454.5	21702.7
802.5076	274.6601	22497.15	21737.3
802.6504	276.8759	22378.55	21623.35
802.7931	279.0913	22311.15	21552.3
802.9359	281.3061	22165.2	21408.7
803.0787	283.5204	22087	21326.7
803.2215	285.7341	22071.15	21306.35
803.3643	287.9473	22134.7	21358.5
803.5071	290.16	22196.4	21424.25
803.6499	292.3721	22335.05	21571.95
803.7928	294.5837	22580	21814.2
803.9357	296.7947	22817.1	22049.85
804.0786	299.0052	22984.4	22217.7
804.2215	301.2152	22963.7	22195.7
804.3644	303.4246	22745.75	21978.8
804.5074	305.6334	22347.9	21582.5
804.6503	307.8418	21885.8	21115.4
804.7933	310.0495	21471.15	20704.5
804.9363	312.2568	21020.4	20251.55
805.0793	314.4635	20615.4	19844.95
805.2223	316.6696	20339.4	19567.9
805.3653	318.8752	20118.75	19338.9
805.5084	321.0802	20067.2	19293.1
805.6514	323.2847	20081.85	19307.8
805.7945	325.4887	20110.15	19336.95
805.9376	327.692	20077.45	19303.15
806.0807	329.8949	20017.7	19239.4
806.2238	332.0972	19781.85	19004.35
806.367	334.2989	19572.2	18789.25
806.5101	336.5001	19317.95	18533.15
806.6533	338.7007	19092.8	18311.25
806.7965	340.9008	18933.45	18148.15
806.9397	343.1003	18793.15	18006.65
807.0829	345.2992	18653.7	17868.55
807.2261	347.4976	18556.05	17769.25
807.3693	349.6955	18491.9	17699.45
807.5126	351.8927	18475.35	17685.15
807.6559	354.0895	18355.25	17550.55
807.7991	356.2856	18393	17598.35
807.9424	358.4812	18292	17498.75
808.0857	360.6763	18297.4	17501.5
808.2291	362.8707	18284.75	17487.15
808.3724	365.0646	18303.5	17506.65
808.5158	367.258	18328.35	17532.05
808.6591	369.4508	18362.15	17561.8
808.8025	371.643	18454.45	17652.9
808.9459	373.8346	18501.8	17698.2
809.0893	376.0257	18535.75	17729.1
809.2327	378.2162	18539.7	17735.35
809.3762	380.4062	18495.75	17683.45
809.5196	382.5956	18373	17562.55
809.6631	384.7844	18264.3	17454.8
809.8066	386.9726	18116.4	17306.15
809.9501	389.1603	17996.6	17189.75
810.0936	391.3474	17940.35	17098.6
810.2371	393.5339	17897.35	17087.3
810.3806	395.7199	17817.9	17017.55
810.5241	397.9052	17845.95	17043.85
810.6677	400.09	17869.15	17068
810.8113	402.2743	18005.35	17202.4
810.9548	404.4579	18115.7	17315.25
811.0984	406.641	18318.65	17516.7
811.2421	408.8235	18456.9	17654.85
811.3857	411.0054	18653.15	17850.85
811.5293	413.1868	18880.25	18071.25
811.673	415.3675	19005	18198.35
811.8166	417.5477	19049.1	18240.45
811.9603	419.7273	19055.05	18244.15
812.104	421.9064	18915.15	18094.95
812.2477	424.0848	18817.7	18001.9
812.3914	426.2627	18640.95	17826.15
812.5351	428.4399	18405.85	17587.2
812.6788	430.6166	18068.7	17248.5
812.8226	432.7928	17683.5	16861.5
812.9663	434.9683	17350.45	16527.75
813.1101	437.1432	17095.1	16270.95
813.2539	439.3176	16912.15	16088.1
813.3977	441.4914	16763.15	15936.95
813.5415	443.6645	16728.5	15901.2
813.6853	445.8371	16627.6	15802.25
813.8291	448.0091	16593.9	15768.25
813.973	450.1806	16509.3	15684.4
814.1168	452.3514	16467	15638.05
814.2607	454.5216	16498.9	15662.9
814.4046	456.6913	16422.95	15592.95
814.5485	458.8603	16474	15646.95
814.6924	461.0288	16519.6	15692
814.8363	463.1967	16480.95	15649.5
814.9802	465.3639	16552.5	15722.55
815.1241	467.5306	16498.4	15669.1
815.2681	469.6967	16536.05	15706.65
815.412	471.8622	16584.15	15759
815.556	474.0271	16638.85	15812.7
815.7	476.1914	16642.45	15809.85
815.844	478.3551	16645.1	15811.05
815.988	480.5182	16662.55	15828.25
816.132	482.6807	16744.25	15913.45
816.276	484.8426	16849.85	16016.7
816.4201	487.0039	17164.45	16332.7
816.5641	489.1647	17571.7	16738.55
816.7082	491.3248	17953.75	17120.2
816.8522	493.4843	18030.65	17196.05
816.9963	495.6432	18014.6	17178.8
817.1404	497.8015	17873.5	17035.65
817.2845	499.9592	17747.9	16912.55
817.4286	502.1163	17563.3	16723.55
817.5727	504.2728	17272.6	16433.3
817.7168	506.4287	16967.3	16129.7
817.861	508.5839	16620.95	15781.2
818.0051	510.7386	16370.65	15534.8
818.1493	512.8927	16239.2	15394.4
818.2935	515.0461	16213.7	15373.95
818.4377	517.199	16234.85	15398.55
818.5818	519.3512	16290.95	15452.65
818.726	521.5029	16544.5	15697.45
818.8703	523.6539	16715.9	15876.45
819.0145	525.8043	16837.15	15995.55
819.1587	527.9541	16787.65	15943
819.303	530.1033	16628.3	15784.3
819.4472	532.2519	16504.6	15662.3
819.5915	534.3999	16455.55	15611
819.7357	536.5472	16531.5	15686.35
819.88	538.694	16790.8	15947.75
820.0243	540.8401	17119.1	16276.05
820.1686	542.9856	17365.15	16520.15
820.3129	545.1305	17426.35	16584.55
820.4572	547.2748	17313.1	16468.9
820.6016	549.4185	17118	16270.75
820.7459	551.5615	16870.35	16027.25
820.8902	553.704	16834.6	15987.85
821.0346	555.8458	16825.65	15979.2
821.1789	557.987	16978.25	16129.9
821.3233	560.1276	17134.15	16285
821.4677	562.2675	17464.95	16618.75
821.6121	564.4069	17839.75	16993.8
821.7565	566.5456	18182.5	17334.4
821.9009	568.6837	18327.7	17480.55
822.0453	570.8212	17953.8	17105.65
822.1897	572.958	17317.55	16467.05
822.3342	575.0942	16720.2	15874
822.4786	577.2299	16327.35	15479.15
822.6231	579.3648	16097.8	15250.75
822.7675	581.4992	15977.95	15128.15
822.912	583.6329	16118.85	15267.75
823.0565	585.766	16310.4	15464.15
823.201	587.8985	16438.35	15590.05
823.3454	590.0304	16439.15	15567.85
823.4899	592.1616	16380.6	15526.4
823.6345	594.2922	16231.05	15380.65
823.779	596.4222	16036.4	15186.75
823.9235	598.5515	15832.95	14979.9
824.068	600.6802	15662.05	14809.6
824.2126	602.8083	15455.8	14605.05
824.3571	604.9358	15427.95	14574.25
824.5017	607.0626	15390.45	14538.65
824.6462	609.1888	15452.8	14599.45
824.7908	611.3144	15572	14719.25
824.9354	613.4393	15644.15	14790.55
825.08	615.5636	15684.55	14828.15
825.2246	617.6873	15658.5	14804.85
825.3692	619.8103	15609.75	14752.25
825.5138	621.9327	15419.5	14560.85
825.6584	624.0544	15218.15	14364.9
825.803	626.1756	15055.2	14201.25
825.9477	628.2961	14937.75	14081.5
826.0923	630.4159	14835.3	13977.2
826.237	632.5351	14780.2	13923.65
826.3816	634.6537	14737.6	13881.3
826.5263	636.7716	14708.25	13849.4
826.6709	638.8889	14732.9	13875
826.8156	641.0056	14765.25	13906.85
826.9603	643.1216	14732.55	13872.9
827.105	645.237	14704	13842.6
827.2497	647.3518	14579.95	13720.55
827.3944	649.4659	14571.7	13713.1
827.5391	651.5793	14481.4	13623.1
827.6838	653.6922	14415.5	13555.5
827.8285	655.8043	14407.2	13547.85
827.9733	657.9159	14415.9	13556.4
828.118	660.0268	14342.9	13479.35
828.2627	662.137	14320.8	13464.3
828.4075	664.2466	14277.85	13414.05
828.5522	666.3556	14309.65	13451.5
828.697	668.4639	14251.05	13384.2
828.8418	670.5716	14210.55	13349.05
828.9865	672.6786	14221.3	13359.55
829.1313	674.785	14135.35	13274.5
829.2761	676.8907	14122.3	13260
829.4209	678.9958	14141.7	13280.4
829.5657	681.1002	14060.25	13195.1
829.7105	683.204	14056.65	13189.9
829.8553	685.3072	14001	13137.95
830.0001	687.4097	13948.3	13084.8
830.1449	689.5115	13955	13091.65
830.2898	691.6127	13932.85	13069.05
830.4346	693.7132	13909.95	13046.8
830.5794	695.8131	13882	13006.15
830.7243	697.9123	13893.35	13028.55
830.8691	700.0109	13872	13006.85
831.014	702.1089	13882	13016.7
831.1588	704.2061	13919.7	13053.1
831.3037	706.3028	13958.5	13091.4
831.4486	708.3987	13995.55	13128.5
831.5935	710.4941	13999.2	13133.15
831.7383	712.5887	14049.85	13182
831.8832	714.6827	14188.7	13319.45
832.0281	716.7761	14327.2	13459.4
832.173	718.8688	14553.55	13687
832.3179	720.9608	14692.4	13822.15
832.4628	723.0522	14814.55	13940.6
832.6077	725.1429	14829.95	13961.2
832.7527	727.233	14822.55	13952.2
832.8976	729.3224	14785.9	13917.9
833.0425	731.4112	14686.8	13818.45
833.1874	733.4993	14489.2	13617.4
833.3324	735.5867	14254.9	13385.7
833.4773	737.6735	14053.3	13184.45
833.6222	739.7596	13880.5	13009.2
833.7672	741.845	13738.9	12868.55
833.9122	743.9298	13618.35	12745.8
834.0571	746.014	13587.55	12719.4
834.2021	748.0974	13541.2	12668.35
834.347	750.1802	13510.65	12641.85
834.492	752.2624	13531.4	12661.45
834.637	754.3439	13573.6	12702.9
834.782	756.4247	13684.1	12805.05
834.9269	758.5048	13802.5	12932.85
835.0719	760.5843	14062.65	13191.35
835.2169	762.6631	14419.6	13547.6
835.3619	764.7413	14955	14083.3
835.5069	766.8188	15637.5	14764.5
835.6519	768.8956	16207.05	15333.85
835.7969	770.9718	16589.5	15717.65
835.9419	773.0473	16514.25	15643.35
836.0869	775.1221	16290.4	15420.35
836.232	777.1962	15991.65	15117.85
836.377	779.2697	15819.7	14947.05
836.522	781.3426	15834.6	14954.3
836.667	783.4147	15945.3	15071.15
836.8121	785.4862	16065.65	15193.5
836.9571	787.557	15956.15	15083.95
837.1021	789.6271	15488.55	14615.45
837.2472	791.6966	14871.2	13998.75
837.3922	793.7654	14262.55	13388.25
837.5373	795.8335	13810.35	12935.8
837.6823	797.901	13512.95	12642.05
837.8274	799.9678	13344	12470.35
837.9724	802.0339	13216	12346.05
838.1175	804.0993	13197.85	12317.25
838.2626	806.1641	13112.05	12238
838.4076	808.2282	13032.3	12161.2
838.5527	810.2916	12959.2	12081.75
838.6978	812.3544	12858.25	11987.4
838.8428	814.4164	12796.45	11922.6
838.9879	816.4778	12811.3	11936.3
839.133	818.5385	12829.95	11957.4
839.2781	820.5986	12942.95	12070.75
839.4232	822.658	13149.25	12276.3
839.5682	824.7166	13432.3	12559.9
839.7133	826.7747	13887.9	13015.05
839.8584	828.832	14337.55	13463.05
840.0035	830.8886	14682.25	13806.8
840.1486	832.9446	14848.3	13972.7
840.2937	834.9999	14750.35	13878.95
840.4388	837.0545	14483.45	13603.3
840.5839	839.1085	14223.1	13348.15
840.729	841.1618	13925.2	13046.5
840.8741	843.2143	13684.6	12808
841.0192	845.2662	13484.85	12611.1
841.1643	847.3175	13351.25	12476.8
841.3095	849.368	13217.65	12342.65
841.4546	851.4179	13108.95	12234.9
841.5997	853.467	12990.2	12116.5
841.7448	855.5155	12897.95	12023.5
841.8899	857.5633	12791.35	11917.7
842.0351	859.6105	12702.85	11828.75
842.1802	861.6569	12608.95	11734.15
842.3253	863.7027	12516.1	11640.3
842.4704	865.7478	12466.95	11590.65
842.6156	867.7922	12428.85	11551.75
842.7607	869.8359	12405.25	11529.15
842.9058	871.8789	12423	11545.25
843.0509	873.9212	12553.5	11643.1
843.1961	875.9629	12595.8	11719.65
843.3412	878.0039	12725.9	11849.2
843.4863	880.0441	12812.4	11938.5
843.6315	882.0837	12844.5	11968.8
843.7766	884.1226	12844.9	11966.1
843.9218	886.1609	12847.95	11972.85
844.0669	888.1984	12903.1	12028.65
844.212	890.2352	12970.85	12094.9
844.3572	892.2714	13007.8	12127
844.5023	894.3069	12947.15	12067.85
844.6475	896.3416	12802.8	11922.15
844.7926	898.3757	12651.85	11773.15
844.9377	900.4091	12577.3	11698.75
845.0829	902.4418	12538.85	11655.15
845.228	904.4739	12543.05	11664.35
845.3732	906.5052	12612.95	11735.35
845.5183	908.5358	12538.5	11661.75
845.6635	910.5658	12380.65	11502.3
845.8086	912.595	12202	11323.9
845.9538	914.6236	11981.9	11104.1
846.0989	916.6515	11838.85	10962.75
846.2441	918.6786	11776.35	10895.85
846.3892	920.7051	11733.2	10852.25
846.5344	922.7309	11806.55	10929.75
846.6795	924.756	11798.7	10921
846.8246	926.7804	11889.3	11007
846.9698	928.8041	11832.7	10951.55
847.1149	930.8272	11897.75	11015.5
847.2601	932.8495	11842.2	10961.85
847.4052	934.8711	11800.05	10919.35
847.5504	936.892	11722.45	10841.1
847.6955	938.9123	11687.9	10806.95
847.8407	940.9318	11673.45	10797.05
847.9858	942.9506	11633.3	10754.5
848.131	944.9688	11563.85	10683.75
848.2761	946.9862	11483.7	10604.55
848.4213	949.003	11336.6	10456.9
848.5664	951.019	11255.35	10375.65
848.7115	953.0344	11184.95	10306.1
848.8567	955.0491	11148.25	10268.7
849.0018	957.063	11202.3	10322.8
849.147	959.0763	11266.6	10387.9
849.2921	961.0888	11253.85	10371.75
849.4373	963.1007	11338.4	10457.2
849.5824	965.1119	11353.9	10473
849.7275	967.1223	11359.3	10476.5
849.8727	969.1321	11327.65	10448.45
850.0178	971.1412	11325.6	10445.75
850.1629	973.1495	11305.3	10424.45
850.3081	975.1572	11341.95	10430.4
850.4532	977.1641	11339.1	10456.45
850.5983	979.1704	11296.25	10415
850.7435	981.1759	11249.75	10365.85
850.8886	983.1808	11245.85	10362.7
851.0337	985.1849	11268.55	10377.55
851.1788	987.1884	11350.65	10468.45
851.324	989.1911	11439.5	10555.6
851.4691	991.1932	11544.6	10661.35
851.6142	993.1945	11567.7	10685.4
851.7593	995.1951	11506.3	10624.7
851.9045	997.1951	11477.3	10589.75
852.0496	999.1943	11438.9	10558.85
852.1947	1001.1928	11413.45	10532.85
852.3398	1003.1906	11412.05	10530.1
852.4849	1005.1877	11497.2	10615.65
852.63	1007.1841	11556.1	10672.85
852.7751	1009.1798	11581.65	10704.05
852.9202	1011.1748	11472.5	10588.65
853.0653	1013.1691	11321.05	10438.25
853.2104	1015.1627	11111	10230.1
853.3555	1017.1556	10891.35	10010.5
853.5006	1019.1477	10754.35	9871.85
853.6457	1021.1392	10626.9	9746.9
853.7908	1023.1299	10588.75	9706.7
853.9359	1025.12	10601	9717.4
854.081	1027.1093	10633.25	9752.1
854.2261	1029.0979	10735.9	9855.95
854.3712	1031.0859	10811.75	9927.45
854.5163	1033.0731	10812	9928
854.6613	1035.0596	10768.25	9886.6
854.8064	1037.0454	10640.45	9759.85
854.9515	1039.0304	10529.85	9649
855.0965	1041.0148	10412.7	9529.9
855.2416	1042.9985	10308.05	9424.25
855.3867	1044.9814	10227.5	9349.3
855.5317	1046.9636	10175.45	9291.15
855.6768	1048.9452	10150.85	9270.8
855.8219	1050.926	10164.35	9283.75
855.9669	1052.9061	10177.75	9295.65
856.112	1054.8855	10206.4	9325.35
856.257	1056.8642	10225.65	9344.35
856.4021	1058.8421	10270.1	9384.8
856.5471	1060.8194	10300.3	9418.55
856.6921	1062.7959	10326.5	9444.1
856.8372	1064.7717	10360.45	9478.25
856.9822	1066.7469	10437.65	9552.15
857.1272	1068.7213	10473.15	9589.35
857.2723	1070.695	10542.2	9660.2
857.4173	1072.6679	10552.55	9670.35
857.5623	1074.6402	10583.1	9701.8
857.7073	1076.6117	10529.95	9644.1
857.8523	1078.5826	10436.45	9554.6
857.9973	1080.5527	10336	9451.8
858.1423	1082.5221	10259	9374.85
858.2873	1084.4908	10250.75	9367.8
858.4323	1086.4587	10261.55	9380.35
858.5773	1088.426	10349	9465.6
858.7223	1090.3925	10340.6	9450.5
858.8673	1092.3584	10368.15	9487.55
859.0123	1094.3235	10346.65	9465.3
859.1573	1096.2879	10370.4	9485.85
859.3022	1098.2515	10458.1	9576.3
859.4472	1100.2145	10599.6	9719.25
859.5922	1102.1767	10759.6	9872.9
859.7371	1104.1382	10978.45	10093.9
859.8821	1106.099	11224.85	10339.05
860.027	1108.0591	11415.1	10533.35
860.172	1110.0185	11581.15	10699
860.3169	1111.9771	11674.75	10793.3
860.4619	1113.9351	11567.75	10685.7
860.6068	1115.8923	11427.55	10544.8
860.7517	1117.8488	11240.65	10354.1
860.8967	1119.8045	11037.95	10154.8
861.0416	1121.7596	10864.9	9982
861.1865	1123.7139	10742.05	9860.3
861.3314	1125.6675	10677.9	9794.35
861.4763	1127.6204	10711.5	9831.55
861.6212	1129.5726	10670.85	9783.45
861.7661	1131.524	10595.8	9712.95
861.911	1133.4748	10470.35	9585.65
862.0559	1135.4248	10294.15	9409.15
862.2008	1137.3741	10165.65	9281.5
862.3457	1139.3226	10055.3	9172.95
862.4905	1141.2705	9987.5	9104.05
862.6354	1143.2176	9901.1	9012.35
862.7803	1145.164	9848.3	8961.95
862.9251	1147.1097	9778.15	8894.15
863.07	1149.0546	9695.15	8812.55
863.2148	1150.9989	9605.35	8722.5
863.3597	1152.9424	9497.1	8614.4
863.5045	1154.8852	9356.75	8472.3
863.6493	1156.8272	9295.7	8411.6
863.7942	1158.7686	9308.55	8420.1
863.939	1160.7092	9307.85	8423.95
864.0838	1162.6491	9326.45	8440.05
864.2286	1164.5883	9415.55	8532.85
864.3734	1166.5267	9517.75	8634.6
864.5182	1168.4644	9682.3	8798.75
864.663	1170.4014	9874.8	8987.3
864.8078	1172.3377	10115.45	9231.35
864.9526	1174.2732	10407.15	9526.15
865.0974	1176.2081	10772.35	9887.9
865.2421	1178.1421	11217.55	10328.65
865.3869	1180.0755	11722.05	10837.8
865.5317	1182.0082	12071.3	11185.55
865.6764	1183.9401	12205.05	11319.9
865.8212	1185.8713	12110.1	11226.4
865.9659	1187.8017	11806.4	10923.1
866.1106	1189.7315	11440.45	10558.4
866.2554	1191.6605	11055.75	10142.95
866.4001	1193.5888	10729.95	9848.5
866.5448	1195.5163	10554.3	9668
866.6895	1197.4432	10445.75	9560.65
866.8342	1199.3693	10384.95	9501.9
866.9789	1201.2947	10368.4	9479.15
867.1236	1203.2193	10321.7	9438
867.2683	1205.1432	10315.95	9430.75
867.413	1207.0664	10307.45	9424.95
867.5576	1208.9889	10276.3	9391.05
867.7023	1210.9106	10287.45	9403.8
867.847	1212.8316	10268.85	9385.65
867.9916	1214.7519	10318.2	9425.1
868.1363	1216.6715	10327.05	9445.4
868.2809	1218.5903	10382.15	9501.05
868.4255	1220.5084	10430.6	9546.5
868.5701	1222.4257	10520.7	9636.3
868.7148	1224.3424	10559.5	9677.3
868.8594	1226.2583	10679.8	9791.4
869.004	1228.1735	10798.4	9914.35
869.1486	1230.0879	10917.05	10034.5
869.2932	1232.0016	11113.8	10231.55
869.4377	1233.9146	11208.85	10321.7
869.5823	1235.8269	11224.7	10342.1
869.7269	1237.7384	11171.85	10288.5
869.8715	1239.6492	11010.55	10127.1
870.016	1241.5592	10938.7	10052.6
870.1606	1243.4686	10965.1	10081.3
870.3051	1245.3772	11084.2	10202.05
870.4496	1247.285	11252.65	10368.45
870.5941	1249.1922	11392.15	10510.05
870.7387	1251.0986	11495.75	10612.85
870.8832	1253.0042	11574.35	10690.25
871.0277	1254.9092	11661	10776.2
871.1722	1256.8134	11743.5	10860.8
871.3167	1258.7169	11890.1	11001.9
871.4611	1260.6196	12052.35	11170.5
871.6056	1262.5216	12276.4	11388.9
871.7501	1264.4229	12472.3	11589.3
871.8945	1266.3234	12651.2	11766.05
872.039	1268.2232	12810.75	11925.75
872.1834	1270.1223	12880.65	11996.55
872.3278	1272.0207	12904.65	12019.7
872.4723	1273.9183	12884.3	11992.15
872.6167	1275.8151	12780.8	11896.7
872.7611	1277.7113	12766.75	11883.05
872.9055	1279.6067	12805.2	11921.75
873.0499	1281.5014	12979.9	12094.15
873.1943	1283.3953	13257.05	12369.7
873.3386	1285.2885	13699.3	12814.9
873.483	1287.181	14135.35	13249.45
873.6274	1289.0727	14593.55	13710.95
873.7717	1290.9637	14880.7	13995.9
873.9161	1292.854	15070.95	14187.1
874.0604	1294.7435	15080.75	14195.2
874.2047	1296.6323	15026.15	14140.65
874.349	1298.5204	14952.95	14066.75
874.4933	1300.4077	14823.45	13939.4
874.6376	1302.2943	14617.65	13733.8
874.7819	1304.1802	14345.75	13462.45
874.9262	1306.0653	13969.85	13082.45
875.0705	1307.9497	13483.7	12600.3
875.2147	1309.8333	13117.5	12231.55
875.359	1311.7162	12799.75	11916.85
875.5032	1313.5984	12639.8	11754.25
875.6475	1315.4798	12518.7	11621.85
875.7917	1317.3605	12464.55	11561.25
875.9359	1319.2405	12377.4	11491.9
876.0801	1321.1197	12195.65	11309.5
876.2243	1322.9982	11915	11026.85
876.3685	1324.876	11666.6	10782.35
876.5127	1326.753	11408.75	10523.75
876.6569	1328.6293	11202	10317.5
876.801	1330.5048	11092.45	10206.8
876.9452	1332.3796	10923.2	10039.8
877.0893	1334.2537	10830.3	9921.7
877.2335	1336.127	10735.65	9850.15
877.3776	1337.9996	10738	9852.4
877.5217	1339.8714	10684	9796.9
877.6658	1341.7426	10711.55	9784.05
877.8099	1343.6129	10720.7	9835.5
877.954	1345.4826	10715.15	9829.45
878.0981	1347.3515	10689.1	9804.3
878.2422	1349.2196	10679.8	9791.55
878.3862	1351.087	10683.8	9799.85
878.5303	1352.9537	10736.6	9849.8
878.6743	1354.8197	10858.4	9972.3
878.8184	1356.6849	11003.1	10120.45
878.9624	1358.5493	11180.1	10294.55
879.1064	1360.4131	11348.9	10463.6
879.2504	1362.276	11478.6	10591.6
879.3944	1364.1383	11486.5	10600.8
879.5384	1365.9998	11322.35	10431.55
879.6823	1367.8606	10970.8	10084.7
879.8263	1369.7206	10604.3	9717.75
879.9702	1371.5799	10284.65	9398.2
880.1142	1373.4384	9995.95	9110.1
880.2581	1375.2962	9770.4	8885.2
880.402	1377.1533	9445.85	8560.7
880.5459	1379.0096	9077.25	8191.6
880.6898	1380.8652	8756.3	7868.75
880.8337	1382.7201	8468.7	7583.8
880.9776	1384.5742	8197.15	7313.55
881.1215	1386.4275	8014.1	7128.25
881.2653	1388.2802	7858.2	6975.45
881.4092	1390.132	7744.65	6859.25
881.553	1391.9832	7673.4	6785.1
881.6968	1393.8336	7593.4	6709.8
881.8406	1395.6832	7557.45	6671.7
881.9844	1397.5322	7480.75	6595.25
882.1282	1399.3803	7471.6	6582.55
882.272	1401.2278	7437.65	6550.8
882.4158	1403.0745	7425.2	6539.45
882.5595	1404.9204	7385.05	6500.35
882.7033	1406.7656	7398.85	6512.85
882.847	1408.6101	7425.8	6541.1
882.9908	1410.4538	7457.45	6571.95
883.1345	1412.2968	7482.35	6596.45
883.2782	1414.139	7533.5	6649
883.4219	1415.9805	7660.65	6779.3
883.5656	1417.8213	7692.75	6800.35
883.7092	1419.6613	7800.1	6915.9
883.8529	1421.5006	7959.05	7071.45
883.9965	1423.3391	8149.15	7262.4
884.1402	1425.1769	8442.4	7555
884.2838	1427.0139	8883.8	7997.1
884.4274	1428.8502	9425.55	8540
884.571	1430.6858	9969.1	9083.65
884.7146	1432.5206	10352.5	9467.1
884.8582	1434.3547	10595.5	9709.85
885.0018	1436.188	10619	9734.55
885.1453	1438.0206	10552.9	9665.7
885.2889	1439.8524	10405.1	9520.15
885.4324	1441.6835	10303.85	9416.7
885.5759	1443.5139	10167.85	9278.85
885.7194	1445.3435	10094.75	9210.25
885.8629	1447.1724	10054.6	9167.55
886.0064	1449.0005	10016.6	9130.2
886.1499	1450.8279	9935.05	9049.8
886.2933	1452.6545	9926.65	9041.15
886.4368	1454.4804	9952.75	9069.45
886.5802	1456.3056	9938.5	9044.15
886.7237	1458.13	9899.2	9014.5
886.8671	1459.9536	9727.75	8841.35
887.0105	1461.7766	9461.7	8576.9
887.1539	1463.5987	9118.4	8233.35
887.2972	1465.4202	8787.05	7901.45
887.4406	1467.2409	8432.65	7548.4
887.584	1469.0608	8155.3	7270.4
887.7273	1470.88	7881.85	6994.55
887.8706	1472.6984	7668.95	6784.15
888.0139	1474.5161	7458	6567
888.1572	1476.3331	7287.45	6403.1
888.3005	1478.1493	7152	6267.6
888.4438	1479.9648	7069.65	6184.85
888.5871	1481.7795	6980.9	6097.65
888.7303	1483.5935	6922.65	6038.15
888.8736	1485.4067	6883.65	6001.15
889.0168	1487.2192	6837.05	5951.45
889.16	1489.031	6776.75	5890.45
889.3032	1490.842	6736.3	5853.05
889.4464	1492.6522	6690.6	5806.3
889.5896	1494.4618	6659.25	5773
889.7327	1496.2705	6632.5	5746.6
889.8759	1498.0785	6601.1	5716.7
890.019	1499.8858	6549.5	5665.65
890.1622	1501.6924	6500.95	5615.6
890.3053	1503.4981	6477.3	5592.65
890.4484	1505.3032	6451.9	5565.3
890.5914	1507.1075	6405.35	5521.1
890.7345	1508.911	6353.45	5469.5
890.8776	1510.7138	6342.3	5458
891.0206	1512.5159	6284.4	5399.45
891.1637	1514.3172	6257.25	5372.45
891.3067	1516.1178	6215.35	5330.1
891.4497	1517.9176	6162.8	5273.15
891.5927	1519.7166	6140.05	5257.55
891.7357	1521.515	6098.4	5206.95
891.8786	1523.3126	6087.8	5204.05
892.0216	1525.1094	6057.85	5171.95
892.1645	1526.9055	6040.1	5157.85
892.3074	1528.7008	6012.65	5128.35
892.4503	1530.4954	5974.6	5090.3
892.5932	1532.2893	5966.25	5083.25
892.7361	1534.0824	5954.4	5064.9
892.879	1535.8747	5927.85	5042.6
893.0218	1537.6663	5947.4	5060.1
893.1647	1539.4572	5918.7	5032
893.3075	1541.2473	5950.15	5064.55
893.4503	1543.0367	5941.55	5059.7
893.5931	1544.8253	5945.8	5058
893.7359	1546.6132	5954.15	5068.1
893.8787	1548.4003	5988.35	5094.5
894.0214	1550.1867	6037.2	5142.55
894.1642	1551.9723	6087.15	5194.65
894.3069	1553.7572	6152.5	5264.8
894.4496	1555.5414	6253.2	5367.55
894.5923	1557.3247	6379	5492.5
894.735	1559.1074	6526.85	5643.55
894.8777	1560.8893	6696.7	5813.4
895.0204	1562.6705	6825.15	5940.1
895.163	1564.4509	6960.75	6077.5
895.3056	1566.2305	7045.6	6162
895.4482	1568.0094	7098.5	6215.2
895.5908	1569.7876	7112.5	6227.1
895.7334	1571.565	7098.6	6213.95
895.876	1573.3417	7078.85	6193.7
896.0186	1575.1176	7076.5	6192.4
896.1611	1576.8928	7051.7	6166.4
896.3036	1578.6672	7029.15	6146.05
896.4461	1580.4409	7062.3	6178.45
896.5886	1582.2138	7056	6172.4
896.7311	1583.986	7088.5	6203.65
896.8736	1585.7575	7132.1	6249.4
897.0161	1587.5282	7194.7	6311.4
897.1585	1589.2981	7274.1	6389.5
897.3009	1591.0673	7339.95	6456.65
897.4433	1592.8358	7417.2	6532.45
897.5857	1594.6035	7532.5	6646.6
897.7281	1596.3704	7606.75	6723
897.8705	1598.1366	7703.25	6819.1
898.0128	1599.9021	7795.1	6911.75
898.1551	1601.6668	7859.2	6973.5
898.2975	1603.4308	7979.75	7094.25
898.4398	1605.194	8124.45	7235.4
898.5821	1606.9564	8303.25	7417.45
898.7243	1608.7182	8558	7670.8
898.8666	1610.4791	8844.45	7960.9
899.0088	1612.2394	9133.15	8250
899.1511	1613.9988	9439.15	8555.85
899.2933	1615.7576	9724.4	8839.5
899.4355	1617.5156	9944.95	9056.3
899.5776	1619.2728	10071.25	9187.65
899.7198	1621.0293	10007.85	9124.05
899.862	1622.785	9875.05	8987.45
900.0041	1624.54	9616.25	8727.4
900.1462	1626.2942	9272.85	8387.75
900.2883	1628.0477	8885	7999
900.4304	1629.8005	8555.35	7668.1
900.5725	1631.5525	8234.65	7352.95
900.7145	1633.3037	7964.1	7078.7
900.8566	1635.0542	7751.65	6869.45
900.9986	1636.804	7563.9	6679.75
901.1406	1638.553	7515.4	6577.85
901.2826	1640.3013	7390.65	6508.55
901.4245	1642.0488	7351.35	6465.3
901.5665	1643.7955	7365.4	6483.35
901.7085	1645.5416	7402.85	6519.65
901.8504	1647.2868	7489.2	6606.1
901.9923	1649.0313	7617.7	6734.35
902.1342	1650.7751	7770.15	6883.6
902.2761	1652.5181	7914.6	7030.9
902.4179	1654.2604	8083.25	7198.6
902.5598	1656.0019	8320.55	7435.85
902.7016	1657.7427	8568.35	7685.8
902.8434	1659.4828	8823.5	7940.3
902.9852	1661.222	9004.75	8119.5
903.127	1662.9606	9016.75	8134.1
903.2687	1664.6984	8792.9	7909.4
903.4105	1666.4354	8388.75	7505.4
903.5522	1668.1717	7864.15	6980.75
903.6939	1669.9072	7282.9	6399.35
903.8356	1671.642	6781.65	5898.55
903.9773	1673.3761	6423.55	5542.65
904.119	1675.1094	6055	5173.35
904.2606	1676.8419	5826.5	4945.45
904.4022	1678.5737	5627.6	4744.6
904.5439	1680.3048	5483.2	4600.45
904.6855	1682.0351	5355.35	4473.9
904.827	1683.7646	5240.55	4354.25
904.9686	1685.4934	5162.85	4280.15
905.1101	1687.2215	5093.15	4211.3
905.2517	1688.9488	5022.8	4142.15
905.3932	1690.6754	4955	4073.2
905.5347	1692.4012	4908.45	4026.55
905.6761	1694.1263	4880.85	3997.65
905.8176	1695.8506	4847.4	3964.55
905.9591	1697.5742	4792.75	3909.3
906.1005	1699.297	4752.85	3868.25
906.2419	1701.0191	4722.85	3841.4
906.3833	1702.7404	4689.95	3807.45
906.5246	1704.461	4640.95	3756.8
906.666	1706.1808	4594.7	3712.6
906.8073	1707.8999	4584.45	3700.5
906.9487	1709.6182	4561.15	3678.8
907.09	1711.3358	4539.3	3654.65
907.2313	1713.0527	4506.65	3625.15
907.3725	1714.7688	4486.05	3596.3
907.5138	1716.4841	4449.45	3564.9
907.655	1718.1987	4461.7	3573.15
907.7962	1719.9126	4431.5	3549.5
907.9374	1721.6257	4392.3	3506.85
908.0786	1723.338	4387.45	3504.55
908.2198	1725.0496	4370.9	3488
908.3609	1726.7605	4371.15	3488.7
908.502	1728.4706	4364.65	3479.7
908.6431	1730.18	4331.75	3444.4
908.7842	1731.8886	4321.75	3438.45
908.9253	1733.5964	4314.2	3427
909.0664	1735.3036	4292.05	3408.8
909.2074	1737.0099	4280.55	3399.8
909.3484	1738.7156	4256.85	3374.9
909.4894	1740.4204	4231.45	3344.65
909.6304	1742.1246	4214.05	3329.35
909.7714	1743.8279	4201.3	3317.25
909.9123	1745.5306	4174.45	3291.45
910.0532	1747.2325	4147.4	3266.6
910.1941	1748.9336	4127	3245.35
910.335	1750.634	4104.5	3221.25
910.4759	1752.3336	4114.75	3230.5
910.6168	1754.0325	4097.95	3215.05
910.7576	1755.7307	4084.45	3202.5
910.8984	1757.4281	4087.45	3203.6
911.0392	1759.1247	4094.5	3203.45
911.18	1760.8206	4074.25	3188.5
911.3208	1762.5158	4056.05	3171.4
911.4615	1764.2102	4041.8	3160.15
911.6022	1765.9039	4025.05	3143.6
911.7429	1767.5968	4010.3	3127
911.8836	1769.289	4011.3	3128.55
912.0243	1770.9804	4001.25	3117.25
912.1649	1772.6711	3992.95	3110.1
912.3056	1774.361	3987	3103.35
912.4462	1776.0502	3974.15	3091.25
912.5868	1777.7386	3972.95	3086.25
912.7274	1779.4263	3954	3069.85
912.8679	1781.1132	3951.55	3068.05
913.0084	1782.7994	3940.3	3054.9
913.149	1784.4849	3933.75	3050.2
913.2895	1786.1696	3942.95	3040.3
913.4299	1787.8535	3927.5	3044.8
913.5704	1789.5367	3900.2	3015.6
913.7108	1791.2192	3892.3	3011.5
913.8513	1792.9009	3892.95	2994.15
913.9917	1794.5818	3877.45	2995.4
914.132	1796.2621	3872.3	2990.6
914.2724	1797.9415	3865.75	2983.75
914.4128	1799.6202	3839.4	2956.65
914.5531	1801.2982	3848.3	2965.7
914.6934	1802.9755	3837.2	2954.95
914.8337	1804.6519	3823.25	2940.45
914.9739	1806.3277	3817.05	2934.3
915.1142	1808.0027	3805.2	2921.75
915.2544	1809.6769	3803	2922.05
915.3946	1811.3504	3805.45	2922.2
915.5348	1813.0231	3798.5	2915.65
915.675	1814.6951	3782.3	2899.95
915.8151	1816.3664	3782.45	2899.15
915.9553	1818.0369	3782.5	2899.4
916.0954	1819.7067	3763.2	2881.2
916.2355	1821.3757	3751.7	2867.8
916.3755	1823.044	3757.35	2877.05
916.5156	1824.7115	3754.1	2870.05
916.6556	1826.3783	3736.75	2855.1
916.7956	1828.0443	3727.35	2845.1
916.9356	1829.7096	3717.75	2833.9
917.0756	1831.3741	3732.3	2846.45
917.2155	1833.0379	3712.05	2830.1
917.3555	1834.701	3701.15	2818.35
917.4954	1836.3633	3698.35	2813.6
917.6353	1838.0248	3694.1	2809.85
917.7751	1839.6856	3677.25	2794.2
917.915	1841.3457	3678.7	2797.1
918.0548	1843.005	3692.05	2810.5
918.1946	1844.6636	3653.05	2771.25
918.3344	1846.3214	3662.8	2780.25
918.4742	1847.9785	3655.45	2773.9
918.6139	1849.6349	3648.3	2765.6
918.7537	1851.2904	3655.3	2762.9
918.8934	1852.9453	3648	2766.85
919.0331	1854.5994	3639.1	2753.5
919.1727	1856.2528	3644.75	2757.65
919.3124	1857.9054	3624.4	2741.25
919.452	1859.5572	3611.95	2729.65
919.5916	1861.2083	3616.85	2733.1
919.7312	1862.8587	3616	2734.7
919.8708	1864.5084	3612.65	2729.05
920.0103	1866.1572	3583.5	2701.2
920.1498	1867.8054	3565.7	2684.15
920.2893	1869.4528	3558.5	2676.6
920.4288	1871.0994	3574.85	2693.35
920.5683	1872.7453	3567.65	2683.95
920.7077	1874.3905	3567.45	2668.65
920.8471	1876.0349	3546.4	2662.05
920.9865	1877.6786	3547.55	2664.2
921.1259	1879.3215	3548.15	2666.7
921.2653	1880.9637	3531.25	2646.4
921.4046	1882.6051	3527	2643.8
921.5439	1884.2458	3534.1	2650.55
921.6832	1885.8858	3507.5	2626.3
921.8225	1887.525	3513.8	2631.35
921.9617	1889.1634	3495.05	2612.65
922.101	1890.8011	3481.85	2598.5
922.2402	1892.4381	3468.75	2587.25
922.3794	1894.0743	3481.8	2599.85
922.5185	1895.7098	3467.2	2584.9
922.6577	1897.3446	3465.5	2582.7
922.7968	1898.9786	3469.35	2584.5
922.9359	1900.6118	3451.45	2571
923.075	1902.2443	3434.6	2551.35
923.214	1903.8761	3436.65	2553.35
923.3531	1905.5071	3398.75	2515.1
923.4921	1907.1374	3401.6	2518
923.6311	1908.7669	3405.4	2522.55
923.77	1910.3957	3403.7	2520.75
923.909	1912.0237	3393.3	2510.1
924.0479	1913.651	3390.25	2506.2
924.1868	1915.2776	3362.7	2482.1
924.3257	1916.9034	3367.8	2485.85
924.4646	1918.5285	3352.05	2471.65
924.6034	1920.1528	3339.35	2455.9
924.7422	1921.7764	3345.55	2466.25
924.881	1923.3992	3332.3	2449.6
925.0198	1925.0213	3322.75	2441.6
925.1586	1926.6427	3305.95	2425.95
925.2973	1928.2633	3390.55	2402.5
925.436	1929.8832	3309.7	2428.2
925.5747	1931.5023	3288.9	2406.75
925.7134	1933.1207	3289.9	2408.85
925.852	1934.7383	3288.65	2404.6
925.9906	1936.3552	3273	2391.8
926.1292	1937.9714	3265.5	2385.1
926.2678	1939.5868	3263.15	2378.75
926.4064	1941.2015	3231.75	2350.75
926.5449	1942.8154	3238.65	2357.55
926.6834	1944.4286	3224.1	2340.75
926.8219	1946.041	3245	2339
926.9604	1947.6528	3222.7	2336.4
927.0988	1949.2637	3200	2319.25
927.2372	1950.8739	3193.95	2310.75
927.3756	1952.4834	3184.85	2301.55
927.514	1954.0921	3169.85	2289.1
927.6523	1955.7001	3170.5	2282.45
927.7907	1957.3074	3159.85	2279.4
927.929	1958.9139	3156.65	2275.5
928.0673	1960.5197	3162.9	2276.9
928.2055	1962.1247	3140.9	2258.45
928.3438	1963.729	3135.85	2253.5
928.482	1965.3325	3146.85	2240.7
928.6202	1966.9353	3114.15	2233.7
928.7584	1968.5374	3108.7	2223.05
928.8965	1970.1387	3117.45	2235.95
929.0346	1971.7393	3088.75	2204.05
929.1727	1973.3392	3075.6	2193.5
929.3108	1974.9383	3061.4	2179.6
929.4489	1976.5366	3056.1	2174.7
929.5869	1978.1342	3065.45	2183.15
929.7249	1979.7311	3058.85	2175.7
929.8629	1981.3273	3054.5	2170.8
930.0009	1982.9227	3043.8	2160.6
930.1388	1984.5173	3040.45	2156.55
930.2767	1986.1112	3028.6	2145.95
930.4146	1987.7044	3022.3	2140.65
930.5525	1989.2968	3021.95	2137.65
930.6904	1990.8885	3012.65	2126.9
930.8282	1992.4795	3008.4	2123.4
930.966	1994.0697	2989.8	2108.4
931.1038	1995.6592	2988.6	2106.55
931.2415	1997.2479	2986.45	2101.75
931.3793	1998.8359	2986.05	2103.95
931.517	2000.4232	2976.2	2093.15
931.6547	2002.0097	2954.25	2073.25
931.7923	2003.5955	2951.65	2069.15
931.93	2005.1805	2973.45	2088.6
932.0676	2006.7648	2961.4	2079.2
932.2052	2008.3484	2937.6	2053.9
932.3427	2009.9312	2941.65	2057.2
932.4803	2011.5133	2937.3	2055.7
932.6178	2013.0946	2943.05	2058.7
932.7553	2014.6752	2922.65	2041.4
932.8928	2016.2551	2921.15	2037.2
933.0302	2017.8342	2910.75	2026.5
933.1676	2019.4126	2907.65	2027.5
933.305	2020.9902	2890.85	2007.85
933.4424	2022.5672	2893.95	2008.95
933.5798	2024.1433	2892.45	2002.75
933.7171	2025.7188	2881.2	1999.8
933.8544	2027.2935	2879.6	1997.05
933.9917	2028.8674	2870.75	1987.55
934.129	2030.4406	2867.6	1985.75
934.2662	2032.0131	2856.25	1975.25
934.4034	2033.5849	2863.05	1972.85
934.5406	2035.1559	2844.3	1963.55
934.6778	2036.7261	2838.4	1956.1
934.8149	2038.2957	2834.55	1953.55
934.952	2039.8645	2825.3	1943.9
935.0891	2041.4325	2826.65	1939.65
935.2262	2042.9998	2832.15	1949.2
935.3632	2044.5664	2828.9	1944.15
935.5002	2046.1323	2817.1	1935
935.6372	2047.6974	2797.35	1914.25
935.7742	2049.2617	2805.85	1921.9
935.9111	2050.8254	2824.6	1909.4
936.048	2052.3883	2804.55	1921.85
936.1849	2053.9504	2798.7	1916.2
936.3218	2055.5118	2775.35	1891.1
936.4586	2057.0725	2781.6	1896.75
936.5955	2058.6325	2773.65	1891.3
936.7323	2060.1917	2757.75	1875.35
936.869	2061.7502	2759.3	1874.25
937.0058	2063.3079	2755.45	1874.45
937.1425	2064.8649	2756.15	1869
937.2792	2066.4212	2759.15	1875.9
937.4159	2067.9767	2746.15	1863.5
937.5525	2069.5315	2727.5	1845.4
937.6891	2071.0856	2723.65	1842.85
937.8257	2072.6389	2725.75	1840.45
937.9623	2074.1915	2709.95	1828.1
938.0989	2075.7433	2702.1	1817.95
938.2354	2077.2945	2704.7	1824.5
938.3719	2078.8448	2684.8	1801.4
938.5084	2080.3945	2688.05	1804.95
938.6448	2081.9434	2690.3	1810.25
938.7812	2083.4916	2672	1788.95
938.9176	2085.039	2665.05	1781.45
939.054	2086.5857	2665.3	1782.15
939.1903	2088.1317	2656.25	1774.55
939.3267	2089.677	2650.6	1768.2
939.463	2091.2215	2648.95	1768.1
939.5992	2092.7652	2641.5	1757.4
939.7355	2094.3083	2637.7	1755.35
939.8717	2095.8506	2653.3	1769.85
940.0079	2097.3921	2643	1761.9
940.1441	2098.933	2634.45	1751.05
940.2802	2100.4731	2629.45	1746.75
940.4163	2102.0124	2638.75	1739.25
940.5524	2103.5511	2627.4	1744.75
940.6885	2105.089	2625	1741.15
940.8245	2106.6261	2625.75	1742.6
940.9606	2108.1626	2616.4	1732.65
941.0965	2109.6983	2632.05	1723.95
941.2325	2111.2332	2609.75	1726.8
941.3684	2112.7675	2600.65	1716.55
941.5044	2114.301	2591.6	1709.25
941.6403	2115.8337	2601.1	1717.25
941.7761	2117.3657	2590.6	1708.9
941.912	2118.897	2583.6	1699.65
942.0478	2120.4276	2589.8	1701.55
942.1835	2121.9575	2570.5	1687.7
942.3193	2123.4866	2585.75	1689.1
942.455	2125.0149	2559.65	1674.65
942.5907	2126.5426	2550.65	1668.5
942.7264	2128.0695	2562.1	1675.1
942.8621	2129.5956	2542.75	1661.2
942.9977	2131.1211	2540.55	1653.55
943.1333	2132.6458	2537.3	1654
943.2689	2134.1698	2532.85	1652.25
943.4044	2135.693	2527.1	1643
943.54	2137.2155	2535.9	1652.45
943.6755	2138.7373	2539.3	1656.2
943.8109	2140.2584	2521.55	1637.15
943.9464	2141.7787	2521.3	1633.25
944.0818	2143.2983	2510.4	1627.65
944.2172	2144.8171	2489.4	1607.5
944.3526	2146.3353	2498.65	1613.35
944.4879	2147.8527	2485.4	1603.2
944.6232	2149.3693	2497.6	1616.3
944.7585	2150.8853	2477.55	1593.5
944.8938	2152.4005	2470.15	1587.15
945.029	2153.9149	2477.05	1594.6
945.1642	2155.4287	2460.05	1578.55
945.2994	2156.9417	2473.25	1587.05
945.4346	2158.454	2459.1	1574.2
945.5697	2159.9655	2455.45	1574.4
945.7048	2161.4764	2453.5	1571.4
945.8399	2162.9865	2444.05	1560.25
945.9749	2164.4958	2440.7	1556.85
946.1099	2166.0045	2439.2	1554.65
946.2449	2167.5124	2432.05	1551.55
946.3799	2169.0195	2436.25	1552.7
946.5148	2170.526	2430.5	1546.35
946.6498	2172.0317	2435.15	1552.35
946.7846	2173.5367	2421.15	1537.3
946.9195	2175.0409	2425.3	1543.45
947.0543	2176.5445	2413.5	1531.9
947.1891	2178.0473	2413.35	1529.55
947.3239	2179.5494	2404.05	1519.55
947.4587	2181.0507	2390.65	1506.8
947.5934	2182.5513	2394.45	1513.05
947.7281	2184.0512	2384.15	1501.85
947.8628	2185.5504	2398	1514.65
947.9974	2187.0488	2382.3	1499.35
948.132	2188.5465	2388.65	1505.75
948.2666	2190.0435	2378.9	1495.7
948.4012	2191.5397	2372.5	1491.15
948.5357	2193.0353	2357.25	1476.65
948.6702	2194.5301	2359.45	1477.45
948.8047	2196.0241	2347.15	1465.2
948.9392	2197.5175	2345.7	1464.45
949.0736	2199.0101	2355.3	1469.45
949.208	2200.502	2347.35	1465.6
949.3424	2201.9931	2328.3	1445.55
949.4767	2203.4835	2332.35	1446.05
949.611	2204.9733	2326.05	1436.95
949.7453	2206.4622	2327.8	1446.25
949.8796	2207.9505	2319.8	1434.55
950.0138	2209.438	2316.25	1436.35
950.148	2210.9248	2315.2	1431.25
950.2822	2212.4109	2292.45	1410.95
950.4164	2213.8962	2300.6	1414.95
950.5505	2215.3809	2300.95	1418.85
950.6846	2216.8648	2297.75	1415.75
950.8186	2218.3479	2298.3	1411.8
950.9527	2219.8304	2273.4	1388.6
951.0867	2221.3121	2284.2	1400.95
951.2207	2222.7931	2271.25	1390.4
951.3546	2224.2733	2268.4	1385.55
951.4886	2225.7529	2263.75	1380.75
951.6225	2227.2317	2263.9	1378.3
951.7563	2228.7098	2258.05	1375.9
951.8902	2230.1872	2259.65	1376.95
952.024	2231.6638	2248.65	1364.75
952.1578	2233.1397	2244.1	1354.05
952.2916	2234.6149	2234.5	1350.8
952.4253	2236.0894	2237.65	1354.25
952.559	2237.5632	2232.75	1340.75
952.6927	2239.0362	2227.4	1344.35
952.8263	2240.5085	2225.05	1343.65
952.9599	2241.9801	2220.1	1337
953.0935	2243.4509	2207.5	1327.1
953.2271	2244.921	2201.55	1318.95
953.3606	2246.3904	2207.9	1322.75
953.4941	2247.8591	2186.75	1306
953.6276	2249.3271	2189.6	1308
953.7611	2250.7943	2181.45	1298.8
953.8945	2252.2608	2173.05	1291.1
954.0279	2253.7266	2180.15	1298.4
954.1612	2255.1917	2179.15	1297.05
954.2946	2256.656	2171	1287.45
954.4279	2258.1197	2159	1277.3
954.5612	2259.5826	2171.95	1286.75
954.6944	2261.0447	2156.65	1272.4
954.8276	2262.5062	2149.3	1267.65
954.9608	2263.9669	2156.3	1271.8
955.094	2265.4269	2147.55	1267.3
955.2271	2266.8862	2146.4	1261.7
955.3602	2268.3448	2147	1264.85
955.4933	2269.8026	2144.55	1262.5
955.6264	2271.2598	2139.35	1258.35
955.7594	2272.7162	2129.15	1245.55
955.8924	2274.1719	2128.5	1246.05
956.0253	2275.6268	2131.75	1249.6
956.1583	2277.0811	2123.35	1240.7
956.2912	2278.5346	2128.3	1245.55
956.4241	2279.9874	2122.85	1239.15
956.5569	2281.4395	2120.5	1239.5
956.6897	2282.8908	2122.6	1236.7
956.8225	2284.3414	2116.2	1233.3
956.9553	2285.7914	2110.4	1229.3
957.088	2287.2406	2106.25	1222.25
957.2207	2288.689	2108.2	1225.1
957.3534	2290.1368	2096.55	1212.95
957.486	2291.5838	2099.65	1213.85
957.6186	2293.0302	2098.55	1215.45
957.7512	2294.4758	2080.55	1197.85
957.8838	2295.9206	2082.25	1198.8
958.0163	2297.3648	2076.2	1195.2
958.1488	2298.8082	2078.15	1196.4
958.2813	2300.251	2071.15	1190.3
958.4137	2301.693	2066.35	1182
958.5461	2303.1343	2072.7	1191.05
958.6785	2304.5748	2065.05	1184.6
958.8108	2306.0147	2059.45	1178.1
958.9432	2307.4538	2068.4	1184.05
959.0754	2308.8922	2051.45	1170.6
959.2077	2310.3299	2052	1170.05
959.3399	2311.7669	2055.55	1173.7
959.4721	2313.2031	2043	1161.35
959.6043	2314.6387	2044.85	1161.95
959.7365	2316.0735	2039.25	1156.75
959.8686	2317.5076	2032.35	1151.25
960.0006	2318.941	2027.15	1144.8
960.1327	2320.3737	2029.25	1145.1
960.2647	2321.8056	2029.5	1145.25
960.3967	2323.2369	2023.2	1142
960.5287	2324.6674	2021.35	1135
960.6606	2326.0972	2019.3	1135.75
960.7925	2327.5263	2015.1	1132.65
960.9244	2328.9547	2015.6	1130.85
961.0562	2330.3823	2011.9	1130.05
961.1881	2331.8092	2014.35	1127.7
961.3198	2333.2355	1993.35	1110.6
961.4516	2334.661	1996.15	1112.35
961.5833	2336.0858	1997.05	1112.25
961.715	2337.5098	1993.85	1111.05
961.8467	2338.9332	1991.85	1109.8
961.9783	2340.3558	1989.5	1104.75
962.1099	2341.7778	1986.45	1104.2
962.2415	2343.199	1986.05	1101.35
962.373	2344.6195	1973.75	1093.6
962.5045	2346.0393	1974.5	1092.85
962.636	2347.4583	1976.3	1091.7
962.7675	2348.8767	1967.25	1084.6
962.8989	2350.2943	1968.25	1084.4
963.0303	2351.7113	1964.65	1082.4
963.1617	2353.1275	1968.55	1087.3
963.293	2354.543	1979.5	1072.65
963.4243	2355.9578	1958.4	1074.85
963.5556	2357.3718	1956.35	1074.8
963.6868	2358.7852	1955.65	1069.35
963.818	2360.1978	1940.4	1058.75
963.9492	2361.6098	1947.65	1065.65
964.0803	2363.021	1945.35	1059.3
964.2114	2364.4315	1938.2	1056.4
964.3425	2365.8413	1932.7	1049.7
964.4736	2367.2504	1939.05	1056.55
964.6046	2368.6587	1934	1050.15
964.7356	2370.0664	1922.7	1041.75
964.8666	2371.4733	1931.65	1050.3
964.9975	2372.8795	1919.2	1037.85
965.1284	2374.285	1919.85	1036.95
965.2593	2375.6899	1914.85	1031.05
965.3901	2377.0939	1905.6	1025.1
965.5209	2378.4973	1910.65	1029.1
965.6517	2379.9	1905	1023.25
965.7825	2381.3019	1909.3	1027.45
965.9132	2382.7032	1896.1	1014.75
966.0439	2384.1037	1897.6	1016.55
966.1745	2385.5035	1895.25	1013.7
966.3051	2386.9027	1890.15	1007.9
966.4357	2388.3011	1895.35	1011.5
966.5663	2389.6987	1881.2	997.2
966.6968	2391.0957	1881.3	1001.2
966.8273	2392.492	1872.45	989.4
966.9578	2393.8876	1863.85	982.05
967.0882	2395.2824	1856.9	975.75
967.2186	2396.6765	1857.1	976.1
967.349	2398.07	1845.85	964.25
967.4793	2399.4627	1858.2	975.85
967.6097	2400.8547	1853.6	970.3
967.7399	2402.246	1857.3	970.15
967.8702	2403.6366	1835.2	952.2
968.0004	2405.0265	1839.4	957.6
968.1306	2406.4156	1839.4	953.6
968.2607	2407.8041	1834.85	948.7
968.3909	2409.1918	1841.3	957.3
968.521	2410.5789	1837.7	957.9
968.651	2411.9652	1832.55	946.55
968.781	2413.3508	1824.6	943.25
968.911	2414.7358	1816.9	932.5
969.041	2416.12	1828.05	946.45
969.1709	2417.5035	1820.55	939.75
969.3008	2418.8863	1815.8	933.1
969.4307	2420.2684	1813.05	930.85
969.5606	2421.6497	1801.85	919.35
969.6904	2423.0304	1806.85	926.95
969.8201	2424.4104	1805.1	922.5
969.9499	2425.7896	1803.2	913.85
970.0796	2427.1682	1798.9	918.15
970.2093	2428.546	1797.35	912.6
970.3389	2429.9232	1786.95	904.85
970.4685	2431.2996	1787.05	903.85
970.5981	2432.6753	1783.95	903.1
970.7277	2434.0503	1779.8	898.6
970.8572	2435.4246	1781.1	899.1
970.9867	2436.7982	1785.5	901
971.1161	2438.1711	1773.1	891.15
971.2456	2439.5433	1779.1	896.2
971.375	2440.9148	1775.7	888.2
971.5043	2442.2856	1765.3	882.4
971.6336	2443.6557	1758.8	876.1
971.7629	2445.025	1758.7	876.65
971.8922	2446.3937	1759.6	877.1
972.0214	2447.7617	1755.2	875.15
972.1506	2449.1289	1761.65	879
972.2798	2450.4955	1754.35	868.65
972.4089	2451.8613	1755.65	873.8
972.538	2453.2265	1757.25	874.25
972.6671	2454.5909	1742.6	860.85
972.7961	2455.9546	1741.35	860.35
972.9251	2457.3177	1733.3	851.6
973.0541	2458.68	1739.3	855.95
973.1831	2460.0416	1740.55	858.3
973.312	2461.4025	1738.1	855.75
973.4408	2462.7627	1749.75	855.4
973.5697	2464.1222	1735.6	852.75
973.6985	2465.4811	1734.65	848.85
973.8273	2466.8392	1726.95	844.3
973.956	2468.1966	1723.2	838.4
974.0847	2469.5533	1735.95	850.7
974.2134	2470.9093	1725.35	841.1
974.3421	2472.2645	1728.5	846.4
974.4707	2473.6191	1718.05	836.55
974.5993	2474.973	1725.1	841.65
974.7278	2476.3262	1715.55	830.45
974.8563	2477.6787	1712.1	829.05
974.9848	2479.0305	1711.4	830.25
975.1132	2480.3816	1717.5	832.85
975.2417	2481.7319	1706.45	824
975.37	2483.0816	1703.8	821.25
975.4984	2484.4306	1697.6	813.1
975.6267	2485.7789	1704.4	822.65
975.755	2487.1264	1697.65	813.25
975.8833	2488.4733	1687.8	808.1
976.0115	2489.8195	1703.95	807.55
976.1397	2491.165	1692.25	805.6
976.2678	2492.5097	1685.5	802.75
976.3959	2493.8538	1678.1	795.8
976.524	2495.1972	1671.75	788.4
976.6521	2496.5398	1679.5	794.8
976.7801	2497.8818	1673.8	788.9
976.9081	2499.2231	1672.55	790.1
977.036	2500.5637	1672.5	788.15
977.164	2501.9035	1674.15	791.1
977.2918	2503.2427	1668.25	782.4
977.4197	2504.5812	1667.35	786.45
977.5475	2505.919	1658.95	775.9
977.6753	2507.256	1659.5	777.1
977.8031	2508.5924	1657.25	772.85
977.9308	2509.9281	1659.4	768.6
978.0585	2511.2631	1645.55	761
978.1861	2512.5974	1656.9	776.8
978.3137	2513.9309	1657.25	774.05
978.4413	2515.2638	1672.55	763.3
978.5689	2516.596	1645.75	765.2
978.6964	2517.9275	1645.2	760.55
978.8239	2519.2583	1636.45	755.05
978.9513	2520.5884	1635.05	750.8
979.0788	2521.9178	1631.6	748.85
979.2062	2523.2465	1630.9	749.65
979.3335	2524.5745	1624.15	741.95
979.4608	2525.9018	1625.45	744
979.5881	2527.2284	1623.55	742.3
979.7154	2528.5543	1622.2	742.2
979.8426	2529.8796	1619.55	735
979.9698	2531.2041	1626.1	743.45
980.0969	2532.5279	1624.75	744.1
980.224	2533.851	1625.5	742.6
980.3511	2535.1735	1624.35	741.25
980.4781	2536.4952	1619.25	737.05
980.6052	2537.8163	1617.4	732.75
980.7321	2539.1366	1616.95	734.35
980.8591	2540.4562	1612.6	729.75
980.986	2541.7752	1607.6	724.45
981.1129	2543.0935	1615.15	732.2
981.2397	2544.411	1609.6	725.95
981.3665	2545.7279	1610.6	729.35
981.4933	2547.0441	1608.4	725.55
981.62	2548.3596	1609.55	722.8
981.7467	2549.6744	1611	731.8
981.8734	2550.9885	1602.9	720.65
982.0001	2552.3019	1607.55	727.35
982.1267	2553.6146	1602.2	719.2
982.2532	2554.9266	1589.95	706.8
982.3798	2556.2379	1592.9	711
982.5063	2557.5485	1590.45	709.55
982.6327	2558.8585	1604.7	714.95
982.7592	2560.1677	1597.85	711.65
982.8856	2561.4762	1587.2	704.4
983.0119	2562.7841	1588.3	703.05
983.1383	2564.0913	1583.05	700.95
983.2646	2565.3977	1589.35	706.95
983.3908	2566.7035	1583.3	701.65
983.517	2568.0086	1587.15	703.75
983.6432	2569.313	1588.8	705.35
983.7694	2570.6167	1580.4	696.05
983.8955	2571.9197	1576.55	696.1
984.0216	2573.222	1584.9	698.3
984.1476	2574.5236	1579.9	697
984.2737	2575.8246	1582.2	695.9
984.3996	2577.1248	1576.9	691.15
984.5256	2578.4244	1575.9	693.95
984.6515	2579.7232	1574	692.95
984.7774	2581.0214	1605.45	691.7
984.9032	2582.3189	1577.45	697.05
985.029	2583.6157	1581	693.6
985.1548	2584.9118	1582.1	701.4
985.2806	2586.2072	1567.95	686.9
985.4063	2587.5019	1572.75	690.15
985.5319	2588.7959	1574.75	691.3
985.6576	2590.0893	1576.4	692.4
985.7832	2591.3819	1573.15	692.4
985.9087	2592.6739	1574.9	693.4
986.0343	2593.9652	1577.2	694.25
986.1597	2595.2557	1573.9	690.85
986.2852	2596.5456	1573.15	688.7
986.4106	2597.8348	1574.95	691.7
986.536	2599.1234	1574.9	694.8
986.6614	2600.4112	1568.05	685.25
986.7867	2601.6983	1570.15	683.3
986.912	2602.9848	1576.7	695.85
987.0372	2604.2705	1582.65	691.85
987.1624	2605.5556	1571.2	688.7
987.2876	2606.84	1565.65	683.55
987.4128	2608.1237	1565.4	681.45
987.5379	2609.4067	1566.55	685.2
987.6629	2610.689	1565.55	675.1
987.788	2611.9707	1559.2	672
987.913	2613.2516	1568.7	682.55
988.0379	2614.5319	1545.35	662.9
988.1629	2615.8115	1554.85	672.75
988.2878	2617.0903	1546.9	664.1
988.4126	2618.3685	1552.25	669.1
988.5375	2619.6461	1536.1	653.6
988.6622	2620.9229	1546.6	668.4
988.787	2622.199	1545.55	664.05
988.9117	2623.4745	1544.5	661.1
989.0364	2624.7493	1534.3	650.7
989.161	2626.0234	1534.25	652.7
989.2857	2627.2968	1530.6	647.6
989.4102	2628.5695	1527.7	643.95
989.5348	2629.8415	1533.85	651.85
989.6593	2631.1128	1529.85	646
989.7837	2632.3835	1531.15	648.8
989.9082	2633.6535	1527.35	647.45
990.0326	2634.9228	1527.3	645.25
990.1569	2636.1914	1534.3	652.5
990.2812	2637.4593	1527.35	642.65
990.4055	2638.7265	1527	643.9
990.5298	2639.9931	1519.25	636.2
990.654	2641.259	1524.65	642.7
990.7782	2642.5242	1517.65	635.1
990.9023	2643.7887	1516.4	634.95
991.0264	2645.0525	1516.2	635.1
991.1505	2646.3156	1516.1	632.6
991.2745	2647.5781	1512.85	630.4
991.3985	2648.8398	1506	625
991.5225	2650.1009	1535	614.35
991.6464	2651.3613	1500.4	617.85
991.7703	2652.6211	1504.6	622.65
991.8942	2653.8801	1500.7	621
992.018	2655.1385	1505.1	620.45
992.1418	2656.3961	1496.95	616.15
992.2655	2657.6531	1496.3	615.15
992.3892	2658.9094	1506	624.95
992.5129	2660.1651	1493.45	611.3
992.6366	2661.42	1503.9	621.7
992.7602	2662.6743	1494.55	609.25
992.8837	2663.9279	1497.8	616.9
993.0073	2665.1808	1497.95	615.3
993.1307	2666.433	1510.75	625.3
993.2542	2667.6846	1510.7	629.75
993.3776	2668.9354	1513.05	629.7
993.501	2670.1856	1510.15	627.6
993.6244	2671.4351	1509.1	627.35
993.7477	2672.6839	1512.2	628.8
993.8709	2673.9321	1516.05	634.45
993.9942	2675.1795	1515.75	631.15
994.1174	2676.4263	1521.55	640.35
994.2405	2677.6724	1512.6	632.05
994.3637	2678.9179	1525.2	640.95
994.4868	2680.1626	1512	629.55
994.6098	2681.4067	1519.85	636.6
994.7328	2682.6501	1521.2	639.05
994.8558	2683.8928	1511.25	628.7
994.9788	2685.1348	1512.3	631.55
995.1017	2686.3761	1504.2	623.85
995.2245	2687.6168	1494.6	610.75
995.3474	2688.8568	1499.45	616.7
995.4702	2690.0961	1494.2	611.95
995.5929	2691.3348	1500.75	618.25
995.7156	2692.5727	1491.45	609.95
995.8383	2693.81	1481.1	598.8
995.961	2695.0466	1492.95	613.6
996.0836	2696.2826	1482.5	600.35
996.2062	2697.5178	1495.75	608.65
996.3287	2698.7524	1492.85	612.4
996.4512	2699.9863	1489.9	603.85
996.5737	2701.2195	1487.9	607.1
996.6961	2702.452	1500.1	615.1
996.8185	2703.6839	1493.75	611.25
996.9408	2704.9151	1498	617.3
997.0631	2706.1456	1503.55	620.75
997.1854	2707.3755	1508.6	629.45
997.3077	2708.6046	1517.8	632.25
997.4299	2709.8331	1525.95	643.9
997.552	2711.0609	1521.6	639.55
997.6742	2712.2881	1542.1	660.15
997.7963	2713.5145	1536.35	652.45
997.9183	2714.7403	1549.8	669.15
998.0403	2715.9654	1557.95	674.1
998.1623	2717.1899	1579.5	684.2
998.2842	2718.4136	1584.4	702.45
998.4062	2719.6367	1582.05	700.15
998.528	2720.8591	1606.8	718.6
998.6498	2722.0809	1608.05	726.45
998.7716	2723.3019	1624.85	740.3
998.8934	2724.5223	1624	741.1
999.0151	2725.7421	1632.4	747.75
999.1368	2726.9611	1640.5	756.9
999.2584	2728.1795	1638.15	749.7
999.38	2729.3972	1631.15	750.8
999.5016	2730.6142	1627.25	733.4
999.6231	2731.8306	1609.8	725.45
999.7446	2733.0462	1590.3	705.45
999.8661	2734.2612	1579.45	690.85
999.9875	2735.4756	1555.65	673.4
1000.1089	2736.6892	1543.85	658.7
1000.2302	2737.9022	1530.3	649.45
1000.3515	2739.1145	1516	633.95
1000.4728	2740.3262	1510.1	621.25
1000.594	2741.5372	1498.7	617.2
1000.7152	2742.7475	1482.15	598.25
1000.8363	2743.9571	1472.2	587.9
1000.9575	2745.1661	1468.75	581.85
1001.0785	2746.3744	1458.95	577
1001.1996	2747.582	1448.25	566.35
1001.3206	2748.7889	1447.6	563.9
1001.4415	2749.9952	1429.4	548.15
1001.5625	2751.2008	1425.2	543.9
1001.6833	2752.4057	1419.95	535.25
1001.8042	2753.61	1417.35	532.9
1001.925	2754.8136	1413.5	528.05
1002.0458	2756.0165	1413.15	529.95
1002.1665	2757.2188	1410.15	529.4
1002.2872	2758.4204	1414	533.5
1002.4078	2759.6213	1409.5	526.3
1002.5285	2760.8215	1425.2	535.05
1002.649	2762.0211	1409.35	527.5
1002.7696	2763.22	1412.1	525.4
1002.8901	2764.4182	1407.55	525.85
1003.0106	2765.6158	1409.2	526.65
1003.131	2766.8127	1405.3	522.7
1003.2514	2768.009	1398.25	517
1003.3717	2769.2045	1396.8	511.65
1003.492	2770.3994	1389.4	502.9
1003.6123	2771.5936	1393.1	508.85
1003.7325	2772.7872	1393.35	511.6
1003.8527	2773.9801	1388.45	505.3
1003.9729	2775.1723	1401.85	503.4
1004.093	2776.3639	1385.35	503.1
1004.2131	2777.5548	1389.85	505.2
1004.3331	2778.745	1380.45	497.65
1004.4531	2779.9346	1386.75	504.55
1004.5731	2781.1235	1385.8	503.3
1004.693	2782.3117	1378.55	497.2
1004.8129	2783.4992	1394.4	512
1004.9328	2784.6861	1393.8	510.9
1005.0526	2785.8723	1394.4	511.3
1005.1723	2787.0579	1394.7	513.3
1005.2921	2788.2428	1401.4	519.3
1005.4118	2789.427	1408.15	524.1
1005.5314	2790.6106	1416.4	533.65
1005.651	2791.7935	1424.5	541.8
1005.7706	2792.9757	1430.15	547.1
1005.8902	2794.1573	1432.45	548.8
1006.0097	2795.3382	1441.65	559.05
1006.1291	2796.5184	1448.95	568.35
1006.2485	2797.698	1458.65	575.35
1006.3679	2798.8769	1469.1	587.35
1006.4873	2800.0551	1483.8	602.1
1006.6066	2801.2327	1503.75	619.25
1006.7258	2802.4096	1515.05	633.7
1006.8451	2803.5859	1526.65	643
1006.9642	2804.7615	1540.4	659.5
1007.0834	2805.9364	1567.65	686.85
1007.2025	2807.1106	1585.1	703.15
1007.3216	2808.2842	1601.7	718.7
1007.4406	2809.4572	1638.95	757.75
1007.5596	2810.6294	1659.4	777.25
1007.6785	2811.801	1690.1	811.15
1007.7975	2812.972	1730.8	850.65
1007.9163	2814.1423	1770.7	888.3
1008.0352	2815.3119	1814.7	932.55
1008.154	2816.4808	1852.75	971.6
1008.2727	2817.6491	1898.75	1017.1
1008.3914	2818.8167	1947.3	1067.4
1008.5101	2819.9837	2015.8	1128.95
1008.6288	2821.15	2052.15	1172.15
1008.7474	2822.3157	2114.05	1234.4
1008.8659	2823.4807	2164.65	1280.8
1008.9844	2824.645	2218.1	1333.15
1009.1029	2825.8086	2274.7	1393.05
1009.2214	2826.9716	2332.1	1451.85
1009.3398	2828.134	2396.9	1515.75
1009.4581	2829.2957	2435.5	1552.65
1009.5764	2830.4567	2458.2	1578.35
1009.6947	2831.617	2493	1611.8
1009.813	2832.7767	2500.9	1619.95
1009.9312	2833.9358	2507.15	1624.95
1010.0493	2835.0941	2489.45	1605.3
1010.1675	2836.2519	2482.35	1600.05
1010.2855	2837.4089	2457.65	1573.2
1010.4036	2838.5653	2451.8	1568.4
1010.5216	2839.7211	2436.05	1556.5
1010.6396	2840.8761	2415.65	1531.7
1010.7575	2842.0306	2440.7	1558.85
1010.8754	2843.1843	2460.2	1578.55
1010.9932	2844.3374	2479.1	1598
1011.111	2845.4899	2528.2	1645
1011.2288	2846.6417	2568.95	1689.65
1011.3465	2847.7928	2636.7	1753.05
1011.4642	2848.9433	2696.9	1817.05
1011.5818	2850.0931	2758.45	1874.85
1011.6995	2851.2422	2825.35	1942.65
1011.817	2852.3907	2880.7	1998.9
1011.9345	2853.5385	2931.35	2049.3
1012.052	2854.6857	3000.1	2090.55
1012.1695	2855.8323	3030.5	2150
1012.2869	2856.9781	3094.4	2211.4
1012.4042	2858.1233	3142.1	2261.4
1012.5216	2859.2679	3180.85	2298.75
1012.6389	2860.4118	3239.45	2359.35
1012.7561	2861.555	3286.15	2400
1012.8733	2862.6976	3329.65	2444.7
1012.9905	2863.8395	3363.5	2481.4
1013.1076	2864.9808	3382.75	2499.6
1013.2247	2866.1214	3408.1	2525.95
1013.3417	2867.2614	3425.05	2543.05
1013.4587	2868.4007	3449.95	2565.65
1013.5757	2869.5393	3451.05	2567.9
1013.6926	2870.6773	3463.5	2578.9
1013.8095	2871.8146	3480.55	2595.8
1013.9263	2872.9513	3477.25	2593.4
1014.0431	2874.0874	3481.85	2598.95
1014.1599	2875.2227	3475.15	2592.65
1014.2766	2876.3574	3456.05	2572.85
1014.3933	2877.4915	3413.95	2533.55
1014.51	2878.6249	3399.6	2516.4
1014.6266	2879.7577	3369.8	2486.6
1014.7431	2880.8898	3362	2469
1014.8596	2882.0212	3349	2468.85
1014.9761	2883.152	3337.1	2454
1015.0925	2884.2821	3315.2	2435.5
1015.2089	2885.4116	3302.4	2420.4
1015.3253	2886.5405	3319.55	2438.15
1015.4416	2887.6686	3323.2	2437.4
1015.5579	2888.7962	3322.25	2441.8
1015.6741	2889.923	3328.9	2447.25
1015.7903	2891.0493	3338.75	2457.35
1015.9065	2892.1748	3343.3	2463.15
1016.0226	2893.2997	3356.6	2473.4
1016.1387	2894.424	3376.65	2496.85
1016.2547	2895.5476	3387.8	2506.3
1016.3707	2896.6706	3405.9	2524.6
1016.4866	2897.7929	3433.5	2553.05
1016.6025	2898.9145	3446.1	2564.35
1016.7184	2900.0355	3470.4	2588.95
1016.8342	2901.1559	3513.2	2629
1016.95	2902.2756	3544.45	2662.75
1017.0658	2903.3946	3574.15	2693.15
1017.1815	2904.513	3591.35	2706.2
1017.2971	2905.6308	3619.4	2737.15
1017.4127	2906.7479	3650.05	2767.15
1017.5283	2907.8643	3676.3	2792.55
1017.6439	2908.9801	3673.3	2792.55
1017.7594	2910.0953	3683.8	2802.05
1017.8748	2911.2098	3686.3	2798.75
1017.9902	2912.3236	3689.3	2799.75
1018.1056	2913.4368	3669.1	2783.75
1018.2209	2914.5494	3656.7	2774.15
1018.3362	2915.6613	3633.7	2746
1018.4515	2916.7725	3583.45	2697.9
1018.5667	2917.8831	3585.95	2704.3
1018.6819	2918.9931	3540.6	2655.45
1018.797	2920.1024	3501.7	2619.25
1018.9121	2921.211	3492.35	2611.55
1019.0271	2922.319	3465.55	2580.2
1019.1421	2923.4264	3451.7	2570.2
1019.2571	2924.5331	3433	2552.45
1019.372	2925.6391	3436.9	2554.85
1019.4869	2926.7445	3437.2	2558.6
1019.6017	2927.8493	3428.9	2545.75
1019.7165	2928.9534	3442.25	2558.35
1019.8313	2930.0569	3442.65	2557.2
1019.946	2931.1597	3438.95	2555.8
1020.0606	2932.2619	3452.65	2571.5
1020.1753	2933.3634	3439.9	2557.85
1020.2899	2934.4643	3461.35	2573.05
1020.4044	2935.5645	3445.55	2558.85
1020.5189	2936.6641	3418.95	2532.85
1020.6334	2937.763	3403.45	2524.2
1020.7478	2938.8613	3374.15	2489.05
1020.8622	2939.959	3324.8	2438.55
1020.9765	2941.056	3253.8	2372.55
1021.0908	2942.1523	3202	2317.65
1021.2051	2943.248	3117.25	2235.95
1021.3193	2944.3431	3034.7	2152.15
1021.4334	2945.4375	2932.25	2050.3
1021.5476	2946.5313	2844.35	1964.85
1021.6617	2947.6244	2753.55	1871.2
1021.7757	2948.7169	2654.65	1771.35
1021.8897	2949.8087	2573.45	1690.1
1022.0037	2950.8999	2474.55	1593.5
1022.1176	2951.9904	2402.7	1521.3
1022.2315	2953.0803	2320.55	1438.35
1022.3453	2954.1696	2262.65	1379.4
1022.4591	2955.2582	2206.25	1324.65
1022.5728	2956.3462	2168.65	1286.45
1022.6865	2957.4335	2111.9	1230.15
1022.8002	2958.5202	2093.65	1209.5
1022.9138	2959.6062	2072.15	1189.25
1023.0274	2960.6916	2039.5	1157.7
1023.141	2961.7764	2018.8	1136.3
1023.2545	2962.8605	2006.15	1125.25
1023.3679	2963.9439	1984.2	1101.1
1023.4813	2965.0267	1968.95	1086.95
1023.5947	2966.1089	1979.1	1074.7
1023.708	2967.1905	1974.05	1092.7
1023.8213	2968.2714	1956.35	1074.3
1023.9346	2969.3516	1949	1067.8
1024.0478	2970.4312	1983.65	1090.7
1024.1609	2971.5102	1964.5	1082.6
1024.274	2972.5885	1972.9	1091.4
1024.3871	2973.6662	1969.65	1083.25
1024.5002	2974.7432	1967.1	1085.35
1024.6132	2975.8196	1964	1080.8
1024.7261	2976.8954	1956.7	1074.5
1024.839	2977.9705	1952.2	1069.35
1024.9519	2979.045	1937.95	1058.6
1025.0647	2980.1188	1932.4	1051.4
1025.1775	2981.192	1916.5	1036.65
1025.2902	2982.2645	1890.65	1007.4
1025.4029	2983.3364	1881.3	1000.65
1025.5156	2984.4077	1846.45	965.4
1025.6282	2985.4783	1841.75	953.8
1025.7407	2986.5483	1801.95	920.3
1025.8532	2987.6177	1774.55	894.5
1025.9657	2988.6864	1734.85	851.4
1026.0782	2989.7545	1696.95	812.55
1026.1906	2990.8219	1672.05	790.35
1026.3029	2991.8887	1638.55	753.3
1026.4152	2992.9548	1612.25	729.2
1026.5275	2994.0204	1571.4	692.15
1026.6397	2995.0852	1553.95	673.15
1026.7519	2996.1495	1522.6	640.05
1026.864	2997.2131	1491.25	608.85
1026.9761	2998.276	1472.55	591.25
1027.0882	2999.3383	1457.9	576.1
1027.2002	3000.4	1434.4	552.2
1027.3122	3001.4611	1412	530.55
1027.4241	3002.5215	1397.15	515.15
1027.536	3003.5812	1379	499.3
1027.6478	3004.6404	1372.7	490.75
1027.7596	3005.6989	1362.2	478.65
1027.8714	3006.7567	1343.7	462
1027.9831	3007.8139	1365.55	457.35
1028.0947	3008.8705	1328.2	449.1
1028.2064	3009.9264	1335.7	436.45
1028.3179	3010.9818	1310.9	430.25
1028.4295	3012.0364	1306.3	423.45
1028.541	3013.0905	1297.05	416.55
1028.6524	3014.1439	1294.8	413.55
1028.7638	3015.1966	1295.65	415
1028.8752	3016.2487	1281.65	399.75
1028.9865	3017.3002	1285.05	401.15
1029.0978	3018.3511	1277.55	395.2
1029.209	3019.4013	1277.7	395.15
1029.3202	3020.4509	1275.45	394.15
1029.4314	3021.4998	1277.15	394.15
1029.5425	3022.5481	1269.25	387.45
1029.6535	3023.5958	1276.3	395.3
1029.7645	3024.6428	1270.25	386.7
1029.8755	3025.6892	1265.1	384.45
1029.9864	3026.735	1267.45	386.2
1030.0973	3027.7802	1272.95	390.45
1030.2082	3028.8247	1267.6	387.65
1030.319	3029.8685	1269.5	386.35
1030.4297	3030.9118	1273.15	391.1
1030.5404	3031.9544	1273.35	391.95
1030.6511	3032.9963	1273.35	391.3
1030.7617	3034.0376	1274.35	391.65
1030.8723	3035.0783	1285.35	402.25
1030.9829	3036.1184	1282	400.5
1031.0934	3037.1578	1282.5	402.4
1031.2038	3038.1966	1291.75	409.2
1031.3142	3039.2348	1283.2	402.2
1031.4246	3040.2723	1300.45	408.75
1031.5349	3041.3092	1286.75	406.35
1031.6452	3042.3455	1288.3	406
1031.7554	3043.3811	1289.35	406.8
1031.8656	3044.4161	1283.75	399.75
1031.9758	3045.4505	1290.7	409.7
1032.0859	3046.4842	1290.7	407.4
1032.1959	3047.5173	1274.8	393.75
1032.3059	3048.5498	1277.45	395.35
1032.4159	3049.5816	1273.8	393.15
1032.5258	3050.6128	1269.9	387.85
1032.6357	3051.6434	1269.05	385.55
1032.7455	3052.6734	1264.1	381.45
1032.8553	3053.7027	1271.8	390.8
1032.9651	3054.7314	1255.65	374.85
1033.0748	3055.7594	1252.95	371.25
1033.1845	3056.7868	1251.2	367.05
1033.2941	3057.8136	1249.15	367.75
1033.4037	3058.8398	1248.15	367.75
1033.5132	3059.8653	1244.3	362.9
1033.6227	3060.8902	1235.8	355.1
1033.7321	3061.9145	1242.65	361.35
1033.8415	3062.9381	1231.3	349.2
1033.9509	3063.9612	1243.05	345.6
1034.0602	3064.9835	1228.2	347.85
1034.1694	3066.0053	1226.95	343.35
1034.2787	3067.0264	1219.2	338.45
1034.3878	3068.0469	1215.55	330.85
1034.497	3069.0668	1214.75	329.65
1034.6061	3070.086	1205.45	325.25
1034.7151	3071.1046	1205.8	321.7
1034.8241	3072.1226	1197.9	314.9
1034.9331	3073.1399	1187.9	308.6
1035.042	3074.1567	1178.55	296.35
1035.1508	3075.1727	1177	293.15
1035.2597	3076.1882	1167.15	286.9
1035.3684	3077.203	1159.2	278.05
1035.4772	3078.2173	1157.6	274.45
1035.5859	3079.2308	1152.7	267.85
1035.6945	3080.2438	1146.55	262.95
1035.8031	3081.2561	1138.8	256.4
1035.9117	3082.2678	1126.95	245.55
1036.0202	3083.2789	1121.65	238.65
1036.1286	3084.2893	1121.6	241.3
1036.2371	3085.2991	1114.9	234.95
1036.3454	3086.3083	1110.45	223.75
1036.4538	3087.3169	1107.6	225.6
1036.562	3088.3248	1103.6	221.8
1036.6703	3089.3321	1096.2	213.6
1036.7785	3090.3388	1093.65	213.5
1036.8866	3091.3449	1084.05	200.55
1036.9948	3092.3503	1088.65	204.25
1037.1028	3093.3551	1077.75	199.05
1037.2108	3094.3593	1080.75	199.3
1037.3188	3095.3629	1078.5	198
1037.4267	3096.3658	1073.2	191.1
1037.5346	3097.3681	1070.75	190.8
1037.6425	3098.3698	1066.3	183.15
1037.7503	3099.3708	1070.85	184.5
1037.858	3100.3713	1063.7	183
1037.9657	3101.3711	1057.05	175.2
1038.0734	3102.3702	1200.8	176.8
1038.181	3103.3688	1056.1	172.45
1038.2886	3104.3667	1053.6	174.5
1038.3961	3105.364	1048.55	168.45
1038.5036	3106.3607	1048.55	165.25
1038.611	3107.3568	1045.45	164.2
1038.7184	3108.3522	1043.35	163.75
1038.8257	3109.347	1047.45	167.45
1038.933	3110.3412	1044.45	159
1039.0403	3111.3348	1037.8	157.15
1039.1475	3112.3277	1039.45	159.55
1039.2547	3113.32	1036.4	155.65
1039.3618	3114.3117	1034.35	152.35
1039.4689	3115.3028	1032.3	151.15
1039.5759	3116.2932	1031.75	147.2
1039.6829	3117.2831	1034.35	147.3
1039.7898	3118.2723	1026.1	144.45
1039.8967	3119.2608	1026.75	145.25
1040.0035	3120.2488	1023.35	141.55
1040.1103	3121.2361	1023.1	139.8
1040.2171	3122.2229	1025.35	144.25
1040.3238	3123.209	1023.1	138.95
1040.4305	3124.1944	1019.6	138.8
1040.5371	3125.1793	1023.45	140.3
1040.6437	3126.1635	1015.45	134.35
1040.7502	3127.1471	1014.8	134.1
1040.8567	3128.1301	1014.05	132.95
1040.9631	3129.1125	1011	129.05
1041.0695	3130.0942	1010.85	127.75
1041.1759	3131.0753	1017.5	127.8
1041.2822	3132.0558	1016.2	133.65
1041.3884	3133.0357	1010.4	128.75
1041.4946	3134.015	1007.8	125.75
1041.6008	3134.9936	1003.7	119.6
1041.7069	3135.9716	1026.5	123.3
1041.813	3136.949	1005.65	123.95
1041.919	3137.9258	1024.9	125.45
1042.025	3138.902	1003.7	114.75
1042.1309	3139.8775	1001.8	120.95
1042.2368	3140.8524	1000.75	118.6
1042.3427	3141.8267	1001.65	118.2
1042.4485	3142.8004	1000.15	120.05
1042.5542	3143.7735	1004.35	116.75
1042.6599	3144.7459	999.05	116.3
1042.7656	3145.7178	999.45	117.5
1042.8712	3146.689	995.25	116.05
1042.9768	3147.6596	994.2	111
1043.0823	3148.6295	994.85	113.05
1043.1878	3149.5989	991.75	110.55
1043.2932	3150.5676	987.15	108.15
1043.3986	3151.5357	990.5	110.35
1043.5039	3152.5032	990.3	110.75
1043.6092	3153.4701	987	106.2
1043.7145	3154.4364	995.5	111.7
1043.8197	3155.402	986.75	105
1043.9248	3156.367	988.6	105.45
1044.03	3157.3315	1018.45	104.7
1044.135	3158.2952	986.15	104.45
1044.24	3159.2584	984.25	103.45
1044.345	3160.221	984.6	102.3
1044.4499	3161.1829	983.55	100.75
1044.5548	3162.1442	983.2	102.35
1044.6596	3163.105	984.15	101.65
1044.7644	3164.065	978.7	96
1044.8692	3165.0245	984.3	101.75
1044.9739	3165.9834	976.6	95.95
1045.0785	3166.9416	978.95	96.95
1045.1831	3167.8993	976	95.75
1045.2877	3168.8563	976.85	93.9
1045.3922	3169.8127	977.3	96.75
1045.4966	3170.7684	977.95	94.5
1045.6011	3171.7236	977.15	93.5
1045.7054	3172.6782	977.05	95.05
1045.8098	3173.6321	974.75	91.55
1045.914	3174.5854	979.55	93.9
1046.0183	3175.5381	972.35	90.85
1046.1224	3176.4902	969.85	91.8
1046.2266	3177.4417	973.75	94.35
1046.3307	3178.3926	967.2	86.6
1046.4347	3179.3428	971.45	89.55
1046.5387	3180.2924	969	88.6
1046.6427	3181.2415	972.1	89.75
1046.7466	3182.1899	972.2	90.1
1046.8504	3183.1377	965.85	84.85
1046.9542	3184.0848	969.75	82.4
1047.058	3185.0314	967.25	86.3
1047.1617	3185.9773	966.5	82.9
1047.2654	3186.9227	971.5	88.9
1047.369	3187.8674	968.9	89.05
1047.4726	3188.8115	969.9	85.3
1047.5761	3189.755	962.5	81.25
1047.6796	3190.6979	967.45	85.9
1047.783	3191.6402	961.8	79.55
1047.8864	3192.5818	965.45	83.35
1047.9898	3193.5229	983.25	82.5
1048.0931	3194.4633	963.05	81.65
1048.1963	3195.4031	963.35	80.9
1048.2995	3196.3423	959.5	78.9
1048.4027	3197.2809	959.55	78.7
1048.5058	3198.2189	963.65	82.6
1048.6089	3199.1563	976.8	79.55
1048.7119	3200.0931	956.85	76.15
1048.8148	3201.0292	958.3	76.5
1048.9178	3201.9648	960.3	78.2
1049.0206	3202.8997	963.05	79
1049.1235	3203.834	959.4	79.6
1049.2262	3204.7677	955.4	73.3
1049.329	3205.7008	957.7	75
1049.4317	3206.6333	950.2	71.3
1049.5343	3207.5652	959.35	75.6
1049.6369	3208.4964	956.4	73.95
1049.7394	3209.4271	953.35	73.15
1049.8419	3210.3571	955.2	72.45
1049.9444	3211.2865	955.95	75
1050.0468	3212.2154	955.2	73.15
1050.1491	3213.1436	956.7	72.55
1050.2514	3214.0712	962.55	73.7
1050.3537	3214.9982	953.6	72.65
1050.4559	3215.9246	951.05	69.7
1050.5581	3216.8503	948.7	69
1050.6602	3217.7755	949.3	65.95
1050.7623	3218.7001	949.6	68.95
1050.8643	3219.624	953.95	72.2
1050.9663	3220.5473	949.6	68
1051.0682	3221.4701	952.45	69.85
1051.1701	3222.3922	953.75	71.15
1051.2719	3223.3137	946.1	63.95
1051.3737	3224.2346	949.4	67.35
1051.4754	3225.1549	946.7	65.5
1051.5771	3226.0746	949.9	69.85
1051.6788	3226.9937	952.25	69.6
1051.7804	3227.9121	946.9	66.1
1051.8819	3228.83	947.15	64.7
1051.9834	3229.7473	946.9	64.6
1052.0849	3230.6639	944.65	63.5
1052.1863	3231.5799	946.55	64.7
1052.2876	3232.4954	944.4	59.9
1052.3889	3233.4102	946.75	67.8
1052.4902	3234.3244	944.45	63.05
1052.5914	3235.238	944	64.2
1052.6926	3236.151	969.9	62.8
1052.7937	3237.0634	938	58.6
1052.8948	3237.9752	942.6	62.25
1052.9958	3238.8864	941.15	59.95
1053.0968	3239.797	942.2	62.45
1053.1977	3240.7069	942.15	60.1
1053.2986	3241.6163	942.7	57.9
1053.3994	3242.5251	941.95	62.1
1053.5002	3243.4332	940.55	61.3
1053.6009	3244.3408	943.75	62.05
1053.7016	3245.2477	941.1	60.5
1053.8022	3246.154	940.4	59.95
1053.9028	3247.0598	938.65	56.85
1054.0034	3247.9649	938	57.55
1054.1039	3248.8694	939.4	59
1054.2043	3249.7733	936.05	53.75
1054.3047	3250.6766	940.7	59.05
1054.4051	3251.5793	936.4	52
1054.5054	3252.4814	938.6	58.7
1054.6056	3253.3829	935.9	54.95
1054.7058	3254.2838	933.05	53.15
1054.806	3255.1841	933.9	52.7
1054.9061	3256.0838	935.3	53.85
1055.0061	3256.9829	929.75	49.95
1055.1062	3257.8814	935.75	53.4
1055.2061	3258.7792	933.75	52.25
1055.306	3259.6765	933.85	50.9
1055.4059	3260.5731	932.65	51.6
1055.5057	3261.4692	933.1	50.05
1055.6055	3262.3647	931.8	48.7
1055.7052	3263.2595	928.45	45.65
1055.8049	3264.1538	928.75	46.9
1055.9045	3265.0474	929.05	46.65
1056.0041	3265.9404	928.3	47.5
1056.1036	3266.8329	925.7	45.2
1056.2031	3267.7247	937.65	45.6
1056.3025	3268.616	921.35	41.4
1056.4019	3269.5066	925.55	44.2
1056.5013	3270.3966	920.4	36.25
1056.6005	3271.286	919.65	38.8
