Software Version:	3.9.2.0
Unit SN:	10000200
Spectrometer SN:	6960
Date:	3/14/2024 1:37:53 PM
Data Line Index:	25
Spectral Points:	2048
Integration time (ms):	125
Averages:	20
Delay (ms):	30000
Sequence Number:	1
Processing:	dark subtract
Laser Power (mW):	300
Laser Current (mA):	824
Laser Diode Temp (C):	25
Laser Case Temp (C):	28.7
System Temp (C):	28.7
Spectrometer Temp (C):	26.5
CCD Temp (C):	-0.002
Secondary Temp (C):	20.006
Heatsink Temp (C):	24.661
CCDPCB Temp (C):	37.819
SecondaryPCB Temp (C):	35.673

Wavelength	RamanShift	Raw Counts	Dark Subtracted
787.061	30.1047	464.85	52.45
787.2016	32.3739	465.35	55.55
787.3422	34.6426	472.95	63.6
787.4828	36.9109	477.95	66.3
787.6235	39.1787	489.7	69.4
787.7642	41.4461	498.55	76.35
787.9049	43.7131	507.4	81.85
788.0456	45.9796	515.8	86.65
788.1863	48.2456	526.1	92.75
788.3271	50.5112	539.4	102.6
788.4679	52.7764	547.35	109.5
788.6087	55.0411	554.85	111.85
788.7496	57.3054	564.8	116.7
788.8904	59.5692	579.05	130.3
789.0313	61.8326	591.05	137.7
789.1722	64.0955	607.6	149.25
789.3132	66.3579	621.8	159.5
789.4541	68.6199	643.1	177.85
789.5951	70.8815	680.75	212.85
789.7361	73.1426	768.4	297.75
789.8771	75.4032	975.1	497.4
790.0181	77.6634	1510.3	1027.1
790.1592	79.9231	2762.6	2274.6
790.3003	82.1824	5513.35	5013.1
790.4414	84.4412	10596.1	10078.1
790.5825	86.6995	17672.45	17131.9
790.7237	88.9574	24755.25	24189.1
790.8648	91.2148	29682.8	29102.4
791.006	93.4717	32019.5	31426.55
791.1472	95.7282	32556.2	31957.35
791.2885	97.9842	32452.1	31851.4
791.4297	100.2398	31813.55	31212.75
791.571	102.4949	31151.15	30543.7
791.7123	104.7495	30314	29701.45
791.8536	107.0036	29411.85	28801.4
791.9949	109.2573	28678.95	28069.65
792.1363	111.5105	27964.65	27354.25
792.2777	113.7632	27226.2	26610.95
792.4191	116.0154	26684.95	26058.65
792.5605	118.2672	26316.8	25697.6
792.7019	120.5185	25851.65	25232.8
792.8434	122.7693	25529.25	24909.45
792.9849	125.0197	25287.8	24659.95
793.1264	127.2696	25008.5	24381.7
793.2679	129.519	24862	24233.05
793.4094	131.7679	24596.9	23963.9
793.551	134.0163	24392.15	23759.15
793.6926	136.2642	24127.4	23487
793.8342	138.5117	23828.3	23178.8
793.9758	140.7587	23487.65	22841.1
794.1175	143.0052	23228.75	22581.3
794.2591	145.2512	22896.55	22251.25
794.4008	147.4967	22608.7	21962.2
794.5425	149.7417	22420	21768.5
794.6842	151.9863	22280.3	21631.1
794.826	154.2304	22214.55	21557.3
794.9677	156.4739	22008.55	21347.85
795.1095	158.717	21923.4	21263.35
795.2513	160.9596	21746.75	21079.35
795.3931	163.2017	21459.05	20792.05
795.535	165.4433	21205.85	20533.85
795.6768	167.6844	20853.75	20182.3
795.8187	169.925	20537.8	19863.4
795.9606	172.1651	20151.95	19473
796.1025	174.4047	19874.65	19197.05
796.2445	176.6439	19601.5	18918.95
796.3864	178.8825	19380.05	18697.95
796.5284	181.1206	19257.9	18566.95
796.6704	183.3582	19072.3	18382.65
796.8124	185.5954	18951.15	18258.5
796.9544	187.832	18874.15	18179.65
797.0965	190.0681	18813.25	18114.45
797.2386	192.3037	18849.6	18148.35
797.3806	194.5388	18802.4	18099
797.5228	196.7734	18851.35	18145.75
797.6649	199.0075	18916.35	18206.1
797.807	201.2411	19038.85	18327.65
797.9492	203.4742	19087.5	18371.1
798.0914	205.7068	19271.1	18557.55
798.2336	207.9389	19331.65	18618.25
798.3758	210.1704	19536.75	18817.7
798.518	212.4015	19599.9	18881.8
798.6603	214.632	19773.9	19054.4
798.8025	216.862	19900.05	19187.05
798.9448	219.0915	20010.95	19303.35
799.0871	221.3205	20134.6	19431.4
799.2294	223.549	20252.5	19554.55
799.3718	225.777	20474.45	19778.4
799.5141	228.0044	20687.35	19985.5
799.6565	230.2314	20945.3	20247.4
799.7989	232.4578	21172.55	20471.65
799.9413	234.6837	21413.35	20706.6
800.0837	236.909	21519.5	20811.1
800.2262	239.1339	21543.1	20811.85
800.3687	241.3582	21413.6	20696.7
800.5111	243.582	21192.2	20449.4
800.6536	245.8053	20996.4	20263.05
800.7961	248.0281	20822.6	20093.25
800.9387	250.2503	20712.8	19977.6
801.0812	252.472	20696.75	19956.1
801.2238	254.6932	20729.3	19985.85
801.3664	256.9139	20719.2	19973.85
801.509	259.134	20891.25	20142.85
801.6516	261.3536	20991.25	20246.95
801.7942	263.5727	21210.15	20463.85
801.9369	265.7912	21313.35	20568.15
802.0795	268.0092	21482.7	20739.55
802.2222	270.2267	21557.55	20809.3
802.3649	272.4436	21626.15	20875.3
802.5076	274.6601	21592.4	20835
802.6504	276.8759	21496.1	20744.1
802.7931	279.0913	21364.75	20611.2
802.9359	281.3061	21228.75	20470.95
803.0787	283.5204	21222.25	20462.7
803.2215	285.7341	21220.1	20460.1
803.3643	287.9473	21288.8	20513.05
803.5071	290.16	21395.95	20627.15
803.6499	292.3721	21601.9	20842.9
803.7928	294.5837	21897.5	21131.75
803.9357	296.7947	22161.3	21400.45
804.0786	299.0052	22326.2	21566
804.2215	301.2152	22225.9	21460.95
804.3644	303.4246	21976.05	21218.75
804.5074	305.6334	21494.5	20732.5
804.6503	307.8418	21034.55	20269.45
804.7933	310.0495	20556.5	19789.5
804.9363	312.2568	20209	19442.95
805.0793	314.4635	19818.25	19050.4
805.2223	316.6696	19614.95	18844.4
805.3653	318.8752	19458.35	18682.9
805.5084	321.0802	19446.35	18678.7
805.6514	323.2847	19497.5	18725.7
805.7945	325.4887	19542.3	18772.85
805.9376	327.692	19515.45	18740.75
806.0807	329.8949	19405.75	18630.3
806.2238	332.0972	19195.45	18423.35
806.367	334.2989	18959.55	18178.1
806.5101	336.5001	18662.6	17884.05
806.6533	338.7007	18449.65	17671
806.7965	340.9008	18313.7	17531.5
806.9397	343.1003	18144.75	17360.35
807.0829	345.2992	18047.75	17262.8
807.2261	347.4976	17968.8	17182.75
807.3693	349.6955	17918.75	17134.65
807.5126	351.8927	17908.75	17117.4
807.6559	354.0895	17871.5	17071.95
807.7991	356.2856	17875.6	17083.1
807.9424	358.4812	17808.75	17019.35
808.0857	360.6763	17812.4	17020.6
808.2291	362.8707	17778.6	16986.9
808.3724	365.0646	17831.9	17034.6
808.5158	367.258	17827.9	17029.55
808.6591	369.4508	17869.3	17071.2
808.8025	371.643	17959.4	17161.6
808.9459	373.8346	17978.7	17178.7
809.0893	376.0257	17971.75	17168.95
809.2327	378.2162	17960.1	17154.05
809.3762	380.4062	17885.15	17078.55
809.5196	382.5956	17767.8	16962.3
809.6631	384.7844	17586.05	16779.1
809.8066	386.9726	17484.5	16675.1
809.9501	389.1603	17351.55	16546.65
810.0936	391.3474	17343.3	16507.15
810.2371	393.5339	17317.85	16507.3
810.3806	395.7199	17254.2	16451.4
810.5241	397.9052	17254.95	16457.1
810.6677	400.09	17252.4	16455.2
810.8113	402.2743	17363.3	16568.35
810.9548	404.4579	17460.35	16661.7
811.0984	406.641	17666.45	16869.15
811.2421	408.8235	17831.2	17031.75
811.3857	411.0054	18065.3	17265.75
811.5293	413.1868	18338.1	17534.5
811.673	415.3675	18495	17686.95
811.8166	417.5477	18566.8	17761.7
811.9603	419.7273	18568.15	17758.9
812.104	421.9064	18456.75	17638.5
812.2477	424.0848	18370.3	17560.15
812.3914	426.2627	18178.15	17365.45
812.5351	428.4399	17903.7	17087.3
812.6788	430.6166	17518	16699.2
812.8226	432.7928	17154.5	16333.7
812.9663	434.9683	16827.1	16008.9
813.1101	437.1432	16612.7	15789.8
813.2539	439.3176	16439.9	15619.15
813.3977	441.4914	16300.9	15477.25
813.5415	443.6645	16233.25	15409.8
813.6853	445.8371	16158.5	15337.1
813.8291	448.0091	16095.85	15272.25
813.973	450.1806	16034.95	15210.85
814.1168	452.3514	16019.95	15193.2
814.2607	454.5216	16000.2	15163.95
814.4046	456.6913	15937.9	15106.4
814.5485	458.8603	16008.8	15180.95
814.6924	461.0288	16056.35	15231.3
814.8363	463.1967	16003.05	15176.65
814.9802	465.3639	16088.35	15259.1
815.1241	467.5306	16074.6	15246.6
815.2681	469.6967	16122.6	15294.45
815.412	471.8622	16178.2	15352.55
815.556	474.0271	16260.6	15433.05
815.7	476.1914	16282.7	15453.25
815.844	478.3551	16273.7	15442.6
815.988	480.5182	16278.25	15448.1
816.132	482.6807	16324.65	15492.55
816.276	484.8426	16463.95	15633.1
816.4201	487.0039	16810.9	15981.25
816.5641	489.1647	17184.9	16350.7
816.7082	491.3248	17538.75	16707.7
816.8522	493.4843	17673.9	16842.55
816.9963	495.6432	17661	16827.25
817.1404	497.8015	17475.1	16641.35
817.2845	499.9592	17376.75	16543.95
817.4286	502.1163	17230.5	16396.95
817.5727	504.2728	16912.4	16075.8
817.7168	506.4287	16628.85	15796.4
817.861	508.5839	16251.7	15414.65
818.0051	510.7386	15999.95	15163.95
818.1493	512.8927	15849.45	15003.55
818.2935	515.0461	15780.45	14941.55
818.4377	517.199	15795.75	14958.6
818.5818	519.3512	15889.45	15053.9
818.726	521.5029	16065.9	15222.35
818.8703	523.6539	16240.2	15400.85
819.0145	525.8043	16318.9	15478.5
819.1587	527.9541	16253.95	15410.4
819.303	530.1033	16122.6	15282.6
819.4472	532.2519	16044.5	15203.3
819.5915	534.3999	16041.25	15197.45
819.7357	536.5472	16182.1	15340.2
819.88	538.694	16489.65	15645.85
820.0243	540.8401	16874.95	16031.2
820.1686	542.9856	17194.85	16350
820.3129	545.1305	17248.3	16404.35
820.4572	547.2748	17164.45	16322.35
820.6016	549.4185	16854	16007.35
820.7459	551.5615	16602.75	15757.65
820.8902	553.704	16518	15670.7
821.0346	555.8458	16505.25	15659.85
821.1789	557.987	16615.9	15774.65
821.3233	560.1276	16731.75	15886.45
821.4677	562.2675	16981.65	16137.8
821.6121	564.4069	17289.4	16445.05
821.7565	566.5456	17524.7	16678.2
821.9009	568.6837	17544.55	16698.35
822.0453	570.8212	17231.1	16386.3
822.1897	572.958	16666.25	15818.15
822.3342	575.0942	16121	15274.95
822.4786	577.2299	15801.8	14952.55
822.6231	579.3648	15611.85	14763.1
822.7675	581.4992	15628	14779.5
822.912	583.6329	15745.2	14898.6
823.0565	585.766	15924.45	15079.4
823.201	587.8985	16055.1	15207.85
823.3454	590.0304	16056.6	15185.2
823.4899	592.1616	15984.95	15135.5
823.6345	594.2922	15834.25	14981.05
823.779	596.4222	15600.4	14749.7
823.9235	598.5515	15437.2	14586.05
824.068	600.6802	15276.95	14428.7
824.2126	602.8083	15074.45	14224.45
824.3571	604.9358	15043.8	14192.7
824.5017	607.0626	15013.2	14162.45
824.6462	609.1888	15014.9	14164.15
824.7908	611.3144	15066.95	14214.25
824.9354	613.4393	15080.75	14228.5
825.08	615.5636	15118.15	14266.45
825.2246	617.6873	15091.05	14240.25
825.3692	619.8103	15003.35	14148.5
825.5138	621.9327	14836.85	13978.6
825.6584	624.0544	14690.7	13837.15
825.803	626.1756	14569.8	13718.8
825.9477	628.2961	14457.55	13601.6
826.0923	630.4159	14395.55	13541.5
826.237	632.5351	14309.15	13457.3
826.3816	634.6537	14275.15	13417.3
826.5263	636.7716	14240.8	13384.1
826.6709	638.8889	14230.2	13374.85
826.8156	641.0056	14257.25	13398.95
826.9603	643.1216	14232.9	13375.7
827.105	645.237	14204.6	13345.65
827.2497	647.3518	14161.2	13301.5
827.3944	649.4659	14104.6	13249.6
827.5391	651.5793	14073.4	13212.35
827.6838	653.6922	14006.35	13149.5
827.8285	655.8043	13962.45	13103.8
827.9733	657.9159	13982.6	13126.3
828.118	660.0268	13895.15	13033.05
828.2627	662.137	13864.6	13005.45
828.4075	664.2466	13876.25	13015.5
828.5522	666.3556	13847.6	12989.1
828.697	668.4639	13797.9	12936.15
828.8418	670.5716	13796.3	12933.5
828.9865	672.6786	13782.2	12920.55
829.1313	674.785	13753.2	12890.75
829.2761	676.8907	13739.7	12880.45
829.4209	678.9958	13766.1	12906.9
829.5657	681.1002	13749.15	12888.45
829.7105	683.204	13720.45	12854.45
829.8553	685.3072	13671.6	12810.35
830.0001	687.4097	13583.95	12721.25
830.1449	689.5115	13587.1	12724.75
830.2898	691.6127	13567.8	12703.95
830.4346	693.7132	13509.25	12644.75
830.5794	695.8131	13437.8	12560.25
830.7243	697.9123	13486.4	12620.95
830.8691	700.0109	13450.8	12586.05
831.014	702.1089	13429.35	12566.6
831.1588	704.2061	13459.7	12595.75
831.3037	706.3028	13478.5	12611.7
831.4486	708.3987	13491.2	12625.5
831.5935	710.4941	13538.6	12672.25
831.7383	712.5887	13654.7	12788
831.8832	714.6827	13814	12945.6
832.0281	716.7761	14031.8	13163.75
832.173	718.8688	14254.05	13387.6
832.3179	720.9608	14419.5	13551.35
832.4628	723.0522	14492.45	13619.8
832.6077	725.1429	14442.35	13574.75
832.7527	727.233	14353.3	13485.6
832.8976	729.3224	14303.65	13436.05
833.0425	731.4112	14112.95	13244.7
833.1874	733.4993	13915.3	13046.75
833.3324	735.5867	13692.9	12825.05
833.4773	737.6735	13497.35	12631.35
833.6222	739.7596	13341.2	12472.6
833.7672	741.845	13252	12381.35
833.9122	743.9298	13181.3	12311.7
834.0571	746.014	13141.6	12273.85
834.2021	748.0974	13142.9	12272.75
834.347	750.1802	13130.4	12259.5
834.492	752.2624	13113.75	12244.25
834.637	754.3439	13165.4	12296.8
834.782	756.4247	13251.65	12372.95
834.9269	758.5048	13376	12508.05
835.0719	760.5843	13626.2	12755.9
835.2169	762.6631	13981.2	13110.35
835.3619	764.7413	14477.35	13608
835.5069	766.8188	15140.35	14268.5
835.6519	768.8956	15656.55	14785.4
835.7969	770.9718	16018.1	15151.75
835.9419	773.0473	15893.3	15023.9
836.0869	775.1221	15577.1	14709.75
836.232	777.1962	15242.55	14373.25
836.377	779.2697	15100.5	14230.3
836.522	781.3426	15135.05	14252.9
836.667	783.4147	15263.75	14390.2
836.8121	785.4862	15418.4	14550.5
836.9571	787.557	15317.15	14444.1
837.1021	789.6271	14904.75	14032.4
837.2472	791.6966	14299.35	13428.6
837.3922	793.7654	13697.3	12826.05
837.5373	795.8335	13285.95	12414.85
837.6823	797.901	13010.5	12140.3
837.8274	799.9678	12888.35	12011.8
837.9724	802.0339	12803.8	11932.5
838.1175	804.0993	12803.85	11924.4
838.2626	806.1641	12757.05	11883.7
838.4076	808.2282	12683.6	11809.65
838.5527	810.2916	12564.05	11688.15
838.6978	812.3544	12525.8	11653.1
838.8428	814.4164	12434.25	11562.6
838.9879	816.4778	12445.75	11573.85
839.133	818.5385	12461.25	11587.5
839.2781	820.5986	12545.05	11672.85
839.4232	822.658	12714.8	11842.05
839.5682	824.7166	12938	12065.55
839.7133	826.7747	13341	12470.1
839.8584	828.832	13727.5	12855.15
840.0035	830.8886	13991.8	13114.4
840.1486	832.9446	14161.7	13288.6
840.2937	834.9999	14059.1	13187.5
840.4388	837.0545	13852.9	12974.6
840.5839	839.1085	13643.45	12767.9
840.729	841.1618	13423.1	12544.95
840.8741	843.2143	13253.05	12380.1
841.0192	845.2662	13075.5	12202.15
841.1643	847.3175	12954.6	12080.2
841.3095	849.368	12829.9	11955.15
841.4546	851.4179	12711.1	11837.5
841.5997	853.467	12578.85	11703.65
841.7448	855.5155	12498.9	11623.5
841.8899	857.5633	12409.7	11537.9
842.0351	859.6105	12278.95	11404.3
842.1802	861.6569	12186.75	11315.2
842.3253	863.7027	12146.85	11270.75
842.4704	865.7478	12089.2	11212.35
842.6156	867.7922	12047.25	11170.5
842.7607	869.8359	12027.15	11149.05
842.9058	871.8789	12082.85	11205.65
843.0509	873.9212	12205.4	11295
843.1961	875.9629	12293.1	11419
843.3412	878.0039	12420.85	11543.25
843.4863	880.0441	12528.3	11651.25
843.6315	882.0837	12531.5	11655.7
843.7766	884.1226	12486.9	11609.3
843.9218	886.1609	12475.6	11601.05
844.0669	888.1984	12500.8	11624.2
844.212	890.2352	12574.35	11698.35
844.3572	892.2714	12519.5	11637.1
844.5023	894.3069	12453.05	11575.35
844.6475	896.3416	12323.5	11445.45
844.7926	898.3757	12219.55	11342.35
844.9377	900.4091	12155.2	11277.55
845.0829	902.4418	12152.2	11270.5
845.228	904.4739	12143.95	11261.7
845.3732	906.5052	12193.1	11315.8
845.5183	908.5358	12117.4	11240.7
845.6635	910.5658	11989.3	11109.25
845.8086	912.595	11785.45	10907.1
845.9538	914.6236	11559.25	10681.6
846.0989	916.6515	11443.55	10566.85
846.2441	918.6786	11385.55	10506.5
846.3892	920.7051	11407	10526.6
846.5344	922.7309	11469.7	10591.7
846.6795	924.756	11477.65	10599.25
846.8246	926.7804	11556.55	10679.45
846.9698	928.8041	11505.4	10625
847.1149	930.8272	11553.8	10676.7
847.2601	932.8495	11498.25	10618.6
847.4052	934.8711	11467.6	10588.25
847.5504	936.892	11380.35	10500.9
847.6955	938.9123	11278.9	10402.85
847.8407	940.9318	11277.55	10399.2
847.9858	942.9506	11205.4	10328.1
848.131	944.9688	11135	10253.95
848.2761	946.9862	11005.8	10128.95
848.4213	949.003	10898.05	10018.65
848.5664	951.019	10829.75	9948.05
848.7115	953.0344	10792.05	9913.6
848.8567	955.0491	10778.3	9899.05
849.0018	957.063	10830.4	9952.1
849.147	959.0763	10887	10005.2
849.2921	961.0888	10957.15	10077.8
849.4373	963.1007	10981.55	10103.95
849.5824	965.1119	11022.75	10140.9
849.7275	967.1223	11013.9	10134.45
849.8727	969.1321	11000.35	10118.8
850.0178	971.1412	11002.6	10120.4
850.1629	973.1495	10988.5	10110.85
850.3081	975.1572	11008.2	10094.3
850.4532	977.1641	11009.15	10129.5
850.5983	979.1704	10994	10112.7
850.7435	981.1759	10945.05	10060.8
850.8886	983.1808	10952.85	10074.1
851.0337	985.1849	10998.75	10107.05
851.1788	987.1884	11088	10205.4
851.324	989.1911	11197.3	10312.35
851.4691	991.1932	11289	10407.7
851.6142	993.1945	11334.05	10455.05
851.7593	995.1951	11259.55	10377.7
851.9045	997.1951	11257.7	10371.6
852.0496	999.1943	11179.55	10300.7
852.1947	1001.1928	11142.5	10261.95
852.3398	1003.1906	11152.7	10272.15
852.4849	1005.1877	11268.6	10387.7
852.63	1007.1841	11275.2	10394.7
852.7751	1009.1798	11270.75	10390.5
852.9202	1011.1748	11156.25	10274.55
853.0653	1013.1691	10948.6	10069.3
853.2104	1015.1627	10743.45	9863.1
853.3555	1017.1556	10548.1	9668.45
853.5006	1019.1477	10426	9542.95
853.6457	1021.1392	10317.3	9436.95
853.7908	1023.1299	10300.75	9422.45
853.9359	1025.12	10306.25	9421.45
854.081	1027.1093	10333.75	9452.9
854.2261	1029.0979	10425.5	9544.45
854.3712	1031.0859	10508.7	9630.4
854.5163	1033.0731	10511.05	9628.5
854.6613	1035.0596	10453.4	9574.85
854.8064	1037.0454	10308.8	9425.5
854.9515	1039.0304	10187.55	9307.1
855.0965	1041.0148	10078.05	9197.15
855.2416	1042.9985	9942	9061
855.3867	1044.9814	9905.15	9025.25
855.5317	1046.9636	9843.95	8961.35
855.6768	1048.9452	9825.85	8944.8
855.8219	1050.926	9871.4	8991.4
855.9669	1052.9061	9863	8985.2
856.112	1054.8855	9859.6	8979.45
856.257	1056.8642	9898.35	9015.2
856.4021	1058.8421	9926.4	9044.75
856.5471	1060.8194	9967.3	9086.35
856.6921	1062.7959	10006.9	9124.25
856.8372	1064.7717	10023.85	9142.6
856.9822	1066.7469	10093.05	9211.8
857.1272	1068.7213	10113.35	9228.35
857.2723	1070.695	10164.35	9278.85
857.4173	1072.6679	10150	9267.3
857.5623	1074.6402	10123.25	9241
857.7073	1076.6117	10096.85	9208.9
857.8523	1078.5826	10024.4	9139.95
857.9973	1080.5527	9921.8	9038.05
858.1423	1082.5221	9897.4	9016.1
858.2873	1084.4908	9981.9	9102.5
858.4323	1086.4587	10054.3	9167.5
858.5773	1088.426	10157.05	9276.85
858.7223	1090.3925	10129.5	9242.95
858.8673	1092.3584	10124.15	9243.95
859.0123	1094.3235	10057.4	9177.15
859.1573	1096.2879	10051.9	9170.65
859.3022	1098.2515	10131.6	9248.75
859.4472	1100.2145	10260.85	9380.9
859.5922	1102.1767	10410.35	9525.7
859.7371	1104.1382	10595.8	9712.35
859.8821	1106.099	10829.35	9944.05
860.027	1108.0591	11070.3	10187.5
860.172	1110.0185	11163.85	10279.05
860.3169	1111.9771	11247.5	10366.9
860.4619	1113.9351	11121.1	10235.8
860.6068	1115.8923	10905.35	10025.35
860.7517	1117.8488	10711.25	9826.25
860.8967	1119.8045	10469.25	9587.15
861.0416	1121.7596	10320.7	9437.15
861.1865	1123.7139	10227.45	9345.5
861.3314	1125.6675	10196.2	9313.95
861.4763	1127.6204	10221.65	9338.2
861.6212	1129.5726	10197.5	9313.1
861.7661	1131.524	10134.35	9252.05
861.911	1133.4748	10013.6	9132.15
862.0559	1135.4248	9880.2	8996.6
862.2008	1137.3741	9776.95	8895.8
862.3457	1139.3226	9701.05	8816.95
862.4905	1141.2705	9624	8740.35
862.6354	1143.2176	9541.05	8652.25
862.7803	1145.164	9515.05	8628.45
862.9251	1147.1097	9465.9	8580.95
863.07	1149.0546	9390.9	8507.85
863.2148	1150.9989	9305.7	8423.65
863.3597	1152.9424	9170.3	8287.5
863.5045	1154.8852	9043.6	8161.5
863.6493	1156.8272	8987.5	8103.6
863.7942	1158.7686	8977.75	8089.1
863.939	1160.7092	8968.7	8085.5
864.0838	1162.6491	8976.4	8092.6
864.2286	1164.5883	9050.7	8167.65
864.3734	1166.5267	9177.5	8294.3
864.5182	1168.4644	9297.45	8412.4
864.663	1170.4014	9505.1	8620.75
864.8078	1172.3377	9742.8	8859.65
864.9526	1174.2732	10007.6	9123.75
865.0974	1176.2081	10344.6	9461.6
865.2421	1178.1421	10773.4	9886.45
865.3869	1180.0755	11160.4	10277.4
865.5317	1182.0082	11425.2	10541.25
865.6764	1183.9401	11546.9	10662.65
865.8212	1185.8713	11387.05	10503.3
865.9659	1187.8017	11121.25	10237.95
866.1106	1189.7315	10798.15	9913.8
866.2554	1191.6605	10445.25	9532.45
866.4001	1193.5888	10169.15	9284.95
866.5448	1195.5163	10030.8	9148.85
866.6895	1197.4432	9935.75	9051.45
866.8342	1199.3693	9884.2	9000.4
866.9789	1201.2947	9877.45	8986.35
867.1236	1203.2193	9842.45	8957.85
867.2683	1205.1432	9851.7	8965.75
867.413	1207.0664	9804.15	8921
867.5576	1208.9889	9801.95	8916
867.7023	1210.9106	9821.7	8941.75
867.847	1212.8316	9802.85	8920.15
867.9916	1214.7519	9847.65	8955.9
868.1363	1216.6715	9880.85	8997.6
868.2809	1218.5903	9925.15	9042.8
868.4255	1220.5084	9959.05	9073.9
868.5701	1222.4257	10015.8	9129.9
868.7148	1224.3424	10031.9	9148.3
868.8594	1226.2583	10114.4	9225.3
869.004	1228.1735	10217.8	9330.9
869.1486	1230.0879	10370.15	9485
869.2932	1232.0016	10477.9	9593.85
869.4377	1233.9146	10566.35	9680.7
869.5823	1235.8269	10549	9666.65
869.7269	1237.7384	10465.6	9581.95
869.8715	1239.6492	10269.65	9387.75
870.016	1241.5592	10215.3	9331.65
870.1606	1243.4686	10205.75	9324.05
870.3051	1245.3772	10309.85	9427.85
870.4496	1247.285	10424.55	9541.55
870.5941	1249.1922	10486.8	9601.2
870.7387	1251.0986	10561.5	9679.45
870.8832	1253.0042	10590.85	9707.4
871.0277	1254.9092	10672.75	9787.75
871.1722	1256.8134	10747.95	9865.6
871.3167	1258.7169	10905.35	10019.3
871.4611	1260.6196	11051.35	10167.8
871.6056	1262.5216	11255.55	10369.65
871.7501	1264.4229	11473.2	10590.95
871.8945	1266.3234	11648.3	10761.95
872.039	1268.2232	11768.85	10882.8
872.1834	1270.1223	11809.7	10924.15
872.3278	1272.0207	11799.55	10916.15
872.4723	1273.9183	11770.4	10880.8
872.6167	1275.8151	11669.65	10785.5
872.7611	1277.7113	11641.85	10756.3
872.9055	1279.6067	11643	10757.25
873.0499	1281.5014	11738.05	10852.95
873.1943	1283.3953	11941.5	11054.8
873.3386	1285.2885	12252.4	11368.55
873.483	1287.181	12563.95	11678.5
873.6274	1289.0727	12902.65	12019.8
873.7717	1290.9637	13130.5	12246.3
873.9161	1292.854	13281.25	12398.35
874.0604	1294.7435	13269.75	12385.95
874.2047	1296.6323	13307.8	12422.8
874.349	1298.5204	13289.5	12400.9
874.4933	1300.4077	13215.45	12330.1
874.6376	1302.2943	13137.45	12254.05
874.7819	1304.1802	12974.7	12088.6
874.9262	1306.0653	12635.05	11747.5
875.0705	1307.9497	12276.6	11392.05
875.2147	1309.8333	11963.55	11078.7
875.359	1311.7162	11745.6	10861.3
875.5032	1313.5984	11606.35	10720.1
875.6475	1315.4798	11576.45	10679.3
875.7917	1317.3605	11561.75	10661.5
875.9359	1319.2405	11533.35	10646.05
876.0801	1321.1197	11381.4	10497.55
876.2243	1322.9982	11142.7	10252.4
876.3685	1324.876	10949.85	10063.6
876.5127	1326.753	10750.05	9867.35
876.6569	1328.6293	10622.05	9733.6
876.801	1330.5048	10526	9638.65
876.9452	1332.3796	10403.15	9520.9
877.0893	1334.2537	10354.7	9442.6
877.2335	1336.127	10275.45	9392.3
877.3776	1337.9996	10262.4	9377.15
877.5217	1339.8714	10265.2	9379.95
877.6658	1341.7426	10297.7	9369.45
877.8099	1343.6129	10272.65	9386.4
877.954	1345.4826	10234	9345.1
878.0981	1347.3515	10248.65	9360.1
878.2422	1349.2196	10207.65	9323.65
878.3862	1351.087	10239.05	9351.45
878.5303	1352.9537	10309.65	9425.15
878.6743	1354.8197	10371.3	9486.75
878.8184	1356.6849	10562.6	9676.05
878.9624	1358.5493	10696.55	9812.6
879.1064	1360.4131	10846.15	9961.95
879.2504	1362.276	10915.25	10031.2
879.3944	1364.1383	10880.6	9997.55
879.5384	1365.9998	10701.25	9810.4
879.6823	1367.8606	10337.9	9452.95
879.8263	1369.7206	9980.2	9094.7
879.9702	1371.5799	9683.1	8796.65
880.1142	1373.4384	9447	8561.2
880.2581	1375.2962	9233.05	8346.05
880.402	1377.1533	8950.2	8064.85
880.5459	1379.0096	8581.95	7697.75
880.6898	1380.8652	8259.55	7372.2
880.8337	1382.7201	7990.6	7104.8
880.9776	1384.5742	7768.8	6882
881.1215	1386.4275	7571.85	6684.9
881.2653	1388.2802	7437.15	6552.6
881.4092	1390.132	7326.2	6441.45
881.553	1391.9832	7255.7	6371.05
881.6968	1393.8336	7200.9	6314.5
881.8406	1395.6832	7156.9	6270.5
881.9844	1397.5322	7077.85	6191.8
882.1282	1399.3803	7089.65	6198.55
882.272	1401.2278	7037.8	6151.25
882.4158	1403.0745	7035.2	6149.65
882.5595	1404.9204	7011.7	6126.95
882.7033	1406.7656	7045.05	6159.15
882.847	1408.6101	7074.55	6188.1
882.9908	1410.4538	7091.45	6205.95
883.1345	1412.2968	7149	6264.4
883.2782	1414.139	7200.25	6314.9
883.4219	1415.9805	7289.25	6404.45
883.5656	1417.8213	7367.7	6474.2
883.7092	1419.6613	7466.9	6583.05
883.8529	1421.5006	7633	6746.5
883.9965	1423.3391	7848.55	6961.15
884.1402	1425.1769	8155.5	7269.9
884.2838	1427.0139	8588.3	7702.75
884.4274	1428.8502	9120	8232.65
884.571	1430.6858	9685.75	8801.45
884.7146	1432.5206	10065.5	9178.55
884.8582	1434.3547	10299.55	9414.65
885.0018	1436.188	10298.85	9414.45
885.1453	1438.0206	10239.85	9352.85
885.2889	1439.8524	10070.7	9186
885.4324	1441.6835	9936.7	9050.25
885.5759	1443.5139	9876.65	8986.7
885.7194	1445.3435	9771.7	8886.75
885.8629	1447.1724	9735.8	8849.25
886.0064	1449.0005	9668.25	8783.5
886.1499	1450.8279	9593.95	8706.4
886.2933	1452.6545	9579.85	8693.45
886.4368	1454.4804	9620.9	8738
886.5802	1456.3056	9602.35	8709.4
886.7237	1458.13	9529.4	8646.2
886.8671	1459.9536	9355.55	8469.75
887.0105	1461.7766	9088.1	8203.5
887.1539	1463.5987	8715.1	7827.35
887.2972	1465.4202	8354.2	7468.25
887.4406	1467.2409	8030.55	7144.55
887.584	1469.0608	7747.4	6863.6
887.7273	1470.88	7490.95	6604.7
887.8706	1472.6984	7271.45	6385.5
888.0139	1474.5161	7090.15	6202.25
888.1572	1476.3331	6939.05	6055.5
888.3005	1478.1493	6801.3	5914.7
888.4438	1479.9648	6743.1	5858.65
888.5871	1481.7795	6640.3	5755.5
888.7303	1483.5935	6567.4	5681.2
888.8736	1485.4067	6507.9	5622.05
889.0168	1487.2192	6456.2	5570.55
889.16	1489.031	6413.45	5523.35
889.3032	1490.842	6382.6	5497.4
889.4464	1492.6522	6336.95	5452.55
889.5896	1494.4618	6297.65	5412.05
889.7327	1496.2705	6266.75	5382.4
889.8759	1498.0785	6230.6	5343.85
890.019	1499.8858	6176.85	5293.05
890.1622	1501.6924	6174.35	5288.9
890.3053	1503.4981	6134	5250.35
890.4484	1505.3032	6101.1	5216.8
890.5914	1507.1075	6068.35	5181.3
890.7345	1508.911	6045.65	5158.8
890.8776	1510.7138	6005.9	5120
891.0206	1512.5159	5953.3	5068.9
891.1637	1514.3172	5921.7	5036.4
891.3067	1516.1178	5861.05	4975.4
891.4497	1517.9176	5848.2	4959.8
891.5927	1519.7166	5816.45	4931.85
891.7357	1521.515	5813.3	4920.1
891.8786	1523.3126	5761.6	4875.9
892.0216	1525.1094	5751.7	4867.65
892.1645	1526.9055	5711.85	4828.25
892.3074	1528.7008	5699.35	4816.2
892.4503	1530.4954	5663.6	4777.25
892.5932	1532.2893	5665.05	4782.4
892.7361	1534.0824	5652.85	4764
892.879	1535.8747	5648.15	4762.45
893.0218	1537.6663	5624.4	4738.35
893.1647	1539.4572	5625.8	4737.65
893.3075	1541.2473	5629.65	4742.8
893.4503	1543.0367	5626.95	4742.75
893.5931	1544.8253	5644.1	4753.6
893.7359	1546.6132	5655.35	4767.85
893.8787	1548.4003	5677.05	4784.5
894.0214	1550.1867	5716.4	4821.95
894.1642	1551.9723	5729.25	4837.9
894.3069	1553.7572	5823.4	4937.6
894.4496	1555.5414	5902.6	5019.25
894.5923	1557.3247	5997.8	5112.7
894.735	1559.1074	6130.75	5245.8
894.8777	1560.8893	6267.6	5385.35
895.0204	1562.6705	6395.65	5512
895.163	1564.4509	6509.3	5625.7
895.3056	1566.2305	6594.35	5709.4
895.4482	1568.0094	6625.7	5741.35
895.5908	1569.7876	6640.65	5755.6
895.7334	1571.565	6659.05	5772.9
895.876	1573.3417	6637.8	5752.5
896.0186	1575.1176	6616	5731.3
896.1611	1576.8928	6582.7	5697.6
896.3036	1578.6672	6546	5663.65
896.4461	1580.4409	6518.55	5635.15
896.5886	1582.2138	6495.9	5609.6
896.7311	1583.986	6499.7	5616.4
896.8736	1585.7575	6531.25	5646.55
897.0161	1587.5282	6535.3	5654.15
897.1585	1589.2981	6593.2	5706.7
897.3009	1591.0673	6638.35	5754.8
897.4433	1592.8358	6726.65	5844
897.5857	1594.6035	6779.2	5892.4
897.7281	1596.3704	6830.6	5945.35
897.8705	1598.1366	6901	6016.8
898.0128	1599.9021	6984.9	6101.4
898.1551	1601.6668	7087.3	6201.55
898.2975	1603.4308	7197.65	6310.5
898.4398	1605.194	7336.25	6446.85
898.5821	1606.9564	7495.9	6612.35
898.7243	1608.7182	7721.05	6831.45
898.8666	1610.4791	7961.45	7076.95
899.0088	1612.2394	8213.55	7330.05
899.1511	1613.9988	8474.6	7591.15
899.2933	1615.7576	8741.1	7856.85
899.4355	1617.5156	8946.7	8057.95
899.5776	1619.2728	9045.15	8161.8
899.7198	1621.0293	9062.8	8180.15
899.862	1622.785	8974.65	8085.55
900.0041	1624.54	8734.55	7845.5
900.1462	1626.2942	8473.5	7589
900.2883	1628.0477	8172.9	7285.7
900.4304	1629.8005	7856.6	6968.75
900.5725	1631.5525	7583.95	6699.4
900.7145	1633.3037	7369.95	6486.85
900.8566	1635.0542	7185.9	6301.1
900.9986	1636.804	7051	6167.15
901.1406	1638.553	7021.15	6079.75
901.2826	1640.3013	6934.8	6052.35
901.4245	1642.0488	6896.6	6011.15
901.5665	1643.7955	6902.35	6019.7
901.7085	1645.5416	6984.6	6101.6
901.8504	1647.2868	7080.5	6197.15
901.9923	1649.0313	7183.3	6299.8
902.1342	1650.7751	7333.3	6445.3
902.2761	1652.5181	7486.5	6603.3
902.4179	1654.2604	7656.85	6773.65
902.5598	1656.0019	7911.25	7027.75
902.7016	1657.7427	8164.45	7279.45
902.8434	1659.4828	8427.4	7545.1
902.9852	1661.222	8583.9	7699.25
903.127	1662.9606	8595.65	7716.2
903.2687	1664.6984	8360.05	7474.9
903.4105	1666.4354	7943.4	7058.95
903.5522	1668.1717	7393.8	6511.15
903.6939	1669.9072	6859.5	5976.25
903.8356	1671.642	6385.55	5502.85
903.9773	1673.3761	6026.25	5143
904.119	1675.1094	5730.25	4847.1
904.2606	1676.8419	5511.05	4628.1
904.4022	1678.5737	5298.75	4416.7
904.5439	1680.3048	5177.2	4294.8
904.6855	1682.0351	5056.75	4172.7
904.827	1683.7646	4948.15	4062.3
904.9686	1685.4934	4863.85	3980.8
905.1101	1687.2215	4822.45	3937.5
905.2517	1688.9488	4762.75	3879.25
905.3932	1690.6754	4706	3823.7
905.5347	1692.4012	4672.65	3790.05
905.6761	1694.1263	4614.85	3732.45
905.8176	1695.8506	4588.45	3705.75
905.9591	1697.5742	4553.15	3671.6
906.1005	1699.297	4527.25	3642.8
906.2419	1701.0191	4490.9	3607
906.3833	1702.7404	4455.55	3571.3
906.5246	1704.461	4426.6	3541.8
906.666	1706.1808	4396.55	3512.75
906.8073	1707.8999	4370	3484.5
906.9487	1709.6182	4328.2	3443.05
907.09	1711.3358	4317.1	3433.2
907.2313	1713.0527	4297.7	3414.05
907.3725	1714.7688	4281.95	3391.05
907.5138	1716.4841	4249	3364.75
907.655	1718.1987	4246.15	3357.9
907.7962	1719.9126	4224.85	3341.65
907.9374	1721.6257	4201.1	3317.3
908.0786	1723.338	4196.55	3312.2
908.2198	1725.0496	4153.7	3270.3
908.3609	1726.7605	4159.35	3273.6
908.502	1728.4706	4140.2	3253.95
908.6431	1730.18	4126.85	3240.5
908.7842	1731.8886	4131.8	3247.55
908.9253	1733.5964	4125.8	3239.05
909.0664	1735.3036	4091.9	3205.9
909.2074	1737.0099	4057.05	3174.75
909.3484	1738.7156	4052.6	3172.05
909.4894	1740.4204	4046.05	3157.8
909.6304	1742.1246	4028.05	3143.1
909.7714	1743.8279	3999.2	3114.5
909.9123	1745.5306	3992.9	3107.65
910.0532	1747.2325	3975.2	3092.7
910.1941	1748.9336	3955.4	3072.6
910.335	1750.634	3937.75	3052
910.4759	1752.3336	3930.8	3048.75
910.6168	1754.0325	3911.15	3028.1
910.7576	1755.7307	3902.5	3019.5
910.8984	1757.4281	3893.15	3011.4
911.0392	1759.1247	3902.1	3009.25
911.18	1760.8206	3887.5	3001.2
911.3208	1762.5158	3878.05	2991.2
911.4615	1764.2102	3852.35	2970.75
911.6022	1765.9039	3838.7	2954.3
911.7429	1767.5968	3830.8	2948.1
911.8836	1769.289	3821.55	2935
912.0243	1770.9804	3832.9	2949.05
912.1649	1772.6711	3834.4	2951.05
912.3056	1774.361	3814.8	2933.05
912.4462	1776.0502	3791.1	2910.15
912.5868	1777.7386	3801.85	2915.25
912.7274	1779.4263	3785.8	2904.2
912.8679	1781.1132	3777.6	2894.25
913.0084	1782.7994	3776.7	2890.9
913.149	1784.4849	3751.15	2869.45
913.2895	1786.1696	3757.7	2857.85
913.4299	1787.8535	3753	2868.8
913.5704	1789.5367	3722.3	2837.9
913.7108	1791.2192	3738.5	2855
913.8513	1792.9009	3724	2825.55
913.9917	1794.5818	3713.6	2828.8
914.132	1796.2621	3698.4	2815.95
914.2724	1797.9415	3682.3	2799.6
914.4128	1799.6202	3692.35	2809.25
914.5531	1801.2982	3675.1	2793.05
914.6934	1802.9755	3670.4	2789.5
914.8337	1804.6519	3675.95	2793.6
914.9739	1806.3277	3657.45	2775.7
915.1142	1808.0027	3639.95	2756.2
915.2544	1809.6769	3629	2745.8
915.3946	1811.3504	3627	2741.05
915.5348	1813.0231	3627.6	2743.2
915.675	1814.6951	3611.65	2727.3
915.8151	1816.3664	3637.7	2753.2
915.9553	1818.0369	3610.6	2726.55
916.0954	1819.7067	3593.8	2711.45
916.2355	1821.3757	3610.1	2725.4
916.3755	1823.044	3604.55	2719.6
916.5156	1824.7115	3585.1	2701.85
916.6556	1826.3783	3577.8	2697.15
916.7956	1828.0443	3560.95	2677.7
916.9356	1829.7096	3573.4	2690.35
917.0756	1831.3741	3559.55	2671.9
917.2155	1833.0379	3559.35	2676.2
917.3555	1834.701	3556.9	2670.85
917.4954	1836.3633	3533.4	2648.7
917.6353	1838.0248	3525.25	2641.7
917.7751	1839.6856	3530.85	2647
917.915	1841.3457	3525.7	2644.5
918.0548	1843.005	3518.4	2637.05
918.1946	1844.6636	3522.45	2640.7
918.3344	1846.3214	3504.6	2622.55
918.4742	1847.9785	3505.2	2622.75
918.6139	1849.6349	3498.6	2614.95
918.7537	1851.2904	3498.6	2606.5
918.8934	1852.9453	3483.75	2601.25
919.0331	1854.5994	3469.3	2584
919.1727	1856.2528	3486.6	2600.1
919.3124	1857.9054	3483.5	2599.1
919.452	1859.5572	3462.4	2579.35
919.5916	1861.2083	3458.2	2573.8
919.7312	1862.8587	3461.25	2576.75
919.8708	1864.5084	3449.35	2566
920.0103	1866.1572	3440.6	2561.9
920.1498	1867.8054	3436.7	2555.2
920.2893	1869.4528	3429.5	2546.95
920.4288	1871.0994	3410	2526.25
920.5683	1872.7453	3404.95	2520.25
920.7077	1874.3905	3415.45	2513.6
920.8471	1876.0349	3398.9	2515.2
920.9865	1877.6786	3394.95	2510
921.1259	1879.3215	3396.35	2514
921.2653	1880.9637	3397.7	2514.15
921.4046	1882.6051	3380.2	2500.2
921.5439	1884.2458	3383.3	2498.2
921.6832	1885.8858	3350.6	2466.6
921.8225	1887.525	3348.45	2464.45
921.9617	1889.1634	3343.7	2461.45
922.101	1890.8011	3314.7	2430.95
922.2402	1892.4381	3328.1	2446.5
922.3794	1894.0743	3331.9	2450.75
922.5185	1895.7098	3312	2430.8
922.6577	1897.3446	3326.6	2440.55
922.7968	1898.9786	3315.65	2428.25
922.9359	1900.6118	3291.5	2410.55
923.075	1902.2443	3290.5	2406.5
923.214	1903.8761	3272.2	2388.8
923.3531	1905.5071	3280.3	2393.95
923.4921	1907.1374	3270.75	2387.3
923.6311	1908.7669	3270.8	2388.85
923.77	1910.3957	3263.55	2381.95
923.909	1912.0237	3254.7	2371.65
924.0479	1913.651	3241.05	2355.95
924.1868	1915.2776	3231.1	2348.35
924.3257	1916.9034	3219.8	2336.6
924.4646	1918.5285	3209.8	2328.8
924.6034	1920.1528	3205.9	2320.25
924.7422	1921.7764	3219.35	2335.65
924.881	1923.3992	3200.85	2320.7
925.0198	1925.0213	3187.8	2304.95
925.1586	1926.6427	3161.6	2281.6
925.2973	1928.2633	3259.9	2271.35
925.436	1929.8832	3175.85	2292.35
925.5747	1931.5023	3152.95	2268.5
925.7134	1933.1207	3159.3	2277.65
925.852	1934.7383	3147.95	2265.1
925.9906	1936.3552	3131.5	2248.4
926.1292	1937.9714	3138.3	2254.45
926.2678	1939.5868	3117.9	2234.05
926.4064	1941.2015	3117.9	2234.65
926.5449	1942.8154	3101.4	2218.15
926.6834	1944.4286	3089.25	2205.55
926.8219	1946.041	3104.4	2197.35
926.9604	1947.6528	3076.2	2188.05
927.0988	1949.2637	3068.55	2185.85
927.2372	1950.8739	3056.1	2172.3
927.3756	1952.4834	3069.95	2187.35
927.514	1954.0921	3060.05	2176
927.6523	1955.7001	3042.7	2155.3
927.7907	1957.3074	3028.65	2145.05
927.929	1958.9139	3019.8	2136.8
928.0673	1960.5197	3013	2128.45
928.2055	1962.1247	3004	2121.8
928.3438	1963.729	2993.05	2112.1
928.482	1965.3325	3012.6	2104.4
928.6202	1966.9353	2973.2	2091.2
928.7584	1968.5374	2968.1	2083.45
928.8965	1970.1387	2973.75	2091.3
929.0346	1971.7393	2969.8	2086.45
929.1727	1973.3392	2951.25	2067.55
929.3108	1974.9383	2930.5	2050.9
929.4489	1976.5366	2945.65	2061.15
929.5869	1978.1342	2942.05	2058.4
929.7249	1979.7311	2947.45	2064.2
929.8629	1981.3273	2927.35	2041.25
930.0009	1982.9227	2918.95	2031.8
930.1388	1984.5173	2909.1	2027.3
930.2767	1986.1112	2901.65	2020.05
930.4146	1987.7044	2912.6	2031.55
930.5525	1989.2968	2896.75	2012.5
930.6904	1990.8885	2900.95	2015.55
930.8282	1992.4795	2881.65	1998.25
930.966	1994.0697	2869.9	1984.55
931.1038	1995.6592	2881.05	1998.5
931.2415	1997.2479	2858.5	1974.3
931.3793	1998.8359	2850.25	1966.75
931.517	2000.4232	2853.05	1969.65
931.6547	2002.0097	2833.8	1951.15
931.7923	2003.5955	2838.1	1953.45
931.93	2005.1805	2832.7	1948.5
932.0676	2006.7648	2832.4	1948.3
932.2052	2008.3484	2819.95	1934.45
932.3427	2009.9312	2839.1	1953.95
932.4803	2011.5133	2824.05	1943.3
932.6178	2013.0946	2817	1934.15
932.7553	2014.6752	2816.25	1933.2
932.8928	2016.2551	2816.5	1931.35
933.0302	2017.8342	2798.6	1915.35
933.1676	2019.4126	2790.4	1906.2
933.305	2020.9902	2785.25	1902.75
933.4424	2022.5672	2797.45	1914.4
933.5798	2024.1433	2777.9	1889.75
933.7171	2025.7188	2771.3	1889.3
933.8544	2027.2935	2759.8	1874.55
933.9917	2028.8674	2762.1	1881.25
934.129	2030.4406	2745.1	1859.75
934.2662	2032.0131	2753.8	1873.05
934.4034	2033.5849	2733.35	1844.85
934.5406	2035.1559	2741.8	1859.35
934.6778	2036.7261	2733.15	1850.5
934.8149	2038.2957	2728.05	1845.95
934.952	2039.8645	2716.35	1834.45
935.0891	2041.4325	2727.8	1841.8
935.2262	2042.9998	2710.5	1828.3
935.3632	2044.5664	2725.25	1838.75
935.5002	2046.1323	2709	1827.95
935.6372	2047.6974	2699.75	1817.8
935.7742	2049.2617	2683.2	1802.25
935.9111	2050.8254	2722	1804.65
936.048	2052.3883	2688.8	1806.25
936.1849	2053.9504	2684.45	1800
936.3218	2055.5118	2672.9	1787.9
936.4586	2057.0725	2660.2	1772.8
936.5955	2058.6325	2668.1	1786.1
936.7323	2060.1917	2660.8	1777.05
936.869	2061.7502	2661	1774.65
937.0058	2063.3079	2652.45	1769.55
937.1425	2064.8649	2648.8	1762
937.2792	2066.4212	2648.45	1765.5
937.4159	2067.9767	2632.7	1750.7
937.5525	2069.5315	2638.05	1754.4
937.6891	2071.0856	2621.45	1738.65
937.8257	2072.6389	2614	1727.7
937.9623	2074.1915	2615.2	1732.35
938.0989	2075.7433	2595.8	1710.15
938.2354	2077.2945	2596.4	1714.55
938.3719	2078.8448	2584.6	1703.45
938.5084	2080.3945	2582.85	1698.9
938.6448	2081.9434	2575.1	1692.6
938.7812	2083.4916	2583.25	1701.7
938.9176	2085.039	2570.95	1686
939.054	2086.5857	2571.5	1688.2
939.1903	2088.1317	2555.25	1671.3
939.3267	2089.677	2551.1	1667.9
939.463	2091.2215	2547.95	1664.35
939.5992	2092.7652	2559.75	1674.2
939.7355	2094.3083	2537.35	1652.75
939.8717	2095.8506	2532.05	1649.8
940.0079	2097.3921	2542.55	1658.6
940.1441	2098.933	2528.7	1645.85
940.2802	2100.4731	2529.95	1647.9
940.4163	2102.0124	2561.55	1659.8
940.5524	2103.5511	2527.8	1644.85
940.6885	2105.089	2527.25	1644.4
940.8245	2106.6261	2523.55	1641.7
940.9606	2108.1626	2518.7	1633.35
941.0965	2109.6983	2532.15	1623.05
941.2325	2111.2332	2515.65	1634.7
941.3684	2112.7675	2513.85	1629.8
941.5044	2114.301	2505.8	1620.6
941.6403	2115.8337	2498.15	1614.4
941.7761	2117.3657	2480.7	1595.7
941.912	2118.897	2484.2	1599.35
942.0478	2120.4276	2483.25	1592.25
942.1835	2121.9575	2469.85	1587.2
942.3193	2123.4866	2481.35	1585.25
942.455	2125.0149	2474.05	1588.15
942.5907	2126.5426	2454.7	1571.45
942.7264	2128.0695	2449.6	1561.75
942.8621	2129.5956	2450.3	1568.55
942.9977	2131.1211	2449.15	1558.45
943.1333	2132.6458	2450.75	1568.35
943.2689	2134.1698	2440.95	1559.2
943.4044	2135.693	2437.45	1552.1
943.54	2137.2155	2447.5	1561.45
943.6755	2138.7373	2430.3	1546.45
943.8109	2140.2584	2420.2	1536.75
943.9464	2141.7787	2415.8	1526.75
944.0818	2143.2983	2407.7	1524.45
944.2172	2144.8171	2403.45	1519.55
944.3526	2146.3353	2416.65	1531.7
944.4879	2147.8527	2391.1	1511
944.6232	2149.3693	2396.55	1514.25
944.7585	2150.8853	2395.85	1513.8
944.8938	2152.4005	2375.05	1491.45
945.029	2153.9149	2379.45	1495.8
945.1642	2155.4287	2368.75	1484.55
945.2994	2156.9417	2380.55	1496.85
945.4346	2158.454	2375	1488.15
945.5697	2159.9655	2365.85	1481.25
945.7048	2161.4764	2368.15	1483.65
945.8399	2162.9865	2354.75	1470.45
945.9749	2164.4958	2357.8	1474.15
946.1099	2166.0045	2355.5	1470.9
946.2449	2167.5124	2351.8	1471.9
946.3799	2169.0195	2346.85	1463.2
946.5148	2170.526	2342.9	1458.2
946.6498	2172.0317	2340.05	1455.8
946.7846	2173.5367	2335.5	1451.7
946.9195	2175.0409	2340.55	1457.15
947.0543	2176.5445	2336.1	1452.15
947.1891	2178.0473	2325.15	1441.65
947.3239	2179.5494	2324.6	1436.95
947.4587	2181.0507	2310.15	1429
947.5934	2182.5513	2312.25	1428.6
947.7281	2184.0512	2317.7	1435.05
947.8628	2185.5504	2309.6	1424.25
947.9974	2187.0488	2292.05	1406.95
948.132	2188.5465	2286.55	1402.25
948.2666	2190.0435	2285.95	1401.35
948.4012	2191.5397	2291.4	1410.35
948.5357	2193.0353	2284.7	1401.35
948.6702	2194.5301	2271.7	1389.45
948.8047	2196.0241	2262.4	1381.85
948.9392	2197.5175	2276.2	1391.75
949.0736	2199.0101	2272.9	1386.7
949.208	2200.502	2253.3	1370.95
949.3424	2201.9931	2243	1359.25
949.4767	2203.4835	2249.3	1364.7
949.611	2204.9733	2244	1352.5
949.7453	2206.4622	2242.05	1359.2
949.8796	2207.9505	2230.5	1344.55
950.0138	2209.438	2226.15	1343
950.148	2210.9248	2223.45	1338.3
950.2822	2212.4109	2210.95	1328.85
950.4164	2213.8962	2224.35	1338.5
950.5505	2215.3809	2222.35	1340.55
950.6846	2216.8648	2211.7	1327.75
950.8186	2218.3479	2209.25	1323.35
950.9527	2219.8304	2200.65	1316.15
951.0867	2221.3121	2205.8	1320.5
951.2207	2222.7931	2195.1	1312.85
951.3546	2224.2733	2197.8	1313.35
951.4886	2225.7529	2183.65	1300.8
951.6225	2227.2317	2181.7	1294.85
951.7563	2228.7098	2182.3	1298.35
951.8902	2230.1872	2178.25	1292.95
952.024	2231.6638	2174.95	1291
952.1578	2233.1397	2163.9	1274.8
952.2916	2234.6149	2162.05	1278.55
952.4253	2236.0894	2160.45	1276.15
952.559	2237.5632	2164.75	1270.35
952.6927	2239.0362	2141.4	1256.75
952.8263	2240.5085	2152.4	1269
952.9599	2241.9801	2139.5	1255.35
953.0935	2243.4509	2136	1252.45
953.2271	2244.921	2122.3	1241.95
953.3606	2246.3904	2128.15	1242.05
953.4941	2247.8591	2130.95	1248.65
953.6276	2249.3271	2115.4	1232.85
953.7611	2250.7943	2116.2	1233.55
953.8945	2252.2608	2100.45	1217.6
954.0279	2253.7266	2101.8	1218.7
954.1612	2255.1917	2094.4	1212.6
954.2946	2256.656	2093.85	1209.55
954.4279	2258.1197	2100.25	1217.25
954.5612	2259.5826	2096.5	1209.7
954.6944	2261.0447	2088.85	1206.9
954.8276	2262.5062	2078.25	1192.9
954.9608	2263.9669	2088.95	1202.35
955.094	2265.4269	2071.75	1188.8
955.2271	2266.8862	2073.95	1191.2
955.3602	2268.3448	2070.9	1187.15
955.4933	2269.8026	2078.8	1194.65
955.6264	2271.2598	2071.3	1187.8
955.7594	2272.7162	2065.3	1184.75
955.8924	2274.1719	2062.9	1178.75
956.0253	2275.6268	2053.85	1170.9
956.1583	2277.0811	2057.3	1172.25
956.2912	2278.5346	2061.15	1177.85
956.4241	2279.9874	2057.6	1173.45
956.5569	2281.4395	2044.5	1160.9
956.6897	2282.8908	2056.8	1168.4
956.8225	2284.3414	2041.2	1156.2
956.9553	2285.7914	2036.35	1152.15
957.088	2287.2406	2037.5	1151.5
957.2207	2288.689	2036.7	1153
957.3534	2290.1368	2023.8	1141.35
957.486	2291.5838	2030.15	1143.7
957.6186	2293.0302	2032.1	1147.15
957.7512	2294.4758	2021.85	1138.6
957.8838	2295.9206	2013.8	1129.05
958.0163	2297.3648	2016.05	1133.3
958.1488	2298.8082	2012.85	1128.25
958.2813	2300.251	2004.45	1120.5
958.4137	2301.693	2003.3	1118.35
958.5461	2303.1343	2001.65	1117.5
958.6785	2304.5748	2007.6	1123.55
958.8108	2306.0147	1999.75	1115.45
958.9432	2307.4538	1989.9	1103.5
959.0754	2308.8922	1983.6	1102.75
959.2077	2310.3299	1971.9	1089.35
959.3399	2311.7669	1984.65	1100.9
959.4721	2313.2031	1983.4	1098.1
959.6043	2314.6387	1971.8	1091.25
959.7365	2316.0735	1969.75	1087.45
959.8686	2317.5076	1972.35	1088.55
960.0006	2318.941	1968.7	1086.45
960.1327	2320.3737	1965	1080.95
960.2647	2321.8056	1955.05	1069.75
960.3967	2323.2369	1957.35	1074.35
960.5287	2324.6674	1954.7	1066.6
960.6606	2326.0972	1950.8	1066.35
960.7925	2327.5263	1959.65	1076.5
960.9244	2328.9547	1937.8	1054.05
961.0562	2330.3823	1942.05	1059.05
961.1881	2331.8092	1937	1052.3
961.3198	2333.2355	1936.25	1053
961.4516	2334.661	1931.9	1048.2
961.5833	2336.0858	1928.25	1045.95
961.715	2337.5098	1927.45	1041.85
961.8467	2338.9332	1928.1	1045
961.9783	2340.3558	1921.5	1032.5
962.1099	2341.7778	1922.7	1037.75
962.2415	2343.199	1916.85	1031
962.373	2344.6195	1925.75	1043.15
962.5045	2346.0393	1916.5	1033.95
962.636	2347.4583	1907.9	1022.7
962.7675	2348.8767	1905.6	1022.45
962.8989	2350.2943	1904.25	1020.9
963.0303	2351.7113	1917.9	1033.2
963.1617	2353.1275	1903.7	1018.9
963.293	2354.543	1933.25	1024.85
963.4243	2355.9578	1899.75	1016.55
963.5556	2357.3718	1885.35	1002.75
963.6868	2358.7852	1891.1	1004.25
963.818	2360.1978	1888.85	1003.65
963.9492	2361.6098	1886.35	1002.65
964.0803	2363.021	1885.15	998.75
964.2114	2364.4315	1876.2	991.3
964.3425	2365.8413	1881.6	997.85
964.4736	2367.2504	1881.25	999.5
964.6046	2368.6587	1872.95	989.2
964.7356	2370.0664	1874.15	990.25
964.8666	2371.4733	1869.8	987.7
964.9975	2372.8795	1857.4	973.4
965.1284	2374.285	1853.4	971.45
965.2593	2375.6899	1854.3	972.55
965.3901	2377.0939	1849.55	965.75
965.5209	2378.4973	1848.4	967.1
965.6517	2379.9	1843.5	961.85
965.7825	2381.3019	1832.4	949
965.9132	2382.7032	1837.75	955.05
966.0439	2384.1037	1834.35	951.75
966.1745	2385.5035	1834.05	952.1
966.3051	2386.9027	1828.05	945.2
966.4357	2388.3011	1835	949.4
966.5663	2389.6987	1828.7	945.7
966.6968	2391.0957	1822.7	941.65
966.8273	2392.492	1811.2	929.9
966.9578	2393.8876	1813.7	930.4
967.0882	2395.2824	1806.25	921.75
967.2186	2396.6765	1803.65	921.7
967.349	2398.07	1801.4	920.05
967.4793	2399.4627	1792.3	907.25
967.6097	2400.8547	1793.05	910.1
967.7399	2402.246	1794.9	905.5
967.8702	2403.6366	1783.9	901.4
968.0004	2405.0265	1788.15	906
968.1306	2406.4156	1782.25	894.45
968.2607	2407.8041	1778.4	894.8
968.3909	2409.1918	1785.95	901.3
968.521	2410.5789	1782.5	899.85
968.651	2411.9652	1783.15	897.1
968.781	2413.3508	1773.95	890.55
968.911	2414.7358	1765.8	882.2
969.041	2416.12	1767.15	884.15
969.1709	2417.5035	1759.15	877.9
969.3008	2418.8863	1763	879.05
969.4307	2420.2684	1760.65	878.9
969.5606	2421.6497	1761.75	878.1
969.6904	2423.0304	1755.2	871.5
969.8201	2424.4104	1754.8	870.8
969.9499	2425.7896	1754.2	870.15
970.0796	2427.1682	1754.6	870.35
970.2093	2428.546	1748.05	863.15
970.3389	2429.9232	1740.65	854.95
970.4685	2431.2996	1735.95	854.65
970.5981	2432.6753	1728.85	845.7
970.7277	2434.0503	1737.3	853.35
970.8572	2435.4246	1729.15	848.65
970.9867	2436.7982	1725.55	839.15
971.1161	2438.1711	1727.9	848.4
971.2456	2439.5433	1727.95	841.9
971.375	2440.9148	1726.3	837.5
971.5043	2442.2856	1713	831
971.6336	2443.6557	1713.15	827.7
971.7629	2445.025	1709.35	826.9
971.8922	2446.3937	1711.85	827.45
972.0214	2447.7617	1704.8	822.55
972.1506	2449.1289	1694.5	811.3
972.2798	2450.4955	1709.9	823.85
972.4089	2451.8613	1704.05	822.6
972.538	2453.2265	1705.6	822.1
972.6671	2454.5909	1694.25	810.25
972.7961	2455.9546	1700.95	820.55
972.9251	2457.3177	1691.5	810.9
973.0541	2458.68	1698.75	814.85
973.1831	2460.0416	1690.05	806.65
973.312	2461.4025	1695.65	811.6
973.4408	2462.7627	1686.3	792.85
973.5697	2464.1222	1687.4	805.7
973.6985	2465.4811	1681.8	796.3
973.8273	2466.8392	1683.2	800.25
973.956	2468.1966	1679.55	795.1
974.0847	2469.5533	1686.3	803.4
974.2134	2470.9093	1672.1	788.35
974.3421	2472.2645	1672.9	789
974.4707	2473.6191	1664.65	782.8
974.5993	2474.973	1679.25	796.75
974.7278	2476.3262	1669.4	785.3
974.8563	2477.6787	1668.45	786.05
974.9848	2479.0305	1666.6	784.4
975.1132	2480.3816	1668.95	783.75
975.2417	2481.7319	1671.15	789.8
975.37	2483.0816	1664.6	780.15
975.4984	2484.4306	1654.4	771
975.6267	2485.7789	1657.8	775.15
975.755	2487.1264	1654.9	771.8
975.8833	2488.4733	1644.05	762.5
976.0115	2489.8195	1659.9	760.3
976.1397	2491.165	1645.3	758.5
976.2678	2492.5097	1637.45	753.65
976.3959	2493.8538	1629.15	747.7
976.524	2495.1972	1628.3	742.9
976.6521	2496.5398	1627.7	743.6
976.7801	2497.8818	1633.45	748.45
976.9081	2499.2231	1622.7	740.85
977.036	2500.5637	1629.6	744.8
977.164	2501.9035	1625.4	743.35
977.2918	2503.2427	1630.6	743.95
977.4197	2504.5812	1620.25	738
977.5475	2505.919	1617.95	734.5
977.6753	2507.256	1612.8	731.05
977.8031	2508.5924	1617.6	733.05
977.9308	2509.9281	1620.9	732.25
978.0585	2511.2631	1610.65	728.4
978.1861	2512.5974	1604.4	721.55
978.3137	2513.9309	1600.4	718.4
978.4413	2515.2638	1632.75	722.45
978.5689	2516.596	1604.1	724.35
978.6964	2517.9275	1596.75	713.2
978.8239	2519.2583	1600.8	717.4
978.9513	2520.5884	1598.65	714.65
979.0788	2521.9178	1595.05	711.8
979.2062	2523.2465	1590.8	710.7
979.3335	2524.5745	1593.8	709.2
979.4608	2525.9018	1582.95	698.7
979.5881	2527.2284	1593.95	712.15
979.7154	2528.5543	1584.7	703.35
979.8426	2529.8796	1572.8	688.8
979.9698	2531.2041	1585.8	702.75
980.0969	2532.5279	1576.05	691.85
980.224	2533.851	1586.3	703
980.3511	2535.1735	1583.5	700.5
980.4781	2536.4952	1579.15	695.4
980.6052	2537.8163	1572.6	688.75
980.7321	2539.1366	1576.5	694.3
980.8591	2540.4562	1570.1	687.5
980.986	2541.7752	1567.35	685.35
981.1129	2543.0935	1572.85	689.65
981.2397	2544.411	1581.45	697.65
981.3665	2545.7279	1572.5	689.95
981.4933	2547.0441	1563.95	680.6
981.62	2548.3596	1565.05	678.05
981.7467	2549.6744	1569.65	687.15
981.8734	2550.9885	1567.1	682.2
982.0001	2552.3019	1553.05	672.75
982.1267	2553.6146	1558	677.4
982.2532	2554.9266	1553.6	668
982.3798	2556.2379	1557.75	674.4
982.5063	2557.5485	1554.2	673.15
982.6327	2558.8585	1561.2	667.75
982.7592	2560.1677	1550.55	663.25
982.8856	2561.4762	1556.7	675.7
983.0119	2562.7841	1551.9	665.35
983.1383	2564.0913	1542.65	660.7
983.2646	2565.3977	1549.35	665.4
983.3908	2566.7035	1538.4	654.65
983.517	2568.0086	1546.85	663.5
983.6432	2569.313	1540.7	657.3
983.7694	2570.6167	1548	662.3
983.8955	2571.9197	1536.2	653.45
984.0216	2573.222	1542.95	654.85
984.1476	2574.5236	1537.3	654.45
984.2737	2575.8246	1543.15	656.65
984.3996	2577.1248	1540.5	656
984.5256	2578.4244	1527.9	644.65
984.6515	2579.7232	1535	653.5
984.7774	2581.0214	1572.3	654.05
984.9032	2582.3189	1535.55	651.7
985.029	2583.6157	1544.35	657.25
985.1548	2584.9118	1533.6	650.95
985.2806	2586.2072	1538.05	655
985.4063	2587.5019	1535.5	653.4
985.5319	2588.7959	1529.45	645.65
985.6576	2590.0893	1533.3	649.4
985.7832	2591.3819	1532.9	649
985.9087	2592.6739	1538.2	656.05
986.0343	2593.9652	1535.25	652.3
986.1597	2595.2557	1541.9	661.05
986.2852	2596.5456	1537.15	653.65
986.4106	2597.8348	1539.25	657.5
986.536	2599.1234	1543.75	663.3
986.6614	2600.4112	1534.6	652.5
986.7867	2601.6983	1544.5	656.95
986.912	2602.9848	1535.05	651.95
987.0372	2604.2705	1538.95	650.8
987.1624	2605.5556	1539.85	656.75
987.2876	2606.84	1529.05	647.55
987.4128	2608.1237	1529.65	644.3
987.5379	2609.4067	1523	639.15
987.6629	2610.689	1529.15	637.5
987.788	2611.9707	1523.6	636.95
987.913	2613.2516	1516.35	627.25
988.0379	2614.5319	1519.8	636.5
988.1629	2615.8115	1507.4	623.85
988.2878	2617.0903	1513.35	629
988.4126	2618.3685	1508.25	623.4
988.5375	2619.6461	1506.65	623.55
988.6622	2620.9229	1496.45	614.45
988.787	2622.199	1506.5	621.1
988.9117	2623.4745	1503.15	619.65
989.0364	2624.7493	1498.25	614.45
989.161	2626.0234	1506.15	626.25
989.2857	2627.2968	1512.55	629.65
989.4102	2628.5695	1503.7	620.2
989.5348	2629.8415	1496	612.9
989.6593	2631.1128	1494.9	610.05
989.7837	2632.3835	1491.9	609.3
989.9082	2633.6535	1493.5	611.85
990.0326	2634.9228	1497.65	616.25
990.1569	2636.1914	1497.55	616
990.2812	2637.4593	1492.55	607.85
990.4055	2638.7265	1487.1	602.55
990.5298	2639.9931	1494.05	610.9
990.654	2641.259	1483.4	600.2
990.7782	2642.5242	1482.05	599
990.9023	2643.7887	1480.95	597.7
991.0264	2645.0525	1476.35	594.2
991.1505	2646.3156	1480.75	596.8
991.2745	2647.5781	1478.8	596.25
991.3985	2648.8398	1474.65	592.6
991.5225	2650.1009	1512.25	590.4
991.6464	2651.3613	1474.9	591.75
991.7703	2652.6211	1478.75	596.2
991.8942	2653.8801	1472.05	590.45
992.018	2655.1385	1468.2	582
992.1418	2656.3961	1473	589.4
992.2655	2657.6531	1471.25	589.4
992.3892	2658.9094	1467.9	584.7
992.5129	2660.1651	1471.8	589.45
992.6366	2661.42	1462.95	581.05
992.7602	2662.6743	1475	589.95
992.8837	2663.9279	1467.95	584.7
993.0073	2665.1808	1479.5	596.5
993.1307	2666.433	1471.55	586.7
993.2542	2667.6846	1477.55	594.85
993.3776	2668.9354	1486.9	601.5
993.501	2670.1856	1475.7	591.9
993.6244	2671.4351	1477.4	596.75
993.7477	2672.6839	1487.9	601.85
993.8709	2673.9321	1484.2	601.9
993.9942	2675.1795	1486.65	602.5
994.1174	2676.4263	1486.9	604.3
994.2405	2677.6724	1488.45	606.95
994.3637	2678.9179	1485.05	600.75
994.4868	2680.1626	1491.75	609.05
994.6098	2681.4067	1493.4	612.4
994.7328	2682.6501	1494.9	610.75
994.8558	2683.8928	1482.85	601.05
994.9788	2685.1348	1481.75	598.8
995.1017	2686.3761	1477.35	594.9
995.2245	2687.6168	1481.35	598.95
995.3474	2688.8568	1478.85	595.75
995.4702	2690.0961	1469.45	587.2
995.5929	2691.3348	1465.6	582.1
995.7156	2692.5727	1462.9	581.15
995.8383	2693.81	1461.7	576.65
995.961	2695.0466	1456.6	574.65
996.0836	2696.2826	1452.85	569
996.2062	2697.5178	1461.25	572.85
996.3287	2698.7524	1458.05	573.8
996.4512	2699.9863	1465.25	580.5
996.5737	2701.2195	1459.6	576.1
996.6961	2702.452	1466.1	581.55
996.8185	2703.6839	1473.15	588.25
996.9408	2704.9151	1471.1	590
997.0631	2706.1456	1475.75	592.25
997.1854	2707.3755	1480.85	597.1
997.3077	2708.6046	1490.75	607.4
997.4299	2709.8331	1489.4	605.35
997.552	2711.0609	1498.2	613
997.6742	2712.2881	1514.45	630.1
997.7963	2713.5145	1526.7	640.45
997.9183	2714.7403	1527.75	645.5
998.0403	2715.9654	1534.6	651.7
998.1623	2717.1899	1545.25	647.95
998.2842	2718.4136	1545.3	662.9
998.4062	2719.6367	1568.9	685
998.528	2720.8591	1579.6	689.35
998.6498	2722.0809	1576.85	694.85
998.7716	2723.3019	1598.3	711.75
998.8934	2724.5223	1609.35	726.1
999.0151	2725.7421	1606.55	720.15
999.1368	2726.9611	1614.95	730.75
999.2584	2728.1795	1614.7	727.75
999.38	2729.3972	1599.8	716.55
999.5016	2730.6142	1599.8	704.75
999.6231	2731.8306	1575.75	692.8
999.7446	2733.0462	1563.5	678.75
999.8661	2734.2612	1552.05	664.05
999.9875	2735.4756	1536.7	651.85
1000.1089	2736.6892	1515.85	631.5
1000.2302	2737.9022	1500.9	617.75
1000.3515	2739.1145	1483.9	600.25
1000.4728	2740.3262	1487.3	596.8
1000.594	2741.5372	1468.7	586.85
1000.7152	2742.7475	1453.55	570.15
1000.8363	2743.9571	1452.7	567.55
1000.9575	2745.1661	1438.3	551.35
1001.0785	2746.3744	1432.5	549.15
1001.1996	2747.582	1421.9	538.55
1001.3206	2748.7889	1415.85	530.9
1001.4415	2749.9952	1401.95	519.35
1001.5625	2751.2008	1398.85	514.4
1001.6833	2752.4057	1408.7	523
1001.8042	2753.61	1396.25	511.8
1001.925	2754.8136	1396.05	511.95
1002.0458	2756.0165	1389.9	508.2
1002.1665	2757.2188	1394.55	513.75
1002.2872	2758.4204	1396	512
1002.4078	2759.6213	1386.55	502.45
1002.5285	2760.8215	1395.2	505.05
1002.649	2762.0211	1391.65	506.5
1002.7696	2763.22	1381.15	494.95
1002.8901	2764.4182	1379.65	494.85
1003.0106	2765.6158	1381.25	499.6
1003.131	2766.8127	1383.9	501.3
1003.2514	2768.009	1379.5	497.35
1003.3717	2769.2045	1373.95	488.4
1003.492	2770.3994	1375.15	489.2
1003.6123	2771.5936	1370.9	485.55
1003.7325	2772.7872	1366.2	483.4
1003.8527	2773.9801	1368.55	484.6
1003.9729	2775.1723	1378.65	477.4
1004.093	2776.3639	1363.7	483.15
1004.2131	2777.5548	1365.7	481.45
1004.3331	2778.745	1360.55	475.25
1004.4531	2779.9346	1365.25	484
1004.5731	2781.1235	1362.2	480.5
1004.693	2782.3117	1369.75	486.05
1004.8129	2783.4992	1366.5	483.25
1004.9328	2784.6861	1374.05	488.55
1005.0526	2785.8723	1377.1	491.95
1005.1723	2787.0579	1375.85	491.2
1005.2921	2788.2428	1386.1	502.8
1005.4118	2789.427	1392.1	508.35
1005.5314	2790.6106	1396.35	513.25
1005.651	2791.7935	1406.85	524.9
1005.7706	2792.9757	1415.45	534.1
1005.8902	2794.1573	1429.05	543.2
1006.0097	2795.3382	1431.25	547.9
1006.1291	2796.5184	1438.65	557.05
1006.2485	2797.698	1455.05	569.85
1006.3679	2798.8769	1476.2	592.85
1006.4873	2800.0551	1481.8	597.15
1006.6066	2801.2327	1499.2	615.25
1006.7258	2802.4096	1507.05	624.7
1006.8451	2803.5859	1520.4	636
1006.9642	2804.7615	1546.7	664
1007.0834	2805.9364	1558.6	675.6
1007.2025	2807.1106	1587.1	703.6
1007.3216	2808.2842	1602.9	718.3
1007.4406	2809.4572	1639.95	756.65
1007.5596	2810.6294	1663.7	777.55
1007.6785	2811.801	1705.05	824.25
1007.7975	2812.972	1743.85	859.7
1007.9163	2814.1423	1774.05	892.85
1008.0352	2815.3119	1816.7	932.25
1008.154	2816.4808	1873.35	993
1008.2727	2817.6491	1912.8	1031.6
1008.3914	2818.8167	1960.6	1079.45
1008.5101	2819.9837	2014.65	1127.3
1008.6288	2821.15	2064.8	1181.6
1008.7474	2822.3157	2116.3	1233.15
1008.8659	2823.4807	2166.45	1283.7
1008.9844	2824.645	2223	1339.5
1009.1029	2825.8086	2266.25	1384.25
1009.2214	2826.9716	2316.15	1435.15
1009.3398	2828.134	2370.55	1486.85
1009.4581	2829.2957	2412.85	1529.85
1009.5764	2830.4567	2452	1570.25
1009.6947	2831.617	2461.45	1577.45
1009.813	2832.7767	2475.85	1593.75
1009.9312	2833.9358	2483.35	1599.7
1010.0493	2835.0941	2472.6	1587.45
1010.1675	2836.2519	2458.25	1574.65
1010.2855	2837.4089	2433.25	1550.65
1010.4036	2838.5653	2421.5	1540.65
1010.5216	2839.7211	2418.8	1539.4
1010.6396	2840.8761	2409.6	1524.15
1010.7575	2842.0306	2425.5	1544.9
1010.8754	2843.1843	2449.5	1567.8
1010.9932	2844.3374	2480.75	1599.5
1011.111	2845.4899	2533.1	1649.2
1011.2288	2846.6417	2595.65	1711.85
1011.3465	2847.7928	2650.65	1767.7
1011.4642	2848.9433	2706.6	1823.95
1011.5818	2850.0931	2783.35	1901.3
1011.6995	2851.2422	2830.55	1945.55
1011.817	2852.3907	2897.65	2013.05
1011.9345	2853.5385	2958.1	2073.6
1012.052	2854.6857	3011.55	2099.7
1012.1695	2855.8323	3051.25	2167
1012.2869	2856.9781	3100.4	2217.25
1012.4042	2858.1233	3162.85	2281.7
1012.5216	2859.2679	3190.6	2307.4
1012.6389	2860.4118	3252.8	2370.65
1012.7561	2861.555	3298	2411.75
1012.8733	2862.6976	3343.35	2458.65
1012.9905	2863.8395	3369.8	2487.75
1013.1076	2864.9808	3405.85	2523.3
1013.2247	2866.1214	3422.45	2541.45
1013.3417	2867.2614	3428.3	2543.4
1013.4587	2868.4007	3448	2562.35
1013.5757	2869.5393	3466	2582.3
1013.6926	2870.6773	3468.85	2583.8
1013.8095	2871.8146	3489.5	2602.85
1013.9263	2872.9513	3482.85	2598.45
1014.0431	2874.0874	3467.55	2585.9
1014.1599	2875.2227	3449.9	2565.55
1014.2766	2876.3574	3444.45	2561.8
1014.3933	2877.4915	3428.1	2545.7
1014.51	2878.6249	3410.5	2529
1014.6266	2879.7577	3383.45	2500.45
1014.7431	2880.8898	3373.05	2478.25
1014.8596	2882.0212	3340.25	2456.5
1014.9761	2883.152	3336.25	2453.05
1015.0925	2884.2821	3327.8	2445.55
1015.2089	2885.4116	3321.8	2438.25
1015.3253	2886.5405	3317.1	2435.5
1015.4416	2887.6686	3322.3	2435.95
1015.5579	2888.7962	3319.05	2438.75
1015.6741	2889.923	3330.85	2448.7
1015.7903	2891.0493	3359.7	2479.95
1015.9065	2892.1748	3366.4	2483.7
1016.0226	2893.2997	3365.7	2481.15
1016.1387	2894.424	3380.55	2498.45
1016.2547	2895.5476	3407.1	2524.5
1016.3707	2896.6706	3425.4	2544.9
1016.4866	2897.7929	3442.75	2557.2
1016.6025	2898.9145	3471.9	2589.45
1016.7184	2900.0355	3492	2607.7
1016.8342	2901.1559	3522.6	2640.15
1016.95	2902.2756	3551.35	2667.95
1017.0658	2903.3946	3567.25	2683.2
1017.1815	2904.513	3613.5	2728.6
1017.2971	2905.6308	3646.8	2763.35
1017.4127	2906.7479	3668.15	2785.25
1017.5283	2907.8643	3675.8	2792.75
1017.6439	2908.9801	3689.85	2807.45
1017.7594	2910.0953	3692.4	2808.4
1017.8748	2911.2098	3707.55	2821.9
1017.9902	2912.3236	3700.55	2811.8
1018.1056	2913.4368	3686	2799
1018.2209	2914.5494	3656.65	2772.3
1018.3362	2915.6613	3639.6	2751.25
1018.4515	2916.7725	3595	2709.95
1018.5667	2917.8831	3574.55	2689.75
1018.6819	2918.9931	3568	2680.4
1018.797	2920.1024	3524.9	2641.65
1018.9121	2921.211	3498	2613.75
1019.0271	2922.319	3468.95	2586.1
1019.1421	2923.4264	3472.35	2589.7
1019.2571	2924.5331	3456.65	2575.9
1019.372	2925.6391	3459.85	2576.05
1019.4869	2926.7445	3444.8	2564.2
1019.6017	2927.8493	3445.55	2563.6
1019.7165	2928.9534	3449.3	2565.25
1019.8313	2930.0569	3461.2	2575.95
1019.946	2931.1597	3463.75	2580.25
1020.0606	2932.2619	3450.25	2566.95
1020.1753	2933.3634	3444.4	2563.25
1020.2899	2934.4643	3461.6	2572.15
1020.4044	2935.5645	3438.6	2550.55
1020.5189	2936.6641	3409	2519.35
1020.6334	2937.763	3392.55	2512.05
1020.7478	2938.8613	3346.75	2462.25
1020.8622	2939.959	3294.7	2405.1
1020.9765	2941.056	3246.45	2363.9
1021.0908	2942.1523	3171.85	2290.1
1021.2051	2943.248	3092.5	2207.7
1021.3193	2944.3431	3015.45	2135.15
1021.4334	2945.4375	2920.3	2036.1
1021.5476	2946.5313	2813.85	1932.65
1021.6617	2947.6244	2722.35	1839.3
1021.7757	2948.7169	2642.9	1759.15
1021.8897	2949.8087	2528.1	1646.95
1022.0037	2950.8999	2439.15	1558.3
1022.1176	2951.9904	2370.35	1486.95
1022.2315	2953.0803	2290.1	1407.2
1022.3453	2954.1696	2233.1	1348.55
1022.4591	2955.2582	2181.85	1297.6
1022.5728	2956.3462	2135.45	1252
1022.6865	2957.4335	2105.85	1221.35
1022.8002	2958.5202	2069.85	1185.5
1022.9138	2959.6062	2043.65	1160
1023.0274	2960.6916	2028.8	1147.8
1023.141	2961.7764	2001.35	1118.7
1023.2545	2962.8605	1995.15	1114.3
1023.3679	2963.9439	1970.55	1088.2
1023.4813	2965.0267	1966.2	1081.3
1023.5947	2966.1089	1975.95	1073.95
1023.708	2967.1905	1948.85	1066.75
1023.8213	2968.2714	1946.8	1064.2
1023.9346	2969.3516	1956.6	1073.9
1024.0478	2970.4312	1967.15	1074.5
1024.1609	2971.5102	1958.55	1075.9
1024.274	2972.5885	1954.4	1072.2
1024.3871	2973.6662	1961.9	1075.65
1024.5002	2974.7432	1962.7	1080
1024.6132	2975.8196	1947.3	1064.6
1024.7261	2976.8954	1940.6	1061.2
1024.839	2977.9705	1935	1051.3
1024.9519	2979.045	1935.35	1053.9
1025.0647	2980.1188	1918.25	1037.1
1025.1775	2981.192	1897.4	1015.95
1025.2902	2982.2645	1878.35	995.55
1025.4029	2983.3364	1854.55	971.3
1025.5156	2984.4077	1829.9	948.55
1025.6282	2985.4783	1810.6	924.2
1025.7407	2986.5483	1782.65	901.4
1025.8532	2987.6177	1737.85	854.85
1025.9657	2988.6864	1708.65	825.05
1026.0782	2989.7545	1677.55	794.35
1026.1906	2990.8219	1644.7	762.95
1026.3029	2991.8887	1616.35	728.85
1026.4152	2992.9548	1590.05	705.35
1026.5275	2994.0204	1551.55	670.35
1026.6397	2995.0852	1524.6	641.1
1026.7519	2996.1495	1505.8	622.25
1026.864	2997.2131	1479.2	596.4
1026.9761	2998.276	1455.85	573.6
1027.0882	2999.3383	1432.8	551.05
1027.2002	3000.4	1411.95	528.65
1027.3122	3001.4611	1395.4	514.35
1027.4241	3002.5215	1380.75	497.55
1027.536	3003.5812	1370.95	486.65
1027.6478	3004.6404	1360.8	479.25
1027.7596	3005.6989	1343.4	458.95
1027.8714	3006.7567	1336.2	453.75
1027.9831	3007.8139	1350.6	440.05
1028.0947	3008.8705	1323.45	438.8
1028.2064	3009.9264	1323.1	424.65
1028.3179	3010.9818	1309.05	426.5
1028.4295	3012.0364	1298.6	416.25
1028.541	3013.0905	1295.65	411.6
1028.6524	3014.1439	1285.05	401.8
1028.7638	3015.1966	1285.85	402.85
1028.8752	3016.2487	1283.1	401.5
1028.9865	3017.3002	1285.3	396.4
1029.0978	3018.3511	1278.2	397.55
1029.209	3019.4013	1271.8	387.3
1029.3202	3020.4509	1270.5	390.75
1029.4314	3021.4998	1274.85	390.35
1029.5425	3022.5481	1273.45	391.5
1029.6535	3023.5958	1271.35	388.7
1029.7645	3024.6428	1270.45	387.3
1029.8755	3025.6892	1273.65	390.9
1029.9864	3026.735	1275.5	392.3
1030.0973	3027.7802	1267.75	385.1
1030.2082	3028.8247	1267.5	386.3
1030.319	3029.8685	1272.7	388.4
1030.4297	3030.9118	1283	399.1
1030.5404	3031.9544	1284.4	403.3
1030.6511	3032.9963	1283.3	402.4
1030.7617	3034.0376	1282	400.25
1030.8723	3035.0783	1285.6	400.5
1030.9829	3036.1184	1289.1	406.2
1031.0934	3037.1578	1289	408.7
1031.2038	3038.1966	1294.95	410.65
1031.3142	3039.2348	1294.05	412.75
1031.4246	3040.2723	1304.85	413.15
1031.5349	3041.3092	1292.55	409.15
1031.6452	3042.3455	1290.1	409.15
1031.7554	3043.3811	1289.75	407.2
1031.8656	3044.4161	1292.3	408.5
1031.9758	3045.4505	1286.8	404.15
1032.0859	3046.4842	1291.95	409.2
1032.1959	3047.5173	1278.5	397.35
1032.3059	3048.5498	1277.4	396.5
1032.4159	3049.5816	1278.1	395.55
1032.5258	3050.6128	1265.6	382.9
1032.6357	3051.6434	1267.65	383.8
1032.7455	3052.6734	1257.9	374.6
1032.8553	3053.7027	1261.5	379
1032.9651	3054.7314	1257	373.55
1033.0748	3055.7594	1247.45	363.7
1033.1845	3056.7868	1249.7	364.65
1033.2941	3057.8136	1242.3	360.9
1033.4037	3058.8398	1240.25	356.9
1033.5132	3059.8653	1235.95	354.4
1033.6227	3060.8902	1238.25	356.3
1033.7321	3061.9145	1231.45	349.2
1033.8415	3062.9381	1231.35	350.15
1033.9509	3063.9612	1240.95	342.4
1034.0602	3064.9835	1229.7	347.9
1034.1694	3066.0053	1219.7	333.4
1034.2787	3067.0264	1210.4	327.05
1034.3878	3068.0469	1217.65	334.2
1034.497	3069.0668	1204.05	317.2
1034.6061	3070.086	1199.85	317.6
1034.7151	3071.1046	1193.1	307.2
1034.8241	3072.1226	1183.95	298.2
1034.9331	3073.1399	1179.7	299.95
1035.042	3074.1567	1175.5	293.2
1035.1508	3075.1727	1164.95	281.55
1035.2597	3076.1882	1162.4	281.35
1035.3684	3077.203	1150.05	268.4
1035.4772	3078.2173	1144.5	259.6
1035.5859	3079.2308	1142.5	257.8
1035.6945	3080.2438	1133.6	249.5
1035.8031	3081.2561	1124.45	240.75
1035.9117	3082.2678	1117.5	235.2
1036.0202	3083.2789	1112.65	228.35
1036.1286	3084.2893	1109.7	226.85
1036.2371	3085.2991	1099.75	217.95
1036.3454	3086.3083	1102.5	215.25
1036.4538	3087.3169	1090.3	205.9
1036.562	3088.3248	1089.55	206.5
1036.6703	3089.3321	1086.25	202.7
1036.7785	3090.3388	1079.9	196.55
1036.8866	3091.3449	1078.45	194.05
1036.9948	3092.3503	1078.25	190.9
1037.1028	3093.3551	1069.25	188.05
1037.2108	3094.3593	1070.8	189.55
1037.3188	3095.3629	1061.05	176.9
1037.4267	3096.3658	1055.15	173.15
1037.5346	3097.3681	1060.15	178.85
1037.6425	3098.3698	1056.3	171.9
1037.7503	3099.3708	1063.9	179.65
1037.858	3100.3713	1046.55	163.85
1037.9657	3101.3711	1050.1	167.2
1038.0734	3102.3702	1190.15	167.15
1038.181	3103.3688	1053.75	168.25
1038.2886	3104.3667	1045.1	162.6
1038.3961	3105.364	1038.5	156.95
1038.5036	3106.3607	1041.05	157.9
1038.611	3107.3568	1042	158.6
1038.7184	3108.3522	1030.55	150.4
1038.8257	3109.347	1035.2	150.7
1038.933	3110.3412	1040.35	154.05
1039.0403	3111.3348	1033.6	148.65
1039.1475	3112.3277	1030.75	149.25
1039.2547	3113.32	1025.35	144.45
1039.3618	3114.3117	1023.75	141.3
1039.4689	3115.3028	1022.25	140.75
1039.5759	3116.2932	1024.9	139.95
1039.6829	3117.2831	1027.5	141.15
1039.7898	3118.2723	1018.95	137.95
1039.8967	3119.2608	1018.5	135.25
1040.0035	3120.2488	1017.85	133.85
1040.1103	3121.2361	1015.85	131.9
1040.2171	3122.2229	1013.3	131.05
1040.3238	3123.209	1013	129.05
1040.4305	3124.1944	1010.7	129.4
1040.5371	3125.1793	1012.45	128.8
1040.6437	3126.1635	1010.2	127
1040.7502	3127.1471	1005.9	123.05
1040.8567	3128.1301	1008.65	127.3
1040.9631	3129.1125	1007.85	124.25
1041.0695	3130.0942	1006.05	125.05
1041.1759	3131.0753	1010.55	119.8
1041.2822	3132.0558	1005.25	119.85
1041.3884	3133.0357	1003.75	119.1
1041.4946	3134.015	1004.4	120.5
1041.6008	3134.9936	1000.35	116.2
1041.7069	3135.9716	1020.1	115.65
1041.813	3136.949	997.85	115.3
1041.919	3137.9258	1021.55	119.95
1042.025	3138.902	1002.05	113.55
1042.1309	3139.8775	992	110.15
1042.2368	3140.8524	991.55	109.4
1042.3427	3141.8267	995.55	110
1042.4485	3142.8004	994.45	112.2
1042.5542	3143.7735	997.3	108.1
1042.6599	3144.7459	989.7	105.8
1042.7656	3145.7178	991	108.25
1042.8712	3146.689	985.8	102.9
1042.9768	3147.6596	989.5	105.05
1043.0823	3148.6295	987.95	105.2
1043.1878	3149.5989	987.6	105.2
1043.2932	3150.5676	985.7	103.75
1043.3986	3151.5357	979.65	98.95
1043.5039	3152.5032	981.1	100.25
1043.6092	3153.4701	981.05	99.65
1043.7145	3154.4364	984.25	99.95
1043.8197	3155.402	984.95	104.55
1043.9248	3156.367	982.9	97.45
1044.03	3157.3315	1006.75	92.5
1044.135	3158.2952	979.45	95.7
1044.24	3159.2584	977.2	96.5
1044.345	3160.221	977.6	94.8
1044.4499	3161.1829	976.25	93.3
1044.5548	3162.1442	977	94.85
1044.6596	3163.105	974.8	92.25
1044.7644	3164.065	972.9	88.85
1044.8692	3165.0245	974.6	89.45
1044.9739	3165.9834	974.65	92.95
1045.0785	3166.9416	974.1	91.45
1045.1831	3167.8993	975.05	94.05
1045.2877	3168.8563	973.75	92.25
1045.3922	3169.8127	971.05	90.9
1045.4966	3170.7684	970.75	88.9
1045.6011	3171.7236	966.15	82.25
1045.7054	3172.6782	969.4	88.2
1045.8098	3173.6321	970.85	86.3
1045.914	3174.5854	976.7	92.35
1046.0183	3175.5381	969.95	87.55
1046.1224	3176.4902	968.85	87.15
1046.2266	3177.4417	968	86.5
1046.3307	3178.3926	964	83.65
1046.4347	3179.3428	965.65	85.2
1046.5387	3180.2924	965.35	82.6
1046.6427	3181.2415	962.5	79.35
1046.7466	3182.1899	965.8	83.15
1046.8504	3183.1377	960.55	78
1046.9542	3184.0848	969.3	83.5
1047.058	3185.0314	962.55	79.35
1047.1617	3185.9773	963.65	80.75
1047.2654	3186.9227	966.9	85.1
1047.369	3187.8674	961.95	78.8
1047.4726	3188.8115	960	74.55
1047.5761	3189.755	958.5	76.4
1047.6796	3190.6979	956.95	75.45
1047.783	3191.6402	958.95	79.7
1047.8864	3192.5818	956.8	74.3
1047.9898	3193.5229	974.75	72.2
1048.0931	3194.4633	958.25	75.55
1048.1963	3195.4031	957.35	74.35
1048.2995	3196.3423	955.9	76.75
1048.4027	3197.2809	957.5	74.2
1048.5058	3198.2189	955.5	71.6
1048.6089	3199.1563	974.05	73.5
1048.7119	3200.0931	954.95	73.45
1048.8148	3201.0292	953.7	72.75
1048.9178	3201.9648	953.55	72.2
1049.0206	3202.8997	954.9	71.5
1049.1235	3203.834	952.05	71.4
1049.2262	3204.7677	952.25	70.4
1049.329	3205.7008	955.65	72.55
1049.4317	3206.6333	950.2	67.8
1049.5343	3207.5652	953.25	69.55
1049.6369	3208.4964	952.75	69.7
1049.7394	3209.4271	948.85	65.55
1049.8419	3210.3571	948	67.85
1049.9444	3211.2865	950.9	67.45
1050.0468	3212.2154	949.35	67.25
1050.1491	3213.1436	953.55	71.4
1050.2514	3214.0712	959.2	69.3
1050.3537	3214.9982	950.05	70.35
1050.4559	3215.9246	949.9	66.5
1050.5581	3216.8503	947.8	67.05
1050.6602	3217.7755	949	66.3
1050.7623	3218.7001	948.55	65.6
1050.8643	3219.624	947.8	65.25
1050.9663	3220.5473	947.45	65.2
1051.0682	3221.4701	946.45	61.6
1051.1701	3222.3922	950.6	67.8
1051.2719	3223.3137	943.4	63
1051.3737	3224.2346	947.2	64.75
1051.4754	3225.1549	942.05	60.45
1051.5771	3226.0746	943.15	61.55
1051.6788	3226.9937	944.8	63.65
1051.7804	3227.9121	943.1	59.75
1051.8819	3228.83	945	63.75
1051.9834	3229.7473	944.95	63.4
1052.0849	3230.6639	943.75	60.9
1052.1863	3231.5799	942.45	59.95
1052.2876	3232.4954	942.65	57.2
1052.3889	3233.4102	939.55	56.9
1052.4902	3234.3244	944.35	64.15
1052.5914	3235.238	939.7	58.6
1052.6926	3236.151	966.75	60.6
1052.7937	3237.0634	939.7	57.9
1052.8948	3237.9752	938.3	55.15
1052.9958	3238.8864	941.35	61.7
1053.0968	3239.797	938.3	55.05
1053.1977	3240.7069	940.75	57.8
1053.2986	3241.6163	939.55	57.65
1053.3994	3242.5251	937.05	55.6
1053.5002	3243.4332	934.85	53.05
1053.6009	3244.3408	936.35	55.4
1053.7016	3245.2477	935.55	54.65
1053.8022	3246.154	938.45	55.1
1053.9028	3247.0598	935.35	51.65
1054.0034	3247.9649	935.6	53.55
1054.1039	3248.8694	935.35	52.75
1054.2043	3249.7733	933.55	51.6
1054.3047	3250.6766	934.2	52
1054.4051	3251.5793	935.4	53.35
1054.5054	3252.4814	933	52.3
1054.6056	3253.3829	933.4	52.1
1054.7058	3254.2838	931.7	49.1
1054.806	3255.1841	930.05	47.75
1054.9061	3256.0838	930.55	47.75
1055.0061	3256.9829	930.35	50.4
1055.1062	3257.8814	932.25	46.2
1055.2061	3258.7792	931.7	47.9
1055.306	3259.6765	931.05	48.6
1055.4059	3260.5731	928.85	48.05
1055.5057	3261.4692	928.05	44.7
1055.6055	3262.3647	928.35	47.8
1055.7052	3263.2595	923.75	42.55
1055.8049	3264.1538	925.65	44.65
1055.9045	3265.0474	924.55	40.15
1056.0041	3265.9404	923.1	42
1056.1036	3266.8329	921.75	39.4
1056.2031	3267.7247	932.9	39.65
1056.3025	3268.616	923.05	42.15
1056.4019	3269.5066	920.85	38.3
1056.5013	3270.3966	921.55	39.05
1056.6005	3271.286	916.65	35
