Software Version:	3.9.2.0
Unit SN:	10000200
Spectrometer SN:	6960
Date:	3/14/2024 1:59:09 PM
Data Line Index:	25
Spectral Points:	2048
Integration time (ms):	125
Averages:	20
Delay (ms):	30000
Sequence Number:	1
Processing:	dark subtract
Laser Power (mW):	305
Laser Current (mA):	825
Laser Diode Temp (C):	25
Laser Case Temp (C):	29
System Temp (C):	29
Spectrometer Temp (C):	26.7
CCD Temp (C):	0.008
Secondary Temp (C):	20.006
Heatsink Temp (C):	24.852
CCDPCB Temp (C):	38.297
SecondaryPCB Temp (C):	35.985

Wavelength	RamanShift	Raw Counts	Dark Subtracted
787.061	30.1047	456.35	46.65
787.2016	32.3739	455.3	47.45
787.3422	34.6426	459.5	52.05
787.4828	36.9109	463.55	50.4
787.6235	39.1787	471.55	56.95
787.7642	41.4461	480.7	60.65
787.9049	43.7131	488.7	65.2
788.0456	45.9796	498.7	70.9
788.1863	48.2456	511.9	79.55
788.3271	50.5112	519.3	82.8
788.4679	52.7764	522.1	84.7
788.6087	55.0411	534.75	94.3
788.7496	57.3054	543.1	98.35
788.8904	59.5692	552.65	104.15
789.0313	61.8326	567.6	115.25
789.1722	64.0955	579.25	119.8
789.3132	66.3579	591.35	128.6
789.4541	68.6199	609.8	144.1
789.5951	70.8815	639.45	169.65
789.7361	73.1426	705.3	233.85
789.8771	75.4032	878.1	400.25
790.0181	77.6634	1305.4	821.8
790.1592	79.9231	2295.9	1807.15
790.3003	82.1824	4460.15	3959.3
790.4414	84.4412	8446.05	7928.95
790.5825	86.6995	14104.2	13564.25
790.7237	88.9574	19816.4	19253.3
790.8648	91.2148	23993.5	23417.7
791.006	93.4717	26039.35	25451.6
791.1472	95.7282	26658.1	26067
791.2885	97.9842	26702.2	26104.45
791.4297	100.2398	26310	25711.45
791.571	102.4949	25861.35	25263.45
791.7123	104.7495	25259.6	24654.5
791.8536	107.0036	24529.75	23924.5
791.9949	109.2573	23854.25	23251.8
792.1363	111.5105	23171.1	22563.35
792.2777	113.7632	22512.75	21905.65
792.4191	116.0154	21890.7	21272.8
792.5605	118.2672	21504.95	20891.45
792.7019	120.5185	21026.2	20408.1
792.8434	122.7693	20684.85	20069.55
792.9849	125.0197	20423.45	19803.95
793.1264	127.2696	20165.8	19546
793.2679	129.519	20082.7	19457.5
793.4094	131.7679	19885.4	19262.65
793.551	134.0163	19799.35	19169.55
793.6926	136.2642	19674.5	19040
793.8342	138.5117	19488.55	18844.7
793.9758	140.7587	19307.7	18671.85
794.1175	143.0052	19207.5	18567.85
794.2591	145.2512	19028	18388.7
794.4008	147.4967	18830.8	18188
794.5425	149.7417	18682.7	18034.4
794.6842	151.9863	18575.85	17929.45
794.826	154.2304	18540.85	17891.5
794.9677	156.4739	18422.1	17770.8
795.1095	158.717	18375.95	17720.55
795.2513	160.9596	18226.95	17566.4
795.3931	163.2017	17993.25	17335.6
795.535	165.4433	17725.75	17061.15
795.6768	167.6844	17426.1	16760.3
795.8187	169.925	17134.75	16464.7
795.9606	172.1651	16776.7	16106.6
796.1025	174.4047	16526.35	15851.85
796.2445	176.6439	16277.45	15601.95
796.3864	178.8825	16027.85	15347.95
796.5284	181.1206	15896.6	15214.15
796.6704	183.3582	15710.2	15023.5
796.8124	185.5954	15606.85	14918.9
796.9544	187.832	15486.5	14796.65
797.0965	190.0681	15454.5	14763.8
797.2386	192.3037	15437	14743
797.3806	194.5388	15422	14724.15
797.5228	196.7734	15471.65	14772.5
797.6649	199.0075	15507.7	14804.3
797.807	201.2411	15641.1	14931.45
797.9492	203.4742	15638.9	14931.55
798.0914	205.7068	15772.95	15064.35
798.2336	207.9389	15841.15	15131.6
798.3758	210.1704	15979.8	15266.35
798.518	212.4015	16074.1	15355.2
798.6603	214.632	16185.95	15469.2
798.8025	216.862	16356.15	15648.2
798.9448	219.0915	16486.6	15786.05
799.0871	221.3205	16689.65	15993.3
799.2294	223.549	16968.15	16276.35
799.3718	225.777	17293.85	16602.9
799.5141	228.0044	17647.85	16950.05
799.6565	230.2314	18104.05	17414.95
799.7989	232.4578	18514.45	17822.05
799.9413	234.6837	18892.55	18188.15
800.0837	236.909	19090.2	18386.55
800.2262	239.1339	19045.9	18324.6
800.3687	241.3582	18778.95	18069
800.5111	243.582	18455.1	17714.95
800.6536	245.8053	18034.8	17303.35
800.7961	248.0281	17693.2	16967.75
800.9387	250.2503	17424.35	16693.3
801.0812	252.472	17227.35	16490.3
801.2238	254.6932	17146.5	16408.25
801.3664	256.9139	17004.95	16266.6
801.509	259.134	16924.9	16181.75
801.6516	261.3536	16822.95	16086.4
801.7942	263.5727	16791.4	16048.5
801.9369	265.7912	16677.8	15934.6
802.0795	268.0092	16637.15	15893.85
802.2222	270.2267	16552.05	15807.15
802.3649	272.4436	16474.5	15730.5
802.5076	274.6601	16417.4	15664.75
802.6504	276.8759	16340.2	15591.8
802.7931	279.0913	16344.95	15597.6
802.9359	281.3061	16375.3	15625.25
803.0787	283.5204	16434.3	15682.05
803.2215	285.7341	16497.4	15743.95
803.3643	287.9473	16698	15932.75
803.5071	290.16	16931.35	16170.8
803.6499	292.3721	17216.1	16459.8
803.7928	294.5837	17640.5	16881.55
803.9357	296.7947	17971.4	17213.05
804.0786	299.0052	18107.6	17350.05
804.2215	301.2152	17943.65	17181.05
804.3644	303.4246	17601.95	16847.8
804.5074	305.6334	17082.1	16321.75
804.6503	307.8418	16579.9	15819.35
804.7933	310.0495	16181.9	15422.2
804.9363	312.2568	15912.65	15153.45
805.0793	314.4635	15759	14995.7
805.2223	316.6696	15693.1	14929.2
805.3653	318.8752	15668.25	14896.7
805.5084	321.0802	15726.7	14961.6
805.6514	323.2847	15807.5	15041.3
805.7945	325.4887	15848.45	15084.15
805.9376	327.692	15820.55	15051.55
806.0807	329.8949	15697	14926.75
806.2238	332.0972	15445.2	14674.8
806.367	334.2989	15157.75	14383.85
806.5101	336.5001	14912.55	14139.85
806.6533	338.7007	14714.25	13940.55
806.7965	340.9008	14596.8	13821.8
806.9397	343.1003	14483.25	13705.3
807.0829	345.2992	14441.55	13660.55
807.2261	347.4976	14423.95	13645.9
807.3693	349.6955	14396.1	13609.35
807.5126	351.8927	14465.8	13679.5
807.6559	354.0895	14452.15	13657.1
807.7991	356.2856	14487.45	13702.75
807.9424	358.4812	14444.9	13659.05
808.0857	360.6763	14463.4	13678
808.2291	362.8707	14448.75	13661.6
808.3724	365.0646	14441.7	13655.15
808.5158	367.258	14452.65	13661.25
808.6591	369.4508	14435.05	13641.7
808.8025	371.643	14490.75	13694.75
808.9459	373.8346	14433.2	13636.75
809.0893	376.0257	14406.4	13610
809.2327	378.2162	14325.3	13524.2
809.3762	380.4062	14181.9	13379.8
809.5196	382.5956	14073.5	13267.9
809.6631	384.7844	13970.2	13170
809.8066	386.9726	13866.45	13061
809.9501	389.1603	13818.5	13014.35
810.0936	391.3474	13779.25	12945.8
810.2371	393.5339	13765.7	12964.85
810.3806	395.7199	13687.35	12891.05
810.5241	397.9052	13666.2	12872.2
810.6677	400.09	13654.85	12859
810.8113	402.2743	13699.65	12905.4
810.9548	404.4579	13736.9	12941.95
811.0984	406.641	13841.55	13047
811.2421	408.8235	14045.6	13250.45
811.3857	411.0054	14347.55	13551.2
811.5293	413.1868	14780.65	13982.65
811.673	415.3675	15134.05	14333.5
811.8166	417.5477	15334.55	14534.35
811.9603	419.7273	15331.9	14529.55
812.104	421.9064	15211.5	14399.5
812.2477	424.0848	15084.6	14277.6
812.3914	426.2627	14847.15	14036.95
812.5351	428.4399	14572.65	13761.75
812.6788	430.6166	14242.6	13425.6
812.8226	432.7928	13890.35	13074.35
812.9663	434.9683	13612.35	12800.05
813.1101	437.1432	13377.25	12560.05
813.2539	439.3176	13220.15	12401.55
813.3977	441.4914	13113.05	12294.55
813.5415	443.6645	13122.75	12301.5
813.6853	445.8371	13040.9	12221.1
813.8291	448.0091	12959.7	12140.35
813.973	450.1806	12905.1	12086.6
814.1168	452.3514	12843.8	12021.6
814.2607	454.5216	12840.7	12013.3
814.4046	456.6913	12750	11928.2
814.5485	458.8603	12733.75	11914.3
814.6924	461.0288	12792.95	11973.7
814.8363	463.1967	12842.95	12023.05
814.9802	465.3639	12949.8	12125.85
815.1241	467.5306	13026.65	12203.55
815.2681	469.6967	13203.3	12378.7
815.412	471.8622	13330.6	12505.45
815.556	474.0271	13468.75	12644.9
815.7	476.1914	13540.45	12712.95
815.844	478.3551	13485.45	12662.45
815.988	480.5182	13434.4	12611.05
816.132	482.6807	13399.05	12569.75
816.276	484.8426	13467	12642.55
816.4201	487.0039	13678.8	12849.8
816.5641	489.1647	14044.25	13215.05
816.7082	491.3248	14412	13584.25
816.8522	493.4843	14598.3	13770.45
816.9963	495.6432	14575.7	13749.8
817.1404	497.8015	14494.8	13665.6
817.2845	499.9592	14494.3	13666
817.4286	502.1163	14468.8	13642.1
817.5727	504.2728	14292.2	13462.35
817.7168	506.4287	14009.7	13180.65
817.861	508.5839	13568.9	12737.65
818.0051	510.7386	13264.8	12431.9
818.1493	512.8927	13067	12230.55
818.2935	515.0461	12915.55	12082.9
818.4377	517.199	12840.45	12008.3
818.5818	519.3512	12748.35	11915.6
818.726	521.5029	12766.95	11927.8
818.8703	523.6539	12794.85	11961
819.0145	525.8043	12792.7	11959.15
819.1587	527.9541	12838.35	12001.9
819.303	530.1033	12849.6	12015.5
819.4472	532.2519	12914.4	12073.95
819.5915	534.3999	13060.55	12223.45
819.7357	536.5472	13302.5	12464.15
819.88	538.694	13759.75	12922.2
820.0243	540.8401	14354.3	13517.25
820.1686	542.9856	14828.3	13988.65
820.3129	545.1305	14969	14128.8
820.4572	547.2748	14822.8	13977.9
820.6016	549.4185	14402.5	13561.65
820.7459	551.5615	14048.35	13204.4
820.8902	553.704	13869.9	13027.1
821.0346	555.8458	13765.7	12924.2
821.1789	557.987	13709.75	12870.3
821.3233	560.1276	13640.75	12799.2
821.4677	562.2675	13534.25	12696.25
821.6121	564.4069	13453.2	12613.2
821.7565	566.5456	13352.85	12512.15
821.9009	568.6837	13216.2	12373.1
822.0453	570.8212	13010.4	12171.2
822.1897	572.958	12774.75	11930.65
822.3342	575.0942	12590.4	11751.8
822.4786	577.2299	12487.7	11646.75
822.6231	579.3648	12501.9	11660.8
822.7675	581.4992	12573.1	11730.6
822.912	583.6329	12776.1	11933.1
823.0565	585.766	12978.15	12135.35
823.201	587.8985	13119.25	12276.6
823.3454	590.0304	13064.1	12209.15
823.4899	592.1616	12989.1	12142.5
823.6345	594.2922	12889.75	12042.65
823.779	596.4222	12752.05	11904.3
823.9235	598.5515	12604.95	11758.7
824.068	600.6802	12437.1	11590.5
824.2126	602.8083	12258.4	11412.25
824.3571	604.9358	12196.2	11347.55
824.5017	607.0626	12110.25	11265.15
824.6462	609.1888	12019.35	11171.7
824.7908	611.3144	11953.35	11104.55
824.9354	613.4393	11792.85	10948.05
825.08	615.5636	11658.95	10813.25
825.2246	617.6873	11554.35	10708.65
825.3692	619.8103	11480	10630.8
825.5138	621.9327	11435.45	10583.65
825.6584	624.0544	11418	10570.35
825.803	626.1756	11409.6	10560.8
825.9477	628.2961	11357.9	10506.65
826.0923	630.4159	11308.7	10459
826.237	632.5351	11267.3	10415.1
826.3816	634.6537	11210.8	10359.9
826.5263	636.7716	11178.1	10325.7
826.6709	638.8889	11147.95	10297.05
826.8156	641.0056	11178.2	10326.25
826.9603	643.1216	11165.8	10312.15
827.105	645.237	11189.3	10334.7
827.2497	647.3518	11176.4	10324.7
827.3944	649.4659	11170.8	10316.55
827.5391	651.5793	11174.85	10321.35
827.6838	653.6922	11159.2	10307.55
827.8285	655.8043	11129.2	10279.05
827.9733	657.9159	11095.75	10239.45
828.118	660.0268	11016	10159.55
828.2627	662.137	10955	10096.7
828.4075	664.2466	10903.95	10049.55
828.5522	666.3556	10874.05	10020.75
828.697	668.4639	10864.6	10004.95
828.8418	670.5716	10917	10059.95
828.9865	672.6786	10980.3	10124.85
829.1313	674.785	11039.55	10181.4
829.2761	676.8907	11091.45	10233.9
829.4209	678.9958	11176.45	10318.9
829.5657	681.1002	11167.8	10310.4
829.7105	683.204	11124.25	10261.25
829.8553	685.3072	11036.65	10177.2
830.0001	687.4097	10949.95	10091.15
830.1449	689.5115	10901.8	10040.25
830.2898	691.6127	10824.75	9964.8
830.4346	693.7132	10732.1	9872.2
830.5794	695.8131	10690.75	9807.2
830.7243	697.9123	10640.35	9779.65
830.8691	700.0109	10579.75	9720.35
831.014	702.1089	10549.45	9691.5
831.1588	704.2061	10544.2	9686.4
831.3037	706.3028	10584.4	9722.25
831.4486	708.3987	10614.25	9754.6
831.5935	710.4941	10677.25	9818.3
831.7383	712.5887	10844.65	9983.95
831.8832	714.6827	11097.7	10234.2
832.0281	716.7761	11437.8	10575.15
832.173	718.8688	11787.8	10926.6
832.3179	720.9608	11978.65	11112.7
832.4628	723.0522	11950.05	11085.45
832.6077	725.1429	11722.15	10858.25
832.7527	727.233	11413.1	10552.85
832.8976	729.3224	11068.65	10205.6
833.0425	731.4112	10810.05	9947.2
833.1874	733.4993	10601.9	9738.45
833.3324	735.5867	10473.6	9608.45
833.4773	737.6735	10394.8	9530.45
833.6222	739.7596	10355.7	9489.45
833.7672	741.845	10299.1	9436.4
833.9122	743.9298	10303.5	9435
834.0571	746.014	10311.75	9447.4
834.2021	748.0974	10291.7	9425.25
834.347	750.1802	10264.6	9400.65
834.492	752.2624	10266.8	9403.5
834.637	754.3439	10275.1	9407.6
834.782	756.4247	10344.3	9470.65
834.9269	758.5048	10403.05	9538.7
835.0719	760.5843	10549.1	9682
835.2169	762.6631	10771.05	9906.2
835.3619	764.7413	11141.85	10278.2
835.5069	766.8188	11619.35	10753.65
835.6519	768.8956	12025.35	11156.7
835.7969	770.9718	12268.45	11401.3
835.9419	773.0473	12158.55	11292.9
836.0869	775.1221	11840.6	10973.35
836.232	777.1962	11491	10624
836.377	779.2697	11297.7	10428.55
836.522	781.3426	11415.7	10531.3
836.667	783.4147	11633.4	10769.45
836.8121	785.4862	11931	11065.9
836.9571	787.557	11928.6	11059.45
837.1021	789.6271	11593.05	10725.9
837.2472	791.6966	11089.05	10222.2
837.3922	793.7654	10660.95	9789.8
837.5373	795.8335	10366.7	9498.65
837.6823	797.901	10203.1	9337.7
837.8274	799.9678	10145.7	9275.6
837.9724	802.0339	10146.3	9280.1
838.1175	804.0993	10198.15	9321.05
838.2626	806.1641	10168.1	9299.9
838.4076	808.2282	10126.7	9258.25
838.5527	810.2916	10035.2	9164.4
838.6978	812.3544	9930.45	9060.95
838.8428	814.4164	9853.55	8986.4
838.9879	816.4778	9829.7	8959.85
839.133	818.5385	9802	8933.8
839.2781	820.5986	9823.4	8954.95
839.4232	822.658	9860.9	8988.9
839.5682	824.7166	9913.25	9045.55
839.7133	826.7747	10035.2	9167.95
839.8584	828.832	10119.9	9249.2
840.0035	830.8886	10207.55	9337.7
840.1486	832.9446	10307.55	9437.2
840.2937	834.9999	10377.25	9508.7
840.4388	837.0545	10443.5	9568.45
840.5839	839.1085	10474.45	9602.1
840.729	841.1618	10495	9622.1
840.8741	843.2143	10466.15	9596.7
841.0192	845.2662	10385.4	9517.1
841.1643	847.3175	10323.35	9454.1
841.3095	849.368	10221.7	9350.25
841.4546	851.4179	10097.6	9227
841.5997	853.467	9983.4	9112.9
841.7448	855.5155	9884.25	9013.15
841.8899	857.5633	9764.85	8893.15
842.0351	859.6105	9676.45	8805.85
842.1802	861.6569	9581.45	8711.3
842.3253	863.7027	9520.1	8645.65
842.4704	865.7478	9534.55	8662.55
842.6156	867.7922	9512.7	8639.65
842.7607	869.8359	9550.4	8678.7
842.9058	871.8789	9642.25	8772.1
843.0509	873.9212	9824.3	8917.25
843.1961	875.9629	9938.75	9066.95
843.3412	878.0039	10091	9217.35
843.4863	880.0441	10133	9261.8
843.6315	882.0837	10172.65	9301.65
843.7766	884.1226	10040.4	9165.6
843.9218	886.1609	9888.25	9016.65
844.0669	888.1984	9759.95	8887.95
844.212	890.2352	9713	8842.3
844.3572	892.2714	9639.05	8761.5
844.5023	894.3069	9614	8738.95
844.6475	896.3416	9564.35	8688.65
844.7926	898.3757	9537.8	8664.8
844.9377	900.4091	9521.25	8643.65
845.0829	902.4418	9531.8	8653.85
845.228	904.4739	9502.45	8626.1
845.3732	906.5052	9505.35	8632.55
845.5183	908.5358	9375.95	8504.5
845.6635	910.5658	9285.25	8411.1
845.8086	912.595	9132.25	8257.5
845.9538	914.6236	9013.85	8138.15
846.0989	916.6515	8967.85	8093.25
846.2441	918.6786	8956.4	8083
846.3892	920.7051	9011.6	8136.7
846.5344	922.7309	9095.6	8223.55
846.6795	924.756	9137.65	8264.6
846.8246	926.7804	9223.25	8346.45
846.9698	928.8041	9195.15	8317.85
847.1149	930.8272	9180.75	8305.15
847.2601	932.8495	9149.2	8273.2
847.4052	934.8711	9059.9	8184.2
847.5504	936.892	8920.25	8047.1
847.6955	938.9123	8762.8	7885.75
847.8407	940.9318	8630.5	7755.6
847.9858	942.9506	8526.6	7651
848.131	944.9688	8436.75	7559.7
848.2761	946.9862	8404.6	7528.35
848.4213	949.003	8366.85	7490.65
848.5664	951.019	8375.55	7499.8
848.7115	953.0344	8371.3	7495.25
848.8567	955.0491	8414.3	7537.4
849.0018	957.063	8464.6	7588.9
849.147	959.0763	8559.65	7685.15
849.2921	961.0888	8586.8	7706
849.4373	963.1007	8635.65	7761.1
849.5824	965.1119	8686.1	7810.3
849.7275	967.1223	8691.3	7814
849.8727	969.1321	8705.3	7830.2
850.0178	971.1412	8747.1	7873.15
850.1629	973.1495	8737.05	7860.3
850.3081	975.1572	8788.85	7876.1
850.4532	977.1641	8760.4	7884.55
850.5983	979.1704	8762.65	7885.65
850.7435	981.1759	8744.25	7863.6
850.8886	983.1808	8798.3	7917.35
851.0337	985.1849	8877.8	7988.75
851.1788	987.1884	9045.75	8166.55
851.324	989.1911	9183.45	8301.15
851.4691	991.1932	9306.85	8427
851.6142	993.1945	9364.8	8487.8
851.7593	995.1951	9319.4	8443.3
851.9045	997.1951	9289	8405.1
852.0496	999.1943	9179.4	8301.95
852.1947	1001.1928	9163.4	8285.6
852.3398	1003.1906	9121.2	8244.05
852.4849	1005.1877	9159.95	8277.9
852.63	1007.1841	9124.5	8245.45
852.7751	1009.1798	9001.45	8124.45
852.9202	1011.1748	8873.8	7998.05
853.0653	1013.1691	8690.75	7814
853.2104	1015.1627	8484.85	7606.85
853.3555	1017.1556	8313.1	7436
853.5006	1019.1477	8234.65	7355.7
853.6457	1021.1392	8174.45	7298.7
853.7908	1023.1299	8156.85	7277.65
853.9359	1025.12	8189.55	7312.65
854.081	1027.1093	8228.45	7350.8
854.2261	1029.0979	8282.55	7404.85
854.3712	1031.0859	8334.05	7457.6
854.5163	1033.0731	8323.65	7445.8
854.6613	1035.0596	8242.25	7366.85
854.8064	1037.0454	8120.5	7243.05
854.9515	1039.0304	8018	7138.7
855.0965	1041.0148	7895.3	7017
855.2416	1042.9985	7812	6932.15
855.3867	1044.9814	7771.35	6894.3
855.5317	1046.9636	7752.7	6873.95
855.6768	1048.9452	7705.05	6829.1
855.8219	1050.926	7703.3	6826.5
855.9669	1052.9061	7698.05	6821.65
856.112	1054.8855	7672.6	6795.9
856.257	1056.8642	7712.15	6835.9
856.4021	1058.8421	7735.95	6856.8
856.5471	1060.8194	7756.5	6879.95
856.6921	1062.7959	7770.9	6892.8
856.8372	1064.7717	7769.8	6890.25
856.9822	1066.7469	7776.15	6898.65
857.1272	1068.7213	7744.75	6863.1
857.2723	1070.695	7697.6	6819.4
857.4173	1072.6679	7641.85	6762.75
857.5623	1074.6402	7594.6	6715.65
857.7073	1076.6117	7604.3	6720.85
857.8523	1078.5826	7584.05	6704.55
857.9973	1080.5527	7646.2	6763.45
858.1423	1082.5221	7755.7	6875
858.2873	1084.4908	7951.65	7072.25
858.4323	1086.4587	8123.3	7243.55
858.5773	1088.426	8283.3	7402.8
858.7223	1090.3925	8271.35	7386
858.8673	1092.3584	8184	7306.25
859.0123	1094.3235	8045.7	7166.95
859.1573	1096.2879	7941.25	7059.65
859.3022	1098.2515	7907.6	7028.2
859.4472	1100.2145	7940.2	7062.6
859.5922	1102.1767	7984.85	7103.55
859.7371	1104.1382	8100.75	7220.5
859.8821	1106.099	8289.65	7407.85
860.027	1108.0591	8453.6	7574.5
860.172	1110.0185	8574.35	7694.75
860.3169	1111.9771	8570.85	7691.15
860.4619	1113.9351	8345.65	7466.5
860.6068	1115.8923	8080.5	7199.75
860.7517	1117.8488	7779.05	6898.1
860.8967	1119.8045	7530.65	6651.6
861.0416	1121.7596	7388.45	6507.6
861.1865	1123.7139	7334.95	6454.8
861.3314	1125.6675	7358.7	6479.25
861.4763	1127.6204	7394	6515.45
861.6212	1129.5726	7423.05	6542.95
861.7661	1131.524	7444.55	6565.25
861.911	1133.4748	7469.85	6589.85
862.0559	1135.4248	7486.2	6603.8
862.2008	1137.3741	7495.9	6618.7
862.3457	1139.3226	7476.95	6596.15
862.4905	1141.2705	7455.75	6577.05
862.6354	1143.2176	7398.85	6514.25
862.7803	1145.164	7384.75	6502.9
862.9251	1147.1097	7396.35	6516.2
863.07	1149.0546	7389.9	6508.2
863.2148	1150.9989	7297.95	6418
863.3597	1152.9424	7162.2	6280.05
863.5045	1154.8852	6978.2	6096.55
863.6493	1156.8272	6856.3	5977.7
863.7942	1158.7686	6789.35	5902.2
863.939	1160.7092	6764.6	5884.75
864.0838	1162.6491	6757.75	5877
864.2286	1164.5883	6811.85	5933.8
864.3734	1166.5267	6874.9	5993.35
864.5182	1168.4644	6980.65	6101.15
864.663	1170.4014	7145.2	6258.4
864.8078	1172.3377	7346.35	6466.8
864.9526	1174.2732	7538	6657.1
865.0974	1176.2081	7658.6	6778.85
865.2421	1178.1421	7824.95	6939.6
865.3869	1180.0755	7962.35	7083.6
865.5317	1182.0082	7969.8	7091.45
865.6764	1183.9401	7906.15	7024.35
865.8212	1185.8713	7763.6	6882.25
865.9659	1187.8017	7530.65	6650.35
866.1106	1189.7315	7310.8	6430.8
866.2554	1191.6605	7118.45	6209.3
866.4001	1193.5888	6935.25	6055.35
866.5448	1195.5163	6823.2	5942.65
866.6895	1197.4432	6745.45	5864.05
866.8342	1199.3693	6687.6	5809.85
866.9789	1201.2947	6680.5	5798.7
867.1236	1203.2193	6651.7	5769.95
867.2683	1205.1432	6652.7	5772.05
867.413	1207.0664	6685.35	5805.95
867.5576	1208.9889	6768.25	5883.85
867.7023	1210.9106	6834.9	5956.4
867.847	1212.8316	6877.8	5997.25
867.9916	1214.7519	6959.5	6067.75
868.1363	1216.6715	6965.85	6084.8
868.2809	1218.5903	6938.45	6057.85
868.4255	1220.5084	6874.95	5993.8
868.5701	1222.4257	6878.55	5996.9
868.7148	1224.3424	6837.15	5954.25
868.8594	1226.2583	6875.5	5988.7
869.004	1228.1735	6954.8	6072.35
869.1486	1230.0879	7041.25	6160.15
869.2932	1232.0016	7158.9	6277.9
869.4377	1233.9146	7196.9	6314.55
869.5823	1235.8269	7099.7	6219.45
869.7269	1237.7384	6986.65	6106.05
869.8715	1239.6492	6829.4	5951.75
870.016	1241.5592	6739	5857.95
870.1606	1243.4686	6649.15	5769.3
870.3051	1245.3772	6583.35	5703.95
870.4496	1247.285	6524.9	5643
870.5941	1249.1922	6506.1	5626.1
870.7387	1251.0986	6491.1	5611.6
870.8832	1253.0042	6491.5	5609.95
871.0277	1254.9092	6533.95	5653.35
871.1722	1256.8134	6628.65	5748.8
871.3167	1258.7169	6749.4	5867.15
871.4611	1260.6196	6873.85	5993.25
871.6056	1262.5216	7033.15	6151.45
871.7501	1264.4229	7140.95	6261.4
871.8945	1266.3234	7242.4	6361.15
872.039	1268.2232	7282	6398.95
872.1834	1270.1223	7277.7	6397.25
872.3278	1272.0207	7223.85	6342
872.4723	1273.9183	7195.5	6307.9
872.6167	1275.8151	7156.15	6275.85
872.7611	1277.7113	7052.75	6169.6
872.9055	1279.6067	6941	6060.05
873.0499	1281.5014	6783.75	5899.3
873.1943	1283.3953	6666.8	5782.85
873.3386	1285.2885	6613	5730.65
873.483	1287.181	6566.7	5683.6
873.6274	1289.0727	6574.7	5693.95
873.7717	1290.9637	6617.1	5733.4
873.9161	1292.854	6732.95	5851.9
874.0604	1294.7435	6836.85	5954.1
874.2047	1296.6323	7013.35	6132
874.349	1298.5204	7225.5	6337.85
874.4933	1300.4077	7429.6	6546.35
874.6376	1302.2943	7597.3	6716.4
874.7819	1304.1802	7670.55	6791
874.9262	1306.0653	7605.6	6720.4
875.0705	1307.9497	7478	6594.75
875.2147	1309.8333	7388.9	6504.9
875.359	1311.7162	7389.4	6506.75
875.5032	1313.5984	7453.95	6569.6
875.6475	1315.4798	7579.2	6680.15
875.7917	1317.3605	7727.4	6830.55
875.9359	1319.2405	7843	6957.9
876.0801	1321.1197	7868	6986.4
876.2243	1322.9982	7823.4	6938.2
876.3685	1324.876	7788	6905.5
876.5127	1326.753	7779	6897.2
876.6569	1328.6293	7799.55	6916.45
876.801	1330.5048	7793.9	6909.3
876.9452	1332.3796	7746.85	6865.1
877.0893	1334.2537	7758.2	6849.7
877.2335	1336.127	7693.55	6813.25
877.3776	1337.9996	7671.55	6789
877.5217	1339.8714	7625.25	6745.05
877.6658	1341.7426	7595.05	6671.9
877.8099	1343.6129	7540.85	6659
877.954	1345.4826	7468.5	6586.15
878.0981	1347.3515	7443.75	6559.6
878.2422	1349.2196	7397.5	6515.25
878.3862	1351.087	7392.1	6509.65
878.5303	1352.9537	7442.5	6558.15
878.6743	1354.8197	7527.1	6644.55
878.8184	1356.6849	7644.9	6760.85
878.9624	1358.5493	7734.7	6852.3
879.1064	1360.4131	7710.35	6828.95
879.2504	1362.276	7687	6806.65
879.3944	1364.1383	7526.25	6641.55
879.5384	1365.9998	7358.85	6472.3
879.6823	1367.8606	7110.35	6228.45
879.8263	1369.7206	6893.3	6011.05
879.9702	1371.5799	6729.4	5844.4
880.1142	1373.4384	6622.45	5738.5
880.2581	1375.2962	6529.25	5645.35
880.402	1377.1533	6322.15	5438.5
880.5459	1379.0096	6086.55	5203.55
880.6898	1380.8652	5858.55	4975.6
880.8337	1382.7201	5658.65	4776.9
880.9776	1384.5742	5506.35	4623.75
881.1215	1386.4275	5360.55	4474.3
881.2653	1388.2802	5277.9	4397.5
881.4092	1390.132	5215.5	4335.1
881.553	1391.9832	5146.7	4262.95
881.6968	1393.8336	5097.9	4214.45
881.8406	1395.6832	5062.25	4175.05
881.9844	1397.5322	5022.25	4139.55
882.1282	1399.3803	5035.9	4148.35
882.272	1401.2278	5008.55	4123.8
882.4158	1403.0745	4998.7	4115.05
882.5595	1404.9204	5003.1	4120.6
882.7033	1406.7656	5002.1	4119.45
882.847	1408.6101	5024.5	4142.35
882.9908	1410.4538	5067.35	4184.85
883.1345	1412.2968	5089.95	4205.6
883.2782	1414.139	5129.05	4245.4
883.4219	1415.9805	5191.25	4308.3
883.5656	1417.8213	5289.3	4398.15
883.7092	1419.6613	5390.35	4507.15
883.8529	1421.5006	5567.3	4684
883.9965	1423.3391	5790.55	4906.15
884.1402	1425.1769	6119.05	5234.9
884.2838	1427.0139	6545.6	5661.6
884.4274	1428.8502	7045.95	6161.4
884.571	1430.6858	7579.05	6697.15
884.7146	1432.5206	7919.95	7034.5
884.8582	1434.3547	8168.25	7283.7
885.0018	1436.188	8194.7	7310.45
885.1453	1438.0206	8111.75	7228.45
885.2889	1439.8524	8006.25	7121.8
885.4324	1441.6835	7901	7017
885.5759	1443.5139	7828.6	6943.3
885.7194	1445.3435	7769.8	6886.45
885.8629	1447.1724	7727.45	6843.85
886.0064	1449.0005	7653.4	6768.7
886.1499	1450.8279	7586.45	6701.5
886.2933	1452.6545	7566.9	6683.15
886.4368	1454.4804	7575.2	6694.25
886.5802	1456.3056	7579.45	6689.65
886.7237	1458.13	7496.75	6615.95
886.8671	1459.9536	7265.45	6381.7
887.0105	1461.7766	6979.7	6095.7
887.1539	1463.5987	6585.55	5701.85
887.2972	1465.4202	6263.8	5381.05
887.4406	1467.2409	5975.75	5091.9
887.584	1469.0608	5723.65	4842.35
887.7273	1470.88	5531.1	4645.35
887.8706	1472.6984	5329.3	4448.55
888.0139	1474.5161	5174.2	4288.2
888.1572	1476.3331	5031.5	4147.95
888.3005	1478.1493	4938.65	4055.2
888.4438	1479.9648	4843.05	3959.6
888.5871	1481.7795	4767.95	3884.95
888.7303	1483.5935	4725.95	3842.65
888.8736	1485.4067	4651.8	3768.5
889.0168	1487.2192	4614.2	3731.95
889.16	1489.031	4583.05	3698.55
889.3032	1490.842	4545.5	3662.45
889.4464	1492.6522	4506.95	3626.7
889.5896	1494.4618	4483.35	3597.7
889.7327	1496.2705	4476.8	3594.7
889.8759	1498.0785	4447.95	3563.95
890.019	1499.8858	4426.9	3543.25
890.1622	1501.6924	4397.85	3515.15
890.3053	1503.4981	4399.15	3514.45
890.4484	1505.3032	4378.35	3496.45
890.5914	1507.1075	4358.4	3473.75
890.7345	1508.911	4323.2	3439.1
890.8776	1510.7138	4310	3427.4
891.0206	1512.5159	4291.1	3408.95
891.1637	1514.3172	4263.8	3382.75
891.3067	1516.1178	4230.7	3351.35
891.4497	1517.9176	4209.35	3323.75
891.5927	1519.7166	4191.2	3310.4
891.7357	1521.515	4171.45	3279.7
891.8786	1523.3126	4167.4	3284.45
892.0216	1525.1094	4144.4	3262.15
892.1645	1526.9055	4125	3242.3
892.3074	1528.7008	4110.4	3227.85
892.4503	1530.4954	4084.9	3200.4
892.5932	1532.2893	4080.65	3199.8
892.7361	1534.0824	4066	3179.45
892.879	1535.8747	4069.35	3186.55
893.0218	1537.6663	4053.65	3168.95
893.1647	1539.4572	4046.6	3162.35
893.3075	1541.2473	4045.8	3162.2
893.4503	1543.0367	4032.55	3150.9
893.5931	1544.8253	4040.05	3153.65
893.7359	1546.6132	4033.95	3148.6
893.8787	1548.4003	4042.2	3150.25
894.0214	1550.1867	4059.45	3166.55
894.1642	1551.9723	4062.55	3175.05
894.3069	1553.7572	4056.3	3172.4
894.4496	1555.5414	4098	3212.7
894.5923	1557.3247	4125.3	3241.5
894.735	1559.1074	4150.9	3268.75
894.8777	1560.8893	4206.5	3326.3
895.0204	1562.6705	4255.6	3373.3
895.163	1564.4509	4322.15	3439.95
895.3056	1566.2305	4389.7	3507.8
895.4482	1568.0094	4452.65	3571.25
895.5908	1569.7876	4533.1	3651.15
895.7334	1571.565	4586.1	3704.35
895.876	1573.3417	4615.8	3733.95
896.0186	1575.1176	4614.3	3731.15
896.1611	1576.8928	4591.2	3706.9
896.3036	1578.6672	4542.25	3660.2
896.4461	1580.4409	4439.7	3558.95
896.5886	1582.2138	4343.4	3457.05
896.7311	1583.986	4222.8	3339.35
896.8736	1585.7575	4160.5	3280.15
897.0161	1587.5282	4098	3216.9
897.1585	1589.2981	4036.5	3154.35
897.3009	1591.0673	4010.35	3128.1
897.4433	1592.8358	3996.9	3117.8
897.5857	1594.6035	3985.65	3101.2
897.7281	1596.3704	3996.35	3113.9
897.8705	1598.1366	3994.25	3111.55
898.0128	1599.9021	4037.2	3154.35
898.1551	1601.6668	4047.45	3161.65
898.2975	1603.4308	4108.45	3226.35
898.4398	1605.194	4166.8	3281.15
898.5821	1606.9564	4228.85	3346.7
898.7243	1608.7182	4324.05	3437.6
898.8666	1610.4791	4443.1	3561.05
899.0088	1612.2394	4565	3682.75
899.1511	1613.9988	4730.45	3846.5
899.2933	1615.7576	4933.75	4050.7
899.4355	1617.5156	5118.9	4231.3
899.5776	1619.2728	5316.65	4434.8
899.7198	1621.0293	5441.4	4560.5
899.862	1622.785	5519.35	4634.5
900.0041	1624.54	5474.05	4588.85
900.1462	1626.2942	5352.55	4468.75
900.2883	1628.0477	5158.6	4272.7
900.4304	1629.8005	4970.15	4085.6
900.5725	1631.5525	4767.2	3884
900.7145	1633.3037	4618	3736.2
900.8566	1635.0542	4456.55	3574.15
900.9986	1636.804	4377.4	3495.4
901.1406	1638.553	4357.15	3402.85
901.2826	1640.3013	4276.2	3393.7
901.4245	1642.0488	4207.65	3324.8
901.5665	1643.7955	4251.8	3368.8
901.7085	1645.5416	4262.15	3380.05
901.8504	1647.2868	4316.3	3434.85
901.9923	1649.0313	4378.3	3496.85
902.1342	1650.7751	4504.25	3619.7
902.2761	1652.5181	4661.6	3780
902.4179	1654.2604	4867.2	3984.25
902.5598	1656.0019	5139.5	4258.75
902.7016	1657.7427	5432.2	4550
902.8434	1659.4828	5701.9	4821.4
902.9852	1661.222	5893.65	5009.65
903.127	1662.9606	5917.75	5037.8
903.2687	1664.6984	5761.25	4878.8
903.4105	1666.4354	5461.5	4579.5
903.5522	1668.1717	5075.75	4194.25
903.6939	1669.9072	4702.1	3819.1
903.8356	1671.642	4387.2	3504.4
903.9773	1673.3761	4130.85	3249.4
904.119	1675.1094	3918.6	3037.35
904.2606	1676.8419	3776.25	2895.3
904.4022	1678.5737	3668.3	2786
904.5439	1680.3048	3586.8	2705.35
904.6855	1682.0351	3531	2650.9
904.827	1683.7646	3481.85	2596.8
904.9686	1685.4934	3434.95	2553.35
905.1101	1687.2215	3412.35	2529.75
905.2517	1688.9488	3374.75	2493
905.3932	1690.6754	3343.65	2461.15
905.5347	1692.4012	3336.7	2457.9
905.6761	1694.1263	3317.25	2437.05
905.8176	1695.8506	3291.85	2411.05
905.9591	1697.5742	3272.4	2390.9
906.1005	1699.297	3261.5	2382.1
906.2419	1701.0191	3237.5	2357.35
906.3833	1702.7404	3215.85	2334.85
906.5246	1704.461	3198.4	2315.45
906.666	1706.1808	3194.5	2311.2
906.8073	1707.8999	3179	2297
906.9487	1709.6182	3162	2280.7
907.09	1711.3358	3159.15	2276.65
907.2313	1713.0527	3155.7	2275.3
907.3725	1714.7688	3145.35	2256.7
907.5138	1716.4841	3126.7	2245.4
907.655	1718.1987	3105.3	2219.05
907.7962	1719.9126	3094.45	2212.9
907.9374	1721.6257	3087.65	2202.4
908.0786	1723.338	3073.3	2191.45
908.2198	1725.0496	3052.35	2170.15
908.3609	1726.7605	3051.2	2168.9
908.502	1728.4706	3046.95	2165.2
908.6431	1730.18	3027.55	2143.15
908.7842	1731.8886	3022.45	2139.65
908.9253	1733.5964	3012.95	2127.05
909.0664	1735.3036	3017.65	2136.35
909.2074	1737.0099	3000.15	2119.55
909.3484	1738.7156	2986.5	2107.85
909.4894	1740.4204	2975.6	2091.15
909.6304	1742.1246	2970.55	2088
909.7714	1743.8279	2957.15	2076.6
909.9123	1745.5306	2954.55	2072.1
910.0532	1747.2325	2943.25	2061
910.1941	1748.9336	2944.8	2065.2
910.335	1750.634	2937.25	2055.1
910.4759	1752.3336	2939	2059.55
910.6168	1754.0325	2915.85	2035.6
910.7576	1755.7307	2918.45	2036.65
910.8984	1757.4281	2904	2022.05
911.0392	1759.1247	2912.85	2022.8
911.18	1760.8206	2896.65	2012.35
911.3208	1762.5158	2901	2015.55
911.4615	1764.2102	2888.25	2010.25
911.6022	1765.9039	2882.05	2001.3
911.7429	1767.5968	2867.75	1986.65
911.8836	1769.289	2868.6	1987.35
912.0243	1770.9804	2859.3	1975.55
912.1649	1772.6711	2863.75	1981
912.3056	1774.361	2857.85	1975.95
912.4462	1776.0502	2843.45	1959.9
912.5868	1777.7386	2840.55	1956.1
912.7274	1779.4263	2825.75	1943.65
912.8679	1781.1132	2840.8	1961
913.0084	1782.7994	2829.65	1948.2
913.149	1784.4849	2817.45	1937
913.2895	1786.1696	2823.45	1924.9
913.4299	1787.8535	2805.65	1925.95
913.5704	1789.5367	2801.05	1919.15
913.7108	1791.2192	2785.8	1905.6
913.8513	1792.9009	2806.45	1897.35
913.9917	1794.5818	2784.45	1903.7
914.132	1796.2621	2785.9	1905.35
914.2724	1797.9415	2772.7	1891.25
914.4128	1799.6202	2763.8	1882.05
914.5531	1801.2982	2758.8	1878.15
914.6934	1802.9755	2761.95	1881.4
914.8337	1804.6519	2756.35	1875.15
914.9739	1806.3277	2743.85	1863.3
915.1142	1808.0027	2735.1	1855.6
915.2544	1809.6769	2744.85	1860.4
915.3946	1811.3504	2738.25	1857.45
915.5348	1813.0231	2736.7	1852.65
915.675	1814.6951	2729.6	1849.6
915.8151	1816.3664	2726.65	1842.65
915.9553	1818.0369	2723.3	1841.6
916.0954	1819.7067	2718.55	1839.3
916.2355	1821.3757	2719.45	1837.4
916.3755	1823.044	2729.25	1847.2
916.5156	1824.7115	2705.2	1823.9
916.6556	1826.3783	2701.45	1822.6
916.7956	1828.0443	2691.1	1810.7
916.9356	1829.7096	2692.5	1809.55
917.0756	1831.3741	2697.8	1812.95
917.2155	1833.0379	2687.5	1806.35
917.3555	1834.701	2669	1786.9
917.4954	1836.3633	2665.15	1782.6
917.6353	1838.0248	2666	1783.4
917.7751	1839.6856	2668.15	1788.3
917.915	1841.3457	2654.75	1775.4
918.0548	1843.005	2654.6	1775.25
918.1946	1844.6636	2643.65	1763.7
918.3344	1846.3214	2639.85	1759.85
918.4742	1847.9785	2636.1	1755.1
918.6139	1849.6349	2643.7	1761.55
918.7537	1851.2904	2655.3	1766.15
918.8934	1852.9453	2638.45	1758.5
919.0331	1854.5994	2641.35	1755.85
919.1727	1856.2528	2637.6	1753
919.3124	1857.9054	2628.85	1748.2
919.452	1859.5572	2618.65	1737.25
919.5916	1861.2083	2612.7	1731.2
919.7312	1862.8587	2607.95	1729.4
919.8708	1864.5084	2602.25	1720.15
920.0103	1866.1572	2598.9	1718.95
920.1498	1867.8054	2597.6	1715.6
920.2893	1869.4528	2584	1702.85
920.4288	1871.0994	2584.8	1703.7
920.5683	1872.7453	2572	1690.25
920.7077	1874.3905	2578.05	1688.9
920.8471	1876.0349	2567.1	1686.8
920.9865	1877.6786	2587.95	1702.1
921.1259	1879.3215	2578.75	1697.5
921.2653	1880.9637	2569.9	1687.25
921.4046	1882.6051	2560.55	1679.2
921.5439	1884.2458	2558.45	1674.9
921.6832	1885.8858	2539.8	1658.45
921.8225	1887.525	2533.2	1652.05
921.9617	1889.1634	2531.15	1649.05
922.101	1890.8011	2538.85	1657.75
922.2402	1892.4381	2520.7	1639.6
922.3794	1894.0743	2513	1632.35
922.5185	1895.7098	2513.65	1632.7
922.6577	1897.3446	2522.45	1641.35
922.7968	1898.9786	2518	1632.5
922.9359	1900.6118	2513.3	1634.4
923.075	1902.2443	2504.2	1618.55
923.214	1903.8761	2505.15	1624.6
923.3531	1905.5071	2478.65	1595.2
923.4921	1907.1374	2478.65	1596.55
923.6311	1908.7669	2490.1	1610.5
923.77	1910.3957	2478.7	1599.2
923.909	1912.0237	2473.65	1590.7
924.0479	1913.651	2468.2	1586.5
924.1868	1915.2776	2460.75	1581.85
924.3257	1916.9034	2456.05	1575
924.4646	1918.5285	2451.6	1572.35
924.6034	1920.1528	2448.1	1567.55
924.7422	1921.7764	2439.5	1558.05
924.881	1923.3992	2431.2	1550.5
925.0198	1925.0213	2412.25	1533.1
925.1586	1926.6427	2417	1536.45
925.2973	1928.2633	2626	1520.4
925.436	1929.8832	2453.75	1569.5
925.5747	1931.5023	2416	1535.6
925.7134	1933.1207	2403.55	1523.65
925.852	1934.7383	2409.6	1528.4
925.9906	1936.3552	2400.9	1517.05
926.1292	1937.9714	2386.15	1505.65
926.2678	1939.5868	2400	1516.95
926.4064	1941.2015	2375.05	1494.15
926.5449	1942.8154	2370.6	1490.2
926.6834	1944.4286	2357.1	1474.85
926.8219	1946.041	2373.2	1467.65
926.9604	1947.6528	2342.05	1457
927.0988	1949.2637	2354.25	1473.75
927.2372	1950.8739	2344.8	1463.55
927.3756	1952.4834	2337.6	1453.85
927.514	1954.0921	2327.85	1445.3
927.6523	1955.7001	2327.2	1440.7
927.7907	1957.3074	2323.5	1442.9
927.929	1958.9139	2313.9	1433
928.0673	1960.5197	2321.25	1439.35
928.2055	1962.1247	2310.05	1430.85
928.3438	1963.729	2301.25	1421.35
928.482	1965.3325	2320.2	1415.3
928.6202	1966.9353	2289.3	1409.15
928.7584	1968.5374	2285.7	1403.2
928.8965	1970.1387	2274.4	1393.4
929.0346	1971.7393	2277.25	1396.45
929.1727	1973.3392	2278.2	1396.95
929.3108	1974.9383	2261.2	1379.75
929.4489	1976.5366	2259.85	1380.4
929.5869	1978.1342	2262.05	1379.2
929.7249	1979.7311	2252.1	1373.65
929.8629	1981.3273	2247.45	1365.6
930.0009	1982.9227	2233.7	1350.35
930.1388	1984.5173	2236.1	1356.2
930.2767	1986.1112	2243.2	1363.25
930.4146	1987.7044	2233.9	1354.75
930.5525	1989.2968	2234.5	1350.55
930.6904	1990.8885	2226.05	1341.45
930.8282	1992.4795	2216.6	1336.1
930.966	1994.0697	2221.8	1341.55
931.1038	1995.6592	2209.95	1329.1
931.2415	1997.2479	2194.5	1312.65
931.3793	1998.8359	2200.7	1319.05
931.517	2000.4232	2193.4	1315.55
931.6547	2002.0097	2201.75	1319.85
931.7923	2003.5955	2193.4	1312.45
931.93	2005.1805	2184.1	1299.6
932.0676	2006.7648	2189	1307.95
932.2052	2008.3484	2183.3	1300.65
932.3427	2009.9312	2181.75	1301.55
932.4803	2011.5133	2178.2	1296.05
932.6178	2013.0946	2170.15	1287.25
932.7553	2014.6752	2172.05	1291.8
932.8928	2016.2551	2168.65	1286
933.0302	2017.8342	2165.25	1285.4
933.1676	2019.4126	2157.1	1276.2
933.305	2020.9902	2151.2	1270.4
933.4424	2022.5672	2143.05	1260.6
933.5798	2024.1433	2144.45	1258.2
933.7171	2025.7188	2146.35	1265.5
933.8544	2027.2935	2139.05	1256.25
933.9917	2028.8674	2126	1244.3
934.129	2030.4406	2124.5	1243.7
934.2662	2032.0131	2130.7	1249.9
934.4034	2033.5849	2131.1	1243.5
934.5406	2035.1559	2122.15	1242.7
934.6778	2036.7261	2112.9	1233.6
934.8149	2038.2957	2114.1	1232.55
934.952	2039.8645	2109.75	1229.9
935.0891	2041.4325	2109.15	1223.8
935.2262	2042.9998	2105.4	1225.55
935.3632	2044.5664	2117.55	1233.8
935.5002	2046.1323	2105.3	1223.7
935.6372	2047.6974	2092.2	1212
935.7742	2049.2617	2093.95	1211.9
935.9111	2050.8254	2113.75	1197.7
936.048	2052.3883	2097.4	1215
936.1849	2053.9504	2085.65	1202.25
936.3218	2055.5118	2079.15	1196.8
936.4586	2057.0725	2081.6	1195
936.5955	2058.6325	2083	1201.75
936.7323	2060.1917	2074.45	1194.15
936.869	2061.7502	2068.05	1184.45
937.0058	2063.3079	2061.25	1181.45
937.1425	2064.8649	2058.75	1175.9
937.2792	2066.4212	2064.3	1180.65
937.4159	2067.9767	2044.75	1166.85
937.5525	2069.5315	2047.85	1167.1
937.6891	2071.0856	2054.7	1172.65
937.8257	2072.6389	2034.6	1151.7
937.9623	2074.1915	2022.5	1143.15
938.0989	2075.7433	2021.35	1138.4
938.2354	2077.2945	2029.05	1149.6
938.3719	2078.8448	2029.3	1148.5
938.5084	2080.3945	2011.2	1127.85
938.6448	2081.9434	2018.7	1137.35
938.7812	2083.4916	2000.7	1120.6
938.9176	2085.039	2008.5	1125.75
939.054	2086.5857	2003.85	1122.15
939.1903	2088.1317	1999.35	1118.85
939.3267	2089.677	1999.6	1118.7
939.463	2091.2215	1991.05	1112.1
939.5992	2092.7652	2002.25	1118.65
939.7355	2094.3083	1988.1	1108.55
939.8717	2095.8506	1987.75	1107.65
940.0079	2097.3921	1985.8	1106.2
940.1441	2098.933	1976.2	1096.05
940.2802	2100.4731	1974.8	1093.95
940.4163	2102.0124	1986.7	1097.1
940.5524	2103.5511	1971.95	1089.8
940.6885	2105.089	1962.8	1080.75
940.8245	2106.6261	1958.4	1076.1
940.9606	2108.1626	1955.4	1072.95
941.0965	2109.6983	1989.9	1079.6
941.2325	2111.2332	1957.1	1075.5
941.3684	2112.7675	1950.25	1067.55
941.5044	2114.301	1954.35	1070.75
941.6403	2115.8337	1961.65	1081.05
941.7761	2117.3657	1950.2	1070.45
941.912	2118.897	1953.15	1071.35
942.0478	2120.4276	1950.7	1065
942.1835	2121.9575	1940	1057.6
942.3193	2123.4866	1950.95	1055.25
942.455	2125.0149	1953	1067.3
942.5907	2126.5426	1936.4	1056.25
942.7264	2128.0695	1933.65	1048.05
942.8621	2129.5956	1927.55	1048.25
942.9977	2131.1211	1930.9	1044
943.1333	2132.6458	1919.7	1038.15
943.2689	2134.1698	1928	1045.4
943.4044	2135.693	1921.85	1036
943.54	2137.2155	1921.75	1039.8
943.6755	2138.7373	1913.15	1030
943.8109	2140.2584	1906.2	1024.3
943.9464	2141.7787	1908.7	1021.1
944.0818	2143.2983	1898.95	1018.4
944.2172	2144.8171	1893.2	1013
944.3526	2146.3353	1898	1014.2
944.4879	2147.8527	1892	1010.65
944.6232	2149.3693	1892.8	1012
944.7585	2150.8853	1887.25	1005.9
944.8938	2152.4005	1879.55	997.55
945.029	2153.9149	1882	1001.55
945.1642	2155.4287	1876.25	995.7
945.2994	2156.9417	1879.15	998
945.4346	2158.454	1873.45	990.1
945.5697	2159.9655	1873.6	994
945.7048	2161.4764	1870.4	989.7
945.8399	2162.9865	1870.4	987.65
945.9749	2164.4958	1870.85	987.25
946.1099	2166.0045	1855.6	970.5
946.2449	2167.5124	1867	986.85
946.3799	2169.0195	1851.15	969.2
946.5148	2170.526	1858.15	976.35
946.6498	2172.0317	1844.7	964.35
946.7846	2173.5367	1851.5	968.9
946.9195	2175.0409	1849.1	969
947.0543	2176.5445	1843.25	963.3
947.1891	2178.0473	1841.65	959.5
947.3239	2179.5494	1842.7	957.75
947.4587	2181.0507	1836.95	954.35
947.5934	2182.5513	1832.7	951.25
947.7281	2184.0512	1825.4	943.6
947.8628	2185.5504	1829.15	949.4
947.9974	2187.0488	1822	941.2
948.132	2188.5465	1819.95	938.3
948.2666	2190.0435	1821.65	939.85
948.4012	2191.5397	1811.25	930.25
948.5357	2193.0353	1813	931.85
948.6702	2194.5301	1806.7	925.3
948.8047	2196.0241	1808.6	926.65
948.9392	2197.5175	1802.55	922.3
949.0736	2199.0101	1802.3	918.45
949.208	2200.502	1794.6	915.15
949.3424	2201.9931	1789.85	908
949.4767	2203.4835	1792	908.75
949.611	2204.9733	1796.8	908.95
949.7453	2206.4622	1781.25	901.05
949.8796	2207.9505	1781.3	895.05
950.0138	2209.438	1779.55	898.35
950.148	2210.9248	1780.95	896.05
950.2822	2212.4109	1773.65	894.45
950.4164	2213.8962	1770.05	886.2
950.5505	2215.3809	1765.85	883.55
950.6846	2216.8648	1776.4	895.2
950.8186	2218.3479	1774.15	889.1
950.9527	2219.8304	1772.2	888.55
951.0867	2221.3121	1758.15	876.7
951.2207	2222.7931	1759.5	879.45
951.3546	2224.2733	1755.1	872.85
951.4886	2225.7529	1754.7	870.8
951.6225	2227.2317	1758.8	874.8
951.7563	2228.7098	1749.85	870.65
951.8902	2230.1872	1740.9	860.55
952.024	2231.6638	1745.5	862.6
952.1578	2233.1397	1730.3	842.3
952.2916	2234.6149	1734.05	854.75
952.4253	2236.0894	1725.1	842.9
952.559	2237.5632	1739.1	848.65
952.6927	2239.0362	1733.5	850.45
952.8263	2240.5085	1721.85	841.85
952.9599	2241.9801	1709.8	828.4
953.0935	2243.4509	1711.95	828.45
953.2271	2244.921	1723	840.95
953.3606	2246.3904	1703.6	823.2
953.4941	2247.8591	1703.9	822.35
953.6276	2249.3271	1702.3	821.7
953.7611	2250.7943	1697.95	815.85
953.8945	2252.2608	1689.7	809.45
954.0279	2253.7266	1693.35	814
954.1612	2255.1917	1697.45	816.25
954.2946	2256.656	1689.8	806.2
954.4279	2258.1197	1691.2	809.85
954.5612	2259.5826	1686.35	801.05
954.6944	2261.0447	1689.45	806.95
954.8276	2262.5062	1684.75	800.55
954.9608	2263.9669	1684.3	800.1
955.094	2265.4269	1680.6	800.35
955.2271	2266.8862	1673.15	790.9
955.3602	2268.3448	1683.95	803.4
955.4933	2269.8026	1681.75	799.8
955.6264	2271.2598	1673.9	792.85
955.7594	2272.7162	1661.4	780.25
955.8924	2274.1719	1667.45	784.65
956.0253	2275.6268	1661.05	777.95
956.1583	2277.0811	1660.6	777.45
956.2912	2278.5346	1665	783.6
956.4241	2279.9874	1653.8	771.1
956.5569	2281.4395	1656.6	778.4
956.6897	2282.8908	1658.45	772.6
956.8225	2284.3414	1655.5	773.2
956.9553	2285.7914	1655.55	774.4
957.088	2287.2406	1649.15	767.15
957.2207	2288.689	1643.25	762.6
957.3534	2290.1368	1652.1	770.75
957.486	2291.5838	1643.6	760.65
957.6186	2293.0302	1635.7	752.5
957.7512	2294.4758	1644	761.65
957.8838	2295.9206	1630.9	748.6
958.0163	2297.3648	1633.25	751
958.1488	2298.8082	1630.55	750.8
958.2813	2300.251	1634.1	753.65
958.4137	2301.693	1628.55	745.05
958.5461	2303.1343	1634.75	751.6
958.6785	2304.5748	1620.8	740.3
958.8108	2306.0147	1626.9	744.05
958.9432	2307.4538	1622.4	736.7
959.0754	2308.8922	1613.25	732.45
959.2077	2310.3299	1617.45	734.4
959.3399	2311.7669	1613.45	734.55
959.4721	2313.2031	1609.65	728.9
959.6043	2314.6387	1614.75	732.95
959.7365	2316.0735	1603.95	724.6
959.8686	2317.5076	1600.1	718.95
960.0006	2318.941	1598.35	714.95
960.1327	2320.3737	1594.4	712
960.2647	2321.8056	1594.2	711
960.3967	2323.2369	1602.65	721.4
960.5287	2324.6674	1595	710.45
960.6606	2326.0972	1587.25	704.4
960.7925	2327.5263	1592.6	712.35
960.9244	2328.9547	1590	706.1
961.0562	2330.3823	1583.15	700.05
961.1881	2331.8092	1584.5	699.55
961.3198	2333.2355	1582.3	703.75
961.4516	2334.661	1581.05	699.95
961.5833	2336.0858	1566	683.95
961.715	2337.5098	1582.55	701.75
961.8467	2338.9332	1575.55	694.45
961.9783	2340.3558	1574.05	689.3
962.1099	2341.7778	1572.55	690.55
962.2415	2343.199	1576.65	692.9
962.373	2344.6195	1562.35	680.3
962.5045	2346.0393	1563.4	682.5
962.636	2347.4583	1560.45	676.85
962.7675	2348.8767	1569.7	687.5
962.8989	2350.2943	1560.75	680.3
963.0303	2351.7113	1566.25	684.55
963.1617	2353.1275	1560.45	679.25
963.293	2354.543	1576.85	670.8
963.4243	2355.9578	1558.25	676.4
963.5556	2357.3718	1556.75	672.45
963.6868	2358.7852	1551.15	668.55
963.818	2360.1978	1550.65	668.05
963.9492	2361.6098	1551.5	672.1
964.0803	2363.021	1552.85	666.7
964.2114	2364.4315	1546	667.55
964.3425	2365.8413	1543.5	660.65
964.4736	2367.2504	1542.85	664.45
964.6046	2368.6587	1528	647.4
964.7356	2370.0664	1533.3	652.5
964.8666	2371.4733	1534.55	651.5
964.9975	2372.8795	1533.05	653.8
965.1284	2374.285	1525.5	644.3
965.2593	2375.6899	1523.35	643.15
965.3901	2377.0939	1517.05	636.95
965.5209	2378.4973	1521.1	641.7
965.6517	2379.9	1519.65	637.6
965.7825	2381.3019	1518.55	637.15
965.9132	2382.7032	1514.55	635.45
966.0439	2384.1037	1522.45	643.55
966.1745	2385.5035	1510	629.55
966.3051	2386.9027	1508	628.45
966.4357	2388.3011	1508.6	622.95
966.5663	2389.6987	1511	631.4
966.6968	2391.0957	1503.95	624.65
966.8273	2392.492	1508.75	628.55
966.9578	2393.8876	1494.2	612.25
967.0882	2395.2824	1489.2	610.75
967.2186	2396.6765	1496.6	616.7
967.349	2398.07	1492.9	613.95
967.4793	2399.4627	1489.4	607.25
967.6097	2400.8547	1488.55	607.95
967.7399	2402.246	1494.1	608.55
967.8702	2403.6366	1483.9	602.3
968.0004	2405.0265	1476.7	595.25
968.1306	2406.4156	1493.7	608.45
968.2607	2407.8041	1485.55	603.7
968.3909	2409.1918	1477.6	596.65
968.521	2410.5789	1476.15	594.85
968.651	2411.9652	1477.4	592.7
968.781	2413.3508	1469.5	589.15
968.911	2414.7358	1469.5	588.1
969.041	2416.12	1476.05	593.8
969.1709	2417.5035	1467.4	588.55
969.3008	2418.8863	1463.95	584.55
969.4307	2420.2684	1465.75	586.15
969.5606	2421.6497	1461.95	580.95
969.6904	2423.0304	1467.25	587.65
969.8201	2424.4104	1462.7	580.7
969.9499	2425.7896	1460.55	573.5
970.0796	2427.1682	1456.5	577.4
970.2093	2428.546	1455.2	573.8
970.3389	2429.9232	1456.45	574.75
970.4685	2431.2996	1452.05	570.9
970.5981	2432.6753	1449.65	567.85
970.7277	2434.0503	1445.2	563.75
970.8572	2435.4246	1449.1	568.6
970.9867	2436.7982	1446	567
971.1161	2438.1711	1439.75	559.75
971.2456	2439.5433	1439.6	558.25
971.375	2440.9148	1444.5	558.15
971.5043	2442.2856	1438.25	557.7
971.6336	2443.6557	1434.85	553.05
971.7629	2445.025	1424.65	543.5
971.8922	2446.3937	1436	553.6
972.0214	2447.7617	1427.3	546.35
972.1506	2449.1289	1430.3	548.95
972.2798	2450.4955	1437.4	553.95
972.4089	2451.8613	1428.75	549.2
972.538	2453.2265	1425.2	544.55
972.6671	2454.5909	1423.45	540.95
972.7961	2455.9546	1432.5	551.8
972.9251	2457.3177	1413.65	533
973.0541	2458.68	1421.3	538.3
973.1831	2460.0416	1414.05	532.75
973.312	2461.4025	1417.05	535.85
973.4408	2462.7627	1426.8	531.8
973.5697	2464.1222	1420.55	540.5
973.6985	2465.4811	1422.95	542.15
973.8273	2466.8392	1417.8	537.85
973.956	2468.1966	1422.9	537.65
974.0847	2469.5533	1422.3	539
974.2134	2470.9093	1414.5	531.45
974.3421	2472.2645	1421.4	537.75
974.4707	2473.6191	1412.55	532.2
974.5993	2474.973	1412.45	530.5
974.7278	2476.3262	1413.5	530.8
974.8563	2477.6787	1408.2	528.95
974.9848	2479.0305	1406.45	526.7
975.1132	2480.3816	1402.75	520.95
975.2417	2481.7319	1400.75	520.45
975.37	2483.0816	1402.5	517.6
975.4984	2484.4306	1403.2	522.7
975.6267	2485.7789	1393.95	514
975.755	2487.1264	1397.2	514.75
975.8833	2488.4733	1391.45	512.6
976.0115	2489.8195	1406.2	507.95
976.1397	2491.165	1392.8	508.45
976.2678	2492.5097	1392.15	509.15
976.3959	2493.8538	1386.55	506.05
976.524	2495.1972	1389	508
976.6521	2496.5398	1385.45	501.15
976.7801	2497.8818	1387.65	504.3
976.9081	2499.2231	1377.85	498.05
977.036	2500.5637	1377.05	495.35
977.164	2501.9035	1381.15	500.3
977.2918	2503.2427	1382.55	497.4
977.4197	2504.5812	1378.6	498.8
977.5475	2505.919	1378.45	496
977.6753	2507.256	1379.3	497.5
977.8031	2508.5924	1377.35	497.6
977.9308	2509.9281	1374	485.35
978.0585	2511.2631	1369.3	490.6
978.1861	2512.5974	1366.45	484.95
978.3137	2513.9309	1369.55	486.4
978.4413	2515.2638	1397.05	490.25
978.5689	2516.596	1368.5	489.45
978.6964	2517.9275	1367.9	483.75
978.8239	2519.2583	1364.6	481.7
978.9513	2520.5884	1357.45	474.9
979.0788	2521.9178	1360.25	478
979.2062	2523.2465	1359.8	480.3
979.3335	2524.5745	1354.45	473.3
979.4608	2525.9018	1358.15	477.8
979.5881	2527.2284	1352.55	473.05
979.7154	2528.5543	1348.65	467.7
979.8426	2529.8796	1356.05	473.95
979.9698	2531.2041	1350.25	470.05
980.0969	2532.5279	1348.35	467.35
980.224	2533.851	1348.5	467.2
980.3511	2535.1735	1350.7	469.35
980.4781	2536.4952	1348	468.9
980.6052	2537.8163	1349.45	467.9
980.7321	2539.1366	1343.8	463.9
980.8591	2540.4562	1342.8	461.5
980.986	2541.7752	1340.45	460.05
981.1129	2543.0935	1341.75	462.3
981.2397	2544.411	1343.95	461.85
981.3665	2545.7279	1342.5	462.65
981.4933	2547.0441	1344.7	463.9
981.62	2548.3596	1346.8	461.1
981.7467	2549.6744	1337.35	457.25
981.8734	2550.9885	1342.4	451.9
982.0001	2552.3019	1327.6	447.15
982.1267	2553.6146	1329.05	447.7
982.2532	2554.9266	1329.35	447.9
982.3798	2556.2379	1332.95	449.55
982.5063	2557.5485	1319.2	439.3
982.6327	2558.8585	1333	444
982.7592	2560.1677	1333.1	450.85
982.8856	2561.4762	1326.4	444.95
983.0119	2562.7841	1324.3	439
983.1383	2564.0913	1325	446.1
983.2646	2565.3977	1318.2	437.5
983.3908	2566.7035	1321.6	439.5
983.517	2568.0086	1323.95	440.15
983.6432	2569.313	1322.25	441.9
983.7694	2570.6167	1319.4	433.5
983.8955	2571.9197	1314.7	435.65
984.0216	2573.222	1319.5	436.15
984.1476	2574.5236	1315.45	434.15
984.2737	2575.8246	1322.1	439.25
984.3996	2577.1248	1318.35	433.95
984.5256	2578.4244	1315.35	437.7
984.6515	2579.7232	1317.7	435.85
984.7774	2581.0214	1348.95	436.5
984.9032	2582.3189	1323.35	443.65
985.029	2583.6157	1321	436.4
985.1548	2584.9118	1324.75	443.8
985.2806	2586.2072	1322.4	442.65
985.4063	2587.5019	1321.4	438.95
985.5319	2588.7959	1326.3	445.9
985.6576	2590.0893	1323.1	440.75
985.7832	2591.3819	1321.9	441.1
985.9087	2592.6739	1320.5	442.3
986.0343	2593.9652	1330.75	448.35
986.1597	2595.2557	1329.65	449.7
986.2852	2596.5456	1328	444.85
986.4106	2597.8348	1326.25	446.55
986.536	2599.1234	1329.7	449.3
986.6614	2600.4112	1335.2	453.95
986.7867	2601.6983	1336.8	453.1
986.912	2602.9848	1327.05	447.55
987.0372	2604.2705	1332.7	443.5
987.1624	2605.5556	1328.2	448.4
987.2876	2606.84	1327.15	444.45
987.4128	2608.1237	1322.9	438.85
987.5379	2609.4067	1328.2	447.45
987.6629	2610.689	1330.6	441.15
987.788	2611.9707	1328.45	444
987.913	2613.2516	1324.4	440.1
988.0379	2614.5319	1315.45	434.85
988.1629	2615.8115	1321.1	439.15
988.2878	2617.0903	1314.25	431.85
988.4126	2618.3685	1321.55	440.5
988.5375	2619.6461	1318.2	437.65
988.6622	2620.9229	1322.8	442.65
988.787	2622.199	1316.15	433.35
988.9117	2623.4745	1319.6	436.65
989.0364	2624.7493	1308.85	428.55
989.161	2626.0234	1310.45	429.9
989.2857	2627.2968	1313.85	431.7
989.4102	2628.5695	1316.95	433.8
989.5348	2629.8415	1315.8	434.65
989.6593	2631.1128	1319.5	435.5
989.7837	2632.3835	1307.3	427.2
989.9082	2633.6535	1309.75	428.1
990.0326	2634.9228	1309.55	427.75
990.1569	2636.1914	1323.15	442.65
990.2812	2637.4593	1312.25	431.6
990.4055	2638.7265	1310.45	429.25
990.5298	2639.9931	1307.5	426.3
990.654	2641.259	1309.3	427.75
990.7782	2642.5242	1309.65	430.05
990.9023	2643.7887	1309	425.45
991.0264	2645.0525	1301.1	419.6
991.1505	2646.3156	1308.9	427.6
991.2745	2647.5781	1306.05	426.55
991.3985	2648.8398	1302.9	425.2
991.5225	2650.1009	1331.9	411.35
991.6464	2651.3613	1301.95	418.8
991.7703	2652.6211	1302.9	419.25
991.8942	2653.8801	1301.25	420.15
992.018	2655.1385	1296.05	411.8
992.1418	2656.3961	1297.4	417.8
992.2655	2657.6531	1305.35	422.35
992.3892	2658.9094	1300.75	418.8
992.5129	2660.1651	1297.5	417.65
992.6366	2661.42	1301.4	420.05
992.7602	2662.6743	1294.55	412.45
992.8837	2663.9279	1307.25	424.25
993.0073	2665.1808	1301.25	418.7
993.1307	2666.433	1306	423.15
993.2542	2667.6846	1302.1	422.5
993.3776	2668.9354	1304.25	419.35
993.501	2670.1856	1313.7	432.5
993.6244	2671.4351	1313.55	432.95
993.7477	2672.6839	1311.2	429.7
993.8709	2673.9321	1317.25	436.6
993.9942	2675.1795	1312.3	429.55
994.1174	2676.4263	1319	438.95
994.2405	2677.6724	1321.45	440.55
994.3637	2678.9179	1324.95	443.25
994.4868	2680.1626	1319.15	440.35
994.6098	2681.4067	1319.2	438.45
994.7328	2682.6501	1322	441.2
994.8558	2683.8928	1321.5	440.45
994.9788	2685.1348	1313.5	432.6
995.1017	2686.3761	1318.6	436.85
995.2245	2687.6168	1311.7	429.1
995.3474	2688.8568	1309.9	428.85
995.4702	2690.0961	1304.2	423.6
995.5929	2691.3348	1302.25	421.35
995.7156	2692.5727	1305.1	423.5
995.8383	2693.81	1304.15	422.1
995.961	2695.0466	1294.45	416.05
996.0836	2696.2826	1301.7	418.75
996.2062	2697.5178	1304.35	416.95
996.3287	2698.7524	1296.9	414.4
996.4512	2699.9863	1304.85	423.05
996.5737	2701.2195	1300.95	422.3
996.6961	2702.452	1308	426.3
996.8185	2703.6839	1307.05	425.05
996.9408	2704.9151	1307.4	429.1
997.0631	2706.1456	1312.35	429.8
997.1854	2707.3755	1323.35	441.5
997.3077	2708.6046	1331.75	446.55
997.4299	2709.8331	1337.2	453.3
997.552	2711.0609	1339.5	456.7
997.6742	2712.2881	1340	457.9
997.7963	2713.5145	1356.25	473.2
997.9183	2714.7403	1367.45	487.4
998.0403	2715.9654	1372.3	490.95
998.1623	2717.1899	1400.1	503.45
998.2842	2718.4136	1397.6	518.85
998.4062	2719.6367	1400.45	519.15
998.528	2720.8591	1420.25	533.35
998.6498	2722.0809	1420.4	538.65
998.7716	2723.3019	1429.85	547.3
998.8934	2724.5223	1436.2	553.8
999.0151	2725.7421	1442	555.95
999.1368	2726.9611	1445.05	560.1
999.2584	2728.1795	1441.15	554.05
999.38	2729.3972	1434.4	554.35
999.5016	2730.6142	1437.35	541.7
999.6231	2731.8306	1412.25	529.5
999.7446	2733.0462	1404.65	522.25
999.8661	2734.2612	1388.05	502.15
999.9875	2735.4756	1373.15	490.85
1000.1089	2736.6892	1356.05	474
1000.2302	2737.9022	1342.2	462.25
1000.3515	2739.1145	1334.65	454
1000.4728	2740.3262	1325.85	437.65
1000.594	2741.5372	1311.45	431.35
1000.7152	2742.7475	1308.45	424.65
1000.8363	2743.9571	1293.45	411.1
1000.9575	2745.1661	1299.35	413.9
1001.0785	2746.3744	1285.05	405.75
1001.1996	2747.582	1272.05	390.9
1001.3206	2748.7889	1267.65	383.55
1001.4415	2749.9952	1264.2	382.2
1001.5625	2751.2008	1260.7	377.8
1001.6833	2752.4057	1255.85	372.3
1001.8042	2753.61	1250.7	368.75
1001.925	2754.8136	1256.75	373.05
1002.0458	2756.0165	1255.35	374.85
1002.1665	2757.2188	1247.65	367.45
1002.2872	2758.4204	1256.3	376.55
1002.4078	2759.6213	1255.25	372.15
1002.5285	2760.8215	1257.8	370.95
1002.649	2762.0211	1253	370.8
1002.7696	2763.22	1260.15	375.8
1002.8901	2764.4182	1248.15	364.35
1003.0106	2765.6158	1246	362.45
1003.131	2766.8127	1242.45	360.95
1003.2514	2768.009	1240.5	360.65
1003.3717	2769.2045	1240.6	357.95
1003.492	2770.3994	1243.35	362.4
1003.6123	2771.5936	1239.7	358.95
1003.7325	2772.7872	1234	353.5
1003.8527	2773.9801	1233.85	352.65
1003.9729	2775.1723	1259.2	359.25
1004.093	2776.3639	1235.35	356.3
1004.2131	2777.5548	1240.95	357
1004.3331	2778.745	1230.4	347
1004.4531	2779.9346	1238.4	356.95
1004.5731	2781.1235	1246.3	363.5
1004.693	2782.3117	1242.25	361.45
1004.8129	2783.4992	1247.25	364.55
1004.9328	2784.6861	1252.15	371.55
1005.0526	2785.8723	1256.55	374.7
1005.1723	2787.0579	1260.8	378.45
1005.2921	2788.2428	1271.9	391.9
1005.4118	2789.427	1274.6	395.2
1005.5314	2790.6106	1290.45	409.7
1005.651	2791.7935	1301.75	421.45
1005.7706	2792.9757	1306.9	425.3
1005.8902	2794.1573	1321.95	438.85
1006.0097	2795.3382	1337.25	455.95
1006.1291	2796.5184	1341.45	460.65
1006.2485	2797.698	1361.95	477.8
1006.3679	2798.8769	1370.05	489
1006.4873	2800.0551	1389.05	506.2
1006.6066	2801.2327	1408.6	523.4
1006.7258	2802.4096	1419.25	537.05
1006.8451	2803.5859	1440	559.65
1006.9642	2804.7615	1460	579.5
1007.0834	2805.9364	1478.95	599
1007.2025	2807.1106	1502.35	620.5
1007.3216	2808.2842	1529.7	647.05
1007.4406	2809.4572	1555.65	675.15
1007.5596	2810.6294	1595.45	710.65
1007.6785	2811.801	1625.9	745.75
1007.7975	2812.972	1660.3	780.95
1007.9163	2814.1423	1703.85	822.55
1008.0352	2815.3119	1732.95	851.5
1008.154	2816.4808	1780.05	900.7
1008.2727	2817.6491	1821.2	938.25
1008.3914	2818.8167	1865.05	984.3
1008.5101	2819.9837	1902.2	1014.05
1008.6288	2821.15	1936.2	1056.25
1008.7474	2822.3157	1974.05	1094.25
1008.8659	2823.4807	2019	1138.8
1008.9844	2824.645	2050.65	1169.35
1009.1029	2825.8086	2088.95	1208.6
1009.2214	2826.9716	2127.05	1246.75
1009.3398	2828.134	2156.25	1275.05
1009.4581	2829.2957	2201.75	1319.75
1009.5764	2830.4567	2192.8	1314.7
1009.6947	2831.617	2227.95	1344.45
1009.813	2832.7767	2228.05	1345.7
1009.9312	2833.9358	2232	1352.7
1010.0493	2835.0941	2219.15	1335.1
1010.1675	2836.2519	2213.85	1334.8
1010.2855	2837.4089	2213.65	1331
1010.4036	2838.5653	2200.5	1319.6
1010.5216	2839.7211	2193.8	1312.65
1010.6396	2840.8761	2219.7	1335.5
1010.7575	2842.0306	2222.55	1343.6
1010.8754	2843.1843	2259.55	1380.45
1010.9932	2844.3374	2301.3	1422.6
1011.111	2845.4899	2352.35	1469.45
1011.2288	2846.6417	2413.85	1532.1
1011.3465	2847.7928	2477	1596.9
1011.4642	2848.9433	2553.8	1672.95
1011.5818	2850.0931	2617.4	1735.8
1011.6995	2851.2422	2685.25	1802.45
1011.817	2852.3907	2749.25	1868.05
1011.9345	2853.5385	2801.15	1918.2
1012.052	2854.6857	2862.15	1953.2
1012.1695	2855.8323	2895.3	2013.65
1012.2869	2856.9781	2931.5	2049.95
1012.4042	2858.1233	2965	2084.75
1012.5216	2859.2679	3013.3	2132.4
1012.6389	2860.4118	3046.1	2166.6
1012.7561	2861.555	3083.2	2198.95
1012.8733	2862.6976	3125.05	2242.6
1012.9905	2863.8395	3153.4	2271.6
1013.1076	2864.9808	3175.05	2294.5
1013.2247	2866.1214	3174.65	2294.8
1013.3417	2867.2614	3176	2293.7
1013.4587	2868.4007	3210.2	2328.65
1013.5757	2869.5393	3213	2329.65
1013.6926	2870.6773	3224.2	2340.25
1013.8095	2871.8146	3235.15	2350.1
1013.9263	2872.9513	3230.55	2345.6
1014.0431	2874.0874	3234.45	2353.2
1014.1599	2875.2227	3228.3	2347.05
1014.2766	2876.3574	3217.65	2333.9
1014.3933	2877.4915	3186.85	2305.85
1014.51	2878.6249	3161.95	2283
1014.6266	2879.7577	3158.05	2276.4
1014.7431	2880.8898	3148.4	2256.7
1014.8596	2882.0212	3114.85	2232.4
1014.9761	2883.152	3122.5	2239.85
1015.0925	2884.2821	3115.65	2233.95
1015.2089	2885.4116	3101.9	2223.6
1015.3253	2886.5405	3094.75	2214.05
1015.4416	2887.6686	3104	2218.75
1015.5579	2888.7962	3103.05	2224.15
1015.6741	2889.923	3111.45	2231
1015.7903	2891.0493	3132.75	2253.3
1015.9065	2892.1748	3117.75	2237.75
1016.0226	2893.2997	3147.45	2264.25
1016.1387	2894.424	3155.15	2275.5
1016.2547	2895.5476	3171.6	2290.05
1016.3707	2896.6706	3189.95	2310.95
1016.4866	2897.7929	3218.85	2337.25
1016.6025	2898.9145	3253.1	2369.8
1016.7184	2900.0355	3271.35	2390.25
1016.8342	2901.1559	3305.1	2422.15
1016.95	2902.2756	3326.65	2444.35
1017.0658	2903.3946	3358.5	2478.55
1017.1815	2904.513	3381.3	2497
1017.2971	2905.6308	3398	2518
1017.4127	2906.7479	3428.5	2545.5
1017.5283	2907.8643	3433.2	2551.4
1017.6439	2908.9801	3455.5	2574.05
1017.7594	2910.0953	3455.35	2573.45
1017.8748	2911.2098	3477.6	2594.35
1017.9902	2912.3236	3471.65	2583.6
1018.1056	2913.4368	3439.1	2553.3
1018.2209	2914.5494	3438.15	2558.85
1018.3362	2915.6613	3417.85	2527.65
1018.4515	2916.7725	3377.4	2494.7
1018.5667	2917.8831	3357.4	2475.9
1018.6819	2918.9931	3336.95	2452.25
1018.797	2920.1024	3318.05	2438.45
1018.9121	2921.211	3299.45	2417.5
1019.0271	2922.319	3275.5	2394.55
1019.1421	2923.4264	3254.3	2374.55
1019.2571	2924.5331	3252.85	2372.4
1019.372	2925.6391	3245.15	2365.25
1019.4869	2926.7445	3240.55	2360.4
1019.6017	2927.8493	3235.75	2353.05
1019.7165	2928.9534	3225.4	2344.4
1019.8313	2930.0569	3214.3	2329.05
1019.946	2931.1597	3202.65	2321.5
1020.0606	2932.2619	3203.8	2322.5
1020.1753	2933.3634	3205	2324.4
1020.2899	2934.4643	3203.25	2315.55
1020.4044	2935.5645	3177.7	2287.4
1020.5189	2936.6641	3148.15	2263.9
1020.6334	2937.763	3103.25	2223.65
1020.7478	2938.8613	3059.75	2178.7
1020.8622	2939.959	3025.6	2137.05
1020.9765	2941.056	2956.75	2075.35
1021.0908	2942.1523	2884	2001.6
1021.2051	2943.248	2802.45	1922.1
1021.3193	2944.3431	2731.9	1851.25
1021.4334	2945.4375	2638.05	1757.35
1021.5476	2946.5313	2555.35	1676.75
1021.6617	2947.6244	2457	1574.25
1021.7757	2948.7169	2365.45	1483.85
1021.8897	2949.8087	2301	1419
1022.0037	2950.8999	2224.2	1342.45
1022.1176	2951.9904	2156.4	1274.45
1022.2315	2953.0803	2098.85	1216.2
1022.3453	2954.1696	2049.5	1169.4
1022.4591	2955.2582	2003.15	1119.4
1022.5728	2956.3462	1953.7	1073.55
1022.6865	2957.4335	1930.1	1045.8
1022.8002	2958.5202	1896.65	1012.55
1022.9138	2959.6062	1869.35	989.6
1023.0274	2960.6916	1858.65	978.25
1023.141	2961.7764	1847.75	964
1023.2545	2962.8605	1835.65	956.4
1023.3679	2963.9439	1821.7	939.55
1023.4813	2965.0267	1812.9	931.8
1023.5947	2966.1089	1832.05	925.6
1023.708	2967.1905	1792.4	911.1
1023.8213	2968.2714	1795.4	915.05
1023.9346	2969.3516	1805.15	926.75
1024.0478	2970.4312	1804.05	916.3
1024.1609	2971.5102	1804.6	923.7
1024.274	2972.5885	1801.2	922.4
1024.3871	2973.6662	1799.4	913.9
1024.5002	2974.7432	1794.25	911.9
1024.6132	2975.8196	1790.85	908.8
1024.7261	2976.8954	1785.1	906.95
1024.839	2977.9705	1774.75	893.2
1024.9519	2979.045	1762.9	880.8
1025.0647	2980.1188	1749.4	868.6
1025.1775	2981.192	1731.45	851.35
1025.2902	2982.2645	1718.6	835.85
1025.4029	2983.3364	1696.55	816.55
1025.5156	2984.4077	1667	786.3
1025.6282	2985.4783	1654.4	768.2
1025.7407	2986.5483	1620.95	743.5
1025.8532	2987.6177	1588.15	708.5
1025.9657	2988.6864	1559.35	677
1026.0782	2989.7545	1535.25	654.3
1026.1906	2990.8219	1503.85	624.6
1026.3029	2991.8887	1472.75	590.1
1026.4152	2992.9548	1448.5	567.9
1026.5275	2994.0204	1423.65	542.75
1026.6397	2995.0852	1398.15	518.75
1026.7519	2996.1495	1384.05	501.45
1026.864	2997.2131	1361.85	481.45
1026.9761	2998.276	1344.75	464.05
1027.0882	2999.3383	1326.45	443.6
1027.2002	3000.4	1310.7	428.35
1027.3122	3001.4611	1297.3	415.4
1027.4241	3002.5215	1286.3	405
1027.536	3003.5812	1274.9	396.55
1027.6478	3004.6404	1266.15	385.95
1027.7596	3005.6989	1263.1	380.95
1027.8714	3006.7567	1259.45	378.7
1027.9831	3007.8139	1282.15	374.05
1028.0947	3008.8705	1243	362.85
1028.2064	3009.9264	1240	356.6
1028.3179	3010.9818	1233.95	353.7
1028.4295	3012.0364	1232	351.95
1028.541	3013.0905	1227.95	347.2
1028.6524	3014.1439	1227.4	345.25
1028.7638	3015.1966	1221.55	340.25
1028.8752	3016.2487	1228.5	347.45
1028.9865	3017.3002	1231.95	346.3
1029.0978	3018.3511	1222.2	342
1029.209	3019.4013	1231.8	352.3
1029.3202	3020.4509	1222.2	339.4
1029.4314	3021.4998	1227.1	346.45
1029.5425	3022.5481	1226.45	346.1
1029.6535	3023.5958	1230.3	349.2
1029.7645	3024.6428	1230.4	350.75
1029.8755	3025.6892	1235.55	354.6
1029.9864	3026.735	1235.55	356
1030.0973	3027.7802	1235.05	351.55
1030.2082	3028.8247	1235.5	355.45
1030.319	3029.8685	1246.25	363.2
1030.4297	3030.9118	1243	361.85
1030.5404	3031.9544	1241.6	361.45
1030.6511	3032.9963	1257.75	376.95
1030.7617	3034.0376	1257.55	378.45
1030.8723	3035.0783	1262.35	380.2
1030.9829	3036.1184	1265.5	384.25
1031.0934	3037.1578	1270.2	391.1
1031.2038	3038.1966	1265.55	383.9
1031.3142	3039.2348	1263.55	381.95
1031.4246	3040.2723	1281.75	395.05
1031.5349	3041.3092	1264.9	384.95
1031.6452	3042.3455	1265.05	385.8
1031.7554	3043.3811	1267.85	386.35
1031.8656	3044.4161	1259.6	377.95
1031.9758	3045.4505	1257.5	378.7
1032.0859	3046.4842	1256.15	375.3
1032.1959	3047.5173	1240.6	358.2
1032.3059	3048.5498	1243.95	363.65
1032.4159	3049.5816	1232.85	351.75
1032.5258	3050.6128	1231.15	347.55
1032.6357	3051.6434	1230.55	348.5
1032.7455	3052.6734	1225.05	345.3
1032.8553	3053.7027	1211.75	329.95
1032.9651	3054.7314	1207.55	327.25
1033.0748	3055.7594	1202.25	323.1
1033.1845	3056.7868	1200.95	320.4
1033.2941	3057.8136	1195.5	315.5
1033.4037	3058.8398	1190.95	311.1
1033.5132	3059.8653	1192.6	310.1
1033.6227	3060.8902	1186.45	304.9
1033.7321	3061.9145	1185.3	303.3
1033.8415	3062.9381	1174.7	293.95
1033.9509	3063.9612	1187.35	291.5
1034.0602	3064.9835	1171.25	290
1034.1694	3066.0053	1166.1	282.65
1034.2787	3067.0264	1153.55	273.1
1034.3878	3068.0469	1149.85	267.15
1034.497	3069.0668	1145.2	260.65
1034.6061	3070.086	1133.3	252.7
1034.7151	3071.1046	1133.4	249.9
1034.8241	3072.1226	1127.4	245
1034.9331	3073.1399	1112.25	230.85
1035.042	3074.1567	1107.4	225.5
1035.1508	3075.1727	1099.8	217.25
1035.2597	3076.1882	1090.7	210.3
1035.3684	3077.203	1086.8	206.85
1035.4772	3078.2173	1079.7	197.3
1035.5859	3079.2308	1076.65	191.6
1035.6945	3080.2438	1066.7	183.1
1035.8031	3081.2561	1059.5	178.15
1035.9117	3082.2678	1053.25	172.35
1036.0202	3083.2789	1049	165.9
1036.1286	3084.2893	1044.45	164.2
1036.2371	3085.2991	1036	154.8
1036.3454	3086.3083	1035.35	151.9
1036.4538	3087.3169	1032.7	152.3
1036.562	3088.3248	1028	145.25
1036.6703	3089.3321	1023.7	141.15
1036.7785	3090.3388	1019.05	138.55
1036.8866	3091.3449	1015.95	134.45
1036.9948	3092.3503	1017	133.4
1037.1028	3093.3551	1009.65	131.75
1037.2108	3094.3593	1008.5	128
1037.3188	3095.3629	1007.5	128.4
1037.4267	3096.3658	1006.4	125.45
1037.5346	3097.3681	1003.4	123.35
1037.6425	3098.3698	1001.7	120.8
1037.7503	3099.3708	1005.2	118.5
1037.858	3100.3713	995.1	118.25
1037.9657	3101.3711	991.05	108.25
1038.0734	3102.3702	1125.5	103.65
1038.181	3103.3688	995.3	111.95
1038.2886	3104.3667	989.7	109.25
1038.3961	3105.364	987.45	106.2
1038.5036	3106.3607	986.1	102.7
1038.611	3107.3568	984.55	104.55
1038.7184	3108.3522	981.65	103.95
1038.8257	3109.347	982.55	101.95
1038.933	3110.3412	986.5	100.35
1039.0403	3111.3348	980.7	100.55
1039.1475	3112.3277	981.4	101.35
1039.2547	3113.32	976.75	97.4
1039.3618	3114.3117	976.7	95.9
1039.4689	3115.3028	976.3	95.4
1039.5759	3116.2932	977.35	94.75
1039.6829	3117.2831	978.25	93.2
1039.7898	3118.2723	977.75	96.9
1039.8967	3119.2608	971.5	91.3
1040.0035	3120.2488	971.6	89.9
1040.1103	3121.2361	971.15	90.35
1040.2171	3122.2229	967.65	87.05
1040.3238	3123.209	972.3	91.15
1040.4305	3124.1944	967.2	85.95
1040.5371	3125.1793	969.6	87.45
1040.6437	3126.1635	967.9	87.75
1040.7502	3127.1471	963.15	83.5
1040.8567	3128.1301	966.7	85.25
1040.9631	3129.1125	965.75	88.5
1041.0695	3130.0942	964.75	84.6
1041.1759	3131.0753	970.75	79.85
1041.2822	3132.0558	968.95	84.6
1041.3884	3133.0357	962.65	80.15
1041.4946	3134.015	961.7	79.05
1041.6008	3134.9936	962.6	79.2
1041.7069	3135.9716	982.05	78.15
1041.813	3136.949	961.05	82
1041.919	3137.9258	977.15	77.5
1042.025	3138.902	963.9	78.15
1042.1309	3139.8775	953.75	73.85
1042.2368	3140.8524	953.4	72.2
1042.3427	3141.8267	956.55	73.7
1042.4485	3142.8004	955.35	73.5
1042.5542	3143.7735	957.3	71.9
1042.6599	3144.7459	955.85	72.8
1042.7656	3145.7178	951.9	69.35
1042.8712	3146.689	950	70.35
1042.9768	3147.6596	950.45	66.55
1043.0823	3148.6295	948.75	67.75
1043.1878	3149.5989	948.65	67.15
1043.2932	3150.5676	945.7	67.4
1043.3986	3151.5357	945.6	65.95
1043.5039	3152.5032	946.95	67.15
1043.6092	3153.4701	946.65	67.6
1043.7145	3154.4364	949.25	64.85
1043.8197	3155.402	945.45	63.6
1043.9248	3156.367	945.3	63.9
1044.03	3157.3315	982.15	64.45
1044.135	3158.2952	941.7	60.85
1044.24	3159.2584	942.95	63.7
1044.345	3160.221	944.2	61.55
1044.4499	3161.1829	937.7	58.1
1044.5548	3162.1442	940.7	59.3
1044.6596	3163.105	942.65	62.75
1044.7644	3164.065	936.6	56.95
1044.8692	3165.0245	942.5	58.5
1044.9739	3165.9834	937.2	59.45
1045.0785	3166.9416	940.4	61.9
1045.1831	3167.8993	936.7	55.95
1045.2877	3168.8563	938.9	58.9
1045.3922	3169.8127	934.15	52.5
1045.4966	3170.7684	935.8	55.45
1045.6011	3171.7236	937.6	55.65
1045.7054	3172.6782	936.75	57.65
1045.8098	3173.6321	937.55	55.5
1045.914	3174.5854	941.25	55.2
1046.0183	3175.5381	936	57.15
1046.1224	3176.4902	933.35	53.5
1046.2266	3177.4417	934.05	55.55
1046.3307	3178.3926	932.2	53.35
1046.4347	3179.3428	931.15	51.8
1046.5387	3180.2924	933.2	54.95
1046.6427	3181.2415	933.55	51.2
1046.7466	3182.1899	937.6	55.45
1046.8504	3183.1377	932.55	53.6
1046.9542	3184.0848	934	49.7
1047.058	3185.0314	933.05	49.85
1047.1617	3185.9773	931.45	49.65
1047.2654	3186.9227	931.9	48.65
1047.369	3187.8674	928.5	49.5
1047.4726	3188.8115	936.2	49.6
1047.5761	3189.755	931.2	52.75
1047.6796	3190.6979	929.95	48.8
1047.783	3191.6402	927.65	48.25
1047.8864	3192.5818	929.15	48.9
1047.9898	3193.5229	960.15	51.4
1048.0931	3194.4633	931.5	51.55
1048.1963	3195.4031	928.15	47.55
1048.2995	3196.3423	928.85	47.95
1048.4027	3197.2809	928.2	49.05
1048.5058	3198.2189	927.4	45.6
1048.6089	3199.1563	943.7	46.75
1048.7119	3200.0931	926.45	48.85
1048.8148	3201.0292	927.95	46.9
1048.9178	3201.9648	925.6	46.35
1049.0206	3202.8997	927.85	45.45
1049.1235	3203.834	927.6	47.45
1049.2262	3204.7677	927.75	48.9
1049.329	3205.7008	927.75	44.2
1049.4317	3206.6333	923.45	45
1049.5343	3207.5652	928.7	44.4
1049.6369	3208.4964	925.15	46.2
1049.7394	3209.4271	924.35	42.7
1049.8419	3210.3571	921.2	40.6
1049.9444	3211.2865	925.25	44.95
1050.0468	3212.2154	922.55	41.05
1050.1491	3213.1436	926.25	42.5
1050.2514	3214.0712	931.2	44.5
1050.3537	3214.9982	923.2	41.2
1050.4559	3215.9246	921.95	42.15
1050.5581	3216.8503	919.35	38.3
1050.6602	3217.7755	921.9	40.75
1050.7623	3218.7001	921.95	43.65
1050.8643	3219.624	921	38.45
1050.9663	3220.5473	923.5	43.15
1051.0682	3221.4701	922.5	37.75
1051.1701	3222.3922	924.25	41.35
1051.2719	3223.3137	919.6	41.45
1051.3737	3224.2346	921	41
1051.4754	3225.1549	920	39.9
1051.5771	3226.0746	918.6	37.7
1051.6788	3226.9937	918.6	36.9
1051.7804	3227.9121	918.35	42.3
1051.8819	3228.83	921.95	40.5
1051.9834	3229.7473	920.85	41.65
1052.0849	3230.6639	918.4	37.5
1052.1863	3231.5799	916.4	36.2
1052.2876	3232.4954	919.35	38.5
1052.3889	3233.4102	919.1	39
1052.4902	3234.3244	918	36.1
1052.5914	3235.238	918.45	38.4
1052.6926	3236.151	939.4	33.25
1052.7937	3237.0634	917.9	41.25
1052.8948	3237.9752	919.65	39.25
1052.9958	3238.8864	917.95	36.3
1053.0968	3239.797	916.15	36.45
1053.1977	3240.7069	919.75	36.65
1053.2986	3241.6163	917.75	35.1
1053.3994	3242.5251	915.55	36.2
1053.5002	3243.4332	916.45	36.55
1053.6009	3244.3408	915.65	34.7
1053.7016	3245.2477	915.35	34.2
1053.8022	3246.154	918	35.3
1053.9028	3247.0598	917.2	34.85
1054.0034	3247.9649	914.9	34.75
1054.1039	3248.8694	914.4	33.4
1054.2043	3249.7733	914.85	34.05
1054.3047	3250.6766	913.3	33.85
1054.4051	3251.5793	914.5	33.55
1054.5054	3252.4814	914.5	35.5
1054.6056	3253.3829	912.1	32.9
1054.7058	3254.2838	912.1	31.35
1054.806	3255.1841	912.5	33.35
1054.9061	3256.0838	912.15	31.4
1055.0061	3256.9829	909.35	30.95
1055.1062	3257.8814	912	29.95
1055.2061	3258.7792	914.25	31.55
1055.306	3259.6765	913.2	31.55
1055.4059	3260.5731	909.05	28.95
1055.5057	3261.4692	908.15	26.4
1055.6055	3262.3647	909.85	27.4
1055.7052	3263.2595	910.5	28.95
1055.8049	3264.1538	908.4	27.5
1055.9045	3265.0474	907.3	28.5
1056.0041	3265.9404	906	25.45
1056.1036	3266.8329	907	26.9
1056.2031	3267.7247	917.5	28
1056.3025	3268.616	906.1	28
1056.4019	3269.5066	902.6	23.7
1056.5013	3270.3966	905.1	21.45
1056.6005	3271.286	902.45	23.7
