Software Version:	3.9.2.0
Unit SN:	10000200
Spectrometer SN:	6960
Date:	3/14/2024 1:09:17 PM
Data Line Index:	25
Spectral Points:	2048
Integration time (ms):	125
Averages:	20
Delay (ms):	30000
Sequence Number:	1
Processing:	dark subtract
Laser Power (mW):	305
Laser Current (mA):	823
Laser Diode Temp (C):	25
Laser Case Temp (C):	28.1
System Temp (C):	28.1
Spectrometer Temp (C):	25.9
CCD Temp (C):	-0.002
Secondary Temp (C):	20.008
Heatsink Temp (C):	23.99
CCDPCB Temp (C):	37.574
SecondaryPCB Temp (C):	35.306

Wavelength	RamanShift	Raw Counts	Dark Subtracted
787.061	30.1047	444.8	32.7
787.2016	32.3739	444.6	34.3
787.3422	34.6426	450.3	39.15
787.4828	36.9109	453.65	39.55
787.6235	39.1787	462.3	43.7
787.7642	41.4461	469.35	47.5
787.9049	43.7131	476.55	49.65
788.0456	45.9796	482.75	52.2
788.1863	48.2456	488.15	54.55
788.3271	50.5112	499.65	62
788.4679	52.7764	503.4	65.3
788.6087	55.0411	512.35	69.95
788.7496	57.3054	520.9	74.15
788.8904	59.5692	530.85	81.2
789.0313	61.8326	538.7	85.3
789.1722	64.0955	548.65	90.9
789.3132	66.3579	560.45	96.75
789.4541	68.6199	578.3	113
789.5951	70.8815	601.75	131.5
789.7361	73.1426	662.75	191
789.8771	75.4032	806.9	331.05
790.0181	77.6634	1180.4	698.45
790.1592	79.9231	2038.8	1551.3
790.3003	82.1824	3881.9	3386.55
790.4414	84.4412	7211.65	6705.6
790.5825	86.6995	11762.55	11239.25
790.7237	88.9574	16224.75	15689.45
790.8648	91.2148	19277.75	18731.6
791.006	93.4717	20714.85	20163
791.1472	95.7282	20923.8	20366.6
791.2885	97.9842	20770.2	20211.65
791.4297	100.2398	20223.1	19662.8
791.571	102.4949	19618.45	19054.9
791.7123	104.7495	18984.15	18416.45
791.8536	107.0036	18301	17733.5
791.9949	109.2573	17699.55	17131.7
792.1363	111.5105	17151.2	16581.65
792.2777	113.7632	16666.6	16092.35
792.4191	116.0154	16227.1	15645.55
792.5605	118.2672	15921.05	15344.25
792.7019	120.5185	15629.45	15055.2
792.8434	122.7693	15401.2	14822.3
792.9849	125.0197	15216.7	14634
793.1264	127.2696	14983	14399.2
793.2679	129.519	14864.55	14281.45
793.4094	131.7679	14678.7	14090.55
793.551	134.0163	14467.85	13874.4
793.6926	136.2642	14244.3	13646.7
793.8342	138.5117	13997.85	13396.45
793.9758	140.7587	13717.4	13116.45
794.1175	143.0052	13468.8	12863.45
794.2591	145.2512	13206.25	12605.15
794.4008	147.4967	12952.8	12348.85
794.5425	149.7417	12789.2	12180.65
794.6842	151.9863	12635.45	12026.2
794.826	154.2304	12562.15	11947.75
794.9677	156.4739	12445.75	11825.2
795.1095	158.717	12386.95	11766.25
795.2513	160.9596	12290.5	11666.2
795.3931	163.2017	12109.4	11482.15
795.535	165.4433	11889.45	11260.9
795.6768	167.6844	11671.45	11042.3
795.8187	169.925	11439.25	10807.05
795.9606	172.1651	11165.7	10531.5
796.1025	174.4047	10976.6	10334.65
796.2445	176.6439	10804.35	10162.5
796.3864	178.8825	10624.6	9980.55
796.5284	181.1206	10508.8	9859.55
796.6704	183.3582	10405	9753.6
796.8124	185.5954	10351.45	9700
796.9544	187.832	10285.75	9630.1
797.0965	190.0681	10267.25	9609.05
797.2386	192.3037	10248.35	9587.75
797.3806	194.5388	10208.6	9543.25
797.5228	196.7734	10234.75	9567.6
797.6649	199.0075	10266.45	9595.9
797.807	201.2411	10355.7	9681.85
797.9492	203.4742	10410.85	9735.8
798.0914	205.7068	10517.75	9844
798.2336	207.9389	10604	9929.6
798.3758	210.1704	10713.3	10035.8
798.518	212.4015	10757.5	10075.65
798.6603	214.632	10849.45	10167.55
798.8025	216.862	10970.2	10293.05
798.9448	219.0915	11011.5	10344.35
799.0871	221.3205	11075.1	10411.2
799.2294	223.549	11113.6	10454.75
799.3718	225.777	11190.75	10532.2
799.5141	228.0044	11239.7	10578.35
799.6565	230.2314	11323	10665.55
799.7989	232.4578	11403.85	10739.85
799.9413	234.6837	11483.75	10815.2
800.0837	236.909	11511.2	10843.25
800.2262	239.1339	11499.45	10807.95
800.3687	241.3582	11446.4	10766.5
800.5111	243.582	11412.75	10703.95
800.6536	245.8053	11340.45	10642
800.7961	248.0281	11285.75	10590
800.9387	250.2503	11280.25	10584.3
801.0812	252.472	11295.05	10592.65
801.2238	254.6932	11355.5	10649.8
801.3664	256.9139	11394.4	10687.95
801.509	259.134	11552.4	10840.9
801.6516	261.3536	11707.3	10998.55
801.7942	263.5727	11933	11221.4
801.9369	265.7912	12085	11374.95
802.0795	268.0092	12315.6	11604.3
802.2222	270.2267	12477.45	11765.25
802.3649	272.4436	12584.85	11870
802.5076	274.6601	12612.05	11888.9
802.6504	276.8759	12574.95	11859.4
802.7931	279.0913	12519.55	11804.1
802.9359	281.3061	12428.05	11707.45
803.0787	283.5204	12389.6	11664.8
803.2215	285.7341	12376.4	11651.4
803.3643	287.9473	12353.75	11626.6
803.5071	290.16	12385.5	11653.2
803.6499	292.3721	12443.75	11716.6
803.7928	294.5837	12562.25	11833.2
803.9357	296.7947	12665.4	11938.55
804.0786	299.0052	12803.05	12073.15
804.2215	301.2152	12793.3	12061.5
804.3644	303.4246	12729.25	12000.65
804.5074	305.6334	12467.45	11737.6
804.6503	307.8418	12220.5	11490
804.7933	310.0495	11897.7	11164
804.9363	312.2568	11603.3	10872.6
805.0793	314.4635	11267.35	10533.35
805.2223	316.6696	11046.1	10310.7
805.3653	318.8752	10870.8	10128.85
805.5084	321.0802	10791.05	10053.75
805.6514	323.2847	10787.75	10050.35
805.7945	325.4887	10810	10072.65
805.9376	327.692	10812.3	10073.5
806.0807	329.8949	10797.15	10054.5
806.2238	332.0972	10709	9967.75
806.367	334.2989	10576.75	9830.3
806.5101	336.5001	10350.15	9603.8
806.6533	338.7007	10196.85	9449.9
806.7965	340.9008	10082.9	9334.35
806.9397	343.1003	9954.5	9202.8
807.0829	345.2992	9862.25	9109.4
807.2261	347.4976	9757.4	9003.85
807.3693	349.6955	9698.7	8941.95
807.5126	351.8927	9671.35	8914.7
807.6559	354.0895	9575.75	8810.35
807.7991	356.2856	9582.15	8823.4
807.9424	358.4812	9523.4	8763.7
808.0857	360.6763	9523.2	8761.25
808.2291	362.8707	9500.4	8741.1
808.3724	365.0646	9499.95	8737.8
808.5158	367.258	9539.4	8776.15
808.6591	369.4508	9574.6	8805.55
808.8025	371.643	9678.9	8910.5
808.9459	373.8346	9720	8949.65
809.0893	376.0257	9785.6	9012.35
809.2327	378.2162	9831.35	9054.6
809.3762	380.4062	9839.1	9062.8
809.5196	382.5956	9753.85	8973
809.6631	384.7844	9639.6	8862.7
809.8066	386.9726	9558.85	8779.8
809.9501	389.1603	9484.1	8704.45
810.0936	391.3474	9424.95	8611.75
810.2371	393.5339	9379.75	8599.5
810.3806	395.7199	9365.35	8591.3
810.5241	397.9052	9402.15	8630.95
810.6677	400.09	9441	8671.5
810.8113	402.2743	9555.05	8786.2
810.9548	404.4579	9660.3	8889.4
811.0984	406.641	9820.6	9050.05
811.2421	408.8235	9922.4	9151.6
811.3857	411.0054	10039.4	9267.75
811.5293	413.1868	10167.3	9393.4
811.673	415.3675	10216.3	9440.55
811.8166	417.5477	10222.85	9444.8
811.9603	419.7273	10196.25	9414.6
812.104	421.9064	10109.4	9323.7
812.2477	424.0848	10037	9253.75
812.3914	426.2627	9906.1	9120.35
812.5351	428.4399	9739.15	8950.8
812.6788	430.6166	9518.45	8727.35
812.8226	432.7928	9261.95	8470.55
812.9663	434.9683	9046.1	8254.8
813.1101	437.1432	8866.85	8069.55
813.2539	439.3176	8734.7	7938.3
813.3977	441.4914	8655.35	7860.95
813.5415	443.6645	8596.7	7798.2
813.6853	445.8371	8568	7769.75
813.8291	448.0091	8527.2	7728.95
813.973	450.1806	8508.2	7708.55
814.1168	452.3514	8491.1	7692.15
814.2607	454.5216	8504.4	7694.75
814.4046	456.6913	8503.45	7702.75
814.5485	458.8603	8531.25	7731.7
814.6924	461.0288	8556.15	7755.05
814.8363	463.1967	8543.55	7742.2
814.9802	465.3639	8567.75	7764.35
815.1241	467.5306	8550.7	7746.6
815.2681	469.6967	8549.9	7745.75
815.412	471.8622	8562	7759.1
815.556	474.0271	8564.25	7759.95
815.7	476.1914	8596.9	7789.4
815.844	478.3551	8598.25	7791.1
815.988	480.5182	8621.8	7816.75
816.132	482.6807	8667.7	7858.75
816.276	484.8426	8805.1	7998.15
816.4201	487.0039	9034.4	8225.65
816.5641	489.1647	9317.2	8508.95
816.7082	491.3248	9548.65	8742.1
816.8522	493.4843	9610.25	8801.7
816.9963	495.6432	9554.7	8745.05
817.1404	497.8015	9452.1	8639.2
817.2845	499.9592	9356.7	8546.05
817.4286	502.1163	9204.5	8394.55
817.5727	504.2728	8998.25	8182.5
817.7168	506.4287	8758.6	7945.7
817.861	508.5839	8578.05	7764
818.0051	510.7386	8398.05	7587.15
818.1493	512.8927	8335.45	7515.25
818.2935	515.0461	8306.05	7491.5
818.4377	517.199	8355.6	7541.35
818.5818	519.3512	8478.35	7661.5
818.726	521.5029	8671.7	7850.4
818.8703	523.6539	8877.05	8061.5
819.0145	525.8043	8979.05	8161.9
819.1587	527.9541	8913.25	8093.35
819.303	530.1033	8780.25	7959.9
819.4472	532.2519	8637.2	7817.4
819.5915	534.3999	8567.75	7745.45
819.7357	536.5472	8601.8	7781.85
819.88	538.694	8735.8	7913.5
820.0243	540.8401	8910.35	8084.1
820.1686	542.9856	9069.6	8244.35
820.3129	545.1305	9080.55	8257.85
820.4572	547.2748	9024.3	8201.8
820.6016	549.4185	8896.1	8071.05
820.7459	551.5615	8804.75	7980.5
820.8902	553.704	8794.5	7970.8
821.0346	555.8458	8829.5	8005.85
821.1789	557.987	8948.3	8122.3
821.3233	560.1276	9105.2	8278.25
821.4677	562.2675	9384.45	8559.05
821.6121	564.4069	9763.65	8941.3
821.7565	566.5456	10082.7	9259.1
821.9009	568.6837	10227.1	9400
822.0453	570.8212	9950.55	9127.25
822.1897	572.958	9465.7	8639.55
822.3342	575.0942	8946.9	8124.3
822.4786	577.2299	8609.25	7783.9
822.6231	579.3648	8456.8	7631.25
822.7675	581.4992	8408.65	7584.15
822.912	583.6329	8444.8	7620.45
823.0565	585.766	8573.45	7746.8
823.201	587.8985	8682.7	7854.9
823.3454	590.0304	8772.55	7920.15
823.4899	592.1616	8745.75	7912.6
823.6345	594.2922	8660.65	7829.75
823.779	596.4222	8483.35	7653.2
823.9235	598.5515	8343.25	7512.1
824.068	600.6802	8216.55	7387.7
824.2126	602.8083	8077.4	7245.7
824.3571	604.9358	8072.25	7238.75
824.5017	607.0626	8072.05	7239.85
824.6462	609.1888	8152.5	7318.8
824.7908	611.3144	8254.85	7422.65
824.9354	613.4393	8363.3	7530.45
825.08	615.5636	8450.15	7616.95
825.2246	617.6873	8511.3	7677.4
825.3692	619.8103	8455.6	7620.1
825.5138	621.9327	8314.4	7478.4
825.6584	624.0544	8136.4	7303.05
825.803	626.1756	8000.6	7165.3
825.9477	628.2961	7871.2	7035.9
826.0923	630.4159	7807.35	6969.85
826.237	632.5351	7796.95	6961.6
826.3816	634.6537	7788.7	6952.6
826.5263	636.7716	7775.25	6938.3
826.6709	638.8889	7789	6953.65
826.8156	641.0056	7793.4	6954.3
826.9603	643.1216	7777.5	6939.85
827.105	645.237	7770.5	6928.6
827.2497	647.3518	7690.45	6849.75
827.3944	649.4659	7634.9	6798.05
827.5391	651.5793	7601.45	6761.2
827.6838	653.6922	7553.05	6714.75
827.8285	655.8043	7537.65	6697.7
827.9733	657.9159	7544.6	6704.75
828.118	660.0268	7533.55	6690.25
828.2627	662.137	7516.65	6673.9
828.4075	664.2466	7505.2	6663.05
828.5522	666.3556	7510.6	6669.25
828.697	668.4639	7477.7	6632.65
828.8418	670.5716	7458.9	6617.3
828.9865	672.6786	7403.3	6556.85
829.1313	674.785	7359.4	6514.35
829.2761	676.8907	7326.6	6483.55
829.4209	678.9958	7336.25	6491.15
829.5657	681.1002	7313.9	6468.6
829.7105	683.204	7298.2	6448.15
829.8553	685.3072	7296.55	6452.95
830.0001	687.4097	7264.3	6417.6
830.1449	689.5115	7234.45	6386.85
830.2898	691.6127	7234.85	6389.35
830.4346	693.7132	7245.1	6396.65
830.5794	695.8131	7236.8	6376.7
830.7243	697.9123	7245	6396.9
830.8691	700.0109	7281.15	6435.1
831.014	702.1089	7305.95	6458.5
831.1588	704.2061	7334	6485.3
831.3037	706.3028	7391.8	6541.95
831.4486	708.3987	7423.6	6573.55
831.5935	710.4941	7412.6	6564.6
831.7383	712.5887	7449.35	6598.85
831.8832	714.6827	7516.65	6663.85
832.0281	716.7761	7579.8	6730.6
832.173	718.8688	7689.8	6839.35
832.3179	720.9608	7794.35	6940.05
832.4628	723.0522	7893.2	7039.5
832.6077	725.1429	7931.9	7080
832.7527	727.233	7984.95	7135.55
832.8976	729.3224	8067.75	7214.65
833.0425	731.4112	8019.35	7165.95
833.1874	733.4993	7914.45	7059.85
833.3324	735.5867	7743.1	6888.45
833.4773	737.6735	7566.55	6713.2
833.6222	739.7596	7427.1	6572.65
833.7672	741.845	7305.45	6452.3
833.9122	743.9298	7252.6	6397.75
834.0571	746.014	7215.95	6362.05
834.2021	748.0974	7203.5	6348.25
834.347	750.1802	7198.55	6345.15
834.492	752.2624	7192.7	6339.1
834.637	754.3439	7227.85	6371.3
834.782	756.4247	7291.8	6429.2
834.9269	758.5048	7411.05	6555.1
835.0719	760.5843	7588.65	6733.3
835.2169	762.6631	7832.05	6976.95
835.3619	764.7413	8254.55	7398.7
835.5069	766.8188	8753.15	7895.65
835.6519	768.8956	9201.65	8345.05
835.7969	770.9718	9522.55	8665.4
835.9419	773.0473	9521.9	8666.7
836.0869	775.1221	9348.95	8492.35
836.232	777.1962	9143.5	8286.45
836.377	779.2697	9124.35	8266.05
836.522	781.3426	9186.3	8321.3
836.667	783.4147	9287.25	8428.85
836.8121	785.4862	9325.5	8469.6
836.9571	787.557	9175.9	8317.25
837.1021	789.6271	8853.4	7994.7
837.2472	791.6966	8366.05	7507.6
837.3922	793.7654	7907.45	7048.15
837.5373	795.8335	7560.1	6702.6
837.6823	797.901	7312.4	6455
837.8274	799.9678	7200.55	6340.25
837.9724	802.0339	7120.7	6262.85
838.1175	804.0993	7106.45	6237.55
838.2626	806.1641	7031.25	6170.4
838.4076	808.2282	7002.55	6143.05
838.5527	810.2916	6930.75	6067.25
838.6978	812.3544	6863.65	6004.35
838.8428	814.4164	6826.15	5967.1
838.9879	816.4778	6843.75	5984.55
839.133	818.5385	6857.8	5997.75
839.2781	820.5986	6947.75	6088.15
839.4232	822.658	7128.2	6268.3
839.5682	824.7166	7349.3	6488.7
839.7133	826.7747	7724.45	6864.85
839.8584	828.832	8128.8	7268.55
840.0035	830.8886	8449.2	7587.45
840.1486	832.9446	8626.5	7763.8
840.2937	834.9999	8546.6	7686.25
840.4388	837.0545	8320.8	7457.55
840.5839	839.1085	8025.1	7164.4
840.729	841.1618	7783.6	6918.05
840.8741	843.2143	7591.05	6728.7
841.0192	845.2662	7411.35	6548.4
841.1643	847.3175	7300.9	6439
841.3095	849.368	7222.1	6358.15
841.4546	851.4179	7164.65	6305.15
841.5997	853.467	7084	6221.4
841.7448	855.5155	7038.3	6172.8
841.8899	857.5633	6981.5	6118.15
842.0351	859.6105	6920.7	6059.35
842.1802	861.6569	6869	6005.45
842.3253	863.7027	6782.85	5920.15
842.4704	865.7478	6748.7	5884.3
842.6156	867.7922	6706.25	5840.25
842.7607	869.8359	6701	5836.35
842.9058	871.8789	6719.75	5853.2
843.0509	873.9212	6786.1	5887.25
843.1961	875.9629	6795.75	5930.45
843.3412	878.0039	6892.65	6025.65
843.4863	880.0441	6932.45	6069.95
843.6315	882.0837	6988.3	6124.55
843.7766	884.1226	7001	6134.5
843.9218	886.1609	7060.45	6196.3
844.0669	888.1984	7135.95	6269.35
844.212	890.2352	7262.25	6397.4
844.3572	892.2714	7303.25	6433.45
844.5023	894.3069	7260.05	6393.7
844.6475	896.3416	7136.05	6270.45
844.7926	898.3757	7000.65	6134.3
844.9377	900.4091	6910.2	6044.5
845.0829	902.4418	6900.2	6029.7
845.228	904.4739	6930.95	6063
845.3732	906.5052	6958.75	6091.6
845.5183	908.5358	6944.15	6077.3
845.6635	910.5658	6868.5	5999.85
845.8086	912.595	6698.95	5832.25
845.9538	914.6236	6537.35	5670.2
846.0989	916.6515	6429.65	5564.6
846.2441	918.6786	6364	5494.1
846.3892	920.7051	6334.2	5465.15
846.5344	922.7309	6363.6	5496.6
846.6795	924.756	6347	5478.3
846.8246	926.7804	6416.9	5548.5
846.9698	928.8041	6440.95	5570.65
847.1149	930.8272	6471.95	5603.6
847.2601	932.8495	6456.95	5587.3
847.4052	934.8711	6458.85	5591
847.5504	936.892	6409.15	5541.3
847.6955	938.9123	6419.15	5551.7
847.8407	940.9318	6442.4	5572.95
847.9858	942.9506	6447.95	5576.8
848.131	944.9688	6414.75	5543.3
848.2761	946.9862	6333.55	5464
848.4213	949.003	6239.5	5370.95
848.5664	951.019	6158.35	5290.7
848.7115	953.0344	6093.7	5224.15
848.8567	955.0491	6085.65	5214.6
849.0018	957.063	6096.3	5228.4
849.147	959.0763	6144.7	5276.35
849.2921	961.0888	6173.5	5300
849.4373	963.1007	6193.8	5322.8
849.5824	965.1119	6204.2	5333.95
849.7275	967.1223	6218.9	5347
849.8727	969.1321	6176.2	5307.6
850.0178	971.1412	6154.95	5283.15
850.1629	973.1495	6156.3	5287.85
850.3081	975.1572	6180.4	5277.7
850.4532	977.1641	6146.05	5275
850.5983	979.1704	6155.15	5283.75
850.7435	981.1759	6135.85	5263.25
850.8886	983.1808	6121.8	5251
851.0337	985.1849	6146.05	5262.7
851.1788	987.1884	6161.25	5288.65
851.324	989.1911	6247.8	5373
851.4691	991.1932	6288.05	5414.55
851.6142	993.1945	6302.3	5431.6
851.7593	995.1951	6292.85	5421.5
851.9045	997.1951	6294.2	5418.05
852.0496	999.1943	6233.4	5363.75
852.1947	1001.1928	6243.45	5371.75
852.3398	1003.1906	6273.55	5399.1
852.4849	1005.1877	6371.5	5498.4
852.63	1007.1841	6430.9	5557.7
852.7751	1009.1798	6471.6	5600
852.9202	1011.1748	6402.75	5531.6
853.0653	1013.1691	6310	5436.85
853.2104	1015.1627	6158.45	5285.85
853.3555	1017.1556	6017	5145.1
853.5006	1019.1477	5921.7	5048.55
853.6457	1021.1392	5821.5	4950.6
853.7908	1023.1299	5797.65	4923.85
853.9359	1025.12	5802.9	4926.85
854.081	1027.1093	5848.25	4977.65
854.2261	1029.0979	5943.3	5072.4
854.3712	1031.0859	6029.55	5154.4
854.5163	1033.0731	6060.15	5185.5
854.6613	1035.0596	6038.05	5165.6
854.8064	1037.0454	5954.7	5081.65
854.9515	1039.0304	5887.6	5014.15
855.0965	1041.0148	5788.55	4914.45
855.2416	1042.9985	5714	4838.9
855.3867	1044.9814	5661.15	4787.45
855.5317	1046.9636	5622	4746.4
855.6768	1048.9452	5603.3	4730.45
855.8219	1050.926	5646.95	4773.1
855.9669	1052.9061	5678.95	4804.85
856.112	1054.8855	5698.8	4825.6
856.257	1056.8642	5746.55	4873.85
856.4021	1058.8421	5754.3	4875.3
856.5471	1060.8194	5768.95	4894.5
856.6921	1062.7959	5782.5	4909.35
856.8372	1064.7717	5823.75	4949.45
856.9822	1066.7469	5900.65	5027.05
857.1272	1068.7213	5939.15	5062.3
857.2723	1070.695	6012.15	5139.7
857.4173	1072.6679	6038.3	5162.6
857.5623	1074.6402	6064.2	5191.2
857.7073	1076.6117	6058.75	5177.55
857.8523	1078.5826	5960.3	5086.15
857.9973	1080.5527	5880.55	5002.75
858.1423	1082.5221	5795.2	4919.9
858.2873	1084.4908	5744.2	4869.35
858.4323	1086.4587	5757.15	4882.35
858.5773	1088.426	5750.15	4876
858.7223	1090.3925	5755.9	4876.55
858.8673	1092.3584	5773.4	4900.15
859.0123	1094.3235	5803.75	4930
859.1573	1096.2879	5839.4	4964.45
859.3022	1098.2515	5957.7	5081.35
859.4472	1100.2145	6078.8	5204.85
859.5922	1102.1767	6202.1	5325.7
859.7371	1104.1382	6391.65	5517.7
859.8821	1106.099	6563.4	5685.5
860.027	1108.0591	6732.6	5857.65
860.172	1110.0185	6863.9	5986.8
860.3169	1111.9771	6945.5	6070.65
860.4619	1113.9351	6898.75	6022.45
860.6068	1115.8923	6843.3	5966.15
860.7517	1117.8488	6742.25	5864.1
860.8967	1119.8045	6600.85	5725.45
861.0416	1121.7596	6465.9	5589.25
861.1865	1123.7139	6357.05	5481.75
861.3314	1125.6675	6298.75	5423.85
861.4763	1127.6204	6294.3	5419.8
861.6212	1129.5726	6260.3	5384.1
861.7661	1131.524	6221.85	5348.55
861.911	1133.4748	6141.85	5266.35
862.0559	1135.4248	5999.55	5120.85
862.2008	1137.3741	5859.75	4983.05
862.3457	1139.3226	5764.15	4885.15
862.4905	1141.2705	5724.45	4848.9
862.6354	1143.2176	5667.75	4783.7
862.7803	1145.164	5627.95	4749.25
862.9251	1147.1097	5595.9	4718.9
863.07	1149.0546	5529.3	4651.3
863.2148	1150.9989	5432.35	4555.3
863.3597	1152.9424	5351.25	4476.75
863.5045	1154.8852	5283.4	4405.2
863.6493	1156.8272	5244.7	4368.5
863.7942	1158.7686	5245.8	4360.6
863.939	1160.7092	5268.45	4392.05
864.0838	1162.6491	5295.25	4414.65
864.2286	1164.5883	5363.65	4485.5
864.3734	1166.5267	5447.3	4569.5
864.5182	1168.4644	5570.45	4694.2
864.663	1170.4014	5719.25	4838.6
864.8078	1172.3377	5872.5	4996.5
864.9526	1174.2732	6085.2	5209.45
865.0974	1176.2081	6394.65	5519
865.2421	1178.1421	6772.25	5889.4
865.3869	1180.0755	7195.9	6319.4
865.5317	1182.0082	7490.35	6611.45
865.6764	1183.9401	7635.1	6755.95
865.8212	1185.8713	7551.05	6672.4
865.9659	1187.8017	7257.25	6380.25
866.1106	1189.7315	6960.35	6083.35
866.2554	1191.6605	6648.5	5743.8
866.4001	1193.5888	6388.4	5511.45
866.5448	1195.5163	6274.15	5396.6
866.6895	1197.4432	6168.65	5289.2
866.8342	1199.3693	6119.25	5241.55
866.9789	1201.2947	6091.3	5208.45
867.1236	1203.2193	6060.85	5183.95
867.2683	1205.1432	6071.2	5191.05
867.413	1207.0664	6045.1	5167.6
867.5576	1208.9889	6043	5160.9
867.7023	1210.9106	6021.5	5144.3
867.847	1212.8316	6033.35	5156.1
867.9916	1214.7519	6076.3	5189.55
868.1363	1216.6715	6115.35	5235.9
868.2809	1218.5903	6134.95	5258
868.4255	1220.5084	6201.5	5324.2
868.5701	1222.4257	6289.95	5411.2
868.7148	1224.3424	6316.55	5439.5
868.8594	1226.2583	6434.55	5552.3
869.004	1228.1735	6559.55	5679.45
869.1486	1230.0879	6673.9	5793.9
869.2932	1232.0016	6857.4	5979.8
869.4377	1233.9146	6973.95	6094.9
869.5823	1235.8269	7008.75	6131.35
869.7269	1237.7384	6996.8	6119.15
869.8715	1239.6492	6901.8	6023.75
870.016	1241.5592	6870.85	5992.65
870.1606	1243.4686	6901.6	6024.25
870.3051	1245.3772	7049.15	6169.05
870.4496	1247.285	7226.15	6347.5
870.5941	1249.1922	7415.55	6537.8
870.7387	1251.0986	7560.55	6684.1
870.8832	1253.0042	7680.85	6802.2
871.0277	1254.9092	7783.35	6905.25
871.1722	1256.8134	7856.15	6977.75
871.3167	1258.7169	7975.4	7095.65
871.4611	1260.6196	8041.95	7163.5
871.6056	1262.5216	8207.45	7327.7
871.7501	1264.4229	8362.7	7485.65
871.8945	1266.3234	8523.75	7644.55
872.039	1268.2232	8598.9	7719.65
872.1834	1270.1223	8638.1	7757.15
872.3278	1272.0207	8658.95	7779.85
872.4723	1273.9183	8639.55	7752.25
872.6167	1275.8151	8602.6	7722.95
872.7611	1277.7113	8578.75	7698.55
872.9055	1279.6067	8636.55	7757.25
873.0499	1281.5014	8854.95	7974.05
873.1943	1283.3953	9222.05	8339.85
873.3386	1285.2885	9649.65	8771.55
873.483	1287.181	10133.6	9252.8
873.6274	1289.0727	10578.95	9702.2
873.7717	1290.9637	10902.25	10021.5
873.9161	1292.854	11113.2	10232.15
874.0604	1294.7435	11121.8	10241.9
874.2047	1296.6323	11014.7	10132.4
874.349	1298.5204	10795.75	9910.55
874.4933	1300.4077	10588.25	9707.1
874.6376	1302.2943	10338	9460.1
874.7819	1304.1802	10040.75	9161.15
874.9262	1306.0653	9692.85	8809.3
875.0705	1307.9497	9275.4	8395.45
875.2147	1309.8333	8917.45	8037.9
875.359	1311.7162	8653.25	7773.1
875.5032	1313.5984	8498.2	7617
875.6475	1315.4798	8389.9	7495.45
875.7917	1317.3605	8333.4	7439.15
875.9359	1319.2405	8224.55	7342.55
876.0801	1321.1197	8055.85	7172.8
876.2243	1322.9982	7826.45	6941.05
876.3685	1324.876	7583.4	6703.75
876.5127	1326.753	7327	6446.1
876.6569	1328.6293	7148.55	6267.95
876.801	1330.5048	6986.9	6105.15
876.9452	1332.3796	6824.95	5945.15
877.0893	1334.2537	6748.7	5842.65
877.2335	1336.127	6652.6	5771.25
877.3776	1337.9996	6586.85	5704.6
877.5217	1339.8714	6566.9	5687.9
877.6658	1341.7426	6613.7	5688.4
877.8099	1343.6129	6603.6	5720.7
877.954	1345.4826	6587.75	5708.65
878.0981	1347.3515	6569.65	5686.25
878.2422	1349.2196	6563.55	5682.6
878.3862	1351.087	6572.85	5692.65
878.5303	1352.9537	6592.35	5709.95
878.6743	1354.8197	6659.7	5779.45
878.8184	1356.6849	6758.95	5877.35
878.9624	1358.5493	6914.5	6034.35
879.1064	1360.4131	7053.65	6172
879.2504	1362.276	7182.65	6301.7
879.3944	1364.1383	7238	6357.15
879.5384	1365.9998	7168.3	6280.55
879.6823	1367.8606	6950.35	6069.7
879.8263	1369.7206	6695.1	5814.95
879.9702	1371.5799	6480.35	5595.1
880.1142	1373.4384	6274.9	5395.4
880.2581	1375.2962	6125.1	5242.8
880.402	1377.1533	5876.8	4994.4
880.5459	1379.0096	5605.7	4723.25
880.6898	1380.8652	5366.85	4486.1
880.8337	1382.7201	5157	4277
880.9776	1384.5742	4984.55	4103.8
881.1215	1386.4275	4852.2	3969.35
881.2653	1388.2802	4764.25	3882.55
881.4092	1390.132	4699.15	3818.8
881.553	1391.9832	4630.3	3749.4
881.6968	1393.8336	4565.35	3684.45
881.8406	1395.6832	4550.5	3667.5
881.9844	1397.5322	4502.7	3622.05
882.1282	1399.3803	4483.45	3597.65
882.272	1401.2278	4475	3594.05
882.4158	1403.0745	4472.15	3588.85
882.5595	1404.9204	4443.8	3564.25
882.7033	1406.7656	4454.95	3573.05
882.847	1408.6101	4457	3573.35
882.9908	1410.4538	4469.35	3586.7
883.1345	1412.2968	4498.35	3616.45
883.2782	1414.139	4535.9	3655.1
883.4219	1415.9805	4594.6	3715.75
883.5656	1417.8213	4660.65	3773
883.7092	1419.6613	4736.65	3855.6
883.8529	1421.5006	4822.35	3939.3
883.9965	1423.3391	4988.1	4103.75
884.1402	1425.1769	5199.05	4314.9
884.2838	1427.0139	5518.55	4636.25
884.4274	1428.8502	5901.25	5017.8
884.571	1430.6858	6288.45	5408.5
884.7146	1432.5206	6572.65	5690.95
884.8582	1434.3547	6733.95	5851.1
885.0018	1436.188	6771.25	5890.8
885.1453	1438.0206	6705.95	5824.7
885.2889	1439.8524	6590.05	5708.3
885.4324	1441.6835	6491.05	5609.4
885.5759	1443.5139	6412.75	5528.65
885.7194	1445.3435	6365.9	5482.45
885.8629	1447.1724	6362.85	5481.45
886.0064	1449.0005	6331.35	5449.55
886.1499	1450.8279	6295.8	5412.15
886.2933	1452.6545	6281	5401.1
886.4368	1454.4804	6317.85	5436.75
886.5802	1456.3056	6311.4	5422.75
886.7237	1458.13	6261.5	5381.6
886.8671	1459.9536	6158.5	5275.75
887.0105	1461.7766	5971.45	5088.2
887.1539	1463.5987	5741.1	4856.25
887.2972	1465.4202	5522.9	4640.75
887.4406	1467.2409	5294.2	4412.85
887.584	1469.0608	5079.9	4196.7
887.7273	1470.88	4889.2	4007.65
887.8706	1472.6984	4728.9	3846.2
888.0139	1474.5161	4590.4	3705.6
888.1572	1476.3331	4478.7	3599.45
888.3005	1478.1493	4389.1	3505.85
888.4438	1479.9648	4341.3	3459.95
888.5871	1481.7795	4299.95	3416.65
888.7303	1483.5935	4246.15	3365.05
888.8736	1485.4067	4208.85	3326.3
889.0168	1487.2192	4187.1	3304.35
889.16	1489.031	4163.7	3279.7
889.3032	1490.842	4143.4	3260.05
889.4464	1492.6522	4127.85	3246
889.5896	1494.4618	4097.8	3216.8
889.7327	1496.2705	4074.75	3194.3
889.8759	1498.0785	4041.35	3158.45
890.019	1499.8858	4006.6	3124.75
890.1622	1501.6924	3993.3	3113.45
890.3053	1503.4981	3959.65	3078.25
890.4484	1505.3032	3954	3071.05
890.5914	1507.1075	3917.55	3036.2
890.7345	1508.911	3894.35	3013.25
890.8776	1510.7138	3851.95	2968.95
891.0206	1512.5159	3828.8	2947.05
891.1637	1514.3172	3809.35	2926.85
891.3067	1516.1178	3777.2	2895.25
891.4497	1517.9176	3753.8	2868.85
891.5927	1519.7166	3730.85	2849.9
891.7357	1521.515	3713.55	2824.3
891.8786	1523.3126	3691.95	2808.7
892.0216	1525.1094	3685.75	2801.6
892.1645	1526.9055	3664.05	2783.85
892.3074	1528.7008	3652.45	2769.4
892.4503	1530.4954	3639.65	2750.9
892.5932	1532.2893	3630.75	2750.15
892.7361	1534.0824	3618.9	2732.2
892.879	1535.8747	3618.6	2737.3
893.0218	1537.6663	3611.3	2727.85
893.1647	1539.4572	3612.8	2729.25
893.3075	1541.2473	3619.05	2737.3
893.4503	1543.0367	3620.95	2742.75
893.5931	1544.8253	3647.1	2759.95
893.7359	1546.6132	3655.45	2770.9
893.8787	1548.4003	3672.05	2780
894.0214	1550.1867	3705.9	2814.85
894.1642	1551.9723	3748.85	2860.8
894.3069	1553.7572	3814.75	2933.55
894.4496	1555.5414	3891.25	3008.85
894.5923	1557.3247	3997.4	3115.65
894.735	1559.1074	4114.25	3234.85
894.8777	1560.8893	4264.25	3381.7
895.0204	1562.6705	4403.55	3520.9
895.163	1564.4509	4499.95	3618.25
895.3056	1566.2305	4570.65	3690.4
895.4482	1568.0094	4605.85	3723.65
895.5908	1569.7876	4599.5	3717.6
895.7334	1571.565	4607.1	3725
895.876	1573.3417	4600.75	3719.4
896.0186	1575.1176	4596.4	3713.8
896.1611	1576.8928	4610.6	3728.55
896.3036	1578.6672	4626.9	3745.8
896.4461	1580.4409	4657.45	3776.75
896.5886	1582.2138	4697.5	3813.35
896.7311	1583.986	4774.7	3891.35
896.8736	1585.7575	4841.4	3960.95
897.0161	1587.5282	4920.9	4038.7
897.1585	1589.2981	5018	4136
897.3009	1591.0673	5078.65	4197.15
897.4433	1592.8358	5177.2	4296.05
897.5857	1594.6035	5234	4349.8
897.7281	1596.3704	5276.75	4395.25
897.8705	1598.1366	5361.9	4480.9
898.0128	1599.9021	5402.95	4521.35
898.1551	1601.6668	5462.3	4577.3
898.2975	1603.4308	5514.2	4632.45
898.4398	1605.194	5618.95	4731.9
898.5821	1606.9564	5752.85	4872.9
898.7243	1608.7182	5951.7	5066.2
898.8666	1610.4791	6180.15	5298.7
899.0088	1612.2394	6435.7	5553.35
899.1511	1613.9988	6687.65	5803.15
899.2933	1615.7576	6936.55	6053.5
899.4355	1617.5156	7134.1	6244.6
899.5776	1619.2728	7200	6319.55
899.7198	1621.0293	7148.05	6267.25
899.862	1622.785	7001.05	6114.9
900.0041	1624.54	6737.55	5852.3
900.1462	1626.2942	6417.15	5533.35
900.2883	1628.0477	6075.75	5192.15
900.4304	1629.8005	5796.1	4909
900.5725	1631.5525	5512.85	4632.6
900.7145	1633.3037	5278.85	4397.3
900.8566	1635.0542	5100.95	4220.35
900.9986	1636.804	4931.1	4048.1
901.1406	1638.553	4874.2	3926.45
901.2826	1640.3013	4755.3	3873.9
901.4245	1642.0488	4695.05	3813.55
901.5665	1643.7955	4684.6	3803.75
901.7085	1645.5416	4728.55	3847.1
901.8504	1647.2868	4780.85	3897.35
901.9923	1649.0313	4839.1	3958.45
902.1342	1650.7751	4893.65	4007.15
902.2761	1652.5181	4995.3	4113.75
902.4179	1654.2604	5095.8	4212.15
902.5598	1656.0019	5226.25	4347.05
902.7016	1657.7427	5401.7	4521.05
902.8434	1659.4828	5581.35	4699.55
902.9852	1661.222	5717	4833.6
903.127	1662.9606	5744.8	4864.25
903.2687	1664.6984	5623.6	4741.1
903.4105	1666.4354	5352.6	4472.5
903.5522	1668.1717	5001.85	4121.9
903.6939	1669.9072	4625.9	3744
903.8356	1671.642	4309.4	3426.4
903.9773	1673.3761	4018.85	3137.35
904.119	1675.1094	3797.65	2916.6
904.2606	1676.8419	3629.7	2746.95
904.4022	1678.5737	3498.35	2616.55
904.5439	1680.3048	3395.55	2512.35
904.6855	1682.0351	3306.75	2424.1
904.827	1683.7646	3235.65	2352.35
904.9686	1685.4934	3183.45	2302.2
905.1101	1687.2215	3126.15	2242.35
905.2517	1688.9488	3080.3	2198.8
905.3932	1690.6754	3053.85	2171.6
905.5347	1692.4012	3013.55	2133.3
905.6761	1694.1263	2985.8	2103.3
905.8176	1695.8506	2966	2085.3
905.9591	1697.5742	2946.35	2064.3
906.1005	1699.297	2920.6	2039.8
906.2419	1701.0191	2882.35	1999.3
906.3833	1702.7404	2867.65	1989
906.5246	1704.461	2839.3	1955.2
906.666	1706.1808	2824.2	1941.1
906.8073	1707.8999	2812.15	1928.35
906.9487	1709.6182	2794.8	1912.05
907.09	1711.3358	2769.1	1887.85
907.2313	1713.0527	2751.3	1870.65
907.3725	1714.7688	2741.85	1854.6
907.5138	1716.4841	2727.5	1844.5
907.655	1718.1987	2727.7	1839.55
907.7962	1719.9126	2712.25	1831.6
907.9374	1721.6257	2709.5	1822.95
908.0786	1723.338	2696.55	1814.25
908.2198	1725.0496	2683.6	1801
908.3609	1726.7605	2680.05	1797.3
908.502	1728.4706	2672.55	1789.75
908.6431	1730.18	2667.9	1781.8
908.7842	1731.8886	2659	1777.5
908.9253	1733.5964	2646.45	1759.3
909.0664	1735.3036	2628	1742.1
909.2074	1737.0099	2624.8	1744.05
909.3484	1738.7156	2618.05	1737.5
909.4894	1740.4204	2602.35	1715.65
909.6304	1742.1246	2581.45	1697
909.7714	1743.8279	2573.6	1692.4
909.9123	1745.5306	2573.3	1690.9
910.0532	1747.2325	2566.5	1685.85
910.1941	1748.9336	2550.45	1667.65
910.335	1750.634	2545.45	1660.9
910.4759	1752.3336	2542.1	1660.5
910.6168	1754.0325	2525.2	1645.05
910.7576	1755.7307	2528.35	1647.15
910.8984	1757.4281	2521.7	1638.65
911.0392	1759.1247	2527.05	1637.65
911.18	1760.8206	2514.55	1625.45
911.3208	1762.5158	2506.9	1621.45
911.4615	1764.2102	2494.7	1612.1
911.6022	1765.9039	2495.25	1613.85
911.7429	1767.5968	2494.2	1614.05
911.8836	1769.289	2479.45	1597.5
912.0243	1770.9804	2467.35	1584.35
912.1649	1772.6711	2470.55	1588.45
912.3056	1774.361	2468.8	1585.95
912.4462	1776.0502	2462.9	1580.9
912.5868	1777.7386	2462.95	1578.05
912.7274	1779.4263	2451.7	1569.8
912.8679	1781.1132	2464.6	1581.2
913.0084	1782.7994	2445.05	1560.4
913.149	1784.4849	2433.15	1550.2
913.2895	1786.1696	2457.7	1557.25
913.4299	1787.8535	2441.65	1560.1
913.5704	1789.5367	2429.55	1546.85
913.7108	1791.2192	2433.5	1549.65
913.8513	1792.9009	2427.4	1531.8
913.9917	1794.5818	2421.85	1539.15
914.132	1796.2621	2410.3	1528.3
914.2724	1797.9415	2406.3	1523.65
914.4128	1799.6202	2397.5	1514.35
914.5531	1801.2982	2398.15	1517.65
914.6934	1802.9755	2392.95	1512.15
914.8337	1804.6519	2402.8	1521.05
914.9739	1806.3277	2383.95	1501.85
915.1142	1808.0027	2381.55	1500.3
915.2544	1809.6769	2379.1	1499
915.3946	1811.3504	2373.65	1490.25
915.5348	1813.0231	2375.55	1491.25
915.675	1814.6951	2359.1	1477.2
915.8151	1816.3664	2372.05	1487.6
915.9553	1818.0369	2361.95	1478.2
916.0954	1819.7067	2360.35	1479.8
916.2355	1821.3757	2351.75	1470
916.3755	1823.044	2349.85	1468.3
916.5156	1824.7115	2351.85	1469.7
916.6556	1826.3783	2336.6	1455.6
916.7956	1828.0443	2339.95	1460.5
916.9356	1829.7096	2348.1	1464
917.0756	1831.3741	2348.2	1462.45
917.2155	1833.0379	2335.4	1455.5
917.3555	1834.701	2326.85	1442.25
917.4954	1836.3633	2322.85	1439.1
917.6353	1838.0248	2316	1431.7
917.7751	1839.6856	2316.9	1436.75
917.915	1841.3457	2309.25	1427.75
918.0548	1843.005	2319	1436.25
918.1946	1844.6636	2317.95	1438.35
918.3344	1846.3214	2309.9	1426.5
918.4742	1847.9785	2306.65	1426.15
918.6139	1849.6349	2303.6	1419.15
918.7537	1851.2904	2299.65	1409
918.8934	1852.9453	2299.75	1417
919.0331	1854.5994	2293.95	1408.55
919.1727	1856.2528	2313.95	1428.85
919.3124	1857.9054	2294.9	1412.15
919.452	1859.5572	2279.7	1397.7
919.5916	1861.2083	2282.95	1399.4
919.7312	1862.8587	2269.55	1387.9
919.8708	1864.5084	2282.6	1401.2
920.0103	1866.1572	2269.85	1388.8
920.1498	1867.8054	2272.45	1389.55
920.2893	1869.4528	2251.05	1370
920.4288	1871.0994	2262.4	1380.15
920.5683	1872.7453	2263.25	1378.6
920.7077	1874.3905	2266.7	1366.95
920.8471	1876.0349	2254.35	1371.85
920.9865	1877.6786	2250.25	1367.15
921.1259	1879.3215	2254.45	1373.55
921.2653	1880.9637	2246.5	1364.25
921.4046	1882.6051	2226.7	1345.35
921.5439	1884.2458	2241.35	1356.9
921.6832	1885.8858	2227.3	1345.7
921.8225	1887.525	2232.55	1350.25
921.9617	1889.1634	2227.3	1346.05
922.101	1890.8011	2221.15	1338.05
922.2402	1892.4381	2219.55	1335.1
922.3794	1894.0743	2220.4	1339.6
922.5185	1895.7098	2215.05	1333.35
922.6577	1897.3446	2207.95	1325.35
922.7968	1898.9786	2200.25	1314.95
922.9359	1900.6118	2205.75	1324
923.075	1902.2443	2183.45	1304.45
923.214	1903.8761	2198	1316.5
923.3531	1905.5071	2175.7	1293.25
923.4921	1907.1374	2178.05	1295.7
923.6311	1908.7669	2172.3	1289.4
923.77	1910.3957	2172.9	1290.85
923.909	1912.0237	2169.3	1286.4
924.0479	1913.651	2163.6	1278.5
924.1868	1915.2776	2160.15	1281.2
924.3257	1916.9034	2157.65	1276.15
924.4646	1918.5285	2152.25	1269.65
924.6034	1920.1528	2138.2	1255.5
924.7422	1921.7764	2147.15	1264.95
924.881	1923.3992	2129.2	1246.05
925.0198	1925.0213	2132.5	1250.95
925.1586	1926.6427	2130.65	1249.25
925.2973	1928.2633	2231.65	1241.25
925.436	1929.8832	2130.25	1245.85
925.5747	1931.5023	2122.75	1242.35
925.7134	1933.1207	2120.45	1238.1
925.852	1934.7383	2108.15	1224.75
925.9906	1936.3552	2108.75	1228.1
926.1292	1937.9714	2103.9	1221.75
926.2678	1939.5868	2099.95	1215.55
926.4064	1941.2015	2098.25	1216.65
926.5449	1942.8154	2098.9	1216.1
926.6834	1944.4286	2094.1	1213.9
926.8219	1946.041	2112.6	1205.6
926.9604	1947.6528	2079.95	1194.05
927.0988	1949.2637	2067.4	1184.35
927.2372	1950.8739	2061.85	1178.35
927.3756	1952.4834	2065.25	1182.75
927.514	1954.0921	2065.15	1182.55
927.6523	1955.7001	2072.6	1185.3
927.7907	1957.3074	2060.75	1179.9
927.929	1958.9139	2061.1	1178.55
928.0673	1960.5197	2054.6	1169.85
928.2055	1962.1247	2042.05	1160.25
928.3438	1963.729	2032.6	1150.3
928.482	1965.3325	2057.5	1152.7
928.6202	1966.9353	2040.3	1159.75
928.7584	1968.5374	2023.45	1140
928.8965	1970.1387	2027.3	1144.8
929.0346	1971.7393	2024.45	1139.9
929.1727	1973.3392	2026.65	1145.45
929.3108	1974.9383	2010.65	1129.75
929.4489	1976.5366	2016.5	1133.25
929.5869	1978.1342	2012.05	1127.85
929.7249	1979.7311	2005.2	1121.75
929.8629	1981.3273	2009.2	1126.55
930.0009	1982.9227	2003	1118.1
930.1388	1984.5173	1996.2	1113.25
930.2767	1986.1112	1987.15	1106.3
930.4146	1987.7044	1988.1	1105.45
930.5525	1989.2968	1986.2	1104.8
930.6904	1990.8885	1979.8	1095.35
930.8282	1992.4795	1981.5	1098.1
930.966	1994.0697	1979.5	1097.75
931.1038	1995.6592	1975.85	1093.15
931.2415	1997.2479	1969.85	1087.8
931.3793	1998.8359	1973.4	1091.2
931.517	2000.4232	1967.75	1085.3
931.6547	2002.0097	1958.05	1076.65
931.7923	2003.5955	1966.3	1084
931.93	2005.1805	1956.55	1074.6
932.0676	2006.7648	1953.85	1070.2
932.2052	2008.3484	1954.6	1071.15
932.3427	2009.9312	1956.95	1074.15
932.4803	2011.5133	1944.25	1061.5
932.6178	2013.0946	1938.4	1055.7
932.7553	2014.6752	1951.3	1069.6
932.8928	2016.2551	1944.85	1061.35
933.0302	2017.8342	1931.65	1049.45
933.1676	2019.4126	1937.2	1056
933.305	2020.9902	1934.6	1053.35
933.4424	2022.5672	1939.5	1055.4
933.5798	2024.1433	1928.15	1039.1
933.7171	2025.7188	1918.75	1037.9
933.8544	2027.2935	1922.4	1037
933.9917	2028.8674	1919.25	1037.95
934.129	2030.4406	1917.55	1035.4
934.2662	2032.0131	1909.35	1025.85
934.4034	2033.5849	1915.25	1029.25
934.5406	2035.1559	1902.65	1020.35
934.6778	2036.7261	1899.8	1019.25
934.8149	2038.2957	1900.9	1018.15
934.952	2039.8645	1896.65	1015.7
935.0891	2041.4325	1902.9	1019.1
935.2262	2042.9998	1897.9	1014.6
935.3632	2044.5664	1898.95	1014.75
935.5002	2046.1323	1885.9	1003.9
935.6372	2047.6974	1888.3	1008.05
935.7742	2049.2617	1881.55	997.25
935.9111	2050.8254	1898.5	994.85
936.048	2052.3883	1882.1	1000.2
936.1849	2053.9504	1881.25	998.75
936.3218	2055.5118	1879.9	996.3
936.4586	2057.0725	1873.15	987.75
936.5955	2058.6325	1864.4	980.6
936.7323	2060.1917	1871.15	987.8
936.869	2061.7502	1867.1	981.95
937.0058	2063.3079	1862.4	981.5
937.1425	2064.8649	1862.25	976.2
937.2792	2066.4212	1861.55	978.5
937.4159	2067.9767	1854.7	972.5
937.5525	2069.5315	1850.35	966.5
937.6891	2071.0856	1847.5	966.1
937.8257	2072.6389	1850	965.6
937.9623	2074.1915	1832.15	950.4
938.0989	2075.7433	1838.65	954.85
938.2354	2077.2945	1835.2	955.65
938.3719	2078.8448	1832.4	948.75
938.5084	2080.3945	1828.35	948.3
938.6448	2081.9434	1837.75	956.45
938.7812	2083.4916	1827.35	946.65
938.9176	2085.039	1822.55	939.3
939.054	2086.5857	1820.85	938.85
939.1903	2088.1317	1819.3	938.05
939.3267	2089.677	1814.15	930.75
939.463	2091.2215	1813.85	931.15
939.5992	2092.7652	1810.25	927.4
939.7355	2094.3083	1806.9	924
939.8717	2095.8506	1807.45	924.1
940.0079	2097.3921	1812.8	931.35
940.1441	2098.933	1804.25	922.85
940.2802	2100.4731	1808.65	925.75
940.4163	2102.0124	1814.4	914.5
940.5524	2103.5511	1804.55	921.7
940.6885	2105.089	1805.4	922.65
940.8245	2106.6261	1797.3	914.3
940.9606	2108.1626	1791.35	907.7
941.0965	2109.6983	1820.45	909.4
941.2325	2111.2332	1794.65	912.3
941.3684	2112.7675	1792.4	908.5
941.5044	2114.301	1787.1	904.8
941.6403	2115.8337	1788.05	905.3
941.7761	2117.3657	1777.3	895.95
941.912	2118.897	1771.35	889.4
942.0478	2120.4276	1779.3	890.65
942.1835	2121.9575	1772.05	891.25
942.3193	2123.4866	1779.55	894.5
942.455	2125.0149	1772.5	888.65
942.5907	2126.5426	1752.8	870.65
942.7264	2128.0695	1766.25	880.6
942.8621	2129.5956	1763.25	883.05
942.9977	2131.1211	1763.7	876
943.1333	2132.6458	1765.75	884.55
943.2689	2134.1698	1755.55	871.8
943.4044	2135.693	1747.8	861.95
943.54	2137.2155	1749.65	864.95
943.6755	2138.7373	1750.85	868.45
943.8109	2140.2584	1747.75	864.8
943.9464	2141.7787	1743.85	855.2
944.0818	2143.2983	1743.3	860.2
944.2172	2144.8171	1733.45	851.6
944.3526	2146.3353	1741.35	858.4
944.4879	2147.8527	1734.35	853
944.6232	2149.3693	1740.35	856.7
944.7585	2150.8853	1730.25	845.75
944.8938	2152.4005	1723.25	840.9
945.029	2153.9149	1729.95	847.6
945.1642	2155.4287	1714.6	832.35
945.2994	2156.9417	1727.65	844.3
945.4346	2158.454	1721.05	836.5
945.5697	2159.9655	1720.3	836.2
945.7048	2161.4764	1709.9	826.95
945.8399	2162.9865	1721.4	837.25
945.9749	2164.4958	1713.35	829.1
946.1099	2166.0045	1720.5	833.55
946.2449	2167.5124	1711.85	830.25
946.3799	2169.0195	1709.65	826.85
946.5148	2170.526	1705.8	822.55
946.6498	2172.0317	1704.05	820.4
946.7846	2173.5367	1699.45	815.75
946.9195	2175.0409	1703.7	821.85
947.0543	2176.5445	1694.05	812.25
947.1891	2178.0473	1692.6	807.5
947.3239	2179.5494	1693.35	807.5
947.4587	2181.0507	1686.4	804.15
947.5934	2182.5513	1687.6	804.8
947.7281	2184.0512	1681.3	798.45
947.8628	2185.5504	1689.5	807.95
947.9974	2187.0488	1680.1	798.15
948.132	2188.5465	1682.3	799.3
948.2666	2190.0435	1676.55	793.15
948.4012	2191.5397	1681.5	801.4
948.5357	2193.0353	1674.7	791.15
948.6702	2194.5301	1667.6	783.05
948.8047	2196.0241	1668.85	786.45
948.9392	2197.5175	1671.6	790.8
949.0736	2199.0101	1667.4	783.6
949.208	2200.502	1652.65	772.95
949.3424	2201.9931	1656.35	772.85
949.4767	2203.4835	1663.35	779.85
949.611	2204.9733	1663	774.7
949.7453	2206.4622	1657.55	775
949.8796	2207.9505	1653.75	765.55
950.0138	2209.438	1643.85	761.9
950.148	2210.9248	1647.65	763.2
950.2822	2212.4109	1648.85	767.55
950.4164	2213.8962	1647.5	763.2
950.5505	2215.3809	1636.95	753.85
950.6846	2216.8648	1637.9	754.15
950.8186	2218.3479	1636.65	751.65
950.9527	2219.8304	1623.7	737.9
951.0867	2221.3121	1633.3	748.4
951.2207	2222.7931	1631.9	750.15
951.3546	2224.2733	1622.2	736.9
951.4886	2225.7529	1630.85	747.6
951.6225	2227.2317	1623	737.1
951.7563	2228.7098	1627.85	747.7
951.8902	2230.1872	1621.8	738.6
952.024	2231.6638	1613.5	730.9
952.1578	2233.1397	1611.2	724.3
952.2916	2234.6149	1617.45	736.15
952.4253	2236.0894	1606	723.25
952.559	2237.5632	1617.9	725.8
952.6927	2239.0362	1600.8	717.2
952.8263	2240.5085	1604.35	720.65
952.9599	2241.9801	1596.25	710.95
953.0935	2243.4509	1593.95	710.85
953.2271	2244.921	1592.15	709.8
953.3606	2246.3904	1597.85	714.75
953.4941	2247.8591	1593.35	712.5
953.6276	2249.3271	1587.85	705.2
953.7611	2250.7943	1584.25	701.5
953.8945	2252.2608	1580.95	698.5
954.0279	2253.7266	1577	695.2
954.1612	2255.1917	1572.35	687.85
954.2946	2256.656	1580.85	697.35
954.4279	2258.1197	1571.05	689.2
954.5612	2259.5826	1567.95	684.15
954.6944	2261.0447	1566.95	683.4
954.8276	2262.5062	1562.05	679.5
954.9608	2263.9669	1565.2	679.35
955.094	2265.4269	1566.1	683.7
955.2271	2266.8862	1557.75	674.5
955.3602	2268.3448	1563.15	680.5
955.4933	2269.8026	1564.95	681.65
955.6264	2271.2598	1559.9	677.8
955.7594	2272.7162	1555.7	673.2
955.8924	2274.1719	1559.8	677.15
956.0253	2275.6268	1549.65	665.3
956.1583	2277.0811	1552.9	671.6
956.2912	2278.5346	1553.65	672.45
956.4241	2279.9874	1547.5	665.55
956.5569	2281.4395	1552.6	672.75
956.6897	2282.8908	1553.85	666.2
956.8225	2284.3414	1547.4	664.05
956.9553	2285.7914	1541.9	659.9
957.088	2287.2406	1545.5	660.25
957.2207	2288.689	1545.6	662.95
957.3534	2290.1368	1539.8	656.25
957.486	2291.5838	1544.7	660.4
957.6186	2293.0302	1544.15	661.2
957.7512	2294.4758	1531	647.45
957.8838	2295.9206	1531.85	648.55
958.0163	2297.3648	1540.65	657.2
958.1488	2298.8082	1534.85	650.25
958.2813	2300.251	1531.55	650.3
958.4137	2301.693	1536.1	649.35
958.5461	2303.1343	1534.05	651.65
958.6785	2304.5748	1528.85	647
958.8108	2306.0147	1517.35	634.6
958.9432	2307.4538	1519.15	633.75
959.0754	2308.8922	1527.6	645.2
959.2077	2310.3299	1519.95	637.15
959.3399	2311.7669	1512.45	630.2
959.4721	2313.2031	1522.1	638.9
959.6043	2314.6387	1518.4	637.3
959.7365	2316.0735	1508.8	627.95
959.8686	2317.5076	1512.35	628.7
960.0006	2318.941	1508.65	627
960.1327	2320.3737	1503.75	620.5
960.2647	2321.8056	1503.25	621.1
960.3967	2323.2369	1503.7	620.15
960.5287	2324.6674	1503.85	618.6
960.6606	2326.0972	1501.55	615.8
960.7925	2327.5263	1502.25	618.85
960.9244	2328.9547	1502.5	618.95
961.0562	2330.3823	1502.2	618.5
961.1881	2331.8092	1497.05	612.55
961.3198	2333.2355	1486.3	607.45
961.4516	2334.661	1492.5	608.4
961.5833	2336.0858	1492.7	609.5
961.715	2337.5098	1485.3	603.25
961.8467	2338.9332	1485.35	602.75
961.9783	2340.3558	1489.65	604.5
962.1099	2341.7778	1486.15	603.05
962.2415	2343.199	1478.05	592.35
962.373	2344.6195	1476.95	594.7
962.5045	2346.0393	1477.55	595.45
962.636	2347.4583	1474.45	590.55
962.7675	2348.8767	1475.85	589.9
962.8989	2350.2943	1466.95	584.65
963.0303	2351.7113	1477.9	594.05
963.1617	2353.1275	1478.45	597
963.293	2354.543	1483.9	591.8
963.4243	2355.9578	1472.05	588.35
963.5556	2357.3718	1464.85	582.85
963.6868	2358.7852	1466	578.95
963.818	2360.1978	1465.75	583.4
963.9492	2361.6098	1463.6	584
964.0803	2363.021	1463.9	577.15
964.2114	2364.4315	1459.2	577.3
964.3425	2365.8413	1457.7	573.4
964.4736	2367.2504	1459.6	577.95
964.6046	2368.6587	1458.4	573.5
964.7356	2370.0664	1453.7	571.85
964.8666	2371.4733	1452.55	570.3
964.9975	2372.8795	1447.9	567.2
965.1284	2374.285	1448.1	565.45
965.2593	2375.6899	1438.8	556.75
965.3901	2377.0939	1447.5	564.3
965.5209	2378.4973	1442.85	560.55
965.6517	2379.9	1440.25	557.15
965.7825	2381.3019	1440.15	557.2
965.9132	2382.7032	1436.4	554
966.0439	2384.1037	1441.7	559.6
966.1745	2385.5035	1436.35	553.25
966.3051	2386.9027	1433	554.15
966.4357	2388.3011	1435.1	548.9
966.5663	2389.6987	1431.85	549.05
966.6968	2391.0957	1429.9	548.15
966.8273	2392.492	1421.6	539.7
966.9578	2393.8876	1421.35	537.8
967.0882	2395.2824	1412.05	530.05
967.2186	2396.6765	1414.8	531.95
967.349	2398.07	1408.85	527.55
967.4793	2399.4627	1414.15	527.7
967.6097	2400.8547	1415.7	532.35
967.7399	2402.246	1418.5	532.15
967.8702	2403.6366	1405.3	522.8
968.0004	2405.0265	1408.95	525.45
968.1306	2406.4156	1411.45	524.95
968.2607	2407.8041	1400.7	516.8
968.3909	2409.1918	1410.65	524.75
968.521	2410.5789	1402.85	521.3
968.651	2411.9652	1404.9	515.85
968.781	2413.3508	1397.6	514.15
968.911	2414.7358	1397.95	516.55
969.041	2416.12	1396.4	513.5
969.1709	2417.5035	1395.35	513.95
969.3008	2418.8863	1399.9	516.4
969.4307	2420.2684	1390.25	507.95
969.5606	2421.6497	1385.65	505.25
969.6904	2423.0304	1394.85	512.05
969.8201	2424.4104	1389.55	507.9
969.9499	2425.7896	1395.85	507.45
970.0796	2427.1682	1382.5	500.65
970.2093	2428.546	1388.5	504.95
970.3389	2429.9232	1384.3	499.75
970.4685	2431.2996	1379.85	497.5
970.5981	2432.6753	1377.2	495.3
970.7277	2434.0503	1380.65	497.85
970.8572	2435.4246	1383.85	503.55
970.9867	2436.7982	1379.25	493.35
971.1161	2438.1711	1372.8	491.05
971.2456	2439.5433	1371.65	487.8
971.375	2440.9148	1384.05	497.35
971.5043	2442.2856	1369.55	488.5
971.6336	2443.6557	1368.15	482.9
971.7629	2445.025	1363.85	481.6
971.8922	2446.3937	1363.25	479.55
972.0214	2447.7617	1365.35	480.45
972.1506	2449.1289	1358.65	477.45
972.2798	2450.4955	1360.2	472.6
972.4089	2451.8613	1365.65	486.2
972.538	2453.2265	1353.25	471.6
972.6671	2454.5909	1357.2	474.05
972.7961	2455.9546	1353.55	470.4
972.9251	2457.3177	1354.1	470.9
973.0541	2458.68	1355.15	470.1
973.1831	2460.0416	1357	472.8
973.312	2461.4025	1353.25	468.65
973.4408	2462.7627	1364.8	469.25
973.5697	2464.1222	1353.95	474.65
973.6985	2465.4811	1358.25	474.15
973.8273	2466.8392	1352.2	469.85
973.956	2468.1966	1353.1	467.35
974.0847	2469.5533	1355.95	470.75
974.2134	2470.9093	1353.3	468.45
974.3421	2472.2645	1356.15	471.2
974.4707	2473.6191	1336.1	453.65
974.5993	2474.973	1345.25	463.15
974.7278	2476.3262	1347.45	463
974.8563	2477.6787	1343.25	462.45
974.9848	2479.0305	1340	457.15
975.1132	2480.3816	1340.75	456.65
975.2417	2481.7319	1342.3	460.6
975.37	2483.0816	1340.75	455.95
975.4984	2484.4306	1341.15	457.15
975.6267	2485.7789	1336.65	452.85
975.755	2487.1264	1337	452.2
975.8833	2488.4733	1332.7	451.55
976.0115	2489.8195	1358.25	457.8
976.1397	2491.165	1331.65	443.75
976.2678	2492.5097	1330.1	446.65
976.3959	2493.8538	1332.7	451.95
976.524	2495.1972	1327	444.1
976.6521	2496.5398	1328.5	444.5
976.7801	2497.8818	1325.9	442.5
976.9081	2499.2231	1318.15	436.5
977.036	2500.5637	1324.5	441.45
977.164	2501.9035	1320	435.4
977.2918	2503.2427	1324.7	438.95
977.4197	2504.5812	1326.9	444.7
977.5475	2505.919	1320.65	435.75
977.6753	2507.256	1313.6	429.4
977.8031	2508.5924	1318.2	435.55
977.9308	2509.9281	1321	432
978.0585	2511.2631	1313.15	430.8
978.1861	2512.5974	1310.25	426.65
978.3137	2513.9309	1315.4	432.9
978.4413	2515.2638	1346.85	433.6
978.5689	2516.596	1313.9	432.35
978.6964	2517.9275	1310.3	424.3
978.8239	2519.2583	1313.85	429.9
978.9513	2520.5884	1308.25	423.85
979.0788	2521.9178	1307.8	423.55
979.2062	2523.2465	1303.85	423.15
979.3335	2524.5745	1300.8	417.9
979.4608	2525.9018	1303.8	419.8
979.5881	2527.2284	1302.65	422.55
979.7154	2528.5543	1299.5	418.25
979.8426	2529.8796	1301.75	418.85
979.9698	2531.2041	1302.95	420.5
980.0969	2532.5279	1302.05	421.6
980.224	2533.851	1301.6	419.15
980.3511	2535.1735	1301.9	419.8
980.4781	2536.4952	1306	424.3
980.6052	2537.8163	1298.1	413.6
980.7321	2539.1366	1296.85	415.3
980.8591	2540.4562	1298.6	415.35
980.986	2541.7752	1300.1	419.05
981.1129	2543.0935	1298.7	417.3
981.2397	2544.411	1302.5	418.95
981.3665	2545.7279	1291.45	408.6
981.4933	2547.0441	1285.55	404.55
981.62	2548.3596	1296.8	410.35
981.7467	2549.6744	1296.4	414
981.8734	2550.9885	1289.15	406.15
982.0001	2552.3019	1288.35	406.05
982.1267	2553.6146	1292.9	410.05
982.2532	2554.9266	1286.6	404.65
982.3798	2556.2379	1290.85	407.35
982.5063	2557.5485	1285.35	405.25
982.6327	2558.8585	1293.2	402.3
982.7592	2560.1677	1292.6	406.3
982.8856	2561.4762	1288.1	406.85
983.0119	2562.7841	1284.7	398.3
983.1383	2564.0913	1276.05	394.85
983.2646	2565.3977	1280.05	396.85
983.3908	2566.7035	1282.05	399.1
983.517	2568.0086	1285.15	400.45
983.6432	2569.313	1289.3	404.6
983.7694	2570.6167	1285	399.6
983.8955	2571.9197	1281.55	399.25
984.0216	2573.222	1278.4	394.7
984.1476	2574.5236	1280.05	396.6
984.2737	2575.8246	1285.1	400.7
984.3996	2577.1248	1287.1	402.9
984.5256	2578.4244	1278.1	395.2
984.6515	2579.7232	1280.75	398.1
984.7774	2581.0214	1310	396.35
984.9032	2582.3189	1277.15	393.75
985.029	2583.6157	1288.95	401.95
985.1548	2584.9118	1279.15	396
985.2806	2586.2072	1280.9	399.65
985.4063	2587.5019	1281.2	399.05
985.5319	2588.7959	1274.95	393
985.6576	2590.0893	1277.9	394.7
985.7832	2591.3819	1280.8	398.7
985.9087	2592.6739	1276.9	395.1
986.0343	2593.9652	1285.15	401.2
986.1597	2595.2557	1284	404.1
986.2852	2596.5456	1284.4	400.35
986.4106	2597.8348	1279.45	399.95
986.536	2599.1234	1286.4	404.65
986.6614	2600.4112	1279.5	396.35
986.7867	2601.6983	1280.8	395.9
986.912	2602.9848	1281	400.55
987.0372	2604.2705	1286.5	396.25
987.1624	2605.5556	1277.1	393.1
987.2876	2606.84	1273.65	392.25
987.4128	2608.1237	1274.05	390.25
987.5379	2609.4067	1273.35	388.65
987.6629	2610.689	1277.25	387.3
987.788	2611.9707	1273.4	389
987.913	2613.2516	1268.05	381
988.0379	2614.5319	1265.3	383.7
988.1629	2615.8115	1264.25	380.9
988.2878	2617.0903	1270.2	386.8
988.4126	2618.3685	1269.6	385.95
988.5375	2619.6461	1260.8	378.25
988.6622	2620.9229	1261.6	377.75
988.787	2622.199	1263	380.85
988.9117	2623.4745	1262.45	379.95
989.0364	2624.7493	1259.1	378.05
989.161	2626.0234	1261.3	379.7
989.2857	2627.2968	1255.35	375.15
989.4102	2628.5695	1260.35	376.65
989.5348	2629.8415	1259.3	376.75
989.6593	2631.1128	1256.4	371.05
989.7837	2632.3835	1250.3	368.25
989.9082	2633.6535	1259	376.75
990.0326	2634.9228	1251.6	370.1
990.1569	2636.1914	1254.5	372.85
990.2812	2637.4593	1265.95	376.55
990.4055	2638.7265	1250.7	369.25
990.5298	2639.9931	1245.1	364.25
990.654	2641.259	1253.2	368.9
990.7782	2642.5242	1255.8	375
990.9023	2643.7887	1249.65	365.3
991.0264	2645.0525	1247.1	365.45
991.1505	2646.3156	1246.5	364.1
991.2745	2647.5781	1243.25	361.95
991.3985	2648.8398	1242.95	362.3
991.5225	2650.1009	1275.1	353.25
991.6464	2651.3613	1242.2	361.15
991.7703	2652.6211	1239.15	355.4
991.8942	2653.8801	1235.35	352.4
992.018	2655.1385	1237.85	353.15
992.1418	2656.3961	1242.8	359.8
992.2655	2657.6531	1241.6	359.55
992.3892	2658.9094	1236.55	354.3
992.5129	2660.1651	1238.65	355.9
992.6366	2661.42	1238	355.8
992.7602	2662.6743	1243.3	359.85
992.8837	2663.9279	1244.45	362.25
993.0073	2665.1808	1244.2	359.55
993.1307	2666.433	1246.55	364.3
993.2542	2667.6846	1246.75	365.15
993.3776	2668.9354	1251.75	366.2
993.501	2670.1856	1248.5	365.8
993.6244	2671.4351	1252.9	370.55
993.7477	2672.6839	1252.75	369.7
993.8709	2673.9321	1251.45	370.1
993.9942	2675.1795	1253.5	370.8
994.1174	2676.4263	1253.55	370.25
994.2405	2677.6724	1260.1	380.4
994.3637	2678.9179	1259.9	378.35
994.4868	2680.1626	1256.05	373.4
994.6098	2681.4067	1252.05	370.3
994.7328	2682.6501	1252.85	371.5
994.8558	2683.8928	1252.85	370.25
994.9788	2685.1348	1243.95	361.65
995.1017	2686.3761	1245.35	363.5
995.2245	2687.6168	1247.45	365.6
995.3474	2688.8568	1239.15	357.1
995.4702	2690.0961	1238.75	356.6
995.5929	2691.3348	1239.55	356.55
995.7156	2692.5727	1235.25	352.55
995.8383	2693.81	1237.45	354.65
995.961	2695.0466	1236.25	354.6
996.0836	2696.2826	1232.25	348.5
996.2062	2697.5178	1239.4	354
996.3287	2698.7524	1241.05	359.3
996.4512	2699.9863	1239.75	354.6
996.5737	2701.2195	1240.45	358.7
996.6961	2702.452	1239.5	356.2
996.8185	2703.6839	1245.65	362.4
996.9408	2704.9151	1243.5	361.7
997.0631	2706.1456	1248.15	366.55
997.1854	2707.3755	1255.25	371.85
997.3077	2708.6046	1266.2	380.95
997.4299	2709.8331	1262.8	378.5
997.552	2711.0609	1269.85	387.65
997.6742	2712.2881	1276.95	396.05
997.7963	2713.5145	1280.95	396.95
997.9183	2714.7403	1281.75	399.8
998.0403	2715.9654	1284.9	401.55
998.1623	2717.1899	1308.75	410.55
998.2842	2718.4136	1302.45	420.15
998.4062	2719.6367	1307.55	423.85
998.528	2720.8591	1327.5	439.7
998.6498	2722.0809	1325.65	441.2
998.7716	2723.3019	1332.85	447.65
998.8934	2724.5223	1342.65	460.35
999.0151	2725.7421	1337.15	451.75
999.1368	2726.9611	1350.65	466.5
999.2584	2728.1795	1351	464.35
999.38	2729.3972	1332.95	452
999.5016	2730.6142	1338.55	445.1
999.6231	2731.8306	1324.05	440.15
999.7446	2733.0462	1315.65	431.95
999.8661	2734.2612	1303.35	414.85
999.9875	2735.4756	1290.4	408.9
1000.1089	2736.6892	1278.75	394.1
1000.2302	2737.9022	1268.7	385.75
1000.3515	2739.1145	1267.6	386
1000.4728	2740.3262	1264	373.5
1000.594	2741.5372	1246.65	365.25
1000.7152	2742.7475	1240.4	357.55
1000.8363	2743.9571	1235.5	350.2
1000.9575	2745.1661	1231.75	343.9
1001.0785	2746.3744	1221.6	337.8
1001.1996	2747.582	1217.8	333.7
1001.3206	2748.7889	1210.45	325.55
1001.4415	2749.9952	1208.75	325.55
1001.5625	2751.2008	1202.05	318.7
1001.6833	2752.4057	1210.5	323.55
1001.8042	2753.61	1203.9	321.15
1001.925	2754.8136	1202.35	316.6
1002.0458	2756.0165	1195.65	314.65
1002.1665	2757.2188	1193.7	310.85
1002.2872	2758.4204	1198.7	317.35
1002.4078	2759.6213	1195.3	310.1
1002.5285	2760.8215	1207.75	319.85
1002.649	2762.0211	1199.7	314.5
1002.7696	2763.22	1196.25	311.5
1002.8901	2764.4182	1191.9	307.6
1003.0106	2765.6158	1194.8	311.45
1003.131	2766.8127	1193.5	311
1003.2514	2768.009	1190.45	310.15
1003.3717	2769.2045	1189.15	306.5
1003.492	2770.3994	1190.7	306.35
1003.6123	2771.5936	1187.15	303.45
1003.7325	2772.7872	1181.5	300.65
1003.8527	2773.9801	1180.5	296.3
1003.9729	2775.1723	1194.05	294.9
1004.093	2776.3639	1175.1	293.7
1004.2131	2777.5548	1178.05	293.55
1004.3331	2778.745	1180.05	296.2
1004.4531	2779.9346	1179.95	296.45
1004.5731	2781.1235	1178.35	294.1
1004.693	2782.3117	1184.9	303.9
1004.8129	2783.4992	1181.6	298.1
1004.9328	2784.6861	1179.1	296.55
1005.0526	2785.8723	1189.55	305.95
1005.1723	2787.0579	1187.75	304.3
1005.2921	2788.2428	1188.05	305.85
1005.4118	2789.427	1190.05	306.55
1005.5314	2790.6106	1193.3	310.25
1005.651	2791.7935	1201.5	317.8
1005.7706	2792.9757	1205.55	322.4
1005.8902	2794.1573	1214.5	330.75
1006.0097	2795.3382	1214.35	331.1
1006.1291	2796.5184	1220.95	339
1006.2485	2797.698	1228.3	345.3
1006.3679	2798.8769	1232.8	350.25
1006.4873	2800.0551	1237.1	354.7
1006.6066	2801.2327	1247.95	362.65
1006.7258	2802.4096	1254.85	373.55
1006.8451	2803.5859	1269.5	386.8
1006.9642	2804.7615	1283.5	398.35
1007.0834	2805.9364	1293.65	412.1
1007.2025	2807.1106	1305.7	422.6
1007.3216	2808.2842	1321.9	439.5
1007.4406	2809.4572	1336.35	454.55
1007.5596	2810.6294	1357.05	471.3
1007.6785	2811.801	1373.2	491.4
1007.7975	2812.972	1398.9	516.65
1007.9163	2814.1423	1429.35	546.35
1008.0352	2815.3119	1459.85	576.65
1008.154	2816.4808	1489.7	607.4
1008.2727	2817.6491	1518.55	635.8
1008.3914	2818.8167	1555.25	673.5
1008.5101	2819.9837	1585.7	696.9
1008.6288	2821.15	1619.15	736.25
1008.7474	2822.3157	1664.8	784.4
1008.8659	2823.4807	1701.65	820.3
1008.9844	2824.645	1749.95	866.2
1009.1029	2825.8086	1787.05	905.5
1009.2214	2826.9716	1817.25	935.6
1009.3398	2828.134	1863.15	981.45
1009.4581	2829.2957	1893.7	1008.95
1009.5764	2830.4567	1911	1029.45
1009.6947	2831.617	1924.6	1041.05
1009.813	2832.7767	1939.15	1056.55
1009.9312	2833.9358	1937.95	1056.4
1010.0493	2835.0941	1931.6	1046.55
1010.1675	2836.2519	1913.9	1032.6
1010.2855	2837.4089	1898.5	1015.25
1010.4036	2838.5653	1892.1	1009.2
1010.5216	2839.7211	1891.45	1008.8
1010.6396	2840.8761	1888.2	1005.2
1010.7575	2842.0306	1881.3	1000.7
1010.8754	2843.1843	1907.4	1024.85
1010.9932	2844.3374	1910.6	1028.55
1011.111	2845.4899	1940.6	1056.8
1011.2288	2846.6417	1981.55	1100.4
1011.3465	2847.7928	2011.5	1128.75
1011.4642	2848.9433	2056.7	1173.75
1011.5818	2850.0931	2095.45	1214.85
1011.6995	2851.2422	2133.6	1250.7
1011.817	2852.3907	2166.35	1283.85
1011.9345	2853.5385	2197.85	1316.9
1012.052	2854.6857	2255.35	1346.1
1012.1695	2855.8323	2269.2	1387.05
1012.2869	2856.9781	2304.75	1422.95
1012.4042	2858.1233	2331.55	1448.1
1012.5216	2859.2679	2365.7	1484.45
1012.6389	2860.4118	2404.45	1520.65
1012.7561	2861.555	2435.45	1548.75
1012.8733	2862.6976	2466.75	1581.85
1012.9905	2863.8395	2492.65	1611.4
1013.1076	2864.9808	2501.8	1617.85
1013.2247	2866.1214	2520.35	1638.95
1013.3417	2867.2614	2533.7	1651.15
1013.4587	2868.4007	2546.5	1662.5
1013.5757	2869.5393	2562.1	1677.7
1013.6926	2870.6773	2574.3	1689
1013.8095	2871.8146	2566.95	1681.7
1013.9263	2872.9513	2574.2	1690.15
1014.0431	2874.0874	2562.85	1680.9
1014.1599	2875.2227	2564.9	1680.15
1014.2766	2876.3574	2543.75	1662.1
1014.3933	2877.4915	2522.75	1640.2
1014.51	2878.6249	2517	1635.9
1014.6266	2879.7577	2502.5	1619.95
1014.7431	2880.8898	2492.35	1599.2
1014.8596	2882.0212	2466.05	1584.6
1014.9761	2883.152	2464.9	1580.55
1015.0925	2884.2821	2473.25	1589.5
1015.2089	2885.4116	2457.05	1575.3
1015.3253	2886.5405	2467.75	1585.1
1015.4416	2887.6686	2465.85	1581.8
1015.5579	2888.7962	2471.2	1589.9
1015.6741	2889.923	2478.1	1597.5
1015.7903	2891.0493	2476.05	1595.35
1015.9065	2892.1748	2492.7	1609.75
1016.0226	2893.2997	2501.8	1619.55
1016.1387	2894.424	2496.75	1613.95
1016.2547	2895.5476	2509.65	1627.55
1016.3707	2896.6706	2526	1644.3
1016.4866	2897.7929	2541.8	1659.6
1016.6025	2898.9145	2557.85	1675.3
1016.7184	2900.0355	2575.5	1693.4
1016.8342	2901.1559	2596.75	1713.1
1016.95	2902.2756	2603.55	1721.85
1017.0658	2903.3946	2634.8	1752.6
1017.1815	2904.513	2642.45	1757.25
1017.2971	2905.6308	2660.95	1778.4
1017.4127	2906.7479	2665.35	1781.75
1017.5283	2907.8643	2694.1	1809.85
1017.6439	2908.9801	2705.25	1823.35
1017.7594	2910.0953	2709	1826.3
1017.8748	2911.2098	2708.8	1820.95
1017.9902	2912.3236	2703.95	1814.1
1018.1056	2913.4368	2684.5	1799.65
1018.2209	2914.5494	2679.2	1796.55
1018.3362	2915.6613	2663.3	1776.45
1018.4515	2916.7725	2638.75	1753.8
1018.5667	2917.8831	2604.1	1721.2
1018.6819	2918.9931	2596.6	1711.75
1018.797	2920.1024	2572.6	1689.1
1018.9121	2921.211	2564.95	1683.15
1019.0271	2922.319	2550.3	1666.65
1019.1421	2923.4264	2545.55	1662.7
1019.2571	2924.5331	2532.95	1651.65
1019.372	2925.6391	2527.95	1645.85
1019.4869	2926.7445	2535.3	1654.65
1019.6017	2927.8493	2538.1	1654.55
1019.7165	2928.9534	2539.9	1657.55
1019.8313	2930.0569	2533.6	1648
1019.946	2931.1597	2552.2	1665.8
1020.0606	2932.2619	2550.6	1668.15
1020.1753	2933.3634	2554.65	1671.5
1020.2899	2934.4643	2553.15	1664.05
1020.4044	2935.5645	2563	1674.2
1020.5189	2936.6641	2544.3	1656
1020.6334	2937.763	2527.65	1645.75
1020.7478	2938.8613	2503.1	1619.25
1020.8622	2939.959	2493.65	1606.7
1020.9765	2941.056	2438.6	1557.65
1021.0908	2942.1523	2396.1	1509.1
1021.2051	2943.248	2343.65	1459.75
1021.3193	2944.3431	2288.6	1408.1
1021.4334	2945.4375	2234.2	1352.85
1021.5476	2946.5313	2178.2	1296.4
1021.6617	2947.6244	2100.25	1216.65
1021.7757	2948.7169	2040.2	1157.2
1021.8897	2949.8087	1967.6	1083.4
1022.0037	2950.8999	1909.9	1026.8
1022.1176	2951.9904	1872.1	991.3
1022.2315	2953.0803	1820.55	936.35
1022.3453	2954.1696	1785.05	901.85
1022.4591	2955.2582	1748	866.8
1022.5728	2956.3462	1713.9	832.3
1022.6865	2957.4335	1690.45	807.75
1022.8002	2958.5202	1670.15	785.2
1022.9138	2959.6062	1649.2	766.3
1023.0274	2960.6916	1638.25	756.7
1023.141	2961.7764	1625.45	739.3
1023.2545	2962.8605	1616.2	733.15
1023.3679	2963.9439	1601.4	719.7
1023.4813	2965.0267	1597.95	716.65
1023.5947	2966.1089	1620.2	713.8
1023.708	2967.1905	1601.75	722
1023.8213	2968.2714	1590	709.15
1023.9346	2969.3516	1594.7	713.1
1024.0478	2970.4312	1601.95	711.85
1024.1609	2971.5102	1597	715.2
1024.274	2972.5885	1601.05	720.45
1024.3871	2973.6662	1609.5	721.35
1024.5002	2974.7432	1602.35	720.6
1024.6132	2975.8196	1601.3	716.95
1024.7261	2976.8954	1590.15	709.2
1024.839	2977.9705	1596.25	713.2
1024.9519	2979.045	1589.95	706.5
1025.0647	2980.1188	1576.1	694.3
1025.1775	2981.192	1561.5	680
1025.2902	2982.2645	1563.45	679.85
1025.4029	2983.3364	1546.7	662.5
1025.5156	2984.4077	1526.5	643.8
1025.6282	2985.4783	1510.55	622.75
1025.7407	2986.5483	1487.8	606.1
1025.8532	2987.6177	1476.2	596
1025.9657	2988.6864	1453.25	569.85
1026.0782	2989.7545	1428.5	546.35
1026.1906	2990.8219	1402.75	521
1026.3029	2991.8887	1378.35	495.25
1026.4152	2992.9548	1360.8	478.35
1026.5275	2994.0204	1341.6	459.65
1026.6397	2995.0852	1315.4	432.35
1026.7519	2996.1495	1303.8	418.85
1026.864	2997.2131	1281.75	399.4
1026.9761	2998.276	1266.8	384.8
1027.0882	2999.3383	1252.6	368.85
1027.2002	3000.4	1240.5	357.75
1027.3122	3001.4611	1225.7	345
1027.4241	3002.5215	1220.9	336.25
1027.536	3003.5812	1202.7	320.75
1027.6478	3004.6404	1195.85	312.15
1027.7596	3005.6989	1184.5	299.4
1027.8714	3006.7567	1182.85	300.9
1027.9831	3007.8139	1194.85	285.65
1028.0947	3008.8705	1164.65	284.1
1028.2064	3009.9264	1169.8	270.85
1028.3179	3010.9818	1153.15	270.15
1028.4295	3012.0364	1148.4	265.75
1028.541	3013.0905	1146.7	262.35
1028.6524	3014.1439	1140.55	258.15
1028.7638	3015.1966	1140.9	258.7
1028.8752	3016.2487	1132.4	250.3
1028.9865	3017.3002	1139.55	249.75
1029.0978	3018.3511	1128	244.4
1029.209	3019.4013	1128.45	246.85
1029.3202	3020.4509	1125.4	243.05
1029.4314	3021.4998	1128.45	244.3
1029.5425	3022.5481	1125.4	243.25
1029.6535	3023.5958	1122.35	240.25
1029.7645	3024.6428	1122.75	239.9
1029.8755	3025.6892	1124.65	244.45
1029.9864	3026.735	1122.65	240
1030.0973	3027.7802	1121.8	240.7
1030.2082	3028.8247	1116.3	234.65
1030.319	3029.8685	1123.45	242.75
1030.4297	3030.9118	1115.9	231.85
1030.5404	3031.9544	1124.75	242.9
1030.6511	3032.9963	1127.8	245.05
1030.7617	3034.0376	1121.05	239.1
1030.8723	3035.0783	1126.6	240.05
1030.9829	3036.1184	1126.65	242.55
1031.0934	3037.1578	1126.95	245.65
1031.2038	3038.1966	1133.35	249
1031.3142	3039.2348	1125.8	243.05
1031.4246	3040.2723	1136.9	245.35
1031.5349	3041.3092	1129.5	248.6
1031.6452	3042.3455	1136.2	251.55
1031.7554	3043.3811	1135.3	251.7
1031.8656	3044.4161	1133.7	250.5
1031.9758	3045.4505	1132.8	249.95
1032.0859	3046.4842	1125	240.75
1032.1959	3047.5173	1130.8	249.95
1032.3059	3048.5498	1126	244.55
1032.4159	3049.5816	1125.75	242.3
1032.5258	3050.6128	1126.85	243.3
1032.6357	3051.6434	1124.8	242.75
1032.7455	3052.6734	1116.65	233.95
1032.8553	3053.7027	1116.15	232.45
1032.9651	3054.7314	1116.5	235.2
1033.0748	3055.7594	1111.7	229.15
1033.1845	3056.7868	1114.4	230.6
1033.2941	3057.8136	1114.75	232.9
1033.4037	3058.8398	1110.95	229.65
1033.5132	3059.8653	1107.8	225.85
1033.6227	3060.8902	1106.8	226.1
1033.7321	3061.9145	1101.15	220
1033.8415	3062.9381	1108.15	225.75
1033.9509	3063.9612	1117.3	219.2
1034.0602	3064.9835	1101.7	218.85
1034.1694	3066.0053	1099.7	214.55
1034.2787	3067.0264	1096.9	215.05
1034.3878	3068.0469	1096.05	210.75
1034.497	3069.0668	1093.85	208.9
1034.6061	3070.086	1087.65	206.85
1034.7151	3071.1046	1092.45	208.8
1034.8241	3072.1226	1084.2	200.35
1034.9331	3073.1399	1077	194.85
1035.042	3074.1567	1075.2	191.9
1035.1508	3075.1727	1074.65	188
1035.2597	3076.1882	1066	183.7
1035.3684	3077.203	1063.6	180.8
1035.4772	3078.2173	1056.45	171.55
1035.5859	3079.2308	1053.8	169.25
1035.6945	3080.2438	1051.3	166.15
1035.8031	3081.2561	1046.05	163.35
1035.9117	3082.2678	1039.2	157.05
1036.0202	3083.2789	1037.65	152.85
1036.1286	3084.2893	1036.65	154.45
1036.2371	3085.2991	1034.85	151.7
1036.3454	3086.3083	1033.6	145.9
1036.4538	3087.3169	1023.85	140.05
1036.562	3088.3248	1025.05	141.8
1036.6703	3089.3321	1021.6	136.45
1036.7785	3090.3388	1018.8	136.55
1036.8866	3091.3449	1013.4	130.05
1036.9948	3092.3503	1015.95	131.5
1037.1028	3093.3551	1010.3	129.1
1037.2108	3094.3593	1009.25	126.5
1037.3188	3095.3629	1009	127.7
1037.4267	3096.3658	1006.75	122.65
1037.5346	3097.3681	1000.85	117.7
1037.6425	3098.3698	1005.2	118.2
1037.7503	3099.3708	1005.25	116.95
1037.858	3100.3713	997.15	116
1037.9657	3101.3711	994.05	109.75
1038.0734	3102.3702	1134.8	110.1
1038.181	3103.3688	996.75	111.95
1038.2886	3104.3667	989.3	107.75
1038.3961	3105.364	988.65	107.65
1038.5036	3106.3607	987.3	103.7
1038.611	3107.3568	991.15	107.55
1038.7184	3108.3522	984.25	102.5
1038.8257	3109.347	986.8	103.55
1038.933	3110.3412	987.7	102.1
1039.0403	3111.3348	982.4	101.6
1039.1475	3112.3277	978.6	95.2
1039.2547	3113.32	980.7	98.55
1039.3618	3114.3117	981.4	97.45
1039.4689	3115.3028	977.95	96.65
1039.5759	3116.2932	978.7	95.3
1039.6829	3117.2831	983.45	94.45
1039.7898	3118.2723	974.55	90.45
1039.8967	3119.2608	974.95	94.1
1040.0035	3120.2488	971.6	88.6
1040.1103	3121.2361	970	86.55
1040.2171	3122.2229	970.4	87.95
1040.3238	3123.209	970.5	84.2
1040.4305	3124.1944	968.75	86.4
1040.5371	3125.1793	970.95	86.55
1040.6437	3126.1635	968.75	87.6
1040.7502	3127.1471	966.7	85.4
1040.8567	3128.1301	965.6	84.5
1040.9631	3129.1125	963.95	82.55
1041.0695	3130.0942	963	78.1
1041.1759	3131.0753	969.15	77.35
1041.2822	3132.0558	964.9	79.45
1041.3884	3133.0357	958.65	75.65
1041.4946	3134.015	960.6	77.5
1041.6008	3134.9936	959.3	73.9
1041.7069	3135.9716	979.6	76
1041.813	3136.949	957.05	75.45
1041.919	3137.9258	977.1	77.25
1042.025	3138.902	961.15	75.35
1042.1309	3139.8775	955.85	73.15
1042.2368	3140.8524	957.7	77.45
1042.3427	3141.8267	958.25	74.8
1042.4485	3142.8004	953.95	69.75
1042.5542	3143.7735	960.9	73.45
1042.6599	3144.7459	956	71.5
1042.7656	3145.7178	956.3	73.85
1042.8712	3146.689	951.9	69.4
1042.9768	3147.6596	956	71.55
1043.0823	3148.6295	951.85	70.15
1043.1878	3149.5989	951.9	69.4
1043.2932	3150.5676	947.85	66.95
1043.3986	3151.5357	948.8	68.6
1043.5039	3152.5032	948	68.15
1043.6092	3153.4701	945.45	61.55
1043.7145	3154.4364	952.45	68.7
1043.8197	3155.402	944.45	62
1043.9248	3156.367	947.6	64.55
1044.03	3157.3315	964.85	61.9
1044.135	3158.2952	946.25	62.55
1044.24	3159.2584	944.65	61.95
1044.345	3160.221	946.85	65.25
1044.4499	3161.1829	943.3	60.7
1044.5548	3162.1442	943.55	59.4
1044.6596	3163.105	942.8	59.75
1044.7644	3164.065	942.7	60.35
1044.8692	3165.0245	947.4	62.25
1044.9739	3165.9834	943.1	64.15
1045.0785	3166.9416	944.4	61.7
1045.1831	3167.8993	942	59.5
1045.2877	3168.8563	941	59.45
1045.3922	3169.8127	939.55	57.75
1045.4966	3170.7684	941	60.9
1045.6011	3171.7236	942.3	57.85
1045.7054	3172.6782	941.6	59.05
1045.8098	3173.6321	940.75	55.95
1045.914	3174.5854	945.35	57.1
1046.0183	3175.5381	941.1	59.6
1046.1224	3176.4902	938.7	57.25
1046.2266	3177.4417	936.65	53.85
1046.3307	3178.3926	935.7	54.65
1046.4347	3179.3428	934.6	53.75
1046.5387	3180.2924	937.95	55.2
1046.6427	3181.2415	937.65	55.15
1046.7466	3182.1899	937.95	53.45
1046.8504	3183.1377	936.35	54.75
1046.9542	3184.0848	939.25	52.15
1047.058	3185.0314	936.7	54.2
1047.1617	3185.9773	938.6	54.6
1047.2654	3186.9227	939.1	55.5
1047.369	3187.8674	936.2	54.45
1047.4726	3188.8115	936.85	49.45
1047.5761	3189.755	935.65	53.75
1047.6796	3190.6979	935.45	51.75
1047.783	3191.6402	932.6	50.1
1047.8864	3192.5818	934.2	51.45
1047.9898	3193.5229	937.9	48.75
1048.0931	3194.4633	930.75	48.75
1048.1963	3195.4031	930.2	47.05
1048.2995	3196.3423	928.9	46.35
1048.4027	3197.2809	933.45	50.85
1048.5058	3198.2189	934.6	52
1048.6089	3199.1563	947.95	47.45
1048.7119	3200.0931	930.9	49.4
1048.8148	3201.0292	930.9	49.4
1048.9178	3201.9648	928.6	44.85
1049.0206	3202.8997	931.55	47.1
1049.1235	3203.834	928.7	45.6
1049.2262	3204.7677	928.15	45
1049.329	3205.7008	931.3	47.25
1049.4317	3206.6333	926.25	46.6
1049.5343	3207.5652	932	47.05
1049.6369	3208.4964	926.3	43.2
1049.7394	3209.4271	926.9	44.95
1049.8419	3210.3571	928.05	47.05
1049.9444	3211.2865	929.5	44.9
1050.0468	3212.2154	929.85	46.15
1050.1491	3213.1436	929.85	43
1050.2514	3214.0712	932.9	42.35
1050.3537	3214.9982	926.6	42.25
1050.4559	3215.9246	925.6	41.35
1050.5581	3216.8503	926.25	45.15
1050.6602	3217.7755	923.35	39.8
1050.7623	3218.7001	925.85	42.75
1050.8643	3219.624	924.7	43.7
1050.9663	3220.5473	923.6	41.15
1051.0682	3221.4701	924.9	39.1
1051.1701	3222.3922	927.85	43.45
1051.2719	3223.3137	923.35	42.2
1051.3737	3224.2346	922.65	41
1051.4754	3225.1549	922.05	39.8
1051.5771	3226.0746	924.8	42.4
1051.6788	3226.9937	923.5	39.25
1051.7804	3227.9121	922.75	41
1051.8819	3228.83	925	43.5
1051.9834	3229.7473	922.5	40.2
1052.0849	3230.6639	922.15	40.45
1052.1863	3231.5799	920.45	38.45
1052.2876	3232.4954	922.75	40.3
1052.3889	3233.4102	921.25	38.75
1052.4902	3234.3244	918.25	34.25
1052.5914	3235.238	920.25	38
1052.6926	3236.151	945	38.2
1052.7937	3237.0634	922.3	41.8
1052.8948	3237.9752	922.3	39.7
1052.9958	3238.8864	920.25	35.3
1053.0968	3239.797	920.65	36.95
1053.1977	3240.7069	920.75	36.15
1053.2986	3241.6163	919.1	35.9
1053.3994	3242.5251	920.55	39.45
1053.5002	3243.4332	919.8	38.9
1053.6009	3244.3408	921.35	38.55
1053.7016	3245.2477	918.6	36.1
1053.8022	3246.154	916.6	35.95
1053.9028	3247.0598	918.35	36.65
1054.0034	3247.9649	916.35	34.45
1054.1039	3248.8694	915.65	32.65
1054.2043	3249.7733	918.1	35.7
1054.3047	3250.6766	915.75	32.85
1054.4051	3251.5793	915.1	30.4
1054.5054	3252.4814	915.85	33.1
1054.6056	3253.3829	916.5	32.95
1054.7058	3254.2838	914.3	32.4
1054.806	3255.1841	913.7	31.55
1054.9061	3256.0838	913.65	30.2
1055.0061	3256.9829	913.2	31.6
1055.1062	3257.8814	913.4	27.35
1055.2061	3258.7792	915.95	31.15
1055.306	3259.6765	914.2	32.15
1055.4059	3260.5731	913.45	32.1
1055.5057	3261.4692	911.95	28.5
1055.6055	3262.3647	913.4	31.05
1055.7052	3263.2595	912.9	29.3
1055.8049	3264.1538	908.7	28
1055.9045	3265.0474	910.75	27.1
1056.0041	3265.9404	908.75	26.75
1056.1036	3266.8329	907	26
1056.2031	3267.7247	920.7	29.25
1056.3025	3268.616	911	28.6
1056.4019	3269.5066	908.55	22.95
1056.5013	3270.3966	907.45	23.55
1056.6005	3271.286	903.85	22
