Software Version:	3.9.2.0
Unit SN:	10000200
Spectrometer SN:	6960
Date:	3/14/2024 1:37:06 PM
Data Line Index:	25
Spectral Points:	2048
Integration time (ms):	125
Averages:	20
Delay (ms):	30000
Sequence Number:	1
Processing:	dark subtract
Laser Power (mW):	305
Laser Current (mA):	823
Laser Diode Temp (C):	25
Laser Case Temp (C):	28.7
System Temp (C):	28.7
Spectrometer Temp (C):	26.4
CCD Temp (C):	0.001
Secondary Temp (C):	20.007
Heatsink Temp (C):	24.58
CCDPCB Temp (C):	37.874
SecondaryPCB Temp (C):	35.707

Wavelength	RamanShift	Raw Counts	Dark Subtracted
787.061	30.1047	465.55	55.95
787.2016	32.3739	467.1	59.65
787.3422	34.6426	471.85	63.9
787.4828	36.9109	481.25	70.45
787.6235	39.1787	487.05	73.5
787.7642	41.4461	496.45	77.3
787.9049	43.7131	509.3	85.4
788.0456	45.9796	517.2	90.75
788.1863	48.2456	529.4	97.55
788.3271	50.5112	539.4	101.95
788.4679	52.7764	545.7	106.65
788.6087	55.0411	556.6	113.9
788.7496	57.3054	571.25	125.6
788.8904	59.5692	583	132.8
789.0313	61.8326	597.2	143.75
789.1722	64.0955	615.25	155.2
789.3132	66.3579	631.65	167.7
789.4541	68.6199	650.55	185.35
789.5951	70.8815	691.1	223.2
789.7361	73.1426	772.15	299.85
789.8771	75.4032	993.55	515.75
790.0181	77.6634	1549.85	1066.7
790.1592	79.9231	2842.45	2353.15
790.3003	82.1824	5698.45	5198.2
790.4414	84.4412	10901.45	10382.5
790.5825	86.6995	18240.1	17694.55
790.7237	88.9574	25527.35	24959.55
790.8648	91.2148	30587.25	30001.1
791.006	93.4717	32981.8	32388.8
791.1472	95.7282	33486.25	32888.15
791.2885	97.9842	33397.5	32795.8
791.4297	100.2398	32732.35	32126.1
791.571	102.4949	32027.8	31419.2
791.7123	104.7495	31167.35	30554.2
791.8536	107.0036	30291.35	29680.05
791.9949	109.2573	29449	28836.05
792.1363	111.5105	28703.9	28090.75
792.2777	113.7632	27977.95	27362.2
792.4191	116.0154	27397	26769.25
792.5605	118.2672	27004.05	26384.75
792.7019	120.5185	26555.1	25936.15
792.8434	122.7693	26255.75	25633.85
792.9849	125.0197	26023.7	25396.45
793.1264	127.2696	25685.85	25057.7
793.2679	129.519	25572.75	24943.35
793.4094	131.7679	25316.4	24683.45
793.551	134.0163	25070.75	24433.65
793.6926	136.2642	24762.8	24120.15
793.8342	138.5117	24433.1	23784.35
793.9758	140.7587	24084.55	23441.15
794.1175	143.0052	23837.6	23190.05
794.2591	145.2512	23490.35	22844.2
794.4008	147.4967	23196.75	22550.1
794.5425	149.7417	22977.65	22327.65
794.6842	151.9863	22825.05	22170.65
794.826	154.2304	22711.15	22057.6
794.9677	156.4739	22576.05	21912.75
795.1095	158.717	22492.3	21831.85
795.2513	160.9596	22289.55	21621.8
795.3931	163.2017	21985.95	21319.55
795.535	165.4433	21705.2	21036.5
795.6768	167.6844	21363.9	20691.5
795.8187	169.925	21014.4	20341.15
795.9606	172.1651	20601.8	19927.4
796.1025	174.4047	20329.2	19645.25
796.2445	176.6439	20059.55	19376.6
796.3864	178.8825	19826.6	19140.15
796.5284	181.1206	19674.4	18985.5
796.6704	183.3582	19533.85	18842.65
796.8124	185.5954	19414.65	18721.7
796.9544	187.832	19318.75	18624.25
797.0965	190.0681	19287.55	18592.05
797.2386	192.3037	19275.85	18571.95
797.3806	194.5388	19246.5	18544.1
797.5228	196.7734	19298.45	18592.65
797.6649	199.0075	19352.95	18642.8
797.807	201.2411	19508.1	18794.45
797.9492	203.4742	19569.55	18854.65
798.0914	205.7068	19721.05	19003.9
798.2336	207.9389	19845.45	19132.9
798.3758	210.1704	19995.2	19279.85
798.518	212.4015	20044.35	19325.35
798.6603	214.632	20230.45	19507.2
798.8025	216.862	20411.4	19698.25
798.9448	219.0915	20514.3	19806.55
799.0871	221.3205	20631.8	19924.7
799.2294	223.549	20782.85	20082.4
799.3718	225.777	20959.45	20257.7
799.5141	228.0044	21172.45	20472.05
799.6565	230.2314	21412.6	20713.8
799.7989	232.4578	21660.9	20964.45
799.9413	234.6837	21873.75	21167.35
800.0837	236.909	22003.25	21295.05
800.2262	239.1339	22021.75	21291.05
800.3687	241.3582	21863.55	21147.35
800.5111	243.582	21668.35	20927.8
800.6536	245.8053	21488.6	20753.05
800.7961	248.0281	21337.6	20600.35
800.9387	250.2503	21207.65	20469.9
801.0812	252.472	21194.05	20453.15
801.2238	254.6932	21207	20463.85
801.3664	256.9139	21268.6	20521.1
801.509	259.134	21368.3	20617.85
801.6516	261.3536	21531.65	20786.2
801.7942	263.5727	21768.35	21022.85
801.9369	265.7912	21865.15	21116.5
802.0795	268.0092	22075.4	21327.5
802.2222	270.2267	22200.7	21452.3
802.3649	272.4436	22213.3	21461.6
802.5076	274.6601	22193.45	21433.9
802.6504	276.8759	22074.9	21323.85
802.7931	279.0913	21987.45	21233.05
802.9359	281.3061	21861.6	21108.9
803.0787	283.5204	21815.15	21055.95
803.2215	285.7341	21797.8	21034.8
803.3643	287.9473	21869.65	21095.85
803.5071	290.16	21985.3	21218.05
803.6499	292.3721	22170.75	21407.6
803.7928	294.5837	22477.4	21710.7
803.9357	296.7947	22766.7	22003.8
804.0786	299.0052	22908.7	22147.7
804.2215	301.2152	22810.35	22046.3
804.3644	303.4246	22572.15	21808.35
804.5074	305.6334	22093.2	21329.6
804.6503	307.8418	21648.3	20878.55
804.7933	310.0495	21154.05	20389.65
804.9363	312.2568	20755.95	19991
805.0793	314.4635	20377.45	19609.2
805.2223	316.6696	20155.2	19384.35
805.3653	318.8752	19945.05	19167.7
805.5084	321.0802	19943.35	19174.25
805.6514	323.2847	19970.15	19194.9
805.7945	325.4887	19986.4	19215.35
805.9376	327.692	19954.15	19182
806.0807	329.8949	19878.95	19106.45
806.2238	332.0972	19637	18862.1
806.367	334.2989	19429.35	18651.6
806.5101	336.5001	19136.9	18358
806.6533	338.7007	18911.25	18128.95
806.7965	340.9008	18771.4	17992.4
806.9397	343.1003	18628.5	17843.55
807.0829	345.2992	18513.7	17728.5
807.2261	347.4976	18420.7	17635.1
807.3693	349.6955	18355.75	17567.5
807.5126	351.8927	18394.85	17606
807.6559	354.0895	18310.7	17511.5
807.7991	356.2856	18295.15	17505.8
807.9424	358.4812	18205.9	17417.95
808.0857	360.6763	18233.85	17443.95
808.2291	362.8707	18211.65	17421.2
808.3724	365.0646	18256.9	17462.9
808.5158	367.258	18250.35	17456.75
808.6591	369.4508	18298.65	17498.8
808.8025	371.643	18403.25	17603.45
808.9459	373.8346	18434.75	17633.25
809.0893	376.0257	18459.75	17655.35
809.2327	378.2162	18414.4	17611.7
809.3762	380.4062	18373.1	17569.45
809.5196	382.5956	18192.45	17384.25
809.6631	384.7844	18101.25	17295.25
809.8066	386.9726	17907.6	17098.55
809.9501	389.1603	17840.35	17034.3
810.0936	391.3474	17794.1	16952.2
810.2371	393.5339	17740.65	16930.05
810.3806	395.7199	17670	16865
810.5241	397.9052	17665.7	16862.35
810.6677	400.09	17712.45	16912.95
810.8113	402.2743	17810.95	17011.4
810.9548	404.4579	17911.7	17111.55
811.0984	406.641	18079.75	17279.1
811.2421	408.8235	18313.25	17515.2
811.3857	411.0054	18524.75	17723.05
811.5293	413.1868	18801	17999.85
811.673	415.3675	18933.6	18129.35
811.8166	417.5477	19004.7	18199.85
811.9603	419.7273	19016.25	18209.55
812.104	421.9064	18908.75	18092.45
812.2477	424.0848	18798.95	17985.25
812.3914	426.2627	18617.95	17805.1
812.5351	428.4399	18315.7	17501.5
812.6788	430.6166	17954.95	17137.1
812.8226	432.7928	17583.15	16763.1
812.9663	434.9683	17226.55	16405.95
813.1101	437.1432	17000.65	16178.6
813.2539	439.3176	16800.9	15976.75
813.3977	441.4914	16696.35	15874.85
813.5415	443.6645	16644.8	15819.3
813.6853	445.8371	16582.3	15756.7
813.8291	448.0091	16480.65	15658.45
813.973	450.1806	16440.75	15617.1
814.1168	452.3514	16366.4	15541.75
814.2607	454.5216	16400.6	15567.35
814.4046	456.6913	16329.5	15502.05
814.5485	458.8603	16387	15561.2
814.6924	461.0288	16413.65	15586.55
814.8363	463.1967	16424.9	15598.3
814.9802	465.3639	16479.75	15648.6
815.1241	467.5306	16463.85	15632.5
815.2681	469.6967	16523.15	15696.3
815.412	471.8622	16568.55	15742.95
815.556	474.0271	16646.9	15818.4
815.7	476.1914	16694.1	15861.75
815.844	478.3551	16660.05	15831.75
815.988	480.5182	16688.6	15858.8
816.132	482.6807	16714.6	15883.6
816.276	484.8426	16905	16076.25
816.4201	487.0039	17206.25	16371.6
816.5641	489.1647	17598.7	16767.1
816.7082	491.3248	17952.35	17120.9
816.8522	493.4843	18098.55	17265.6
816.9963	495.6432	18074.15	17241.55
817.1404	497.8015	17899.25	17064.6
817.2845	499.9592	17834.55	17002.25
817.4286	502.1163	17653.4	16817.4
817.5727	504.2728	17339.9	16503.1
817.7168	506.4287	17039.25	16201.55
817.861	508.5839	16643.2	15805.35
818.0051	510.7386	16360.85	15526.8
818.1493	512.8927	16214.85	15371.5
818.2935	515.0461	16174.75	15339.6
818.4377	517.199	16159.9	15322.35
818.5818	519.3512	16263.75	15426.05
818.726	521.5029	16489.3	15644.8
818.8703	523.6539	16640.8	15799.85
819.0145	525.8043	16740	15900.05
819.1587	527.9541	16667.5	15822.6
819.303	530.1033	16516.35	15673.95
819.4472	532.2519	16427.15	15587.65
819.5915	534.3999	16425.3	15580.65
819.7357	536.5472	16573.8	15730.5
819.88	538.694	16854.2	16011.05
820.0243	540.8401	17264.2	16420.4
820.1686	542.9856	17601.25	16753
820.3129	545.1305	17645.4	16802
820.4572	547.2748	17535.05	16688.6
820.6016	549.4185	17257.9	16412.25
820.7459	551.5615	17012.2	16167
820.8902	553.704	16904.9	16058.6
821.0346	555.8458	16920.85	16076.5
821.1789	557.987	17006.1	16157.8
821.3233	560.1276	17162.4	16315.85
821.4677	562.2675	17383.8	16538.5
821.6121	564.4069	17742.15	16897.15
821.7565	566.5456	18001.35	17154.2
821.9009	568.6837	18060.9	17212.95
822.0453	570.8212	17690.75	16844.95
822.1897	572.958	17099.75	16249.55
822.3342	575.0942	16573.8	15730.95
822.4786	577.2299	16201.3	15354.8
822.6231	579.3648	16039.25	15189.65
822.7675	581.4992	16009	15161.45
822.912	583.6329	16135.8	15290.4
823.0565	585.766	16316.9	15471.85
823.201	587.8985	16443.3	15596.85
823.3454	590.0304	16481.75	15610
823.4899	592.1616	16362.7	15511.1
823.6345	594.2922	16215.8	15368.4
823.779	596.4222	16047.6	15195.7
823.9235	598.5515	15812.25	14960.15
824.068	600.6802	15616.15	14765.65
824.2126	602.8083	15430.4	14579.85
824.3571	604.9358	15398.7	14545.25
824.5017	607.0626	15362.25	14511.15
824.6462	609.1888	15406.75	14554.15
824.7908	611.3144	15468.5	14614.9
824.9354	613.4393	15496.95	14645.25
825.08	615.5636	15545.9	14692.95
825.2246	617.6873	15450.4	14596.2
825.3692	619.8103	15411.35	14557.75
825.5138	621.9327	15242.45	14387.4
825.6584	624.0544	15062.3	14209.3
825.803	626.1756	14926.25	14073.2
825.9477	628.2961	14833.3	13980.7
826.0923	630.4159	14715.8	13861.7
826.237	632.5351	14690.15	13836.5
826.3816	634.6537	14641.3	13786.3
826.5263	636.7716	14598.4	13741.45
826.6709	638.8889	14595.9	13740.15
826.8156	641.0056	14657.8	13803.9
826.9603	643.1216	14609.95	13752.15
827.105	645.237	14590.95	13730.95
827.2497	647.3518	14491.3	13630.95
827.3944	649.4659	14467.95	13609.75
827.5391	651.5793	14392.25	13535.6
827.6838	653.6922	14347.25	13491.4
827.8285	655.8043	14314.4	13455.85
827.9733	657.9159	14321.05	13462.5
828.118	660.0268	14246.7	13385.9
828.2627	662.137	14216.2	13357.8
828.4075	664.2466	14205.95	13344
828.5522	666.3556	14186.5	13325.5
828.697	668.4639	14132.1	13268.3
828.8418	670.5716	14160.9	13299.65
828.9865	672.6786	14127.75	13269.25
829.1313	674.785	14089	13229.15
829.2761	676.8907	14094.1	13229.9
829.4209	678.9958	14114.6	13255.4
829.5657	681.1002	14072.95	13210.15
829.7105	683.204	14031	13166.5
829.8553	685.3072	14002.1	13138.25
830.0001	687.4097	13966.35	13103.4
830.1449	689.5115	13904.1	13039.35
830.2898	691.6127	13871.85	13008.95
830.4346	693.7132	13841.15	12979.1
830.5794	695.8131	13838.85	12959.65
830.7243	697.9123	13810.4	12946.45
830.8691	700.0109	13789.9	12925.05
831.014	702.1089	13796.75	12932.75
831.1588	704.2061	13809.95	12944.65
831.3037	706.3028	13830.85	12965.3
831.4486	708.3987	13876.4	13009.7
831.5935	710.4941	13908.25	13045.4
831.7383	712.5887	13985.25	13118.4
831.8832	714.6827	14138.75	13269.5
832.0281	716.7761	14343.6	13478.05
832.173	718.8688	14596.4	13730.25
832.3179	720.9608	14746.5	13878.1
832.4628	723.0522	14865.85	13994.7
832.6077	725.1429	14797.25	13931.25
832.7527	727.233	14742	13873.2
832.8976	729.3224	14646.55	13777.7
833.0425	731.4112	14490.05	13620
833.1874	733.4993	14309.55	13440.25
833.3324	735.5867	14095.35	13228.2
833.4773	737.6735	13875.55	13007
833.6222	739.7596	13723.2	12854.55
833.7672	741.845	13593.05	12722.85
833.9122	743.9298	13506.5	12635.55
834.0571	746.014	13490.25	12621.5
834.2021	748.0974	13445.2	12576.8
834.347	750.1802	13457.95	12589.3
834.492	752.2624	13471.1	12605.45
834.637	754.3439	13488.85	12617.35
834.782	756.4247	13544.1	12665.95
834.9269	758.5048	13703.15	12834.15
835.0719	760.5843	13983.8	13111.65
835.2169	762.6631	14337.9	13468.5
835.3619	764.7413	14907.7	14039.3
835.5069	766.8188	15625.95	14753.45
835.6519	768.8956	16120.1	15249.35
835.7969	770.9718	16461.5	15592.25
835.9419	773.0473	16313.35	15442.2
836.0869	775.1221	16036.7	15168
836.232	777.1962	15698.55	14826.95
836.377	779.2697	15584.5	14710.1
836.522	781.3426	15598.2	14718.25
836.667	783.4147	15730.25	14857.65
836.8121	785.4862	15872	15001.85
836.9571	787.557	15774.3	14902.25
837.1021	789.6271	15323.8	14451.75
837.2472	791.6966	14689.1	13816.25
837.3922	793.7654	14065.75	13194.1
837.5373	795.8335	13654.35	12782.05
837.6823	797.901	13386.35	12515.4
837.8274	799.9678	13240.4	12364.8
837.9724	802.0339	13144.6	12273.15
838.1175	804.0993	13119.4	12239.65
838.2626	806.1641	13052.75	12181.25
838.4076	808.2282	12956.9	12082.9
838.5527	810.2916	12918.7	12045.75
838.6978	812.3544	12825.95	11954.55
838.8428	814.4164	12722.1	11851.1
838.9879	816.4778	12751.8	11878.5
839.133	818.5385	12747.15	11878.75
839.2781	820.5986	12859.5	11988.2
839.4232	822.658	13057.3	12182.4
839.5682	824.7166	13301.5	12432.1
839.7133	826.7747	13737.55	12866.15
839.8584	828.832	14135.2	13264.2
840.0035	830.8886	14419.6	13542.65
840.1486	832.9446	14581.55	13709.15
840.2937	834.9999	14509.6	13636.8
840.4388	837.0545	14283.65	13404.95
840.5839	839.1085	14032.75	13159.95
840.729	841.1618	13812.85	12933
840.8741	843.2143	13614.45	12742.8
841.0192	845.2662	13433.5	12560.65
841.1643	847.3175	13327	12454.1
841.3095	849.368	13153.35	12278.2
841.4546	851.4179	13040.55	12164.95
841.5997	853.467	12911.85	12037.1
841.7448	855.5155	12819.95	11945
841.8899	857.5633	12710.7	11833.85
842.0351	859.6105	12614.2	11738.9
842.1802	861.6569	12541.65	11667.5
842.3253	863.7027	12436.35	11559.25
842.4704	865.7478	12383.7	11508.75
842.6156	867.7922	12380.45	11505.8
842.7607	869.8359	12351	11475.5
842.9058	871.8789	12357.95	11481.5
843.0509	873.9212	12523.4	11612.45
843.1961	875.9629	12596.85	11721.45
843.3412	878.0039	12718.9	11843.8
843.4863	880.0441	12836.25	11959.25
843.6315	882.0837	12835.8	11959.15
843.7766	884.1226	12839.8	11963.3
843.9218	886.1609	12835.95	11961.4
844.0669	888.1984	12827.7	11952.8
844.212	890.2352	12902.35	12026.6
844.3572	892.2714	12885.55	12004.85
844.5023	894.3069	12836.5	11959.4
844.6475	896.3416	12702.75	11824.7
844.7926	898.3757	12550.45	11673.2
844.9377	900.4091	12481.75	11602.15
845.0829	902.4418	12469.2	11589
845.228	904.4739	12511.6	11631.45
845.3732	906.5052	12528.6	11648.15
845.5183	908.5358	12437.6	11559.15
845.6635	910.5658	12296.95	11417.3
845.8086	912.595	12081.45	11203.9
845.9538	914.6236	11873	10996
846.0989	916.6515	11759.2	10883.7
846.2441	918.6786	11686.4	10807.75
846.3892	920.7051	11689.9	10810.15
846.5344	922.7309	11748.2	10868.65
846.6795	924.756	11770.3	10891.65
846.8246	926.7804	11849.85	10968.65
846.9698	928.8041	11813.5	10931.05
847.1149	930.8272	11864.05	10984.4
847.2601	932.8495	11824.15	10944.45
847.4052	934.8711	11798.3	10919.7
847.5504	936.892	11684.2	10805.35
847.6955	938.9123	11626.25	10746.25
847.8407	940.9318	11566.95	10689.5
847.9858	942.9506	11521.2	10640.1
848.131	944.9688	11425.95	10548.55
848.2761	946.9862	11342.3	10460.9
848.4213	949.003	11220.35	10341.3
848.5664	951.019	11130.55	10249.3
848.7115	953.0344	11101.9	10222.55
848.8567	955.0491	11087.35	10208.65
849.0018	957.063	11110.3	10232.8
849.147	959.0763	11211.2	10331.8
849.2921	961.0888	11232.45	10350.5
849.4373	963.1007	11306.55	10426.45
849.5824	965.1119	11317.25	10437
849.7275	967.1223	11328.45	10446.75
849.8727	969.1321	11294.3	10414.7
850.0178	971.1412	11304.95	10424.7
850.1629	973.1495	11263.15	10382.6
850.3081	975.1572	11312.55	10399.25
850.4532	977.1641	11290.65	10409.3
850.5983	979.1704	11291.6	10410.7
850.7435	981.1759	11220.3	10336.35
850.8886	983.1808	11225.55	10347.2
851.0337	985.1849	11292.9	10403.2
851.1788	987.1884	11365.45	10480.3
851.324	989.1911	11505.6	10622.95
851.4691	991.1932	11594.85	10709.15
851.6142	993.1945	11604.8	10723.65
851.7593	995.1951	11575.55	10695
851.9045	997.1951	11553	10665.6
852.0496	999.1943	11468	10587.9
852.1947	1001.1928	11437.35	10554.25
852.3398	1003.1906	11465.35	10583.3
852.4849	1005.1877	11537.2	10652.9
852.63	1007.1841	11613.85	10732.7
852.7751	1009.1798	11576.3	10696.1
852.9202	1011.1748	11452.95	10572.1
853.0653	1013.1691	11275.3	10392.15
853.2104	1015.1627	11032.05	10149.95
853.3555	1017.1556	10819.7	9941.2
853.5006	1019.1477	10685.85	9804.55
853.6457	1021.1392	10594.35	9714.4
853.7908	1023.1299	10552.55	9673.75
853.9359	1025.12	10547	9663.8
854.081	1027.1093	10584.85	9704.65
854.2261	1029.0979	10701.85	9822.1
854.3712	1031.0859	10784.95	9903.35
854.5163	1033.0731	10800.35	9920.05
854.6613	1035.0596	10751.85	9871
854.8064	1037.0454	10589.6	9707.15
854.9515	1039.0304	10470.15	9588.55
855.0965	1041.0148	10331.05	9448.1
855.2416	1042.9985	10252.9	9370.75
855.3867	1044.9814	10180.5	9301.1
855.5317	1046.9636	10121.35	9237.15
855.6768	1048.9452	10111.3	9230.2
855.8219	1050.926	10130.75	9251.25
855.9669	1052.9061	10132.1	9250.15
856.112	1054.8855	10128	9249.1
856.257	1056.8642	10182.35	9302.35
856.4021	1058.8421	10214.45	9329.9
856.5471	1060.8194	10249.95	9369.4
856.6921	1062.7959	10286.75	9405.2
856.8372	1064.7717	10313.8	9430.25
856.9822	1066.7469	10348.4	9465.1
857.1272	1068.7213	10389.05	9504.85
857.2723	1070.695	10456.85	9577.65
857.4173	1072.6679	10455.4	9574
857.5623	1074.6402	10428.75	9544.15
857.7073	1076.6117	10397	9510.95
857.8523	1078.5826	10317.85	9436.35
857.9973	1080.5527	10209.15	9325
858.1423	1082.5221	10173.25	9291.1
858.2873	1084.4908	10254.35	9370.7
858.4323	1086.4587	10315.25	9431.65
858.5773	1088.426	10393.9	9510.75
858.7223	1090.3925	10399.45	9512.35
858.8673	1092.3584	10398.75	9515.85
859.0123	1094.3235	10318	9436.85
859.1573	1096.2879	10337.1	9455.1
859.3022	1098.2515	10415.7	9534
859.4472	1100.2145	10559.95	9680.65
859.5922	1102.1767	10707.95	9820.65
859.7371	1104.1382	10916.2	10032.05
859.8821	1106.099	11147.75	10261.05
860.027	1108.0591	11367.35	10485.7
860.172	1110.0185	11516.55	10632.35
860.3169	1111.9771	11592.7	10710.1
860.4619	1113.9351	11453.4	10569.55
860.6068	1115.8923	11234.2	10353
860.7517	1117.8488	11026.25	10139.65
860.8967	1119.8045	10798.45	9915.65
861.0416	1121.7596	10660.15	9778.35
861.1865	1123.7139	10530.8	9646.75
861.3314	1125.6675	10513.35	9632.15
861.4763	1127.6204	10542.95	9662.5
861.6212	1129.5726	10494.1	9609.45
861.7661	1131.524	10449.35	9567.5
861.911	1133.4748	10302.35	9419.95
862.0559	1135.4248	10149.9	9264.4
862.2008	1137.3741	10045.3	9163
862.3457	1139.3226	9967.6	9082.2
862.4905	1141.2705	9932.45	9049.75
862.6354	1143.2176	9818.05	8928.85
862.7803	1145.164	9772.7	8888.5
862.9251	1147.1097	9711.45	8830.05
863.07	1149.0546	9682.25	8797.1
863.2148	1150.9989	9572.5	8690.7
863.3597	1152.9424	9438.25	8553.7
863.5045	1154.8852	9302.8	8417.3
863.6493	1156.8272	9239.5	8355.65
863.7942	1158.7686	9226.35	8336.7
863.939	1160.7092	9211.9	8326.35
864.0838	1162.6491	9244.55	8358.95
864.2286	1164.5883	9350.35	8467.6
864.3734	1166.5267	9449.45	8564.75
864.5182	1168.4644	9592.35	8706.05
864.663	1170.4014	9800	8915.35
864.8078	1172.3377	10040.45	9157.5
864.9526	1174.2732	10326.3	9443.3
865.0974	1176.2081	10688.8	9806.35
865.2421	1178.1421	11118.75	10229.85
865.3869	1180.0755	11549.05	10666.45
865.5317	1182.0082	11818.55	10936.5
865.6764	1183.9401	11926.7	11040.8
865.8212	1185.8713	11831.35	10947.7
865.9659	1187.8017	11530	10644.45
866.1106	1189.7315	11157.45	10275.25
866.2554	1191.6605	10809.75	9896.45
866.4001	1193.5888	10516.95	9632.15
866.5448	1195.5163	10362.45	9480.5
866.6895	1197.4432	10257.6	9372.3
866.8342	1199.3693	10218.1	9335.3
866.9789	1201.2947	10187.9	9297.1
867.1236	1203.2193	10150.2	9265.9
867.2683	1205.1432	10136.9	9254.25
867.413	1207.0664	10131.25	9245.85
867.5576	1208.9889	10153.4	9267.35
867.7023	1210.9106	10097	9213.9
867.847	1212.8316	10103.45	9220.7
867.9916	1214.7519	10188.9	9294.75
868.1363	1216.6715	10199.65	9314.95
868.2809	1218.5903	10236.5	9354.85
868.4255	1220.5084	10307.95	9426.1
868.5701	1222.4257	10359.6	9475.55
868.7148	1224.3424	10381.5	9500.3
868.8594	1226.2583	10482.1	9591.4
869.004	1228.1735	10585.9	9700.3
869.1486	1230.0879	10709.3	9823
869.2932	1232.0016	10869.35	9986.75
869.4377	1233.9146	10941.85	10056.45
869.5823	1235.8269	10904.3	10021.2
869.7269	1237.7384	10855.45	9970.05
869.8715	1239.6492	10680.15	9795.6
870.016	1241.5592	10605.9	9719.4
870.1606	1243.4686	10570.4	9687.9
870.3051	1245.3772	10678.8	9792.95
870.4496	1247.285	10819.65	9934.55
870.5941	1249.1922	10929.1	10043.7
870.7387	1251.0986	10972.6	10089.35
870.8832	1253.0042	11020.6	10136.9
871.0277	1254.9092	11125.3	10241.45
871.1722	1256.8134	11191.8	10308.5
871.3167	1258.7169	11343.1	10458.15
871.4611	1260.6196	11498.6	10613.05
871.6056	1262.5216	11743.65	10856.1
871.7501	1264.4229	11940.55	11057
871.8945	1266.3234	12123.75	11241.2
872.039	1268.2232	12242.05	11356.5
872.1834	1270.1223	12275.85	11391.8
872.3278	1272.0207	12299.45	11416.85
872.4723	1273.9183	12242.95	11353.25
872.6167	1275.8151	12197	11312.3
872.7611	1277.7113	12155.55	11271.75
872.9055	1279.6067	12139.1	11254.6
873.0499	1281.5014	12254.35	11368.5
873.1943	1283.3953	12469	11582.9
873.3386	1285.2885	12826	11942.25
873.483	1287.181	13169.3	12283.2
873.6274	1289.0727	13549.55	12666.2
873.7717	1290.9637	13779.35	12894.75
873.9161	1292.854	13930.6	13047.55
874.0604	1294.7435	13932.75	13047.15
874.2047	1296.6323	13934.25	13049.1
874.349	1298.5204	13904.2	13014.25
874.4933	1300.4077	13854.5	12968.95
874.6376	1302.2943	13719.75	12838.35
874.7819	1304.1802	13544.75	12658.65
874.9262	1306.0653	13189.2	12304.3
875.0705	1307.9497	12808.8	11924.2
875.2147	1309.8333	12477.8	11592.7
875.359	1311.7162	12215.3	11330.7
875.5032	1313.5984	12112.25	11223.9
875.6475	1315.4798	12025.65	11125.8
875.7917	1317.3605	12028.45	11128.25
875.9359	1319.2405	11962.5	11077.4
876.0801	1321.1197	11806.3	10920.1
876.2243	1322.9982	11562.25	10672.75
876.3685	1324.876	11366.8	10483.3
876.5127	1326.753	11136.25	10250.15
876.6569	1328.6293	10982.25	10094.7
876.801	1330.5048	10877.15	9990.9
876.9452	1332.3796	10764.55	9879.85
877.0893	1334.2537	10721.4	9810.25
877.2335	1336.127	10635.85	9749.35
877.3776	1337.9996	10598.85	9713.1
877.5217	1339.8714	10589.1	9703.45
877.6658	1341.7426	10627.2	9696.85
877.8099	1343.6129	10586.55	9701.95
877.954	1345.4826	10594.5	9710.15
878.0981	1347.3515	10586.05	9699.9
878.2422	1349.2196	10568.1	9681.1
878.3862	1351.087	10584.15	9698.45
878.5303	1352.9537	10632.9	9744.9
878.6743	1354.8197	10757.9	9873.9
878.8184	1356.6849	10934.4	10048.7
878.9624	1358.5493	11069.2	10185.2
879.1064	1360.4131	11226.25	10341.65
879.2504	1362.276	11295.8	10412.05
879.3944	1364.1383	11275.35	10391.95
879.5384	1365.9998	11056.65	10165.85
879.6823	1367.8606	10698.3	9811.75
879.8263	1369.7206	10334.45	9448.55
879.9702	1371.5799	10043.05	9155.95
880.1142	1373.4384	9774.05	8889.65
880.2581	1375.2962	9542.35	8656.65
880.402	1377.1533	9241.55	8357.4
880.5459	1379.0096	8897.95	8013.6
880.6898	1380.8652	8541.75	7655.9
880.8337	1382.7201	8239.5	7354.45
880.9776	1384.5742	8003.3	7117.1
881.1215	1386.4275	7836.55	6949
881.2653	1388.2802	7695.75	6811.65
881.4092	1390.132	7569.6	6684.55
881.553	1391.9832	7491	6604.35
881.6968	1393.8336	7426.55	6541.55
881.8406	1395.6832	7383.8	6497.05
881.9844	1397.5322	7363.5	6478.95
882.1282	1399.3803	7314.9	6422.75
882.272	1401.2278	7283.15	6396.45
882.4158	1403.0745	7284.95	6398.6
882.5595	1404.9204	7274.05	6388.95
882.7033	1406.7656	7285.4	6399.7
882.847	1408.6101	7294.3	6407.6
882.9908	1410.4538	7352.35	6465.6
883.1345	1412.2968	7403.6	6518.2
883.2782	1414.139	7434.9	6548.85
883.4219	1415.9805	7546.4	6663.15
883.5656	1417.8213	7590.15	6697.9
883.7092	1419.6613	7702.6	6816.6
883.8529	1421.5006	7880	6991.55
883.9965	1423.3391	8098.05	7211
884.1402	1425.1769	8404.7	7518.5
884.2838	1427.0139	8847.7	7961.4
884.4274	1428.8502	9430.45	8543.5
884.571	1430.6858	9982.85	9097.8
884.7146	1432.5206	10390.05	9503.65
884.8582	1434.3547	10648.1	9761.95
885.0018	1436.188	10657.25	9772.3
885.1453	1438.0206	10569.95	9683.9
885.2889	1439.8524	10398.6	9511.85
885.4324	1441.6835	10267.2	9381
885.5759	1443.5139	10169.8	9279.8
885.7194	1445.3435	10092.6	9207.5
885.8629	1447.1724	10035.2	9150.45
886.0064	1449.0005	9995.35	9110.9
886.1499	1450.8279	9910.7	9022.05
886.2933	1452.6545	9906.7	9018.25
886.4368	1454.4804	9954.2	9069.3
886.5802	1456.3056	9937.4	9045.15
886.7237	1458.13	9844.05	8960.5
886.8671	1459.9536	9635.6	8748.65
887.0105	1461.7766	9358.8	8473.35
887.1539	1463.5987	8994.6	8108.05
887.2972	1465.4202	8649.5	7764.4
887.4406	1467.2409	8294.15	7409.3
887.584	1469.0608	8033.5	7147.55
887.7273	1470.88	7743.75	6856.95
887.8706	1472.6984	7503.4	6619.2
888.0139	1474.5161	7306.45	6418.1
888.1572	1476.3331	7141.2	6257
888.3005	1478.1493	7013	6126.85
888.4438	1479.9648	6941.25	6056.4
888.5871	1481.7795	6861.25	5974.4
888.7303	1483.5935	6781.8	5896.55
888.8736	1485.4067	6721.25	5836.1
889.0168	1487.2192	6668.5	5782.7
889.16	1489.031	6616.6	5728.4
889.3032	1490.842	6591.9	5709.9
889.4464	1492.6522	6559.8	5674.75
889.5896	1494.4618	6508.5	5623.05
889.7327	1496.2705	6493.45	5608.55
889.8759	1498.0785	6435.75	5550.5
890.019	1499.8858	6400.6	5515.65
890.1622	1501.6924	6376.9	5492.2
890.3053	1503.4981	6333.7	5447.35
890.4484	1505.3032	6307	5421.3
890.5914	1507.1075	6271.2	5385.8
890.7345	1508.911	6249.65	5364.6
890.8776	1510.7138	6192.1	5306.1
891.0206	1512.5159	6134.1	5249.4
891.1637	1514.3172	6100.75	5214.5
891.3067	1516.1178	6063.95	5177.8
891.4497	1517.9176	6038.85	5151.8
891.5927	1519.7166	5986.5	5102.55
891.7357	1521.515	5976.45	5086.1
891.8786	1523.3126	5951.85	5066.35
892.0216	1525.1094	5925.45	5036.8
892.1645	1526.9055	5897	5010.85
892.3074	1528.7008	5868.95	4983.7
892.4503	1530.4954	5860.35	4975.35
892.5932	1532.2893	5843.5	4959.95
892.7361	1534.0824	5827.5	4935.9
892.879	1535.8747	5821.2	4935.9
893.0218	1537.6663	5818.45	4933.3
893.1647	1539.4572	5800.5	4913.55
893.3075	1541.2473	5804.5	4918.65
893.4503	1543.0367	5792.75	4909
893.5931	1544.8253	5798.45	4907.7
893.7359	1546.6132	5838.25	4950.9
893.8787	1548.4003	5842.75	4949.75
894.0214	1550.1867	5892.25	4999.65
894.1642	1551.9723	5950.8	5061.35
894.3069	1553.7572	5989.25	5101.7
894.4496	1555.5414	6090.55	5205.05
894.5923	1557.3247	6201	5314.55
894.735	1559.1074	6354.75	5472.7
894.8777	1560.8893	6491.7	5608.5
895.0204	1562.6705	6647.8	5763.1
895.163	1564.4509	6748.05	5863.15
895.3056	1566.2305	6811.3	5928.9
895.4482	1568.0094	6886.25	6003.3
895.5908	1569.7876	6888.1	6003.8
895.7334	1571.565	6885.85	5999.7
895.876	1573.3417	6863.65	5978.7
896.0186	1575.1176	6842.05	5958.3
896.1611	1576.8928	6842.75	5958.5
896.3036	1578.6672	6806.3	5920.9
896.4461	1580.4409	6780.2	5895.8
896.5886	1582.2138	6772.1	5884.15
896.7311	1583.986	6736.2	5851.2
896.8736	1585.7575	6788.6	5904.35
897.0161	1587.5282	6809.65	5926.25
897.1585	1589.2981	6888.95	6005.65
897.3009	1591.0673	6938.35	6052.8
897.4433	1592.8358	7003.8	6122.2
897.5857	1594.6035	7076.55	6188.7
897.7281	1596.3704	7134.2	6249.95
897.8705	1598.1366	7208.9	6324.65
898.0128	1599.9021	7286.85	6401.2
898.1551	1601.6668	7398.05	6511.5
898.2975	1603.4308	7481.4	6596.35
898.4398	1605.194	7624.95	6736.3
898.5821	1606.9564	7828.8	6942.85
898.7243	1608.7182	8072.35	7182.6
898.8666	1610.4791	8329.75	7447.1
899.0088	1612.2394	8596.2	7710.95
899.1511	1613.9988	8895.6	8010.05
899.2933	1615.7576	9158.55	8275.4
899.4355	1617.5156	9379.65	8489.4
899.5776	1619.2728	9504.6	8620
899.7198	1621.0293	9458.2	8574.45
899.862	1622.785	9363.05	8476.05
900.0041	1624.54	9118.15	8231.35
900.1462	1626.2942	8821.95	7936
900.2883	1628.0477	8501.85	7614.25
900.4304	1629.8005	8199.95	7310.9
900.5725	1631.5525	7885.75	6999.6
900.7145	1633.3037	7657.05	6772.25
900.8566	1635.0542	7484.9	6600.25
900.9986	1636.804	7342.45	6458.25
901.1406	1638.553	7281.65	6343.4
901.2826	1640.3013	7163.1	6280.45
901.4245	1642.0488	7127.3	6239.7
901.5665	1643.7955	7179.75	6297.2
901.7085	1645.5416	7247	6362.55
901.8504	1647.2868	7345.05	6459.95
901.9923	1649.0313	7450.1	6565.7
902.1342	1650.7751	7612.55	6724
902.2761	1652.5181	7779.05	6893.7
902.4179	1654.2604	7963.2	7077.9
902.5598	1656.0019	8199.3	7316.75
902.7016	1657.7427	8449.25	7563.35
902.8434	1659.4828	8749.75	7866.95
902.9852	1661.222	8897.4	8011.65
903.127	1662.9606	8881.95	7999.8
903.2687	1664.6984	8657.9	7774.5
903.4105	1666.4354	8243	7358.65
903.5522	1668.1717	7668.15	6784.2
903.6939	1669.9072	7096.45	6212.2
903.8356	1671.642	6633.9	5748.2
903.9773	1673.3761	6220.25	5336.55
904.119	1675.1094	5915.55	5031.5
904.2606	1676.8419	5687.35	4804.9
904.4022	1678.5737	5482.35	4598.35
904.5439	1680.3048	5357.6	4476.5
904.6855	1682.0351	5229.6	4346.55
904.827	1683.7646	5116.1	4227.95
904.9686	1685.4934	5044.35	4162.25
905.1101	1687.2215	4977.7	4093.7
905.2517	1688.9488	4898	4016.25
905.3932	1690.6754	4845.8	3963.2
905.5347	1692.4012	4811.6	3930.15
905.6761	1694.1263	4768.1	3884.8
905.8176	1695.8506	4743.2	3858.6
905.9591	1697.5742	4717.45	3833.55
906.1005	1699.297	4669.9	3787.55
906.2419	1701.0191	4633.7	3749.65
906.3833	1702.7404	4586.85	3704.85
906.5246	1704.461	4549.95	3665.8
906.666	1706.1808	4526.15	3639.05
906.8073	1707.8999	4508.85	3626.15
906.9487	1709.6182	4490.95	3606.55
907.09	1711.3358	4451.65	3568.7
907.2313	1713.0527	4437.4	3554.25
907.3725	1714.7688	4411.3	3520.9
907.5138	1716.4841	4380.35	3494.25
907.655	1718.1987	4373.75	3486.25
907.7962	1719.9126	4344.3	3459.9
907.9374	1721.6257	4326.3	3439.55
908.0786	1723.338	4328.55	3443.9
908.2198	1725.0496	4305.55	3422.55
908.3609	1726.7605	4288.9	3405.1
908.502	1728.4706	4276.1	3392.3
908.6431	1730.18	4262.8	3377.9
908.7842	1731.8886	4249.8	3366.7
908.9253	1733.5964	4235.95	3348.55
909.0664	1735.3036	4226.75	3339.35
909.2074	1737.0099	4204.5	3319.55
909.3484	1738.7156	4188.85	3305.9
909.4894	1740.4204	4168.6	3282.15
909.6304	1742.1246	4141.5	3257.6
909.7714	1743.8279	4111.35	3229.6
909.9123	1745.5306	4106.35	3222.8
910.0532	1747.2325	4083.65	3201.05
910.1941	1748.9336	4070.75	3186.95
910.335	1750.634	4038.9	3152.6
910.4759	1752.3336	4047.6	3163.9
910.6168	1754.0325	4026.35	3143.75
910.7576	1755.7307	4026.55	3144.45
910.8984	1757.4281	4030	3144.65
911.0392	1759.1247	3990.85	3097.95
911.18	1760.8206	3995.35	3107.35
911.3208	1762.5158	3984.45	3097.65
911.4615	1764.2102	3965.45	3084.7
911.6022	1765.9039	3954.1	3071.15
911.7429	1767.5968	3955.6	3073.65
911.8836	1769.289	3932.25	3049
912.0243	1770.9804	3944.4	3062.55
912.1649	1772.6711	3918.65	3038.05
912.3056	1774.361	3919.75	3036
912.4462	1776.0502	3900.2	3014.35
912.5868	1777.7386	3907	3020.25
912.7274	1779.4263	3887.7	3003.95
912.8679	1781.1132	3887.3	3003.6
913.0084	1782.7994	3873.2	2989.05
913.149	1784.4849	3849.55	2966.55
913.2895	1786.1696	3862	2958.95
913.4299	1787.8535	3860.2	2977.6
913.5704	1789.5367	3837.65	2955.55
913.7108	1791.2192	3840.6	2957.05
913.8513	1792.9009	3831.2	2933.25
913.9917	1794.5818	3826.35	2942.1
914.132	1796.2621	3799.65	2917.6
914.2724	1797.9415	3799.6	2916.65
914.4128	1799.6202	3790.85	2907.5
914.5531	1801.2982	3779.05	2896.15
914.6934	1802.9755	3781.85	2896.85
914.8337	1804.6519	3779.2	2895.95
914.9739	1806.3277	3759.15	2877.55
915.1142	1808.0027	3749.35	2865.85
915.2544	1809.6769	3747.85	2863.35
915.3946	1811.3504	3745.6	2861.1
915.5348	1813.0231	3738.3	2853.2
915.675	1814.6951	3732.45	2850.8
915.8151	1816.3664	3727.65	2840.85
915.9553	1818.0369	3709.85	2828
916.0954	1819.7067	3701.3	2817.9
916.2355	1821.3757	3715.75	2832.05
916.3755	1823.044	3695.45	2813.75
916.5156	1824.7115	3686.45	2803.4
916.6556	1826.3783	3688.6	2805.4
916.7956	1828.0443	3662.45	2778.9
916.9356	1829.7096	3663.4	2779.25
917.0756	1831.3741	3657.4	2770.7
917.2155	1833.0379	3658.5	2775.55
917.3555	1834.701	3642.25	2756.4
917.4954	1836.3633	3647.35	2764.6
917.6353	1838.0248	3644.4	2756.15
917.7751	1839.6856	3633.8	2751.95
917.915	1841.3457	3635.95	2754.55
918.0548	1843.005	3611	2729.25
918.1946	1844.6636	3613.2	2729.3
918.3344	1846.3214	3602.5	2720.1
918.4742	1847.9785	3610.5	2726.95
918.6139	1849.6349	3599.4	2714.7
918.7537	1851.2904	3592.65	2701.45
918.8934	1852.9453	3580.4	2696.25
919.0331	1854.5994	3568.25	2682.55
919.1727	1856.2528	3576.8	2688.5
919.3124	1857.9054	3575.4	2694
919.452	1859.5572	3560.25	2678.25
919.5916	1861.2083	3558.05	2672.8
919.7312	1862.8587	3560.4	2676.1
919.8708	1864.5084	3559.3	2675.15
920.0103	1866.1572	3537.7	2657.15
920.1498	1867.8054	3522.7	2640.35
920.2893	1869.4528	3505.05	2623
920.4288	1871.0994	3518.85	2636.35
920.5683	1872.7453	3507.25	2624.65
920.7077	1874.3905	3529.75	2629.85
920.8471	1876.0349	3495.85	2612.5
920.9865	1877.6786	3492.3	2610
921.1259	1879.3215	3482.1	2600.55
921.2653	1880.9637	3487.75	2602.75
921.4046	1882.6051	3473.7	2591.9
921.5439	1884.2458	3459.25	2574.3
921.6832	1885.8858	3453.4	2569.7
921.8225	1887.525	3451.05	2568.4
921.9617	1889.1634	3432.75	2551.5
922.101	1890.8011	3430.55	2545.65
922.2402	1892.4381	3432.75	2551.9
922.3794	1894.0743	3424.1	2540.5
922.5185	1895.7098	3420.25	2540.05
922.6577	1897.3446	3418.4	2534.65
922.7968	1898.9786	3417.15	2530.2
922.9359	1900.6118	3393.35	2510.5
923.075	1902.2443	3380.45	2495.1
923.214	1903.8761	3371.7	2488.95
923.3531	1905.5071	3359.7	2475.1
923.4921	1907.1374	3353.55	2470.1
923.6311	1908.7669	3345.8	2461.95
923.77	1910.3957	3355.25	2472.15
923.909	1912.0237	3341.8	2458.4
924.0479	1913.651	3336	2451.6
924.1868	1915.2776	3335.05	2455.5
924.3257	1916.9034	3327.7	2445.35
924.4646	1918.5285	3314.25	2430.4
924.6034	1920.1528	3293.95	2409.95
924.7422	1921.7764	3288.85	2405.45
924.881	1923.3992	3289.6	2406.9
925.0198	1925.0213	3284.9	2400.05
925.1586	1926.6427	3257.95	2378.25
925.2973	1928.2633	3357.75	2371
925.436	1929.8832	3268.15	2383.05
925.5747	1931.5023	3235.15	2352.1
925.7134	1933.1207	3240.4	2357.45
925.852	1934.7383	3244	2361.9
925.9906	1936.3552	3231.2	2348.55
926.1292	1937.9714	3217.35	2333.7
926.2678	1939.5868	3202.05	2316.8
926.4064	1941.2015	3196.75	2314.1
926.5449	1942.8154	3180.55	2297.7
926.6834	1944.4286	3184.65	2301.85
926.8219	1946.041	3194.15	2289.8
926.9604	1947.6528	3156.4	2269.85
927.0988	1949.2637	3163.05	2281.5
927.2372	1950.8739	3134.75	2252.65
927.3756	1952.4834	3140.4	2257.15
927.514	1954.0921	3140.2	2255.9
927.6523	1955.7001	3122.8	2233.5
927.7907	1957.3074	3119.05	2238.5
927.929	1958.9139	3111.35	2229.75
928.0673	1960.5197	3108.75	2224.7
928.2055	1962.1247	3098.55	2216.55
928.3438	1963.729	3086.45	2205.45
928.482	1965.3325	3096.7	2190.35
928.6202	1966.9353	3072.45	2190.5
928.7584	1968.5374	3063.35	2179.05
928.8965	1970.1387	3047.85	2163.85
929.0346	1971.7393	3043.7	2160.15
929.1727	1973.3392	3033.65	2152.65
929.3108	1974.9383	3024.8	2141.25
929.4489	1976.5366	3030.7	2147.2
929.5869	1978.1342	3030.5	2146.9
929.7249	1979.7311	3005.9	2120.8
929.8629	1981.3273	3022.05	2138.9
930.0009	1982.9227	2998.6	2114.4
930.1388	1984.5173	2987.25	2104.5
930.2767	1986.1112	2982.75	2101.1
930.4146	1987.7044	2971.6	2089.3
930.5525	1989.2968	2978.05	2093
930.6904	1990.8885	2972.85	2087.75
930.8282	1992.4795	2976.85	2090.95
930.966	1994.0697	2960.55	2077.95
931.1038	1995.6592	2953.85	2071.25
931.2415	1997.2479	2954.55	2070.7
931.3793	1998.8359	2936.15	2051.3
931.517	2000.4232	2927.7	2044.9
931.6547	2002.0097	2927.2	2045.1
931.7923	2003.5955	2924	2040.35
931.93	2005.1805	2914.6	2029.4
932.0676	2006.7648	2908.5	2025.15
932.2052	2008.3484	2915.35	2030.5
932.3427	2009.9312	2894.7	2011.95
932.4803	2011.5133	2892.7	2009.7
932.6178	2013.0946	2895.45	2011.05
932.7553	2014.6752	2896.35	2013
932.8928	2016.2551	2890.3	2008.75
933.0302	2017.8342	2877.7	1992.15
933.1676	2019.4126	2855.75	1974.25
933.305	2020.9902	2855.75	1972.9
933.4424	2022.5672	2848.1	1963
933.5798	2024.1433	2858.2	1967.35
933.7171	2025.7188	2831.85	1952.05
933.8544	2027.2935	2842.25	1957.55
933.9917	2028.8674	2843.3	1961.3
934.129	2030.4406	2821.55	1938.1
934.2662	2032.0131	2823.2	1940.35
934.4034	2033.5849	2814.7	1923.95
934.5406	2035.1559	2803.6	1920.4
934.6778	2036.7261	2801.4	1918.2
934.8149	2038.2957	2810.35	1927.2
934.952	2039.8645	2802.1	1918.05
935.0891	2041.4325	2794.35	1908.75
935.2262	2042.9998	2789.4	1907.1
935.3632	2044.5664	2797.05	1913
935.5002	2046.1323	2784.4	1901.5
935.6372	2047.6974	2776.55	1892.45
935.7742	2049.2617	2776.2	1893.9
935.9111	2050.8254	2786	1869.25
936.048	2052.3883	2769.7	1885.15
936.1849	2053.9504	2744.5	1861.2
936.3218	2055.5118	2754.65	1871.6
936.4586	2057.0725	2746.6	1860.7
936.5955	2058.6325	2739.25	1855.5
936.7323	2060.1917	2728.1	1844.15
936.869	2061.7502	2733.55	1847.85
937.0058	2063.3079	2734.8	1850.65
937.1425	2064.8649	2723.9	1836.05
937.2792	2066.4212	2717.55	1836.15
937.4159	2067.9767	2710.3	1828.4
937.5525	2069.5315	2694.55	1812.4
937.6891	2071.0856	2691.9	1809.55
937.8257	2072.6389	2684.5	1799.8
937.9623	2074.1915	2676.15	1796
938.0989	2075.7433	2665.6	1780.1
938.2354	2077.2945	2660.95	1777.8
938.3719	2078.8448	2647.25	1763.7
938.5084	2080.3945	2659.9	1776.5
938.6448	2081.9434	2652.75	1769.05
938.7812	2083.4916	2650.95	1767.35
938.9176	2085.039	2636.9	1754
939.054	2086.5857	2624.55	1738.55
939.1903	2088.1317	2627.25	1746.25
939.3267	2089.677	2626.75	1743.6
939.463	2091.2215	2624.9	1743.65
939.5992	2092.7652	2610.9	1726.95
939.7355	2094.3083	2609.95	1725.25
939.8717	2095.8506	2603.7	1722.65
940.0079	2097.3921	2612.1	1729.4
940.1441	2098.933	2596.8	1713.85
940.2802	2100.4731	2598.9	1717.85
940.4163	2102.0124	2620.1	1718.4
940.5524	2103.5511	2590.35	1707.65
940.6885	2105.089	2584.05	1700.75
940.8245	2106.6261	2586.9	1703.95
940.9606	2108.1626	2584.4	1700.2
941.0965	2109.6983	2593.8	1680.8
941.2325	2111.2332	2573	1690.45
941.3684	2112.7675	2565.1	1682.85
941.5044	2114.301	2555.35	1673.1
941.6403	2115.8337	2557.65	1673.75
941.7761	2117.3657	2553.95	1669.8
941.912	2118.897	2554.15	1669.85
942.0478	2120.4276	2548.4	1660.5
942.1835	2121.9575	2533.4	1648.6
942.3193	2123.4866	2547	1649.65
942.455	2125.0149	2531.6	1643.9
942.5907	2126.5426	2517.55	1634.85
942.7264	2128.0695	2515.75	1629.5
942.8621	2129.5956	2510.5	1627.25
942.9977	2131.1211	2524.3	1638.1
943.1333	2132.6458	2507.15	1624.7
943.2689	2134.1698	2497	1613.85
943.4044	2135.693	2504.35	1616.4
943.54	2137.2155	2504.7	1618.3
943.6755	2138.7373	2485	1602.3
943.8109	2140.2584	2487.4	1601.85
943.9464	2141.7787	2486.7	1598.6
944.0818	2143.2983	2470.4	1589.6
944.2172	2144.8171	2459.8	1576.6
944.3526	2146.3353	2465.25	1579.35
944.4879	2147.8527	2465.65	1585.95
944.6232	2149.3693	2451.4	1568.35
944.7585	2150.8853	2446.55	1562.1
944.8938	2152.4005	2441.35	1560.3
945.029	2153.9149	2432.95	1550
945.1642	2155.4287	2439.65	1556.7
945.2994	2156.9417	2428.95	1543.8
945.4346	2158.454	2430.75	1545.85
945.5697	2159.9655	2422.6	1538.55
945.7048	2161.4764	2424.05	1541
945.8399	2162.9865	2428.6	1542.95
945.9749	2164.4958	2414.35	1528.6
946.1099	2166.0045	2414.25	1527.6
946.2449	2167.5124	2405.2	1522.4
946.3799	2169.0195	2407.75	1524.75
946.5148	2170.526	2409.1	1527
946.6498	2172.0317	2406.3	1520.15
946.7846	2173.5367	2392.5	1507.3
946.9195	2175.0409	2376.15	1492.9
947.0543	2176.5445	2387.6	1505.25
947.1891	2178.0473	2390.1	1507.6
947.3239	2179.5494	2370.4	1483
947.4587	2181.0507	2371.7	1487.5
947.5934	2182.5513	2367.45	1483.4
947.7281	2184.0512	2374.2	1491
947.8628	2185.5504	2362.7	1480.2
947.9974	2187.0488	2352.8	1467.05
948.132	2188.5465	2361.35	1479.2
948.2666	2190.0435	2354.7	1469.85
948.4012	2191.5397	2329.55	1447.7
948.5357	2193.0353	2342.65	1460.7
948.6702	2194.5301	2329.8	1445.7
948.8047	2196.0241	2327.7	1443.9
948.9392	2197.5175	2328.8	1445.85
949.0736	2199.0101	2318.7	1432.05
949.208	2200.502	2315.6	1434
949.3424	2201.9931	2300.75	1415.45
949.4767	2203.4835	2302.1	1416.9
949.611	2204.9733	2304.25	1414.25
949.7453	2206.4622	2291.7	1409.75
949.8796	2207.9505	2295.45	1407.25
950.0138	2209.438	2286.4	1402.75
950.148	2210.9248	2290.8	1407.55
950.2822	2212.4109	2276.35	1395.65
950.4164	2213.8962	2266.25	1378.9
950.5505	2215.3809	2275.65	1391
950.6846	2216.8648	2267.2	1382.75
950.8186	2218.3479	2259.9	1372.1
950.9527	2219.8304	2264.9	1379.85
951.0867	2221.3121	2250.85	1365.4
951.2207	2222.7931	2247.15	1365.55
951.3546	2224.2733	2246.85	1362.6
951.4886	2225.7529	2238.75	1354.35
951.6225	2227.2317	2243.65	1357
951.7563	2228.7098	2228.25	1343.7
951.8902	2230.1872	2213.5	1330.75
952.024	2231.6638	2213.95	1329.4
952.1578	2233.1397	2224.7	1335.35
952.2916	2234.6149	2205.2	1321.65
952.4253	2236.0894	2210.8	1327.3
952.559	2237.5632	2220.95	1327.25
952.6927	2239.0362	2199.1	1314.15
952.8263	2240.5085	2203.4	1319.15
952.9599	2241.9801	2194.9	1309.7
953.0935	2243.4509	2192.05	1309.4
953.2271	2244.921	2189.7	1306.2
953.3606	2246.3904	2179.8	1294.15
953.4941	2247.8591	2170.85	1288.65
953.6276	2249.3271	2174	1288.4
953.7611	2250.7943	2163.1	1279.95
953.8945	2252.2608	2153.75	1271.35
954.0279	2253.7266	2155.85	1270.95
954.1612	2255.1917	2152.3	1269.85
954.2946	2256.656	2158.8	1272.65
954.4279	2258.1197	2148.2	1266.5
954.5612	2259.5826	2146.45	1260.45
954.6944	2261.0447	2133.65	1250.5
954.8276	2262.5062	2137.8	1253.75
954.9608	2263.9669	2135.4	1249.5
955.094	2265.4269	2130.75	1248.5
955.2271	2266.8862	2126.35	1242.5
955.3602	2268.3448	2117.55	1233.95
955.4933	2269.8026	2115.7	1232.65
955.6264	2271.2598	2115.1	1231.55
955.7594	2272.7162	2108.4	1225.35
955.8924	2274.1719	2107.05	1223.75
956.0253	2275.6268	2108.5	1225.35
956.1583	2277.0811	2108.9	1225.2
956.2912	2278.5346	2098.4	1216.95
956.4241	2279.9874	2093.3	1208.85
956.5569	2281.4395	2093.4	1210
956.6897	2282.8908	2100.8	1210.8
956.8225	2284.3414	2094.35	1208.35
956.9553	2285.7914	2081.15	1199.85
957.088	2287.2406	2075.7	1192.15
957.2207	2288.689	2072.7	1190.25
957.3534	2290.1368	2082.4	1198.8
957.486	2291.5838	2074	1187.9
957.6186	2293.0302	2071.4	1187.35
957.7512	2294.4758	2057.25	1170.95
957.8838	2295.9206	2068.2	1183.35
958.0163	2297.3648	2048.4	1164.6
958.1488	2298.8082	2068.8	1184.55
958.2813	2300.251	2054.6	1172.5
958.4137	2301.693	2046.65	1160.2
958.5461	2303.1343	2062.2	1177.8
958.6785	2304.5748	2047.95	1164.9
958.8108	2306.0147	2038.2	1153.9
958.9432	2307.4538	2028	1142.65
959.0754	2308.8922	2030.3	1148.1
959.2077	2310.3299	2025.65	1141.45
959.3399	2311.7669	2028.6	1146.4
959.4721	2313.2031	2027.05	1143.55
959.6043	2314.6387	2018.05	1135.15
959.7365	2316.0735	2009.85	1126.25
959.8686	2317.5076	2010.1	1126.7
960.0006	2318.941	2006	1123.45
960.1327	2320.3737	2013.4	1129.5
960.2647	2321.8056	2010.05	1126
960.3967	2323.2369	1993.95	1109.9
960.5287	2324.6674	2002.15	1116.4
960.6606	2326.0972	1994.6	1108.65
960.7925	2327.5263	1986.5	1105.55
960.9244	2328.9547	1990.75	1107.9
961.0562	2330.3823	1985.35	1102.5
961.1881	2331.8092	1975	1090.95
961.3198	2333.2355	1986.85	1101.85
961.4516	2334.661	1979.25	1095.6
961.5833	2336.0858	1983.6	1098.05
961.715	2337.5098	1965.25	1082.4
961.8467	2338.9332	1975.5	1093.65
961.9783	2340.3558	1970.5	1082.9
962.1099	2341.7778	1958.7	1075.35
962.2415	2343.199	1960.35	1074.55
962.373	2344.6195	1956.45	1073.65
962.5045	2346.0393	1951.4	1067.25
962.636	2347.4583	1963.6	1077.4
962.7675	2348.8767	1945.35	1061.2
962.8989	2350.2943	1952.45	1066.2
963.0303	2351.7113	1954.5	1070
963.1617	2353.1275	1938.3	1055.05
963.293	2354.543	1964.4	1057.65
963.4243	2355.9578	1945.5	1062.65
963.5556	2357.3718	1937.5	1056.05
963.6868	2358.7852	1926.75	1040.95
963.818	2360.1978	1936.75	1051.5
963.9492	2361.6098	1932.5	1049.75
964.0803	2363.021	1928.15	1041.45
964.2114	2364.4315	1923.45	1039.65
964.3425	2365.8413	1927.7	1043.05
964.4736	2367.2504	1915.85	1033.95
964.6046	2368.6587	1920.4	1038
964.7356	2370.0664	1914.05	1029.05
964.8666	2371.4733	1906.85	1023
964.9975	2372.8795	1904.3	1021.8
965.1284	2374.285	1889.9	1004.65
965.2593	2375.6899	1892.3	1008.75
965.3901	2377.0939	1892.8	1012.35
965.5209	2378.4973	1885.9	1003.05
965.6517	2379.9	1882.2	999.15
965.7825	2381.3019	1877	993.75
965.9132	2382.7032	1875.65	994.85
966.0439	2384.1037	1876.85	993.3
966.1745	2385.5035	1872.5	989.4
966.3051	2386.9027	1866.1	984.45
966.4357	2388.3011	1867.65	981.75
966.5663	2389.6987	1864.4	982.2
966.6968	2391.0957	1852.25	970.1
966.8273	2392.492	1855.75	972.55
966.9578	2393.8876	1843.2	959.95
967.0882	2395.2824	1846.65	963.3
967.2186	2396.6765	1845.55	963.25
967.349	2398.07	1839.95	957.65
967.4793	2399.4627	1840.55	955.85
967.6097	2400.8547	1835	953.15
967.7399	2402.246	1834.5	946.55
967.8702	2403.6366	1822.25	938.75
968.0004	2405.0265	1819.25	934.9
968.1306	2406.4156	1833.3	943.65
968.2607	2407.8041	1827.2	942.25
968.3909	2409.1918	1818.4	933.85
968.521	2410.5789	1817.65	934.25
968.651	2411.9652	1808.45	921.45
968.781	2413.3508	1812.15	928.55
968.911	2414.7358	1799.7	917.15
969.041	2416.12	1792.5	910.5
969.1709	2417.5035	1800.95	919.8
969.3008	2418.8863	1797.5	915.05
969.4307	2420.2684	1800.6	918.1
969.5606	2421.6497	1791.8	909.5
969.6904	2423.0304	1779.3	897.95
969.8201	2424.4104	1789.9	906.7
969.9499	2425.7896	1790.2	906.75
970.0796	2427.1682	1789.75	907.4
970.2093	2428.546	1780.2	896.25
970.3389	2429.9232	1772.95	892.65
970.4685	2431.2996	1773.4	889.65
970.5981	2432.6753	1777.25	896
970.7277	2434.0503	1772.75	888.75
970.8572	2435.4246	1762.6	880.1
970.9867	2436.7982	1770.95	887.15
971.1161	2438.1711	1752.7	871.05
971.2456	2439.5433	1756.6	871.6
971.375	2440.9148	1756.75	866.95
971.5043	2442.2856	1741.8	861.6
971.6336	2443.6557	1749.1	864.05
971.7629	2445.025	1751.6	870.15
971.8922	2446.3937	1745.65	861.2
972.0214	2447.7617	1745.45	863.65
972.1506	2449.1289	1737.7	855.2
972.2798	2450.4955	1733.25	848
972.4089	2451.8613	1727.9	846.1
972.538	2453.2265	1736.55	852.7
972.6671	2454.5909	1727.45	843.15
972.7961	2455.9546	1723.25	840.3
972.9251	2457.3177	1727.25	843.35
973.0541	2458.68	1726.7	843.7
973.1831	2460.0416	1722.55	841.3
973.312	2461.4025	1729.75	846.85
973.4408	2462.7627	1729.4	835.75
973.5697	2464.1222	1718.05	835.3
973.6985	2465.4811	1715	830.85
973.8273	2466.8392	1717.25	832.8
973.956	2468.1966	1721.6	835.9
974.0847	2469.5533	1715.6	830.3
974.2134	2470.9093	1716.75	832.85
974.3421	2472.2645	1706.85	821.65
974.4707	2473.6191	1710.55	827.3
974.5993	2474.973	1704.45	824.2
974.7278	2476.3262	1698.45	813.1
974.8563	2477.6787	1702.45	819.95
974.9848	2479.0305	1699.15	816.35
975.1132	2480.3816	1688.95	803.75
975.2417	2481.7319	1701.3	818.15
975.37	2483.0816	1694.5	807.6
975.4984	2484.4306	1689.35	806.05
975.6267	2485.7789	1692.4	810.1
975.755	2487.1264	1675.8	791.35
975.8833	2488.4733	1680.1	798.3
976.0115	2489.8195	1696.9	795.7
976.1397	2491.165	1673.1	786.35
976.2678	2492.5097	1678	793.85
976.3959	2493.8538	1668.25	785.4
976.524	2495.1972	1665.6	781.65
976.6521	2496.5398	1662.4	779
976.7801	2497.8818	1657.05	772.1
976.9081	2499.2231	1658.8	776.75
977.036	2500.5637	1655.3	770.9
977.164	2501.9035	1661.8	779.4
977.2918	2503.2427	1656.8	770.9
977.4197	2504.5812	1648.2	765.45
977.5475	2505.919	1638.45	753.65
977.6753	2507.256	1639.25	755
977.8031	2508.5924	1646.95	763.4
977.9308	2509.9281	1647.8	759.7
978.0585	2511.2631	1637.95	753.1
978.1861	2512.5974	1642.5	760.65
978.3137	2513.9309	1638.45	755.1
978.4413	2515.2638	1659.55	751.1
978.5689	2516.596	1636	753.9
978.6964	2517.9275	1634.35	749.9
978.8239	2519.2583	1628.5	745.65
978.9513	2520.5884	1624.1	738.8
979.0788	2521.9178	1633.8	751.35
979.2062	2523.2465	1620.3	737.35
979.3335	2524.5745	1610.85	730
979.4608	2525.9018	1617.55	733.3
979.5881	2527.2284	1611.2	728.8
979.7154	2528.5543	1611.7	729.05
979.8426	2529.8796	1617.05	733.55
979.9698	2531.2041	1612.1	726.4
980.0969	2532.5279	1609.3	728.6
980.224	2533.851	1606.9	723.1
980.3511	2535.1735	1605.1	723.6
980.4781	2536.4952	1606.3	723.45
980.6052	2537.8163	1608.8	724.75
980.7321	2539.1366	1607.6	725.35
980.8591	2540.4562	1609.65	727.45
980.986	2541.7752	1606.65	722.05
981.1129	2543.0935	1593.4	711.15
981.2397	2544.411	1602.9	716.9
981.3665	2545.7279	1599.75	717
981.4933	2547.0441	1596.75	713.85
981.62	2548.3596	1591.1	706.5
981.7467	2549.6744	1596.5	713.25
981.8734	2550.9885	1586.55	702.35
982.0001	2552.3019	1589.9	705.95
982.1267	2553.6146	1590.6	708.3
982.2532	2554.9266	1583.45	699.9
982.3798	2556.2379	1586.45	699.2
982.5063	2557.5485	1581.05	698.25
982.6327	2558.8585	1581.8	691.4
982.7592	2560.1677	1589.3	702.65
982.8856	2561.4762	1589.55	706.85
983.0119	2562.7841	1581.05	695.6
983.1383	2564.0913	1564.9	683.95
983.2646	2565.3977	1570.75	688.75
983.3908	2566.7035	1565.95	681.8
983.517	2568.0086	1577.9	693.55
983.6432	2569.313	1575.75	693
983.7694	2570.6167	1566.45	679.15
983.8955	2571.9197	1566.9	685.85
984.0216	2573.222	1571.95	685.8
984.1476	2574.5236	1566.2	682.15
984.2737	2575.8246	1567.65	685.4
984.3996	2577.1248	1565.5	679.55
984.5256	2578.4244	1556.85	673.5
984.6515	2579.7232	1560	677.1
984.7774	2581.0214	1593.4	678.45
984.9032	2582.3189	1570.25	688.2
985.029	2583.6157	1572.4	683.85
985.1548	2584.9118	1563	682.45
985.2806	2586.2072	1562	680.7
985.4063	2587.5019	1564.85	682.1
985.5319	2588.7959	1560.8	677.75
985.6576	2590.0893	1562.35	678.45
985.7832	2591.3819	1568.1	685.25
985.9087	2592.6739	1562.2	680.75
986.0343	2593.9652	1567.6	683.45
986.1597	2595.2557	1566.6	685.45
986.2852	2596.5456	1572.55	687.85
986.4106	2597.8348	1570.05	686.75
986.536	2599.1234	1569.35	689.4
986.6614	2600.4112	1570.4	686.7
986.7867	2601.6983	1569.6	683.95
986.912	2602.9848	1561.8	679.95
987.0372	2604.2705	1564.95	677.05
987.1624	2605.5556	1566.7	684.7
987.2876	2606.84	1549	666.55
987.4128	2608.1237	1552.05	667.85
987.5379	2609.4067	1555.75	673.55
987.6629	2610.689	1550.45	659
987.788	2611.9707	1552.15	667.8
987.913	2613.2516	1543.35	656.05
988.0379	2614.5319	1548.65	666.45
988.1629	2615.8115	1540.2	656.45
988.2878	2617.0903	1532	648.85
988.4126	2618.3685	1542	660.35
988.5375	2619.6461	1531.4	649.1
988.6622	2620.9229	1532.8	649.15
988.787	2622.199	1532	650.05
988.9117	2623.4745	1532.85	649.4
989.0364	2624.7493	1535.6	653.35
989.161	2626.0234	1523.45	642
989.2857	2627.2968	1530.75	648.05
989.4102	2628.5695	1530.35	643.65
989.5348	2629.8415	1527.05	644.8
989.6593	2631.1128	1524.8	642.45
989.7837	2632.3835	1522.05	640.4
989.9082	2633.6535	1518.25	634.55
990.0326	2634.9228	1520.35	639.8
990.1569	2636.1914	1513.75	630.15
990.2812	2637.4593	1522.85	638.65
990.4055	2638.7265	1517.85	633.65
990.5298	2639.9931	1510.9	628.55
990.654	2641.259	1518.1	633.4
990.7782	2642.5242	1507.6	625.65
990.9023	2643.7887	1511.95	628.65
991.0264	2645.0525	1508.85	625.2
991.1505	2646.3156	1498.75	613.55
991.2745	2647.5781	1503.15	621.25
991.3985	2648.8398	1499.6	617.7
991.5225	2650.1009	1535.3	615.45
991.6464	2651.3613	1495.65	611.1
991.7703	2652.6211	1500.55	618.35
991.8942	2653.8801	1494.6	612.85
992.018	2655.1385	1489.25	602.15
992.1418	2656.3961	1486.4	602.9
992.2655	2657.6531	1491	609.25
992.3892	2658.9094	1495.9	613.8
992.5129	2660.1651	1495.3	614.45
992.6366	2661.42	1494.7	609.7
992.7602	2662.6743	1502.5	616.15
992.8837	2663.9279	1492.6	610.55
993.0073	2665.1808	1490.5	606.4
993.1307	2666.433	1497.5	612.25
993.2542	2667.6846	1497.15	612.6
993.3776	2668.9354	1509.05	623.1
993.501	2670.1856	1503.65	620.2
993.6244	2671.4351	1510.25	626.6
993.7477	2672.6839	1512.6	627.05
993.8709	2673.9321	1508.95	627.95
993.9942	2675.1795	1517.6	633.2
994.1174	2676.4263	1512.8	631.75
994.2405	2677.6724	1514.75	632.6
994.3637	2678.9179	1514.65	632.4
994.4868	2680.1626	1510.6	629.35
994.6098	2681.4067	1511.2	627.9
994.7328	2682.6501	1507.95	627.8
994.8558	2683.8928	1509.95	626.1
994.9788	2685.1348	1504.7	621.6
995.1017	2686.3761	1500.5	617.35
995.2245	2687.6168	1502.6	618.65
995.3474	2688.8568	1493.3	611.8
995.4702	2690.0961	1491.6	610.15
995.5929	2691.3348	1492.4	608.65
995.7156	2692.5727	1482.4	599.65
995.8383	2693.81	1478.35	596
995.961	2695.0466	1483.45	603.8
996.0836	2696.2826	1488.75	605.05
996.2062	2697.5178	1489.5	603.5
996.3287	2698.7524	1477.45	595.25
996.4512	2699.9863	1485.4	599.4
996.5737	2701.2195	1486.3	604.6
996.6961	2702.452	1488.45	604.05
996.8185	2703.6839	1490.55	605.45
996.9408	2704.9151	1501.75	619.85
997.0631	2706.1456	1497.7	615
997.1854	2707.3755	1509.7	627.45
997.3077	2708.6046	1512.7	627.8
997.4299	2709.8331	1515.45	631.35
997.552	2711.0609	1522.55	639.7
997.6742	2712.2881	1531.55	649.65
997.7963	2713.5145	1545.05	659.35
997.9183	2714.7403	1540.95	660.25
998.0403	2715.9654	1554.5	669.7
998.1623	2717.1899	1584	685.05
998.2842	2718.4136	1575.9	694
998.4062	2719.6367	1584.75	701.05
998.528	2720.8591	1605.8	717.25
998.6498	2722.0809	1606.55	722.35
998.7716	2723.3019	1625.95	740.35
998.8934	2724.5223	1634.65	750.65
999.0151	2725.7421	1640.1	755.9
999.1368	2726.9611	1636.3	751.85
999.2584	2728.1795	1644.1	756.1
999.38	2729.3972	1627.95	743.95
999.5016	2730.6142	1624.2	727.65
999.6231	2731.8306	1604.2	718.45
999.7446	2733.0462	1588.3	702.45
999.8661	2734.2612	1577.15	691.1
999.9875	2735.4756	1561.75	676.1
1000.1089	2736.6892	1539.6	655.65
1000.2302	2737.9022	1524.3	641.2
1000.3515	2739.1145	1514.5	630.8
1000.4728	2740.3262	1505.95	615.6
1000.594	2741.5372	1489.25	607.45
1000.7152	2742.7475	1479.95	596.4
1000.8363	2743.9571	1473.6	590.25
1000.9575	2745.1661	1467.55	578.35
1001.0785	2746.3744	1449.05	564.75
1001.1996	2747.582	1441.75	559.5
1001.3206	2748.7889	1433.5	550.45
1001.4415	2749.9952	1431.85	549.05
1001.5625	2751.2008	1423.25	538.5
1001.6833	2752.4057	1425.85	540.55
1001.8042	2753.61	1417.05	531.15
1001.925	2754.8136	1419.95	536.05
1002.0458	2756.0165	1405.7	521.65
1002.1665	2757.2188	1400.9	519.5
1002.2872	2758.4204	1417.55	534.5
1002.4078	2759.6213	1412.65	527.1
1002.5285	2760.8215	1416.35	526.65
1002.649	2762.0211	1409.2	524.3
1002.7696	2763.22	1409.3	525.35
1002.8901	2764.4182	1410.85	527.8
1003.0106	2765.6158	1399.7	518.5
1003.131	2766.8127	1399.85	514.85
1003.2514	2768.009	1401.65	517.9
1003.3717	2769.2045	1398.15	514.3
1003.492	2770.3994	1390.5	507.25
1003.6123	2771.5936	1391.8	507.2
1003.7325	2772.7872	1387.3	505.1
1003.8527	2773.9801	1379.8	494
1003.9729	2775.1723	1397.75	498.3
1004.093	2776.3639	1376.6	494
1004.2131	2777.5548	1380.95	496.05
1004.3331	2778.745	1387.15	501.35
1004.4531	2779.9346	1380.35	498.2
1004.5731	2781.1235	1387.15	503.6
1004.693	2782.3117	1388.45	507.45
1004.8129	2783.4992	1390	504.85
1004.9328	2784.6861	1389.6	504.8
1005.0526	2785.8723	1400.15	516.75
1005.1723	2787.0579	1395.65	513.05
1005.2921	2788.2428	1408.15	526.7
1005.4118	2789.427	1406.9	524.95
1005.5314	2790.6106	1417.4	533.15
1005.651	2791.7935	1427.2	543.8
1005.7706	2792.9757	1426.55	544.05
1005.8902	2794.1573	1446	560.4
1006.0097	2795.3382	1453.5	570.35
1006.1291	2796.5184	1458.55	577.95
1006.2485	2797.698	1475.3	590.9
1006.3679	2798.8769	1485.75	603.8
1006.4873	2800.0551	1497.6	614.35
1006.6066	2801.2327	1515.9	630.55
1006.7258	2802.4096	1528.6	645.9
1006.8451	2803.5859	1542.9	659.2
1006.9642	2804.7615	1565.95	682.3
1007.0834	2805.9364	1588.75	707
1007.2025	2807.1106	1607.75	726.9
1007.3216	2808.2842	1636.15	752.35
1007.4406	2809.4572	1657	773.5
1007.5596	2810.6294	1696.05	812.55
1007.6785	2811.801	1729.25	847.55
1007.7975	2812.972	1765.85	884
1007.9163	2814.1423	1807.4	926.3
1008.0352	2815.3119	1859.75	975.6
1008.154	2816.4808	1900.3	1019.75
1008.2727	2817.6491	1951.55	1068.05
1008.3914	2818.8167	1993.15	1109.4
1008.5101	2819.9837	2048.95	1163.3
1008.6288	2821.15	2088.75	1204.85
1008.7474	2822.3157	2154.3	1272.6
1008.8659	2823.4807	2218.05	1333.3
1008.9844	2824.645	2267.15	1383.05
1009.1029	2825.8086	2317.95	1437.4
1009.2214	2826.9716	2361.5	1478.9
1009.3398	2828.134	2416.55	1534.3
1009.4581	2829.2957	2459	1574.25
1009.5764	2830.4567	2490.65	1609.8
1009.6947	2831.617	2525.8	1643.45
1009.813	2832.7767	2527.2	1643.95
1009.9312	2833.9358	2530.95	1651.05
1010.0493	2835.0941	2526.4	1641
1010.1675	2836.2519	2517.35	1634.4
1010.2855	2837.4089	2493.1	1608.65
1010.4036	2838.5653	2490.1	1607.6
1010.5216	2839.7211	2466.55	1583.95
1010.6396	2840.8761	2467.55	1582.65
1010.7575	2842.0306	2472.3	1590.15
1010.8754	2843.1843	2508.95	1626.1
1010.9932	2844.3374	2542.3	1660.3
1011.111	2845.4899	2575.8	1691.45
1011.2288	2846.6417	2625.15	1742.35
1011.3465	2847.7928	2704.05	1822.15
1011.4642	2848.9433	2760.15	1879.8
1011.5818	2850.0931	2828.95	1944.3
1011.6995	2851.2422	2899.45	2016.25
1011.817	2852.3907	2965.65	2081.85
1011.9345	2853.5385	3020.4	2134.8
1012.052	2854.6857	3094.3	2184.65
1012.1695	2855.8323	3113.8	2230.2
1012.2869	2856.9781	3161.85	2280.3
1012.4042	2858.1233	3218.1	2334.35
1012.5216	2859.2679	3271.35	2390.1
1012.6389	2860.4118	3331.1	2449
1012.7561	2861.555	3382.05	2494.05
1012.8733	2862.6976	3427.4	2542.85
1012.9905	2863.8395	3457.7	2575.25
1013.1076	2864.9808	3471.95	2589.7
1013.2247	2866.1214	3508.5	2629
1013.3417	2867.2614	3514.5	2631.25
1013.4587	2868.4007	3538.2	2655
1013.5757	2869.5393	3542.25	2657.95
1013.6926	2870.6773	3551.8	2665.7
1013.8095	2871.8146	3569.55	2682.6
1013.9263	2872.9513	3562.6	2677.9
1014.0431	2874.0874	3557.7	2673.35
1014.1599	2875.2227	3550.85	2667.35
1014.2766	2876.3574	3532.45	2647.65
1014.3933	2877.4915	3510.15	2629
1014.51	2878.6249	3485.65	2604.25
1014.6266	2879.7577	3446.5	2562.65
1014.7431	2880.8898	3450.6	2556.45
1014.8596	2882.0212	3404.15	2522.4
1014.9761	2883.152	3407.3	2525.35
1015.0925	2884.2821	3407.25	2525.2
1015.2089	2885.4116	3392.65	2510.95
1015.3253	2886.5405	3403.55	2520.3
1015.4416	2887.6686	3401.55	2514.5
1015.5579	2888.7962	3417.35	2536
1015.6741	2889.923	3408.55	2528.55
1015.7903	2891.0493	3431.35	2548.8
1015.9065	2892.1748	3435.55	2552.5
1016.0226	2893.2997	3448.95	2565.65
1016.1387	2894.424	3452.3	2571.1
1016.2547	2895.5476	3466.05	2583.4
1016.3707	2896.6706	3494.05	2613.05
1016.4866	2897.7929	3523.75	2640.3
1016.6025	2898.9145	3545.7	2660.95
1016.7184	2900.0355	3569.85	2686.75
1016.8342	2901.1559	3598.9	2715.25
1016.95	2902.2756	3639.95	2756.1
1017.0658	2903.3946	3655.85	2775.2
1017.1815	2904.513	3687.5	2800.95
1017.2971	2905.6308	3722.1	2840.25
1017.4127	2906.7479	3729.3	2846
1017.5283	2907.8643	3770.85	2885.55
1017.6439	2908.9801	3767.25	2885.05
1017.7594	2910.0953	3783.2	2900.8
1017.8748	2911.2098	3786.4	2900.05
1017.9902	2912.3236	3804.45	2913.55
1018.1056	2913.4368	3777.3	2891.45
1018.2209	2914.5494	3760.4	2878.15
1018.3362	2915.6613	3720.45	2831.1
1018.4515	2916.7725	3684.45	2800.2
1018.5667	2917.8831	3667.65	2784.25
1018.6819	2918.9931	3646.2	2762.5
1018.797	2920.1024	3599.85	2715
1018.9121	2921.211	3599.9	2720.1
1019.0271	2922.319	3574.6	2692.2
1019.1421	2923.4264	3546.4	2663.45
1019.2571	2924.5331	3533.15	2651.1
1019.372	2925.6391	3529.25	2646.8
1019.4869	2926.7445	3531.05	2649.75
1019.6017	2927.8493	3536.85	2653.75
1019.7165	2928.9534	3531.75	2650.15
1019.8313	2930.0569	3533.35	2646.55
1019.946	2931.1597	3532.05	2649.35
1020.0606	2932.2619	3541.7	2658.05
1020.1753	2933.3634	3540	2658.1
1020.2899	2934.4643	3550.65	2660.15
1020.4044	2935.5645	3531.85	2641.05
1020.5189	2936.6641	3511.1	2625.5
1020.6334	2937.763	3478.2	2597.3
1020.7478	2938.8613	3428.3	2544.65
1020.8622	2939.959	3394.6	2508
1020.9765	2941.056	3322.05	2440.1
1021.0908	2942.1523	3253.85	2371.1
1021.2051	2943.248	3166.4	2283.75
1021.3193	2944.3431	3069.9	2188.5
1021.4334	2945.4375	2976.7	2093.6
1021.5476	2946.5313	2895.9	2015.55
1021.6617	2947.6244	2782.15	1896.75
1021.7757	2948.7169	2682	1800.3
1021.8897	2949.8087	2588.2	1702.8
1022.0037	2950.8999	2495.8	1612.15
1022.1176	2951.9904	2418.35	1535.25
1022.2315	2953.0803	2349.15	1466.1
1022.3453	2954.1696	2292.15	1410.35
1022.4591	2955.2582	2232.15	1350
1022.5728	2956.3462	2184.15	1301.85
1022.6865	2957.4335	2160.15	1277.2
1022.8002	2958.5202	2120.05	1233.9
1022.9138	2959.6062	2080.65	1198.2
1023.0274	2960.6916	2065.8	1182.65
1023.141	2961.7764	2046.2	1165
1023.2545	2962.8605	2018.8	1135
1023.3679	2963.9439	2006.2	1124.5
1023.4813	2965.0267	2002.5	1117.85
1023.5947	2966.1089	2016.65	1110.5
1023.708	2967.1905	1991.15	1108.5
1023.8213	2968.2714	1979.75	1099.1
1023.9346	2969.3516	1983.45	1102
1024.0478	2970.4312	1992.55	1099.9
1024.1609	2971.5102	1990.95	1108.7
1024.274	2972.5885	1994.25	1111.3
1024.3871	2973.6662	1999.1	1111.9
1024.5002	2974.7432	1992.7	1109.8
1024.6132	2975.8196	1994.35	1110.3
1024.7261	2976.8954	1972.8	1090.3
1024.839	2977.9705	1966.55	1082.5
1024.9519	2979.045	1954.2	1071.95
1025.0647	2980.1188	1949.6	1067.05
1025.1775	2981.192	1931.5	1049.1
1025.2902	2982.2645	1907.75	1025.75
1025.4029	2983.3364	1895.55	1012.3
1025.5156	2984.4077	1854.1	971.55
1025.6282	2985.4783	1845.75	958.4
1025.7407	2986.5483	1811.35	928.75
1025.8532	2987.6177	1773.7	891.35
1025.9657	2988.6864	1746.6	863.2
1026.0782	2989.7545	1705.75	822.55
1026.1906	2990.8219	1674.15	793.2
1026.3029	2991.8887	1646.8	762.4
1026.4152	2992.9548	1606.25	724.05
1026.5275	2994.0204	1577.65	695.35
1026.6397	2995.0852	1551.55	670
1026.7519	2996.1495	1528	644.35
1026.864	2997.2131	1495.1	612.5
1026.9761	2998.276	1479.3	596
1027.0882	2999.3383	1454.7	570.75
1027.2002	3000.4	1440.55	555.7
1027.3122	3001.4611	1414.7	530.5
1027.4241	3002.5215	1407.6	524.05
1027.536	3003.5812	1386.9	506.1
1027.6478	3004.6404	1371.3	490.05
1027.7596	3005.6989	1362.95	479.05
1027.8714	3006.7567	1352.75	472.6
1027.9831	3007.8139	1376	467.45
1028.0947	3008.8705	1334.15	452.7
1028.2064	3009.9264	1344.5	443.4
1028.3179	3010.9818	1314	431.95
1028.4295	3012.0364	1317.05	433.05
1028.541	3013.0905	1303.5	419.4
1028.6524	3014.1439	1311.65	429.45
1028.7638	3015.1966	1297	414.45
1028.8752	3016.2487	1296.6	415.05
1028.9865	3017.3002	1299.35	413.85
1029.0978	3018.3511	1292.8	409.6
1029.209	3019.4013	1290.6	409.15
1029.3202	3020.4509	1284.2	401.7
1029.4314	3021.4998	1288.95	406.2
1029.5425	3022.5481	1281.8	398.25
1029.6535	3023.5958	1282.65	400.7
1029.7645	3024.6428	1285	403.6
1029.8755	3025.6892	1279.65	397.1
1029.9864	3026.735	1285.7	402.55
1030.0973	3027.7802	1287.7	404.7
1030.2082	3028.8247	1282.55	399.75
1030.319	3029.8685	1278.8	395.8
1030.4297	3030.9118	1292.55	409.05
1030.5404	3031.9544	1290.15	408.05
1030.6511	3032.9963	1292.85	411.35
1030.7617	3034.0376	1292.5	409.75
1030.8723	3035.0783	1300.8	415.65
1030.9829	3036.1184	1302.4	420.25
1031.0934	3037.1578	1298.1	415.95
1031.2038	3038.1966	1305.55	421.35
1031.3142	3039.2348	1307.05	425.1
1031.4246	3040.2723	1320.15	429.45
1031.5349	3041.3092	1300.95	419.85
1031.6452	3042.3455	1303.3	420.9
1031.7554	3043.3811	1301.9	417.65
1031.8656	3044.4161	1302.9	419
1031.9758	3045.4505	1300.8	420.45
1032.0859	3046.4842	1300	418
1032.1959	3047.5173	1292.8	409.4
1032.3059	3048.5498	1288	406.2
1032.4159	3049.5816	1286.35	403.3
1032.5258	3050.6128	1280.5	398.95
1032.6357	3051.6434	1274.55	391.25
1032.7455	3052.6734	1273.95	391.05
1032.8553	3053.7027	1269.7	385.1
1032.9651	3054.7314	1270.5	388.7
1033.0748	3055.7594	1265.1	382.7
1033.1845	3056.7868	1259.6	376.2
1033.2941	3057.8136	1259.85	376.8
1033.4037	3058.8398	1253.3	372
1033.5132	3059.8653	1248.4	367.05
1033.6227	3060.8902	1240.6	360.2
1033.7321	3061.9145	1244.55	360.7
1033.8415	3062.9381	1236.9	354.25
1033.9509	3063.9612	1247.7	348.45
1034.0602	3064.9835	1233.95	352.05
1034.1694	3066.0053	1228.1	343.45
1034.2787	3067.0264	1223.85	341.15
1034.3878	3068.0469	1221.2	337.65
1034.497	3069.0668	1214.2	328.9
1034.6061	3070.086	1202	320.85
1034.7151	3071.1046	1201.05	316.35
1034.8241	3072.1226	1195.2	311.1
1034.9331	3073.1399	1186.3	304.5
1035.042	3074.1567	1178.6	296
1035.1508	3075.1727	1180.5	296.2
1035.2597	3076.1882	1168.9	287.5
1035.3684	3077.203	1153.95	272.65
1035.4772	3078.2173	1156.7	272.5
1035.5859	3079.2308	1149.15	264.85
1035.6945	3080.2438	1140.6	257
1035.8031	3081.2561	1132.9	250.8
1035.9117	3082.2678	1124.55	242
1036.0202	3083.2789	1123.5	241.15
1036.1286	3084.2893	1113.95	232.75
1036.2371	3085.2991	1109.5	227.45
1036.3454	3086.3083	1110.55	223.75
1036.4538	3087.3169	1106.6	223.25
1036.562	3088.3248	1099.45	216.25
1036.6703	3089.3321	1095.65	212.25
1036.7785	3090.3388	1085.8	204.3
1036.8866	3091.3449	1084.35	200.25
1036.9948	3092.3503	1084.6	199.85
1037.1028	3093.3551	1080.7	198.95
1037.2108	3094.3593	1073.65	193.35
1037.3188	3095.3629	1070.6	188.6
1037.4267	3096.3658	1066.7	183.3
1037.5346	3097.3681	1067.8	184.75
1037.6425	3098.3698	1060.6	176.45
1037.7503	3099.3708	1062.9	175.1
1037.858	3100.3713	1056.7	172.6
1037.9657	3101.3711	1061.2	176.8
1038.0734	3102.3702	1192.2	173.3
1038.181	3103.3688	1049.15	164.6
1038.2886	3104.3667	1051.9	169.4
1038.3961	3105.364	1046.2	163.9
1038.5036	3106.3607	1046.75	162.5
1038.611	3107.3568	1044.5	162
1038.7184	3108.3522	1038.8	157.35
1038.8257	3109.347	1040.35	155.65
1038.933	3110.3412	1046.1	159.85
1039.0403	3111.3348	1033	151.5
1039.1475	3112.3277	1037.3	154.1
1039.2547	3113.32	1027.15	146.35
1039.3618	3114.3117	1033.35	150.4
1039.4689	3115.3028	1028.65	146.5
1039.5759	3116.2932	1031.95	148.05
1039.6829	3117.2831	1032.65	143.45
1039.7898	3118.2723	1023.85	142.3
1039.8967	3119.2608	1025.9	143.95
1040.0035	3120.2488	1023.9	142.15
1040.1103	3121.2361	1018.2	135.55
1040.2171	3122.2229	1018.35	136.4
1040.3238	3123.209	1021.55	139.1
1040.4305	3124.1944	1018.4	135.95
1040.5371	3125.1793	1017.5	132
1040.6437	3126.1635	1015.35	132.05
1040.7502	3127.1471	1011.15	129.25
1040.8567	3128.1301	1012.25	131.7
1040.9631	3129.1125	1011.5	128.35
1041.0695	3130.0942	1012.1	128.5
1041.1759	3131.0753	1019.75	129.05
1041.2822	3132.0558	1009.9	127.95
1041.3884	3133.0357	1006.3	123.85
1041.4946	3134.015	1004.25	121.35
1041.6008	3134.9936	1005.5	119.15
1041.7069	3135.9716	1025.75	121.05
1041.813	3136.949	1002.9	120.15
1041.919	3137.9258	1014.7	115.35
1042.025	3138.902	1003.45	116.55
1042.1309	3139.8775	1000.55	118.45
1042.2368	3140.8524	999.15	117.55
1042.3427	3141.8267	998.6	113.7
1042.4485	3142.8004	996.1	115.15
1042.5542	3143.7735	1001.25	112.15
1042.6599	3144.7459	996.45	113.25
1042.7656	3145.7178	995.65	112.25
1042.8712	3146.689	994.55	112.1
1042.9768	3147.6596	994.2	112.15
1043.0823	3148.6295	991.2	107.6
1043.1878	3149.5989	990.5	108.9
1043.2932	3150.5676	987.8	104.8
1043.3986	3151.5357	985.85	106.25
1043.5039	3152.5032	985.6	102.95
1043.6092	3153.4701	989.6	108.6
1043.7145	3154.4364	987.8	104.6
1043.8197	3155.402	981.85	99.7
1043.9248	3156.367	988.55	104.35
1044.03	3157.3315	1016.5	104.3
1044.135	3158.2952	983.75	101.2
1044.24	3159.2584	981.45	98.25
1044.345	3160.221	979.3	95.25
1044.4499	3161.1829	981.25	100.05
1044.5548	3162.1442	980.4	96.35
1044.6596	3163.105	979.45	96.7
1044.7644	3164.065	979.05	96.75
1044.8692	3165.0245	983	98.4
1044.9739	3165.9834	975.95	94.75
1045.0785	3166.9416	978.6	97.75
1045.1831	3167.8993	974.9	94.15
1045.2877	3168.8563	976.85	95
1045.3922	3169.8127	975.2	92.75
1045.4966	3170.7684	974.1	91.8
1045.6011	3171.7236	973.5	90.6
1045.7054	3172.6782	973.7	91.85
1045.8098	3173.6321	974.95	92.35
1045.914	3174.5854	976.55	90.8
1046.0183	3175.5381	970.85	90.8
1046.1224	3176.4902	970.1	90.85
1046.2266	3177.4417	968.55	87.7
1046.3307	3178.3926	967.95	86.3
1046.4347	3179.3428	967.8	86.2
1046.5387	3180.2924	970.35	87.05
1046.6427	3181.2415	970.7	90.5
1046.7466	3182.1899	969	85.55
1046.8504	3183.1377	964.5	82.65
1046.9542	3184.0848	971.3	86.65
1047.058	3185.0314	966.4	83.9
1047.1617	3185.9773	966.5	82.3
1047.2654	3186.9227	965.55	81.7
1047.369	3187.8674	963.45	82.8
1047.4726	3188.8115	964.35	77.95
1047.5761	3189.755	963.3	81.7
1047.6796	3190.6979	965.35	83.25
1047.783	3191.6402	961.35	80.65
1047.8864	3192.5818	963.55	81.55
1047.9898	3193.5229	981.5	80.6
1048.0931	3194.4633	961.15	79
1048.1963	3195.4031	959.65	78.75
1048.2995	3196.3423	956.8	74.2
1048.4027	3197.2809	960.6	78.9
1048.5058	3198.2189	960.75	79.25
1048.6089	3199.1563	980.05	80.85
1048.7119	3200.0931	956.75	75.2
1048.8148	3201.0292	956.05	75.5
1048.9178	3201.9648	958.5	77.6
1049.0206	3202.8997	960.75	76.2
1049.1235	3203.834	955.35	73.7
1049.2262	3204.7677	953.75	72.75
1049.329	3205.7008	960.75	76.15
1049.4317	3206.6333	952.95	72.4
1049.5343	3207.5652	959.3	73.05
1049.6369	3208.4964	954.9	72.75
1049.7394	3209.4271	950.8	69.8
1049.8419	3210.3571	951.9	68.75
1049.9444	3211.2865	956.55	73.25
1050.0468	3212.2154	953.1	70.95
1050.1491	3213.1436	955.45	70.65
1050.2514	3214.0712	959.25	69.7
1050.3537	3214.9982	948.95	66.75
1050.4559	3215.9246	949.75	67.65
1050.5581	3216.8503	946.9	66.75
1050.6602	3217.7755	951.35	69.15
1050.7623	3218.7001	951.75	70.6
1050.8643	3219.624	952.7	69
1050.9663	3220.5473	949.3	67.85
1051.0682	3221.4701	951.9	69.4
1051.1701	3222.3922	951.45	66.55
1051.2719	3223.3137	949.1	67.55
1051.3737	3224.2346	950.7	67.6
1051.4754	3225.1549	946.45	66.95
1051.5771	3226.0746	944.85	61.45
1051.6788	3226.9937	943.55	60.8
1051.7804	3227.9121	944	61.8
1051.8819	3228.83	947.2	66.1
1051.9834	3229.7473	944.25	62.35
1052.0849	3230.6639	946.15	64.25
1052.1863	3231.5799	943.6	60
1052.2876	3232.4954	941.45	58.95
1052.3889	3233.4102	943.4	61.5
1052.4902	3234.3244	945.6	62.3
1052.5914	3235.238	941.65	60.45
1052.6926	3236.151	967.45	60.8
1052.7937	3237.0634	944	61.85
1052.8948	3237.9752	941.45	58.5
1052.9958	3238.8864	942.7	60.9
1053.0968	3239.797	939.9	56.7
1053.1977	3240.7069	944.5	60.75
1053.2986	3241.6163	942.4	59.9
1053.3994	3242.5251	940.4	61.05
1053.5002	3243.4332	940.25	59.4
1053.6009	3244.3408	939.5	59
1053.7016	3245.2477	938.75	58.55
1053.8022	3246.154	940.55	57.55
1053.9028	3247.0598	938.95	57.35
1054.0034	3247.9649	935.95	53.1
1054.1039	3248.8694	937.5	56.05
1054.2043	3249.7733	936.35	52.05
1054.3047	3250.6766	936.95	55.1
1054.4051	3251.5793	937.1	56.4
1054.5054	3252.4814	932.1	49.5
1054.6056	3253.3829	934.8	53.6
1054.7058	3254.2838	934.5	53.1
1054.806	3255.1841	933.7	51.7
1054.9061	3256.0838	932	49.35
1055.0061	3256.9829	931.45	49.95
1055.1062	3257.8814	934.4	50.3
1055.2061	3258.7792	932.7	50.65
1055.306	3259.6765	933.75	47.75
1055.4059	3260.5731	932.25	52.8
1055.5057	3261.4692	929.45	45.4
1055.6055	3262.3647	930.85	49.1
1055.7052	3263.2595	930.55	50.1
1055.8049	3264.1538	929.65	45.55
1055.9045	3265.0474	927.85	44.6
1056.0041	3265.9404	924.55	42.45
1056.1036	3266.8329	926.55	45.55
1056.2031	3267.7247	935.65	43.65
1056.3025	3268.616	924.3	42.25
1056.4019	3269.5066	922.65	39.65
1056.5013	3270.3966	924.3	41.25
1056.6005	3271.286	919.8	37.8
