Software Version:	3.9.2.0
Unit SN:	10000200
Spectrometer SN:	6960
Date:	3/14/2024 12:30:32 PM
Data Line Index:	25
Spectral Points:	2048
Integration time (ms):	125
Averages:	20
Delay (ms):	30000
Sequence Number:	1
Processing:	dark subtract
Laser Power (mW):	300
Laser Current (mA):	821
Laser Diode Temp (C):	25
Laser Case Temp (C):	26
System Temp (C):	25.9
Spectrometer Temp (C):	23.6
CCD Temp (C):	0.009
Secondary Temp (C):	20.013
Heatsink Temp (C):	22.601
CCDPCB Temp (C):	36.374
SecondaryPCB Temp (C):	32.928

Wavelength	RamanShift	Raw Counts	Dark Subtracted
787.061	30.1047	418.15	6.55
787.2016	32.3739	415.45	3.95
787.3422	34.6426	417.6	4.6
787.4828	36.9109	419.4	6.35
787.6235	39.1787	423.5	4.05
787.7642	41.4461	429.65	8.65
787.9049	43.7131	433.35	8.05
788.0456	45.9796	436.95	8.4
788.1863	48.2456	442.65	10.35
788.3271	50.5112	447.2	9.85
788.4679	52.7764	451.1	12.75
788.6087	55.0411	453.75	11.55
788.7496	57.3054	458.75	12.9
788.8904	59.5692	461.3	12.25
789.0313	61.8326	466.7	14.75
789.1722	64.0955	474.4	18
789.3132	66.3579	479.95	18.6
789.4541	68.6199	484.7	21.65
789.5951	70.8815	495.35	28.75
789.7361	73.1426	510.25	41.7
789.8771	75.4032	545.5	73.7
790.0181	77.6634	615.25	136.55
790.1592	79.9231	781.5	298.85
790.3003	82.1824	1126.55	638.4
790.4414	84.4412	1707.45	1215.7
790.5825	86.6995	2461.95	1964.8
790.7237	88.9574	3203.15	2700.75
790.8648	91.2148	3729.3	3225.1
791.006	93.4717	3977.85	3469.7
791.1472	95.7282	4050.65	3538.65
791.2885	97.9842	4051.05	3535.75
791.4297	100.2398	4008.25	3491.25
791.571	102.4949	3968.55	3449.35
791.7123	104.7495	3944.1	3419.55
791.8536	107.0036	3917.8	3391.1
791.9949	109.2573	3861.5	3339.25
792.1363	111.5105	3783.3	3256.8
792.2777	113.7632	3711.45	3183.65
792.4191	116.0154	3655.95	3115.35
792.5605	118.2672	3566.65	3032.7
792.7019	120.5185	3481.1	2948.5
792.8434	122.7693	3391.35	2854.65
792.9849	125.0197	3324.55	2785.25
793.1264	127.2696	3239	2697.45
793.2679	129.519	3202.85	2657.65
793.4094	131.7679	3155.4	2607.95
793.551	134.0163	3126.95	2576.15
793.6926	136.2642	3124.05	2567.75
793.8342	138.5117	3120.4	2560.65
793.9758	140.7587	3104.15	2544.85
794.1175	143.0052	3089.5	2525.15
794.2591	145.2512	3040.3	2476.95
794.4008	147.4967	2975.2	2410.25
794.5425	149.7417	2944.85	2379.3
794.6842	151.9863	2908.95	2337.5
794.826	154.2304	2894.1	2320.5
794.9677	156.4739	2881.85	2300.75
795.1095	158.717	2884.9	2305.95
795.2513	160.9596	2922.1	2338.3
795.3931	163.2017	2926.5	2339.85
795.535	165.4433	2945.6	2359.1
795.6768	167.6844	2950.25	2361.85
795.8187	169.925	2951.1	2357.2
795.9606	172.1651	2894.05	2298.4
796.1025	174.4047	2848.85	2247.8
796.2445	176.6439	2811.95	2208.9
796.3864	178.8825	2792.5	2186.8
796.5284	181.1206	2764.1	2154.2
796.6704	183.3582	2748.4	2135.95
796.8124	185.5954	2748.1	2133.65
796.9544	187.832	2738.2	2120.15
797.0965	190.0681	2745.6	2128.3
797.2386	192.3037	2744.35	2123
797.3806	194.5388	2748	2122.7
797.5228	196.7734	2755.55	2127.55
797.6649	199.0075	2763.55	2131.05
797.807	201.2411	2788.05	2153.3
797.9492	203.4742	2812.2	2177.15
798.0914	205.7068	2834.3	2200.95
798.2336	207.9389	2836.5	2199.9
798.3758	210.1704	2855.05	2215.3
798.518	212.4015	2854.35	2210.2
798.6603	214.632	2874.7	2229.9
798.8025	216.862	2861.8	2224.5
798.9448	219.0915	2855.55	2228.05
799.0871	221.3205	2854	2228.35
799.2294	223.549	2866.75	2244.4
799.3718	225.777	2867.15	2244.8
799.5141	228.0044	2856.3	2229.15
799.6565	230.2314	2850.05	2227.1
799.7989	232.4578	2847	2220.2
799.9413	234.6837	2832.9	2200.2
800.0837	236.909	2832.35	2200.15
800.2262	239.1339	2823.25	2165.45
800.3687	241.3582	2823.95	2177.95
800.5111	243.582	2819.4	2148
800.6536	245.8053	2825.95	2164.4
800.7961	248.0281	2819.4	2161.7
800.9387	250.2503	2821.4	2159.75
801.0812	252.472	2830.45	2163.85
801.2238	254.6932	2850.85	2181.35
801.3664	256.9139	2837.7	2163.85
801.509	259.134	2848.15	2170.35
801.6516	261.3536	2855.25	2182
801.7942	263.5727	2890.75	2215.1
801.9369	265.7912	2920.95	2245.85
802.0795	268.0092	2980.45	2304.85
802.2222	270.2267	3017.3	2340.5
802.3649	272.4436	3072.8	2394.1
802.5076	274.6601	3099.3	2412.85
802.6504	276.8759	3110.6	2426.6
802.7931	279.0913	3146.55	2466.3
802.9359	281.3061	3151.45	2466.4
803.0787	283.5204	3165.05	2476.1
803.2215	285.7341	3189.95	2497.35
803.3643	287.9473	3212.35	2519.35
803.5071	290.16	3207.9	2510.45
803.6499	292.3721	3182.65	2489.1
803.7928	294.5837	3132.6	2438.5
803.9357	296.7947	3095.05	2402.35
804.0786	299.0052	3067.85	2373.75
804.2215	301.2152	3047	2348.95
804.3644	303.4246	3037.5	2342.65
804.5074	305.6334	3020.6	2326.05
804.6503	307.8418	3019.85	2320.9
804.7933	310.0495	3005.6	2304.9
804.9363	312.2568	2983.7	2284.5
805.0793	314.4635	2933.7	2231.05
805.2223	316.6696	2885.45	2181.8
805.3653	318.8752	2845.8	2134.45
805.5084	321.0802	2800.25	2096.6
805.6514	323.2847	2796.15	2091.95
805.7945	325.4887	2792.8	2086.3
805.9376	327.692	2809.2	2102.95
806.0807	329.8949	2840.15	2132.2
806.2238	332.0972	2900.2	2187.9
806.367	334.2989	2939.25	2226.4
806.5101	336.5001	2945.55	2231.35
806.6533	338.7007	2915.55	2200.95
806.7965	340.9008	2879.95	2164.15
806.9397	343.1003	2824.25	2104.25
807.0829	345.2992	2772.6	2051.75
807.2261	347.4976	2717.55	1995.25
807.3693	349.6955	2690.6	1961.55
807.5126	351.8927	2665.65	1940.15
807.6559	354.0895	2651.1	1913.4
807.7991	356.2856	2637	1908.55
807.9424	358.4812	2616.8	1890.2
808.0857	360.6763	2612.35	1881.8
808.2291	362.8707	2598.65	1869.45
808.3724	365.0646	2607.4	1874.6
808.5158	367.258	2610.2	1874.85
808.6591	369.4508	2621.1	1880.7
808.8025	371.643	2648.8	1909.5
808.9459	373.8346	2676.15	1934.65
809.0893	376.0257	2718	1972.75
809.2327	378.2162	2759.05	2015.05
809.3762	380.4062	2764.95	2016.4
809.5196	382.5956	2754	2005.8
809.6631	384.7844	2720.05	1974.3
809.8066	386.9726	2662.8	1913.5
809.9501	389.1603	2625.35	1877.35
810.0936	391.3474	2634.05	1854.85
810.2371	393.5339	2613.7	1865.65
810.3806	395.7199	2587.65	1845.8
810.5241	397.9052	2593.95	1854.7
810.6677	400.09	2641.7	1899.9
810.8113	402.2743	2682.2	1940.4
810.9548	404.4579	2712.35	1970.8
811.0984	406.641	2762.7	2020
811.2421	408.8235	2784.35	2039.7
811.3857	411.0054	2857.05	2109.95
811.5293	413.1868	2927.4	2178.45
811.673	415.3675	2987.15	2235.25
811.8166	417.5477	3005.55	2254.3
811.9603	419.7273	2944.65	2189.4
812.104	421.9064	2864.8	2102.1
812.2477	424.0848	2769.65	2009.7
812.3914	426.2627	2719.05	1957.8
812.5351	428.4399	2656.55	1893.9
812.6788	430.6166	2604.85	1837.35
812.8226	432.7928	2557.05	1789.85
812.9663	434.9683	2515.95	1749.7
813.1101	437.1432	2490.8	1719.7
813.2539	439.3176	2474.65	1704.7
813.3977	441.4914	2459.55	1687.5
813.5415	443.6645	2466.8	1692.45
813.6853	445.8371	2443.6	1672.35
813.8291	448.0091	2441.8	1671.25
813.973	450.1806	2452.35	1679.65
814.1168	452.3514	2441	1666.3
814.2607	454.5216	2455.4	1669.9
814.4046	456.6913	2439.6	1663
814.5485	458.8603	2446.2	1669.5
814.6924	461.0288	2447.65	1671.4
814.8363	463.1967	2441.7	1665.65
814.9802	465.3639	2438.15	1659.85
815.1241	467.5306	2433.8	1655.55
815.2681	469.6967	2424.55	1645.15
815.412	471.8622	2421.05	1639.9
815.556	474.0271	2420.95	1640.25
815.7	476.1914	2411.95	1628.65
815.844	478.3551	2403.4	1624.5
815.988	480.5182	2400.2	1618.8
816.132	482.6807	2402.95	1618.25
816.276	484.8426	2420.2	1637.1
816.4201	487.0039	2462.2	1677.4
816.5641	489.1647	2513.05	1729.2
816.7082	491.3248	2554	1768.4
816.8522	493.4843	2571.35	1786.7
816.9963	495.6432	2573.4	1787.6
817.1404	497.8015	2532.05	1743.55
817.2845	499.9592	2490.8	1703.4
817.4286	502.1163	2441.15	1653.25
817.5727	504.2728	2400.35	1610.2
817.7168	506.4287	2389.45	1600.1
817.861	508.5839	2363.7	1573.4
818.0051	510.7386	2343.9	1553.95
818.1493	512.8927	2364.95	1567.5
818.2935	515.0461	2362.4	1571.1
818.4377	517.199	2370.35	1579.2
818.5818	519.3512	2417.7	1626.1
818.726	521.5029	2480	1680.9
818.8703	523.6539	2525.9	1729.2
819.0145	525.8043	2541.45	1743.55
819.1587	527.9541	2499.6	1702.05
819.303	530.1033	2433.05	1634.1
819.4472	532.2519	2385.5	1585.2
819.5915	534.3999	2362.8	1564.8
819.7357	536.5472	2357.65	1556.8
819.88	538.694	2354.8	1553.75
820.0243	540.8401	2364.25	1564.5
820.1686	542.9856	2387.15	1584.25
820.3129	545.1305	2391.45	1588.6
820.4572	547.2748	2405.85	1603.35
820.6016	549.4185	2399.2	1593.2
820.7459	551.5615	2406.65	1603.45
820.8902	553.704	2435.75	1631.55
821.0346	555.8458	2438.5	1633.4
821.1789	557.987	2449.25	1644.9
821.3233	560.1276	2494.9	1689.65
821.4677	562.2675	2545.1	1740.1
821.6121	564.4069	2614.3	1810.5
821.7565	566.5456	2663.95	1860.5
821.9009	568.6837	2642.7	1838.5
822.0453	570.8212	2566.85	1764.35
822.1897	572.958	2483.05	1676.85
822.3342	575.0942	2439.3	1634.8
822.4786	577.2299	2389.7	1582.55
822.6231	579.3648	2362.35	1556.15
822.7675	581.4992	2339	1532.05
822.912	583.6329	2354.65	1548.15
823.0565	585.766	2361.45	1551.6
823.201	587.8985	2413.4	1603.65
823.3454	590.0304	2469.95	1637.6
823.4899	592.1616	2484.8	1672.7
823.6345	594.2922	2497.75	1686.6
823.779	596.4222	2477.75	1667.7
823.9235	598.5515	2409.35	1594.7
824.068	600.6802	2359.95	1546.4
824.2126	602.8083	2320.2	1505.7
824.3571	604.9358	2303.85	1488.45
824.5017	607.0626	2286.9	1472.2
824.6462	609.1888	2295.3	1478.95
824.7908	611.3144	2308.25	1491.95
824.9354	613.4393	2337.95	1521
825.08	615.5636	2400.7	1584.25
825.2246	617.6873	2454.45	1639.55
825.3692	619.8103	2482.3	1663
825.5138	621.9327	2490.55	1670.55
825.6584	624.0544	2464.75	1648.3
825.803	626.1756	2397.55	1578.75
825.9477	628.2961	2346.9	1528.2
826.0923	630.4159	2311	1490.9
826.237	632.5351	2301.3	1481.05
826.3816	634.6537	2300.45	1478.95
826.5263	636.7716	2292.75	1469.85
826.6709	638.8889	2293.85	1471.8
826.8156	641.0056	2287.55	1465.1
826.9603	643.1216	2304.85	1482.35
827.105	645.237	2325	1499.7
827.2497	647.3518	2313.8	1489.65
827.3944	649.4659	2274.85	1450.9
827.5391	651.5793	2250.25	1424.85
827.6838	653.6922	2237.1	1411.9
827.8285	655.8043	2224.1	1400.85
827.9733	657.9159	2211.1	1386
828.118	660.0268	2201.2	1373.25
828.2627	662.137	2202	1376.95
828.4075	664.2466	2203.8	1374.5
828.5522	666.3556	2199.25	1371.45
828.697	668.4639	2206.95	1375.45
828.8418	670.5716	2189.35	1361.05
828.9865	672.6786	2184.15	1353.3
829.1313	674.785	2176.2	1344.85
829.2761	676.8907	2160.15	1329.55
829.4209	678.9958	2175.25	1347
829.5657	681.1002	2172.15	1341.3
829.7105	683.204	2179.3	1344.3
829.8553	685.3072	2170.35	1338.25
830.0001	687.4097	2167.25	1336.8
830.1449	689.5115	2169.6	1334.35
830.2898	691.6127	2166.65	1334.7
830.4346	693.7132	2164.35	1331.1
830.5794	695.8131	2182.25	1334.8
830.7243	697.9123	2156.25	1323.95
830.8691	700.0109	2170.95	1337.8
831.014	702.1089	2170.5	1338.1
831.1588	704.2061	2186.8	1351.6
831.3037	706.3028	2205	1369.5
831.4486	708.3987	2226.45	1392.35
831.5935	710.4941	2245.75	1410.55
831.7383	712.5887	2250.65	1413.75
831.8832	714.6827	2244	1404.5
832.0281	716.7761	2245.55	1410.9
832.173	718.8688	2234.4	1395.4
832.3179	720.9608	2228.85	1388.45
832.4628	723.0522	2244.05	1401.25
832.6077	725.1429	2240.15	1402.9
832.7527	727.233	2277.15	1438.95
832.8976	729.3224	2337.45	1499.45
833.0425	731.4112	2398.65	1558.15
833.1874	733.4993	2426.05	1583.4
833.3324	735.5867	2391.6	1550.9
833.4773	737.6735	2314.6	1471.6
833.6222	739.7596	2259.6	1415.8
833.7672	741.845	2232.65	1390.4
833.9122	743.9298	2219.15	1374.9
834.0571	746.014	2225.35	1383.15
834.2021	748.0974	2247.6	1405.6
834.347	750.1802	2249.9	1406.5
834.492	752.2624	2235.8	1392.4
834.637	754.3439	2222.1	1380
834.782	756.4247	2215.4	1360.1
834.9269	758.5048	2213.1	1370.05
835.0719	760.5843	2215.8	1373
835.2169	762.6631	2246.4	1401.55
835.3619	764.7413	2289.05	1446.6
835.5069	766.8188	2357.15	1512.7
835.6519	768.8956	2443.5	1594.75
835.7969	770.9718	2507	1663.95
835.9419	773.0473	2494	1651.1
836.0869	775.1221	2453.55	1608.95
836.232	777.1962	2432	1586.35
836.377	779.2697	2488.45	1642.2
836.522	781.3426	2591.25	1736.4
836.667	783.4147	2675.4	1829.55
836.8121	785.4862	2677.85	1833.5
836.9571	787.557	2605.45	1759.15
837.1021	789.6271	2482.7	1635.85
837.2472	791.6966	2347.75	1500.8
837.3922	793.7654	2242.55	1393.65
837.5373	795.8335	2184.3	1336.3
837.6823	797.901	2153.9	1305.55
837.8274	799.9678	2129.6	1280.35
837.9724	802.0339	2126.85	1279.65
838.1175	804.0993	2158.9	1302.95
838.2626	806.1641	2137.65	1288.05
838.4076	808.2282	2128.85	1279.6
838.5527	810.2916	2112	1260
838.6978	812.3544	2091	1243.4
838.8428	814.4164	2081.1	1232.45
838.9879	816.4778	2089.8	1237.7
839.133	818.5385	2108.6	1258.45
839.2781	820.5986	2133.75	1283.2
839.4232	822.658	2177.2	1326.35
839.5682	824.7166	2222.65	1372.3
839.7133	826.7747	2316.45	1467.8
839.8584	828.832	2385.2	1535.3
840.0035	830.8886	2450.1	1594.95
840.1486	832.9446	2475.45	1622.5
840.2937	834.9999	2452.25	1601.15
840.4388	837.0545	2407.05	1551.95
840.5839	839.1085	2308.45	1456.3
840.729	841.1618	2219.8	1363
840.8741	843.2143	2172.3	1319.1
841.0192	845.2662	2137.6	1287.4
841.1643	847.3175	2118.5	1266.55
841.3095	849.368	2111.15	1257.15
841.4546	851.4179	2099.45	1246.9
841.5997	853.467	2095.9	1241.95
841.7448	855.5155	2104.75	1250.25
841.8899	857.5633	2113.8	1260.55
842.0351	859.6105	2107.05	1252.65
842.1802	861.6569	2100.95	1246.9
842.3253	863.7027	2081.3	1225.4
842.4704	865.7478	2060.3	1205.6
842.6156	867.7922	2053.7	1199.55
842.7607	869.8359	2040.15	1183.9
842.9058	871.8789	2031.3	1175.25
843.0509	873.9212	2069.3	1180.05
843.1961	875.9629	2039.65	1183.85
843.3412	878.0039	2029.9	1171.75
843.4863	880.0441	2067.65	1211.65
843.6315	882.0837	2071.5	1213.85
843.7766	884.1226	2087.95	1229.75
843.9218	886.1609	2117.7	1260.25
844.0669	888.1984	2174.75	1320.65
844.212	890.2352	2232.25	1377.4
844.3572	892.2714	2248.2	1389.15
844.5023	894.3069	2223.7	1365.9
844.6475	896.3416	2160.4	1302.05
844.7926	898.3757	2120.85	1260.9
844.9377	900.4091	2086.7	1228.7
845.0829	902.4418	2087.65	1226.2
845.228	904.4739	2120.05	1258
845.3732	906.5052	2138.8	1280.8
845.5183	908.5358	2142.2	1284.85
845.6635	910.5658	2117.05	1256.65
845.8086	912.595	2093.6	1234.65
845.9538	914.6236	2052.05	1194.35
846.0989	916.6515	2020.2	1161.8
846.2441	918.6786	1999.9	1139.85
846.3892	920.7051	1985.5	1125.35
846.5344	922.7309	1982.35	1122.7
846.6795	924.756	1981.85	1123.7
846.8246	926.7804	1988.2	1126.2
846.9698	928.8041	2004.95	1144.55
847.1149	930.8272	2021.4	1159.55
847.2601	932.8495	2010.7	1149.6
847.4052	934.8711	2029.8	1167.9
847.5504	936.892	2026.65	1164.9
847.6955	938.9123	2054.8	1191.85
847.8407	940.9318	2071.7	1211.25
847.9858	942.9506	2092	1229.75
848.131	944.9688	2095.3	1232.7
848.2761	946.9862	2069.2	1205.15
848.4213	949.003	2028.3	1166.1
848.5664	951.019	2013.15	1152.7
848.7115	953.0344	1988.6	1125.85
848.8567	955.0491	1967.6	1100.65
849.0018	957.063	1952.75	1090.2
849.147	959.0763	1968.25	1107.45
849.2921	961.0888	1957.05	1091.6
849.4373	963.1007	1955.05	1092.9
849.5824	965.1119	1936	1072.6
849.7275	967.1223	1932.35	1066.35
849.8727	969.1321	1930.05	1065.95
850.0178	971.1412	1930.4	1066.85
850.1629	973.1495	1901.9	1036.45
850.3081	975.1572	1972	1061.95
850.4532	977.1641	1930.85	1065.4
850.5983	979.1704	1914.6	1048.6
850.7435	981.1759	1917.7	1050.2
850.8886	983.1808	1912.6	1046.7
851.0337	985.1849	1903.3	1027.4
851.1788	987.1884	1893.15	1025.95
851.324	989.1911	1901.7	1035.45
851.4691	991.1932	1910.1	1042.1
851.6142	993.1945	1916.2	1050.25
851.7593	995.1951	1902.65	1036.55
851.9045	997.1951	1913.5	1041.95
852.0496	999.1943	1896.05	1031.1
852.1947	1001.1928	1892.2	1025.15
852.3398	1003.1906	1899.65	1033.65
852.4849	1005.1877	1928.7	1060.85
852.63	1007.1841	1956.95	1091.95
852.7751	1009.1798	1960	1095.85
852.9202	1011.1748	1957.95	1093.15
853.0653	1013.1691	1929.2	1061.7
853.2104	1015.1627	1909.5	1043.1
853.3555	1017.1556	1868.5	1001.05
853.5006	1019.1477	1854.25	986
853.6457	1021.1392	1834.95	968.9
853.7908	1023.1299	1829.35	961.45
853.9359	1025.12	1818.9	950.2
854.081	1027.1093	1825.35	957.65
854.2261	1029.0979	1849.6	984.9
854.3712	1031.0859	1872.7	1005.1
854.5163	1033.0731	1872.25	1004.65
854.6613	1035.0596	1875.8	1007.65
854.8064	1037.0454	1868.3	1000.15
854.9515	1039.0304	1848.7	980.1
855.0965	1041.0148	1839.35	970.3
855.2416	1042.9985	1817.6	948.2
855.3867	1044.9814	1801.5	933.95
855.5317	1046.9636	1792.55	919.65
855.6768	1048.9452	1801.55	932.8
855.8219	1050.926	1813.75	945.15
855.9669	1052.9061	1825.45	958.2
856.112	1054.8855	1831.7	962.95
856.257	1056.8642	1844.15	975.4
856.4021	1058.8421	1834.8	962.2
856.5471	1060.8194	1827.8	956.75
856.6921	1062.7959	1822.95	953.05
856.8372	1064.7717	1825	955.45
856.9822	1066.7469	1819.6	946.3
857.1272	1068.7213	1818.55	945.4
857.2723	1070.695	1831.4	961.65
857.4173	1072.6679	1845.85	975.75
857.5623	1074.6402	1874.8	1003.75
857.7073	1076.6117	1896.8	1020.45
857.8523	1078.5826	1876.45	1006.2
857.9973	1080.5527	1842.8	969.85
858.1423	1082.5221	1798.65	927.95
858.2873	1084.4908	1771.4	901.4
858.4323	1086.4587	1754.75	883
858.5773	1088.426	1733.45	860.25
858.7223	1090.3925	1740.45	864.35
858.8673	1092.3584	1738.05	869.05
859.0123	1094.3235	1739.35	868.65
859.1573	1096.2879	1763.05	893.65
859.3022	1098.2515	1780.45	910.65
859.4472	1100.2145	1806	934.8
859.5922	1102.1767	1824.3	948.1
859.7371	1104.1382	1866.55	995.05
859.8821	1106.099	1917.95	1044.15
860.027	1108.0591	1958.25	1086.5
860.172	1110.0185	2009.35	1136.55
860.3169	1111.9771	2035.1	1162.6
860.4619	1113.9351	2078.7	1205.85
860.6068	1115.8923	2135.15	1261.75
860.7517	1117.8488	2186.55	1312.05
860.8967	1119.8045	2162.35	1288.5
861.0416	1121.7596	2088.9	1215.25
861.1865	1123.7139	1967.25	1095.25
861.3314	1125.6675	1889.95	1018.45
861.4763	1127.6204	1885.2	1012.85
861.6212	1129.5726	1892.75	1018.5
861.7661	1131.524	1909	1035.2
861.911	1133.4748	1875.65	1002.2
862.0559	1135.4248	1820.3	944.2
862.2008	1137.3741	1768	895.95
862.3457	1139.3226	1738.25	863.15
862.4905	1141.2705	1732.35	857.35
862.6354	1143.2176	1748.3	869.8
862.7803	1145.164	1752.4	877.2
862.9251	1147.1097	1752.6	877.4
863.07	1149.0546	1735.65	858.4
863.2148	1150.9989	1716.7	843.05
863.3597	1152.9424	1694.65	820.95
863.5045	1154.8852	1666.1	792.6
863.6493	1156.8272	1669.95	798.9
863.7942	1158.7686	1682.5	802.1
863.939	1160.7092	1662.3	787.75
864.0838	1162.6491	1656.15	777.95
864.2286	1164.5883	1667.8	791.45
864.3734	1166.5267	1687.6	810.05
864.5182	1168.4644	1699.45	823.95
864.663	1170.4014	1731.1	850.4
864.8078	1172.3377	1752.05	878.45
864.9526	1174.2732	1800	926.95
865.0974	1176.2081	1870.35	994.3
865.2421	1178.1421	1989.9	1111.05
865.3869	1180.0755	2108.7	1234.65
865.5317	1182.0082	2199.4	1323.05
865.6764	1183.9401	2205.5	1329.55
865.8212	1185.8713	2124.7	1251.25
865.9659	1187.8017	1998.9	1122.65
866.1106	1189.7315	1888.85	1013.25
866.2554	1191.6605	1829.65	926.2
866.4001	1193.5888	1748.6	873.75
866.5448	1195.5163	1723.4	847.45
866.6895	1197.4432	1686.1	810.15
866.8342	1199.3693	1673.75	797.5
866.9789	1201.2947	1661.2	779.6
867.1236	1203.2193	1644.35	768
867.2683	1205.1432	1649.85	772
867.413	1207.0664	1640.95	763.55
867.5576	1208.9889	1643.1	761.65
867.7023	1210.9106	1631.05	755.55
867.847	1212.8316	1638.1	761.6
867.9916	1214.7519	1652.25	766.05
868.1363	1216.6715	1645.1	770.65
868.2809	1218.5903	1673.4	796.25
868.4255	1220.5084	1683.25	808.05
868.5701	1222.4257	1697.05	821.75
868.7148	1224.3424	1695.6	818.4
868.8594	1226.2583	1709.75	830.95
869.004	1228.1735	1738.9	860.15
869.1486	1230.0879	1769.7	893.3
869.2932	1232.0016	1792.4	915.55
869.4377	1233.9146	1841	962.2
869.5823	1235.8269	1838.4	963.6
869.7269	1237.7384	1846.55	970.1
869.8715	1239.6492	1839.1	961.5
870.016	1241.5592	1853.5	974.9
870.1606	1243.4686	1890.7	1013
870.3051	1245.3772	1944.65	1067.1
870.4496	1247.285	2023.4	1144.7
870.5941	1249.1922	2105.3	1227.9
870.7387	1251.0986	2169.6	1292
870.8832	1253.0042	2223.2	1345.1
871.0277	1254.9092	2296.4	1418.25
871.1722	1256.8134	2392.25	1514.05
871.3167	1258.7169	2492.15	1611.25
871.4611	1260.6196	2575.7	1697.8
871.6056	1262.5216	2622.35	1741.55
871.7501	1264.4229	2623.6	1743.7
871.8945	1266.3234	2589.3	1711.7
872.039	1268.2232	2535.45	1656.4
872.1834	1270.1223	2473.5	1594.5
872.3278	1272.0207	2438.6	1561
872.4723	1273.9183	2430.8	1546.95
872.6167	1275.8151	2404.15	1526.1
872.7611	1277.7113	2433.65	1554.1
872.9055	1279.6067	2500.15	1624.1
873.0499	1281.5014	2630.3	1748.6
873.1943	1283.3953	2798	1917.05
873.3386	1285.2885	2996.15	2118.15
873.483	1287.181	3173.45	2292.45
873.6274	1289.0727	3279.4	2401.65
873.7717	1290.9637	3231.75	2351.8
873.9161	1292.854	3106.25	2226.65
874.0604	1294.7435	2963.3	2084.6
874.2047	1296.6323	2829.3	1950.1
874.349	1298.5204	2718.5	1833.9
874.4933	1300.4077	2630.9	1750.8
874.6376	1302.2943	2560.1	1679.9
874.7819	1304.1802	2510.35	1630.95
874.9262	1306.0653	2473.55	1594.2
875.0705	1307.9497	2449.55	1570.8
875.2147	1309.8333	2414.65	1535.55
875.359	1311.7162	2405.8	1528.15
875.5032	1313.5984	2393.75	1512.35
875.6475	1315.4798	2372.65	1482.35
875.7917	1317.3605	2383.45	1486.35
875.9359	1319.2405	2390.85	1509.85
876.0801	1321.1197	2409.05	1527.1
876.2243	1322.9982	2378.1	1492.1
876.3685	1324.876	2331.35	1452.85
876.5127	1326.753	2239.7	1361.2
876.6569	1328.6293	2169.95	1287.95
876.801	1330.5048	2079.1	1195.7
876.9452	1332.3796	1972.15	1093.65
877.0893	1334.2537	1929.15	1022.5
877.2335	1336.127	1865.8	985.7
877.3776	1337.9996	1825.4	946.7
877.5217	1339.8714	1798.6	917.15
877.6658	1341.7426	1819.3	896.85
877.8099	1343.6129	1763.9	882.25
877.954	1345.4826	1748.95	869.3
878.0981	1347.3515	1731.95	850.55
878.2422	1349.2196	1710	829
878.3862	1351.087	1705.65	826.2
878.5303	1352.9537	1711	829.55
878.6743	1354.8197	1705.2	825.2
878.8184	1356.6849	1706.35	827.6
878.9624	1358.5493	1720.15	838.05
879.1064	1360.4131	1746.25	866.05
879.2504	1362.276	1773.05	891.35
879.3944	1364.1383	1815.55	936.35
879.5384	1365.9998	1831.65	944.95
879.6823	1367.8606	1823.8	942.55
879.8263	1369.7206	1819.25	936.5
879.9702	1371.5799	1823.95	941.95
880.1142	1373.4384	1815.15	934.55
880.2581	1375.2962	1786.75	904.3
880.402	1377.1533	1741.2	859.5
880.5459	1379.0096	1699.95	820.15
880.6898	1380.8652	1673.85	792.4
880.8337	1382.7201	1639.55	760.15
880.9776	1384.5742	1609.45	728.75
881.1215	1386.4275	1591.1	710.35
881.2653	1388.2802	1570.95	690.35
881.4092	1390.132	1562.6	681.45
881.553	1391.9832	1552.85	670.1
881.6968	1393.8336	1545.35	663.6
881.8406	1395.6832	1541.35	658.1
881.9844	1397.5322	1532.95	651.55
882.1282	1399.3803	1533.1	645.85
882.272	1401.2278	1519.9	637.2
882.4158	1403.0745	1507.25	625
882.5595	1404.9204	1493.75	613.7
882.7033	1406.7656	1496	614.15
882.847	1408.6101	1496.35	614.9
882.9908	1410.4538	1483.95	603.35
883.1345	1412.2968	1478.5	597.2
883.2782	1414.139	1484.5	602.25
883.4219	1415.9805	1490.8	610.85
883.5656	1417.8213	1502	610.8
883.7092	1419.6613	1512.55	632.35
883.8529	1421.5006	1538.3	656.4
883.9965	1423.3391	1571.35	689.65
884.1402	1425.1769	1629.5	746.55
884.2838	1427.0139	1693.95	810.5
884.4274	1428.8502	1769.2	882.85
884.571	1430.6858	1835.65	953.7
884.7146	1432.5206	1862.3	979.05
884.8582	1434.3547	1870.05	985.45
885.0018	1436.188	1853.05	971.1
885.1453	1438.0206	1839.3	955.65
885.2889	1439.8524	1825.85	941.8
885.4324	1441.6835	1827.15	943.55
885.5759	1443.5139	1820.8	935.1
885.7194	1445.3435	1822.7	940.55
885.8629	1447.1724	1811.15	929.95
886.0064	1449.0005	1821.5	938.5
886.1499	1450.8279	1811.15	926.55
886.2933	1452.6545	1814.5	931.85
886.4368	1454.4804	1812.45	930.05
886.5802	1456.3056	1797.3	906.4
886.7237	1458.13	1784.8	903.95
886.8671	1459.9536	1766.85	883.55
887.0105	1461.7766	1733.2	851.15
887.1539	1463.5987	1694.15	809.3
887.2972	1465.4202	1651.65	770.05
887.4406	1467.2409	1615.75	733.15
887.584	1469.0608	1591.15	709.6
887.7273	1470.88	1553.4	668.7
887.8706	1472.6984	1534.15	652.4
888.0139	1474.5161	1509.9	624.25
888.1572	1476.3331	1495.95	616.1
888.3005	1478.1493	1486.05	601.55
888.4438	1479.9648	1474.2	593.45
888.5871	1481.7795	1479.8	595.95
888.7303	1483.5935	1484.35	602.05
888.8736	1485.4067	1481.05	598
889.0168	1487.2192	1483.8	601.9
889.16	1489.031	1483.4	598.2
889.3032	1490.842	1480.35	597.25
889.4464	1492.6522	1479.3	597.05
889.5896	1494.4618	1478.3	594.45
889.7327	1496.2705	1470.75	587.8
889.8759	1498.0785	1468.8	583.35
890.019	1499.8858	1460.35	575.6
890.1622	1501.6924	1455.3	572.85
890.3053	1503.4981	1456.4	576.45
890.4484	1505.3032	1458.1	574.85
890.5914	1507.1075	1447.2	563.65
890.7345	1508.911	1440.55	558.55
890.8776	1510.7138	1432.1	548.95
891.0206	1512.5159	1428.95	545.25
891.1637	1514.3172	1419.3	536.35
891.3067	1516.1178	1414.3	531.2
891.4497	1517.9176	1409.1	521.35
891.5927	1519.7166	1402.9	520.3
891.7357	1521.515	1412.2	521.65
891.8786	1523.3126	1390.8	507.8
892.0216	1525.1094	1396.15	509.85
892.1645	1526.9055	1385.05	502.6
892.3074	1528.7008	1383	499.75
892.4503	1530.4954	1375.5	485.1
892.5932	1532.2893	1371.35	490.85
892.7361	1534.0824	1372.4	484.25
892.879	1535.8747	1371.8	488.95
893.0218	1537.6663	1371.65	487.6
893.1647	1539.4572	1373.5	486
893.3075	1541.2473	1369.95	486.3
893.4503	1543.0367	1365.15	482.1
893.5931	1544.8253	1369.75	482.9
893.7359	1546.6132	1369	483.45
893.8787	1548.4003	1382.95	490.35
894.0214	1550.1867	1382.2	488.35
894.1642	1551.9723	1397.95	508.2
894.3069	1553.7572	1394	510.05
894.4496	1555.5414	1404.25	519.6
894.5923	1557.3247	1434.05	547.7
894.735	1559.1074	1470.85	586.25
894.8777	1560.8893	1489.15	606.5
895.0204	1562.6705	1535.95	653.3
895.163	1564.4509	1564.5	681.95
895.3056	1566.2305	1575.3	690.9
895.4482	1568.0094	1580.25	696.9
895.5908	1569.7876	1579.95	696.45
895.7334	1571.565	1572.9	688.8
895.876	1573.3417	1571	688.25
896.0186	1575.1176	1588.65	705.1
896.1611	1576.8928	1588.95	705.05
896.3036	1578.6672	1609.4	724.8
896.4461	1580.4409	1637.65	753.7
896.5886	1582.2138	1676.85	790.2
896.7311	1583.986	1710.8	826.7
896.8736	1585.7575	1746.8	864
897.0161	1587.5282	1779.2	894.5
897.1585	1589.2981	1812.7	929.9
897.3009	1591.0673	1822.8	938.05
897.4433	1592.8358	1839.35	955.65
897.5857	1594.6035	1833.95	947.25
897.7281	1596.3704	1813.65	929.9
897.8705	1598.1366	1803.5	918.15
898.0128	1599.9021	1771.7	886.2
898.1551	1601.6668	1744.25	856.95
898.2975	1603.4308	1720.85	837.05
898.4398	1605.194	1716.1	828.9
898.5821	1606.9564	1730.15	846.2
898.7243	1608.7182	1773.3	885
898.8666	1610.4791	1838.6	954.6
899.0088	1612.2394	1941.9	1057.55
899.1511	1613.9988	2044.25	1157.5
899.2933	1615.7576	2136.45	1252.45
899.4355	1617.5156	2196.2	1308.05
899.5776	1619.2728	2177.2	1292
899.7198	1621.0293	2123.05	1239.05
899.862	1622.785	2020.8	1132.55
900.0041	1624.54	1897.95	1010.35
900.1462	1626.2942	1776.15	890.05
900.2883	1628.0477	1685.3	797.3
900.4304	1629.8005	1597.55	708.3
900.5725	1631.5525	1530.7	645.8
900.7145	1633.3037	1475.75	591
900.8566	1635.0542	1428.45	544.35
900.9986	1636.804	1401.15	516.9
901.1406	1638.553	1436.25	489.4
901.2826	1640.3013	1353	469.7
901.4245	1642.0488	1333.15	447.75
901.5665	1643.7955	1324.2	441
901.7085	1645.5416	1313.6	428.75
901.8504	1647.2868	1305.55	421.9
901.9923	1649.0313	1296.45	411.2
902.1342	1650.7751	1296.35	405.75
902.2761	1652.5181	1289.45	404.7
902.4179	1654.2604	1282.55	397.3
902.5598	1656.0019	1281.15	397.75
902.7016	1657.7427	1292.1	407.3
902.8434	1659.4828	1302	417.6
902.9852	1661.222	1330.35	446.85
903.127	1662.9606	1368.7	486.05
903.2687	1664.6984	1403.75	519.4
903.4105	1666.4354	1424.5	539.05
903.5522	1668.1717	1422.05	536.95
903.6939	1669.9072	1381.55	497
903.8356	1671.642	1350.35	465
903.9773	1673.3761	1304.2	419.15
904.119	1675.1094	1267.05	383.35
904.2606	1676.8419	1253.75	368.85
904.4022	1678.5737	1229	343.3
904.5439	1680.3048	1222.3	337.5
904.6855	1682.0351	1221.75	337
904.827	1683.7646	1214.2	325.75
904.9686	1685.4934	1207.4	322.9
905.1101	1687.2215	1202.1	316.6
905.2517	1688.9488	1198.85	312.8
905.3932	1690.6754	1189.95	306.05
905.5347	1692.4012	1190	304.9
905.6761	1694.1263	1185.1	300.7
905.8176	1695.8506	1191.25	306.45
905.9591	1697.5742	1182.65	297.75
906.1005	1699.297	1179.25	294.45
906.2419	1701.0191	1177.6	291.1
906.3833	1702.7404	1176.75	289.3
906.5246	1704.461	1176.1	288.95
906.666	1706.1808	1174.75	288.45
906.8073	1707.8999	1171.35	285.05
906.9487	1709.6182	1169.9	283.7
907.09	1711.3358	1167.1	282.75
907.2313	1713.0527	1166.5	282.65
907.3725	1714.7688	1168.9	276.65
907.5138	1716.4841	1163.65	277.15
907.655	1718.1987	1167.95	276.35
907.7962	1719.9126	1158.65	274.7
907.9374	1721.6257	1164.5	275.9
908.0786	1723.338	1157.7	271.15
908.2198	1725.0496	1155.85	271.1
908.3609	1726.7605	1158.15	272.3
908.502	1728.4706	1155.7	267.55
908.6431	1730.18	1153.3	264.35
908.7842	1731.8886	1153.45	268.6
908.9253	1733.5964	1169.6	263.3
909.0664	1735.3036	1156.95	269.2
909.2074	1737.0099	1155.05	270.05
909.3484	1738.7156	1145	260.7
909.4894	1740.4204	1151.5	263.45
909.6304	1742.1246	1150.45	263.15
909.7714	1743.8279	1147.2	263.8
909.9123	1745.5306	1144.95	258.9
910.0532	1747.2325	1149.15	263
910.1941	1748.9336	1143.1	256.6
910.335	1750.634	1145.35	258.95
910.4759	1752.3336	1141.7	255.55
910.6168	1754.0325	1140.85	255.1
910.7576	1755.7307	1138.8	253
910.8984	1757.4281	1137.75	252.1
911.0392	1759.1247	1149.85	254.95
911.18	1760.8206	1147	255.55
911.3208	1762.5158	1142.9	254.1
911.4615	1764.2102	1139	256.3
911.6022	1765.9039	1137.55	253.75
911.7429	1767.5968	1142.35	259.05
911.8836	1769.289	1137.35	251.35
912.0243	1770.9804	1136.45	249.95
912.1649	1772.6711	1136.75	251.15
912.3056	1774.361	1136.15	250.15
912.4462	1776.0502	1133.15	245.95
912.5868	1777.7386	1137.15	249.3
912.7274	1779.4263	1130.15	242.2
912.8679	1781.1132	1135.45	251.15
913.0084	1782.7994	1140.2	250.45
913.149	1784.4849	1126.8	242.35
913.2895	1786.1696	1136.1	245.55
913.4299	1787.8535	1129.65	244.55
913.5704	1789.5367	1129.15	242.6
913.7108	1791.2192	1128.15	243.5
913.8513	1792.9009	1135.05	235
913.9917	1794.5818	1127.75	241.25
914.132	1796.2621	1126.1	243.4
914.2724	1797.9415	1126.05	240.15
914.4128	1799.6202	1121.4	237
914.5531	1801.2982	1114.7	227.85
914.6934	1802.9755	1119.95	233.1
914.8337	1804.6519	1121	236.75
914.9739	1806.3277	1123.15	239.9
915.1142	1808.0027	1121.75	236.75
915.2544	1809.6769	1121.35	235.05
915.3946	1811.3504	1120.65	233.05
915.5348	1813.0231	1117.8	232.3
915.675	1814.6951	1116.7	230.4
915.8151	1816.3664	1120	232.3
915.9553	1818.0369	1118.55	233.85
916.0954	1819.7067	1116.95	231.7
916.2355	1821.3757	1115.15	227.95
916.3755	1823.044	1115.35	231.25
916.5156	1824.7115	1111.8	223.6
916.6556	1826.3783	1112.7	228.95
916.7956	1828.0443	1105.75	220.95
916.9356	1829.7096	1110	222.75
917.0756	1831.3741	1115.9	226.45
917.2155	1833.0379	1108.85	224.25
917.3555	1834.701	1113.45	224.8
917.4954	1836.3633	1109.3	223.15
917.6353	1838.0248	1111.45	223.05
917.7751	1839.6856	1112.4	227.8
917.915	1841.3457	1108.7	223.6
918.0548	1843.005	1112.1	226.4
918.1946	1844.6636	1101.65	215.6
918.3344	1846.3214	1106.85	219.95
918.4742	1847.9785	1105.55	218.7
918.6139	1849.6349	1108.6	222.25
918.7537	1851.2904	1114.35	220.05
918.8934	1852.9453	1105	219.65
919.0331	1854.5994	1107	219.45
919.1727	1856.2528	1112.55	224.6
919.3124	1857.9054	1106.05	221
919.452	1859.5572	1104.8	219.2
919.5916	1861.2083	1104.7	219.6
919.7312	1862.8587	1103.55	218.75
919.8708	1864.5084	1100.55	213.3
920.0103	1866.1572	1098.25	212.8
920.1498	1867.8054	1106.4	221.85
920.2893	1869.4528	1096.9	212.45
920.4288	1871.0994	1103.2	218.35
920.5683	1872.7453	1104.6	217.7
920.7077	1874.3905	1106.6	215.7
920.8471	1876.0349	1098.55	213.7
920.9865	1877.6786	1096.55	208.9
921.1259	1879.3215	1096.85	212.6
921.2653	1880.9637	1098.65	210.85
921.4046	1882.6051	1098.2	211
921.5439	1884.2458	1093.85	205.05
921.6832	1885.8858	1092.65	207.25
921.8225	1887.525	1093.35	206
921.9617	1889.1634	1093.35	209.6
922.101	1890.8011	1093.7	209.45
922.2402	1892.4381	1094.1	209.3
922.3794	1894.0743	1095.3	209.75
922.5185	1895.7098	1086.7	202.1
922.6577	1897.3446	1086.6	199.7
922.7968	1898.9786	1098.95	208.5
922.9359	1900.6118	1094.6	209.1
923.075	1902.2443	1095	207
923.214	1903.8761	1089.2	202.35
923.3531	1905.5071	1090.05	203.5
923.4921	1907.1374	1084.95	198.6
923.6311	1908.7669	1088.2	203.95
923.77	1910.3957	1089.1	203.5
923.909	1912.0237	1084.85	196.7
924.0479	1913.651	1085	197.65
924.1868	1915.2776	1083.35	199.45
924.3257	1916.9034	1084.6	201
924.4646	1918.5285	1079.2	193.85
924.6034	1920.1528	1084.95	196.75
924.7422	1921.7764	1082.95	195.8
924.881	1923.3992	1084.9	197.35
925.0198	1925.0213	1078.05	191.45
925.1586	1926.6427	1081.55	196.3
925.2973	1928.2633	1166.8	194.3
925.436	1929.8832	1083.2	196.4
925.5747	1931.5023	1079.95	193.5
925.7134	1933.1207	1078.75	193.4
925.852	1934.7383	1074.2	186.05
925.9906	1936.3552	1076.55	192.1
926.1292	1937.9714	1080.25	192.6
926.2678	1939.5868	1082.05	195.15
926.4064	1941.2015	1078.15	191
926.5449	1942.8154	1072.1	186.9
926.6834	1944.4286	1070.4	185.35
926.8219	1946.041	1101	190.25
926.9604	1947.6528	1077.85	187.25
927.0988	1949.2637	1069	183.45
927.2372	1950.8739	1071.9	185.4
927.3756	1952.4834	1071.8	186.5
927.514	1954.0921	1069.35	183.15
927.6523	1955.7001	1078.7	187.1
927.7907	1957.3074	1067.75	182.05
927.929	1958.9139	1069.25	184.45
928.0673	1960.5197	1071.1	183.35
928.2055	1962.1247	1067	182.55
928.3438	1963.729	1063.8	176.7
928.482	1965.3325	1089.25	178.35
928.6202	1966.9353	1072.1	186.15
928.7584	1968.5374	1065.05	179.15
928.8965	1970.1387	1066.1	180.05
929.0346	1971.7393	1063.5	177.25
929.1727	1973.3392	1064.6	177.6
929.3108	1974.9383	1064.9	179.6
929.4489	1976.5366	1066	179.7
929.5869	1978.1342	1064.6	175.75
929.7249	1979.7311	1063.65	176.95
929.8629	1981.3273	1064.15	177.65
930.0009	1982.9227	1063.85	174.55
930.1388	1984.5173	1063.6	177.05
930.2767	1986.1112	1058.25	173.7
930.4146	1987.7044	1057.1	171.45
930.5525	1989.2968	1060.65	172.55
930.6904	1990.8885	1064.1	171.5
930.8282	1992.4795	1064.95	178.35
930.966	1994.0697	1056.05	169.05
931.1038	1995.6592	1060.2	175.65
931.2415	1997.2479	1058.05	171.35
931.3793	1998.8359	1056.25	170.65
931.517	2000.4232	1055.75	169.2
931.6547	2002.0097	1054.5	167.5
931.7923	2003.5955	1058.6	171
931.93	2005.1805	1056.75	168.4
932.0676	2006.7648	1054.45	168.5
932.2052	2008.3484	1057.3	168.75
932.3427	2009.9312	1055.05	167.3
932.4803	2011.5133	1057.6	171.1
932.6178	2013.0946	1053.85	168.6
932.7553	2014.6752	1052.2	167.1
932.8928	2016.2551	1052.65	166.5
933.0302	2017.8342	1053.9	166.8
933.1676	2019.4126	1054.6	169.4
933.305	2020.9902	1051.1	165.3
933.4424	2022.5672	1053.7	166.75
933.5798	2024.1433	1057.5	165.5
933.7171	2025.7188	1057.15	172.6
933.8544	2027.2935	1049.05	161.55
933.9917	2028.8674	1050.55	163.95
934.129	2030.4406	1050.1	162.7
934.2662	2032.0131	1047.55	161.65
934.4034	2033.5849	1052.35	160.5
934.5406	2035.1559	1050.85	165.95
934.6778	2036.7261	1046.65	160.5
934.8149	2038.2957	1050.45	165.95
934.952	2039.8645	1046.1	160
935.0891	2041.4325	1051.5	164.15
935.2262	2042.9998	1046.15	161.35
935.3632	2044.5664	1053.25	164.7
935.5002	2046.1323	1045.6	160.7
935.6372	2047.6974	1051.3	164.4
935.7742	2049.2617	1044.15	158.65
935.9111	2050.8254	1081.6	161.1
936.048	2052.3883	1052.15	163.9
936.1849	2053.9504	1045.65	158.95
936.3218	2055.5118	1042.65	154.95
936.4586	2057.0725	1052.4	160.75
936.5955	2058.6325	1049.45	161.15
936.7323	2060.1917	1045.25	160.45
936.869	2061.7502	1052.65	165.45
937.0058	2063.3079	1047.6	161.95
937.1425	2064.8649	1050.25	159.2
937.2792	2066.4212	1045	157.9
937.4159	2067.9767	1042.75	157.45
937.5525	2069.5315	1042.8	155.5
937.6891	2071.0856	1042.2	155.75
937.8257	2072.6389	1042.8	155.35
937.9623	2074.1915	1040.75	156.95
938.0989	2075.7433	1040.7	150.7
938.2354	2077.2945	1042.05	157.4
938.3719	2078.8448	1038.1	153.2
938.5084	2080.3945	1040.4	155.15
938.6448	2081.9434	1038.25	153.4
938.7812	2083.4916	1043.25	155.55
938.9176	2085.039	1042.65	154.6
939.054	2086.5857	1042.05	154.15
939.1903	2088.1317	1039	155.15
939.3267	2089.677	1039.4	150.95
939.463	2091.2215	1040.9	157.35
939.5992	2092.7652	1036.2	148.45
939.7355	2094.3083	1041.3	153.7
939.8717	2095.8506	1036.35	151.15
940.0079	2097.3921	1040.85	155.15
940.1441	2098.933	1035.95	151
940.2802	2100.4731	1036.9	150.5
940.4163	2102.0124	1041.3	146.85
940.5524	2103.5511	1032.75	147.75
940.6885	2105.089	1035.2	148.9
940.8245	2106.6261	1041.05	155.2
940.9606	2108.1626	1037.6	151.15
941.0965	2109.6983	1069.65	153.4
941.2325	2111.2332	1040.25	154.1
941.3684	2112.7675	1037.15	151.65
941.5044	2114.301	1037.35	151.95
941.6403	2115.8337	1035.55	149.55
941.7761	2117.3657	1035.05	148.4
941.912	2118.897	1039.95	152.3
942.0478	2120.4276	1045.25	153.2
942.1835	2121.9575	1036.15	150.7
942.3193	2123.4866	1051.3	151.9
942.455	2125.0149	1039.05	150.9
942.5907	2126.5426	1035.55	151.25
942.7264	2128.0695	1041.85	151.25
942.8621	2129.5956	1031.65	145.85
942.9977	2131.1211	1036.95	143.8
943.1333	2132.6458	1030.8	144.35
943.2689	2134.1698	1033.45	147.3
943.4044	2135.693	1034.6	144.8
943.54	2137.2155	1035.3	146.9
943.6755	2138.7373	1031.8	146.4
943.8109	2140.2584	1028.35	142
943.9464	2141.7787	1035.75	145.3
944.0818	2143.2983	1034.6	148.4
944.2172	2144.8171	1028.5	144.2
944.3526	2146.3353	1035.35	146.25
944.4879	2147.8527	1032.25	146.05
944.6232	2149.3693	1032.55	146.7
944.7585	2150.8853	1025.5	139.2
944.8938	2152.4005	1028.35	141.85
945.029	2153.9149	1026.55	141.45
945.1642	2155.4287	1026.95	139.95
945.2994	2156.9417	1034.6	147.55
945.4346	2158.454	1029.65	140.8
945.5697	2159.9655	1031.25	145.2
945.7048	2161.4764	1027.95	139.85
945.8399	2162.9865	1030.6	145.4
945.9749	2164.4958	1027.55	140.5
946.1099	2166.0045	1030.05	140.65
946.2449	2167.5124	1026.65	140.5
946.3799	2169.0195	1031.25	145
946.5148	2170.526	1026.95	141.45
946.6498	2172.0317	1025.65	140.95
946.7846	2173.5367	1032.35	146.15
946.9195	2175.0409	1025.45	138.75
947.0543	2176.5445	1023.6	137.85
947.1891	2178.0473	1029.95	142.05
947.3239	2179.5494	1031.3	141.15
947.4587	2181.0507	1024.35	138
947.5934	2182.5513	1026.9	140.7
947.7281	2184.0512	1031.15	144.15
947.8628	2185.5504	1023.05	136.1
947.9974	2187.0488	1022.95	136.85
948.132	2188.5465	1023.05	137.25
948.2666	2190.0435	1021.95	135.45
948.4012	2191.5397	1024.25	139.4
948.5357	2193.0353	1020.55	134.4
948.6702	2194.5301	1019.85	131.65
948.8047	2196.0241	1024.7	138.85
948.9392	2197.5175	1017.65	132.9
949.0736	2199.0101	1023.15	131.05
949.208	2200.502	1017.2	130.9
949.3424	2201.9931	1020.85	134.3
949.4767	2203.4835	1023.45	135.1
949.611	2204.9733	1025.15	134.05
949.7453	2206.4622	1020.55	134.25
949.8796	2207.9505	1024.3	132.75
950.0138	2209.438	1014.4	130.85
950.148	2210.9248	1019.2	132.25
950.2822	2212.4109	1017	133.85
950.4164	2213.8962	1019.1	128.2
950.5505	2215.3809	1018.8	130.85
950.6846	2216.8648	1015.1	128
950.8186	2218.3479	1022.8	134.05
950.9527	2219.8304	1016.55	126
951.0867	2221.3121	1018.65	130.2
951.2207	2222.7931	1015.15	130
951.3546	2224.2733	1010.4	123.95
951.4886	2225.7529	1015.75	129.8
951.6225	2227.2317	1013.7	124.2
951.7563	2228.7098	1015.3	129.35
951.8902	2230.1872	1015.3	128.1
952.024	2231.6638	1015.95	129.5
952.1578	2233.1397	1018.4	127.75
952.2916	2234.6149	1015.25	128.55
952.4253	2236.0894	1013.65	124.4
952.559	2237.5632	1022.1	126.2
952.6927	2239.0362	1011.6	126.05
952.8263	2240.5085	1013.9	128
952.9599	2241.9801	1008.35	121.4
953.0935	2243.4509	1005.65	120.5
953.2271	2244.921	1008.5	123.3
953.3606	2246.3904	1009.05	118.75
953.4941	2247.8591	1008.1	121.55
953.6276	2249.3271	1008.3	123.25
953.7611	2250.7943	1007.2	121.9
953.8945	2252.2608	1012	125.85
954.0279	2253.7266	1008.7	123
954.1612	2255.1917	1007.1	122.25
954.2946	2256.656	1009.35	124.35
954.4279	2258.1197	1006.35	121.25
954.5612	2259.5826	1009.55	120.9
954.6944	2261.0447	1010.3	122.7
954.8276	2262.5062	1004.3	114.85
954.9608	2263.9669	1007.45	118.55
955.094	2265.4269	1005.45	118.05
955.2271	2266.8862	1006.35	120.7
955.3602	2268.3448	1008.3	122.05
955.4933	2269.8026	1007.35	120.65
955.6264	2271.2598	1005.95	119.25
955.7594	2272.7162	1003.05	118.25
955.8924	2274.1719	1004.1	118.4
956.0253	2275.6268	1005.05	120.2
956.1583	2277.0811	1004.5	119.25
956.2912	2278.5346	1003.25	116.75
956.4241	2279.9874	1001.5	116.15
956.5569	2281.4395	999.45	114.4
956.6897	2282.8908	1006.05	115.6
956.8225	2284.3414	1004.15	115.1
956.9553	2285.7914	1002.45	116.25
957.088	2287.2406	1002.25	113.3
957.2207	2288.689	1001.45	117.9
957.3534	2290.1368	1001.55	113.6
957.486	2291.5838	1001.35	114.9
957.6186	2293.0302	1001.5	113.8
957.7512	2294.4758	1002.25	116
957.8838	2295.9206	999.25	113.05
958.0163	2297.3648	998.9	113
958.1488	2298.8082	1004.7	118.7
958.2813	2300.251	997.5	110.65
958.4137	2301.693	1005.55	116.55
958.5461	2303.1343	1002.45	116.05
958.6785	2304.5748	998.85	111.5
958.8108	2306.0147	999.35	112.2
958.9432	2307.4538	1000.55	111
959.0754	2308.8922	995.15	110.35
959.2077	2310.3299	999.45	113.05
959.3399	2311.7669	998.3	114.15
959.4721	2313.2031	997.45	109.9
959.6043	2314.6387	994.8	107.5
959.7365	2316.0735	996.85	111.8
959.8686	2317.5076	997.45	109.65
960.0006	2318.941	995.6	109.25
960.1327	2320.3737	999	114.75
960.2647	2321.8056	995.55	108
960.3967	2323.2369	1004.75	118.9
960.5287	2324.6674	998.65	111.25
960.6606	2326.0972	1005.4	119.65
960.7925	2327.5263	999	112.45
960.9244	2328.9547	1001.05	114.15
961.0562	2330.3823	1005.4	119.9
961.1881	2331.8092	1003.3	115.75
961.3198	2333.2355	995.75	109.8
961.4516	2334.661	990.55	102.65
961.5833	2336.0858	995.05	106.25
961.715	2337.5098	994.6	109.15
961.8467	2338.9332	991	104.65
961.9783	2340.3558	992.6	103.55
962.1099	2341.7778	993.6	105.8
962.2415	2343.199	995.65	107.3
962.373	2344.6195	988.9	100.95
962.5045	2346.0393	988.55	101.1
962.636	2347.4583	990.65	104.35
962.7675	2348.8767	993.25	106.45
962.8989	2350.2943	993.55	106.55
963.0303	2351.7113	993.65	106.15
963.1617	2353.1275	988.35	102.75
963.293	2354.543	1016.9	107.05
963.4243	2355.9578	991.05	103.35
963.5556	2357.3718	990.9	105.2
963.6868	2358.7852	989.5	100.2
963.818	2360.1978	994.7	107.85
963.9492	2361.6098	988.9	104.25
964.0803	2363.021	990.25	101
964.2114	2364.4315	989.9	101.85
964.3425	2365.8413	987.75	99.55
964.4736	2367.2504	989.15	102.6
964.6046	2368.6587	985.95	97.6
964.7356	2370.0664	985.7	98.3
964.8666	2371.4733	988.3	102
964.9975	2372.8795	984.95	101.45
965.1284	2374.285	985.65	96.85
965.2593	2375.6899	984.75	98.7
965.3901	2377.0939	984.35	98.2
965.5209	2378.4973	984.4	99.45
965.6517	2379.9	988.65	99.45
965.7825	2381.3019	983.5	97.3
965.9132	2382.7032	984.7	97.7
966.0439	2384.1037	983.1	98.8
966.1745	2385.5035	985.9	98.95
966.3051	2386.9027	983.1	95.55
966.4357	2388.3011	987	96.2
966.5663	2389.6987	982.3	95.45
966.6968	2391.0957	981	96.5
966.8273	2392.492	981.1	95.8
966.9578	2393.8876	981.45	93.1
967.0882	2395.2824	982.05	93.15
967.2186	2396.6765	978.15	94
967.349	2398.07	978.95	92.15
967.4793	2399.4627	980.45	92.15
967.6097	2400.8547	980.95	93
967.7399	2402.246	987.8	96
967.8702	2403.6366	980.75	93.85
968.0004	2405.0265	982.35	96.7
968.1306	2406.4156	987.05	97.3
968.2607	2407.8041	980.1	90.1
968.3909	2409.1918	982.1	93.55
968.521	2410.5789	977.25	90.1
968.651	2411.9652	983.15	94.65
968.781	2413.3508	978.7	91.2
968.911	2414.7358	978.25	90.55
969.041	2416.12	978.65	91.4
969.1709	2417.5035	976.9	89.65
969.3008	2418.8863	977.7	90.4
969.4307	2420.2684	977.75	92.25
969.5606	2421.6497	977.9	92.35
969.6904	2423.0304	973.45	87.5
969.8201	2424.4104	976.6	89.6
969.9499	2425.7896	982.45	89
970.0796	2427.1682	975.05	89.7
970.2093	2428.546	976.1	88.4
970.3389	2429.9232	975.65	87.25
970.4685	2431.2996	971	85.1
970.5981	2432.6753	972.55	86.45
970.7277	2434.0503	973.95	85.35
970.8572	2435.4246	974.5	88.15
970.9867	2436.7982	975.7	87.5
971.1161	2438.1711	969.75	84.3
971.2456	2439.5433	975.55	87.45
971.375	2440.9148	977.5	86.6
971.5043	2442.2856	972.15	85.25
971.6336	2443.6557	974.5	86.8
971.7629	2445.025	970.15	83.45
971.8922	2446.3937	974.65	88.7
972.0214	2447.7617	972.4	84.6
972.1506	2449.1289	973.9	85.65
972.2798	2450.4955	975.4	84.25
972.4089	2451.8613	971.55	87.1
972.538	2453.2265	970.15	85.75
972.6671	2454.5909	971.15	84.95
972.7961	2455.9546	967.6	81.95
972.9251	2457.3177	968	81.2
973.0541	2458.68	970.7	81.1
973.1831	2460.0416	971.45	85.75
973.312	2461.4025	972.15	83.75
973.4408	2462.7627	979.6	81.75
973.5697	2464.1222	970.7	85
973.6985	2465.4811	971.1	82.8
973.8273	2466.8392	968.15	83.1
973.956	2468.1966	969.3	81.35
974.0847	2469.5533	972.8	85.25
974.2134	2470.9093	968.8	80.75
974.3421	2472.2645	969.1	82.8
974.4707	2473.6191	969.95	83.8
974.5993	2474.973	968.6	82.55
974.7278	2476.3262	968.55	82.5
974.8563	2477.6787	965.15	80.4
974.9848	2479.0305	970.6	82.75
975.1132	2480.3816	969.95	81.65
975.2417	2481.7319	967	81
975.37	2483.0816	969.2	80
975.4984	2484.4306	969.6	81.8
975.6267	2485.7789	965.3	79.15
975.755	2487.1264	968.9	80.75
975.8833	2488.4733	963.05	76.85
976.0115	2489.8195	984.65	81.3
976.1397	2491.165	966.75	75.6
976.2678	2492.5097	968.25	79.5
976.3959	2493.8538	968	83.35
976.524	2495.1972	963.55	77.15
976.6521	2496.5398	963.05	75.9
976.7801	2497.8818	965.45	77.15
976.9081	2499.2231	964.1	76.3
977.036	2500.5637	967.8	81.05
977.164	2501.9035	965.15	76.4
977.2918	2503.2427	966.85	77.4
977.4197	2504.5812	963	77.9
977.5475	2505.919	964.2	75.3
977.6753	2507.256	964.8	80
977.8031	2508.5924	961	74.55
977.9308	2509.9281	967.65	75
978.0585	2511.2631	960.55	73.65
978.1861	2512.5974	962.5	76.75
978.3137	2513.9309	963.3	76.15
978.4413	2515.2638	991.1	76.25
978.5689	2516.596	960.85	73.6
978.6964	2517.9275	962.15	74.2
978.8239	2519.2583	962.3	74.2
978.9513	2520.5884	964.75	76.9
979.0788	2521.9178	961.5	72.55
979.2062	2523.2465	962.5	75.55
979.3335	2524.5745	961.45	75.35
979.4608	2525.9018	959.1	72.6
979.5881	2527.2284	959.15	73.2
979.7154	2528.5543	955.75	72.25
979.8426	2529.8796	955.55	68.9
979.9698	2531.2041	957.3	69.5
980.0969	2532.5279	956.5	69.8
980.224	2533.851	958.7	71.4
980.3511	2535.1735	958.1	72.05
980.4781	2536.4952	959.2	70.1
980.6052	2537.8163	958.2	69.6
980.7321	2539.1366	956.05	70.9
980.8591	2540.4562	959	70.7
980.986	2541.7752	954.5	68.7
981.1129	2543.0935	958	70.3
981.2397	2544.411	958.6	71.7
981.3665	2545.7279	957.9	71.9
981.4933	2547.0441	955.95	69.85
981.62	2548.3596	959.75	70.6
981.7467	2549.6744	958.65	71.5
981.8734	2550.9885	957.6	70.85
982.0001	2552.3019	954.5	69.25
982.1267	2553.6146	955.3	67.75
982.2532	2554.9266	956.9	70.4
982.3798	2556.2379	955.5	66.15
982.5063	2557.5485	952.35	65.1
982.6327	2558.8585	961.9	68.15
982.7592	2560.1677	958.2	67.55
982.8856	2561.4762	954.45	68.3
983.0119	2562.7841	956.1	67.5
983.1383	2564.0913	955.95	70.55
983.2646	2565.3977	952.3	67.05
983.3908	2566.7035	955	68.55
983.517	2568.0086	955.95	68.65
983.6432	2569.313	955.6	67.35
983.7694	2570.6167	953.6	64.35
983.8955	2571.9197	950.15	63.6
984.0216	2573.222	957.6	68.45
984.1476	2574.5236	956	70.25
984.2737	2575.8246	953.1	63.45
984.3996	2577.1248	953.5	65.4
984.5256	2578.4244	950.15	63.8
984.6515	2579.7232	957.4	71.15
984.7774	2581.0214	982.95	66.35
984.9032	2582.3189	954.95	69.05
985.029	2583.6157	958.25	67.2
985.1548	2584.9118	954.2	66.6
985.2806	2586.2072	952.1	66.85
985.4063	2587.5019	952.65	67.3
985.5319	2588.7959	953.7	66.6
985.6576	2590.0893	953.5	63.7
985.7832	2591.3819	949.95	62.9
985.9087	2592.6739	950.85	66
986.0343	2593.9652	956	67.75
986.1597	2595.2557	952.1	66.8
986.2852	2596.5456	954.55	64.9
986.4106	2597.8348	952.35	65.6
986.536	2599.1234	954.15	67.45
986.6614	2600.4112	952.35	67
986.7867	2601.6983	955.9	68.25
986.912	2602.9848	955.15	69.55
987.0372	2604.2705	962.35	69.9
987.1624	2605.5556	953.95	67
987.2876	2606.84	954.55	67.95
987.4128	2608.1237	955.15	67.3
987.5379	2609.4067	950.75	62.95
987.6629	2610.689	958.4	62.75
987.788	2611.9707	953.05	63.2
987.913	2613.2516	957.7	64.25
988.0379	2614.5319	950.85	63.85
988.1629	2615.8115	952.1	64.45
988.2878	2617.0903	951.6	65.85
988.4126	2618.3685	949.3	60.95
988.5375	2619.6461	951.25	64.2
988.6622	2620.9229	951.6	65.95
988.787	2622.199	951.35	64.05
988.9117	2623.4745	949.7	62.95
989.0364	2624.7493	950.8	65.05
989.161	2626.0234	947.25	61.5
989.2857	2627.2968	946.85	60.3
989.4102	2628.5695	947.5	59.45
989.5348	2629.8415	950.4	63.95
989.6593	2631.1128	948.55	60.3
989.7837	2632.3835	949.6	65.2
989.9082	2633.6535	948.05	62.4
990.0326	2634.9228	947.4	60.4
990.1569	2636.1914	948.95	60.45
990.2812	2637.4593	953.6	62
990.4055	2638.7265	948.1	58.45
990.5298	2639.9931	947.8	61.45
990.654	2641.259	946.1	59.7
990.7782	2642.5242	948.2	61.9
990.9023	2643.7887	947.4	61.15
991.0264	2645.0525	946.05	60.8
991.1505	2646.3156	945.65	56.9
991.2745	2647.5781	945.65	59.25
991.3985	2648.8398	948.2	60.95
991.5225	2650.1009	982.45	57.85
991.6464	2651.3613	945.55	59.95
991.7703	2652.6211	944.9	60.9
991.8942	2653.8801	944.95	61.05
992.018	2655.1385	945.1	55.7
992.1418	2656.3961	941.8	54.5
992.2655	2657.6531	943.75	56.95
992.3892	2658.9094	943.45	54.65
992.5129	2660.1651	942.55	54.95
992.6366	2661.42	942.5	55.55
992.7602	2662.6743	945.85	58.75
992.8837	2663.9279	944.4	59.3
993.0073	2665.1808	943.25	55.85
993.1307	2666.433	945	56.15
993.2542	2667.6846	943.45	57.6
993.3776	2668.9354	950.15	60.3
993.501	2670.1856	944	57
993.6244	2671.4351	944.35	57.85
993.7477	2672.6839	948.65	60.1
993.8709	2673.9321	944.4	58.5
993.9942	2675.1795	945.15	57.85
994.1174	2676.4263	945.75	60.05
994.2405	2677.6724	946.8	59.8
994.3637	2678.9179	946.2	60
994.4868	2680.1626	945.05	59.95
994.6098	2681.4067	945.6	59.4
994.7328	2682.6501	944.2	58.25
994.8558	2683.8928	945.3	58.6
994.9788	2685.1348	941.3	57.05
995.1017	2686.3761	940.3	53.1
995.2245	2687.6168	943.8	57.65
995.3474	2688.8568	941.85	56.1
995.4702	2690.0961	940.55	55.4
995.5929	2691.3348	938.2	50.4
995.7156	2692.5727	937.7	52
995.8383	2693.81	937.4	52.45
995.961	2695.0466	939.2	56.65
996.0836	2696.2826	943.15	51.5
996.2062	2697.5178	944.75	56.7
996.3287	2698.7524	941.25	54.8
996.4512	2699.9863	944.55	55.4
996.5737	2701.2195	941.9	55.3
996.6961	2702.452	941.7	52.75
996.8185	2703.6839	940.9	52.65
996.9408	2704.9151	941.25	54.7
997.0631	2706.1456	938.75	52
997.1854	2707.3755	941.05	54.75
997.3077	2708.6046	944.05	56.5
997.4299	2709.8331	946.05	58.05
997.552	2711.0609	942.35	54.8
997.6742	2712.2881	942	54.55
997.7963	2713.5145	946.95	56.65
997.9183	2714.7403	942.4	56.5
998.0403	2715.9654	947.75	59.25
998.1623	2717.1899	959.95	57.85
998.2842	2718.4136	946.6	58.7
998.4062	2719.6367	948.2	62.35
998.528	2720.8591	955.8	63.2
998.6498	2722.0809	948.6	61.8
998.7716	2723.3019	952.5	62.15
998.8934	2724.5223	953.6	65.4
999.0151	2725.7421	949.2	61.55
999.1368	2726.9611	952.55	63.8
999.2584	2728.1795	951.3	60.3
999.38	2729.3972	947	60.3
999.5016	2730.6142	959.1	61.75
999.6231	2731.8306	946	57.75
999.7446	2733.0462	946.1	57.85
999.8661	2734.2612	948.95	57.45
999.9875	2735.4756	945.55	56.6
1000.1089	2736.6892	943.85	57.25
1000.2302	2737.9022	938.55	53.4
1000.3515	2739.1145	938.65	53.15
1000.4728	2740.3262	948.1	52.15
1000.594	2741.5372	936.5	50.4
1000.7152	2742.7475	940	53.4
1000.8363	2743.9571	938.7	52.1
1000.9575	2745.1661	942.75	52.2
1001.0785	2746.3744	938.15	49.2
1001.1996	2747.582	933.7	47.25
1001.3206	2748.7889	935.9	46.85
1001.4415	2749.9952	931.2	45.1
1001.5625	2751.2008	935.5	50
1001.6833	2752.4057	937.8	47.2
1001.8042	2753.61	935.15	49.15
1001.925	2754.8136	935.75	48.05
1002.0458	2756.0165	932.4	44.75
1002.1665	2757.2188	930.05	43.2
1002.2872	2758.4204	930.25	42.7
1002.4078	2759.6213	934.6	46.55
1002.5285	2760.8215	939.4	46.45
1002.649	2762.0211	934.75	44.65
1002.7696	2763.22	937.2	45.6
1002.8901	2764.4182	936.9	49.3
1003.0106	2765.6158	931.6	44.45
1003.131	2766.8127	930.75	43.55
1003.2514	2768.009	930.15	42.55
1003.3717	2769.2045	933.95	46.65
1003.492	2770.3994	931	42.6
1003.6123	2771.5936	931.95	44.6
1003.7325	2772.7872	928.25	41.7
1003.8527	2773.9801	931.4	41.6
1003.9729	2775.1723	947.45	43.35
1004.093	2776.3639	929.75	42.1
1004.2131	2777.5548	928.1	37.1
1004.3331	2778.745	929.85	41.9
1004.4531	2779.9346	927.8	39.25
1004.5731	2781.1235	929.15	41.75
1004.693	2782.3117	929.45	43.35
1004.8129	2783.4992	928.45	39.6
1004.9328	2784.6861	930.3	42.95
1005.0526	2785.8723	931.95	43.45
1005.1723	2787.0579	932.45	45.25
1005.2921	2788.2428	927.55	39.85
1005.4118	2789.427	926.8	39.85
1005.5314	2790.6106	928.3	41.85
1005.651	2791.7935	927.9	39.25
1005.7706	2792.9757	928.6	42.95
1005.8902	2794.1573	929.5	42.75
1006.0097	2795.3382	929.45	43.55
1006.1291	2796.5184	926.85	42.55
1006.2485	2797.698	931.95	43.4
1006.3679	2798.8769	931.05	46.35
1006.4873	2800.0551	930.65	42.65
1006.6066	2801.2327	931.15	40.3
1006.7258	2802.4096	929.8	44.3
1006.8451	2803.5859	934.85	47.1
1006.9642	2804.7615	930.05	42.6
1007.0834	2805.9364	934.25	48.55
1007.2025	2807.1106	934.35	45.15
1007.3216	2808.2842	933.3	46.85
1007.4406	2809.4572	934.6	47.6
1007.5596	2810.6294	937.15	49.15
1007.6785	2811.801	937.5	53.15
1007.7975	2812.972	936.8	50.8
1007.9163	2814.1423	937.85	52.95
1008.0352	2815.3119	941.85	54
1008.154	2816.4808	941.95	56.75
1008.2727	2817.6491	945.9	58.5
1008.3914	2818.8167	947.9	63.05
1008.5101	2819.9837	953.7	63.75
1008.6288	2821.15	959.85	73
1008.7474	2822.3157	962.3	76.55
1008.8659	2823.4807	968.95	81.85
1008.9844	2824.645	974.25	86.65
1009.1029	2825.8086	982.25	95.65
1009.2214	2826.9716	988.55	104.95
1009.3398	2828.134	997	111.15
1009.4581	2829.2957	1006.35	120
1009.5764	2830.4567	1008.05	121.2
1009.6947	2831.617	1016.1	129.35
1009.813	2832.7767	1015.3	128.6
1009.9312	2833.9358	1014.65	127
1010.0493	2835.0941	1017	129.95
1010.1675	2836.2519	1011.9	125.3
1010.2855	2837.4089	1008.3	122.9
1010.4036	2838.5653	1008.8	123.05
1010.5216	2839.7211	998.55	113.5
1010.6396	2840.8761	1000.2	110.6
1010.7575	2842.0306	999.35	113.85
1010.8754	2843.1843	998.5	112.3
1010.9932	2844.3374	996.35	110.7
1011.111	2845.4899	1002	113.7
1011.2288	2846.6417	1001.1	115.2
1011.3465	2847.7928	1004.45	120.25
1011.4642	2848.9433	1005.6	118.6
1011.5818	2850.0931	1005.2	119.15
1011.6995	2851.2422	1008.3	120.55
1011.817	2852.3907	1010.8	123.55
1011.9345	2853.5385	1008.5	118.05
1012.052	2854.6857	1032.8	119.4
1012.1695	2855.8323	1008.35	122.85
1012.2869	2856.9781	1013.6	124.7
1012.4042	2858.1233	1013.2	124.95
1012.5216	2859.2679	1015.25	128.4
1012.6389	2860.4118	1018.55	130.35
1012.7561	2861.555	1032.5	139.9
1012.8733	2862.6976	1025.2	138.1
1012.9905	2863.8395	1028.95	142.25
1013.1076	2864.9808	1031.25	144.25
1013.2247	2866.1214	1032.25	147.35
1013.3417	2867.2614	1039.8	152.55
1013.4587	2868.4007	1038.35	148.9
1013.5757	2869.5393	1038.85	149.5
1013.6926	2870.6773	1041.35	152.05
1013.8095	2871.8146	1042.75	152.6
1013.9263	2872.9513	1046.5	155.65
1014.0431	2874.0874	1044.35	157.15
1014.1599	2875.2227	1048.2	160.75
1014.2766	2876.3574	1049.7	163.7
1014.3933	2877.4915	1054.8	169.65
1014.51	2878.6249	1051.2	164.8
1014.6266	2879.7577	1057.8	171.3
1014.7431	2880.8898	1069.2	171.1
1014.8596	2882.0212	1063.25	176.05
1014.9761	2883.152	1064.25	176.75
1015.0925	2884.2821	1062.55	178.4
1015.2089	2885.4116	1066.45	180.35
1015.3253	2886.5405	1070	184.2
1015.4416	2887.6686	1070.75	181.35
1015.5579	2888.7962	1066.25	181
1015.6741	2889.923	1070.25	183.45
1015.7903	2891.0493	1066.45	183.55
1015.9065	2892.1748	1068.65	182.95
1016.0226	2893.2997	1071.15	182.55
1016.1387	2894.424	1067.05	179.35
1016.2547	2895.5476	1071.4	184.1
1016.3707	2896.6706	1070	184.95
1016.4866	2897.7929	1067.55	180.35
1016.6025	2898.9145	1065.7	180.1
1016.7184	2900.0355	1066.2	179.2
1016.8342	2901.1559	1070.5	182.2
1016.95	2902.2756	1065.55	179.05
1017.0658	2903.3946	1065.4	179.2
1017.1815	2904.513	1069.7	181.05
1017.2971	2905.6308	1063.75	177
1017.4127	2906.7479	1062.85	175.85
1017.5283	2907.8643	1066.95	178.2
1017.6439	2908.9801	1061.2	172.6
1017.7594	2910.0953	1065.7	179.15
1017.8748	2911.2098	1065.2	176.25
1017.9902	2912.3236	1069.1	176.55
1018.1056	2913.4368	1062	174.35
1018.2209	2914.5494	1061.9	172.75
1018.3362	2915.6613	1065.7	174.3
1018.4515	2916.7725	1059.8	170.8
1018.5667	2917.8831	1053.65	166.35
1018.6819	2918.9931	1051.95	163.5
1018.797	2920.1024	1051.2	161.35
1018.9121	2921.211	1049.35	162.9
1019.0271	2922.319	1047.6	159.3
1019.1421	2923.4264	1042.6	155.2
1019.2571	2924.5331	1042.45	158.65
1019.372	2925.6391	1041.2	155.75
1019.4869	2926.7445	1043.8	159.8
1019.6017	2927.8493	1044.4	156.4
1019.7165	2928.9534	1043.15	156.35
1019.8313	2930.0569	1044.05	155.6
1019.946	2931.1597	1045.25	158.3
1020.0606	2932.2619	1043	154.85
1020.1753	2933.3634	1048.75	163.75
1020.2899	2934.4643	1054.65	160.5
1020.4044	2935.5645	1057.95	165.4
1020.5189	2936.6641	1054.65	163.55
1020.6334	2937.763	1051.45	167.65
1020.7478	2938.8613	1053.65	167.3
1020.8622	2939.959	1055.75	163.85
1020.9765	2941.056	1043.55	158.3
1021.0908	2942.1523	1043.9	153.75
1021.2051	2943.248	1034.3	148.6
1021.3193	2944.3431	1031.65	144.65
1021.4334	2945.4375	1020.25	133.7
1021.5476	2946.5313	1015.35	128.25
1021.6617	2947.6244	1010.1	122.5
1021.7757	2948.7169	1001	112.4
1021.8897	2949.8087	995.8	108.25
1022.0037	2950.8999	991.8	105
1022.1176	2951.9904	985.6	97.35
1022.2315	2953.0803	982.15	95.7
1022.3453	2954.1696	976.2	90.5
1022.4591	2955.2582	975.35	89.6
1022.5728	2956.3462	972.25	84.8
1022.6865	2957.4335	974.3	86.75
1022.8002	2958.5202	971.6	80.75
1022.9138	2959.6062	969.85	83.65
1023.0274	2960.6916	970.05	82.35
1023.141	2961.7764	970.95	84.65
1023.2545	2962.8605	969.65	81.1
1023.3679	2963.9439	972	88.5
1023.4813	2965.0267	970.2	84.4
1023.5947	2966.1089	991.15	80.7
1023.708	2967.1905	971.2	84.15
1023.8213	2968.2714	963.45	79.4
1023.9346	2969.3516	965.1	78.1
1024.0478	2970.4312	973.9	78.75
1024.1609	2971.5102	969.65	83.15
1024.274	2972.5885	965.15	79
1024.3871	2973.6662	970.4	79.1
1024.5002	2974.7432	968.3	82
1024.6132	2975.8196	966.15	77.5
1024.7261	2976.8954	965.5	77.05
1024.839	2977.9705	968.1	79.85
1024.9519	2979.045	966.65	78.95
1025.0647	2980.1188	965.2	78.4
1025.1775	2981.192	961.95	76.35
1025.2902	2982.2645	961.75	74.75
1025.4029	2983.3364	960.55	72.55
1025.5156	2984.4077	957.05	68.7
1025.6282	2985.4783	965.05	73.4
1025.7407	2986.5483	955.45	69.05
1025.8532	2987.6177	952.95	66.95
1025.9657	2988.6864	952.85	67.25
1026.0782	2989.7545	949.2	60.7
1026.1906	2990.8219	951	64.85
1026.3029	2991.8887	948.65	60.7
1026.4152	2992.9548	947.5	60.25
1026.5275	2994.0204	940.9	54.5
1026.6397	2995.0852	935.85	51.55
1026.7519	2996.1495	936.45	48.45
1026.864	2997.2131	934.65	48.35
1026.9761	2998.276	931.85	45.7
1027.0882	2999.3383	933.55	45.95
1027.2002	3000.4	929	42.05
1027.3122	3001.4611	928.05	41.35
1027.4241	3002.5215	924.75	36.4
1027.536	3003.5812	920.65	34.45
1027.6478	3004.6404	922.8	34.45
1027.7596	3005.6989	924.05	37.7
1027.8714	3006.7567	920.5	34.3
1027.9831	3007.8139	948.5	32
1028.0947	3008.8705	918.2	30.8
1028.2064	3009.9264	936.5	32.2
1028.3179	3010.9818	918.5	29.3
1028.4295	3012.0364	916.75	27.1
1028.541	3013.0905	916.25	28.2
1028.6524	3014.1439	916.95	30.15
1028.7638	3015.1966	915.75	29.4
1028.8752	3016.2487	916.4	31.95
1028.9865	3017.3002	919.55	29.2
1029.0978	3018.3511	913.3	27.45
1029.209	3019.4013	913.4	27
1029.3202	3020.4509	913.6	28.2
1029.4314	3021.4998	913.1	25.2
1029.5425	3022.5481	913.45	27.65
1029.6535	3023.5958	915.85	29.9
1029.7645	3024.6428	911.7	26.25
1029.8755	3025.6892	913.7	24.95
1029.9864	3026.735	915	28.65
1030.0973	3027.7802	913.4	24.4
1030.2082	3028.8247	912.3	24.5
1030.319	3029.8685	913.4	27.35
1030.4297	3030.9118	914.7	26.3
1030.5404	3031.9544	910.85	24.45
1030.6511	3032.9963	913.35	27
1030.7617	3034.0376	913.85	26.75
1030.8723	3035.0783	915.25	27.2
1030.9829	3036.1184	913.75	27.15
1031.0934	3037.1578	912.8	27.75
1031.2038	3038.1966	913.25	25.15
1031.3142	3039.2348	911.45	24.6
1031.4246	3040.2723	921.85	25.7
1031.5349	3041.3092	913.8	26.55
1031.6452	3042.3455	913.05	26.25
1031.7554	3043.3811	914.9	28.15
1031.8656	3044.4161	912.55	23.45
1031.9758	3045.4505	911.75	25.9
1032.0859	3046.4842	916	28.85
1032.1959	3047.5173	915	26.65
1032.3059	3048.5498	911.6	26.45
1032.4159	3049.5816	914.45	27.7
1032.5258	3050.6128	918.1	29.45
1032.6357	3051.6434	915.7	28.1
1032.7455	3052.6734	914.5	28.15
1032.8553	3053.7027	913.2	26.25
1032.9651	3054.7314	911.55	25.15
1033.0748	3055.7594	911.4	24.5
1033.1845	3056.7868	916.05	28.9
1033.2941	3057.8136	913.95	28.3
1033.4037	3058.8398	916	31.15
1033.5132	3059.8653	914.9	28.05
1033.6227	3060.8902	913.4	28
1033.7321	3061.9145	916.5	29.9
1033.8415	3062.9381	915	28.6
1033.9509	3063.9612	929.1	24.05
1034.0602	3064.9835	913.1	25.1
1034.1694	3066.0053	918.4	30.45
1034.2787	3067.0264	913.7	28.7
1034.3878	3068.0469	915.35	28.5
1034.497	3069.0668	918.8	29.4
1034.6061	3070.086	913.9	29.25
1034.7151	3071.1046	916.3	27.1
1034.8241	3072.1226	915.45	27.7
1034.9331	3073.1399	913.6	26.6
1035.042	3074.1567	916.1	28.05
1035.1508	3075.1727	914.7	26.5
1035.2597	3076.1882	911.7	25.55
1035.3684	3077.203	911.75	25.5
1035.4772	3078.2173	911.15	23.8
1035.5859	3079.2308	916.15	24.15
1035.6945	3080.2438	911.75	23.2
1035.8031	3081.2561	911.25	25.45
1035.9117	3082.2678	906.95	22.25
1036.0202	3083.2789	911.35	26
1036.1286	3084.2893	907.25	21.55
1036.2371	3085.2991	909.3	21.05
1036.3454	3086.3083	912.15	22.45
1036.4538	3087.3169	909.45	20
1036.562	3088.3248	909.65	20.35
1036.6703	3089.3321	907.6	20.5
1036.7785	3090.3388	906.2	18.05
1036.8866	3091.3449	906.8	19.05
1036.9948	3092.3503	908.55	19.95
1037.1028	3093.3551	903.7	17.85
1037.2108	3094.3593	905.65	21.05
1037.3188	3095.3629	906.9	21.2
1037.4267	3096.3658	907.3	17.85
1037.5346	3097.3681	904.85	17.1
1037.6425	3098.3698	905.95	18.45
1037.7503	3099.3708	903.35	17.85
1037.858	3100.3713	904.3	18.85
1037.9657	3101.3711	906.35	19.45
1038.0734	3102.3702	1044.9	15.7
1038.181	3103.3688	904.15	13.9
1038.2886	3104.3667	903.45	18.25
1038.3961	3105.364	902.75	18.1
1038.5036	3106.3607	905.7	15.6
1038.611	3107.3568	905.35	17.05
1038.7184	3108.3522	904.45	20.4
1038.8257	3109.347	905.4	19.25
1038.933	3110.3412	908.25	17.65
1039.0403	3111.3348	901.25	14
1039.1475	3112.3277	904.05	16.6
1039.2547	3113.32	903.6	16.3
1039.3618	3114.3117	902.3	13
1039.4689	3115.3028	901.6	15.8
1039.5759	3116.2932	905.55	15.55
1039.6829	3117.2831	907.35	14.65
1039.7898	3118.2723	902	14.6
1039.8967	3119.2608	900.7	14.75
1040.0035	3120.2488	900.2	13.8
1040.1103	3121.2361	900.1	15.25
1040.2171	3122.2229	901.8	15.9
1040.3238	3123.209	901	12.2
1040.4305	3124.1944	900.9	13.3
1040.5371	3125.1793	902.4	15.3
1040.6437	3126.1635	899.1	11.85
1040.7502	3127.1471	897.2	11.05
1040.8567	3128.1301	898.25	11.6
1040.9631	3129.1125	896.9	9
1041.0695	3130.0942	901.65	15.2
1041.1759	3131.0753	908.5	12.85
1041.2822	3132.0558	903.15	14.65
1041.3884	3133.0357	901.15	15.2
1041.4946	3134.015	900.9	11.8
1041.6008	3134.9936	901.2	12.35
1041.7069	3135.9716	920	10.75
1041.813	3136.949	899.65	12.9
1041.919	3137.9258	918.55	12.05
1042.025	3138.902	904.35	12.1
1042.1309	3139.8775	897.2	11
1042.2368	3140.8524	899	12.45
1042.3427	3141.8267	900.5	13.35
1042.4485	3142.8004	898	12.5
1042.5542	3143.7735	905.2	11.8
1042.6599	3144.7459	901.25	14
1042.7656	3145.7178	899.6	11.9
1042.8712	3146.689	896.05	9.85
1042.9768	3147.6596	900.55	10.9
1043.0823	3148.6295	897.25	10.4
1043.1878	3149.5989	898.1	10.45
1043.2932	3150.5676	899	11.5
1043.3986	3151.5357	897.55	14.05
1043.5039	3152.5032	895.75	8.45
1043.6092	3153.4701	897.5	11.25
1043.7145	3154.4364	898.75	9.1
1043.8197	3155.402	895.7	9.55
1043.9248	3156.367	900.65	14.25
1044.03	3157.3315	936.65	11.5
1044.135	3158.2952	898.1	10.15
1044.24	3159.2584	895.2	8.55
1044.345	3160.221	898.45	11.4
1044.4499	3161.1829	896.9	11.15
1044.5548	3162.1442	898.05	10.05
1044.6596	3163.105	896.15	10.45
1044.7644	3164.065	897.1	10.95
1044.8692	3165.0245	899.5	11.4
1044.9739	3165.9834	894.6	7.9
1045.0785	3166.9416	894.35	9.35
1045.1831	3167.8993	895.75	7.35
1045.2877	3168.8563	896	8.3
1045.3922	3169.8127	893.75	6.7
1045.4966	3170.7684	896.9	12.8
1045.6011	3171.7236	897.85	8.55
1045.7054	3172.6782	897.45	10.9
1045.8098	3173.6321	898.1	11.05
1045.914	3174.5854	898.25	6.8
1046.0183	3175.5381	897.05	9.15
1046.1224	3176.4902	895.6	9.75
1046.2266	3177.4417	894.85	9.2
1046.3307	3178.3926	894.15	9.65
1046.4347	3179.3428	894.6	9.15
1046.5387	3180.2924	895.3	10.85
1046.6427	3181.2415	896.55	9.05
1046.7466	3182.1899	898.55	9.55
1046.8504	3183.1377	894.2	7.9
1046.9542	3184.0848	897.25	7.3
1047.058	3185.0314	895.65	6.65
1047.1617	3185.9773	895.8	8.7
1047.2654	3186.9227	895.3	8.95
1047.369	3187.8674	897.1	10.95
1047.4726	3188.8115	900.75	10.9
1047.5761	3189.755	894.95	6.6
1047.6796	3190.6979	895.95	9.65
1047.783	3191.6402	895.9	10.9
1047.8864	3192.5818	895.3	8.7
1047.9898	3193.5229	900.25	4.8
1048.0931	3194.4633	896.7	6.65
1048.1963	3195.4031	893.7	5.4
1048.2995	3196.3423	892.35	4.95
1048.4027	3197.2809	893.9	6.2
1048.5058	3198.2189	896.25	9.65
1048.6089	3199.1563	901.55	8.9
1048.7119	3200.0931	894.75	8
1048.8148	3201.0292	893.35	5.3
1048.9178	3201.9648	893.75	7.15
1049.0206	3202.8997	898.1	7.8
1049.1235	3203.834	896.45	10.95
1049.2262	3204.7677	894.4	9.1
1049.329	3205.7008	897.1	8.35
1049.4317	3206.6333	892.75	9.55
1049.5343	3207.5652	895.45	6
1049.6369	3208.4964	893.15	5.6
1049.7394	3209.4271	895.1	8.95
1049.8419	3210.3571	893.6	8
1049.9444	3211.2865	894.65	4.9
1050.0468	3212.2154	895.65	8.3
1050.1491	3213.1436	897.9	9.3
1050.2514	3214.0712	901.75	6.75
1050.3537	3214.9982	895.45	8.75
1050.4559	3215.9246	893.75	5.9
1050.5581	3216.8503	892.2	7.35
1050.6602	3217.7755	894.7	8.5
1050.7623	3218.7001	893	5.8
1050.8643	3219.624	894.35	7.05
1050.9663	3220.5473	894.2	7.25
1051.0682	3221.4701	897.05	8.55
1051.1701	3222.3922	896.6	7.65
1051.2719	3223.3137	893.65	5.65
1051.3737	3224.2346	894.3	6.9
1051.4754	3225.1549	893	4.15
1051.5771	3226.0746	893.75	6.75
1051.6788	3226.9937	897.8	9.15
1051.7804	3227.9121	894.6	9.75
1051.8819	3228.83	893.8	6.1
1051.9834	3229.7473	892.8	6.5
1052.0849	3230.6639	893.7	7.75
1052.1863	3231.5799	893.35	6.95
1052.2876	3232.4954	895	7.05
1052.3889	3233.4102	892.6	5.45
1052.4902	3234.3244	893.75	3.8
1052.5914	3235.238	892.85	6.25
1052.6926	3236.151	918.4	7.1
1052.7937	3237.0634	890.7	4.95
1052.8948	3237.9752	890.45	4.6
1052.9958	3238.8864	892.6	4.85
1053.0968	3239.797	891.95	5.1
1053.1977	3240.7069	896.85	9.35
1053.2986	3241.6163	894.4	6.95
1053.3994	3242.5251	893.6	8.1
1053.5002	3243.4332	892	4.55
1053.6009	3244.3408	893.6	4.6
1053.7016	3245.2477	894.05	9.15
1053.8022	3246.154	894	6
1053.9028	3247.0598	894.7	6
1054.0034	3247.9649	895	9.25
1054.1039	3248.8694	892.3	5.25
1054.2043	3249.7733	893.65	4.8
1054.3047	3250.6766	893	6.8
1054.4051	3251.5793	894.5	7.95
1054.5054	3252.4814	892.25	4.75
1054.6056	3253.3829	891.6	4
1054.7058	3254.2838	892.15	4.55
1054.806	3255.1841	892.55	3.85
1054.9061	3256.0838	893.25	7.05
1055.0061	3256.9829	891.65	4.25
1055.1062	3257.8814	894.45	5.75
1055.2061	3258.7792	895.5	5.05
1055.306	3259.6765	890.9	3.2
1055.4059	3260.5731	893.2	7.45
1055.5057	3261.4692	892.65	5.4
1055.6055	3262.3647	893.5	5.75
1055.7052	3263.2595	893.2	5.8
1055.8049	3264.1538	891.15	3.1
1055.9045	3265.0474	891.3	3.25
1056.0041	3265.9404	891.2	4.8
1056.1036	3266.8329	890.35	4.45
1056.2031	3267.7247	902.45	5
1056.3025	3268.616	892.8	6.95
1056.4019	3269.5066	894	7.6
1056.5013	3270.3966	895.25	7.7
1056.6005	3271.286	888.95	4.3
