Software Version:	3.9.2.0
Unit SN:	10000200
Spectrometer SN:	6960
Date:	3/14/2024 1:57:35 PM
Data Line Index:	25
Spectral Points:	2048
Integration time (ms):	125
Averages:	20
Delay (ms):	30000
Sequence Number:	1
Processing:	dark subtract
Laser Power (mW):	305
Laser Current (mA):	825
Laser Diode Temp (C):	25.1
Laser Case Temp (C):	29
System Temp (C):	29
Spectrometer Temp (C):	26.8
CCD Temp (C):	-0.003
Secondary Temp (C):	20.028
Heatsink Temp (C):	24.854
CCDPCB Temp (C):	38.363
SecondaryPCB Temp (C):	35.818

Wavelength	RamanShift	Raw Counts	Dark Subtracted
787.061	30.1047	460.95	52.35
787.2016	32.3739	462.2	56.5
787.3422	34.6426	470.1	61.55
787.4828	36.9109	476.55	66.15
787.6235	39.1787	481.85	67.85
787.7642	41.4461	492.9	74.8
787.9049	43.7131	503.2	82.85
788.0456	45.9796	509.5	82.45
788.1863	48.2456	520.65	91.05
788.3271	50.5112	526.15	91.45
788.4679	52.7764	538.7	102.35
788.6087	55.0411	547.45	110
788.7496	57.3054	559.8	114.45
788.8904	59.5692	569.95	122.2
789.0313	61.8326	579.6	126.55
789.1722	64.0955	590.6	130.25
789.3132	66.3579	612.55	148.65
789.4541	68.6199	628.9	164.65
789.5951	70.8815	661.45	194.65
789.7361	73.1426	732.95	261.4
789.8771	75.4032	921.85	444.8
790.0181	77.6634	1389.95	906.55
790.1592	79.9231	2504.7	2015.5
790.3003	82.1824	4938.9	4441.3
790.4414	84.4412	9461.2	8943.95
790.5825	86.6995	15825.5	15287.1
790.7237	88.9574	22244.4	21681
790.8648	91.2148	26842.2	26261.1
791.006	93.4717	29117.4	28532.6
791.1472	95.7282	29772.5	29182.55
791.2885	97.9842	29804.6	29213.6
791.4297	100.2398	29412.95	28814.85
791.571	102.4949	28911.2	28310.15
791.7123	104.7495	28191.95	27588.05
791.8536	107.0036	27449	26843.45
791.9949	109.2573	26716.7	26108.35
792.1363	111.5105	25967.6	25362.8
792.2777	113.7632	25225.35	24617.05
792.4191	116.0154	24607.8	23992.1
792.5605	118.2672	24151.3	23539.45
792.7019	120.5185	23637.65	23026.05
792.8434	122.7693	23266.5	22649.1
792.9849	125.0197	22965.3	22346.05
793.1264	127.2696	22655.25	22034.55
793.2679	129.519	22541.65	21919.8
793.4094	131.7679	22373.8	21748.1
793.551	134.0163	22261.8	21629.3
793.6926	136.2642	22145.75	21513.45
793.8342	138.5117	21936.7	21291.35
793.9758	140.7587	21742.05	21104.25
794.1175	143.0052	21615.85	20973.5
794.2591	145.2512	21409.45	20768.55
794.4008	147.4967	21170.05	20529.45
794.5425	149.7417	21025.8	20382.35
794.6842	151.9863	20883.1	20233.8
794.826	154.2304	20856.35	20207.05
794.9677	156.4739	20699.05	20041.35
795.1095	158.717	20669.3	20015.25
795.2513	160.9596	20497.4	19836.65
795.3931	163.2017	20238.05	19578.7
795.535	165.4433	19970.9	19304.95
795.6768	167.6844	19644.25	18979.3
795.8187	169.925	19325	18656.95
795.9606	172.1651	18892.4	18217.3
796.1025	174.4047	18645.75	17969.9
796.2445	176.6439	18357.3	17680.5
796.3864	178.8825	18124.5	17444.7
796.5284	181.1206	17949.05	17268
796.6704	183.3582	17733.45	17044.75
796.8124	185.5954	17621	16930.6
796.9544	187.832	17541.15	16851.35
797.0965	190.0681	17456.25	16765.15
797.2386	192.3037	17439.1	16742.2
797.3806	194.5388	17442.45	16743.7
797.5228	196.7734	17469.1	16767.9
797.6649	199.0075	17524.2	16822.05
797.807	201.2411	17666.8	16960
797.9492	203.4742	17654.35	16946.6
798.0914	205.7068	17802.7	17092.3
798.2336	207.9389	17898.7	17190.75
798.3758	210.1704	18052.5	17340.9
798.518	212.4015	18109.8	17391.55
798.6603	214.632	18331.4	17617.85
798.8025	216.862	18455.05	17745.35
798.9448	219.0915	18658.3	17954.65
799.0871	221.3205	18874.4	18173.55
799.2294	223.549	19120.85	18426
799.3718	225.777	19471.95	18780.05
799.5141	228.0044	19878.65	19186.7
799.6565	230.2314	20375.55	19682.5
799.7989	232.4578	20843.6	20151.85
799.9413	234.6837	21210.9	20507.3
800.0837	236.909	21461.8	20757.65
800.2262	239.1339	21414.55	20687.25
800.3687	241.3582	21112.2	20400.6
800.5111	243.582	20705.75	19960.9
800.6536	245.8053	20289.65	19559.2
800.7961	248.0281	19951.35	19224.55
800.9387	250.2503	19612.4	18880.45
801.0812	252.472	19424.1	18691.3
801.2238	254.6932	19330.25	18594.3
801.3664	256.9139	19183.75	18440.75
801.509	259.134	19109.7	18365
801.6516	261.3536	19035.85	18295.7
801.7942	263.5727	18998.9	18257.15
801.9369	265.7912	18887.15	18145.9
802.0795	268.0092	18860.55	18117.35
802.2222	270.2267	18738.75	17996.8
802.3649	272.4436	18658.3	17913.4
802.5076	274.6601	18610.25	17856.15
802.6504	276.8759	18549.6	17801.85
802.7931	279.0913	18546.3	17797.1
802.9359	281.3061	18521.75	17770.55
803.0787	283.5204	18637.3	17886.05
803.2215	285.7341	18698.3	17943.8
803.3643	287.9473	18883.3	18116.3
803.5071	290.16	19172.3	18409.7
803.6499	292.3721	19453.6	18695
803.7928	294.5837	19896.45	19137.65
803.9357	296.7947	20282.95	19522.3
804.0786	299.0052	20479.75	19720.85
804.2215	301.2152	20270	19507.95
804.3644	303.4246	19878.35	19120.1
804.5074	305.6334	19302.7	18544.35
804.6503	307.8418	18764.3	18001.7
804.7933	310.0495	18320.1	17559.25
804.9363	312.2568	18038.15	17278.65
805.0793	314.4635	17811.55	17047.65
805.2223	316.6696	17737.1	16971.4
805.3653	318.8752	17712.8	16940.25
805.5084	321.0802	17765.35	17001.7
805.6514	323.2847	17890.6	17124
805.7945	325.4887	17953.95	17185.45
805.9376	327.692	17879.85	17113.15
806.0807	329.8949	17749.25	16982.3
806.2238	332.0972	17454.5	16682.65
806.367	334.2989	17188.2	16413.35
806.5101	336.5001	16873.05	16100.75
806.6533	338.7007	16680.85	15904.7
806.7965	340.9008	16520.6	15743.95
806.9397	343.1003	16443.45	15664.3
807.0829	345.2992	16380.9	15602.25
807.2261	347.4976	16344.8	15565.75
807.3693	349.6955	16294.7	15513.6
807.5126	351.8927	16432.2	15646.55
807.6559	354.0895	16363.7	15572.6
807.7991	356.2856	16410.9	15623.75
807.9424	358.4812	16396.65	15608.25
808.0857	360.6763	16407.35	15618
808.2291	362.8707	16377.65	15589.55
808.3724	365.0646	16404.25	15612.75
808.5158	367.258	16402.75	15613
808.6591	369.4508	16402.55	15609.55
808.8025	371.643	16455.7	15661.45
808.9459	373.8346	16394.05	15599.05
809.0893	376.0257	16331.45	15531.35
809.2327	378.2162	16214	15413.6
809.3762	380.4062	16113.1	15311
809.5196	382.5956	15963.45	15157.9
809.6631	384.7844	15847.3	15043.35
809.8066	386.9726	15727.5	14924.4
809.9501	389.1603	15680.65	14878.45
810.0936	391.3474	15657.15	14818.1
810.2371	393.5339	15583.85	14777.45
810.3806	395.7199	15522.65	14722.85
810.5241	397.9052	15526.5	14732.35
810.6677	400.09	15513.2	14716.2
810.8113	402.2743	15556.75	14758.65
810.9548	404.4579	15581.25	14788.9
811.0984	406.641	15731.5	14933.9
811.2421	408.8235	15935.3	15141.7
811.3857	411.0054	16265.5	15473
811.5293	413.1868	16710.75	15913.9
811.673	415.3675	17115.9	16316
811.8166	417.5477	17319.3	16522.05
811.9603	419.7273	17355.85	16557.2
812.104	421.9064	17226.15	16418.6
812.2477	424.0848	17053.95	16249.95
812.3914	426.2627	16814.6	16006.9
812.5351	428.4399	16500.4	15688.25
812.6788	430.6166	16147	15334.1
812.8226	432.7928	15741.2	14925.1
812.9663	434.9683	15433.15	14618.35
813.1101	437.1432	15214.55	14397.85
813.2539	439.3176	15026.25	14210.55
813.3977	441.4914	14903.7	14084.7
813.5415	443.6645	14876.25	14055.8
813.6853	445.8371	14809.5	13989.5
813.8291	448.0091	14728.35	13912.75
813.973	450.1806	14670.75	13851.8
814.1168	452.3514	14577.3	13757.2
814.2607	454.5216	14572.5	13743.6
814.4046	456.6913	14469.85	13648
814.5485	458.8603	14479.45	13657.6
814.6924	461.0288	14539.95	13720.3
814.8363	463.1967	14554.45	13732.4
814.9802	465.3639	14692.05	13869.35
815.1241	467.5306	14795.35	13968.9
815.2681	469.6967	14964	14141.05
815.412	471.8622	15105.95	14281.4
815.556	474.0271	15272.65	14449.05
815.7	476.1914	15343.3	14514.45
815.844	478.3551	15288	14463.35
815.988	480.5182	15205.45	14381
816.132	482.6807	15181.25	14356.75
816.276	484.8426	15252.05	14425.85
816.4201	487.0039	15497.7	14672.7
816.5641	489.1647	15900.3	15071.7
816.7082	491.3248	16278.4	15451.8
816.8522	493.4843	16505.25	15677.25
816.9963	495.6432	16495.3	15665.85
817.1404	497.8015	16395.1	15561.35
817.2845	499.9592	16419.45	15591.2
817.4286	502.1163	16368	15539.35
817.5727	504.2728	16156.15	15324.1
817.7168	506.4287	15835.55	15007.1
817.861	508.5839	15398.55	14567.1
818.0051	510.7386	15041.1	14210.3
818.1493	512.8927	14819.75	13977.5
818.2935	515.0461	14668	13836.4
818.4377	517.199	14562.2	13728.4
818.5818	519.3512	14500.45	13669.85
818.726	521.5029	14522.85	13682.5
818.8703	523.6539	14520.6	13684.55
819.0145	525.8043	14533.55	13698.9
819.1587	527.9541	14584.5	13746.8
819.303	530.1033	14565.5	13728.75
819.4472	532.2519	14645.05	13810.45
819.5915	534.3999	14785.6	13945.55
819.7357	536.5472	15099.8	14259.95
819.88	538.694	15593.85	14755.05
820.0243	540.8401	16234.85	15394.85
820.1686	542.9856	16743.15	15902.15
820.3129	545.1305	16908.35	16065.3
820.4572	547.2748	16748.6	15906.9
820.6016	549.4185	16319.8	15475
820.7459	551.5615	15899.35	15057.5
820.8902	553.704	15706.9	14860.8
821.0346	555.8458	15571.95	14727.7
821.1789	557.987	15556.9	14713.95
821.3233	560.1276	15432.7	14585.25
821.4677	562.2675	15373.4	14530.65
821.6121	564.4069	15253.95	14412.95
821.7565	566.5456	15156.95	14314.95
821.9009	568.6837	15033.7	14190.45
822.0453	570.8212	14774	13933.65
822.1897	572.958	14524.85	13679.55
822.3342	575.0942	14332.35	13492.65
822.4786	577.2299	14205.9	13358.8
822.6231	579.3648	14198.15	13353.95
822.7675	581.4992	14268.5	13424.95
822.912	583.6329	14493.75	13654.95
823.0565	585.766	14716.55	13874.1
823.201	587.8985	14827.35	13987.75
823.3454	590.0304	14807	13938.5
823.4899	592.1616	14739.15	13892.9
823.6345	594.2922	14629.9	13785.3
823.779	596.4222	14470.8	13626.8
823.9235	598.5515	14300.95	13451.7
824.068	600.6802	14126.6	13281.05
824.2126	602.8083	13958.35	13113.75
824.3571	604.9358	13863.45	13015.2
824.5017	607.0626	13769.2	12921.2
824.6462	609.1888	13697	12846.8
824.7908	611.3144	13563	12712.85
824.9354	613.4393	13394.15	12542.55
825.08	615.5636	13246.55	12397.25
825.2246	617.6873	13124.5	12276.8
825.3692	619.8103	13048.9	12198.2
825.5138	621.9327	12991.75	12138.85
825.6584	624.0544	12975.2	12126.8
825.803	626.1756	12953.9	12104.8
825.9477	628.2961	12926.2	12076.15
826.0923	630.4159	12864.8	12015.85
826.237	632.5351	12805	11952.45
826.3816	634.6537	12741.4	11892
826.5263	636.7716	12721.9	11867.65
826.6709	638.8889	12665.6	11813.4
826.8156	641.0056	12702.8	11849.8
826.9603	643.1216	12676.35	11825.75
827.105	645.237	12733	11878.75
827.2497	647.3518	12702.95	11848.75
827.3944	649.4659	12715	11862.6
827.5391	651.5793	12684.75	11831.8
827.6838	653.6922	12684.05	11829.35
827.8285	655.8043	12670.55	11817.05
827.9733	657.9159	12619.2	11762.55
828.118	660.0268	12521.45	11667.05
828.2627	662.137	12448.65	11592.4
828.4075	664.2466	12375.65	11519.3
828.5522	666.3556	12354.85	11500.05
828.697	668.4639	12354.35	11496.85
828.8418	670.5716	12405.65	11550.35
828.9865	672.6786	12490.05	11635.9
829.1313	674.785	12533.45	11676.35
829.2761	676.8907	12618.15	11763.45
829.4209	678.9958	12673.9	11817.55
829.5657	681.1002	12652.9	11793.05
829.7105	683.204	12635.6	11774.4
829.8553	685.3072	12541.1	11681.75
830.0001	687.4097	12449.2	11589.6
830.1449	689.5115	12368.45	11507.4
830.2898	691.6127	12297.7	11441
830.4346	693.7132	12225.65	11364.35
830.5794	695.8131	12188.35	11305.7
830.7243	697.9123	12118.9	11258.5
830.8691	700.0109	12061.15	11201.15
831.014	702.1089	12009.05	11148.6
831.1588	704.2061	12035.55	11175
831.3037	706.3028	12044.05	11179.6
831.4486	708.3987	12053.7	11195
831.5935	710.4941	12146.5	11285.2
831.7383	712.5887	12331.95	11469.85
831.8832	714.6827	12628.1	11762.1
832.0281	716.7761	12988.6	12125.7
832.173	718.8688	13346.7	12486.1
832.3179	720.9608	13534.4	12668.6
832.4628	723.0522	13585.4	12720.1
832.6077	725.1429	13294.3	12433.75
832.7527	727.233	12939.55	12074.75
832.8976	729.3224	12608.1	11745.1
833.0425	731.4112	12287.2	11422.2
833.1874	733.4993	12070.55	11205.3
833.3324	735.5867	11935.2	11067.4
833.4773	737.6735	11838.8	10970.65
833.6222	739.7596	11768.1	10902.35
833.7672	741.845	11718.05	10852.95
833.9122	743.9298	11690.4	10821.45
834.0571	746.014	11689.05	10824.65
834.2021	748.0974	11700.05	10833.6
834.347	750.1802	11674.6	10807.85
834.492	752.2624	11700.45	10836.8
834.637	754.3439	11675.3	10811.05
834.782	756.4247	11739.05	10864.2
834.9269	758.5048	11799.35	10934.8
835.0719	760.5843	11995.4	11130.6
835.2169	762.6631	12232.25	11364.5
835.3619	764.7413	12681.95	11815.85
835.5069	766.8188	13226.4	12359.7
835.6519	768.8956	13644.1	12773.9
835.7969	770.9718	13950.55	13082.45
835.9419	773.0473	13803.65	12938.1
836.0869	775.1221	13458.05	12594.1
836.232	777.1962	13041.85	12172.45
836.377	779.2697	12878.7	12011.05
836.522	781.3426	12920.8	12036.35
836.667	783.4147	13192.15	12324.05
836.8121	785.4862	13503.95	12639.45
836.9571	787.557	13528.3	12661.6
837.1021	789.6271	13172.85	12303.8
837.2472	791.6966	12592.3	11723.35
837.3922	793.7654	12087.3	11219.4
837.5373	795.8335	11782.8	10914.3
837.6823	797.901	11598.25	10730.4
837.8274	799.9678	11533.1	10660.95
837.9724	802.0339	11524.7	10657.25
838.1175	804.0993	11579.55	10699.9
838.2626	806.1641	11568.8	10700.8
838.4076	808.2282	11491.1	10621.15
838.5527	810.2916	11401.95	10531
838.6978	812.3544	11272.15	10402.6
838.8428	814.4164	11176.05	10307.15
838.9879	816.4778	11184.5	10315.4
839.133	818.5385	11140.05	10272.3
839.2781	820.5986	11175.2	10307.6
839.4232	822.658	11235.15	10363.7
839.5682	824.7166	11266.35	10395.35
839.7133	826.7747	11415.45	10549.8
839.8584	828.832	11527	10657.45
840.0035	830.8886	11610.7	10738.2
840.1486	832.9446	11746.05	10873.9
840.2937	834.9999	11809.35	10940.3
840.4388	837.0545	11873.65	10999.4
840.5839	839.1085	11876.7	11004.45
840.729	841.1618	11886.2	11009.8
840.8741	843.2143	11862.3	10993.85
841.0192	845.2662	11779.75	10907.7
841.1643	847.3175	11701.7	10832.95
841.3095	849.368	11585.1	10712.9
841.4546	851.4179	11463.6	10591.25
841.5997	853.467	11321.4	10449.95
841.7448	855.5155	11198.35	10325.7
841.8899	857.5633	11106.9	10233.8
842.0351	859.6105	10980.1	10108.2
842.1802	861.6569	10901	10030.05
842.3253	863.7027	10816.95	9944.75
842.4704	865.7478	10784.4	9911.2
842.6156	867.7922	10801.25	9929.4
842.7607	869.8359	10846.15	9973.75
842.9058	871.8789	10948.15	10071.4
843.0509	873.9212	11123.6	10217.55
843.1961	875.9629	11243.45	10371.9
843.3412	878.0039	11412.6	10538.25
843.4863	880.0441	11528.1	10656
843.6315	882.0837	11508.5	10633.85
843.7766	884.1226	11395.95	10517.9
843.9218	886.1609	11217.5	10345.9
844.0669	888.1984	11093.25	10220.75
844.212	890.2352	11051.5	10180.7
844.3572	892.2714	10958.5	10082.25
844.5023	894.3069	10929.9	10053.6
844.6475	896.3416	10845.1	9971.65
844.7926	898.3757	10803.95	9929.75
844.9377	900.4091	10800.35	9926.4
845.0829	902.4418	10826.1	9950.1
845.228	904.4739	10827.2	9949.9
845.3732	906.5052	10788.45	9913.85
845.5183	908.5358	10685.3	9809.7
845.6635	910.5658	10522.5	9646.15
845.8086	912.595	10359.2	9482.75
845.9538	914.6236	10230.95	9358.7
846.0989	916.6515	10173.3	9299.1
846.2441	918.6786	10179.2	9303.3
846.3892	920.7051	10246.8	9373.25
846.5344	922.7309	10314.9	9438.3
846.6795	924.756	10375.45	9498.7
846.8246	926.7804	10458.75	9579.9
846.9698	928.8041	10407.6	9529.5
847.1149	930.8272	10448.95	9573.25
847.2601	932.8495	10380.9	9502.2
847.4052	934.8711	10279.7	9401.9
847.5504	936.892	10125.8	9250.55
847.6955	938.9123	9970.05	9092.3
847.8407	940.9318	9807.35	8932.65
847.9858	942.9506	9689.8	8811.75
848.131	944.9688	9611.1	8735.6
848.2761	946.9862	9565.25	8691.4
848.4213	949.003	9476.15	8599.9
848.5664	951.019	9502.25	8625.65
848.7115	953.0344	9492.85	8615.9
848.8567	955.0491	9545.3	8666.7
849.0018	957.063	9594.6	8717.35
849.147	959.0763	9683.55	8807.15
849.2921	961.0888	9724.95	8846.5
849.4373	963.1007	9788.85	8911.55
849.5824	965.1119	9830.05	8952.15
849.7275	967.1223	9852.9	8973.4
849.8727	969.1321	9898.15	9021.25
850.0178	971.1412	9908.15	9031.85
850.1629	973.1495	9929.05	9053.55
850.3081	975.1572	9973.5	9059.4
850.4532	977.1641	9982.8	9105
850.5983	979.1704	9923.95	9046.5
850.7435	981.1759	9920.8	9039.85
850.8886	983.1808	9977.85	9099.8
851.0337	985.1849	10065	9178
851.1788	987.1884	10232.3	9352.75
851.324	989.1911	10417.8	9537.65
851.4691	991.1932	10544.4	9664.5
851.6142	993.1945	10567.15	9687.3
851.7593	995.1951	10541.8	9663.25
851.9045	997.1951	10504.35	9620.1
852.0496	999.1943	10407.75	9530.15
852.1947	1001.1928	10350.35	9471.95
852.3398	1003.1906	10321.15	9441.9
852.4849	1005.1877	10365.8	9485.05
852.63	1007.1841	10303.95	9424.75
852.7751	1009.1798	10213.95	9333.6
852.9202	1011.1748	10049.75	9170.4
853.0653	1013.1691	9828.4	8948.6
853.2104	1015.1627	9624.05	8746.55
853.3555	1017.1556	9440	8562.25
853.5006	1019.1477	9344.75	8465.5
853.6457	1021.1392	9250.5	8369.8
853.7908	1023.1299	9232.05	8354.75
853.9359	1025.12	9255.75	8373.15
854.081	1027.1093	9321.15	8442.8
854.2261	1029.0979	9391.75	8515.65
854.3712	1031.0859	9428.65	8549.2
854.5163	1033.0731	9458.85	8580.95
854.6613	1035.0596	9332.1	8452.4
854.8064	1037.0454	9188.8	8310.6
854.9515	1039.0304	9094.1	8214.1
855.0965	1041.0148	8930.4	8050.75
855.2416	1042.9985	8855.35	7975.75
855.3867	1044.9814	8816.3	7937.3
855.5317	1046.9636	8759.3	7879.8
855.6768	1048.9452	8718.5	7839.5
855.8219	1050.926	8720.45	7842.4
855.9669	1052.9061	8701.45	7823
856.112	1054.8855	8685.75	7804.95
856.257	1056.8642	8720.65	7840.85
856.4021	1058.8421	8760.05	7879.35
856.5471	1060.8194	8780.35	7904.3
856.6921	1062.7959	8812.5	7933.5
856.8372	1064.7717	8808.8	7928.55
856.9822	1066.7469	8789.55	7906.7
857.1272	1068.7213	8772.45	7892.15
857.2723	1070.695	8733.85	7852.7
857.4173	1072.6679	8664.05	7784.6
857.5623	1074.6402	8587.9	7708.4
857.7073	1076.6117	8581.95	7699
857.8523	1078.5826	8611.1	7730.9
857.9973	1080.5527	8650.9	7767.35
858.1423	1082.5221	8789.55	7910.75
858.2873	1084.4908	8979.9	8099.7
858.4323	1086.4587	9203.4	8320
858.5773	1088.426	9335.95	8453.25
858.7223	1090.3925	9322.35	8435.15
858.8673	1092.3584	9259.05	8381.05
859.0123	1094.3235	9106.9	8228.45
859.1573	1096.2879	8988.8	8110.1
859.3022	1098.2515	8970.5	8088.4
859.4472	1100.2145	8966.35	8086.3
859.5922	1102.1767	9046	8164.15
859.7371	1104.1382	9180.75	8301.05
859.8821	1106.099	9370.3	8489.5
860.027	1108.0591	9569.3	8687.85
860.172	1110.0185	9712.3	8829.55
860.3169	1111.9771	9697.55	8817.45
860.4619	1113.9351	9484.9	8604.2
860.6068	1115.8923	9154.3	8271.55
860.7517	1117.8488	8832.55	7948.25
860.8967	1119.8045	8558.85	7681.2
861.0416	1121.7596	8407.3	7526.35
861.1865	1123.7139	8324.5	7442.9
861.3314	1125.6675	8366.25	7484.5
861.4763	1127.6204	8409.4	7530.2
861.6212	1129.5726	8429.15	7546.1
861.7661	1131.524	8426	7544.7
861.911	1133.4748	8462.05	7581.65
862.0559	1135.4248	8474.15	7592.25
862.2008	1137.3741	8489.3	7609.05
862.3457	1139.3226	8445.1	7563.65
862.4905	1141.2705	8418.2	7538.75
862.6354	1143.2176	8342.35	7455.6
862.7803	1145.164	8336.9	7452.8
862.9251	1147.1097	8376.05	7494.4
863.07	1149.0546	8355.85	7473.55
863.2148	1150.9989	8252.7	7370.3
863.3597	1152.9424	8100.25	7218.6
863.5045	1154.8852	7903.7	7020.6
863.6493	1156.8272	7753.95	6875.65
863.7942	1158.7686	7705.8	6818.95
863.939	1160.7092	7664	6779.15
864.0838	1162.6491	7682.35	6799.7
864.2286	1164.5883	7720.85	6841.5
864.3734	1166.5267	7771.2	6886.6
864.5182	1168.4644	7926.25	7045.45
864.663	1170.4014	8099.3	7212.95
864.8078	1172.3377	8328.45	7448.45
864.9526	1174.2732	8516.8	7632.85
865.0974	1176.2081	8715.1	7833.55
865.2421	1178.1421	8875.65	7992
865.3869	1180.0755	9018.95	8139.95
865.5317	1182.0082	9060.55	8178.65
865.6764	1183.9401	8990.45	8108.3
865.8212	1185.8713	8830.3	7947.75
865.9659	1187.8017	8589.55	7708.7
866.1106	1189.7315	8341	7457.8
866.2554	1191.6605	8102.3	7191.7
866.4001	1193.5888	7887.15	7002.65
866.5448	1195.5163	7791	6909.45
866.6895	1197.4432	7696.8	6813.8
866.8342	1199.3693	7642.85	6761.35
866.9789	1201.2947	7601.3	6716.2
867.1236	1203.2193	7588.2	6706.3
867.2683	1205.1432	7604.95	6721.5
867.413	1207.0664	7640.15	6758.1
867.5576	1208.9889	7685.95	6800.85
867.7023	1210.9106	7772.65	6891.6
867.847	1212.8316	7838.45	6955.95
867.9916	1214.7519	7892.25	7000.3
868.1363	1216.6715	7914.95	7035
868.2809	1218.5903	7899.7	7018.75
868.4255	1220.5084	7842.1	6960
868.5701	1222.4257	7818.9	6936.25
868.7148	1224.3424	7770.3	6888.6
868.8594	1226.2583	7807.45	6920.95
869.004	1228.1735	7903.45	7021.1
869.1486	1230.0879	8008.6	7124.3
869.2932	1232.0016	8129.8	7249
869.4377	1233.9146	8146.5	7260.05
869.5823	1235.8269	8086.15	7203.6
869.7269	1237.7384	7941.75	7060.1
869.8715	1239.6492	7782.1	6901.2
870.016	1241.5592	7661.05	6777.95
870.1606	1243.4686	7559.65	6677.45
870.3051	1245.3772	7505.7	6623.3
870.4496	1247.285	7451.45	6569.45
870.5941	1249.1922	7394.8	6511.3
870.7387	1251.0986	7387.85	6506.85
870.8832	1253.0042	7392.95	6508.8
871.0277	1254.9092	7444.4	6561.1
871.1722	1256.8134	7541.45	6658.1
871.3167	1258.7169	7696.75	6812.05
871.4611	1260.6196	7815.95	6932.8
871.6056	1262.5216	8016.95	7134.55
871.7501	1264.4229	8123.4	7245.1
871.8945	1266.3234	8238.15	7356.45
872.039	1268.2232	8286.55	7404
872.1834	1270.1223	8261.6	7378.85
872.3278	1272.0207	8244.5	7360.65
872.4723	1273.9183	8184.55	7293.6
872.6167	1275.8151	8108.25	7226.7
872.7611	1277.7113	8033.35	7148.3
872.9055	1279.6067	7879.35	6999.2
873.0499	1281.5014	7739.2	6854.3
873.1943	1283.3953	7628.55	6745.05
873.3386	1285.2885	7541.9	6660.1
873.483	1287.181	7523.95	6640.85
873.6274	1289.0727	7534	6652.4
873.7717	1290.9637	7585.45	6702.1
873.9161	1292.854	7678.05	6793.45
874.0604	1294.7435	7821	6936.2
874.2047	1296.6323	8005.95	7123.45
874.349	1298.5204	8245.85	7358.8
874.4933	1300.4077	8482.7	7598.75
874.6376	1302.2943	8651.75	7769.35
874.7819	1304.1802	8712.75	7829.9
874.9262	1306.0653	8658.5	7774.8
875.0705	1307.9497	8534.75	7651.35
875.2147	1309.8333	8413.25	7532.8
875.359	1311.7162	8394.05	7511.1
875.5032	1313.5984	8465.45	7579.8
875.6475	1315.4798	8587.05	7694.15
875.7917	1317.3605	8751.05	7851.5
875.9359	1319.2405	8863.4	7976.4
876.0801	1321.1197	8869.4	7985.2
876.2243	1322.9982	8841.85	7953.05
876.3685	1324.876	8819.85	7935.7
876.5127	1326.753	8760.6	7876.55
876.6569	1328.6293	8763.9	7879.95
876.801	1330.5048	8769.4	7883.55
876.9452	1332.3796	8756.15	7872.75
877.0893	1334.2537	8722.25	7811.3
877.2335	1336.127	8663.8	7780.45
877.3776	1337.9996	8613.6	7729.4
877.5217	1339.8714	8600.15	7714.75
877.6658	1341.7426	8578.45	7652.85
877.8099	1343.6129	8518.95	7632.6
877.954	1345.4826	8461.75	7576.7
878.0981	1347.3515	8411.85	7525.3
878.2422	1349.2196	8356.25	7472.7
878.3862	1351.087	8350.3	7467.3
878.5303	1352.9537	8409.3	7524.9
878.6743	1354.8197	8520.8	7635.25
878.8184	1356.6849	8668.2	7783.8
878.9624	1358.5493	8767.45	7885.45
879.1064	1360.4131	8743.15	7859.35
879.2504	1362.276	8700.25	7816.05
879.3944	1364.1383	8534.75	7652
879.5384	1365.9998	8305.3	7413.75
879.6823	1367.8606	8040.8	7156
879.8263	1369.7206	7793.95	6909.95
879.9702	1371.5799	7610.5	6722.15
880.1142	1373.4384	7514.5	6630.1
880.2581	1375.2962	7389.4	6501.55
880.402	1377.1533	7169.4	6283.05
880.5459	1379.0096	6890.65	6005.15
880.6898	1380.8652	6646.6	5760.7
880.8337	1382.7201	6382.15	5497.6
880.9776	1384.5742	6199.75	5313.85
881.1215	1386.4275	6069.45	5183.75
881.2653	1388.2802	5941.3	5059.65
881.4092	1390.132	5863.25	4980.55
881.553	1391.9832	5827.45	4941.85
881.6968	1393.8336	5748.8	4864.7
881.8406	1395.6832	5726.6	4841.6
881.9844	1397.5322	5691.2	4808.2
882.1282	1399.3803	5691.45	4801.35
882.272	1401.2278	5672.6	4786.25
882.4158	1403.0745	5673.25	4788.8
882.5595	1404.9204	5651.75	4767.85
882.7033	1406.7656	5660.05	4775.85
882.847	1408.6101	5679.6	4794.95
882.9908	1410.4538	5719.25	4834.45
883.1345	1412.2968	5742.9	4856.95
883.2782	1414.139	5805.5	4922.65
883.4219	1415.9805	5888.75	5004.9
883.5656	1417.8213	5961.9	5070.2
883.7092	1419.6613	6089.85	5205.65
883.8529	1421.5006	6276	5390
883.9965	1423.3391	6524.05	5639.35
884.1402	1425.1769	6869.1	5984.9
884.2838	1427.0139	7344.1	6459.5
884.4274	1428.8502	7956.3	7071.1
884.571	1430.6858	8495.25	7609.85
884.7146	1432.5206	8906.95	8021.4
884.8582	1434.3547	9149.85	8264.9
885.0018	1436.188	9178.5	8293.15
885.1453	1438.0206	9102.8	8217.95
885.2889	1439.8524	8974.1	8089.85
885.4324	1441.6835	8883.65	7997.4
885.5759	1443.5139	8792.65	7904.25
885.7194	1445.3435	8693.2	7809.75
885.8629	1447.1724	8679.5	7795.25
886.0064	1449.0005	8574.7	7688.6
886.1499	1450.8279	8493.1	7606.2
886.2933	1452.6545	8470.6	7587.1
886.4368	1454.4804	8500.7	7617
886.5802	1456.3056	8476.85	7584.95
886.7237	1458.13	8402.95	7516.9
886.8671	1459.9536	8184.45	7299.3
887.0105	1461.7766	7833.65	6949.35
887.1539	1463.5987	7422.95	6535.95
887.2972	1465.4202	7061.1	6177.7
887.4406	1467.2409	6715.65	5830.85
887.584	1469.0608	6457.3	5574.25
887.7273	1470.88	6212.6	5326.9
887.8706	1472.6984	6001	5115.2
888.0139	1474.5161	5814.65	4927.3
888.1572	1476.3331	5669.85	4785.6
888.3005	1478.1493	5533.25	4648.25
888.4438	1479.9648	5448.7	4565.5
888.5871	1481.7795	5365.05	4480.4
888.7303	1483.5935	5304.7	4421.95
888.8736	1485.4067	5256.4	4372.25
889.0168	1487.2192	5203.8	4318.4
889.16	1489.031	5154.7	4267.7
889.3032	1490.842	5124.3	4239.5
889.4464	1492.6522	5105.85	4223.5
889.5896	1494.4618	5048.3	4162.3
889.7327	1496.2705	5036.35	4152.6
889.8759	1498.0785	5019.55	4134.5
890.019	1499.8858	4992.85	4108.6
890.1622	1501.6924	4983.35	4098.75
890.3053	1503.4981	4956.1	4073.45
890.4484	1505.3032	4941.75	4056.6
890.5914	1507.1075	4926.3	4040.75
890.7345	1508.911	4886.4	3998.55
890.8776	1510.7138	4864.45	3979.2
891.0206	1512.5159	4827.85	3940.3
891.1637	1514.3172	4796.55	3911.5
891.3067	1516.1178	4761.25	3880.4
891.4497	1517.9176	4758.1	3868.8
891.5927	1519.7166	4735.7	3852.65
891.7357	1521.515	4714.05	3821.65
891.8786	1523.3126	4684.5	3798.9
892.0216	1525.1094	4669.35	3784.45
892.1645	1526.9055	4629.95	3748.55
892.3074	1528.7008	4624.25	3739.5
892.4503	1530.4954	4591.8	3705.25
892.5932	1532.2893	4597.05	3714.8
892.7361	1534.0824	4554.15	3664.4
892.879	1535.8747	4550.55	3666.55
893.0218	1537.6663	4551.25	3664.9
893.1647	1539.4572	4543.75	3659.75
893.3075	1541.2473	4543	3657
893.4503	1543.0367	4542.6	3659.15
893.5931	1544.8253	4533.5	3645.15
893.7359	1546.6132	4544.35	3657.15
893.8787	1548.4003	4532	3637.7
894.0214	1550.1867	4559.2	3666.4
894.1642	1551.9723	4570.3	3680.5
894.3069	1553.7572	4580.6	3694.55
894.4496	1555.5414	4599.6	3713.7
894.5923	1557.3247	4639.2	3753.55
894.735	1559.1074	4693.3	3809
894.8777	1560.8893	4747.1	3863.4
895.0204	1562.6705	4801.3	3915.55
895.163	1564.4509	4887.8	4003
895.3056	1566.2305	4940.55	4057.15
895.4482	1568.0094	5031.25	4147.55
895.5908	1569.7876	5093.65	4208.2
895.7334	1571.565	5156.95	4271.3
895.876	1573.3417	5172.2	4285.15
896.0186	1575.1176	5171.7	4288.8
896.1611	1576.8928	5169.9	4283.75
896.3036	1578.6672	5087.45	4202.35
896.4461	1580.4409	4987.95	4105.25
896.5886	1582.2138	4877.1	3991.7
896.7311	1583.986	4769.85	3886.5
896.8736	1585.7575	4685	3802.45
897.0161	1587.5282	4606.95	3724.15
897.1585	1589.2981	4565.1	3681.7
897.3009	1591.0673	4521.75	3637.45
897.4433	1592.8358	4522.2	3638.5
897.5857	1594.6035	4514.65	3628.1
897.7281	1596.3704	4516.95	3631.2
897.8705	1598.1366	4522.65	3639.35
898.0128	1599.9021	4545.05	3662.75
898.1551	1601.6668	4580	3693.05
898.2975	1603.4308	4618.1	3735.05
898.4398	1605.194	4696.05	3805.55
898.5821	1606.9564	4791.05	3904.55
898.7243	1608.7182	4895.55	4008.45
898.8666	1610.4791	5005.4	4121.2
899.0088	1612.2394	5197.6	4313.75
899.1511	1613.9988	5360.3	4474.9
899.2933	1615.7576	5557.75	4673.5
899.4355	1617.5156	5775.55	4888.3
899.5776	1619.2728	5971.65	5089.15
899.7198	1621.0293	6128.45	5246.1
899.862	1622.785	6209.6	5323.95
900.0041	1624.54	6142.7	5256.35
900.1462	1626.2942	6022.9	5137.05
900.2883	1628.0477	5814.15	4929.9
900.4304	1629.8005	5585.3	4697.15
900.5725	1631.5525	5386.95	4502.15
900.7145	1633.3037	5188.9	4305.05
900.8566	1635.0542	5047.75	4162.85
900.9986	1636.804	4936.35	4051.45
901.1406	1638.553	4933.85	3975.6
901.2826	1640.3013	4854.1	3969
901.4245	1642.0488	4806.4	3922.35
901.5665	1643.7955	4810.05	3926.95
901.7085	1645.5416	4854.65	3968.3
901.8504	1647.2868	4916.9	4032.55
901.9923	1649.0313	4981.7	4097.95
902.1342	1650.7751	5124.05	4239.4
902.2761	1652.5181	5293.95	4410.85
902.4179	1654.2604	5507.6	4624.35
902.5598	1656.0019	5811.2	4928.2
902.7016	1657.7427	6145.15	5260
902.8434	1659.4828	6453.55	5570.8
902.9852	1661.222	6681.85	5798.25
903.127	1662.9606	6693.8	5809
903.2687	1664.6984	6500.95	5617
903.4105	1666.4354	6163.8	5279.65
903.5522	1668.1717	5750.9	4867.3
903.6939	1669.9072	5291.85	4410.85
903.8356	1671.642	4934	4048.65
903.9773	1673.3761	4646.95	3766
904.119	1675.1094	4429.8	3543.55
904.2606	1676.8419	4266.25	3381.7
904.4022	1678.5737	4139.8	3256.95
904.5439	1680.3048	4019.95	3136.85
904.6855	1682.0351	3952.2	3069.1
904.827	1683.7646	3898.45	3012.2
904.9686	1685.4934	3872.3	2988.7
905.1101	1687.2215	3828.85	2941.95
905.2517	1688.9488	3789.15	2904.65
905.3932	1690.6754	3748.6	2865.45
905.5347	1692.4012	3727.2	2843.3
905.6761	1694.1263	3703.55	2821.55
905.8176	1695.8506	3681.85	2798.1
905.9591	1697.5742	3653.55	2769.7
906.1005	1699.297	3638.15	2757.3
906.2419	1701.0191	3620.05	2736.3
906.3833	1702.7404	3607.9	2724.75
906.5246	1704.461	3583.75	2698.15
906.666	1706.1808	3566.35	2680.45
906.8073	1707.8999	3553.8	2669.15
906.9487	1709.6182	3542.2	2659.2
907.09	1711.3358	3540.2	2656.5
907.2313	1713.0527	3504.45	2623.45
907.3725	1714.7688	3495.95	2607
907.5138	1716.4841	3487.5	2602.2
907.655	1718.1987	3481.5	2593.15
907.7962	1719.9126	3455.85	2572.8
907.9374	1721.6257	3428.95	2542.05
908.0786	1723.338	3448.9	2566.3
908.2198	1725.0496	3424.3	2539.75
908.3609	1726.7605	3414.2	2530.8
908.502	1728.4706	3397.85	2512.3
908.6431	1730.18	3375	2491.45
908.7842	1731.8886	3373.55	2489.35
908.9253	1733.5964	3368.5	2481.25
909.0664	1735.3036	3358	2473.15
909.2074	1737.0099	3341.7	2457.6
909.3484	1738.7156	3341	2458.8
909.4894	1740.4204	3324.35	2437.4
909.6304	1742.1246	3327.9	2443.05
909.7714	1743.8279	3308.35	2425.35
909.9123	1745.5306	3300.6	2416.65
910.0532	1747.2325	3278.8	2395
910.1941	1748.9336	3278.05	2394.6
910.335	1750.634	3259.8	2375.55
910.4759	1752.3336	3257.35	2374.6
910.6168	1754.0325	3262.85	2380.05
910.7576	1755.7307	3246.7	2364.1
910.8984	1757.4281	3249.85	2366.75
911.0392	1759.1247	3261.85	2371.45
911.18	1760.8206	3242.05	2355.65
911.3208	1762.5158	3227.9	2340.95
911.4615	1764.2102	3209.9	2328.9
911.6022	1765.9039	3207.2	2322.95
911.7429	1767.5968	3194.35	2308.75
911.8836	1769.289	3184.7	2302.3
912.0243	1770.9804	3185.55	2301.3
912.1649	1772.6711	3191.75	2308.55
912.3056	1774.361	3178.9	2294.65
912.4462	1776.0502	3175.95	2293.9
912.5868	1777.7386	3177.25	2289.7
912.7274	1779.4263	3165.15	2279.7
912.8679	1781.1132	3149.15	2264.25
913.0084	1782.7994	3136.5	2250.1
913.149	1784.4849	3137.7	2255.45
913.2895	1786.1696	3142.25	2240.5
913.4299	1787.8535	3121.4	2238.95
913.5704	1789.5367	3117.2	2234.6
913.7108	1791.2192	3121.35	2236.05
913.8513	1792.9009	3132.2	2222.55
913.9917	1794.5818	3096	2210.6
914.132	1796.2621	3088.7	2205.95
914.2724	1797.9415	3098.95	2216
914.4128	1799.6202	3083.7	2200.2
914.5531	1801.2982	3088.3	2205.5
914.6934	1802.9755	3070.75	2186.9
914.8337	1804.6519	3070.9	2186.45
914.9739	1806.3277	3050.3	2167.05
915.1142	1808.0027	3043.2	2158.75
915.2544	1809.6769	3048.75	2165.2
915.3946	1811.3504	3050.6	2166.9
915.5348	1813.0231	3039.2	2156.05
915.675	1814.6951	3026.85	2144.35
915.8151	1816.3664	3028.4	2144.6
915.9553	1818.0369	3022.75	2138.45
916.0954	1819.7067	3024.05	2140.75
916.2355	1821.3757	3010.65	2128.5
916.3755	1823.044	3017.65	2134.9
916.5156	1824.7115	3015.9	2133.2
916.6556	1826.3783	2997.95	2116.2
916.7956	1828.0443	2984.55	2104.45
916.9356	1829.7096	2986.55	2102.05
917.0756	1831.3741	2984.6	2099.4
917.2155	1833.0379	2980.05	2096.35
917.3555	1834.701	2978.5	2092.55
917.4954	1836.3633	2968.3	2083.25
917.6353	1838.0248	2950.45	2064.35
917.7751	1839.6856	2963.3	2078.55
917.915	1841.3457	2960.35	2077.3
918.0548	1843.005	2943.05	2059.8
918.1946	1844.6636	2938.1	2056.75
918.3344	1846.3214	2934.4	2048.5
918.4742	1847.9785	2926.9	2045.7
918.6139	1849.6349	2936.5	2050.95
918.7537	1851.2904	2932.3	2041
918.8934	1852.9453	2932.4	2049.7
919.0331	1854.5994	2913.05	2028.4
919.1727	1856.2528	2918.75	2028.95
919.3124	1857.9054	2910.75	2026.85
919.452	1859.5572	2904.45	2020.2
919.5916	1861.2083	2899.55	2015.2
919.7312	1862.8587	2894.25	2011.7
919.8708	1864.5084	2892.1	2009.2
920.0103	1866.1572	2872.25	1988.4
920.1498	1867.8054	2867.45	1984.55
920.2893	1869.4528	2871.5	1988.45
920.4288	1871.0994	2855.7	1973.9
920.5683	1872.7453	2850	1965.1
920.7077	1874.3905	2864.85	1963.35
920.8471	1876.0349	2840.9	1957.75
920.9865	1877.6786	2844.55	1959.1
921.1259	1879.3215	2841.35	1958.3
921.2653	1880.9637	2832.15	1946.85
921.4046	1882.6051	2842.4	1960.65
921.5439	1884.2458	2828.5	1944.55
921.6832	1885.8858	2828.25	1945.4
921.8225	1887.525	2813.1	1927.7
921.9617	1889.1634	2814.55	1931.1
922.101	1890.8011	2793	1910.2
922.2402	1892.4381	2789.05	1907.25
922.3794	1894.0743	2781.45	1897.1
922.5185	1895.7098	2783.35	1901.15
922.6577	1897.3446	2779.65	1896.05
922.7968	1898.9786	2784.5	1897.45
922.9359	1900.6118	2773	1891.05
923.075	1902.2443	2767.4	1880.85
923.214	1903.8761	2753.9	1872.5
923.3531	1905.5071	2751.4	1867.1
923.4921	1907.1374	2738.4	1855.2
923.6311	1908.7669	2744.9	1862.1
923.77	1910.3957	2741.4	1858.45
923.909	1912.0237	2732.55	1848.9
924.0479	1913.651	2735.65	1850.35
924.1868	1915.2776	2730.6	1848.25
924.3257	1916.9034	2711.15	1828.1
924.4646	1918.5285	2709.4	1827.5
924.6034	1920.1528	2704	1819
924.7422	1921.7764	2696.9	1814.7
924.881	1923.3992	2683.55	1799.7
925.0198	1925.0213	2680.65	1797.7
925.1586	1926.6427	2664.4	1781.9
925.2973	1928.2633	2878.15	1762.95
925.436	1929.8832	2687.15	1799.65
925.5747	1931.5023	2663.4	1781.95
925.7134	1933.1207	2654.65	1771.65
925.852	1934.7383	2640.45	1756.5
925.9906	1936.3552	2640.5	1755.75
926.1292	1937.9714	2640.7	1756
926.2678	1939.5868	2628.4	1743.25
926.4064	1941.2015	2617.2	1733.15
926.5449	1942.8154	2611.85	1728.65
926.6834	1944.4286	2601.75	1718.7
926.8219	1946.041	2622.6	1714.3
926.9604	1947.6528	2602.1	1713.6
927.0988	1949.2637	2575.05	1691.8
927.2372	1950.8739	2593.95	1712.05
927.3756	1952.4834	2575.7	1690.95
927.514	1954.0921	2579.75	1694.55
927.6523	1955.7001	2567.5	1678.55
927.7907	1957.3074	2570	1686.75
927.929	1958.9139	2548.1	1664.4
928.0673	1960.5197	2557.1	1673
928.2055	1962.1247	2543.75	1661.55
928.3438	1963.729	2530.6	1647.7
928.482	1965.3325	2546.45	1638.5
928.6202	1966.9353	2516.8	1631.65
928.7584	1968.5374	2516.85	1631.45
928.8965	1970.1387	2519	1633.9
929.0346	1971.7393	2505.1	1622.65
929.1727	1973.3392	2503.25	1618.2
929.3108	1974.9383	2492.75	1608.8
929.4489	1976.5366	2481	1599.4
929.5869	1978.1342	2486.85	1604.6
929.7249	1979.7311	2482.6	1597.35
929.8629	1981.3273	2484.4	1600
930.0009	1982.9227	2468.3	1582.15
930.1388	1984.5173	2458.85	1577.25
930.2767	1986.1112	2456.7	1571.95
930.4146	1987.7044	2441.95	1559.5
930.5525	1989.2968	2445.75	1561.05
930.6904	1990.8885	2456.35	1568.85
930.8282	1992.4795	2442.4	1557.95
930.966	1994.0697	2434.75	1550.5
931.1038	1995.6592	2431.45	1548.05
931.2415	1997.2479	2427.25	1543.2
931.3793	1998.8359	2426.15	1541
931.517	2000.4232	2401.85	1519.05
931.6547	2002.0097	2415.9	1534.1
931.7923	2003.5955	2404.45	1519.4
931.93	2005.1805	2405.75	1520
932.0676	2006.7648	2405.05	1520.9
932.2052	2008.3484	2388.2	1502.4
932.3427	2009.9312	2403.5	1517.9
932.4803	2011.5133	2387.15	1505.75
932.6178	2013.0946	2394.6	1508.1
932.7553	2014.6752	2385.8	1502.85
932.8928	2016.2551	2378.4	1493.7
933.0302	2017.8342	2375.6	1493.55
933.1676	2019.4126	2370.75	1489.1
933.305	2020.9902	2357.9	1474.9
933.4424	2022.5672	2364.75	1478.7
933.5798	2024.1433	2363.75	1470.85
933.7171	2025.7188	2351.75	1467.5
933.8544	2027.2935	2342.75	1457.55
933.9917	2028.8674	2338.65	1455.35
934.129	2030.4406	2332.45	1449.1
934.2662	2032.0131	2336.5	1452.25
934.4034	2033.5849	2332.1	1438.35
934.5406	2035.1559	2330.9	1445.95
934.6778	2036.7261	2325.4	1442.45
934.8149	2038.2957	2314.95	1431
934.952	2039.8645	2307.1	1423.45
935.0891	2041.4325	2310.65	1423.1
935.2262	2042.9998	2307.2	1423.75
935.3632	2044.5664	2313.9	1428.25
935.5002	2046.1323	2292.8	1409.45
935.6372	2047.6974	2291.1	1407
935.7742	2049.2617	2283.65	1400.5
935.9111	2050.8254	2320.35	1401.15
936.048	2052.3883	2297.6	1411.45
936.1849	2053.9504	2284.05	1398.65
936.3218	2055.5118	2257.6	1372.65
936.4586	2057.0725	2283.8	1395.2
936.5955	2058.6325	2266.95	1380.2
936.7323	2060.1917	2263.85	1379.25
936.869	2061.7502	2267.3	1379.9
937.0058	2063.3079	2252.9	1369.7
937.1425	2064.8649	2255	1367.05
937.2792	2066.4212	2253.25	1366.1
937.4159	2067.9767	2246.4	1363
937.5525	2069.5315	2239.4	1355.3
937.6891	2071.0856	2220.95	1336
937.8257	2072.6389	2228.15	1342.25
937.9623	2074.1915	2215.9	1331.3
938.0989	2075.7433	2217.05	1328
938.2354	2077.2945	2223.05	1339.5
938.3719	2078.8448	2213.45	1329.1
938.5084	2080.3945	2203.2	1320.5
938.6448	2081.9434	2214.4	1328.75
938.7812	2083.4916	2196.95	1315.55
938.9176	2085.039	2185.6	1298.3
939.054	2086.5857	2184.7	1301.8
939.1903	2088.1317	2187.15	1303.05
939.3267	2089.677	2176.25	1291.85
939.463	2091.2215	2172.6	1287.8
939.5992	2092.7652	2174.6	1289.2
939.7355	2094.3083	2172.95	1286.7
939.8717	2095.8506	2168.1	1283.4
940.0079	2097.3921	2165.7	1282.3
940.1441	2098.933	2159.25	1275.9
940.2802	2100.4731	2169.65	1283.9
940.4163	2102.0124	2160.75	1269.55
940.5524	2103.5511	2145.25	1261.85
940.6885	2105.089	2151.25	1265.5
940.8245	2106.6261	2146	1259.75
940.9606	2108.1626	2148.75	1261.3
941.0965	2109.6983	2163.85	1251.4
941.2325	2111.2332	2139.1	1252.85
941.3684	2112.7675	2133.15	1248.05
941.5044	2114.301	2125.75	1240.9
941.6403	2115.8337	2137.1	1252.8
941.7761	2117.3657	2126.05	1242.75
941.912	2118.897	2117.25	1233.35
942.0478	2120.4276	2128.15	1235.6
942.1835	2121.9575	2107.05	1224
942.3193	2123.4866	2128.15	1228.95
942.455	2125.0149	2114.35	1227.2
942.5907	2126.5426	2105.4	1220.85
942.7264	2128.0695	2102.75	1213.95
942.8621	2129.5956	2090.7	1207.75
942.9977	2131.1211	2102.9	1213.8
943.1333	2132.6458	2095	1209.05
943.2689	2134.1698	2093.45	1207.7
943.4044	2135.693	2090.65	1202.3
943.54	2137.2155	2090.3	1204.15
943.6755	2138.7373	2086.45	1199.75
943.8109	2140.2584	2083.05	1197.15
943.9464	2141.7787	2083.9	1194.95
944.0818	2143.2983	2069.05	1184.95
944.2172	2144.8171	2064.95	1180.3
944.3526	2146.3353	2069.45	1183.6
944.4879	2147.8527	2059.95	1174.05
944.6232	2149.3693	2071.65	1187.3
944.7585	2150.8853	2054.9	1168.75
944.8938	2152.4005	2051.3	1164.15
945.029	2153.9149	2044.2	1157.1
945.1642	2155.4287	2046	1161.85
945.2994	2156.9417	2037	1149.6
945.4346	2158.454	2048.6	1160.75
945.5697	2159.9655	2042.2	1156
945.7048	2161.4764	2038.15	1155
945.8399	2162.9865	2029.95	1144.25
945.9749	2164.4958	2023.8	1135.85
946.1099	2166.0045	2027.2	1136.45
946.2449	2167.5124	2026.85	1140.6
946.3799	2169.0195	2015.8	1131.05
946.5148	2170.526	2023.4	1137.1
946.6498	2172.0317	2010.7	1126.9
946.7846	2173.5367	2002.4	1115
946.9195	2175.0409	2015.55	1131.45
947.0543	2176.5445	2006.75	1122.6
947.1891	2178.0473	1995.45	1111.8
947.3239	2179.5494	2002.05	1112.4
947.4587	2181.0507	1998.4	1112.1
947.5934	2182.5513	2003.6	1117.05
947.7281	2184.0512	1988.9	1103.1
947.8628	2185.5504	1979.8	1095.2
947.9974	2187.0488	1982.5	1096.3
948.132	2188.5465	1981.3	1093.4
948.2666	2190.0435	1971.9	1083.8
948.4012	2191.5397	1963.85	1077.95
948.5357	2193.0353	1964.05	1079.85
948.6702	2194.5301	1963.55	1077.45
948.8047	2196.0241	1967.7	1083.35
948.9392	2197.5175	1962.25	1078.2
949.0736	2199.0101	1969.4	1080.7
949.208	2200.502	1951.1	1064.5
949.3424	2201.9931	1944.35	1058.1
949.4767	2203.4835	1941.8	1054.8
949.611	2204.9733	1942.1	1049.45
949.7453	2206.4622	1938	1052.3
949.8796	2207.9505	1939	1052.4
950.0138	2209.438	1933.35	1049.35
950.148	2210.9248	1923.25	1034.05
950.2822	2212.4109	1917.05	1031.9
950.4164	2213.8962	1920.5	1029.2
950.5505	2215.3809	1921.7	1034.3
950.6846	2216.8648	1910	1022.3
950.8186	2218.3479	1924.2	1032.3
950.9527	2219.8304	1911.55	1023.1
951.0867	2221.3121	1903.85	1015.65
951.2207	2222.7931	1895.2	1010.75
951.3546	2224.2733	1900.9	1013.45
951.4886	2225.7529	1893.1	1004.65
951.6225	2227.2317	1893.8	1002.95
951.7563	2228.7098	1888.6	1002.65
951.8902	2230.1872	1890.1	1003.75
952.024	2231.6638	1881.15	994.05
952.1578	2233.1397	1884.5	992.65
952.2916	2234.6149	1879.3	994
952.4253	2236.0894	1865.45	978.2
952.559	2237.5632	1868.5	972.65
952.6927	2239.0362	1862.2	977
952.8263	2240.5085	1856.8	968.75
952.9599	2241.9801	1851.7	964.45
953.0935	2243.4509	1852.2	966.1
953.2271	2244.921	1851.55	964.7
953.3606	2246.3904	1841.25	952.55
953.4941	2247.8591	1839.95	954
953.6276	2249.3271	1842.75	956.85
953.7611	2250.7943	1834.95	948.1
953.8945	2252.2608	1840.25	953.65
954.0279	2253.7266	1828.5	942.25
954.1612	2255.1917	1827.7	943.45
954.2946	2256.656	1826.95	939.3
954.4279	2258.1197	1822.85	938.35
954.5612	2259.5826	1821	933.35
954.6944	2261.0447	1817.05	927
954.8276	2262.5062	1808.95	920.95
954.9608	2263.9669	1812.45	926.95
955.094	2265.4269	1803.45	918.3
955.2271	2266.8862	1807.7	921.6
955.3602	2268.3448	1811.7	925.9
955.4933	2269.8026	1800.65	913.6
955.6264	2271.2598	1807.5	922.4
955.7594	2272.7162	1795.3	909.95
955.8924	2274.1719	1800.7	913.85
956.0253	2275.6268	1798.05	911.65
956.1583	2277.0811	1791.35	902.6
956.2912	2278.5346	1793.95	908.05
956.4241	2279.9874	1785.4	898.2
956.5569	2281.4395	1793.3	905.95
956.6897	2282.8908	1789.25	897.1
956.8225	2284.3414	1786.2	897.55
956.9553	2285.7914	1781.1	894.85
957.088	2287.2406	1777.25	889.9
957.2207	2288.689	1780.8	895.3
957.3534	2290.1368	1769.6	882.65
957.486	2291.5838	1774.3	887.4
957.6186	2293.0302	1775.05	887.25
957.7512	2294.4758	1767.85	882.8
957.8838	2295.9206	1769.25	879.65
958.0163	2297.3648	1758.75	871.1
958.1488	2298.8082	1745.15	857.3
958.2813	2300.251	1759.05	872.4
958.4137	2301.693	1761.75	871.95
958.5461	2303.1343	1745.35	857.8
958.6785	2304.5748	1748.95	860.85
958.8108	2306.0147	1752.15	864.6
958.9432	2307.4538	1748.75	861.2
959.0754	2308.8922	1730.05	844.95
959.2077	2310.3299	1732.55	845.95
959.3399	2311.7669	1727.9	840.4
959.4721	2313.2031	1726.65	840.3
959.6043	2314.6387	1721.95	833.3
959.7365	2316.0735	1710.45	823.6
959.8686	2317.5076	1719.45	832.65
960.0006	2318.941	1720.5	832.8
960.1327	2320.3737	1713.85	828.9
960.2647	2321.8056	1717.8	829.5
960.3967	2323.2369	1704.3	816.6
960.5287	2324.6674	1704.75	815.15
960.6606	2326.0972	1718.25	830.25
960.7925	2327.5263	1709.65	823.2
960.9244	2328.9547	1705.5	817.8
961.0562	2330.3823	1713.1	826.65
961.1881	2331.8092	1705.85	816.95
961.3198	2333.2355	1699.35	813.05
961.4516	2334.661	1695.85	808.4
961.5833	2336.0858	1694.35	806.55
961.715	2337.5098	1686	798.1
961.8467	2338.9332	1686	799.5
961.9783	2340.3558	1692.45	801.55
962.1099	2341.7778	1685.25	798.7
962.2415	2343.199	1691.85	802.65
962.373	2344.6195	1685.05	798.25
962.5045	2346.0393	1677.4	790.1
962.636	2347.4583	1684.4	797.65
962.7675	2348.8767	1681.1	795.05
962.8989	2350.2943	1672.35	784.85
963.0303	2351.7113	1679.8	792.7
963.1617	2353.1275	1678.95	792.4
963.293	2354.543	1697.65	787.75
963.4243	2355.9578	1675.2	789.25
963.5556	2357.3718	1663.55	776.95
963.6868	2358.7852	1666.05	779.1
963.818	2360.1978	1661.2	771.7
963.9492	2361.6098	1657.3	771.35
964.0803	2363.021	1661.2	773.6
964.2114	2364.4315	1653.75	767.85
964.3425	2365.8413	1653.9	767.5
964.4736	2367.2504	1655.2	771.15
964.6046	2368.6587	1645.6	760.65
964.7356	2370.0664	1646.75	761
964.8666	2371.4733	1647.6	761.75
964.9975	2372.8795	1648.35	763.3
965.1284	2374.285	1637.05	750.5
965.2593	2375.6899	1625.95	742.35
965.3901	2377.0939	1630.45	747.7
965.5209	2378.4973	1627.75	742.45
965.6517	2379.9	1625.35	739.45
965.7825	2381.3019	1621.6	737.05
965.9132	2382.7032	1621.75	735.75
966.0439	2384.1037	1621.7	739.35
966.1745	2385.5035	1609.95	725.05
966.3051	2386.9027	1617.05	730.75
966.4357	2388.3011	1624.8	738.7
966.5663	2389.6987	1617.8	734.15
966.6968	2391.0957	1607.95	726
966.8273	2392.492	1595.2	713.5
966.9578	2393.8876	1607.1	722.05
967.0882	2395.2824	1589.7	705.6
967.2186	2396.6765	1591.35	707.45
967.349	2398.07	1584.4	701.7
967.4793	2399.4627	1593.05	708.25
967.6097	2400.8547	1587.25	704.25
967.7399	2402.246	1587.85	698.9
967.8702	2403.6366	1586.35	702.1
968.0004	2405.0265	1575.55	692.45
968.1306	2406.4156	1580.85	690.4
968.2607	2407.8041	1575.6	687.75
968.3909	2409.1918	1577.85	693.25
968.521	2410.5789	1574.95	692.15
968.651	2411.9652	1578.15	691.65
968.781	2413.3508	1574.2	689.95
968.911	2414.7358	1571.95	686.7
969.041	2416.12	1563.3	680.1
969.1709	2417.5035	1574.1	692.5
969.3008	2418.8863	1568.45	683.1
969.4307	2420.2684	1564.5	681.15
969.5606	2421.6497	1560.2	675
969.6904	2423.0304	1559.4	675.7
969.8201	2424.4104	1557.65	673.45
969.9499	2425.7896	1557	665.4
970.0796	2427.1682	1552.3	666.9
970.2093	2428.546	1554.65	667.15
970.3389	2429.9232	1546.25	661.3
970.4685	2431.2996	1552.25	669
970.5981	2432.6753	1538.35	654
970.7277	2434.0503	1542.7	657.8
970.8572	2435.4246	1533.15	649.05
970.9867	2436.7982	1533.1	646.55
971.1161	2438.1711	1536.95	655.5
971.2456	2439.5433	1533.35	649.2
971.375	2440.9148	1537.8	647.9
971.5043	2442.2856	1527.4	644.05
971.6336	2443.6557	1524.65	639.45
971.7629	2445.025	1519.55	635.3
971.8922	2446.3937	1523.95	639.9
972.0214	2447.7617	1522.45	638.9
972.1506	2449.1289	1524.25	637.5
972.2798	2450.4955	1527.6	638.95
972.4089	2451.8613	1514	630.2
972.538	2453.2265	1513.25	628.8
972.6671	2454.5909	1514.25	628.4
972.7961	2455.9546	1520.7	637.05
972.9251	2457.3177	1506	621.35
973.0541	2458.68	1507.4	622.35
973.1831	2460.0416	1509.45	625.4
973.312	2461.4025	1507.5	619.6
973.4408	2462.7627	1525.25	628.9
973.5697	2464.1222	1509.8	625.4
973.6985	2465.4811	1508.95	623.5
973.8273	2466.8392	1510	623.6
973.956	2468.1966	1501.3	614.4
974.0847	2469.5533	1501.9	613.15
974.2134	2470.9093	1495.6	610.5
974.3421	2472.2645	1499.6	613.8
974.4707	2473.6191	1491.7	608.6
974.5993	2474.973	1495.05	609
974.7278	2476.3262	1496.55	612.05
974.8563	2477.6787	1494.55	610.85
974.9848	2479.0305	1491.55	607.55
975.1132	2480.3816	1489.1	600.4
975.2417	2481.7319	1491.9	607.65
975.37	2483.0816	1492.4	606.05
975.4984	2484.4306	1487.45	603.3
975.6267	2485.7789	1483.6	599.4
975.755	2487.1264	1479.6	590.15
975.8833	2488.4733	1474.6	589.75
976.0115	2489.8195	1486	583.85
976.1397	2491.165	1473.8	584.55
976.2678	2492.5097	1469.9	581.05
976.3959	2493.8538	1472.75	588.35
976.524	2495.1972	1475.8	591.6
976.6521	2496.5398	1465.75	580.7
976.7801	2497.8818	1463.9	575.7
976.9081	2499.2231	1463.7	581
977.036	2500.5637	1461.3	574.1
977.164	2501.9035	1459.1	574
977.2918	2503.2427	1461.8	572.75
977.4197	2504.5812	1454.45	567.75
977.5475	2505.919	1455.3	568.1
977.6753	2507.256	1448.55	562.65
977.8031	2508.5924	1451.35	568.05
977.9308	2509.9281	1456.95	565.3
978.0585	2511.2631	1452.85	566.05
978.1861	2512.5974	1442.75	556.95
978.3137	2513.9309	1440.8	555
978.4413	2515.2638	1462.4	550.1
978.5689	2516.596	1447.7	563.2
978.6964	2517.9275	1438.15	551.25
978.8239	2519.2583	1442.8	556.55
978.9513	2520.5884	1441.3	555.55
979.0788	2521.9178	1432.55	544.75
979.2062	2523.2465	1435.85	550.25
979.3335	2524.5745	1429.8	544.3
979.4608	2525.9018	1430.5	544.8
979.5881	2527.2284	1432.85	550
979.7154	2528.5543	1433.4	550.2
979.8426	2529.8796	1428.45	543.55
979.9698	2531.2041	1431.65	546.15
980.0969	2532.5279	1420	533.6
980.224	2533.851	1430.45	543.05
980.3511	2535.1735	1428.85	544.35
980.4781	2536.4952	1418.55	534.4
980.6052	2537.8163	1418.1	531.8
980.7321	2539.1366	1415.9	534.05
980.8591	2540.4562	1418.3	529.9
980.986	2541.7752	1419.5	534.75
981.1129	2543.0935	1420.4	533.5
981.2397	2544.411	1415.6	528.55
981.3665	2545.7279	1418.8	533.75
981.4933	2547.0441	1410.15	523.4
981.62	2548.3596	1419.95	532.5
981.7467	2549.6744	1412.8	528.3
981.8734	2550.9885	1420.3	526.05
982.0001	2552.3019	1405.55	523.5
982.1267	2553.6146	1408.05	522.3
982.2532	2554.9266	1401.15	513.55
982.3798	2556.2379	1403.65	517.65
982.5063	2557.5485	1405.75	521
982.6327	2558.8585	1404.3	510.4
982.7592	2560.1677	1398.9	509.5
982.8856	2561.4762	1400.05	513.55
983.0119	2562.7841	1396.7	507.1
983.1383	2564.0913	1394.75	510.05
983.2646	2565.3977	1395.1	511
983.3908	2566.7035	1396.75	512.9
983.517	2568.0086	1398.2	510.8
983.6432	2569.313	1395.55	508.4
983.7694	2570.6167	1395.6	506.2
983.8955	2571.9197	1381.9	495.9
984.0216	2573.222	1388.4	498
984.1476	2574.5236	1391.25	503.15
984.2737	2575.8246	1387.9	499.1
984.3996	2577.1248	1392.15	504.25
984.5256	2578.4244	1385.9	499.8
984.6515	2579.7232	1391.65	504.65
984.7774	2581.0214	1419.2	503.95
984.9032	2582.3189	1388.2	503.5
985.029	2583.6157	1394.1	505.1
985.1548	2584.9118	1397.15	512
985.2806	2586.2072	1385.65	501
985.4063	2587.5019	1391.1	504.6
985.5319	2588.7959	1396.05	510.1
985.6576	2590.0893	1402.3	514.4
985.7832	2591.3819	1396.35	513.25
985.9087	2592.6739	1395.15	510.1
986.0343	2593.9652	1403	516.3
986.1597	2595.2557	1395.65	508.7
986.2852	2596.5456	1402.9	515.5
986.4106	2597.8348	1398.45	513.3
986.536	2599.1234	1394.2	510.7
986.6614	2600.4112	1401.1	513.8
986.7867	2601.6983	1402.05	513.65
986.912	2602.9848	1403.9	517.8
987.0372	2604.2705	1403.85	512.7
987.1624	2605.5556	1397.2	508.7
987.2876	2606.84	1397.05	511.1
987.4128	2608.1237	1393.05	505
987.5379	2609.4067	1396.4	511.3
987.6629	2610.689	1402.55	506.9
987.788	2611.9707	1390.2	501.6
987.913	2613.2516	1391.95	500.9
988.0379	2614.5319	1389.1	503.5
988.1629	2615.8115	1384.15	497
988.2878	2617.0903	1383.4	494.45
988.4126	2618.3685	1385.2	495.3
988.5375	2619.6461	1385.75	499.3
988.6622	2620.9229	1384.5	498.65
988.787	2622.199	1387	500.05
988.9117	2623.4745	1382.1	495.5
989.0364	2624.7493	1387.5	499.45
989.161	2626.0234	1382.5	498.35
989.2857	2627.2968	1378.65	492.75
989.4102	2628.5695	1382	495.45
989.5348	2629.8415	1376.9	491.3
989.6593	2631.1128	1382.85	495.4
989.7837	2632.3835	1381	496.15
989.9082	2633.6535	1382.95	494.75
990.0326	2634.9228	1379.3	494.5
990.1569	2636.1914	1375.75	489.5
990.2812	2637.4593	1377.75	489.3
990.4055	2638.7265	1379.15	491
990.5298	2639.9931	1380.3	493.2
990.654	2641.259	1372.45	487.8
990.7782	2642.5242	1377.75	490.35
990.9023	2643.7887	1370.45	484.45
991.0264	2645.0525	1368.3	482.6
991.1505	2646.3156	1369.5	481.5
991.2745	2647.5781	1366.25	480.5
991.3985	2648.8398	1365.9	478.5
991.5225	2650.1009	1398.3	474.4
991.6464	2651.3613	1370.55	484.6
991.7703	2652.6211	1362.9	476.65
991.8942	2653.8801	1361.05	475.1
992.018	2655.1385	1367	479.3
992.1418	2656.3961	1359.85	474.1
992.2655	2657.6531	1366.05	478.85
992.3892	2658.9094	1360.6	475.4
992.5129	2660.1651	1364.45	478.35
992.6366	2661.42	1359.45	473.75
992.7602	2662.6743	1364.85	477.15
992.8837	2663.9279	1362.3	477.1
993.0073	2665.1808	1367.85	480.85
993.1307	2666.433	1370.3	481.75
993.2542	2667.6846	1366.65	481.05
993.3776	2668.9354	1373.8	483.55
993.501	2670.1856	1372	484.25
993.6244	2671.4351	1375.8	491
993.7477	2672.6839	1379.55	491
993.8709	2673.9321	1379.2	494.05
993.9942	2675.1795	1384.45	499.05
994.1174	2676.4263	1386.7	499.4
994.2405	2677.6724	1383.65	496.55
994.3637	2678.9179	1390.95	503.4
994.4868	2680.1626	1388.45	502.65
994.6098	2681.4067	1382.15	495.5
994.7328	2682.6501	1380.25	495.5
994.8558	2683.8928	1387.15	500.4
994.9788	2685.1348	1386.5	500.25
995.1017	2686.3761	1380.55	494.1
995.2245	2687.6168	1378.45	492.9
995.3474	2688.8568	1376.8	490.15
995.4702	2690.0961	1373.7	489.05
995.5929	2691.3348	1364.95	475.15
995.7156	2692.5727	1370	482.8
995.8383	2693.81	1358.15	472.95
995.961	2695.0466	1355.6	470.5
996.0836	2696.2826	1366.5	480.2
996.2062	2697.5178	1363.1	472.85
996.3287	2698.7524	1360.75	475.15
996.4512	2699.9863	1367.75	479.4
996.5737	2701.2195	1364.55	479.15
996.6961	2702.452	1368.25	479.75
996.8185	2703.6839	1369.25	483.2
996.9408	2704.9151	1372.55	486.15
997.0631	2706.1456	1381.5	494.6
997.1854	2707.3755	1386.25	497.9
997.3077	2708.6046	1392.15	502.7
997.4299	2709.8331	1396.2	509.3
997.552	2711.0609	1409.1	521.55
997.6742	2712.2881	1412.6	526.75
997.7963	2713.5145	1424.9	535.3
997.9183	2714.7403	1435.45	549.9
998.0403	2715.9654	1439.5	550.65
998.1623	2717.1899	1473.25	573.2
998.2842	2718.4136	1465.8	577.6
998.4062	2719.6367	1469.55	583.45
998.528	2720.8591	1491.35	598.6
998.6498	2722.0809	1496.1	608.5
998.7716	2723.3019	1504.65	613.55
998.8934	2724.5223	1517.8	629.9
999.0151	2725.7421	1519.05	631.15
999.1368	2726.9611	1524.3	636
999.2584	2728.1795	1521.7	629.45
999.38	2729.3972	1507.2	620.55
999.5016	2730.6142	1509.1	607.15
999.6231	2731.8306	1483.6	595.35
999.7446	2733.0462	1462.25	571.2
999.8661	2734.2612	1464.7	571.25
999.9875	2735.4756	1441.7	552.6
1000.1089	2736.6892	1426.65	537.65
1000.2302	2737.9022	1414.2	531
1000.3515	2739.1145	1396.7	509.5
1000.4728	2740.3262	1388.8	494.25
1000.594	2741.5372	1378	493.3
1000.7152	2742.7475	1365.85	479.35
1000.8363	2743.9571	1362	475.4
1000.9575	2745.1661	1356.1	462.55
1001.0785	2746.3744	1340	452.2
1001.1996	2747.582	1334.9	448.05
1001.3206	2748.7889	1331.95	442.05
1001.4415	2749.9952	1320.15	433.1
1001.5625	2751.2008	1319.85	432.15
1001.6833	2752.4057	1314.8	426.65
1001.8042	2753.61	1314	427.5
1001.925	2754.8136	1317.4	428.45
1002.0458	2756.0165	1305.5	419.35
1002.1665	2757.2188	1311.05	427.2
1002.2872	2758.4204	1309.95	426
1002.4078	2759.6213	1314.35	425.8
1002.5285	2760.8215	1319.4	427.6
1002.649	2762.0211	1307.8	418.45
1002.7696	2763.22	1313.65	423.6
1002.8901	2764.4182	1302.6	413.85
1003.0106	2765.6158	1310	425.2
1003.131	2766.8127	1300.6	416
1003.2514	2768.009	1295.6	408.8
1003.3717	2769.2045	1296.1	409.2
1003.492	2770.3994	1295.6	407.25
1003.6123	2771.5936	1294.2	407.65
1003.7325	2772.7872	1286.4	401.75
1003.8527	2773.9801	1289.1	402.05
1003.9729	2775.1723	1309.8	404.95
1004.093	2776.3639	1290.3	405.55
1004.2131	2777.5548	1289.55	401.9
1004.3331	2778.745	1289.35	403.9
1004.4531	2779.9346	1295.25	410.6
1004.5731	2781.1235	1298.85	409.55
1004.693	2782.3117	1301.2	414.75
1004.8129	2783.4992	1300.65	413.25
1004.9328	2784.6861	1306.9	420.6
1005.0526	2785.8723	1316.6	429.55
1005.1723	2787.0579	1322.45	434.95
1005.2921	2788.2428	1328.45	441.65
1005.4118	2789.427	1335.25	451
1005.5314	2790.6106	1345	457.75
1005.651	2791.7935	1352.15	463.8
1005.7706	2792.9757	1366.25	481.3
1005.8902	2794.1573	1383.2	495.05
1006.0097	2795.3382	1396.05	510.85
1006.1291	2796.5184	1408.05	523.3
1006.2485	2797.698	1419	529.25
1006.3679	2798.8769	1439.15	553.35
1006.4873	2800.0551	1457.95	570.8
1006.6066	2801.2327	1479.3	590.85
1006.7258	2802.4096	1492.05	607.25
1006.8451	2803.5859	1505.75	618.7
1006.9642	2804.7615	1527.25	639.75
1007.0834	2805.9364	1555.45	669.45
1007.2025	2807.1106	1586.5	701.3
1007.3216	2808.2842	1615.55	727.2
1007.4406	2809.4572	1638	749.35
1007.5596	2810.6294	1681.15	794.55
1007.6785	2811.801	1707.75	821.2
1007.7975	2812.972	1750.05	865.05
1007.9163	2814.1423	1796.4	908.45
1008.0352	2815.3119	1846.4	960.15
1008.154	2816.4808	1893.15	1007.15
1008.2727	2817.6491	1932.9	1048
1008.3914	2818.8167	1980.8	1094.4
1008.5101	2819.9837	2035.15	1144.2
1008.6288	2821.15	2056.35	1169.5
1008.7474	2822.3157	2117.95	1231.55
1008.8659	2823.4807	2151.55	1266.15
1008.9844	2824.645	2204.95	1318.4
1009.1029	2825.8086	2240.45	1356.1
1009.2214	2826.9716	2278.8	1393.45
1009.3398	2828.134	2316.95	1431.75
1009.4581	2829.2957	2339.45	1453.4
1009.5764	2830.4567	2368.2	1481.6
1009.6947	2831.617	2390.4	1503.85
1009.813	2832.7767	2398.45	1511.75
1009.9312	2833.9358	2396.9	1509.7
1010.0493	2835.0941	2390.5	1501.35
1010.1675	2836.2519	2382.6	1497.15
1010.2855	2837.4089	2372.85	1482.6
1010.4036	2838.5653	2372.5	1487
1010.5216	2839.7211	2366.45	1481.4
1010.6396	2840.8761	2370.75	1482.5
1010.7575	2842.0306	2393	1509
1010.8754	2843.1843	2424.35	1538
1010.9932	2844.3374	2485	1599.05
1011.111	2845.4899	2517.75	1630.75
1011.2288	2846.6417	2592.25	1706.6
1011.3465	2847.7928	2659.8	1772.4
1011.4642	2848.9433	2748.8	1863.85
1011.5818	2850.0931	2818.95	1933.15
1011.6995	2851.2422	2897.7	2011.05
1011.817	2852.3907	2968.05	2080.95
1011.9345	2853.5385	3034.3	2143.7
1012.052	2854.6857	3105.45	2194
1012.1695	2855.8323	3135.3	2250.65
1012.2869	2856.9781	3176.1	2289.95
1012.4042	2858.1233	3232.7	2345.9
1012.5216	2859.2679	3259.65	2373.8
1012.6389	2860.4118	3311.65	2425.35
1012.7561	2861.555	3350.65	2458.25
1012.8733	2862.6976	3388.05	2499
1012.9905	2863.8395	3417.4	2531.75
1013.1076	2864.9808	3442.3	2556
1013.2247	2866.1214	3456.3	2571.8
1013.3417	2867.2614	3462.75	2576.7
1013.4587	2868.4007	3478.65	2590.9
1013.5757	2869.5393	3502.6	2615.35
1013.6926	2870.6773	3504.5	2616.35
1013.8095	2871.8146	3497.75	2608.1
1013.9263	2872.9513	3520.3	2632.35
1014.0431	2874.0874	3509.3	2621.4
1014.1599	2875.2227	3519.55	2632.85
1014.2766	2876.3574	3493.85	2605.05
1014.3933	2877.4915	3470.7	2585.2
1014.51	2878.6249	3439.05	2553.55
1014.6266	2879.7577	3429.95	2543.3
1014.7431	2880.8898	3402.45	2505.9
1014.8596	2882.0212	3387.85	2502.8
1014.9761	2883.152	3387.3	2499.7
1015.0925	2884.2821	3369.95	2483.3
1015.2089	2885.4116	3352.55	2468
1015.3253	2886.5405	3362.7	2479
1015.4416	2887.6686	3362.95	2473.05
1015.5579	2888.7962	3377.7	2491.3
1015.6741	2889.923	3390.5	2506.1
1015.7903	2891.0493	3397.35	2512.35
1015.9065	2892.1748	3405	2520.05
1016.0226	2893.2997	3412.45	2528.45
1016.1387	2894.424	3427.1	2540.7
1016.2547	2895.5476	3448.75	2563.65
1016.3707	2896.6706	3466.75	2581.2
1016.4866	2897.7929	3486.45	2600.5
1016.6025	2898.9145	3529.1	2641.55
1016.7184	2900.0355	3548.05	2660.55
1016.8342	2901.1559	3578.2	2691.35
1016.95	2902.2756	3632.55	2746.35
1017.0658	2903.3946	3655.3	2771.85
1017.1815	2904.513	3681.8	2793.1
1017.2971	2905.6308	3690.65	2804.8
1017.4127	2906.7479	3715.35	2828.35
1017.5283	2907.8643	3746.55	2858.05
1017.6439	2908.9801	3750.3	2863.1
1017.7594	2910.0953	3773	2888.6
1017.8748	2911.2098	3771.3	2882.7
1017.9902	2912.3236	3775.3	2882.25
1018.1056	2913.4368	3754.2	2865.8
1018.2209	2914.5494	3734.25	2847.35
1018.3362	2915.6613	3700.15	2807.15
1018.4515	2916.7725	3678.15	2789.75
1018.5667	2917.8831	3644.55	2756.9
1018.6819	2918.9931	3620.35	2731.6
1018.797	2920.1024	3607.75	2720.55
1018.9121	2921.211	3590.4	2703.4
1019.0271	2922.319	3572.55	2686
1019.1421	2923.4264	3543.25	2659.6
1019.2571	2924.5331	3539.7	2652.25
1019.372	2925.6391	3523.8	2638.75
1019.4869	2926.7445	3518	2632.25
1019.6017	2927.8493	3512.65	2627.05
1019.7165	2928.9534	3500.8	2616.1
1019.8313	2930.0569	3491.3	2603.4
1019.946	2931.1597	3494.95	2608.9
1020.0606	2932.2619	3486.65	2601
1020.1753	2933.3634	3478.05	2592.3
1020.2899	2934.4643	3471.95	2578.5
1020.4044	2935.5645	3448.85	2556.6
1020.5189	2936.6641	3423.55	2532.75
1020.6334	2937.763	3375.5	2490.1
1020.7478	2938.8613	3340.25	2454.55
1020.8622	2939.959	3267.45	2378
1020.9765	2941.056	3209	2322.85
1021.0908	2942.1523	3134.7	2247.65
1021.2051	2943.248	3056.45	2169.2
1021.3193	2944.3431	2952.75	2066.85
1021.4334	2945.4375	2850.65	1965.7
1021.5476	2946.5313	2746.7	1862
1021.6617	2947.6244	2651.25	1764.75
1021.7757	2948.7169	2581.85	1695.3
1021.8897	2949.8087	2476	1589.55
1022.0037	2950.8999	2390.4	1504.55
1022.1176	2951.9904	2311.5	1424.1
1022.2315	2953.0803	2244.9	1357.05
1022.3453	2954.1696	2182.85	1297.55
1022.4591	2955.2582	2139.25	1253.6
1022.5728	2956.3462	2095.4	1207.35
1022.6865	2957.4335	2056.05	1169.7
1022.8002	2958.5202	2026.85	1138.15
1022.9138	2959.6062	1996.25	1111.25
1023.0274	2960.6916	1972.1	1087.45
1023.141	2961.7764	1960.5	1074.45
1023.2545	2962.8605	1939.3	1054.4
1023.3679	2963.9439	1931.65	1047
1023.4813	2965.0267	1924.95	1039.1
1023.5947	2966.1089	1942.8	1031.85
1023.708	2967.1905	1907.5	1020.8
1023.8213	2968.2714	1912.3	1025.35
1023.9346	2969.3516	1905.3	1018.95
1024.0478	2970.4312	1922.05	1029.7
1024.1609	2971.5102	1911.45	1026.3
1024.274	2972.5885	1905.65	1020.55
1024.3871	2973.6662	1920.2	1029.1
1024.5002	2974.7432	1915.55	1029.45
1024.6132	2975.8196	1895.85	1009.8
1024.7261	2976.8954	1889.9	1004.5
1024.839	2977.9705	1880.35	994.6
1024.9519	2979.045	1880.55	993.65
1025.0647	2980.1188	1861.55	978.6
1025.1775	2981.192	1830.85	948.45
1025.2902	2982.2645	1825.95	940.35
1025.4029	2983.3364	1799.95	912.65
1025.5156	2984.4077	1766.1	881.65
1025.6282	2985.4783	1746.1	855.5
1025.7407	2986.5483	1712.85	829.3
1025.8532	2987.6177	1677.95	791.3
1025.9657	2988.6864	1646.6	762.7
1026.0782	2989.7545	1618.6	732.45
1026.1906	2990.8219	1587.45	703
1026.3029	2991.8887	1540.65	652.4
1026.4152	2992.9548	1528.75	644.9
1026.5275	2994.0204	1491.5	606.9
1026.6397	2995.0852	1469.4	585.5
1026.7519	2996.1495	1442.45	557.9
1026.864	2997.2131	1426.55	539.1
1026.9761	2998.276	1409.75	524.8
1027.0882	2999.3383	1387.15	503.35
1027.2002	3000.4	1365.65	479.05
1027.3122	3001.4611	1350.6	464.9
1027.4241	3002.5215	1337.25	450.4
1027.536	3003.5812	1331	445.9
1027.6478	3004.6404	1313.1	426.4
1027.7596	3005.6989	1309.4	420.45
1027.8714	3006.7567	1303.8	418.85
1027.9831	3007.8139	1324.15	411.1
1028.0947	3008.8705	1295.65	410.8
1028.2064	3009.9264	1284.2	397.05
1028.3179	3010.9818	1286.05	402.7
1028.4295	3012.0364	1277.25	391.15
1028.541	3013.0905	1278.75	394.4
1028.6524	3014.1439	1274.75	387.9
1028.7638	3015.1966	1273.95	389.75
1028.8752	3016.2487	1267.9	381.9
1028.9865	3017.3002	1275.85	387.6
1029.0978	3018.3511	1269.2	385.35
1029.209	3019.4013	1271.15	387.1
1029.3202	3020.4509	1268.2	385.1
1029.4314	3021.4998	1270.8	385.95
1029.5425	3022.5481	1269.7	383.95
1029.6535	3023.5958	1278.6	392.95
1029.7645	3024.6428	1283.15	398.2
1029.8755	3025.6892	1276.35	391.05
1029.9864	3026.735	1274.8	389.8
1030.0973	3027.7802	1281.1	398.3
1030.2082	3028.8247	1280.75	395.75
1030.319	3029.8685	1293.45	409.8
1030.4297	3030.9118	1293.3	408.45
1030.5404	3031.9544	1293.6	408.6
1030.6511	3032.9963	1300.2	415.6
1030.7617	3034.0376	1306.6	421
1030.8723	3035.0783	1308.3	421.4
1030.9829	3036.1184	1313.95	428.85
1031.0934	3037.1578	1315	431.2
1031.2038	3038.1966	1319.2	432.6
1031.3142	3039.2348	1313.15	427.85
1031.4246	3040.2723	1328.9	432.95
1031.5349	3041.3092	1319.05	435.1
1031.6452	3042.3455	1314.2	428.85
1031.7554	3043.3811	1316.6	429
1031.8656	3044.4161	1300.65	416
1031.9758	3045.4505	1301.9	418.2
1032.0859	3046.4842	1298.25	412.8
1032.1959	3047.5173	1293.4	409.95
1032.3059	3048.5498	1286.7	401.75
1032.4159	3049.5816	1284.75	399.5
1032.5258	3050.6128	1278	389.65
1032.6357	3051.6434	1266.8	381
1032.7455	3052.6734	1268.6	385.4
1032.8553	3053.7027	1260.35	375.05
1032.9651	3054.7314	1246.9	360.65
1033.0748	3055.7594	1241.4	357.4
1033.1845	3056.7868	1247.05	363.7
1033.2941	3057.8136	1238	353.2
1033.4037	3058.8398	1226.85	340.4
1033.5132	3059.8653	1226.65	341.35
1033.6227	3060.8902	1220.35	335.2
1033.7321	3061.9145	1222.2	337.6
1033.8415	3062.9381	1212.5	329.2
1033.9509	3063.9612	1223.85	324.8
1034.0602	3064.9835	1204.25	318.75
1034.1694	3066.0053	1195.55	309.2
1034.2787	3067.0264	1191.25	305.4
1034.3878	3068.0469	1185.6	300.25
1034.497	3069.0668	1183.1	295.55
1034.6061	3070.086	1167.25	282.95
1034.7151	3071.1046	1163.95	276.4
1034.8241	3072.1226	1158.1	272.75
1034.9331	3073.1399	1149.05	265.1
1035.042	3074.1567	1137.05	251.7
1035.1508	3075.1727	1126.8	237.75
1035.2597	3076.1882	1122.05	238.45
1035.3684	3077.203	1112.3	229.6
1035.4772	3078.2173	1106.9	219.85
1035.5859	3079.2308	1100.3	213.4
1035.6945	3080.2438	1093.15	206.2
1035.8031	3081.2561	1082.9	199.5
1035.9117	3082.2678	1080.05	195.6
1036.0202	3083.2789	1069.9	185.95
1036.1286	3084.2893	1061.25	176.35
1036.2371	3085.2991	1063.4	177.1
1036.3454	3086.3083	1060.6	171.25
1036.4538	3087.3169	1054	167.8
1036.562	3088.3248	1046.45	158.05
1036.6703	3089.3321	1049.3	164.85
1036.7785	3090.3388	1037.95	154.75
1036.8866	3091.3449	1038	152.25
1036.9948	3092.3503	1034.15	147.3
1037.1028	3093.3551	1027.05	142.5
1037.2108	3094.3593	1028.75	146.15
1037.3188	3095.3629	1026.25	140.85
1037.4267	3096.3658	1024.95	139.75
1037.5346	3097.3681	1019.5	135.45
1037.6425	3098.3698	1019.15	132.4
1037.7503	3099.3708	1022.1	131.8
1037.858	3100.3713	1013.35	129.05
1037.9657	3101.3711	1010.05	124.75
1038.0734	3102.3702	1149.3	126.45
1038.181	3103.3688	1011.65	124.2
1038.2886	3104.3667	1003.15	119.6
1038.3961	3105.364	1004.7	118.6
1038.5036	3106.3607	1005.1	118.9
1038.611	3107.3568	1005.55	120.25
1038.7184	3108.3522	996.35	112.7
1038.8257	3109.347	1000.3	114.8
1038.933	3110.3412	1000.15	111.8
1039.0403	3111.3348	995.2	110.45
1039.1475	3112.3277	993.25	108.8
1039.2547	3113.32	992.65	107.45
1039.3618	3114.3117	990	105.6
1039.4689	3115.3028	991.95	107.2
1039.5759	3116.2932	994.5	107.1
1039.6829	3117.2831	994.45	104
1039.7898	3118.2723	988.45	105.1
1039.8967	3119.2608	989.95	105.8
1040.0035	3120.2488	987.35	102.6
1040.1103	3121.2361	982.75	96.95
1040.2171	3122.2229	984.9	101.55
1040.3238	3123.209	986.95	102.3
1040.4305	3124.1944	978.85	93.35
1040.5371	3125.1793	983.3	99.6
1040.6437	3126.1635	977.1	91.75
1040.7502	3127.1471	978.75	94.45
1040.8567	3128.1301	975.9	91.3
1040.9631	3129.1125	977.7	90.45
1041.0695	3130.0942	976.15	92.9
1041.1759	3131.0753	983.6	90
1041.2822	3132.0558	976	89.6
1041.3884	3133.0357	977.35	93.15
1041.4946	3134.015	972	88.2
1041.6008	3134.9936	971.3	86.05
1041.7069	3135.9716	991.35	85.35
1041.813	3136.949	973.35	88.45
1041.919	3137.9258	987.95	84
1042.025	3138.902	974.1	84.95
1042.1309	3139.8775	967.8	84.1
1042.2368	3140.8524	965.8	82.65
1042.3427	3141.8267	965.7	81.25
1042.4485	3142.8004	965.15	81.1
1042.5542	3143.7735	972.4	81.45
1042.6599	3144.7459	968.9	81.55
1042.7656	3145.7178	966.7	80.75
1042.8712	3146.689	961.35	77.75
1042.9768	3147.6596	963.55	76.2
1043.0823	3148.6295	961.4	77.2
1043.1878	3149.5989	962.25	78.25
1043.2932	3150.5676	956.25	72.25
1043.3986	3151.5357	957.15	74.1
1043.5039	3152.5032	957.95	76.75
1043.6092	3153.4701	956.15	72.05
1043.7145	3154.4364	961.05	72.25
1043.8197	3155.402	955.45	71.8
1043.9248	3156.367	959.7	73.65
1044.03	3157.3315	992.55	71.75
1044.135	3158.2952	953.85	69.35
1044.24	3159.2584	953.8	69.9
1044.345	3160.221	952.8	68.75
1044.4499	3161.1829	949.3	64.8
1044.5548	3162.1442	953.45	69.15
1044.6596	3163.105	951.3	67.95
1044.7644	3164.065	951.15	65.7
1044.8692	3165.0245	954.55	68.85
1044.9739	3165.9834	947.55	64
1045.0785	3166.9416	949.7	66.75
1045.1831	3167.8993	947.25	64.9
1045.2877	3168.8563	949.1	65.25
1045.3922	3169.8127	946.75	61.4
1045.4966	3170.7684	946.2	61.55
1045.6011	3171.7236	948.95	65.45
1045.7054	3172.6782	945.5	61.45
1045.8098	3173.6321	948	64.4
1045.914	3174.5854	950.95	62.8
1046.0183	3175.5381	948.45	63.85
1046.1224	3176.4902	944.55	60.55
1046.2266	3177.4417	942.4	58.25
1046.3307	3178.3926	943.25	57.95
1046.4347	3179.3428	942.2	57.7
1046.5387	3180.2924	943.55	57.55
1046.6427	3181.2415	942.25	58.45
1046.7466	3182.1899	943.3	57.3
1046.8504	3183.1377	939.25	55
1046.9542	3184.0848	944.15	56.2
1047.058	3185.0314	940.25	56.2
1047.1617	3185.9773	941.1	55.3
1047.2654	3186.9227	941.8	56.4
1047.369	3187.8674	938.3	53.2
1047.4726	3188.8115	939.15	50.75
1047.5761	3189.755	937.05	53.35
1047.6796	3190.6979	937.4	54.9
1047.783	3191.6402	936.85	52
1047.8864	3192.5818	936.6	53.1
1047.9898	3193.5229	964.9	53
1048.0931	3194.4633	938.4	54.75
1048.1963	3195.4031	938.45	54.55
1048.2995	3196.3423	934.6	51.4
1048.4027	3197.2809	938	53.7
1048.5058	3198.2189	938	56.25
1048.6089	3199.1563	953	51.6
1048.7119	3200.0931	936.05	53.1
1048.8148	3201.0292	932.6	49.55
1048.9178	3201.9648	934.05	51.7
1049.0206	3202.8997	934.4	49.7
1049.1235	3203.834	933.15	47.95
1049.2262	3204.7677	936	52.2
1049.329	3205.7008	931.8	46.65
1049.4317	3206.6333	931	48.6
1049.5343	3207.5652	935.25	50.05
1049.6369	3208.4964	932.85	46.7
1049.7394	3209.4271	928.35	45.4
1049.8419	3210.3571	928.5	45.3
1049.9444	3211.2865	931.6	46.75
1050.0468	3212.2154	934.6	49.25
1050.1491	3213.1436	935.2	50.35
1050.2514	3214.0712	935.7	44.35
1050.3537	3214.9982	931.4	46
1050.4559	3215.9246	929.95	44.35
1050.5581	3216.8503	929.4	47
1050.6602	3217.7755	926.8	44.55
1050.7623	3218.7001	927.75	43.55
1050.8643	3219.624	929.6	45.85
1050.9663	3220.5473	929	46.5
1051.0682	3221.4701	927.95	44.45
1051.1701	3222.3922	929.55	43.3
1051.2719	3223.3137	930.65	48.6
1051.3737	3224.2346	930.15	47.4
1051.4754	3225.1549	926.5	44.1
1051.5771	3226.0746	927.65	43.85
1051.6788	3226.9937	927.45	43.3
1051.7804	3227.9121	927.3	44.5
1051.8819	3228.83	925.65	42.95
1051.9834	3229.7473	928.3	44.95
1052.0849	3230.6639	926.65	42.95
1052.1863	3231.5799	926.2	42.55
1052.2876	3232.4954	926.25	40.7
1052.3889	3233.4102	925.25	42.65
1052.4902	3234.3244	923.35	41.95
1052.5914	3235.238	924.7	42.35
1052.6926	3236.151	947.7	40
1052.7937	3237.0634	921.9	38.7
1052.8948	3237.9752	925.65	42.95
1052.9958	3238.8864	924.7	40.4
1053.0968	3239.797	922.15	39.5
1053.1977	3240.7069	922.5	37.85
1053.2986	3241.6163	925.75	41.2
1053.3994	3242.5251	921.3	38.85
1053.5002	3243.4332	922.15	40.35
1053.6009	3244.3408	923.5	41
1053.7016	3245.2477	924.35	44.1
1053.8022	3246.154	923.4	37.6
1053.9028	3247.0598	922.35	36.9
1054.0034	3247.9649	919.1	35.95
1054.1039	3248.8694	922.45	40
1054.2043	3249.7733	921.9	37.55
1054.3047	3250.6766	918.7	35.95
1054.4051	3251.5793	920.25	35.9
1054.5054	3252.4814	916.65	33.65
1054.6056	3253.3829	917.65	36.25
1054.7058	3254.2838	917.3	34.15
1054.806	3255.1841	918.15	34.4
1054.9061	3256.0838	918.65	36.4
1055.0061	3256.9829	917.85	34.9
1055.1062	3257.8814	918.25	33.1
1055.2061	3258.7792	915.5	30.15
1055.306	3259.6765	916.1	30.7
1055.4059	3260.5731	913.25	30.4
1055.5057	3261.4692	914.35	32.15
1055.6055	3262.3647	913.05	27.75
1055.7052	3263.2595	914.35	31.75
1055.8049	3264.1538	912.25	30.1
1055.9045	3265.0474	912.75	32.7
1056.0041	3265.9404	910.75	29.6
1056.1036	3266.8329	913.8	32
1056.2031	3267.7247	920.5	27.85
1056.3025	3268.616	909.5	26.75
1056.4019	3269.5066	910.35	28
1056.5013	3270.3966	910.95	27.6
1056.6005	3271.286	905.1	23.05
