Software Version:	3.9.2.0
Unit SN:	10000200
Spectrometer SN:	6960
Date:	3/14/2024 12:29:43 PM
Data Line Index:	25
Spectral Points:	2048
Integration time (ms):	125
Averages:	20
Delay (ms):	30000
Sequence Number:	1
Processing:	dark subtract
Laser Power (mW):	305
Laser Current (mA):	822
Laser Diode Temp (C):	25
Laser Case Temp (C):	25.8
System Temp (C):	25.7
Spectrometer Temp (C):	23.5
CCD Temp (C):	0.004
Secondary Temp (C):	20.003
Heatsink Temp (C):	22.569
CCDPCB Temp (C):	36.362
SecondaryPCB Temp (C):	31.194

Wavelength	RamanShift	Raw Counts	Dark Subtracted
787.061	30.1047	418.4	5.8
787.2016	32.3739	415.05	5
787.3422	34.6426	417.55	4.95
787.4828	36.9109	420.3	6.45
787.6235	39.1787	425.2	6.75
787.7642	41.4461	428.05	3.85
787.9049	43.7131	434.55	8.05
788.0456	45.9796	439.15	10.95
788.1863	48.2456	445.1	13.2
788.3271	50.5112	448.6	12.9
788.4679	52.7764	453.85	16.35
788.6087	55.0411	456.25	14.25
788.7496	57.3054	460.95	14.7
788.8904	59.5692	462.4	13.85
789.0313	61.8326	466.9	14.4
789.1722	64.0955	473.9	18.95
789.3132	66.3579	484.4	25.1
789.4541	68.6199	488	23.85
789.5951	70.8815	496.2	28.55
789.7361	73.1426	515.2	44.85
789.8771	75.4032	552	77.85
790.0181	77.6634	625.6	146.55
790.1592	79.9231	800.05	318.1
790.3003	82.1824	1173.4	684.9
790.4414	84.4412	1794.55	1304
790.5825	86.6995	2604.6	2106.75
790.7237	88.9574	3387.95	2886.8
790.8648	91.2148	3964.55	3460.35
791.006	93.4717	4231.5	3722.35
791.1472	95.7282	4287.85	3776.25
791.2885	97.9842	4290.15	3775.65
791.4297	100.2398	4269.6	3753.6
791.571	102.4949	4223.7	3703.8
791.7123	104.7495	4185.75	3660.15
791.8536	107.0036	4133.3	3609.3
791.9949	109.2573	4080.8	3558.55
792.1363	111.5105	4003.25	3478.9
792.2777	113.7632	3915.1	3386.5
792.4191	116.0154	3850.9	3311.45
792.5605	118.2672	3747.65	3215.2
792.7019	120.5185	3645.65	3113.75
792.8434	122.7693	3551.8	3018.45
792.9849	125.0197	3456.9	2918.65
793.1264	127.2696	3365.05	2826
793.2679	129.519	3332.6	2789.3
793.4094	131.7679	3281.95	2735.7
793.551	134.0163	3268.95	2717.85
793.6926	136.2642	3254.35	2698.55
793.8342	138.5117	3248.05	2690.5
793.9758	140.7587	3221.65	2662.5
794.1175	143.0052	3206.4	2645.1
794.2591	145.2512	3146.5	2586.1
794.4008	147.4967	3092	2529.6
794.5425	149.7417	3044.6	2479.65
794.6842	151.9863	3005.7	2436.05
794.826	154.2304	2989.95	2419.25
794.9677	156.4739	2968.75	2390.25
795.1095	158.717	3000.75	2424.15
795.2513	160.9596	3006.9	2424.05
795.3931	163.2017	3034.6	2450.25
795.535	165.4433	3055.85	2470.05
795.6768	167.6844	3061.4	2471.45
795.8187	169.925	3042.2	2449
795.9606	172.1651	2997.9	2402.75
796.1025	174.4047	2933.4	2333.25
796.2445	176.6439	2905.65	2305.05
796.3864	178.8825	2874.95	2270.45
796.5284	181.1206	2854.15	2247.3
796.6704	183.3582	2836.85	2225.15
796.8124	185.5954	2837.7	2227.7
796.9544	187.832	2830.4	2213.2
797.0965	190.0681	2812.05	2195.4
797.2386	192.3037	2827.55	2207.8
797.3806	194.5388	2821.35	2196.9
797.5228	196.7734	2823.6	2197.65
797.6649	199.0075	2853.45	2222.15
797.807	201.2411	2885.2	2252.75
797.9492	203.4742	2880.9	2246.05
798.0914	205.7068	2923.9	2290.1
798.2336	207.9389	2918.8	2283.5
798.3758	210.1704	2951.4	2313.05
798.518	212.4015	2950.7	2307.5
798.6603	214.632	2958.55	2316
798.8025	216.862	2936.95	2302.75
798.9448	219.0915	2946.35	2319.35
799.0871	221.3205	2959.1	2334.55
799.2294	223.549	2974.35	2355
799.3718	225.777	2960.75	2341.05
799.5141	228.0044	2963.35	2340.15
799.6565	230.2314	2953.2	2332.1
799.7989	232.4578	2937.15	2313.85
799.9413	234.6837	2920.85	2289.25
800.0837	236.909	2917.4	2283.95
800.2262	239.1339	2925.65	2268.25
800.3687	241.3582	2918.65	2276.8
800.5111	243.582	2914.2	2244.55
800.6536	245.8053	2914.65	2253.7
800.7961	248.0281	2915.1	2260.8
800.9387	250.2503	2918.1	2257.7
801.0812	252.472	2933.8	2267.7
801.2238	254.6932	2936	2266.5
801.3664	256.9139	2928.9	2256.25
801.509	259.134	2941.85	2267.2
801.6516	261.3536	2957.65	2285.85
801.7942	263.5727	3002.95	2327.3
801.9369	265.7912	3030.25	2355.9
802.0795	268.0092	3094.05	2418.05
802.2222	270.2267	3144.3	2467.4
802.3649	272.4436	3210.35	2531.05
802.5076	274.6601	3233.25	2546.15
802.6504	276.8759	3243.6	2565.1
802.7931	279.0913	3282.2	2598.55
802.9359	281.3061	3292.4	2606.1
803.0787	283.5204	3309.75	2621.95
803.2215	285.7341	3344.75	2655.5
803.3643	287.9473	3368.45	2674.75
803.5071	290.16	3373.7	2676.6
803.6499	292.3721	3322.95	2632.15
803.7928	294.5837	3270.6	2576.6
803.9357	296.7947	3227.55	2537.05
804.0786	299.0052	3215.55	2520.7
804.2215	301.2152	3180.35	2483.2
804.3644	303.4246	3167.25	2473.85
804.5074	305.6334	3158.8	2463.05
804.6503	307.8418	3148.4	2449
804.7933	310.0495	3144.7	2446.3
804.9363	312.2568	3111.35	2416.05
805.0793	314.4635	3058.5	2358
805.2223	316.6696	3006.55	2303.3
805.3653	318.8752	2954.2	2244.7
805.5084	321.0802	2917.1	2213.15
805.6514	323.2847	2900.8	2196.15
805.7945	325.4887	2916.9	2213
805.9376	327.692	2917.8	2209.75
806.0807	329.8949	2960.45	2252.7
806.2238	332.0972	3006.8	2295.6
806.367	334.2989	3058.55	2343.7
806.5101	336.5001	3083	2368.55
806.6533	338.7007	3048.4	2334.25
806.7965	340.9008	2994.55	2280
806.9397	343.1003	2928.95	2210.2
807.0829	345.2992	2860.95	2139.9
807.2261	347.4976	2816.55	2094.95
807.3693	349.6955	2783.25	2056.55
807.5126	351.8927	2768	2042.95
807.6559	354.0895	2741.35	2008.35
807.7991	356.2856	2717.7	1989.45
807.9424	358.4812	2696.65	1970.85
808.0857	360.6763	2701.15	1973.45
808.2291	362.8707	2684	1954.25
808.3724	365.0646	2702.95	1971.1
808.5158	367.258	2696.45	1963.9
808.6591	369.4508	2717.95	1976.8
808.8025	371.643	2745.35	2008.15
808.9459	373.8346	2769.9	2030.3
809.0893	376.0257	2811.45	2068.6
809.2327	378.2162	2857.7	2112.65
809.3762	380.4062	2887.45	2140.55
809.5196	382.5956	2860.7	2113.9
809.6631	384.7844	2808.8	2062.6
809.8066	386.9726	2753.3	2005.05
809.9501	389.1603	2721.95	1973.65
810.0936	391.3474	2732.85	1953.9
810.2371	393.5339	2684.05	1934.9
810.3806	395.7199	2680.9	1937.3
810.5241	397.9052	2716.25	1975.9
810.6677	400.09	2745.5	2005.05
810.8113	402.2743	2795.45	2057.25
810.9548	404.4579	2827.35	2085.2
811.0984	406.641	2876.45	2134.25
811.2421	408.8235	2924.3	2180
811.3857	411.0054	2969.95	2224.45
811.5293	413.1868	3042.45	2293.2
811.673	415.3675	3111.75	2361.9
811.8166	417.5477	3125.3	2373.4
811.9603	419.7273	3075.65	2323.05
812.104	421.9064	2987.15	2226.55
812.2477	424.0848	2911	2151.75
812.3914	426.2627	2836	2074.5
812.5351	428.4399	2752.8	1989.35
812.6788	430.6166	2696.2	1932.15
812.8226	432.7928	2673.55	1906.25
812.9663	434.9683	2605.1	1837
813.1101	437.1432	2582.65	1814
813.2539	439.3176	2545.35	1778.25
813.3977	441.4914	2531.75	1761.9
813.5415	443.6645	2536.8	1763.95
813.6853	445.8371	2537.45	1765
813.8291	448.0091	2536.85	1765.9
813.973	450.1806	2535.8	1763.2
814.1168	452.3514	2515.9	1739.95
814.2607	454.5216	2525.25	1741.8
814.4046	456.6913	2516.95	1741.45
814.5485	458.8603	2517.35	1744.4
814.6924	461.0288	2531.3	1756.35
814.8363	463.1967	2539.55	1762.65
814.9802	465.3639	2527.95	1750.35
815.1241	467.5306	2520.4	1742.55
815.2681	469.6967	2512.2	1733.4
815.412	471.8622	2486.15	1705.6
815.556	474.0271	2478.65	1698.6
815.7	476.1914	2501.95	1718.65
815.844	478.3551	2486.35	1705.5
815.988	480.5182	2486.05	1702.95
816.132	482.6807	2484.45	1702.65
816.276	484.8426	2501.9	1719.3
816.4201	487.0039	2536.65	1753.2
816.5641	489.1647	2607.3	1823.5
816.7082	491.3248	2661.9	1877.1
816.8522	493.4843	2685.85	1902.45
816.9963	495.6432	2671	1884.8
817.1404	497.8015	2631.2	1840
817.2845	499.9592	2586.3	1799.65
817.4286	502.1163	2532.4	1745.95
817.5727	504.2728	2492.05	1701.55
817.7168	506.4287	2460.1	1670.8
817.861	508.5839	2434.2	1643.8
818.0051	510.7386	2427.3	1638.65
818.1493	512.8927	2446.05	1645.65
818.2935	515.0461	2441.45	1649.05
818.4377	517.199	2444.35	1653.1
818.5818	519.3512	2485.1	1692.5
818.726	521.5029	2563.4	1763.95
818.8703	523.6539	2637.85	1843.2
819.0145	525.8043	2656.2	1861.85
819.1587	527.9541	2612.25	1816.2
819.303	530.1033	2522.8	1726
819.4472	532.2519	2463.6	1665.8
819.5915	534.3999	2436.4	1635.85
819.7357	536.5472	2425.2	1627.55
819.88	538.694	2436.15	1636.9
820.0243	540.8401	2431.6	1631.65
820.1686	542.9856	2457.95	1655.45
820.3129	545.1305	2467.2	1664.85
820.4572	547.2748	2491.1	1689.2
820.6016	549.4185	2492.4	1687.8
820.7459	551.5615	2490.3	1686.85
820.8902	553.704	2509.75	1703.9
821.0346	555.8458	2517.2	1714.15
821.1789	557.987	2555.35	1750.95
821.3233	560.1276	2592.3	1784.3
821.4677	562.2675	2648.85	1845.7
821.6121	564.4069	2739.4	1933.95
821.7565	566.5456	2798.45	1994.3
821.9009	568.6837	2766.6	1961
822.0453	570.8212	2685.95	1881.45
822.1897	572.958	2579.65	1772.45
822.3342	575.0942	2523.8	1719.75
822.4786	577.2299	2478.15	1669.65
822.6231	579.3648	2447.25	1639.7
822.7675	581.4992	2421.75	1615.5
822.912	583.6329	2427.15	1619.65
823.0565	585.766	2453.2	1645
823.201	587.8985	2495.05	1687.5
823.3454	590.0304	2566.5	1733.35
823.4899	592.1616	2592.6	1778.6
823.6345	594.2922	2609.4	1797.8
823.779	596.4222	2589.2	1777.35
823.9235	598.5515	2527.55	1714.1
824.068	600.6802	2448.05	1639.15
824.2126	602.8083	2397.1	1584.05
824.3571	604.9358	2380.3	1564
824.5017	607.0626	2376.55	1562.45
824.6462	609.1888	2384.8	1568.5
824.7908	611.3144	2386.35	1567.05
824.9354	613.4393	2432.45	1617.1
825.08	615.5636	2495.75	1680.4
825.2246	617.6873	2545.55	1730.6
825.3692	619.8103	2589.2	1769.3
825.5138	621.9327	2605.35	1783.65
825.6584	624.0544	2563.25	1746.75
825.803	626.1756	2510.85	1692.35
825.9477	628.2961	2431.15	1613.95
826.0923	630.4159	2385.55	1565.3
826.237	632.5351	2390.15	1570.8
826.3816	634.6537	2392.15	1572.75
826.5263	636.7716	2376.45	1556.9
826.6709	638.8889	2378.55	1558.65
826.8156	641.0056	2386.55	1564.95
826.9603	643.1216	2408.4	1584.9
827.105	645.237	2407.8	1583.75
827.2497	647.3518	2395	1571.4
827.3944	649.4659	2359.55	1534.55
827.5391	651.5793	2338.35	1512.4
827.6838	653.6922	2310.7	1486.7
827.8285	655.8043	2294.15	1468.85
827.9733	657.9159	2288.2	1461.4
828.118	660.0268	2284.95	1456.15
828.2627	662.137	2273.45	1446.45
828.4075	664.2466	2276.7	1449.8
828.5522	666.3556	2281.1	1455.15
828.697	668.4639	2270.85	1440.65
828.8418	670.5716	2265.35	1438.75
828.9865	672.6786	2262.3	1433.2
829.1313	674.785	2240.75	1411.5
829.2761	676.8907	2245.05	1416
829.4209	678.9958	2239.85	1411.15
829.5657	681.1002	2238.25	1409.3
829.7105	683.204	2248.9	1417
829.8553	685.3072	2248.15	1416.65
830.0001	687.4097	2242.65	1412.4
830.1449	689.5115	2238.35	1406.45
830.2898	691.6127	2242.7	1411.45
830.4346	693.7132	2231.85	1399.95
830.5794	695.8131	2236.35	1396.65
830.7243	697.9123	2240.35	1404.25
830.8691	700.0109	2237.05	1402.2
831.014	702.1089	2245.55	1413.35
831.1588	704.2061	2258	1424.65
831.3037	706.3028	2283.65	1445.5
831.4486	708.3987	2312	1477.1
831.5935	710.4941	2336.55	1501.35
831.7383	712.5887	2343.8	1508.6
831.8832	714.6827	2331.25	1492.55
832.0281	716.7761	2318.75	1482.25
832.173	718.8688	2315.05	1477
832.3179	720.9608	2317.9	1478.55
832.4628	723.0522	2330.95	1491.25
832.6077	725.1429	2349.05	1510.45
832.7527	727.233	2374.15	1536.5
832.8976	729.3224	2440.2	1599.5
833.0425	731.4112	2501.15	1663.5
833.1874	733.4993	2537.8	1697.25
833.3324	735.5867	2505.5	1663.4
833.4773	737.6735	2425.75	1585.1
833.6222	739.7596	2351	1511.1
833.7672	741.845	2304.95	1464.65
833.9122	743.9298	2295.85	1453.95
834.0571	746.014	2304.8	1464.6
834.2021	748.0974	2310.95	1467.55
834.347	750.1802	2314.05	1471.8
834.492	752.2624	2307.75	1466.9
834.637	754.3439	2296.25	1453.9
834.782	756.4247	2295.2	1442.5
834.9269	758.5048	2292.65	1451
835.0719	760.5843	2306	1462
835.2169	762.6631	2322.65	1478.8
835.3619	764.7413	2374.75	1532.25
835.5069	766.8188	2470.35	1625.15
835.6519	768.8956	2552.1	1705.4
835.7969	770.9718	2634.35	1789.45
835.9419	773.0473	2626.75	1782.25
836.0869	775.1221	2576.25	1730.25
836.232	777.1962	2550.15	1705.9
836.377	779.2697	2608.75	1763.85
836.522	781.3426	2732.95	1874.6
836.667	783.4147	2822.05	1975.2
836.8121	785.4862	2836.9	1990.9
836.9571	787.557	2734.15	1888.45
837.1021	789.6271	2593.15	1747.45
837.2472	791.6966	2465.6	1619.15
837.3922	793.7654	2332.3	1486.15
837.5373	795.8335	2267.3	1421.15
837.6823	797.901	2226.55	1378.45
837.8274	799.9678	2203.3	1354.8
837.9724	802.0339	2208.15	1361.8
838.1175	804.0993	2216.75	1358.7
838.2626	806.1641	2218.9	1369.15
838.4076	808.2282	2201.65	1353.8
838.5527	810.2916	2192.85	1342.5
838.6978	812.3544	2169.55	1323.25
838.8428	814.4164	2151.6	1304.5
838.9879	816.4778	2160.9	1309.3
839.133	818.5385	2164.95	1314.75
839.2781	820.5986	2202.95	1353.15
839.4232	822.658	2258.5	1406.45
839.5682	824.7166	2324.45	1474.35
839.7133	826.7747	2415.1	1565.7
839.8584	828.832	2496.45	1647.7
840.0035	830.8886	2562.65	1710
840.1486	832.9446	2599.6	1747.5
840.2937	834.9999	2584.3	1734.9
840.4388	837.0545	2518.7	1664.6
840.5839	839.1085	2416.9	1563.7
840.729	841.1618	2317.2	1461.85
840.8741	843.2143	2253.45	1398.25
841.0192	845.2662	2220.75	1370.15
841.1643	847.3175	2190.85	1338.75
841.3095	849.368	2185.7	1331.35
841.4546	851.4179	2180.6	1326.5
841.5997	853.467	2173.25	1320.35
841.7448	855.5155	2183.55	1331.15
841.8899	857.5633	2176.7	1323
842.0351	859.6105	2181.95	1329.3
842.1802	861.6569	2170.1	1318.45
842.3253	863.7027	2156.45	1300.75
842.4704	865.7478	2134.3	1279.6
842.6156	867.7922	2123.75	1269.3
842.7607	869.8359	2111.05	1255
842.9058	871.8789	2106.7	1249.05
843.0509	873.9212	2136.25	1247.8
843.1961	875.9629	2118.2	1265.15
843.3412	878.0039	2118.25	1261.6
843.4863	880.0441	2131.55	1278.05
843.6315	882.0837	2152.35	1295.6
843.7766	884.1226	2176.85	1319
843.9218	886.1609	2203.3	1347.35
844.0669	888.1984	2261.35	1406.9
844.212	890.2352	2324.9	1469.3
844.3572	892.2714	2338.45	1478.45
844.5023	894.3069	2325.2	1467
844.6475	896.3416	2269.25	1411.2
844.7926	898.3757	2212.4	1353.65
844.9377	900.4091	2178.1	1318.6
845.0829	902.4418	2176.8	1315.9
845.228	904.4739	2201.6	1339.85
845.3732	906.5052	2223.65	1365.7
845.5183	908.5358	2219.95	1362.1
845.6635	910.5658	2207	1346.85
845.8086	912.595	2166.15	1307.85
845.9538	914.6236	2126.05	1269.75
846.0989	916.6515	2093.25	1236.3
846.2441	918.6786	2067.25	1205.35
846.3892	920.7051	2067.65	1204.65
846.5344	922.7309	2056.1	1196.8
846.6795	924.756	2056.7	1196.8
846.8246	926.7804	2068.6	1206.65
846.9698	928.8041	2068.45	1206.95
847.1149	930.8272	2081.8	1219.1
847.2601	932.8495	2095.8	1233.5
847.4052	934.8711	2104.55	1241.75
847.5504	936.892	2103.65	1243
847.6955	938.9123	2135.7	1274.1
847.8407	940.9318	2171.35	1309.9
847.9858	942.9506	2169.75	1307.4
848.131	944.9688	2172.6	1312.9
848.2761	946.9862	2153.85	1290.6
848.4213	949.003	2113.3	1251.1
848.5664	951.019	2084.35	1223.55
848.7115	953.0344	2066.45	1204.5
848.8567	955.0491	2047.95	1182.4
849.0018	957.063	2036.15	1173.9
849.147	959.0763	2034.25	1171.7
849.2921	961.0888	2031.6	1165.95
849.4373	963.1007	2027.25	1162.6
849.5824	965.1119	2018.45	1155.8
849.7275	967.1223	2012.95	1148.6
849.8727	969.1321	1994.95	1131.85
850.0178	971.1412	1989.35	1127.7
850.1629	973.1495	1989.4	1125.4
850.3081	975.1572	2031.25	1120.85
850.4532	977.1641	1988.25	1123.15
850.5983	979.1704	1993.5	1128.7
850.7435	981.1759	1980.45	1112.95
850.8886	983.1808	1975.2	1109.65
851.0337	985.1849	1974.65	1097.85
851.1788	987.1884	1968.65	1101.2
851.324	989.1911	1964.55	1097.15
851.4691	991.1932	1970.8	1103.2
851.6142	993.1945	1973.1	1108.3
851.7593	995.1951	1973.2	1106.45
851.9045	997.1951	1977.4	1106.85
852.0496	999.1943	1961.2	1097
852.1947	1001.1928	1968.15	1101.6
852.3398	1003.1906	1977.9	1111.9
852.4849	1005.1877	1996.8	1129.4
852.63	1007.1841	2025.55	1159.25
852.7751	1009.1798	2047.25	1180.35
852.9202	1011.1748	2034.8	1168.25
853.0653	1013.1691	2019.05	1149.25
853.2104	1015.1627	1974.3	1107.85
853.3555	1017.1556	1934.1	1067.45
853.5006	1019.1477	1914	1046.55
853.6457	1021.1392	1891.55	1025.5
853.7908	1023.1299	1892.7	1024.8
853.9359	1025.12	1888.05	1019.05
854.081	1027.1093	1884.55	1018.7
854.2261	1029.0979	1908.4	1041
854.3712	1031.0859	1931	1062.25
854.5163	1033.0731	1941.85	1073.65
854.6613	1035.0596	1944.35	1076.5
854.8064	1037.0454	1930.7	1062.8
854.9515	1039.0304	1925.45	1055.9
855.0965	1041.0148	1903.4	1035.8
855.2416	1042.9985	1869.55	1001.05
855.3867	1044.9814	1857.4	990.05
855.5317	1046.9636	1856.45	985.35
855.6768	1048.9452	1859.75	991.8
855.8219	1050.926	1869.9	1003.3
855.9669	1052.9061	1891.05	1022.4
856.112	1054.8855	1901.5	1032.3
856.257	1056.8642	1896.35	1028.35
856.4021	1058.8421	1893.5	1020.1
856.5471	1060.8194	1895.75	1025.3
856.6921	1062.7959	1897.6	1029.1
856.8372	1064.7717	1880	1009.75
856.9822	1066.7469	1882.55	1010.6
857.1272	1068.7213	1893.4	1020.85
857.2723	1070.695	1890.05	1018.8
857.4173	1072.6679	1914.4	1043.25
857.5623	1074.6402	1943.65	1073.6
857.7073	1076.6117	1979	1103.8
857.8523	1078.5826	1946.7	1075.3
857.9973	1080.5527	1919.2	1047.6
858.1423	1082.5221	1862.3	991.2
858.2873	1084.4908	1838.9	968.35
858.4323	1086.4587	1812.7	941.15
858.5773	1088.426	1792.4	921.35
858.7223	1090.3925	1797.1	922.5
858.8673	1092.3584	1795.9	925.55
859.0123	1094.3235	1806.55	936.35
859.1573	1096.2879	1814.4	944.4
859.3022	1098.2515	1847.5	976.65
859.4472	1100.2145	1864.5	994.8
859.5922	1102.1767	1904.65	1030.5
859.7371	1104.1382	1947.9	1073.6
859.8821	1106.099	1999	1122.7
860.027	1108.0591	2050.05	1178.35
860.172	1110.0185	2098.2	1224.55
860.3169	1111.9771	2142.3	1270.7
860.4619	1113.9351	2182	1309.3
860.6068	1115.8923	2268.95	1396.95
860.7517	1117.8488	2315.1	1441.3
860.8967	1119.8045	2285.5	1414.25
861.0416	1121.7596	2187.55	1314.9
861.1865	1123.7139	2066.8	1193.8
861.3314	1125.6675	1986.8	1112.65
861.4763	1127.6204	1969.8	1096.25
861.6212	1129.5726	1994.9	1119.4
861.7661	1131.524	1993.5	1122.75
861.911	1133.4748	1968.5	1094.7
862.0559	1135.4248	1898.75	1024.2
862.2008	1137.3741	1838.65	966.35
862.3457	1139.3226	1802.1	928.6
862.4905	1141.2705	1795.05	921.45
862.6354	1143.2176	1811.45	932.8
862.7803	1145.164	1825.5	949.4
862.9251	1147.1097	1825.2	950.2
863.07	1149.0546	1809.75	933.75
863.2148	1150.9989	1771.2	895.65
863.3597	1152.9424	1747.8	871.2
863.5045	1154.8852	1724.05	851.3
863.6493	1156.8272	1714.25	841
863.7942	1158.7686	1720.5	839.35
863.939	1160.7092	1718.1	842.3
864.0838	1162.6491	1721.15	842.6
864.2286	1164.5883	1723.85	848.15
864.3734	1166.5267	1744.7	868.8
864.5182	1168.4644	1766.3	890.2
864.663	1170.4014	1798.1	917.5
864.8078	1172.3377	1826.4	953.15
864.9526	1174.2732	1876.2	1000.5
865.0974	1176.2081	1960.9	1088
865.2421	1178.1421	2086.6	1207.1
865.3869	1180.0755	2228.75	1355.65
865.5317	1182.0082	2342.05	1466.85
865.6764	1183.9401	2339.45	1462.25
865.8212	1185.8713	2251.5	1377.1
865.9659	1187.8017	2128.05	1250.95
866.1106	1189.7315	1970.55	1096.65
866.2554	1191.6605	1908.65	1004.05
866.4001	1193.5888	1820.95	945
866.5448	1195.5163	1782.25	906.15
866.6895	1197.4432	1756.75	880.75
866.8342	1199.3693	1735.5	860.3
866.9789	1201.2947	1725.9	844.7
867.1236	1203.2193	1710	834
867.2683	1205.1432	1705.8	830.45
867.413	1207.0664	1695.6	818.35
867.5576	1208.9889	1703.4	823.8
867.7023	1210.9106	1699.4	823.3
867.847	1212.8316	1695.85	821.45
867.9916	1214.7519	1717.5	833.6
868.1363	1216.6715	1715.45	840.8
868.2809	1218.5903	1738.1	861
868.4255	1220.5084	1738.25	861.7
868.5701	1222.4257	1762.55	886.75
868.7148	1224.3424	1766.45	891.3
868.8594	1226.2583	1788.4	907.1
869.004	1228.1735	1812.85	933.95
869.1486	1230.0879	1857.35	979.05
869.2932	1232.0016	1875.45	999.7
869.4377	1233.9146	1913.6	1033.2
869.5823	1235.8269	1929.55	1053.9
869.7269	1237.7384	1941.5	1062.9
869.8715	1239.6492	1940.75	1064.3
870.016	1241.5592	1941.15	1060.8
870.1606	1243.4686	1982.1	1105.2
870.3051	1245.3772	2065.85	1186.9
870.4496	1247.285	2153.35	1275.5
870.5941	1249.1922	2234.95	1357.3
870.7387	1251.0986	2308.65	1430.95
870.8832	1253.0042	2375.65	1497.3
871.0277	1254.9092	2459.6	1581.05
871.1722	1256.8134	2565.85	1688.05
871.3167	1258.7169	2681.45	1801.85
871.4611	1260.6196	2770.5	1894.9
871.6056	1262.5216	2832.1	1952.75
871.7501	1264.4229	2831.75	1954.4
871.8945	1266.3234	2809.75	1931.3
872.039	1268.2232	2748.2	1867.1
872.1834	1270.1223	2670.6	1791.55
872.3278	1272.0207	2621.35	1743.15
872.4723	1273.9183	2596.2	1710.55
872.6167	1275.8151	2588.8	1711.4
872.7611	1277.7113	2602.45	1722.65
872.9055	1279.6067	2692.65	1814.65
873.0499	1281.5014	2828.95	1949
873.1943	1283.3953	3021.5	2140.7
873.3386	1285.2885	3263.45	2385.5
873.483	1287.181	3463.85	2584.3
873.6274	1289.0727	3585.8	2709.1
873.7717	1290.9637	3524.2	2644.35
873.9161	1292.854	3404.25	2523.15
874.0604	1294.7435	3221.65	2342.15
874.2047	1296.6323	3064.05	2184.4
874.349	1298.5204	2931.7	2048.45
874.4933	1300.4077	2830.1	1948.35
874.6376	1302.2943	2749.8	1872.6
874.7819	1304.1802	2711.4	1833
874.9262	1306.0653	2655.7	1772.85
875.0705	1307.9497	2627.3	1749.1
875.2147	1309.8333	2598.9	1718.85
875.359	1311.7162	2577.5	1698.25
875.5032	1313.5984	2557.55	1673.8
875.6475	1315.4798	2546.35	1651.05
875.7917	1317.3605	2547.05	1651.85
875.9359	1319.2405	2567.65	1687.15
876.0801	1321.1197	2587.55	1704.65
876.2243	1322.9982	2565.95	1680.55
876.3685	1324.876	2503.25	1622.55
876.5127	1326.753	2410.85	1531.7
876.6569	1328.6293	2307.05	1427.05
876.801	1330.5048	2194.3	1311
876.9452	1332.3796	2101.1	1223.25
877.0893	1334.2537	2050.85	1142.65
877.2335	1336.127	1967.15	1086.95
877.3776	1337.9996	1921.2	1041.45
877.5217	1339.8714	1901.65	1020.6
877.6658	1341.7426	1911.5	988.25
877.8099	1343.6129	1853.8	973.25
877.954	1345.4826	1832.25	951.2
878.0981	1347.3515	1816.05	931.1
878.2422	1349.2196	1797.1	917.6
878.3862	1351.087	1781.05	901.65
878.5303	1352.9537	1778.95	898.2
878.6743	1354.8197	1785.1	906.75
878.8184	1356.6849	1783.55	903.5
878.9624	1358.5493	1806.15	925.7
879.1064	1360.4131	1823.4	940.55
879.2504	1362.276	1864.6	986.1
879.3944	1364.1383	1917	1034.6
879.5384	1365.9998	1936.85	1052.45
879.6823	1367.8606	1924.75	1044
879.8263	1369.7206	1910.3	1030.8
879.9702	1371.5799	1910.7	1028.35
880.1142	1373.4384	1909.65	1027.7
880.2581	1375.2962	1887.7	1005.15
880.402	1377.1533	1824.95	944.2
880.5459	1379.0096	1784.05	902.05
880.6898	1380.8652	1748.55	867.9
880.8337	1382.7201	1710.65	827.9
880.9776	1384.5742	1687.8	808.05
881.1215	1386.4275	1655.75	773.55
881.2653	1388.2802	1644.95	765
881.4092	1390.132	1620.2	738.75
881.553	1391.9832	1617.15	732.65
881.6968	1393.8336	1610.45	729.1
881.8406	1395.6832	1611.75	729.6
881.9844	1397.5322	1589.6	708.65
882.1282	1399.3803	1586.8	702
882.272	1401.2278	1569.7	688.65
882.4158	1403.0745	1552.7	672.3
882.5595	1404.9204	1550	669.1
882.7033	1406.7656	1542.55	662.6
882.847	1408.6101	1542.4	660.55
882.9908	1410.4538	1540.85	661.4
883.1345	1412.2968	1533.7	652.6
883.2782	1414.139	1535.7	653.8
883.4219	1415.9805	1548.75	668.2
883.5656	1417.8213	1557.6	671.35
883.7092	1419.6613	1580.1	698.25
883.8529	1421.5006	1606.05	721.95
883.9965	1423.3391	1644.05	759.95
884.1402	1425.1769	1700.95	818.35
884.2838	1427.0139	1780.35	898.8
884.4274	1428.8502	1865.15	982.05
884.571	1430.6858	1954.25	1072.25
884.7146	1432.5206	1969.7	1087.3
884.8582	1434.3547	1977.05	1092.75
885.0018	1436.188	1951.95	1070.05
885.1453	1438.0206	1934.55	1053.55
885.2889	1439.8524	1924.6	1042.05
885.4324	1441.6835	1916.2	1033.3
885.5759	1443.5139	1923.75	1037.5
885.7194	1445.3435	1930.3	1047.95
885.8629	1447.1724	1932.75	1049.25
886.0064	1449.0005	1927.8	1045.75
886.1499	1450.8279	1927.5	1042.6
886.2933	1452.6545	1922.85	1040.55
886.4368	1454.4804	1904.6	1022.8
886.5802	1456.3056	1909.25	1018.95
886.7237	1458.13	1878.35	999
886.8671	1459.9536	1858	976.05
887.0105	1461.7766	1820.1	939.85
887.1539	1463.5987	1780.85	896.95
887.2972	1465.4202	1745.5	863.65
887.4406	1467.2409	1691.6	807.9
887.584	1469.0608	1657.65	776.1
887.7273	1470.88	1628.45	744.35
887.8706	1472.6984	1599.85	718.95
888.0139	1474.5161	1577.25	689.95
888.1572	1476.3331	1553.65	671.95
888.3005	1478.1493	1544.85	660.75
888.4438	1479.9648	1535.05	653.65
888.5871	1481.7795	1529.75	646.1
888.7303	1483.5935	1536.15	654.7
888.8736	1485.4067	1534.45	653.25
889.0168	1487.2192	1531.85	649.6
889.16	1489.031	1544.05	657.95
889.3032	1490.842	1544.7	661.5
889.4464	1492.6522	1538.15	655.75
889.5896	1494.4618	1535.75	650.85
889.7327	1496.2705	1526.9	644.15
889.8759	1498.0785	1522	637.65
890.019	1499.8858	1519	635
890.1622	1501.6924	1520.2	639.65
890.3053	1503.4981	1511.5	629.55
890.4484	1505.3032	1501.1	617.55
890.5914	1507.1075	1494.45	610.05
890.7345	1508.911	1494.6	611.9
890.8776	1510.7138	1489.3	606.55
891.0206	1512.5159	1476.25	592.5
891.1637	1514.3172	1473.55	590.9
891.3067	1516.1178	1461.75	579.45
891.4497	1517.9176	1463.6	580.65
891.5927	1519.7166	1443.9	562.7
891.7357	1521.515	1455.2	566.4
891.8786	1523.3126	1446.9	562.75
892.0216	1525.1094	1436.85	551.2
892.1645	1526.9055	1430.75	548.75
892.3074	1528.7008	1423.8	539.05
892.4503	1530.4954	1430.65	539.5
892.5932	1532.2893	1413.85	533.65
892.7361	1534.0824	1422.9	535.05
892.879	1535.8747	1417	533.25
893.0218	1537.6663	1417.7	534.95
893.1647	1539.4572	1411.95	525.55
893.3075	1541.2473	1408.25	522.3
893.4503	1543.0367	1414.7	532.65
893.5931	1544.8253	1411.45	522.35
893.7359	1546.6132	1413.55	526.8
893.8787	1548.4003	1427.45	534.25
894.0214	1550.1867	1435.9	542.4
894.1642	1551.9723	1438.15	548.1
894.3069	1553.7572	1451.85	567.7
894.4496	1555.5414	1462.1	576.95
894.5923	1557.3247	1486.5	602.8
894.735	1559.1074	1524.4	640.5
894.8777	1560.8893	1565.1	683.1
895.0204	1562.6705	1600.85	714.9
895.163	1564.4509	1652.4	768.95
895.3056	1566.2305	1662.55	778.95
895.4482	1568.0094	1661	777.55
895.5908	1569.7876	1666.85	782.85
895.7334	1571.565	1660.95	776.05
895.876	1573.3417	1652.55	769.5
896.0186	1575.1176	1660.55	777.9
896.1611	1576.8928	1675.25	791.15
896.3036	1578.6672	1706.3	823.3
896.4461	1580.4409	1731.6	848.5
896.5886	1582.2138	1784.3	897.45
896.7311	1583.986	1824.95	940.8
896.8736	1585.7575	1869.7	986.2
897.0161	1587.5282	1900.85	1017.8
897.1585	1589.2981	1939.35	1055
897.3009	1591.0673	1952.05	1068.55
897.4433	1592.8358	1953.25	1070.85
897.5857	1594.6035	1960.25	1075.1
897.7281	1596.3704	1945.05	1060.7
897.8705	1598.1366	1921.25	1035.25
898.0128	1599.9021	1884.3	1002.2
898.1551	1601.6668	1862.2	974.75
898.2975	1603.4308	1823.45	939.4
898.4398	1605.194	1825.5	936.15
898.5821	1606.9564	1837.15	953.05
898.7243	1608.7182	1894.95	1005.6
898.8666	1610.4791	1976.15	1092.55
899.0088	1612.2394	2084.95	1200.35
899.1511	1613.9988	2204.25	1318.95
899.2933	1615.7576	2323.1	1438.8
899.4355	1617.5156	2394.6	1505.5
899.5776	1619.2728	2373.65	1488.55
899.7198	1621.0293	2300.3	1416.45
899.862	1622.785	2182.6	1296.05
900.0041	1624.54	2040.25	1150.25
900.1462	1626.2942	1899.65	1013.5
900.2883	1628.0477	1788.45	903.4
900.4304	1629.8005	1681.4	792.5
900.5725	1631.5525	1607.3	724.3
900.7145	1633.3037	1551.3	665.4
900.8566	1635.0542	1499.15	614.15
900.9986	1636.804	1461.95	575.85
901.1406	1638.553	1493.6	546.9
901.2826	1640.3013	1412.6	530
901.4245	1642.0488	1394.9	509.2
901.5665	1643.7955	1378.5	494.65
901.7085	1645.5416	1362.35	477.25
901.8504	1647.2868	1350.5	466.6
901.9923	1649.0313	1344.25	461.1
902.1342	1650.7751	1338.7	451.4
902.2761	1652.5181	1326.8	443.65
902.4179	1654.2604	1332	446.1
902.5598	1656.0019	1327.3	443
902.7016	1657.7427	1342.05	457.35
902.8434	1659.4828	1360.15	474.05
902.9852	1661.222	1384	498.65
903.127	1662.9606	1422	538.65
903.2687	1664.6984	1462.8	578.1
903.4105	1666.4354	1496.35	611.05
903.5522	1668.1717	1481.4	596.35
903.6939	1669.9072	1449.35	565.35
903.8356	1671.642	1402.8	515.55
903.9773	1673.3761	1362.75	476.75
904.119	1675.1094	1312.25	428.95
904.2606	1676.8419	1290.95	405.95
904.4022	1678.5737	1270.35	384.4
904.5439	1680.3048	1262.55	376.7
904.6855	1682.0351	1247.8	362.95
904.827	1683.7646	1244.1	355.1
904.9686	1685.4934	1234.85	352
905.1101	1687.2215	1233.75	346.55
905.2517	1688.9488	1226.75	343.55
905.3932	1690.6754	1221.3	336.15
905.5347	1692.4012	1226.3	341.65
905.6761	1694.1263	1224.75	339.4
905.8176	1695.8506	1220.55	336.95
905.9591	1697.5742	1212.4	327.6
906.1005	1699.297	1210.4	324.85
906.2419	1701.0191	1213.25	327.25
906.3833	1702.7404	1203.55	320.05
906.5246	1704.461	1207.45	320.5
906.666	1706.1808	1198.05	311.85
906.8073	1707.8999	1197.45	309.9
906.9487	1709.6182	1194.6	310.15
907.09	1711.3358	1202.55	318.3
907.2313	1713.0527	1193.15	309.65
907.3725	1714.7688	1201.25	310.4
907.5138	1716.4841	1195.1	309.55
907.655	1718.1987	1199.35	310.3
907.7962	1719.9126	1188.65	304.25
907.9374	1721.6257	1191.55	301
908.0786	1723.338	1188.7	304.5
908.2198	1725.0496	1179.7	294.25
908.3609	1726.7605	1177.55	291.25
908.502	1728.4706	1186.8	300.8
908.6431	1730.18	1183.35	295.45
908.7842	1731.8886	1178.75	292
908.9253	1733.5964	1198.05	294.25
909.0664	1735.3036	1179.3	292.4
909.2074	1737.0099	1181.3	297.45
909.3484	1738.7156	1178.1	293.5
909.4894	1740.4204	1178.85	290.5
909.6304	1742.1246	1173.5	285.3
909.7714	1743.8279	1173.85	289.25
909.9123	1745.5306	1171.1	284.85
910.0532	1747.2325	1171.15	285.6
910.1941	1748.9336	1168	283.65
910.335	1750.634	1168	281.6
910.4759	1752.3336	1170.65	286.8
910.6168	1754.0325	1172.95	289.55
910.7576	1755.7307	1167.85	281.55
910.8984	1757.4281	1162.5	278.1
911.0392	1759.1247	1174.6	281.55
911.18	1760.8206	1167.35	279.45
911.3208	1762.5158	1170.05	281.25
911.4615	1764.2102	1163.35	278.85
911.6022	1765.9039	1164.5	278.05
911.7429	1767.5968	1164.05	279.25
911.8836	1769.289	1166.85	279
912.0243	1770.9804	1158.95	275.05
912.1649	1772.6711	1160	273.35
912.3056	1774.361	1163.8	277
912.4462	1776.0502	1163.3	279.2
912.5868	1777.7386	1161.3	271.75
912.7274	1779.4263	1158.05	271.95
912.8679	1781.1132	1161.65	275.5
913.0084	1782.7994	1159.95	271.15
913.149	1784.4849	1158.7	273.25
913.2895	1786.1696	1161.35	266.8
913.4299	1787.8535	1156.65	270.35
913.5704	1789.5367	1152.4	265.55
913.7108	1791.2192	1156.4	270.4
913.8513	1792.9009	1164.8	266.45
913.9917	1794.5818	1152.2	265.75
914.132	1796.2621	1153.4	268.9
914.2724	1797.9415	1147.95	263.2
914.4128	1799.6202	1147.2	263.05
914.5531	1801.2982	1145.15	260.6
914.6934	1802.9755	1150.55	264.25
914.8337	1804.6519	1148.3	262.85
914.9739	1806.3277	1140.8	256.65
915.1142	1808.0027	1143.6	258.1
915.2544	1809.6769	1146.45	260.35
915.3946	1811.3504	1147	257.7
915.5348	1813.0231	1146.5	259.9
915.675	1814.6951	1142.45	257.85
915.8151	1816.3664	1143.65	254.6
915.9553	1818.0369	1137.75	250.2
916.0954	1819.7067	1137.55	252.35
916.2355	1821.3757	1139.2	251.6
916.3755	1823.044	1138.5	252.95
916.5156	1824.7115	1140.1	254.05
916.6556	1826.3783	1132.65	247.35
916.7956	1828.0443	1136.5	251.85
916.9356	1829.7096	1133.25	245.3
917.0756	1831.3741	1141.3	252.25
917.2155	1833.0379	1132.8	248.7
917.3555	1834.701	1138.15	249.35
917.4954	1836.3633	1131.45	243.5
917.6353	1838.0248	1132.75	243.7
917.7751	1839.6856	1133.25	246.4
917.915	1841.3457	1134.05	251.2
918.0548	1843.005	1131.3	245
918.1946	1844.6636	1130.65	246
918.3344	1846.3214	1130.95	247.05
918.4742	1847.9785	1130.55	244.7
918.6139	1849.6349	1134.2	248.8
918.7537	1851.2904	1138.9	245.05
918.8934	1852.9453	1131.1	242.7
919.0331	1854.5994	1131.25	243.05
919.1727	1856.2528	1131.4	240.7
919.3124	1857.9054	1126.75	239.15
919.452	1859.5572	1128.5	242.75
919.5916	1861.2083	1122.95	237.55
919.7312	1862.8587	1123.85	237.2
919.8708	1864.5084	1124.8	237.25
920.0103	1866.1572	1123.2	238.55
920.1498	1867.8054	1122.3	237.35
920.2893	1869.4528	1124.1	237.7
920.4288	1871.0994	1123.3	238.25
920.5683	1872.7453	1123.05	238.95
920.7077	1874.3905	1131.35	237.55
920.8471	1876.0349	1120.5	235.4
920.9865	1877.6786	1121.15	234.55
921.1259	1879.3215	1115.85	229.6
921.2653	1880.9637	1126.6	239.3
921.4046	1882.6051	1118.95	231.95
921.5439	1884.2458	1123.6	235.75
921.6832	1885.8858	1121.25	233.2
921.8225	1887.525	1115	230.25
921.9617	1889.1634	1113.3	227.25
922.101	1890.8011	1111.7	226.55
922.2402	1892.4381	1114.4	230.8
922.3794	1894.0743	1115.25	231.15
922.5185	1895.7098	1113	227.5
922.6577	1897.3446	1113.75	228.45
922.7968	1898.9786	1119.2	229.8
922.9359	1900.6118	1109.65	225.3
923.075	1902.2443	1107.45	218.05
923.214	1903.8761	1112.6	226.5
923.3531	1905.5071	1109.25	225.2
923.4921	1907.1374	1105.55	219.35
923.6311	1908.7669	1109.35	224.4
923.77	1910.3957	1103.85	215.5
923.909	1912.0237	1103.7	218.2
924.0479	1913.651	1109.8	224.4
924.1868	1915.2776	1102.2	216.9
924.3257	1916.9034	1106.4	221.3
924.4646	1918.5285	1103.5	218.1
924.6034	1920.1528	1103.7	217.1
924.7422	1921.7764	1107.8	223.75
924.881	1923.3992	1103.65	217.65
925.0198	1925.0213	1105.25	218.7
925.1586	1926.6427	1097.65	213.45
925.2973	1928.2633	1186.1	215.6
925.436	1929.8832	1100.8	213.75
925.5747	1931.5023	1098.6	211.7
925.7134	1933.1207	1102.45	216.45
925.852	1934.7383	1100.9	214.6
925.9906	1936.3552	1095.1	208.55
926.1292	1937.9714	1098.6	211.3
926.2678	1939.5868	1097.15	209.2
926.4064	1941.2015	1096	208.6
926.5449	1942.8154	1098.55	212.3
926.6834	1944.4286	1092.4	206.2
926.8219	1946.041	1115.9	208.55
926.9604	1947.6528	1095.75	205.75
927.0988	1949.2637	1093.1	207.6
927.2372	1950.8739	1092.2	206.35
927.3756	1952.4834	1087.9	201.2
927.514	1954.0921	1088	203.05
927.6523	1955.7001	1096.2	204.85
927.7907	1957.3074	1081.7	196.85
927.929	1958.9139	1085.45	198.85
928.0673	1960.5197	1088.85	202.45
928.2055	1962.1247	1091.25	206.4
928.3438	1963.729	1088.1	203.5
928.482	1965.3325	1109.8	198.85
928.6202	1966.9353	1086.95	201.05
928.7584	1968.5374	1084.6	197.15
928.8965	1970.1387	1083.15	198.3
929.0346	1971.7393	1081.05	195.5
929.1727	1973.3392	1078.1	191.3
929.3108	1974.9383	1083.4	197.15
929.4489	1976.5366	1084.05	197.45
929.5869	1978.1342	1080.65	194.15
929.7249	1979.7311	1086.55	201.05
929.8629	1981.3273	1083.6	196.35
930.0009	1982.9227	1081.5	193.7
930.1388	1984.5173	1078.75	191.15
930.2767	1986.1112	1075.55	187.9
930.4146	1987.7044	1077.8	192.35
930.5525	1989.2968	1077.6	190.85
930.6904	1990.8885	1077.9	186.95
930.8282	1992.4795	1080.65	191
930.966	1994.0697	1076.9	191.9
931.1038	1995.6592	1077.15	190.3
931.2415	1997.2479	1075.55	190.45
931.3793	1998.8359	1077.55	190.4
931.517	2000.4232	1073.9	187.85
931.6547	2002.0097	1074.3	189.45
931.7923	2003.5955	1074.4	187.15
931.93	2005.1805	1080.9	192.15
932.0676	2006.7648	1068.45	183.05
932.2052	2008.3484	1076.05	188.95
932.3427	2009.9312	1076.9	188.1
932.4803	2011.5133	1066.5	180.3
932.6178	2013.0946	1069.35	182.2
932.7553	2014.6752	1067.8	182.95
932.8928	2016.2551	1072.65	185.75
933.0302	2017.8342	1071.15	184.4
933.1676	2019.4126	1070.75	186.5
933.305	2020.9902	1066.8	181
933.4424	2022.5672	1073.55	186.65
933.5798	2024.1433	1078.3	186.65
933.7171	2025.7188	1067.45	183.8
933.8544	2027.2935	1067.2	178.55
933.9917	2028.8674	1069.4	182.25
934.129	2030.4406	1066.15	179.35
934.2662	2032.0131	1067.6	182.7
934.4034	2033.5849	1074	182.3
934.5406	2035.1559	1066.55	180.5
934.6778	2036.7261	1064.6	178.15
934.8149	2038.2957	1067.95	181.5
934.952	2039.8645	1065.35	181.35
935.0891	2041.4325	1066.9	178.6
935.2262	2042.9998	1065.1	178.25
935.3632	2044.5664	1065	175.4
935.5002	2046.1323	1062.75	175.95
935.6372	2047.6974	1065.7	180.65
935.7742	2049.2617	1062.4	176.9
935.9111	2050.8254	1097.35	174.95
936.048	2052.3883	1062.25	174.5
936.1849	2053.9504	1066.1	180.9
936.3218	2055.5118	1065.7	178.2
936.4586	2057.0725	1065.3	173.25
936.5955	2058.6325	1062.55	178.7
936.7323	2060.1917	1063.4	177.25
936.869	2061.7502	1063.45	175.1
937.0058	2063.3079	1059.85	175.3
937.1425	2064.8649	1066.95	175.7
937.2792	2066.4212	1057.7	170.1
937.4159	2067.9767	1053.1	168.55
937.5525	2069.5315	1056.75	171
937.6891	2071.0856	1058.85	173.4
937.8257	2072.6389	1059.35	171.05
937.9623	2074.1915	1059.95	174.5
938.0989	2075.7433	1056.65	166.4
938.2354	2077.2945	1058.85	173.35
938.3719	2078.8448	1056.8	172.95
938.5084	2080.3945	1058.1	173.35
938.6448	2081.9434	1055.5	169.7
938.7812	2083.4916	1056.15	170.8
938.9176	2085.039	1054.2	165.8
939.054	2086.5857	1059.95	174.95
939.1903	2088.1317	1055.4	169.75
939.3267	2089.677	1052.45	166
939.463	2091.2215	1054	168.5
939.5992	2092.7652	1056.3	170.1
939.7355	2094.3083	1051.5	165.3
939.8717	2095.8506	1053.3	168.65
940.0079	2097.3921	1050.6	166.45
940.1441	2098.933	1048.05	164.25
940.2802	2100.4731	1052	167.05
940.4163	2102.0124	1061.8	169.9
940.5524	2103.5511	1053.05	165.25
940.6885	2105.089	1054.35	167.55
940.8245	2106.6261	1055.35	169.05
940.9606	2108.1626	1048.1	161.8
941.0965	2109.6983	1080.75	166.85
941.2325	2111.2332	1053.35	167.6
941.3684	2112.7675	1057.25	171.35
941.5044	2114.301	1049.5	164.15
941.6403	2115.8337	1054.45	169.55
941.7761	2117.3657	1052.7	166.5
941.912	2118.897	1050.8	163.6
942.0478	2120.4276	1059.3	167.4
942.1835	2121.9575	1051.05	165.35
942.3193	2123.4866	1063.9	162.1
942.455	2125.0149	1045.05	155.85
942.5907	2126.5426	1050.5	165
942.7264	2128.0695	1053.9	165.25
942.8621	2129.5956	1046.05	160
942.9977	2131.1211	1047.15	155.45
943.1333	2132.6458	1052.1	166.5
943.2689	2134.1698	1048.35	161.15
943.4044	2135.693	1047.4	158.55
943.54	2137.2155	1049.1	163.5
943.6755	2138.7373	1048.35	160.75
943.8109	2140.2584	1048.1	161.6
943.9464	2141.7787	1054.55	161.3
944.0818	2143.2983	1044.9	159.85
944.2172	2144.8171	1042.4	156.8
944.3526	2146.3353	1046.3	157.55
944.4879	2147.8527	1046.3	160.85
944.6232	2149.3693	1046.25	161.5
944.7585	2150.8853	1044.55	159
944.8938	2152.4005	1045.45	159.15
945.029	2153.9149	1046.5	159.8
945.1642	2155.4287	1043.3	158.4
945.2994	2156.9417	1045.3	157.9
945.4346	2158.454	1043.05	154.6
945.5697	2159.9655	1043.4	156.5
945.7048	2161.4764	1046	160.15
945.8399	2162.9865	1039.15	153.55
945.9749	2164.4958	1042.6	155.3
946.1099	2166.0045	1043.5	154.75
946.2449	2167.5124	1039.55	153.75
946.3799	2169.0195	1039.4	153.45
946.5148	2170.526	1037.8	150.9
946.6498	2172.0317	1041.1	155.25
946.7846	2173.5367	1042.25	155.1
946.9195	2175.0409	1038.75	152.6
947.0543	2176.5445	1040.35	156.85
947.1891	2178.0473	1038.1	153.65
947.3239	2179.5494	1042.95	152.35
947.4587	2181.0507	1039.05	151.55
947.5934	2182.5513	1034.4	148.85
947.7281	2184.0512	1038.25	153.75
947.8628	2185.5504	1040.8	156.15
947.9974	2187.0488	1035.25	150.45
948.132	2188.5465	1038.95	151.65
948.2666	2190.0435	1035.35	149.3
948.4012	2191.5397	1036.4	150.85
948.5357	2193.0353	1035.8	151.6
948.6702	2194.5301	1032.5	146.6
948.8047	2196.0241	1034.7	147.3
948.9392	2197.5175	1034	148.95
949.0736	2199.0101	1038.9	148.55
949.208	2200.502	1030.45	145.4
949.3424	2201.9931	1032.35	146.65
949.4767	2203.4835	1032.6	146.45
949.611	2204.9733	1040.65	148.6
949.7453	2206.4622	1033.3	147.35
949.8796	2207.9505	1032.5	143.95
950.0138	2209.438	1035.6	151.05
950.148	2210.9248	1032.6	143.6
950.2822	2212.4109	1030.65	144.3
950.4164	2213.8962	1031.65	144.6
950.5505	2215.3809	1031.85	143.55
950.6846	2216.8648	1033.95	146.95
950.8186	2218.3479	1036.95	147.7
950.9527	2219.8304	1028.35	139.85
951.0867	2221.3121	1026.5	140.15
951.2207	2222.7931	1025.45	139.5
951.3546	2224.2733	1025.35	138.15
951.4886	2225.7529	1028.6	140.65
951.6225	2227.2317	1027.6	137.2
951.7563	2228.7098	1028	142.4
951.8902	2230.1872	1024.65	139.35
952.024	2231.6638	1023.5	137.95
952.1578	2233.1397	1029.25	138.2
952.2916	2234.6149	1021.6	136.25
952.4253	2236.0894	1025.2	137.6
952.559	2237.5632	1036.2	141.6
952.6927	2239.0362	1019.5	134.4
952.8263	2240.5085	1022.7	134.75
952.9599	2241.9801	1018.9	131.95
953.0935	2243.4509	1017.75	131.9
953.2271	2244.921	1019.9	132.85
953.3606	2246.3904	1023.15	133.45
953.4941	2247.8591	1018.4	133
953.6276	2249.3271	1017.4	131.9
953.7611	2250.7943	1022.85	136.6
953.8945	2252.2608	1017.75	131.15
954.0279	2253.7266	1018.85	134.15
954.1612	2255.1917	1020.65	135.7
954.2946	2256.656	1020.55	132.55
954.4279	2258.1197	1015.15	126.8
954.5612	2259.5826	1020.45	131.3
954.6944	2261.0447	1017.05	130
954.8276	2262.5062	1017.95	129.75
954.9608	2263.9669	1015.9	128.85
955.094	2265.4269	1013.45	126.5
955.2271	2266.8862	1016.65	129.6
955.3602	2268.3448	1011.95	125.35
955.4933	2269.8026	1014.6	128.2
955.6264	2271.2598	1012.2	124.2
955.7594	2272.7162	1015.75	128.25
955.8924	2274.1719	1015.35	128.35
956.0253	2275.6268	1012.9	127.7
956.1583	2277.0811	1012	123.85
956.2912	2278.5346	1010.95	125.2
956.4241	2279.9874	1011.55	125.1
956.5569	2281.4395	1013.3	126.2
956.6897	2282.8908	1018.15	127.35
956.8225	2284.3414	1011.95	124.75
956.9553	2285.7914	1010.95	125
957.088	2287.2406	1013.8	126.55
957.2207	2288.689	1006.45	120.65
957.3534	2290.1368	1011.35	124.35
957.486	2291.5838	1015.2	126.7
957.6186	2293.0302	1011.75	122.6
957.7512	2294.4758	1012.3	125.5
957.8838	2295.9206	1012.3	123.5
958.0163	2297.3648	1010.75	123.7
958.1488	2298.8082	1011.55	123.65
958.2813	2300.251	1009.7	125.2
958.4137	2301.693	1012.4	123.6
958.5461	2303.1343	1013.6	126.25
958.6785	2304.5748	1009.25	124.2
958.8108	2306.0147	1008.55	122.85
958.9432	2307.4538	1012.75	122.3
959.0754	2308.8922	1005.7	120.4
959.2077	2310.3299	1006.2	120.65
959.3399	2311.7669	1007.7	122.6
959.4721	2313.2031	1003.25	117.35
959.6043	2314.6387	1010.7	123.95
959.7365	2316.0735	1006.65	120.3
959.8686	2317.5076	1007.3	121.15
960.0006	2318.941	1006.85	118.4
960.1327	2320.3737	1002.4	115.75
960.2647	2321.8056	1009.7	121.25
960.3967	2323.2369	1008.3	122.4
960.5287	2324.6674	1009.45	121.4
960.6606	2326.0972	1012.45	126.1
960.7925	2327.5263	1014.2	128.35
960.9244	2328.9547	1015.35	128.9
961.0562	2330.3823	1011.05	124
961.1881	2331.8092	1012.75	123.15
961.3198	2333.2355	1008.6	122.45
961.4516	2334.661	1003.9	116.9
961.5833	2336.0858	1004.35	114.6
961.715	2337.5098	1000.75	113.8
961.8467	2338.9332	1005.15	118.4
961.9783	2340.3558	1004.95	115.7
962.1099	2341.7778	1004.15	115.65
962.2415	2343.199	1004	116.5
962.373	2344.6195	1002.55	117.85
962.5045	2346.0393	999.15	112.6
962.636	2347.4583	1002.9	114
962.7675	2348.8767	999.55	113.05
962.8989	2350.2943	999.1	111.8
963.0303	2351.7113	1000.05	114.7
963.1617	2353.1275	1000.2	114.65
963.293	2354.543	1022.7	111.95
963.4243	2355.9578	998.15	108.75
963.5556	2357.3718	998.95	111.25
963.6868	2358.7852	1000.6	110.75
963.818	2360.1978	998.05	110.4
963.9492	2361.6098	998.05	110.2
964.0803	2363.021	1001.6	111.55
964.2114	2364.4315	994.65	108.15
964.3425	2365.8413	995.35	106.7
964.4736	2367.2504	995.5	109.55
964.6046	2368.6587	994.1	107.45
964.7356	2370.0664	996.85	111.6
964.8666	2371.4733	999	110.8
964.9975	2372.8795	994.15	108.25
965.1284	2374.285	996.25	108.75
965.2593	2375.6899	992.9	108.75
965.3901	2377.0939	990.5	104.3
965.5209	2378.4973	992.55	107.8
965.6517	2379.9	993.15	105.9
965.7825	2381.3019	992.15	106
965.9132	2382.7032	991.9	105.1
966.0439	2384.1037	995.3	110.15
966.1745	2385.5035	993.7	107.6
966.3051	2386.9027	993.6	106
966.4357	2388.3011	994.6	106.4
966.5663	2389.6987	991.95	105.7
966.6968	2391.0957	993.25	106.25
966.8273	2392.492	990.85	102.95
966.9578	2393.8876	993.35	105.15
967.0882	2395.2824	992.75	107.7
967.2186	2396.6765	986.7	102.3
967.349	2398.07	988	102.95
967.4793	2399.4627	990.6	101.8
967.6097	2400.8547	990.1	103.1
967.7399	2402.246	992.55	101.3
967.8702	2403.6366	991.95	104.05
968.0004	2405.0265	988.7	102.3
968.1306	2406.4156	992.05	100.2
968.2607	2407.8041	991.85	101.35
968.3909	2409.1918	988.05	98.9
968.521	2410.5789	988.1	101.05
968.651	2411.9652	989.15	100.4
968.781	2413.3508	985.6	98.55
968.911	2414.7358	988.05	101.35
969.041	2416.12	984.65	98.45
969.1709	2417.5035	988.7	101.65
969.3008	2418.8863	984.6	98.1
969.4307	2420.2684	987.75	98.9
969.5606	2421.6497	987.65	98.15
969.6904	2423.0304	984.15	97.6
969.8201	2424.4104	983.85	98.1
969.9499	2425.7896	986.75	90.55
970.0796	2427.1682	988.15	102.25
970.2093	2428.546	985.05	99.4
970.3389	2429.9232	982.7	96.45
970.4685	2431.2996	980.5	93.75
970.5981	2432.6753	983.9	99.15
970.7277	2434.0503	978.8	91.15
970.8572	2435.4246	982.2	95.5
970.9867	2436.7982	984.1	95.6
971.1161	2438.1711	981.65	95.4
971.2456	2439.5433	983.7	96.9
971.375	2440.9148	987.35	96.35
971.5043	2442.2856	981.8	95
971.6336	2443.6557	985.35	96.7
971.7629	2445.025	979.55	93.05
971.8922	2446.3937	980.85	94.15
972.0214	2447.7617	981.65	94.75
972.1506	2449.1289	975.85	88.6
972.2798	2450.4955	982.5	92.65
972.4089	2451.8613	978.55	93.3
972.538	2453.2265	979.55	93.9
972.6671	2454.5909	979.35	92.75
972.7961	2455.9546	978.95	91.45
972.9251	2457.3177	976.95	90.2
973.0541	2458.68	981.15	92.5
973.1831	2460.0416	977.7	93.15
973.312	2461.4025	981	93.2
973.4408	2462.7627	991.6	92.35
973.5697	2464.1222	975.8	90.3
973.6985	2465.4811	976.65	89.4
973.8273	2466.8392	977.2	90
973.956	2468.1966	977.4	87.55
974.0847	2469.5533	980.3	90.5
974.2134	2470.9093	979.05	89.95
974.3421	2472.2645	976.5	90.15
974.4707	2473.6191	976.6	89.95
974.5993	2474.973	979.1	93.55
974.7278	2476.3262	978.2	88.65
974.8563	2477.6787	978.65	93.2
974.9848	2479.0305	976.15	89.45
975.1132	2480.3816	977.15	88.5
975.2417	2481.7319	975.8	88.5
975.37	2483.0816	974.35	85.35
975.4984	2484.4306	975.5	87.05
975.6267	2485.7789	969.8	84.7
975.755	2487.1264	975.75	87
975.8833	2488.4733	972.9	89.1
976.0115	2489.8195	992.9	88.5
976.1397	2491.165	975.2	85.2
976.2678	2492.5097	978.2	90.75
976.3959	2493.8538	971.65	85.3
976.524	2495.1972	972.55	86.9
976.6521	2496.5398	974.95	86.45
976.7801	2497.8818	973.75	84.8
976.9081	2499.2231	970.7	84.25
977.036	2500.5637	972.95	83.85
977.164	2501.9035	973.9	85.2
977.2918	2503.2427	972.9	81.25
977.4197	2504.5812	975.5	90.45
977.5475	2505.919	974.1	86.8
977.6753	2507.256	970.95	84.7
977.8031	2508.5924	966.85	82.25
977.9308	2509.9281	976.6	84
978.0585	2511.2631	971.15	83.85
978.1861	2512.5974	969.25	85.25
978.3137	2513.9309	971.45	82.05
978.4413	2515.2638	1002.3	86.5
978.5689	2516.596	967.5	81.35
978.6964	2517.9275	968.75	80.6
978.8239	2519.2583	969.55	83.1
978.9513	2520.5884	967.9	79.75
979.0788	2521.9178	969.65	82.65
979.2062	2523.2465	967	80.25
979.3335	2524.5745	968	79.4
979.4608	2525.9018	966.1	79.3
979.5881	2527.2284	966.65	81.2
979.7154	2528.5543	967.5	82.8
979.8426	2529.8796	966.55	80.1
979.9698	2531.2041	965.9	79.65
980.0969	2532.5279	964.4	78.95
980.224	2533.851	968.6	82.3
980.3511	2535.1735	965.75	79.85
980.4781	2536.4952	967.45	82.35
980.6052	2537.8163	966.75	78.6
980.7321	2539.1366	963.75	78.75
980.8591	2540.4562	969.5	82
980.986	2541.7752	963.45	78.85
981.1129	2543.0935	966.15	79.9
981.2397	2544.411	968.3	80.05
981.3665	2545.7279	964.2	79.4
981.4933	2547.0441	965.2	78.15
981.62	2548.3596	971.45	83.05
981.7467	2549.6744	964.25	78
981.8734	2550.9885	971.2	83.75
982.0001	2552.3019	963.2	79.5
982.1267	2553.6146	962.8	78.45
982.2532	2554.9266	962.3	75.55
982.3798	2556.2379	962.25	75.5
982.5063	2557.5485	960.25	74.95
982.6327	2558.8585	970.4	74.1
982.7592	2560.1677	968.85	77.8
982.8856	2561.4762	963	76.4
983.0119	2562.7841	968.4	77.85
983.1383	2564.0913	962.45	73.95
983.2646	2565.3977	961.1	76.95
983.3908	2566.7035	963.1	75.9
983.517	2568.0086	962.95	73.7
983.6432	2569.313	962.95	76.4
983.7694	2570.6167	965	73.9
983.8955	2571.9197	961.2	75.95
984.0216	2573.222	964.9	75
984.1476	2574.5236	962.75	75.25
984.2737	2575.8246	964.05	73.35
984.3996	2577.1248	964.35	73.85
984.5256	2578.4244	961.7	76.8
984.6515	2579.7232	962.05	76.3
984.7774	2581.0214	989.15	72.6
984.9032	2582.3189	962.95	77.55
985.029	2583.6157	962.25	71.25
985.1548	2584.9118	960.65	73.6
985.2806	2586.2072	960.1	73.15
985.4063	2587.5019	958.6	72.3
985.5319	2588.7959	960.85	75.8
985.6576	2590.0893	963.35	74.05
985.7832	2591.3819	958.85	73.3
985.9087	2592.6739	960.3	76.35
986.0343	2593.9652	961.05	72.4
986.1597	2595.2557	960.4	75.3
986.2852	2596.5456	962.65	73.8
986.4106	2597.8348	959.35	72.35
986.536	2599.1234	961.35	74.95
986.6614	2600.4112	961.2	75.05
986.7867	2601.6983	963.2	72
986.912	2602.9848	962.55	74.2
987.0372	2604.2705	968.95	78.25
987.1624	2605.5556	961.8	73.8
987.2876	2606.84	960	74.5
987.4128	2608.1237	960.55	73.15
987.5379	2609.4067	961.85	73.75
987.6629	2610.689	967.75	71.9
987.788	2611.9707	961.55	70.5
987.913	2613.2516	961	69.45
988.0379	2614.5319	959.2	74.2
988.1629	2615.8115	957.1	68.9
988.2878	2617.0903	958.35	69.05
988.4126	2618.3685	957.45	71.8
988.5375	2619.6461	956.15	68.55
988.6622	2620.9229	956.55	71.75
988.787	2622.199	958.8	71.85
988.9117	2623.4745	955.15	67.65
989.0364	2624.7493	957.65	73.05
989.161	2626.0234	957.15	70.65
989.2857	2627.2968	956	68.35
989.4102	2628.5695	955.1	66.5
989.5348	2629.8415	955.55	69.85
989.6593	2631.1128	955.3	66.05
989.7837	2632.3835	953.8	68.2
989.9082	2633.6535	955.2	67.95
990.0326	2634.9228	956.8	70.4
990.1569	2636.1914	955.8	71.4
990.2812	2637.4593	960.55	68.35
990.4055	2638.7265	955.2	66.8
990.5298	2639.9931	953.75	67.7
990.654	2641.259	955.25	66.85
990.7782	2642.5242	953.55	67.3
990.9023	2643.7887	953.6	66.45
991.0264	2645.0525	953.4	66.45
991.1505	2646.3156	951.7	64.2
991.2745	2647.5781	950.9	66.95
991.3985	2648.8398	949.85	62.15
991.5225	2650.1009	990.9	66.3
991.6464	2651.3613	949.95	62.15
991.7703	2652.6211	951.8	64.45
991.8942	2653.8801	951.45	68
992.018	2655.1385	953.35	64.4
992.1418	2656.3961	950.1	62.15
992.2655	2657.6531	950.75	63.3
992.3892	2658.9094	952.35	64.65
992.5129	2660.1651	948	61.7
992.6366	2661.42	951.1	62.65
992.7602	2662.6743	950.25	61.05
992.8837	2663.9279	946.8	60.05
993.0073	2665.1808	949.9	61.65
993.1307	2666.433	951.9	64.3
993.2542	2667.6846	948.85	64.2
993.3776	2668.9354	957.2	65.6
993.501	2670.1856	953.65	64.5
993.6244	2671.4351	951.4	64.35
993.7477	2672.6839	953.5	65.5
993.8709	2673.9321	951.55	64.6
993.9942	2675.1795	953.15	66.35
994.1174	2676.4263	952.75	64
994.2405	2677.6724	952	66.15
994.3637	2678.9179	952.55	64.95
994.4868	2680.1626	950.05	63.65
994.6098	2681.4067	950.25	61.9
994.7328	2682.6501	952.4	65.35
994.8558	2683.8928	952.1	66.9
994.9788	2685.1348	948.15	62.45
995.1017	2686.3761	946.75	61
995.2245	2687.6168	950.8	64.95
995.3474	2688.8568	948.6	62.8
995.4702	2690.0961	947.55	59.7
995.5929	2691.3348	946.15	58.7
995.7156	2692.5727	947.5	60.65
995.8383	2693.81	947.7	60.6
995.961	2695.0466	945.55	60.7
996.0836	2696.2826	948.4	61.15
996.2062	2697.5178	948.15	58.65
996.3287	2698.7524	946.6	59.65
996.4512	2699.9863	947.25	57.35
996.5737	2701.2195	945.4	61.5
996.6961	2702.452	950.35	61.95
996.8185	2703.6839	949.5	62.15
996.9408	2704.9151	948.8	63.45
997.0631	2706.1456	951.8	65
997.1854	2707.3755	947.6	61.65
997.3077	2708.6046	951	62.05
997.4299	2709.8331	948.3	62.3
997.552	2711.0609	947.75	61.25
997.6742	2712.2881	950.3	63.85
997.7963	2713.5145	952.3	62.2
997.9183	2714.7403	949	62.25
998.0403	2715.9654	951.7	64.25
998.1623	2717.1899	970.25	69.85
998.2842	2718.4136	954.8	69.25
998.4062	2719.6367	952.4	65.2
998.528	2720.8591	962.5	69.25
998.6498	2722.0809	957.75	70.9
998.7716	2723.3019	959.45	68.85
998.8934	2724.5223	959.95	72.55
999.0151	2725.7421	959.4	71.65
999.1368	2726.9611	959.7	71.25
999.2584	2728.1795	961.75	71
999.38	2729.3972	952.9	67.65
999.5016	2730.6142	964.95	68.1
999.6231	2731.8306	950.05	62.75
999.7446	2733.0462	951.95	64.05
999.8661	2734.2612	954.35	62.45
999.9875	2735.4756	949.3	61.35
1000.1089	2736.6892	948.85	60.9
1000.2302	2737.9022	945.4	59.15
1000.3515	2739.1145	948.1	62.2
1000.4728	2740.3262	953.35	59.65
1000.594	2741.5372	945.5	58.85
1000.7152	2742.7475	940.85	52.05
1000.8363	2743.9571	944.9	58.65
1000.9575	2745.1661	946.4	54.45
1001.0785	2746.3744	944.4	57.65
1001.1996	2747.582	941.7	54.3
1001.3206	2748.7889	941.85	53.25
1001.4415	2749.9952	940.05	53.65
1001.5625	2751.2008	940.75	51.9
1001.6833	2752.4057	942.7	53.1
1001.8042	2753.61	939.25	51.25
1001.925	2754.8136	942.75	53.25
1002.0458	2756.0165	940.15	54.8
1002.1665	2757.2188	937.6	49.65
1002.2872	2758.4204	940.05	52.85
1002.4078	2759.6213	939.05	49.1
1002.5285	2760.8215	944.4	52.5
1002.649	2762.0211	941.3	50.35
1002.7696	2763.22	940.4	50.9
1002.8901	2764.4182	940.75	49
1003.0106	2765.6158	935.55	47.45
1003.131	2766.8127	938.8	51.15
1003.2514	2768.009	933.05	47.1
1003.3717	2769.2045	934.3	47.55
1003.492	2770.3994	937.35	47.7
1003.6123	2771.5936	935.75	48.2
1003.7325	2772.7872	931.8	44.6
1003.8527	2773.9801	934.95	46.65
1003.9729	2775.1723	950.3	46
1004.093	2776.3639	933.75	48.3
1004.2131	2777.5548	935.15	47.4
1004.3331	2778.745	934.6	48.2
1004.4531	2779.9346	934.7	50.2
1004.5731	2781.1235	933.05	45.85
1004.693	2782.3117	933	48.35
1004.8129	2783.4992	937.15	49.4
1004.9328	2784.6861	934.75	47.25
1005.0526	2785.8723	935.05	48.15
1005.1723	2787.0579	934.6	45.1
1005.2921	2788.2428	936.05	49.4
1005.4118	2789.427	933.65	48.45
1005.5314	2790.6106	934	49.15
1005.651	2791.7935	936.2	48.7
1005.7706	2792.9757	932.65	46.75
1005.8902	2794.1573	934.45	44.75
1006.0097	2795.3382	932.7	45.6
1006.1291	2796.5184	931.1	46.6
1006.2485	2797.698	937.3	49.15
1006.3679	2798.8769	937.6	49.45
1006.4873	2800.0551	934.05	47.6
1006.6066	2801.2327	935.95	47.1
1006.7258	2802.4096	933.45	47.55
1006.8451	2803.5859	939.85	51.1
1006.9642	2804.7615	937.15	49.15
1007.0834	2805.9364	937.85	53.9
1007.2025	2807.1106	936.75	51.1
1007.3216	2808.2842	938.5	51.4
1007.4406	2809.4572	942.25	55.95
1007.5596	2810.6294	946.8	59.5
1007.6785	2811.801	942.3	56.2
1007.7975	2812.972	944.05	58.15
1007.9163	2814.1423	943.6	54.8
1008.0352	2815.3119	949.45	61.2
1008.154	2816.4808	948.6	62.1
1008.2727	2817.6491	955.5	66.8
1008.3914	2818.8167	958.25	73.6
1008.5101	2819.9837	966.6	73.55
1008.6288	2821.15	969.25	81.95
1008.7474	2822.3157	973.5	89.05
1008.8659	2823.4807	986	98.4
1008.9844	2824.645	988.55	100.85
1009.1029	2825.8086	997.25	112.35
1009.2214	2826.9716	1006.7	121.05
1009.3398	2828.134	1016.1	129.9
1009.4581	2829.2957	1020.1	133.15
1009.5764	2830.4567	1026.4	141.8
1009.6947	2831.617	1028.7	141.05
1009.813	2832.7767	1033	147.4
1009.9312	2833.9358	1032.15	146.7
1010.0493	2835.0941	1037.75	149.75
1010.1675	2836.2519	1030.25	141.9
1010.2855	2837.4089	1030.8	142.6
1010.4036	2838.5653	1023.85	135.9
1010.5216	2839.7211	1020.15	134.45
1010.6396	2840.8761	1016.5	127.55
1010.7575	2842.0306	1014.65	129.2
1010.8754	2843.1843	1015.1	131.65
1010.9932	2844.3374	1016.95	130.8
1011.111	2845.4899	1015.85	130.6
1011.2288	2846.6417	1017.7	130.9
1011.3465	2847.7928	1020	134
1011.4642	2848.9433	1023.7	137.1
1011.5818	2850.0931	1024.05	136.15
1011.6995	2851.2422	1026.65	140.65
1011.817	2852.3907	1026.6	140.6
1011.9345	2853.5385	1026.3	138.2
1012.052	2854.6857	1054.55	141.25
1012.1695	2855.8323	1029.75	143.85
1012.2869	2856.9781	1030	146.7
1012.4042	2858.1233	1033	146.5
1012.5216	2859.2679	1038.3	151.95
1012.6389	2860.4118	1043.6	156
1012.7561	2861.555	1050.7	160.2
1012.8733	2862.6976	1049.45	160.3
1012.9905	2863.8395	1049.55	162.5
1013.1076	2864.9808	1053.35	166.1
1013.2247	2866.1214	1055.05	169.7
1013.3417	2867.2614	1055.45	168.05
1013.4587	2868.4007	1063	173.4
1013.5757	2869.5393	1064.1	175.6
1013.6926	2870.6773	1069.05	177.6
1013.8095	2871.8146	1072.55	183.75
1013.9263	2872.9513	1071.95	183.75
1014.0431	2874.0874	1069.1	183.2
1014.1599	2875.2227	1072.75	185.8
1014.2766	2876.3574	1076.6	190.5
1014.3933	2877.4915	1076.45	190.3
1014.51	2878.6249	1083.45	196.6
1014.6266	2879.7577	1086.95	199.8
1014.7431	2880.8898	1091	194.1
1014.8596	2882.0212	1090.2	204
1014.9761	2883.152	1096.5	208.85
1015.0925	2884.2821	1092.9	207.4
1015.2089	2885.4116	1092.85	207.7
1015.3253	2886.5405	1095	208.65
1015.4416	2887.6686	1105.85	216.9
1015.5579	2888.7962	1098.85	213.2
1015.6741	2889.923	1103.3	217.95
1015.7903	2891.0493	1104.95	218.9
1015.9065	2892.1748	1096.55	206.8
1016.0226	2893.2997	1095	207.05
1016.1387	2894.424	1094.5	207.4
1016.2547	2895.5476	1097	210.25
1016.3707	2896.6706	1093.65	207.9
1016.4866	2897.7929	1098.2	211.65
1016.6025	2898.9145	1097.1	210.7
1016.7184	2900.0355	1104.8	218.05
1016.8342	2901.1559	1098.85	213.05
1016.95	2902.2756	1095	209
1017.0658	2903.3946	1094.9	209
1017.1815	2904.513	1095.9	205.6
1017.2971	2905.6308	1092.25	206.75
1017.4127	2906.7479	1091.6	202.85
1017.5283	2907.8643	1094.45	205.7
1017.6439	2908.9801	1088.75	203.05
1017.7594	2910.0953	1087.7	203.55
1017.8748	2911.2098	1092	203.55
1017.9902	2912.3236	1098.35	202.8
1018.1056	2913.4368	1091.15	202.05
1018.2209	2914.5494	1091.4	205.95
1018.3362	2915.6613	1091.2	196.8
1018.4515	2916.7725	1081.65	191.3
1018.5667	2917.8831	1081.25	195.45
1018.6819	2918.9931	1079.8	191.65
1018.797	2920.1024	1075.05	187.5
1018.9121	2921.211	1072.5	184.8
1019.0271	2922.319	1071.45	186.5
1019.1421	2923.4264	1065.7	179.45
1019.2571	2924.5331	1069.45	183.75
1019.372	2925.6391	1068.75	181.5
1019.4869	2926.7445	1065.7	180.3
1019.6017	2927.8493	1069.15	182
1019.7165	2928.9534	1068.65	180.25
1019.8313	2930.0569	1068.75	179.9
1019.946	2931.1597	1069.6	182.8
1020.0606	2932.2619	1070.65	182.8
1020.1753	2933.3634	1072.6	187.15
1020.2899	2934.4643	1083.2	190.6
1020.4044	2935.5645	1083.7	190.9
1020.5189	2936.6641	1081.4	191.85
1020.6334	2937.763	1082.45	196.85
1020.7478	2938.8613	1077.75	190.45
1020.8622	2939.959	1084.65	193.75
1020.9765	2941.056	1075.65	189.4
1021.0908	2942.1523	1067.3	180.5
1021.2051	2943.248	1062.3	175.5
1021.3193	2944.3431	1048.55	159.6
1021.4334	2945.4375	1047.25	159.65
1021.5476	2946.5313	1032.7	147.1
1021.6617	2947.6244	1034	147.4
1021.7757	2948.7169	1021.85	133.35
1021.8897	2949.8087	1018.8	132.4
1022.0037	2950.8999	1007.9	121.9
1022.1176	2951.9904	1002.2	116.25
1022.2315	2953.0803	996.9	110.55
1022.3453	2954.1696	990.3	102
1022.4591	2955.2582	985.1	96.85
1022.5728	2956.3462	987.05	100.75
1022.6865	2957.4335	984.2	96.05
1022.8002	2958.5202	986.2	97.4
1022.9138	2959.6062	981.2	96.05
1023.0274	2960.6916	982.9	95.25
1023.141	2961.7764	981.9	95.85
1023.2545	2962.8605	980.25	93.55
1023.3679	2963.9439	982.95	96.45
1023.4813	2965.0267	981.45	93.6
1023.5947	2966.1089	1006.45	97.75
1023.708	2967.1905	981.6	94.85
1023.8213	2968.2714	978.25	91.4
1023.9346	2969.3516	977.25	92.45
1024.0478	2970.4312	984.05	89.15
1024.1609	2971.5102	979.2	93.45
1024.274	2972.5885	977.25	93.15
1024.3871	2973.6662	981.4	90.8
1024.5002	2974.7432	978.3	92.25
1024.6132	2975.8196	976.35	88.05
1024.7261	2976.8954	976.4	91.1
1024.839	2977.9705	978.6	90.7
1024.9519	2979.045	977.05	89.95
1025.0647	2980.1188	976.25	90.1
1025.1775	2981.192	978.75	90.05
1025.2902	2982.2645	974.95	87.5
1025.4029	2983.3364	973.15	87.4
1025.5156	2984.4077	972.25	86.3
1025.6282	2985.4783	974.75	83.3
1025.7407	2986.5483	966.25	80
1025.8532	2987.6177	963.35	77.45
1025.9657	2988.6864	961.45	74.15
1026.0782	2989.7545	961.75	71.75
1026.1906	2990.8219	954.85	68.9
1026.3029	2991.8887	959.65	70.85
1026.4152	2992.9548	953.55	66.25
1026.5275	2994.0204	949.85	64.2
1026.6397	2995.0852	948.1	63.05
1026.7519	2996.1495	946.35	59.75
1026.864	2997.2131	943.2	56.15
1026.9761	2998.276	938.7	50.8
1027.0882	2999.3383	936.8	47.15
1027.2002	3000.4	936.25	48.55
1027.3122	3001.4611	931.4	46.45
1027.4241	3002.5215	928.7	42.8
1027.536	3003.5812	927.85	40.1
1027.6478	3004.6404	927.4	41
1027.7596	3005.6989	930.2	43
1027.8714	3006.7567	924.3	38.45
1027.9831	3007.8139	953.85	35.95
1028.0947	3008.8705	920.3	34.8
1028.2064	3009.9264	939.8	35.4
1028.3179	3010.9818	922.4	34.05
1028.4295	3012.0364	921.5	35.5
1028.541	3013.0905	917.55	30.6
1028.6524	3014.1439	920.75	34.25
1028.7638	3015.1966	918.7	32
1028.8752	3016.2487	921.05	34.1
1028.9865	3017.3002	921.95	32.35
1029.0978	3018.3511	920.2	34.95
1029.209	3019.4013	918.45	31.65
1029.3202	3020.4509	917.15	30.8
1029.4314	3021.4998	917.35	30.1
1029.5425	3022.5481	918.65	32.7
1029.6535	3023.5958	915.35	27.95
1029.7645	3024.6428	918.8	30.1
1029.8755	3025.6892	917.1	30.65
1029.9864	3026.735	917.65	32.05
1030.0973	3027.7802	916.25	29.85
1030.2082	3028.8247	915.75	29.7
1030.319	3029.8685	916.9	30.55
1030.4297	3030.9118	917.05	29.6
1030.5404	3031.9544	912.2	26.65
1030.6511	3032.9963	916.25	29.25
1030.7617	3034.0376	910.3	23.35
1030.8723	3035.0783	918.8	29.85
1030.9829	3036.1184	919	30.65
1031.0934	3037.1578	913.8	27.4
1031.2038	3038.1966	917.6	29.25
1031.3142	3039.2348	915.95	29.85
1031.4246	3040.2723	928.2	32.95
1031.5349	3041.3092	913.65	29.5
1031.6452	3042.3455	915.75	30.15
1031.7554	3043.3811	916.7	29.1
1031.8656	3044.4161	918.55	32.65
1031.9758	3045.4505	917.3	30.5
1032.0859	3046.4842	917.1	31.7
1032.1959	3047.5173	916.4	31
1032.3059	3048.5498	916.05	30.95
1032.4159	3049.5816	917.6	30.95
1032.5258	3050.6128	917.6	29.4
1032.6357	3051.6434	919.1	31.9
1032.7455	3052.6734	920.5	34.5
1032.8553	3053.7027	919.1	30.9
1032.9651	3054.7314	918.15	32.75
1033.0748	3055.7594	916.7	29.2
1033.1845	3056.7868	915.15	27.45
1033.2941	3057.8136	916	28.55
1033.4037	3058.8398	916.7	30.95
1033.5132	3059.8653	915.6	29
1033.6227	3060.8902	918.4	30.55
1033.7321	3061.9145	919.4	32.85
1033.8415	3062.9381	920	34.65
1033.9509	3063.9612	935.15	31.45
1034.0602	3064.9835	919.65	32.8
1034.1694	3066.0053	921.55	33.2
1034.2787	3067.0264	918.25	31.2
1034.3878	3068.0469	919.65	32
1034.497	3069.0668	924.1	34.25
1034.6061	3070.086	918.75	32
1034.7151	3071.1046	920.6	32.45
1034.8241	3072.1226	920.45	33.6
1034.9331	3073.1399	916.95	30.5
1035.042	3074.1567	919.75	31.85
1035.1508	3075.1727	918.5	32.25
1035.2597	3076.1882	916.7	31.8
1035.3684	3077.203	915.5	27.95
1035.4772	3078.2173	916.7	30.7
1035.5859	3079.2308	917.3	28.25
1035.6945	3080.2438	918.05	29.15
1035.8031	3081.2561	913.35	27.4
1035.9117	3082.2678	911.05	25.25
1036.0202	3083.2789	912.25	25.45
1036.1286	3084.2893	912.3	24.95
1036.2371	3085.2991	911.8	24.45
1036.3454	3086.3083	915.2	23.65
1036.4538	3087.3169	912.85	25.2
1036.562	3088.3248	910.8	22.4
1036.6703	3089.3321	910.25	21.2
1036.7785	3090.3388	909.55	22.45
1036.8866	3091.3449	907.45	21.85
1036.9948	3092.3503	912.15	24.05
1037.1028	3093.3551	906.9	22.85
1037.2108	3094.3593	906.4	21.95
1037.3188	3095.3629	907.25	20.15
1037.4267	3096.3658	910.3	24.4
1037.5346	3097.3681	907.4	22.15
1037.6425	3098.3698	908.55	20.95
1037.7503	3099.3708	907.05	21.1
1037.858	3100.3713	908.35	22.35
1037.9657	3101.3711	908.55	21.3
1038.0734	3102.3702	1044.35	12.3
1038.181	3103.3688	909.75	20.7
1038.2886	3104.3667	905.8	20.15
1038.3961	3105.364	905.15	17.6
1038.5036	3106.3607	907.15	19.2
1038.611	3107.3568	905	18.1
1038.7184	3108.3522	906.25	20.55
1038.8257	3109.347	904.75	16.1
1038.933	3110.3412	909.2	18.75
1039.0403	3111.3348	907.45	20.5
1039.1475	3112.3277	904.1	16.3
1039.2547	3113.32	903.95	16.75
1039.3618	3114.3117	906.45	20.65
1039.4689	3115.3028	903.95	15.7
1039.5759	3116.2932	906.3	19.9
1039.6829	3117.2831	907.5	15.85
1039.7898	3118.2723	904.25	18.1
1039.8967	3119.2608	903.85	17.45
1040.0035	3120.2488	901.4	13.7
1040.1103	3121.2361	903.6	16.7
1040.2171	3122.2229	901.55	14.55
1040.3238	3123.209	905.95	17.6
1040.4305	3124.1944	901.05	14.5
1040.5371	3125.1793	903.4	15.55
1040.6437	3126.1635	901.05	14.35
1040.7502	3127.1471	901.1	15.95
1040.8567	3128.1301	899.95	13.9
1040.9631	3129.1125	901.25	14.6
1041.0695	3130.0942	903.25	16.15
1041.1759	3131.0753	909.8	12.8
1041.2822	3132.0558	902.85	10.6
1041.3884	3133.0357	900.1	11
1041.4946	3134.015	901.5	13.9
1041.6008	3134.9936	902.3	14.05
1041.7069	3135.9716	921.25	14.7
1041.813	3136.949	901.55	14.75
1041.919	3137.9258	917.15	12.5
1042.025	3138.902	907.25	14.95
1042.1309	3139.8775	898.6	12.15
1042.2368	3140.8524	900.15	13.55
1042.3427	3141.8267	901.45	15.7
1042.4485	3142.8004	900.7	11.45
1042.5542	3143.7735	906.25	12.4
1042.6599	3144.7459	900.5	10.5
1042.7656	3145.7178	900.4	14.85
1042.8712	3146.689	897.55	9.55
1042.9768	3147.6596	902.05	13.05
1043.0823	3148.6295	898.45	10.15
1043.1878	3149.5989	900.2	15.6
1043.2932	3150.5676	898.25	12.95
1043.3986	3151.5357	897.75	10.45
1043.5039	3152.5032	900.1	14.3
1043.6092	3153.4701	899.35	12.45
1043.7145	3154.4364	901.2	12.5
1043.8197	3155.402	897.2	11.6
1043.9248	3156.367	900.85	12.4
1044.03	3157.3315	937.45	11.3
1044.135	3158.2952	898.05	11.3
1044.24	3159.2584	897.35	10.4
1044.345	3160.221	898.4	10.6
1044.4499	3161.1829	897.15	10.85
1044.5548	3162.1442	899.3	13.2
1044.6596	3163.105	899.2	12.9
1044.7644	3164.065	897.85	11.3
1044.8692	3165.0245	900.4	10.7
1044.9739	3165.9834	895.75	9.75
1045.0785	3166.9416	897.4	12.8
1045.1831	3167.8993	897.5	11.05
1045.2877	3168.8563	896.55	10.2
1045.3922	3169.8127	896.25	10
1045.4966	3170.7684	899.05	14.05
1045.6011	3171.7236	899.25	11.05
1045.7054	3172.6782	898.7	11.6
1045.8098	3173.6321	897.4	9.5
1045.914	3174.5854	901.55	10.6
1046.0183	3175.5381	899.15	12.05
1046.1224	3176.4902	897.25	11.55
1046.2266	3177.4417	898.7	12.65
1046.3307	3178.3926	896	10.55
1046.4347	3179.3428	896.1	10.15
1046.5387	3180.2924	897.05	10.8
1046.6427	3181.2415	898.7	11.6
1046.7466	3182.1899	898.5	12.15
1046.8504	3183.1377	897	10.9
1046.9542	3184.0848	898.7	8.2
1047.058	3185.0314	897.2	10.35
1047.1617	3185.9773	899.1	11.95
1047.2654	3186.9227	901.35	14
1047.369	3187.8674	896.25	10.2
1047.4726	3188.8115	899.35	7.75
1047.5761	3189.755	895.55	8.9
1047.6796	3190.6979	896.25	8.55
1047.783	3191.6402	895.35	9
1047.8864	3192.5818	895.85	8.8
1047.9898	3193.5229	902.25	8.95
1048.0931	3194.4633	895.3	7.6
1048.1963	3195.4031	898.3	10.35
1048.2995	3196.3423	896.8	11.05
1048.4027	3197.2809	897.35	11.85
1048.5058	3198.2189	897.2	10.6
1048.6089	3199.1563	901.65	9.15
1048.7119	3200.0931	894.65	6.5
1048.8148	3201.0292	893.2	6.95
1048.9178	3201.9648	896.75	10.05
1049.0206	3202.8997	900.35	10
1049.1235	3203.834	896.2	9.5
1049.2262	3204.7677	897.25	12.05
1049.329	3205.7008	896.85	9.2
1049.4317	3206.6333	894.85	9.95
1049.5343	3207.5652	897.55	9.15
1049.6369	3208.4964	895.3	7.3
1049.7394	3209.4271	896.45	10.5
1049.8419	3210.3571	893	6.85
1049.9444	3211.2865	895.8	7.9
1050.0468	3212.2154	896.85	9.4
1050.1491	3213.1436	897.95	9.6
1050.2514	3214.0712	902.35	8
1050.3537	3214.9982	895.4	8.7
1050.4559	3215.9246	894.4	7.15
1050.5581	3216.8503	894.1	8.1
1050.6602	3217.7755	893.6	5
1050.7623	3218.7001	897.4	11.4
1050.8643	3219.624	894.65	7.7
1050.9663	3220.5473	894.45	6.6
1051.0682	3221.4701	894.6	6.25
1051.1701	3222.3922	897.55	9.25
1051.2719	3223.3137	893	6.5
1051.3737	3224.2346	894.45	7.8
1051.4754	3225.1549	893.4	6.85
1051.5771	3226.0746	895.1	9.35
1051.6788	3226.9937	897.2	11.1
1051.7804	3227.9121	894.1	8.6
1051.8819	3228.83	892.7	7.6
1051.9834	3229.7473	894.05	8.1
1052.0849	3230.6639	895.25	7.65
1052.1863	3231.5799	894.25	6.6
1052.2876	3232.4954	897.1	9.15
1052.3889	3233.4102	893.4	6
1052.4902	3234.3244	896.1	8.95
1052.5914	3235.238	895.05	9.15
1052.6926	3236.151	917.45	7.05
1052.7937	3237.0634	892.6	7.5
1052.8948	3237.9752	893.75	8.05
1052.9958	3238.8864	896.15	9.15
1053.0968	3239.797	892.85	6.05
1053.1977	3240.7069	894.3	6.45
1053.2986	3241.6163	893.65	6.2
1053.3994	3242.5251	894.2	8.75
1053.5002	3243.4332	892.45	9
1053.6009	3244.3408	896.35	8.75
1053.7016	3245.2477	893.15	7.1
1053.8022	3246.154	896.65	10.05
1053.9028	3247.0598	895.1	6.85
1054.0034	3247.9649	892.5	5.6
1054.1039	3248.8694	895.05	5.4
1054.2043	3249.7733	892.65	6.65
1054.3047	3250.6766	894.1	6.85
1054.4051	3251.5793	894.1	5.45
1054.5054	3252.4814	892	5.4
1054.6056	3253.3829	893.2	7.2
1054.7058	3254.2838	894.3	8.25
1054.806	3255.1841	891.5	7.55
1054.9061	3256.0838	893.85	7.7
1055.0061	3256.9829	891.85	6.7
1055.1062	3257.8814	894.85	7.2
1055.2061	3258.7792	894.35	5.1
1055.306	3259.6765	892.75	5.65
1055.4059	3260.5731	893.05	6.55
1055.5057	3261.4692	891.85	4.85
1055.6055	3262.3647	893	6.1
1055.7052	3263.2595	891.55	4.15
1055.8049	3264.1538	892.2	6.75
1055.9045	3265.0474	895	7.5
1056.0041	3265.9404	891.35	3.55
1056.1036	3266.8329	891.65	7.7
1056.2031	3267.7247	901.6	3.9
1056.3025	3268.616	891.75	7.4
1056.4019	3269.5066	893.65	7.1
1056.5013	3270.3966	895.55	6.05
1056.6005	3271.286	891.55	5.4
