Software Version:	3.9.2.0
Unit SN:	10000200
Spectrometer SN:	6960
Date:	3/14/2024 1:31:36 PM
Data Line Index:	25
Spectral Points:	2048
Integration time (ms):	125
Averages:	20
Delay (ms):	30000
Sequence Number:	1
Processing:	dark subtract
Laser Power (mW):	300
Laser Current (mA):	825
Laser Diode Temp (C):	25
Laser Case Temp (C):	28.6
System Temp (C):	28.6
Spectrometer Temp (C):	26.3
CCD Temp (C):	0.013
Secondary Temp (C):	20.008
Heatsink Temp (C):	24.486
CCDPCB Temp (C):	37.796
SecondaryPCB Temp (C):	35.595

Wavelength	RamanShift	Raw Counts	Dark Subtracted
787.061	30.1047	469.05	57.9
787.2016	32.3739	472.1	64.7
787.3422	34.6426	475.05	66.95
787.4828	36.9109	480.95	69.2
787.6235	39.1787	492.35	77
787.7642	41.4461	502.35	81.6
787.9049	43.7131	512.4	90.4
788.0456	45.9796	520.3	95.05
788.1863	48.2456	536.15	105.3
788.3271	50.5112	549.05	113.85
788.4679	52.7764	554.45	116.7
788.6087	55.0411	561.8	120.45
788.7496	57.3054	573.3	125.5
788.8904	59.5692	586.3	136.45
789.0313	61.8326	601.35	146.9
789.1722	64.0955	616.65	157.3
789.3132	66.3579	636.4	172.8
789.4541	68.6199	656.55	191.4
789.5951	70.8815	693.1	224.5
789.7361	73.1426	777.95	305.45
789.8771	75.4032	1005.4	526.6
790.0181	77.6634	1564.05	1081.35
790.1592	79.9231	2896.45	2405.85
790.3003	82.1824	5811.95	5312.05
790.4414	84.4412	11125.35	10607.7
790.5825	86.6995	18575.65	18031.4
790.7237	88.9574	25918.25	25349.35
790.8648	91.2148	31061.7	30473.15
791.006	93.4717	33432.65	32835.85
791.1472	95.7282	33923.15	33322.9
791.2885	97.9842	33778.55	33174.35
791.4297	100.2398	33081.8	32476.05
791.571	102.4949	32308	31694.55
791.7123	104.7495	31410.2	30793.4
791.8536	107.0036	30493.4	29877.7
791.9949	109.2573	29730.6	29114.3
792.1363	111.5105	28959.8	28345.45
792.2777	113.7632	28303.65	27684.25
792.4191	116.0154	27723.15	27093
792.5605	118.2672	27407.2	26786
792.7019	120.5185	26948.15	26320.15
792.8434	122.7693	26674.65	26049.45
792.9849	125.0197	26394.25	25764.35
793.1264	127.2696	26132.85	25496.7
793.2679	129.519	25948.1	25317.4
793.4094	131.7679	25702.35	25064.45
793.551	134.0163	25470.05	24830.4
793.6926	136.2642	25119.05	24474.15
793.8342	138.5117	24789.55	24139.15
793.9758	140.7587	24425.9	23779.1
794.1175	143.0052	24104.8	23457.65
794.2591	145.2512	23779.85	23129.7
794.4008	147.4967	23458.1	22804.7
794.5425	149.7417	23252.2	22596.95
794.6842	151.9863	23072.35	22418.5
794.826	154.2304	22955.2	22293.45
794.9677	156.4739	22797.8	22135.4
795.1095	158.717	22665.4	22001.85
795.2513	160.9596	22540.85	21872.6
795.3931	163.2017	22263.5	21593.25
795.535	165.4433	21982.25	21307.55
795.6768	167.6844	21651.95	20977.25
795.8187	169.925	21290.3	20614.45
795.9606	172.1651	20921.5	20241.2
796.1025	174.4047	20631.75	19950.8
796.2445	176.6439	20381.25	19695.95
796.3864	178.8825	20140.05	19452.75
796.5284	181.1206	19997	19306.95
796.6704	183.3582	19835.2	19138.5
796.8124	185.5954	19709.3	19013.7
796.9544	187.832	19632.2	18933.85
797.0965	190.0681	19592.95	18891.55
797.2386	192.3037	19617.65	18914.8
797.3806	194.5388	19577.15	18870.4
797.5228	196.7734	19619.95	18910.3
797.6649	199.0075	19674.3	18962.05
797.807	201.2411	19824.35	19109.5
797.9492	203.4742	19898.3	19186.25
798.0914	205.7068	20025.65	19306.3
798.2336	207.9389	20160.55	19446.15
798.3758	210.1704	20328.6	19610.15
798.518	212.4015	20435.55	19713
798.6603	214.632	20565.4	19840.35
798.8025	216.862	20717.55	19998.9
798.9448	219.0915	20764.55	20054.65
799.0871	221.3205	20912.4	20204.35
799.2294	223.549	21004.7	20304
799.3718	225.777	21144.65	20442.3
799.5141	228.0044	21233.15	20530.55
799.6565	230.2314	21434.75	20731.95
799.7989	232.4578	21597.75	20897.1
799.9413	234.6837	21748.4	21038.7
800.0837	236.909	21863.8	21153.1
800.2262	239.1339	21882.65	21146.2
800.3687	241.3582	21779.65	21061.35
800.5111	243.582	21642.45	20895.15
800.6536	245.8053	21512.4	20773.45
800.7961	248.0281	21396.85	20662.05
800.9387	250.2503	21369.95	20630.75
801.0812	252.472	21381.4	20640.75
801.2238	254.6932	21463.95	20717.7
801.3664	256.9139	21541.35	20791.85
801.509	259.134	21707.2	20954.55
801.6516	261.3536	21895.9	21144.55
801.7942	263.5727	22196.1	21444.85
801.9369	265.7912	22360.1	21610.5
802.0795	268.0092	22612.1	21859.7
802.2222	270.2267	22795.2	22042
802.3649	272.4436	22874.05	22119.75
802.5076	274.6601	22849.8	22086.7
802.6504	276.8759	22738.5	21985.15
802.7931	279.0913	22673	21914.25
802.9359	281.3061	22526.7	21765.15
803.0787	283.5204	22492.75	21730.95
803.2215	285.7341	22456.95	21691.75
803.3643	287.9473	22501.45	21726.2
803.5071	290.16	22551.4	21777.35
803.6499	292.3721	22653.9	21890.55
803.7928	294.5837	22932.5	22167.95
803.9357	296.7947	23141.75	22376.3
804.0786	299.0052	23309.4	22545.4
804.2215	301.2152	23245.4	22476.1
804.3644	303.4246	23069.1	22303.7
804.5074	305.6334	22653.85	21889.5
804.6503	307.8418	22227.7	21458.75
804.7933	310.0495	21781.25	21011.5
804.9363	312.2568	21343.85	20576.5
805.0793	314.4635	20924.9	20156.85
805.2223	316.6696	20635.4	19868.05
805.3653	318.8752	20413.95	19632.65
805.5084	321.0802	20368.7	19596.4
805.6514	323.2847	20344.05	19570.15
805.7945	325.4887	20377.5	19604.2
805.9376	327.692	20391.65	19615.25
806.0807	329.8949	20319.85	19541.75
806.2238	332.0972	20092.2	19313.65
806.367	334.2989	19893.3	19111.6
806.5101	336.5001	19605.35	18823.4
806.6533	338.7007	19402	18624.6
806.7965	340.9008	19250.25	18467.25
806.9397	343.1003	19058.2	18270.25
807.0829	345.2992	18945.95	18156.35
807.2261	347.4976	18870.1	18081.85
807.3693	349.6955	18782.1	17989.45
807.5126	351.8927	18802.05	18008
807.6559	354.0895	18672.95	17869.45
807.7991	356.2856	18675.85	17879.9
807.9424	358.4812	18604.45	17812.95
808.0857	360.6763	18615.85	17824.75
808.2291	362.8707	18576.3	17781.15
808.3724	365.0646	18614.1	17816.8
808.5158	367.258	18594.4	17794.05
808.6591	369.4508	18644.25	17839.4
808.8025	371.643	18727.9	17926.35
808.9459	373.8346	18791.7	17987.85
809.0893	376.0257	18853.8	18044.4
809.2327	378.2162	18811.4	18004.95
809.3762	380.4062	18794.1	17985.3
809.5196	382.5956	18673.4	17863.35
809.6631	384.7844	18560.85	17751.55
809.8066	386.9726	18429.8	17617.2
809.9501	389.1603	18327.05	17518.15
810.0936	391.3474	18226.6	17383.45
810.2371	393.5339	18191.5	17382.05
810.3806	395.7199	18113.35	17307.7
810.5241	397.9052	18120	17317.7
810.6677	400.09	18163.25	17360.9
810.8113	402.2743	18302.85	17502.2
810.9548	404.4579	18393.2	17589.95
811.0984	406.641	18603.85	17803.2
811.2421	408.8235	18805.75	18006.2
811.3857	411.0054	18958.55	18156.75
811.5293	413.1868	19139.85	18332.85
811.673	415.3675	19213.35	18403
811.8166	417.5477	19260.1	18451.8
811.9603	419.7273	19235.8	18423.7
812.104	421.9064	19144.45	18324.75
812.2477	424.0848	19048.05	18236.3
812.3914	426.2627	18889.15	18074.65
812.5351	428.4399	18644.7	17828.3
812.6788	430.6166	18282.2	17460.55
812.8226	432.7928	17926.15	17103.25
812.9663	434.9683	17596.65	16774.5
813.1101	437.1432	17372.05	16549.15
813.2539	439.3176	17154.9	16330.6
813.3977	441.4914	17001.3	16174.9
813.5415	443.6645	16970.55	16141.35
813.6853	445.8371	16895.3	16069.05
813.8291	448.0091	16834.2	16006.05
813.973	450.1806	16789.95	15960.85
814.1168	452.3514	16738.3	15908.95
814.2607	454.5216	16760.9	15929.15
814.4046	456.6913	16663.7	15835.55
814.5485	458.8603	16711.3	15886.35
814.6924	461.0288	16808.2	15977.8
814.8363	463.1967	16763.35	15934.35
814.9802	465.3639	16793.7	15962.35
815.1241	467.5306	16747.55	15914.6
815.2681	469.6967	16774.35	15943.55
815.412	471.8622	16788.55	15954.45
815.556	474.0271	16865.8	16035.6
815.7	476.1914	16876.45	16044.55
815.844	478.3551	16854.45	16023.4
815.988	480.5182	16906.85	16072.4
816.132	482.6807	16954.95	16123.25
816.276	484.8426	17128.2	16294.35
816.4201	487.0039	17436.05	16603.6
816.5641	489.1647	17796.25	16958.9
816.7082	491.3248	18131.8	17297.3
816.8522	493.4843	18273.65	17438.7
816.9963	495.6432	18227.3	17392.45
817.1404	497.8015	18082.3	17244.5
817.2845	499.9592	17956.05	17123.35
817.4286	502.1163	17755.5	16918.8
817.5727	504.2728	17470.45	16632.75
817.7168	506.4287	17192.7	16353.5
817.861	508.5839	16834.4	15993.85
818.0051	510.7386	16552.4	15716.2
818.1493	512.8927	16452.05	15604.75
818.2935	515.0461	16373.35	15535.1
818.4377	517.199	16438.9	15602.7
818.5818	519.3512	16579.65	15740.95
818.726	521.5029	16781.9	15935.6
818.8703	523.6539	17011.5	16168.4
819.0145	525.8043	17094.95	16254
819.1587	527.9541	17051.15	16206.5
819.303	530.1033	16906.4	16060.4
819.4472	532.2519	16748.6	15906.5
819.5915	534.3999	16662.55	15817.15
819.7357	536.5472	16743.9	15897.5
819.88	538.694	16968.35	16124.15
820.0243	540.8401	17267.35	16420
820.1686	542.9856	17491.65	16643.1
820.3129	545.1305	17575.6	16726.7
820.4572	547.2748	17492.1	16645
820.6016	549.4185	17255.6	16403.05
820.7459	551.5615	17068.15	16218.85
820.8902	553.704	16995.5	16147.85
821.0346	555.8458	17001.1	16152.15
821.1789	557.987	17180	16333.15
821.3233	560.1276	17353.45	16503.8
821.4677	562.2675	17624.4	16778.6
821.6121	564.4069	18106.15	17259.6
821.7565	566.5456	18491.8	17645.95
821.9009	568.6837	18644.8	17798.9
822.0453	570.8212	18263.3	17416.35
822.1897	572.958	17637.1	16788.3
822.3342	575.0942	16989.1	16142
822.4786	577.2299	16534.2	15686.95
822.6231	579.3648	16315.1	15470.1
822.7675	581.4992	16271.5	15422.85
822.912	583.6329	16313.7	15465.25
823.0565	585.766	16486.45	15638.8
823.201	587.8985	16643.35	15794.4
823.3454	590.0304	16634.2	15761.5
823.4899	592.1616	16587.15	15731.3
823.6345	594.2922	16465.95	15616
823.779	596.4222	16239.8	15387.5
823.9235	598.5515	16045.3	15191.5
824.068	600.6802	15852.15	14999.9
824.2126	602.8083	15686.15	14831.7
824.3571	604.9358	15633.8	14780.15
824.5017	607.0626	15610.2	14757.45
824.6462	609.1888	15655.45	14800.75
824.7908	611.3144	15762.8	14910.7
824.9354	613.4393	15858.6	15005.9
825.08	615.5636	15929	15076.45
825.2246	617.6873	15916.05	15063.05
825.3692	619.8103	15902.65	15047
825.5138	621.9327	15698.5	14840
825.6584	624.0544	15484.5	14630
825.803	626.1756	15319.4	14460.95
825.9477	628.2961	15163.45	14309.6
826.0923	630.4159	15062.5	14207.9
826.237	632.5351	15023.9	14167.05
826.3816	634.6537	14950.45	14094.65
826.5263	636.7716	14970	14113.6
826.6709	638.8889	14966	14109.6
826.8156	641.0056	14961.05	14103.25
826.9603	643.1216	14939.85	14078.6
827.105	645.237	14919.6	14059.75
827.2497	647.3518	14818.9	13959.65
827.3944	649.4659	14779.1	13919.95
827.5391	651.5793	14685.85	13827.85
827.6838	653.6922	14642.45	13782.4
827.8285	655.8043	14621	13762.45
827.9733	657.9159	14588.65	13726.7
828.118	660.0268	14571.4	13708.35
828.2627	662.137	14543	13680.5
828.4075	664.2466	14527.1	13663.9
828.5522	666.3556	14540.15	13680.35
828.697	668.4639	14437.05	13571.4
828.8418	670.5716	14418.1	13557.75
828.9865	672.6786	14395.4	13530.95
829.1313	674.785	14309.75	13447.05
829.2761	676.8907	14306.5	13443.1
829.4209	678.9958	14311.3	13450.9
829.5657	681.1002	14287.95	13428.1
829.7105	683.204	14253.15	13385.15
829.8553	685.3072	14200.35	13334.7
830.0001	687.4097	14165.45	13302.25
830.1449	689.5115	14157.95	13293.65
830.2898	691.6127	14153.15	13289.4
830.4346	693.7132	14069.75	13203.75
830.5794	695.8131	14105.6	13226.9
830.7243	697.9123	14054.8	13188.6
830.8691	700.0109	14104.55	13239.4
831.014	702.1089	14098.7	13234.8
831.1588	704.2061	14130.75	13263.55
831.3037	706.3028	14165.05	13299.4
831.4486	708.3987	14194.6	13329.55
831.5935	710.4941	14192.2	13325.95
831.7383	712.5887	14265.4	13398.1
831.8832	714.6827	14415.4	13544.2
832.0281	716.7761	14561.45	13694.05
832.173	718.8688	14742.35	13873.9
832.3179	720.9608	14854	13982.2
832.4628	723.0522	14984.2	14112
832.6077	725.1429	14999.35	14131.4
832.7527	727.233	15016.45	14148.85
832.8976	729.3224	15055.3	14185.95
833.0425	731.4112	14927.2	14058.3
833.1874	733.4993	14757.25	13886.25
833.3324	735.5867	14510.65	13640.35
833.4773	737.6735	14284.95	13411.75
833.6222	739.7596	14103.35	13233.45
833.7672	741.845	13960.9	13090.4
833.9122	743.9298	13879.45	13004.65
834.0571	746.014	13782.6	12914.3
834.2021	748.0974	13781.35	12908.6
834.347	750.1802	13734.55	12863.65
834.492	752.2624	13719.5	12849.95
834.637	754.3439	13779.35	12906.95
834.782	756.4247	13871.95	12994.35
834.9269	758.5048	14005.55	13134.35
835.0719	760.5843	14273.4	13403.65
835.2169	762.6631	14632.8	13761
835.3619	764.7413	15185.85	14314.75
835.5069	766.8188	15857.55	14986.55
835.6519	768.8956	16447.85	15575.85
835.7969	770.9718	16839.65	15970.8
835.9419	773.0473	16802.1	15930.95
836.0869	775.1221	16538	15664.4
836.232	777.1962	16259.75	15388.9
836.377	779.2697	16102.95	15227.55
836.522	781.3426	16146.4	15263.8
836.667	783.4147	16233.95	15361.4
836.8121	785.4862	16342.1	15472.55
836.9571	787.557	16161.25	15289.65
837.1021	789.6271	15759.65	14886.45
837.2472	791.6966	15125.65	14254.6
837.3922	793.7654	14480.4	13607.25
837.5373	795.8335	14052.45	13179.1
837.6823	797.901	13742.2	12870.9
837.8274	799.9678	13557.6	12682.95
837.9724	802.0339	13436.85	12566.2
838.1175	804.0993	13398.95	12515.45
838.2626	806.1641	13289.6	12417.4
838.4076	808.2282	13248.45	12374.8
838.5527	810.2916	13149.05	12268.7
838.6978	812.3544	13055.5	12183.05
838.8428	814.4164	12970.1	12097.95
838.9879	816.4778	13003.95	12129.2
839.133	818.5385	13012.65	12139.6
839.2781	820.5986	13140.65	12269.65
839.4232	822.658	13376.85	12500.65
839.5682	824.7166	13619.25	12746.1
839.7133	826.7747	14111	13238.55
839.8584	828.832	14592.6	13718.65
840.0035	830.8886	14955.5	14077.15
840.1486	832.9446	15142.6	14266.9
840.2937	834.9999	15026.9	14153.6
840.4388	837.0545	14772.45	13894.05
840.5839	839.1085	14465.55	13589.3
840.729	841.1618	14138.8	13259.75
840.8741	843.2143	13886.65	13009.65
841.0192	845.2662	13687.4	12811.4
841.1643	847.3175	13532.2	12659.5
841.3095	849.368	13388.7	12514.6
841.4546	851.4179	13306.3	12431.5
841.5997	853.467	13166.3	12289.1
841.7448	855.5155	13118	12243.1
841.8899	857.5633	13006	12129.3
842.0351	859.6105	12871	11993.85
842.1802	861.6569	12804.05	11930
842.3253	863.7027	12713.65	11834.2
842.4704	865.7478	12653.6	11778.95
842.6156	867.7922	12593.9	11716.35
842.7607	869.8359	12585.95	11709.1
842.9058	871.8789	12596.95	11716.9
843.0509	873.9212	12704.25	11794
843.1961	875.9629	12741.6	11865.25
843.3412	878.0039	12861.7	11983.15
843.4863	880.0441	12935.1	12059.1
843.6315	882.0837	13005.55	12128.4
843.7766	884.1226	13009.65	12129.55
843.9218	886.1609	13001.55	12127.45
844.0669	888.1984	13079.5	12202.6
844.212	890.2352	13208.45	12331.1
844.3572	892.2714	13211.3	12329.65
844.5023	894.3069	13149.5	12268.15
844.6475	896.3416	12972.5	12095.75
844.7926	898.3757	12840.95	11965.45
844.9377	900.4091	12738.1	11860.5
845.0829	902.4418	12707.95	11826.25
845.228	904.4739	12740.9	11861.3
845.3732	906.5052	12763.15	11883.2
845.5183	908.5358	12715.4	11838.65
845.6635	910.5658	12584.6	11704.35
845.8086	912.595	12402.15	11525.7
845.9538	914.6236	12151.25	11272.3
846.0989	916.6515	12028.55	11149.3
846.2441	918.6786	11934.65	11055.1
846.3892	920.7051	11905.1	11023.05
846.5344	922.7309	11939.85	11060.65
846.6795	924.756	11937.7	11057.8
846.8246	926.7804	12014.4	11132.65
846.9698	928.8041	12003	11120.55
847.1149	930.8272	12058.4	11177.75
847.2601	932.8495	12026.95	11146.65
847.4052	934.8711	11993.2	11112.45
847.5504	936.892	11902.6	11020.5
847.6955	938.9123	11885.55	11005.55
847.8407	940.9318	11882.6	11003.7
847.9858	942.9506	11830.25	10949.6
848.131	944.9688	11765.6	10883.6
848.2761	946.9862	11667.05	10786.9
848.4213	949.003	11516.2	10636.3
848.5664	951.019	11420.05	10540.75
848.7115	953.0344	11356.25	10477.05
848.8567	955.0491	11311.95	10429.9
849.0018	957.063	11353	10471.4
849.147	959.0763	11416.75	10537.05
849.2921	961.0888	11447.7	10564.7
849.4373	963.1007	11526.2	10648.6
849.5824	965.1119	11527.85	10648.25
849.7275	967.1223	11497.7	10617.3
849.8727	969.1321	11494.5	10614.15
850.0178	971.1412	11461.85	10580.5
850.1629	973.1495	11436.4	10557.5
850.3081	975.1572	11497.1	10585.2
850.4532	977.1641	11481.85	10599.5
850.5983	979.1704	11437.75	10555.05
850.7435	981.1759	11384.35	10499.4
850.8886	983.1808	11402.3	10521.3
851.0337	985.1849	11431.4	10538.75
851.1788	987.1884	11477.9	10593.05
851.324	989.1911	11556.5	10673.1
851.4691	991.1932	11649.15	10764.25
851.6142	993.1945	11665.9	10785
851.7593	995.1951	11633.8	10752.4
851.9045	997.1951	11622.7	10736.65
852.0496	999.1943	11534.75	10652.95
852.1947	1001.1928	11530.35	10644.9
852.3398	1003.1906	11539.85	10659.25
852.4849	1005.1877	11623.4	10738.7
852.63	1007.1841	11683.45	10802.5
852.7751	1009.1798	11736.4	10851.8
852.9202	1011.1748	11625.05	10744.2
853.0653	1013.1691	11481.9	10599.3
853.2104	1015.1627	11245.9	10364.15
853.3555	1017.1556	11006.5	10122.95
853.5006	1019.1477	10873.55	9992.55
853.6457	1021.1392	10771.35	9890.25
853.7908	1023.1299	10700.65	9819.45
853.9359	1025.12	10707.2	9822.8
854.081	1027.1093	10739.85	9861.6
854.2261	1029.0979	10846.55	9965.7
854.3712	1031.0859	10927.05	10046.5
854.5163	1033.0731	10948.5	10067.2
854.6613	1035.0596	10913.3	10032.4
854.8064	1037.0454	10763.85	9881.6
854.9515	1039.0304	10670.85	9787.95
855.0965	1041.0148	10527.05	9648.25
855.2416	1042.9985	10431.8	9548.8
855.3867	1044.9814	10381.55	9500.85
855.5317	1046.9636	10302.25	9416.45
855.6768	1048.9452	10275.45	9394.15
855.8219	1050.926	10294.3	9413.55
855.9669	1052.9061	10330.4	9447.9
856.112	1054.8855	10322.45	9438.65
856.257	1056.8642	10389.1	9506
856.4021	1058.8421	10397.25	9511.9
856.5471	1060.8194	10440.95	9559.15
856.6921	1062.7959	10474.85	9594.4
856.8372	1064.7717	10519.35	9634.65
856.9822	1066.7469	10580.35	9698.7
857.1272	1068.7213	10638.7	9753.25
857.2723	1070.695	10699.75	9819.65
857.4173	1072.6679	10718.6	9835.1
857.5623	1074.6402	10721.6	9840.1
857.7073	1076.6117	10679.95	9794.25
857.8523	1078.5826	10585.35	9702.6
857.9973	1080.5527	10487.9	9604.2
858.1423	1082.5221	10372.15	9487.6
858.2873	1084.4908	10383.3	9499.95
858.4323	1086.4587	10372.1	9486.35
858.5773	1088.426	10477.2	9595.15
858.7223	1090.3925	10445.3	9557.8
858.8673	1092.3584	10466.8	9583.05
859.0123	1094.3235	10442.5	9561.55
859.1573	1096.2879	10492.45	9608.1
859.3022	1098.2515	10584.35	9704.1
859.4472	1100.2145	10744.9	9860.5
859.5922	1102.1767	10883.2	9997
859.7371	1104.1382	11130.45	10247.45
859.8821	1106.099	11369.45	10485.1
860.027	1108.0591	11589.05	10707.75
860.172	1110.0185	11761.75	10876.85
860.3169	1111.9771	11839.85	10958.7
860.4619	1113.9351	11741.55	10859.3
860.6068	1115.8923	11574.25	10693.2
860.7517	1117.8488	11420.05	10534.65
860.8967	1119.8045	11199.55	10317.4
861.0416	1121.7596	11051.05	10165.5
861.1865	1123.7139	10910.85	10028.35
861.3314	1125.6675	10856.5	9975.2
861.4763	1127.6204	10866.85	9983.35
861.6212	1129.5726	10832.9	9948.3
861.7661	1131.524	10758.65	9875.1
861.911	1133.4748	10635.75	9751.25
862.0559	1135.4248	10467.35	9581.05
862.2008	1137.3741	10297.3	9415.05
862.3457	1139.3226	10191.85	9306.6
862.4905	1141.2705	10141.6	9257.2
862.6354	1143.2176	10029.35	9140.55
862.7803	1145.164	9978.05	9092.2
862.9251	1147.1097	9906.45	9024.15
863.07	1149.0546	9834.9	8950.3
863.2148	1150.9989	9707.9	8821
863.3597	1152.9424	9605.15	8722.4
863.5045	1154.8852	9500.1	8616.95
863.6493	1156.8272	9431.6	8547.45
863.7942	1158.7686	9445.35	8555.95
863.939	1160.7092	9446.45	8561.8
864.0838	1162.6491	9452.35	8569.75
864.2286	1164.5883	9557.9	8676.05
864.3734	1166.5267	9642.15	8757.95
864.5182	1168.4644	9802.05	8918
864.663	1170.4014	10013.55	9128.05
864.8078	1172.3377	10254.55	9373.5
864.9526	1174.2732	10566.25	9681.35
865.0974	1176.2081	10963.15	10079.4
865.2421	1178.1421	11422.85	10534.95
865.3869	1180.0755	11906.6	11023.4
865.5317	1182.0082	12286.8	11402.65
865.6764	1183.9401	12443.35	11559.3
865.8212	1185.8713	12348.85	11465.65
865.9659	1187.8017	12033.75	11150.75
866.1106	1189.7315	11647.35	10763.3
866.2554	1191.6605	11269.15	10356.4
866.4001	1193.5888	10939.35	10052.85
866.5448	1195.5163	10749.25	9864.4
866.6895	1197.4432	10647	9760.9
866.8342	1199.3693	10578.7	9695.85
866.9789	1201.2947	10550.8	9660.2
867.1236	1203.2193	10496.65	9613.75
867.2683	1205.1432	10490.15	9605.9
867.413	1207.0664	10428.65	9543.55
867.5576	1208.9889	10445.6	9558.75
867.7023	1210.9106	10411.35	9526.7
867.847	1212.8316	10410.55	9531.35
867.9916	1214.7519	10462.55	9571.2
868.1363	1216.6715	10458.5	9574.55
868.2809	1218.5903	10546.2	9662.15
868.4255	1220.5084	10595.2	9710.55
868.5701	1222.4257	10694.55	9809.65
868.7148	1224.3424	10736.4	9854.5
868.8594	1226.2583	10834.15	9946.8
869.004	1228.1735	10955.55	10070.3
869.1486	1230.0879	11135.65	10251.3
869.2932	1232.0016	11295.85	10412.6
869.4377	1233.9146	11426.3	10539.8
869.5823	1235.8269	11449.75	10564.95
869.7269	1237.7384	11373.55	10489.3
869.8715	1239.6492	11218.95	10336.95
870.016	1241.5592	11169.8	10283.7
870.1606	1243.4686	11181.65	10298.7
870.3051	1245.3772	11344.2	10459.85
870.4496	1247.285	11543.75	10659.45
870.5941	1249.1922	11672.7	10791.9
870.7387	1251.0986	11842.65	10958.9
870.8832	1253.0042	11917.4	11033.2
871.0277	1254.9092	11996.25	11110.75
871.1722	1256.8134	12104.5	11221.3
871.3167	1258.7169	12257.95	11373.05
871.4611	1260.6196	12392.7	11510.65
871.6056	1262.5216	12615.55	11730.5
871.7501	1264.4229	12810.4	11927.2
871.8945	1266.3234	13008.8	12125.65
872.039	1268.2232	13151.6	12265.5
872.1834	1270.1223	13216.9	12331.35
872.3278	1272.0207	13227.6	12341.55
872.4723	1273.9183	13217.15	12326.55
872.6167	1275.8151	13163.55	12280.9
872.7611	1277.7113	13131.05	12244.35
872.9055	1279.6067	13155.65	12271.65
873.0499	1281.5014	13338.2	12450.9
873.1943	1283.3953	13693.8	12806.85
873.3386	1285.2885	14169.3	13285.2
873.483	1287.181	14658.7	13773.45
873.6274	1289.0727	15143.95	14260.55
873.7717	1290.9637	15469.85	14584.25
873.9161	1292.854	15711.6	14828.2
874.0604	1294.7435	15718.1	14834.5
874.2047	1296.6323	15592.95	14707.75
874.349	1298.5204	15477	14587.9
874.4933	1300.4077	15294.3	14410.8
874.6376	1302.2943	15067.2	14182.9
874.7819	1304.1802	14796	13911
874.9262	1306.0653	14323.8	13437.2
875.0705	1307.9497	13899.55	13015.3
875.2147	1309.8333	13479.35	12596.2
875.359	1311.7162	13157.7	12271.25
875.5032	1313.5984	12960.45	12073.65
875.6475	1315.4798	12845.4	11948.95
875.7917	1317.3605	12770.85	11870.65
875.9359	1319.2405	12656.2	11770.6
876.0801	1321.1197	12455.3	11569.3
876.2243	1322.9982	12183.2	11295.45
876.3685	1324.876	11909.05	11024.3
876.5127	1326.753	11617.3	10732.2
876.6569	1328.6293	11403	10517.95
876.801	1330.5048	11244.9	10357.5
876.9452	1332.3796	11069.55	10188
877.0893	1334.2537	10983.1	10071.15
877.2335	1336.127	10893.15	10007.6
877.3776	1337.9996	10840.5	9956.45
877.5217	1339.8714	10841.75	9956.45
877.6658	1341.7426	10861.05	9932.15
877.8099	1343.6129	10878	9991.6
877.954	1345.4826	10858.2	9971.95
878.0981	1347.3515	10867.3	9980.15
878.2422	1349.2196	10834.25	9948.05
878.3862	1351.087	10859.35	9973.05
878.5303	1352.9537	10893.3	10007.55
878.6743	1354.8197	10987.45	10102.85
878.8184	1356.6849	11173.55	10288.7
878.9624	1358.5493	11300.3	10415.25
879.1064	1360.4131	11500.2	10615.85
879.2504	1362.276	11628.45	10745.45
879.3944	1364.1383	11652.15	10767.15
879.5384	1365.9998	11480.65	10591.85
879.6823	1367.8606	11195.75	10310.25
879.8263	1369.7206	10810.65	9925.05
879.9702	1371.5799	10462.15	9572.05
880.1142	1373.4384	10185.4	9298.05
880.2581	1375.2962	9954.4	9066.8
880.402	1377.1533	9634.85	8750.2
880.5459	1379.0096	9270.25	8382.3
880.6898	1380.8652	8896.15	8011.9
880.8337	1382.7201	8612.9	7728.5
880.9776	1384.5742	8365.1	7480.3
881.1215	1386.4275	8140.6	7253.8
881.2653	1388.2802	8016.25	7132.45
881.4092	1390.132	7876.4	6992.1
881.553	1391.9832	7809.85	6924.1
881.6968	1393.8336	7724.2	6838.85
881.8406	1395.6832	7678.45	6789.45
881.9844	1397.5322	7633.75	6748.35
882.1282	1399.3803	7606.95	6716.85
882.272	1401.2278	7553.45	6668.45
882.4158	1403.0745	7530.85	6646.7
882.5595	1404.9204	7519.8	6636.85
882.7033	1406.7656	7549.45	6664.45
882.847	1408.6101	7554.55	6670
882.9908	1410.4538	7570.75	6686.05
883.1345	1412.2968	7606.5	6722.35
883.2782	1414.139	7666.75	6782.15
883.4219	1415.9805	7736.95	6853.7
883.5656	1417.8213	7824.6	6933.25
883.7092	1419.6613	7911.3	7027.3
883.8529	1421.5006	8052.95	7166.9
883.9965	1423.3391	8267.3	7380.4
884.1402	1425.1769	8557.5	7673.25
884.2838	1427.0139	8979.15	8094.45
884.4274	1428.8502	9516.25	8629.8
884.571	1430.6858	10045.7	9160.1
884.7146	1432.5206	10460.75	9575.35
884.8582	1434.3547	10698.4	9811.65
885.0018	1436.188	10724.3	9838.7
885.1453	1438.0206	10642.1	9754.8
885.2889	1439.8524	10496.15	9610.9
885.4324	1441.6835	10378.2	9491.1
885.5759	1443.5139	10278.9	9392.65
885.7194	1445.3435	10193.6	9308.3
885.8629	1447.1724	10151.7	9266.15
886.0064	1449.0005	10115.65	9230.85
886.1499	1450.8279	10045.4	9158.65
886.2933	1452.6545	10047.95	9162.65
886.4368	1454.4804	10069.9	9186.55
886.5802	1456.3056	10048.7	9156.95
886.7237	1458.13	9996.9	9113.1
886.8671	1459.9536	9860.8	8977.3
887.0105	1461.7766	9586.05	8700.45
887.1539	1463.5987	9265.95	8379.05
887.2972	1465.4202	8881.05	7996.8
887.4406	1467.2409	8572.95	7687.6
887.584	1469.0608	8279.15	7394.35
887.7273	1470.88	8021.5	7135.25
887.8706	1472.6984	7754.65	6868.8
888.0139	1474.5161	7578.45	6691.2
888.1572	1476.3331	7390.1	6506.05
888.3005	1478.1493	7279.2	6394.3
888.4438	1479.9648	7198.5	6313.35
888.5871	1481.7795	7109.05	6223.4
888.7303	1483.5935	7053.95	6169.25
888.8736	1485.4067	6987.9	6103.45
889.0168	1487.2192	6942.95	6059.1
889.16	1489.031	6901.95	6015.35
889.3032	1490.842	6860.75	5978.25
889.4464	1492.6522	6819.8	5935.3
889.5896	1494.4618	6793.6	5906.9
889.7327	1496.2705	6744.1	5858.55
889.8759	1498.0785	6721.3	5834.15
890.019	1499.8858	6682.75	5794.3
890.1622	1501.6924	6628.1	5744.1
890.3053	1503.4981	6611.75	5726.9
890.4484	1505.3032	6567.2	5683.75
890.5914	1507.1075	6527.3	5641.8
890.7345	1508.911	6504.8	5620.9
890.8776	1510.7138	6450.2	5565.65
891.0206	1512.5159	6398.3	5514.15
891.1637	1514.3172	6358.35	5472.7
891.3067	1516.1178	6301.1	5417.5
891.4497	1517.9176	6283.4	5396.25
891.5927	1519.7166	6237.95	5354.15
891.7357	1521.515	6229.9	5338.9
891.8786	1523.3126	6201.95	5316.25
892.0216	1525.1094	6175.95	5288.5
892.1645	1526.9055	6136.95	5252.15
892.3074	1528.7008	6113.6	5227.45
892.4503	1530.4954	6091.4	5204.65
892.5932	1532.2893	6080.6	5197.7
892.7361	1534.0824	6072.4	5183.95
892.879	1535.8747	6061.8	5177.05
893.0218	1537.6663	6033.45	5148.15
893.1647	1539.4572	6049.9	5162.7
893.3075	1541.2473	6038.45	5153.8
893.4503	1543.0367	6048.25	5165.7
893.5931	1544.8253	6049.35	5160.55
893.7359	1546.6132	6076.25	5189.4
893.8787	1548.4003	6104.05	5207.45
894.0214	1550.1867	6135.6	5240.8
894.1642	1551.9723	6189.45	5299.45
894.3069	1553.7572	6280.05	5393.35
894.4496	1555.5414	6374.45	5490.1
894.5923	1557.3247	6470.95	5586.95
894.735	1559.1074	6639.4	5756.45
894.8777	1560.8893	6807.55	5923.9
895.0204	1562.6705	6988.15	6104.25
895.163	1564.4509	7133	6247.5
895.3056	1566.2305	7204.95	6321.65
895.4482	1568.0094	7259.85	6374.65
895.5908	1569.7876	7293.05	6408.65
895.7334	1571.565	7251	6365
895.876	1573.3417	7246	6363.95
896.0186	1575.1176	7232.05	6346.15
896.1611	1576.8928	7229.8	6345.35
896.3036	1578.6672	7209	6328
896.4461	1580.4409	7212.45	6329.25
896.5886	1582.2138	7220.05	6333.9
896.7311	1583.986	7264.3	6379.95
896.8736	1585.7575	7313.65	6430.25
897.0161	1587.5282	7401.4	6518.5
897.1585	1589.2981	7513.05	6629.65
897.3009	1591.0673	7561.05	6678.1
897.4433	1592.8358	7680.55	6798.1
897.5857	1594.6035	7763.2	6876.45
897.7281	1596.3704	7868.5	6984.65
897.8705	1598.1366	7913.25	7029.3
898.0128	1599.9021	8017.95	7132.4
898.1551	1601.6668	8106.15	7219.5
898.2975	1603.4308	8215.75	7331.35
898.4398	1605.194	8369.6	7480.45
898.5821	1606.9564	8570.35	7685.3
898.7243	1608.7182	8817.3	7930
898.8666	1610.4791	9092.1	8207.45
899.0088	1612.2394	9396	8512.5
899.1511	1613.9988	9738.2	8853.6
899.2933	1615.7576	10053.6	9170.75
899.4355	1617.5156	10266.45	9377.25
899.5776	1619.2728	10347.75	9463.3
899.7198	1621.0293	10330.25	9447.45
899.862	1622.785	10159.35	9272.5
900.0041	1624.54	9859.75	8972.1
900.1462	1626.2942	9547.35	8662.3
900.2883	1628.0477	9137.85	8252.6
900.4304	1629.8005	8784.35	7896.55
900.5725	1631.5525	8452.15	7566.4
900.7145	1633.3037	8132.25	7247.5
900.8566	1635.0542	7906.55	7024.8
900.9986	1636.804	7728.55	6844.8
901.1406	1638.553	7656.05	6716.1
901.2826	1640.3013	7515.1	6632.15
901.4245	1642.0488	7494.95	6609.6
901.5665	1643.7955	7489.85	6607.55
901.7085	1645.5416	7560.65	6675.5
901.8504	1647.2868	7625.5	6741.5
901.9923	1649.0313	7729.65	6848.4
902.1342	1650.7751	7860.45	6970.35
902.2761	1652.5181	8040.5	7155.9
902.4179	1654.2604	8187.45	7304.1
902.5598	1656.0019	8416.1	7534.5
902.7016	1657.7427	8662.1	7778.9
902.8434	1659.4828	8928	8045.4
902.9852	1661.222	9100.45	8216.55
903.127	1662.9606	9119.85	8237.7
903.2687	1664.6984	8937.3	8053.7
903.4105	1666.4354	8496.15	7613.35
903.5522	1668.1717	7975.4	7092.15
903.6939	1669.9072	7422.9	6539.65
903.8356	1671.642	6938.15	6053.65
903.9773	1673.3761	6535.85	5653.65
904.119	1675.1094	6188.55	5304.75
904.2606	1676.8419	5934.8	5052.15
904.4022	1678.5737	5718.15	4834.9
904.5439	1680.3048	5596.4	4713.25
904.6855	1682.0351	5453.7	4570.55
904.827	1683.7646	5333.9	4447
904.9686	1685.4934	5247.3	4365.9
905.1101	1687.2215	5188.55	4303.65
905.2517	1688.9488	5099.9	4217.15
905.3932	1690.6754	5049.75	4169.55
905.5347	1692.4012	4998.3	4117.75
905.6761	1694.1263	4942.25	4060.45
905.8176	1695.8506	4901.55	4018.75
905.9591	1697.5742	4886.6	4003.15
906.1005	1699.297	4838.65	3955.85
906.2419	1701.0191	4787.35	3904.2
906.3833	1702.7404	4753.2	3869.85
906.5246	1704.461	4708.25	3824.55
906.666	1706.1808	4682.1	3798.7
906.8073	1707.8999	4653.75	3768.15
906.9487	1709.6182	4631.35	3747.2
907.09	1711.3358	4589.15	3706.1
907.2313	1713.0527	4580.7	3698.1
907.3725	1714.7688	4552.45	3663.9
907.5138	1716.4841	4541.55	3656.7
907.655	1718.1987	4515.05	3627.85
907.7962	1719.9126	4488.65	3607.75
907.9374	1721.6257	4468	3581.2
908.0786	1723.338	4463.2	3580
908.2198	1725.0496	4441.55	3557.5
908.3609	1726.7605	4443.35	3559.25
908.502	1728.4706	4401.05	3516.8
908.6431	1730.18	4406.05	3519.4
908.7842	1731.8886	4399.2	3516.75
908.9253	1733.5964	4376.65	3489.95
909.0664	1735.3036	4380.35	3494.3
909.2074	1737.0099	4345.05	3463.6
909.3484	1738.7156	4335.55	3453.45
909.4894	1740.4204	4302.45	3415.05
909.6304	1742.1246	4285.9	3401.25
909.7714	1743.8279	4263.6	3378.9
909.9123	1745.5306	4247.55	3363.95
910.0532	1747.2325	4216.2	3334.2
910.1941	1748.9336	4201.9	3319.75
910.335	1750.634	4172.15	3287.3
910.4759	1752.3336	4169.35	3288
910.6168	1754.0325	4154.05	3272.95
910.7576	1755.7307	4156.1	3273.35
910.8984	1757.4281	4139.45	3255.2
911.0392	1759.1247	4165.4	3274.4
911.18	1760.8206	4124.85	3237.65
911.3208	1762.5158	4120.7	3235.65
911.4615	1764.2102	4098.8	3216.85
911.6022	1765.9039	4085.2	3203.75
911.7429	1767.5968	4076.55	3193.2
911.8836	1769.289	4079.3	3196.8
912.0243	1770.9804	4056.65	3172.25
912.1649	1772.6711	4045.3	3161
912.3056	1774.361	4049.75	3165.9
912.4462	1776.0502	4037.85	3154.5
912.5868	1777.7386	4031.6	3145
912.7274	1779.4263	4018.95	3135.5
912.8679	1781.1132	4003.35	3120.5
913.0084	1782.7994	3999.9	3114.7
913.149	1784.4849	3974.6	3090.65
913.2895	1786.1696	4011.4	3109.45
913.4299	1787.8535	3983.05	3100.45
913.5704	1789.5367	3960.2	3076
913.7108	1791.2192	3949.45	3064.95
913.8513	1792.9009	3947.75	3048.8
913.9917	1794.5818	3944.75	3061.5
914.132	1796.2621	3927.8	3047
914.2724	1797.9415	3917	3034.7
914.4128	1799.6202	3915.8	3032.55
914.5531	1801.2982	3905.65	3021.8
914.6934	1802.9755	3900.95	3016.5
914.8337	1804.6519	3881.8	2998.95
914.9739	1806.3277	3858.2	2975.35
915.1142	1808.0027	3843.15	2961.3
915.2544	1809.6769	3862.2	2980
915.3946	1811.3504	3871.8	2987.15
915.5348	1813.0231	3849.25	2965.65
915.675	1814.6951	3837.55	2953.6
915.8151	1816.3664	3833.65	2947.7
915.9553	1818.0369	3820.2	2938.5
916.0954	1819.7067	3810.95	2928
916.2355	1821.3757	3817.9	2932.75
916.3755	1823.044	3813.1	2930.6
916.5156	1824.7115	3803.9	2920.85
916.6556	1826.3783	3783.25	2903.35
916.7956	1828.0443	3771.8	2890.05
916.9356	1829.7096	3782.15	2898.8
917.0756	1831.3741	3771.5	2887.5
917.2155	1833.0379	3771.6	2889.25
917.3555	1834.701	3757.75	2873.45
917.4954	1836.3633	3758.6	2874.75
917.6353	1838.0248	3755.45	2869.25
917.7751	1839.6856	3754.35	2869.55
917.915	1841.3457	3743.4	2861.05
918.0548	1843.005	3744.4	2863.8
918.1946	1844.6636	3725.95	2843.85
918.3344	1846.3214	3721.7	2838.95
918.4742	1847.9785	3732.25	2850.45
918.6139	1849.6349	3707.5	2822.2
918.7537	1851.2904	3703.85	2811.7
918.8934	1852.9453	3686.75	2803.25
919.0331	1854.5994	3679	2794.2
919.1727	1856.2528	3687.65	2800.4
919.3124	1857.9054	3675	2791.05
919.452	1859.5572	3668.15	2786.8
919.5916	1861.2083	3659.25	2775.8
919.7312	1862.8587	3661.65	2779.1
919.8708	1864.5084	3658.9	2777.9
920.0103	1866.1572	3653.05	2769.9
920.1498	1867.8054	3625.75	2745.1
920.2893	1869.4528	3646.3	2763.85
920.4288	1871.0994	3627.45	2743.75
920.5683	1872.7453	3627.85	2744.25
920.7077	1874.3905	3638.3	2735.8
920.8471	1876.0349	3622.4	2738.9
920.9865	1877.6786	3603.35	2719.15
921.1259	1879.3215	3604.6	2720.5
921.2653	1880.9637	3583.35	2699.15
921.4046	1882.6051	3591.6	2707.3
921.5439	1884.2458	3570.4	2686.35
921.6832	1885.8858	3564.8	2681
921.8225	1887.525	3552.15	2667.1
921.9617	1889.1634	3555.5	2672.65
922.101	1890.8011	3530.5	2647.95
922.2402	1892.4381	3528.15	2645.7
922.3794	1894.0743	3531.45	2650.5
922.5185	1895.7098	3520.7	2637.8
922.6577	1897.3446	3504.5	2622.3
922.7968	1898.9786	3499.6	2613.95
922.9359	1900.6118	3512.75	2629.8
923.075	1902.2443	3493.95	2609
923.214	1903.8761	3489.1	2605.3
923.3531	1905.5071	3463.55	2580.5
923.4921	1907.1374	3466.95	2583.3
923.6311	1908.7669	3468.7	2585.05
923.77	1910.3957	3458.8	2576.6
923.909	1912.0237	3439.65	2555.25
924.0479	1913.651	3425.9	2541.45
924.1868	1915.2776	3423.75	2542.35
924.3257	1916.9034	3414.95	2532.45
924.4646	1918.5285	3398.2	2516.25
924.6034	1920.1528	3382.05	2498.65
924.7422	1921.7764	3400.15	2517.15
924.881	1923.3992	3375.3	2493.2
925.0198	1925.0213	3369.95	2486.25
925.1586	1926.6427	3354.4	2473.8
925.2973	1928.2633	3443	2454.1
925.436	1929.8832	3364.25	2481.45
925.5747	1931.5023	3331.85	2449.2
925.7134	1933.1207	3338.45	2455.5
925.852	1934.7383	3342.65	2460
925.9906	1936.3552	3315.15	2432.2
926.1292	1937.9714	3308.55	2425.5
926.2678	1939.5868	3296.3	2411
926.4064	1941.2015	3290.25	2407.9
926.5449	1942.8154	3282.95	2400.2
926.6834	1944.4286	3270.5	2388.4
926.8219	1946.041	3291.25	2384
926.9604	1947.6528	3252.65	2366.5
927.0988	1949.2637	3229.9	2347.75
927.2372	1950.8739	3233.9	2351.1
927.3756	1952.4834	3225.5	2340.95
927.514	1954.0921	3222.5	2339.35
927.6523	1955.7001	3228.05	2339.8
927.7907	1957.3074	3216.45	2333.75
927.929	1958.9139	3191.4	2310.3
928.0673	1960.5197	3179.6	2296.2
928.2055	1962.1247	3184.25	2301.75
928.3438	1963.729	3179.2	2299.4
928.482	1965.3325	3173.15	2264.8
928.6202	1966.9353	3161.9	2278.3
928.7584	1968.5374	3142.5	2258.95
928.8965	1970.1387	3151.5	2268.25
929.0346	1971.7393	3134.75	2253.1
929.1727	1973.3392	3123.95	2240.95
929.3108	1974.9383	3112.75	2231.05
929.4489	1976.5366	3114.6	2230.3
929.5869	1978.1342	3115.5	2232.45
929.7249	1979.7311	3100.15	2217.5
929.8629	1981.3273	3089.05	2205.4
930.0009	1982.9227	3091.05	2206.75
930.1388	1984.5173	3083	2200.85
930.2767	1986.1112	3079.7	2198.35
930.4146	1987.7044	3080	2199.7
930.5525	1989.2968	3062.95	2179.65
930.6904	1990.8885	3057.05	2171.8
930.8282	1992.4795	3054.35	2169.75
930.966	1994.0697	3036.1	2153.15
931.1038	1995.6592	3021.7	2137.6
931.2415	1997.2479	3021.5	2139.2
931.3793	1998.8359	3023.7	2141.1
931.517	2000.4232	3010.55	2128.4
931.6547	2002.0097	3001.4	2119.7
931.7923	2003.5955	2995.8	2113.9
931.93	2005.1805	3001.45	2115.35
932.0676	2006.7648	2987.25	2105.15
932.2052	2008.3484	2971.95	2087.85
932.3427	2009.9312	2994.5	2108.95
932.4803	2011.5133	2963.35	2080.75
932.6178	2013.0946	2976.5	2092.35
932.7553	2014.6752	2968.95	2087.8
932.8928	2016.2551	2972.2	2088.7
933.0302	2017.8342	2955.1	2071.85
933.1676	2019.4126	2936.95	2055.85
933.305	2020.9902	2925.25	2043.55
933.4424	2022.5672	2945.3	2058.65
933.5798	2024.1433	2939.55	2050.8
933.7171	2025.7188	2916.5	2034.5
933.8544	2027.2935	2913.6	2030.6
933.9917	2028.8674	2910.2	2026.85
934.129	2030.4406	2904.95	2023.3
934.2662	2032.0131	2890.5	2007.4
934.4034	2033.5849	2895.25	2001.35
934.5406	2035.1559	2892.3	2008.85
934.6778	2036.7261	2885.75	2004.75
934.8149	2038.2957	2880.3	1998.75
934.952	2039.8645	2867.9	1985.5
935.0891	2041.4325	2873.1	1990.95
935.2262	2042.9998	2872.05	1990.55
935.3632	2044.5664	2863.05	1977.35
935.5002	2046.1323	2854.6	1970.5
935.6372	2047.6974	2842.6	1959.45
935.7742	2049.2617	2844.05	1959.55
935.9111	2050.8254	2862.45	1945.85
936.048	2052.3883	2844.2	1960.45
936.1849	2053.9504	2831.7	1949.35
936.3218	2055.5118	2817.6	1936.8
936.4586	2057.0725	2811.5	1923.85
936.5955	2058.6325	2808.6	1925.35
936.7323	2060.1917	2798.65	1917.3
936.869	2061.7502	2791.4	1906.1
937.0058	2063.3079	2798.3	1915.6
937.1425	2064.8649	2791.4	1903.55
937.2792	2066.4212	2780.55	1896.3
937.4159	2067.9767	2774.3	1892.7
937.5525	2069.5315	2771.7	1888.3
937.6891	2071.0856	2759.4	1875.55
937.8257	2072.6389	2755	1871.35
937.9623	2074.1915	2742.7	1862.8
938.0989	2075.7433	2738.45	1854.95
938.2354	2077.2945	2734.75	1853.8
938.3719	2078.8448	2717	1835.45
938.5084	2080.3945	2725.9	1843.65
938.6448	2081.9434	2717.55	1833.65
938.7812	2083.4916	2709.8	1826.5
938.9176	2085.039	2702.3	1817.6
939.054	2086.5857	2703.3	1820.65
939.1903	2088.1317	2701	1818.3
939.3267	2089.677	2696.65	1813.65
939.463	2091.2215	2681.35	1799.3
939.5992	2092.7652	2681.5	1797.2
939.7355	2094.3083	2671.75	1787.65
939.8717	2095.8506	2666.2	1784.95
940.0079	2097.3921	2654	1770.7
940.1441	2098.933	2664.2	1782
940.2802	2100.4731	2653.95	1774.65
940.4163	2102.0124	2676.45	1775.35
940.5524	2103.5511	2669.95	1787.8
940.6885	2105.089	2658.75	1776.4
940.8245	2106.6261	2652.5	1771.7
940.9606	2108.1626	2649.5	1766.05
941.0965	2109.6983	2659.35	1749.5
941.2325	2111.2332	2643.35	1760.95
941.3684	2112.7675	2636.7	1753.2
941.5044	2114.301	2631.3	1746.8
941.6403	2115.8337	2630.75	1748.7
941.7761	2117.3657	2619.1	1736.8
941.912	2118.897	2615.9	1733.9
942.0478	2120.4276	2616.95	1727.9
942.1835	2121.9575	2607.15	1725.95
942.3193	2123.4866	2622.15	1725.9
942.455	2125.0149	2599.8	1716
942.5907	2126.5426	2602.4	1721.95
942.7264	2128.0695	2572.4	1683.1
942.8621	2129.5956	2574.45	1692.45
942.9977	2131.1211	2575.35	1688.45
943.1333	2132.6458	2563.05	1678.45
943.2689	2134.1698	2565.3	1683.6
943.4044	2135.693	2561.8	1676.95
943.54	2137.2155	2558.35	1673.5
943.6755	2138.7373	2555.4	1672.4
943.8109	2140.2584	2540.25	1657.1
943.9464	2141.7787	2549.05	1662.05
944.0818	2143.2983	2548.15	1666.6
944.2172	2144.8171	2525.5	1644.9
944.3526	2146.3353	2526.1	1642.25
944.4879	2147.8527	2522.85	1642.55
944.6232	2149.3693	2525.35	1641.55
944.7585	2150.8853	2510.3	1626.5
944.8938	2152.4005	2500.55	1618.05
945.029	2153.9149	2493.8	1608.95
945.1642	2155.4287	2497.5	1614.45
945.2994	2156.9417	2496.95	1613.6
945.4346	2158.454	2501.4	1615.65
945.5697	2159.9655	2480.1	1598.15
945.7048	2161.4764	2486.4	1604.45
945.8399	2162.9865	2477.45	1593.8
945.9749	2164.4958	2476.55	1593.1
946.1099	2166.0045	2484	1597.4
946.2449	2167.5124	2473.05	1591.8
946.3799	2169.0195	2467.6	1584.2
946.5148	2170.526	2469.8	1587
946.6498	2172.0317	2454.65	1570.95
946.7846	2173.5367	2458.6	1574.5
946.9195	2175.0409	2455.55	1573.25
947.0543	2176.5445	2446.8	1563.95
947.1891	2178.0473	2445.95	1563.3
947.3239	2179.5494	2442.65	1555.85
947.4587	2181.0507	2426.4	1543.95
947.5934	2182.5513	2422.75	1538.05
947.7281	2184.0512	2430.65	1549.8
947.8628	2185.5504	2418.95	1537.95
947.9974	2187.0488	2400.55	1520.2
948.132	2188.5465	2394.4	1512.9
948.2666	2190.0435	2399.15	1514.95
948.4012	2191.5397	2386.25	1503.75
948.5357	2193.0353	2394.7	1512
948.6702	2194.5301	2388.9	1503.9
948.8047	2196.0241	2377.5	1495.85
948.9392	2197.5175	2380	1497.95
949.0736	2199.0101	2366.75	1479.3
949.208	2200.502	2366.4	1485.3
949.3424	2201.9931	2360.95	1479.95
949.4767	2203.4835	2365.75	1479.95
949.611	2204.9733	2369.9	1481.1
949.7453	2206.4622	2345.4	1462.2
949.8796	2207.9505	2347.3	1462
950.0138	2209.438	2340.5	1458.9
950.148	2210.9248	2338.7	1453.85
950.2822	2212.4109	2329.45	1448.25
950.4164	2213.8962	2329.1	1442.45
950.5505	2215.3809	2318.3	1435.95
950.6846	2216.8648	2324.1	1441.6
950.8186	2218.3479	2317.4	1430.9
950.9527	2219.8304	2308.35	1425
951.0867	2221.3121	2306	1422.6
951.2207	2222.7931	2293.65	1411.25
951.3546	2224.2733	2287.75	1405.55
951.4886	2225.7529	2293	1410.95
951.6225	2227.2317	2286.3	1399.7
951.7563	2228.7098	2285.25	1402.65
951.8902	2230.1872	2282.05	1399.15
952.024	2231.6638	2273.25	1392.1
952.1578	2233.1397	2258.1	1368.95
952.2916	2234.6149	2265.3	1383.65
952.4253	2236.0894	2257.5	1374.25
952.559	2237.5632	2260.95	1369.7
952.6927	2239.0362	2249.75	1366.75
952.8263	2240.5085	2231.4	1347.65
952.9599	2241.9801	2244.45	1359.15
953.0935	2243.4509	2232.05	1350.75
953.2271	2244.921	2240	1358.8
953.3606	2246.3904	2222.15	1338.55
953.4941	2247.8591	2213.85	1332.1
953.6276	2249.3271	2215.1	1333.65
953.7611	2250.7943	2199.7	1315.65
953.8945	2252.2608	2199.85	1317.4
954.0279	2253.7266	2197.05	1315.1
954.1612	2255.1917	2194.5	1312.45
954.2946	2256.656	2189.45	1306.2
954.4279	2258.1197	2184.3	1302.2
954.5612	2259.5826	2186.05	1302.8
954.6944	2261.0447	2178.55	1295.55
954.8276	2262.5062	2169.55	1284.75
954.9608	2263.9669	2181.15	1295.25
955.094	2265.4269	2174.95	1293.1
955.2271	2266.8862	2170.7	1287.3
955.3602	2268.3448	2176.75	1293.55
955.4933	2269.8026	2160.9	1276.65
955.6264	2271.2598	2168.25	1286.1
955.7594	2272.7162	2149.95	1269
955.8924	2274.1719	2159.4	1276.3
956.0253	2275.6268	2153.65	1271.6
956.1583	2277.0811	2145.8	1263.7
956.2912	2278.5346	2145.35	1263.95
956.4241	2279.9874	2145.1	1261.15
956.5569	2281.4395	2143.25	1260.6
956.6897	2282.8908	2142.7	1253.45
956.8225	2284.3414	2141.7	1257.9
956.9553	2285.7914	2132.3	1250.1
957.088	2287.2406	2135.2	1250.4
957.2207	2288.689	2136.05	1252.05
957.3534	2290.1368	2122.95	1240.9
957.486	2291.5838	2119.95	1232.6
957.6186	2293.0302	2119.35	1237.25
957.7512	2294.4758	2106.55	1223.75
957.8838	2295.9206	2096.1	1211.9
958.0163	2297.3648	2107.4	1223.5
958.1488	2298.8082	2104.15	1218.95
958.2813	2300.251	2097.9	1214.1
958.4137	2301.693	2095.4	1210.7
958.5461	2303.1343	2094.1	1210.15
958.6785	2304.5748	2094.1	1211.5
958.8108	2306.0147	2084.2	1201.3
958.9432	2307.4538	2076.5	1191.05
959.0754	2308.8922	2071.4	1189.7
959.2077	2310.3299	2073.25	1189.85
959.3399	2311.7669	2075.5	1193.7
959.4721	2313.2031	2056.15	1174.85
959.6043	2314.6387	2060.45	1179.35
959.7365	2316.0735	2053.2	1169
959.8686	2317.5076	2060.35	1179.15
960.0006	2318.941	2052.25	1168.85
960.1327	2320.3737	2049.05	1168.1
960.2647	2321.8056	2051.85	1166.05
960.3967	2323.2369	2047	1164.55
960.5287	2324.6674	2046.95	1160.7
960.6606	2326.0972	2039.85	1156.4
960.7925	2327.5263	2041.35	1157.4
960.9244	2328.9547	2022.4	1139.5
961.0562	2330.3823	2026.1	1143.7
961.1881	2331.8092	2028.1	1142.85
961.3198	2333.2355	2018.35	1136.15
961.4516	2334.661	2010.45	1129.65
961.5833	2336.0858	2013.35	1129.3
961.715	2337.5098	2013	1130.2
961.8467	2338.9332	2014.35	1130.35
961.9783	2340.3558	2012.15	1126.2
962.1099	2341.7778	2001.55	1120.6
962.2415	2343.199	2000.75	1115.2
962.373	2344.6195	2003.15	1119.95
962.5045	2346.0393	2000.35	1119.25
962.636	2347.4583	1990.55	1106.35
962.7675	2348.8767	1996.25	1112.25
962.8989	2350.2943	2003.2	1118.25
963.0303	2351.7113	1994.65	1110.65
963.1617	2353.1275	1983.55	1103.6
963.293	2354.543	1998.55	1090.9
963.4243	2355.9578	1980.7	1098.5
963.5556	2357.3718	1968.85	1087.5
963.6868	2358.7852	1974.45	1090.1
963.818	2360.1978	1966.85	1084.2
963.9492	2361.6098	1974.9	1092.1
964.0803	2363.021	1959	1072.3
964.2114	2364.4315	1959.9	1076.2
964.3425	2365.8413	1958.5	1075.15
964.4736	2367.2504	1945.25	1063.95
964.6046	2368.6587	1955.2	1071.65
964.7356	2370.0664	1934.6	1053.05
964.8666	2371.4733	1944.95	1061.95
964.9975	2372.8795	1943.15	1060.7
965.1284	2374.285	1938.2	1055.65
965.2593	2375.6899	1925.15	1043.55
965.3901	2377.0939	1916.15	1034.6
965.5209	2378.4973	1921.25	1040.45
965.6517	2379.9	1933.15	1049.35
965.7825	2381.3019	1931	1047.2
965.9132	2382.7032	1912.4	1029.7
966.0439	2384.1037	1914.9	1032.85
966.1745	2385.5035	1916.8	1032.55
966.3051	2386.9027	1910.75	1028.05
966.4357	2388.3011	1915.45	1030.05
966.5663	2389.6987	1897.2	1016.5
966.6968	2391.0957	1894.05	1011.3
966.8273	2392.492	1893.3	1012.35
966.9578	2393.8876	1886	1002.6
967.0882	2395.2824	1886.65	1005
967.2186	2396.6765	1878.9	997.55
967.349	2398.07	1872.55	989.7
967.4793	2399.4627	1870.2	986.2
967.6097	2400.8547	1878	995.5
967.7399	2402.246	1868.7	981.75
967.8702	2403.6366	1860.7	978
968.0004	2405.0265	1856.2	974
968.1306	2406.4156	1856.55	970.7
968.2607	2407.8041	1854.7	969.5
968.3909	2409.1918	1851.3	965.9
968.521	2410.5789	1846.4	965.05
968.651	2411.9652	1846.25	960.25
968.781	2413.3508	1836.65	955
968.911	2414.7358	1847.55	963.9
969.041	2416.12	1832.7	952.2
969.1709	2417.5035	1826.35	944.65
969.3008	2418.8863	1832.2	948.1
969.4307	2420.2684	1830.85	949.7
969.5606	2421.6497	1824.2	941.1
969.6904	2423.0304	1815.9	935.75
969.8201	2424.4104	1823.95	942.65
969.9499	2425.7896	1824.7	935
970.0796	2427.1682	1818.35	938.05
970.2093	2428.546	1817.75	933.65
970.3389	2429.9232	1812.15	928.85
970.4685	2431.2996	1802.25	919.2
970.5981	2432.6753	1808.25	923.8
970.7277	2434.0503	1805.55	924.7
970.8572	2435.4246	1794.4	913.8
970.9867	2436.7982	1801.9	916.45
971.1161	2438.1711	1798.25	918.85
971.2456	2439.5433	1789.35	905.8
971.375	2440.9148	1793.7	907.05
971.5043	2442.2856	1776.55	894.15
971.6336	2443.6557	1773.35	891.5
971.7629	2445.025	1768.75	884.25
971.8922	2446.3937	1774.6	890.35
972.0214	2447.7617	1767.95	886.2
972.1506	2449.1289	1769.55	886.8
972.2798	2450.4955	1772.05	886.05
972.4089	2451.8613	1765.45	883.4
972.538	2453.2265	1768.8	885.85
972.6671	2454.5909	1757.65	873.25
972.7961	2455.9546	1758.8	876.4
972.9251	2457.3177	1757.65	874.95
973.0541	2458.68	1755.15	871.3
973.1831	2460.0416	1758	874.85
973.312	2461.4025	1758.4	873.6
973.4408	2462.7627	1762.9	869.15
973.5697	2464.1222	1752.2	871.6
973.6985	2465.4811	1743.25	857.7
973.8273	2466.8392	1736.95	853.2
973.956	2468.1966	1737.65	852.75
974.0847	2469.5533	1743.95	857.55
974.2134	2470.9093	1747.75	863.05
974.3421	2472.2645	1741.45	856.4
974.4707	2473.6191	1736.6	855.2
974.5993	2474.973	1740.6	857.25
974.7278	2476.3262	1732.85	849
974.8563	2477.6787	1737.3	855.3
974.9848	2479.0305	1733.45	853.15
975.1132	2480.3816	1726.45	841.4
975.2417	2481.7319	1719.9	837.35
975.37	2483.0816	1723.75	840.45
975.4984	2484.4306	1714.95	829.75
975.6267	2485.7789	1710.25	827.45
975.755	2487.1264	1723.65	839.3
975.8833	2488.4733	1710.95	828.5
976.0115	2489.8195	1720.55	824.55
976.1397	2491.165	1703.3	817.25
976.2678	2492.5097	1701.5	816.65
976.3959	2493.8538	1691.7	809.7
976.524	2495.1972	1690.55	807
976.6521	2496.5398	1699.7	815.75
976.7801	2497.8818	1693.3	808.4
976.9081	2499.2231	1692.2	812.1
977.036	2500.5637	1684.3	801.7
977.164	2501.9035	1671.85	789.6
977.2918	2503.2427	1683.8	797.1
977.4197	2504.5812	1676.2	793.55
977.5475	2505.919	1678.2	795
977.6753	2507.256	1677.15	794.65
977.8031	2508.5924	1670.1	787.2
977.9308	2509.9281	1673.3	785.95
978.0585	2511.2631	1672	788.35
978.1861	2512.5974	1667.7	785.6
978.3137	2513.9309	1661.45	779.25
978.4413	2515.2638	1691.95	782.9
978.5689	2516.596	1661.85	782.65
978.6964	2517.9275	1657.2	773.7
978.8239	2519.2583	1648.5	766
978.9513	2520.5884	1647.9	762.2
979.0788	2521.9178	1650.9	768
979.2062	2523.2465	1637.5	756.5
979.3335	2524.5745	1637.9	754.9
979.4608	2525.9018	1645	761.35
979.5881	2527.2284	1639.1	756.55
979.7154	2528.5543	1640	757.5
979.8426	2529.8796	1642.15	759.1
979.9698	2531.2041	1644.1	760.7
980.0969	2532.5279	1632.55	750.95
980.224	2533.851	1634.5	751.7
980.3511	2535.1735	1634.05	754.5
980.4781	2536.4952	1631.55	748.65
980.6052	2537.8163	1624.5	742.9
980.7321	2539.1366	1629.25	747.25
980.8591	2540.4562	1626.9	744.5
980.986	2541.7752	1632.7	751.25
981.1129	2543.0935	1626.35	743.85
981.2397	2544.411	1620.5	738.1
981.3665	2545.7279	1621.1	736.8
981.4933	2547.0441	1616.55	733.8
981.62	2548.3596	1622.55	738.4
981.7467	2549.6744	1609.7	727.6
981.8734	2550.9885	1615.55	730.2
982.0001	2552.3019	1615.85	734.2
982.1267	2553.6146	1614.65	733.15
982.2532	2554.9266	1606.55	723.5
982.3798	2556.2379	1618.2	736.35
982.5063	2557.5485	1604	722.75
982.6327	2558.8585	1609.3	719.4
982.7592	2560.1677	1607.35	721.7
982.8856	2561.4762	1600.6	719.75
983.0119	2562.7841	1604.25	716
983.1383	2564.0913	1601.65	720.85
983.2646	2565.3977	1603.45	720.25
983.3908	2566.7035	1588.35	707.25
983.517	2568.0086	1594.9	710
983.6432	2569.313	1585.75	703
983.7694	2570.6167	1598.5	713.55
983.8955	2571.9197	1593.6	712.85
984.0216	2573.222	1598.7	712.25
984.1476	2574.5236	1592.9	710.05
984.2737	2575.8246	1586.45	701.15
984.3996	2577.1248	1587.55	701.8
984.5256	2578.4244	1580.45	699.9
984.6515	2579.7232	1589.55	705.85
984.7774	2581.0214	1622.55	709.45
984.9032	2582.3189	1590.9	709.45
985.029	2583.6157	1594.25	708.1
985.1548	2584.9118	1585.8	701.75
985.2806	2586.2072	1583.3	703.6
985.4063	2587.5019	1585.3	702.2
985.5319	2588.7959	1580.3	694.85
985.6576	2590.0893	1592.2	707.8
985.7832	2591.3819	1592	711.9
985.9087	2592.6739	1579	697.15
986.0343	2593.9652	1585.5	702.7
986.1597	2595.2557	1591.95	709.95
986.2852	2596.5456	1586.4	701.75
986.4106	2597.8348	1585.95	704.3
986.536	2599.1234	1581.1	700.7
986.6614	2600.4112	1588.45	705.8
986.7867	2601.6983	1588.05	702.25
986.912	2602.9848	1588.15	704.65
987.0372	2604.2705	1580.6	691.1
987.1624	2605.5556	1584.65	703.55
987.2876	2606.84	1572.65	689.85
987.4128	2608.1237	1567.9	682
987.5379	2609.4067	1578.05	696.7
987.6629	2610.689	1576.6	685
987.788	2611.9707	1570	685.35
987.913	2613.2516	1563.8	675.35
988.0379	2614.5319	1561.05	677.25
988.1629	2615.8115	1561.05	679.95
988.2878	2617.0903	1552.7	671.15
988.4126	2618.3685	1550.8	668.05
988.5375	2619.6461	1555.3	673.05
988.6622	2620.9229	1548.05	667.15
988.787	2622.199	1548.45	665.15
988.9117	2623.4745	1552.75	671.1
989.0364	2624.7493	1547.5	667.8
989.161	2626.0234	1534.2	651.5
989.2857	2627.2968	1547.8	664.4
989.4102	2628.5695	1548.15	661.65
989.5348	2629.8415	1541.05	658.6
989.6593	2631.1128	1543.15	658.1
989.7837	2632.3835	1533.45	650.9
989.9082	2633.6535	1532.95	650.65
990.0326	2634.9228	1538.55	656.7
990.1569	2636.1914	1533.95	652.5
990.2812	2637.4593	1529.85	646.85
990.4055	2638.7265	1525.9	644.25
990.5298	2639.9931	1531.5	649.35
990.654	2641.259	1530.6	648.25
990.7782	2642.5242	1526.95	644.6
990.9023	2643.7887	1522.3	639.55
991.0264	2645.0525	1528.15	646.15
991.1505	2646.3156	1518.95	635.05
991.2745	2647.5781	1515.3	635.5
991.3985	2648.8398	1515.35	635.05
991.5225	2650.1009	1549.55	629.5
991.6464	2651.3613	1518.3	635.85
991.7703	2652.6211	1514.8	634.05
991.8942	2653.8801	1510.3	627.1
992.018	2655.1385	1517.7	631.3
992.1418	2656.3961	1511.75	630.7
992.2655	2657.6531	1506.2	623.6
992.3892	2658.9094	1508.95	627.2
992.5129	2660.1651	1513	630.85
992.6366	2661.42	1505.15	623.05
992.7602	2662.6743	1516.5	633.05
992.8837	2663.9279	1513.85	632.85
993.0073	2665.1808	1512.15	629.15
993.1307	2666.433	1517.25	633.65
993.2542	2667.6846	1512.45	631.3
993.3776	2668.9354	1522.5	636.85
993.501	2670.1856	1523.05	640.4
993.6244	2671.4351	1524.85	641
993.7477	2672.6839	1527.1	643.15
993.8709	2673.9321	1524.35	643.25
993.9942	2675.1795	1524.2	639.25
994.1174	2676.4263	1525.3	644.2
994.2405	2677.6724	1524.6	641.9
994.3637	2678.9179	1520.7	638.3
994.4868	2680.1626	1520.75	642.2
994.6098	2681.4067	1523.45	640.15
994.7328	2682.6501	1524.3	642.45
994.8558	2683.8928	1522.2	639.85
994.9788	2685.1348	1512.2	630.55
995.1017	2686.3761	1511.6	628.9
995.2245	2687.6168	1511.35	630.15
995.3474	2688.8568	1510.6	626.85
995.4702	2690.0961	1498.7	616.9
995.5929	2691.3348	1501.6	617.65
995.7156	2692.5727	1491	607.9
995.8383	2693.81	1494.05	612.65
995.961	2695.0466	1490.65	609.25
996.0836	2696.2826	1496.95	613.95
996.2062	2697.5178	1492	607.3
996.3287	2698.7524	1496.45	614.8
996.4512	2699.9863	1504.25	621.5
996.5737	2701.2195	1495.15	614.6
996.6961	2702.452	1500.35	614.8
996.8185	2703.6839	1508.35	624.45
996.9408	2704.9151	1499.25	616.6
997.0631	2706.1456	1516.35	632.55
997.1854	2707.3755	1514.7	631.35
997.3077	2708.6046	1525.2	640.2
997.4299	2709.8331	1527.65	645.25
997.552	2711.0609	1526.3	642.9
997.6742	2712.2881	1538.4	657
997.7963	2713.5145	1551.3	668.3
997.9183	2714.7403	1551.55	671.2
998.0403	2715.9654	1564.4	680
998.1623	2717.1899	1591.7	696.75
998.2842	2718.4136	1582.75	700.4
998.4062	2719.6367	1591.5	709.25
998.528	2720.8591	1608.1	717.2
998.6498	2722.0809	1621	738.15
998.7716	2723.3019	1633.85	748.75
998.8934	2724.5223	1630.35	747.45
999.0151	2725.7421	1645.35	763.15
999.1368	2726.9611	1637.25	753.9
999.2584	2728.1795	1649.45	763.05
999.38	2729.3972	1633.5	752.9
999.5016	2730.6142	1631.55	737.05
999.6231	2731.8306	1615.5	731.15
999.7446	2733.0462	1586.65	704
999.8661	2734.2612	1589.3	701.5
999.9875	2735.4756	1561.7	677.5
1000.1089	2736.6892	1550.2	666.7
1000.2302	2737.9022	1532.15	649.6
1000.3515	2739.1145	1523.75	641.4
1000.4728	2740.3262	1514.4	627.05
1000.594	2741.5372	1499.55	618.05
1000.7152	2742.7475	1479.65	596.25
1000.8363	2743.9571	1475.15	593.35
1000.9575	2745.1661	1481.65	596
1001.0785	2746.3744	1462.3	578.6
1001.1996	2747.582	1450.45	568.6
1001.3206	2748.7889	1447.85	564.65
1001.4415	2749.9952	1436.8	553.8
1001.5625	2751.2008	1434.25	551.9
1001.6833	2752.4057	1429.15	543.05
1001.8042	2753.61	1425.75	544.3
1001.925	2754.8136	1424.65	541.55
1002.0458	2756.0165	1421.2	538.95
1002.1665	2757.2188	1423.1	541.05
1002.2872	2758.4204	1413.05	530.9
1002.4078	2759.6213	1423.55	536.95
1002.5285	2760.8215	1424.4	534.65
1002.649	2762.0211	1420.75	536.55
1002.7696	2763.22	1417.5	533
1002.8901	2764.4182	1412.1	529.2
1003.0106	2765.6158	1408.65	528.1
1003.131	2766.8127	1407.65	525.1
1003.2514	2768.009	1401.25	517.8
1003.3717	2769.2045	1400.6	516.15
1003.492	2770.3994	1403.4	519.2
1003.6123	2771.5936	1400.75	517.7
1003.7325	2772.7872	1390	507.7
1003.8527	2773.9801	1391.65	505.85
1003.9729	2775.1723	1402.9	504.3
1004.093	2776.3639	1385.25	503.8
1004.2131	2777.5548	1387.8	501.7
1004.3331	2778.745	1384.9	501.95
1004.4531	2779.9346	1389.1	506.45
1004.5731	2781.1235	1388.8	506.35
1004.693	2782.3117	1387.45	506.95
1004.8129	2783.4992	1393.05	511.3
1004.9328	2784.6861	1393.65	510.8
1005.0526	2785.8723	1400.7	518.3
1005.1723	2787.0579	1401.6	519.75
1005.2921	2788.2428	1403.3	519.25
1005.4118	2789.427	1411.3	527.95
1005.5314	2790.6106	1414.2	534.4
1005.651	2791.7935	1412.05	529.7
1005.7706	2792.9757	1424.45	541.7
1005.8902	2794.1573	1435.6	551.25
1006.0097	2795.3382	1436.45	553.15
1006.1291	2796.5184	1445.15	564.5
1006.2485	2797.698	1462.8	576.65
1006.3679	2798.8769	1472.5	592.75
1006.4873	2800.0551	1482.95	601
1006.6066	2801.2327	1508.5	623.85
1006.7258	2802.4096	1510.4	628.15
1006.8451	2803.5859	1524.65	641.1
1006.9642	2804.7615	1543.55	662.65
1007.0834	2805.9364	1554.8	674.15
1007.2025	2807.1106	1581.4	699.3
1007.3216	2808.2842	1604.25	720.55
1007.4406	2809.4572	1629.05	747.15
1007.5596	2810.6294	1660	777.8
1007.6785	2811.801	1687.4	806.45
1007.7975	2812.972	1729.95	849.05
1007.9163	2814.1423	1762.55	880.3
1008.0352	2815.3119	1811	927.9
1008.154	2816.4808	1852.45	971.3
1008.2727	2817.6491	1901.55	1018.35
1008.3914	2818.8167	1945.05	1062.3
1008.5101	2819.9837	2007.1	1119.35
1008.6288	2821.15	2053.55	1172
1008.7474	2822.3157	2107.3	1225.55
1008.8659	2823.4807	2160.5	1280.05
1008.9844	2824.645	2227.25	1343.85
1009.1029	2825.8086	2272.05	1390.1
1009.2214	2826.9716	2322.2	1440.65
1009.3398	2828.134	2382.55	1499.7
1009.4581	2829.2957	2428.5	1547.2
1009.5764	2830.4567	2460	1579.4
1009.6947	2831.617	2497.65	1614.15
1009.813	2832.7767	2513.95	1630.5
1009.9312	2833.9358	2499	1617.7
1010.0493	2835.0941	2490.75	1607.3
1010.1675	2836.2519	2481.85	1600.1
1010.2855	2837.4089	2459.9	1577.7
1010.4036	2838.5653	2448.75	1568.05
1010.5216	2839.7211	2424.5	1542.85
1010.6396	2840.8761	2435.5	1551
1010.7575	2842.0306	2437.9	1556.85
1010.8754	2843.1843	2462.85	1580
1010.9932	2844.3374	2482.35	1599.2
1011.111	2845.4899	2524.65	1642.1
1011.2288	2846.6417	2574.9	1693.25
1011.3465	2847.7928	2621.3	1741.45
1011.4642	2848.9433	2694	1813.35
1011.5818	2850.0931	2750.4	1869.45
1011.6995	2851.2422	2821.45	1937.75
1011.817	2852.3907	2864.2	1982.2
1011.9345	2853.5385	2930.1	2046.05
1012.052	2854.6857	3004.4	2094.5
1012.1695	2855.8323	3022.8	2140.2
1012.2869	2856.9781	3064.15	2183.5
1012.4042	2858.1233	3109.65	2226.7
1012.5216	2859.2679	3170.65	2288.75
1012.6389	2860.4118	3222.2	2338.9
1012.7561	2861.555	3268.7	2381.55
1012.8733	2862.6976	3316.15	2433.25
1012.9905	2863.8395	3341.2	2459.75
1013.1076	2864.9808	3367.6	2484.7
1013.2247	2866.1214	3390.65	2510.4
1013.3417	2867.2614	3417.75	2534.55
1013.4587	2868.4007	3428.3	2544.85
1013.5757	2869.5393	3437.5	2554.3
1013.6926	2870.6773	3464.25	2578.45
1013.8095	2871.8146	3479.45	2595.55
1013.9263	2872.9513	3480.75	2597.4
1014.0431	2874.0874	3476.35	2594.15
1014.1599	2875.2227	3458.2	2575.9
1014.2766	2876.3574	3452.35	2571.2
1014.3933	2877.4915	3419.95	2537.1
1014.51	2878.6249	3401.1	2520.9
1014.6266	2879.7577	3377.55	2494.5
1014.7431	2880.8898	3363.15	2469.4
1014.8596	2882.0212	3332.85	2451.5
1014.9761	2883.152	3333.9	2449.1
1015.0925	2884.2821	3315.45	2433.9
1015.2089	2885.4116	3305.4	2421.55
1015.3253	2886.5405	3293.55	2412
1015.4416	2887.6686	3309.85	2426.05
1015.5579	2888.7962	3311.4	2429.3
1015.6741	2889.923	3319.15	2437.5
1015.7903	2891.0493	3333.25	2451.7
1015.9065	2892.1748	3336.3	2455
1016.0226	2893.2997	3346.35	2463.35
1016.1387	2894.424	3365.35	2484.3
1016.2547	2895.5476	3373.85	2492
1016.3707	2896.6706	3392.8	2514
1016.4866	2897.7929	3413.9	2529.65
1016.6025	2898.9145	3445.3	2563.1
1016.7184	2900.0355	3467	2582.5
1016.8342	2901.1559	3475.45	2592.3
1016.95	2902.2756	3519.65	2637.85
1017.0658	2903.3946	3556.3	2674.4
1017.1815	2904.513	3588.75	2703.8
1017.2971	2905.6308	3602.95	2721.9
1017.4127	2906.7479	3615.8	2733.1
1017.5283	2907.8643	3659	2776.45
1017.6439	2908.9801	3666.4	2785.45
1017.7594	2910.0953	3684.1	2801.45
1017.8748	2911.2098	3678.55	2792.6
1017.9902	2912.3236	3682.4	2791.15
1018.1056	2913.4368	3654.7	2771.25
1018.2209	2914.5494	3629.55	2747.2
1018.3362	2915.6613	3623.15	2735.55
1018.4515	2916.7725	3584.25	2698.95
1018.5667	2917.8831	3552.1	2669.1
1018.6819	2918.9931	3521.85	2636.35
1018.797	2920.1024	3486.35	2604.35
1018.9121	2921.211	3475.95	2593.7
1019.0271	2922.319	3451.25	2569.5
1019.1421	2923.4264	3436.4	2556.5
1019.2571	2924.5331	3428.95	2547.1
1019.372	2925.6391	3417.45	2536.2
1019.4869	2926.7445	3417.55	2537.2
1019.6017	2927.8493	3442.75	2560.3
1019.7165	2928.9534	3435.05	2553.15
1019.8313	2930.0569	3433.45	2547.4
1019.946	2931.1597	3432.9	2549.1
1020.0606	2932.2619	3434.05	2553.1
1020.1753	2933.3634	3441.55	2558.6
1020.2899	2934.4643	3450.9	2560.7
1020.4044	2935.5645	3443.1	2555.4
1020.5189	2936.6641	3422.65	2537.1
1020.6334	2937.763	3384.1	2505.15
1020.7478	2938.8613	3356.4	2474.3
1020.8622	2939.959	3315.85	2429.3
1020.9765	2941.056	3254	2372.15
1021.0908	2942.1523	3192.1	2307.7
1021.2051	2943.248	3122.1	2239.35
1021.3193	2944.3431	3035.5	2153.1
1021.4334	2945.4375	2944.15	2060.8
1021.5476	2946.5313	2858.45	1977.45
1021.6617	2947.6244	2746.1	1865.3
1021.7757	2948.7169	2654.05	1770.3
1021.8897	2949.8087	2563.3	1682.05
1022.0037	2950.8999	2476.75	1592.8
1022.1176	2951.9904	2395.25	1513.2
1022.2315	2953.0803	2332.3	1448.7
1022.3453	2954.1696	2277.45	1395.95
1022.4591	2955.2582	2211.95	1332.45
1022.5728	2956.3462	2168.15	1285.65
1022.6865	2957.4335	2122.25	1239.95
1022.8002	2958.5202	2091.95	1209.35
1022.9138	2959.6062	2060	1177.5
1023.0274	2960.6916	2030.2	1148.15
1023.141	2961.7764	2023.3	1138.85
1023.2545	2962.8605	2005.95	1123.25
1023.3679	2963.9439	1989.55	1108.7
1023.4813	2965.0267	1973.2	1087.8
1023.5947	2966.1089	1987.25	1082.75
1023.708	2967.1905	1970.9	1088.75
1023.8213	2968.2714	1961.7	1079.05
1023.9346	2969.3516	1963.65	1081.1
1024.0478	2970.4312	1969.3	1078.35
1024.1609	2971.5102	1966.15	1085.15
1024.274	2972.5885	1965.3	1086.15
1024.3871	2973.6662	1980.9	1093.6
1024.5002	2974.7432	1974.05	1093.05
1024.6132	2975.8196	1962.45	1079.05
1024.7261	2976.8954	1959.45	1077.85
1024.839	2977.9705	1961.95	1079.3
1024.9519	2979.045	1939.75	1057.45
1025.0647	2980.1188	1939.7	1058.6
1025.1775	2981.192	1910.6	1030
1025.2902	2982.2645	1893.55	1009.05
1025.4029	2983.3364	1890.6	1009.6
1025.5156	2984.4077	1851.65	971.9
1025.6282	2985.4783	1831.95	943.45
1025.7407	2986.5483	1805.15	923.9
1025.8532	2987.6177	1779.4	897.8
1025.9657	2988.6864	1737.6	855.3
1026.0782	2989.7545	1710.3	826.65
1026.1906	2990.8219	1667.6	785.45
1026.3029	2991.8887	1634.3	747.7
1026.4152	2992.9548	1611.9	730.3
1026.5275	2994.0204	1580.95	698.9
1026.6397	2995.0852	1551.35	668.9
1026.7519	2996.1495	1523.15	640.8
1026.864	2997.2131	1504.25	621.45
1026.9761	2998.276	1473.55	592.7
1027.0882	2999.3383	1456.6	573.75
1027.2002	3000.4	1433.7	550.55
1027.3122	3001.4611	1410.95	527.95
1027.4241	3002.5215	1406.45	526
1027.536	3003.5812	1381	499.85
1027.6478	3004.6404	1372.55	491.2
1027.7596	3005.6989	1358.8	474.1
1027.8714	3006.7567	1339.55	457.45
1027.9831	3007.8139	1369.5	460.65
1028.0947	3008.8705	1327.4	445.35
1028.2064	3009.9264	1344.05	443.4
1028.3179	3010.9818	1313.65	431.55
1028.4295	3012.0364	1307.7	424.8
1028.541	3013.0905	1300.3	419.25
1028.6524	3014.1439	1295.4	413.55
1028.7638	3015.1966	1291.4	409.05
1028.8752	3016.2487	1286.35	404.15
1028.9865	3017.3002	1288.55	401.9
1029.0978	3018.3511	1279.55	399.95
1029.209	3019.4013	1279.15	397
1029.3202	3020.4509	1275.45	392.35
1029.4314	3021.4998	1270.8	389
1029.5425	3022.5481	1275.15	393.75
1029.6535	3023.5958	1268.05	386.25
1029.7645	3024.6428	1270.95	388.35
1029.8755	3025.6892	1270.65	388.6
1029.9864	3026.735	1274.15	392.75
1030.0973	3027.7802	1267.15	383.95
1030.2082	3028.8247	1267.45	386.55
1030.319	3029.8685	1269.55	386.35
1030.4297	3030.9118	1268	386.15
1030.5404	3031.9544	1268.7	387.8
1030.6511	3032.9963	1273.8	392.9
1030.7617	3034.0376	1277.7	396.15
1030.8723	3035.0783	1278.65	394.25
1030.9829	3036.1184	1280.15	396.1
1031.0934	3037.1578	1276.45	395.6
1031.2038	3038.1966	1286.35	401.35
1031.3142	3039.2348	1284.4	402.9
1031.4246	3040.2723	1292.85	401.7
1031.5349	3041.3092	1284.35	400.7
1031.6452	3042.3455	1280.95	400.5
1031.7554	3043.3811	1287.3	404.3
1031.8656	3044.4161	1285.65	401.15
1031.9758	3045.4505	1284.1	403.25
1032.0859	3046.4842	1273.25	388.75
1032.1959	3047.5173	1281.65	400.4
1032.3059	3048.5498	1267.65	385.45
1032.4159	3049.5816	1270.05	386.25
1032.5258	3050.6128	1270.75	386.75
1032.6357	3051.6434	1261.5	379.5
1032.7455	3052.6734	1260.15	376.45
1032.8553	3053.7027	1265.25	383.7
1032.9651	3054.7314	1255.1	373.95
1033.0748	3055.7594	1249.85	368
1033.1845	3056.7868	1251.45	368.45
1033.2941	3057.8136	1243.85	362.2
1033.4037	3058.8398	1245.2	365.8
1033.5132	3059.8653	1241.05	358.55
1033.6227	3060.8902	1239.55	356.55
1033.7321	3061.9145	1241.1	358.25
1033.8415	3062.9381	1231.3	349.85
1033.9509	3063.9612	1254.25	355.45
1034.0602	3064.9835	1227.25	345.15
1034.1694	3066.0053	1228.05	345.8
1034.2787	3067.0264	1228.65	347.15
1034.3878	3068.0469	1217.2	336.4
1034.497	3069.0668	1214.9	328.1
1034.6061	3070.086	1211.45	330.65
1034.7151	3071.1046	1205	318.75
1034.8241	3072.1226	1196.1	314.4
1034.9331	3073.1399	1189.75	307.2
1035.042	3074.1567	1181.25	298.7
1035.1508	3075.1727	1180.2	295.55
1035.2597	3076.1882	1170.15	287.85
1035.3684	3077.203	1164.75	281.2
1035.4772	3078.2173	1164.25	282.5
1035.5859	3079.2308	1158.05	273.05
1035.6945	3080.2438	1144.5	260.4
1035.8031	3081.2561	1136.2	254.85
1035.9117	3082.2678	1132	252.1
1036.0202	3083.2789	1126.05	243.45
1036.1286	3084.2893	1121.4	241.35
1036.2371	3085.2991	1119.15	236.95
1036.3454	3086.3083	1116.45	230.95
1036.4538	3087.3169	1113.7	230
1036.562	3088.3248	1104.6	221.5
1036.6703	3089.3321	1104.15	221.2
1036.7785	3090.3388	1090.95	210.2
1036.8866	3091.3449	1087.9	204.05
1036.9948	3092.3503	1088.35	205.4
1037.1028	3093.3551	1086.45	205.55
1037.2108	3094.3593	1081.4	201.45
1037.3188	3095.3629	1081	200.4
1037.4267	3096.3658	1071.4	187.2
1037.5346	3097.3681	1072.2	191.25
1037.6425	3098.3698	1072.05	187.55
1037.7503	3099.3708	1075.05	186.9
1037.858	3100.3713	1062.9	182.35
1037.9657	3101.3711	1059.9	177.9
1038.0734	3102.3702	1198.65	178.9
1038.181	3103.3688	1058.9	175.45
1038.2886	3104.3667	1055.55	173.35
1038.3961	3105.364	1048.15	165.55
1038.5036	3106.3607	1051.55	168.5
1038.611	3107.3568	1051.45	168.1
1038.7184	3108.3522	1047.1	166.2
1038.8257	3109.347	1045.65	161.6
1038.933	3110.3412	1050.4	165.3
1039.0403	3111.3348	1044.15	162.9
1039.1475	3112.3277	1039.45	158.4
1039.2547	3113.32	1040.1	157.55
1039.3618	3114.3117	1034.95	152.7
1039.4689	3115.3028	1032.95	148.65
1039.5759	3116.2932	1034.65	151.55
1039.6829	3117.2831	1040.3	153.65
1039.7898	3118.2723	1028.7	146.15
1039.8967	3119.2608	1030.6	147
1040.0035	3120.2488	1029.1	147.45
1040.1103	3121.2361	1025.5	143.35
1040.2171	3122.2229	1026.7	146.15
1040.3238	3123.209	1023.5	140.85
1040.4305	3124.1944	1020.8	141.35
1040.5371	3125.1793	1020.45	137.4
1040.6437	3126.1635	1018.1	136.75
1040.7502	3127.1471	1015.15	134.15
1040.8567	3128.1301	1016.95	135.65
1040.9631	3129.1125	1014.15	131.05
1041.0695	3130.0942	1011.8	128.65
1041.1759	3131.0753	1023.05	130.85
1041.2822	3132.0558	1014.85	131.25
1041.3884	3133.0357	1009.75	126.5
1041.4946	3134.015	1015.95	132.9
1041.6008	3134.9936	1010.6	128.6
1041.7069	3135.9716	1028	121.5
1041.813	3136.949	1008.6	126.35
1041.919	3137.9258	1023.2	122.15
1042.025	3138.902	1008.85	119.7
1042.1309	3139.8775	1003.7	123.75
1042.2368	3140.8524	1005.95	123.95
1042.3427	3141.8267	1004	120.2
1042.4485	3142.8004	1001.8	120.1
1042.5542	3143.7735	1005.9	117.6
1042.6599	3144.7459	1005.45	121.6
1042.7656	3145.7178	998.2	116.45
1042.8712	3146.689	997.25	116.7
1042.9768	3147.6596	999.05	115.6
1043.0823	3148.6295	995.2	113.25
1043.1878	3149.5989	992.85	112
1043.2932	3150.5676	993.5	111.6
1043.3986	3151.5357	990.2	109.25
1043.5039	3152.5032	990.8	111.9
1043.6092	3153.4701	993.6	112
1043.7145	3154.4364	990.05	105
1043.8197	3155.402	988.35	107.9
1043.9248	3156.367	987.15	103
1044.03	3157.3315	1013.1	98.95
1044.135	3158.2952	987.6	102.9
1044.24	3159.2584	987.75	106.6
1044.345	3160.221	987.95	105.95
1044.4499	3161.1829	983.2	101.2
1044.5548	3162.1442	984.9	103.7
1044.6596	3163.105	983.7	102.5
1044.7644	3164.065	981.2	99.85
1044.8692	3165.0245	984.4	101.35
1044.9739	3165.9834	982.15	101.5
1045.0785	3166.9416	980.9	99
1045.1831	3167.8993	980.3	97.75
1045.2877	3168.8563	977.75	95.55
1045.3922	3169.8127	980.35	99.75
1045.4966	3170.7684	976.1	91.95
1045.6011	3171.7236	973.7	91.8
1045.7054	3172.6782	977.4	93.7
1045.8098	3173.6321	976.8	95
1045.914	3174.5854	980.35	94.4
1046.0183	3175.5381	977.6	95.85
1046.1224	3176.4902	973.25	91.8
1046.2266	3177.4417	974.25	93.5
1046.3307	3178.3926	973.6	94.85
1046.4347	3179.3428	974.45	92.65
1046.5387	3180.2924	974.35	93.15
1046.6427	3181.2415	973.9	92.4
1046.7466	3182.1899	973.9	90.25
1046.8504	3183.1377	968.9	86.9
1046.9542	3184.0848	971.35	85.25
1047.058	3185.0314	967.05	84.75
1047.1617	3185.9773	970.55	88.55
1047.2654	3186.9227	969.35	85.75
1047.369	3187.8674	967.55	86.3
1047.4726	3188.8115	971.5	85.75
1047.5761	3189.755	964.8	82.4
1047.6796	3190.6979	965.6	84.1
1047.783	3191.6402	964.1	83.85
1047.8864	3192.5818	966.75	83.2
1047.9898	3193.5229	986.45	83.5
1048.0931	3194.4633	963.1	78.7
1048.1963	3195.4031	964.75	83.65
1048.2995	3196.3423	961.15	80.3
1048.4027	3197.2809	965.35	83
1048.5058	3198.2189	961.7	81.65
1048.6089	3199.1563	980.2	80.05
1048.7119	3200.0931	962.45	81.3
1048.8148	3201.0292	960.05	78.25
1048.9178	3201.9648	959.35	76.1
1049.0206	3202.8997	962.45	77.25
1049.1235	3203.834	959.1	77.4
1049.2262	3204.7677	958.95	76.6
1049.329	3205.7008	960.55	77.85
1049.4317	3206.6333	957.55	77.3
1049.5343	3207.5652	959.05	75.55
1049.6369	3208.4964	959.95	77.85
1049.7394	3209.4271	955.65	74.65
1049.8419	3210.3571	956.7	75.5
1049.9444	3211.2865	959.3	75.65
1050.0468	3212.2154	958.65	76.15
1050.1491	3213.1436	957.65	73.2
1050.2514	3214.0712	961	71.95
1050.3537	3214.9982	954.65	73.35
1050.4559	3215.9246	955.15	72.75
1050.5581	3216.8503	953.15	72.65
1050.6602	3217.7755	953.7	72.3
1050.7623	3218.7001	953.4	71.1
1050.8643	3219.624	951.45	69.5
1050.9663	3220.5473	952.2	70.1
1051.0682	3221.4701	954.9	70.5
1051.1701	3222.3922	951.55	68.4
1051.2719	3223.3137	947.5	65.85
1051.3737	3224.2346	950.05	67.7
1051.4754	3225.1549	950.15	68.65
1051.5771	3226.0746	950.95	69.15
1051.6788	3226.9937	949.75	67.3
1051.7804	3227.9121	948.85	68
1051.8819	3228.83	947.65	67.5
1051.9834	3229.7473	948.65	67.55
1052.0849	3230.6639	948.55	67.6
1052.1863	3231.5799	948.25	67.2
1052.2876	3232.4954	950.35	68.2
1052.3889	3233.4102	950.45	70.8
1052.4902	3234.3244	945.9	64.1
1052.5914	3235.238	943.85	61.65
1052.6926	3236.151	970.6	62.25
1052.7937	3237.0634	944.55	63.55
1052.8948	3237.9752	946.3	62.95
1052.9958	3238.8864	943.25	60.75
1053.0968	3239.797	939.85	59.75
1053.1977	3240.7069	946	63.85
1053.2986	3241.6163	943.35	61.45
1053.3994	3242.5251	941.5	59.8
1053.5002	3243.4332	939.65	59.3
1053.6009	3244.3408	939.4	57.3
1053.7016	3245.2477	941	60.15
1053.8022	3246.154	942.95	60
1053.9028	3247.0598	938.35	57.5
1054.0034	3247.9649	938.65	56.15
1054.1039	3248.8694	938	57.65
1054.2043	3249.7733	938.35	56.3
1054.3047	3250.6766	938.05	55.75
1054.4051	3251.5793	942	60.45
1054.5054	3252.4814	940	58.35
1054.6056	3253.3829	936.3	55.45
1054.7058	3254.2838	938.9	55.95
1054.806	3255.1841	936.35	55.1
1054.9061	3256.0838	931.1	49.65
1055.0061	3256.9829	930.95	51.2
1055.1062	3257.8814	938.4	55
1055.2061	3258.7792	936.4	51.9
1055.306	3259.6765	934.7	51.55
1055.4059	3260.5731	933.1	51.1
1055.5057	3261.4692	931.35	50.15
1055.6055	3262.3647	931.7	49.8
1055.7052	3263.2595	933.4	51.35
1055.8049	3264.1538	929.4	48
1055.9045	3265.0474	932.05	49.3
1056.0041	3265.9404	926.95	45.5
1056.1036	3266.8329	928.9	48.15
1056.2031	3267.7247	938.5	47.55
1056.3025	3268.616	924.8	44.55
1056.4019	3269.5066	926.15	42.85
1056.5013	3270.3966	927.25	43.85
1056.6005	3271.286	921.45	42.3
