Software Version:	3.9.2.0
Unit SN:	10000200
Spectrometer SN:	6960
Date:	3/14/2024 12:24:55 PM
Data Line Index:	25
Spectral Points:	2048
Integration time (ms):	125
Averages:	20
Delay (ms):	30000
Sequence Number:	1
Processing:	dark subtract
Laser Power (mW):	285
Laser Current (mA):	804
Laser Diode Temp (C):	25
Laser Case Temp (C):	24.9
System Temp (C):	24.9
Spectrometer Temp (C):	22.9
CCD Temp (C):	0.004
Secondary Temp (C):	20.007
Heatsink Temp (C):	22.307
CCDPCB Temp (C):	36.196
SecondaryPCB Temp (C):	30.282

Wavelength	RamanShift	Raw Counts	Dark Subtracted
787.061	30.1047	430.55	15.75
787.2016	32.3739	429.1	14.9
787.3422	34.6426	434.5	19.75
787.4828	36.9109	437.2	20.45
787.6235	39.1787	441.25	20.3
787.7642	41.4461	449.3	23.35
787.9049	43.7131	456.05	26.7
788.0456	45.9796	459.55	28.2
788.1863	48.2456	466.7	30.7
788.3271	50.5112	472.3	31.85
788.4679	52.7764	474.45	32.6
788.6087	55.0411	481.1	35.15
788.7496	57.3054	488.55	39.1
788.8904	59.5692	496.05	44.5
789.0313	61.8326	501.9	48.7
789.1722	64.0955	508.75	50.85
789.3132	66.3579	519.8	55.55
789.4541	68.6199	529.5	62.7
789.5951	70.8815	546.6	77.75
789.7361	73.1426	583.9	113
789.8771	75.4032	670.6	194.45
790.0181	77.6634	884.6	404.05
790.1592	79.9231	1385.75	900
790.3003	82.1824	2421.95	1933.45
790.4414	84.4412	4189.65	3698.15
790.5825	86.6995	6573.55	6078.9
790.7237	88.9574	8891.65	8395
790.8648	91.2148	10525.15	10025.3
791.006	93.4717	11324.45	10822.65
791.1472	95.7282	11509.9	11005.25
791.2885	97.9842	11529.2	11020.6
791.4297	100.2398	11366.25	10856.3
791.571	102.4949	11215.15	10700.85
791.7123	104.7495	11079.55	10561.45
791.8536	107.0036	10902.9	10384.6
791.9949	109.2573	10719.9	10201.85
792.1363	111.5105	10542.05	10025.25
792.2777	113.7632	10220.55	9700.9
792.4191	116.0154	9952.35	9421.75
792.5605	118.2672	9632.5	9109.45
792.7019	120.5185	9266.7	8741.25
792.8434	122.7693	8927.6	8398.15
792.9849	125.0197	8594.15	8061.35
793.1264	127.2696	8319.4	7786.2
793.2679	129.519	8142.2	7606.85
793.4094	131.7679	8002.45	7465.4
793.551	134.0163	7918.6	7376.55
793.6926	136.2642	7837.9	7291.3
793.8342	138.5117	7826.05	7274.05
793.9758	140.7587	7757.8	7206.05
794.1175	143.0052	7681.6	7127.75
794.2591	145.2512	7526.3	6970.9
794.4008	147.4967	7331.65	6777.35
794.5425	149.7417	7155.35	6595.8
794.6842	151.9863	7013.3	6454.1
794.826	154.2304	6924	6359.7
794.9677	156.4739	6877.6	6305.85
795.1095	158.717	6918.45	6349
795.2513	160.9596	6972.2	6397.7
795.3931	163.2017	7081.35	6504.15
795.535	165.4433	7196.9	6619.8
795.6768	167.6844	7205.55	6624.2
795.8187	169.925	7161.1	6578.25
795.9606	172.1651	6961.7	6373.65
796.1025	174.4047	6784.5	6191.2
796.2445	176.6439	6637.8	6044.35
796.3864	178.8825	6490.1	5894.5
796.5284	181.1206	6445.8	5845.75
796.6704	183.3582	6381.7	5778.65
796.8124	185.5954	6348.95	5743.5
796.9544	187.832	6325.3	5718.15
797.0965	190.0681	6316.75	5705.7
797.2386	192.3037	6306.25	5691.8
797.3806	194.5388	6302.65	5684.6
797.5228	196.7734	6342.5	5721.9
797.6649	199.0075	6387.5	5763.9
797.807	201.2411	6469.15	5842
797.9492	203.4742	6512.95	5886.95
798.0914	205.7068	6598.35	5971.75
798.2336	207.9389	6654.2	6026
798.3758	210.1704	6724.75	6094.55
798.518	212.4015	6742.7	6107.85
798.6603	214.632	6775.55	6140.35
798.8025	216.862	6763.85	6133.5
798.9448	219.0915	6774.75	6150.95
799.0871	221.3205	6809	6188
799.2294	223.549	6841.3	6226.2
799.3718	225.777	6861.9	6249.6
799.5141	228.0044	6834.5	6217.7
799.6565	230.2314	6832.2	6216.95
799.7989	232.4578	6763.45	6146.65
799.9413	234.6837	6709.65	6083.85
800.0837	236.909	6650.25	6025.7
800.2262	239.1339	6635.85	5987.75
800.3687	241.3582	6605.55	5971
800.5111	243.582	6568.15	5906.8
800.6536	245.8053	6592.25	5939.8
800.7961	248.0281	6620.35	5972.9
800.9387	250.2503	6636.2	5982.15
801.0812	252.472	6631.9	5973.7
801.2238	254.6932	6676.7	6013.15
801.3664	256.9139	6667.6	6002.7
801.509	259.134	6694.95	6026.95
801.6516	261.3536	6773.7	6108.1
801.7942	263.5727	6861.75	6193.05
801.9369	265.7912	7005.85	6337.75
802.0795	268.0092	7182.3	6512.6
802.2222	270.2267	7389.4	6719.05
802.3649	272.4436	7568.05	6896.55
802.5076	274.6601	7695.1	7014.1
802.6504	276.8759	7782.75	7108.1
802.7931	279.0913	7866.6	7191.2
802.9359	281.3061	7913.6	7238.6
803.0787	283.5204	7980.6	7300
803.2215	285.7341	8084.5	7398.65
803.3643	287.9473	8189.85	7503.5
803.5071	290.16	8207.3	7517.9
803.6499	292.3721	8059.1	7372.3
803.7928	294.5837	7872.85	7185.45
803.9357	296.7947	7718.1	7031.05
804.0786	299.0052	7614.55	6927.4
804.2215	301.2152	7540.3	6848.9
804.3644	303.4246	7512.25	6824.85
804.5074	305.6334	7473	6783.7
804.6503	307.8418	7467.35	6773.4
804.7933	310.0495	7403.6	6709.75
804.9363	312.2568	7305.5	6613.35
805.0793	314.4635	7147.15	6452.8
805.2223	316.6696	6987.95	6292.6
805.3653	318.8752	6790.4	6085.6
805.5084	321.0802	6666.9	5972
805.6514	323.2847	6607.2	5908.8
805.7945	325.4887	6621.85	5921.75
805.9376	327.692	6666.2	5964.6
806.0807	329.8949	6817.65	6114.5
806.2238	332.0972	6982.6	6276.8
806.367	334.2989	7164.35	6455.85
806.5101	336.5001	7216.2	6509.25
806.6533	338.7007	7150.6	6443.55
806.7965	340.9008	6964.7	6253.8
806.9397	343.1003	6725.55	6011.4
807.0829	345.2992	6492.1	5777.25
807.2261	347.4976	6324.8	5610.25
807.3693	349.6955	6192.2	5472.55
807.5126	351.8927	6113	5392.65
807.6559	354.0895	6028.4	5297
807.7991	356.2856	5993.9	5271.6
807.9424	358.4812	5949.05	5229.15
808.0857	360.6763	5917.75	5194.3
808.2291	362.8707	5881.1	5158.65
808.3724	365.0646	5876.7	5150.65
808.5158	367.258	5897.25	5169.45
808.6591	369.4508	5956.9	5223.6
808.8025	371.643	6055.6	5321.05
808.9459	373.8346	6147.9	5412.25
809.0893	376.0257	6288.25	5548.65
809.2327	378.2162	6410.85	5671.95
809.3762	380.4062	6516.25	5774.5
809.5196	382.5956	6447.6	5705.45
809.6631	384.7844	6315.3	5572.8
809.8066	386.9726	6152.95	5407.6
809.9501	389.1603	5999.25	5254.65
810.0936	391.3474	5938.75	5160.45
810.2371	393.5339	5886.6	5140.4
810.3806	395.7199	5879.55	5137.7
810.5241	397.9052	5978.4	5239.45
810.6677	400.09	6120.25	5381.3
810.8113	402.2743	6296.4	5558.6
810.9548	404.4579	6435.2	5697.5
811.0984	406.641	6559.7	5821.3
811.2421	408.8235	6720.75	5981.3
811.3857	411.0054	6863.45	6123.35
811.5293	413.1868	6958.4	6216.85
811.673	415.3675	6997.15	6253.35
811.8166	417.5477	6945.3	6198.7
811.9603	419.7273	6887.9	6139.5
812.104	421.9064	6745.5	5988.2
812.2477	424.0848	6607.9	5855.05
812.3914	426.2627	6383.35	5627.75
812.5351	428.4399	6134.7	5377.25
812.6788	430.6166	5927.25	5166.35
812.8226	432.7928	5768.35	5005.05
812.9663	434.9683	5629.9	4867.45
813.1101	437.1432	5556.65	4790.15
813.2539	439.3176	5477.4	4712.65
813.3977	441.4914	5407.15	4638.4
813.5415	443.6645	5385.55	4616.35
813.6853	445.8371	5377.45	4609.2
813.8291	448.0091	5378.85	4610.8
813.973	450.1806	5371.25	4600.55
814.1168	452.3514	5365.75	4593.65
814.2607	454.5216	5376.9	4595.75
814.4046	456.6913	5377.75	4603.2
814.5485	458.8603	5416.25	4644.15
814.6924	461.0288	5428.4	4655.6
814.8363	463.1967	5418.05	4643.95
814.9802	465.3639	5435.05	4657.15
815.1241	467.5306	5387.7	4610.85
815.2681	469.6967	5361.85	4584.85
815.412	471.8622	5352.55	4575.05
815.556	474.0271	5328.05	4549.65
815.7	476.1914	5314.1	4535.2
815.844	478.3551	5298.45	4520.3
815.988	480.5182	5300.4	4518.6
816.132	482.6807	5287.45	4505.8
816.276	484.8426	5361.35	4578.8
816.4201	487.0039	5485.8	4704.3
816.5641	489.1647	5704.35	4921.6
816.7082	491.3248	5908.7	5124.45
816.8522	493.4843	5966.2	5182
816.9963	495.6432	5945.25	5162.1
817.1404	497.8015	5839.65	5051.9
817.2845	499.9592	5674.6	4889.6
817.4286	502.1163	5481.15	4694.05
817.5727	504.2728	5306.5	4518.65
817.7168	506.4287	5218.2	4431.7
817.861	508.5839	5150.35	4362.45
818.0051	510.7386	5103	4315.6
818.1493	512.8927	5115.3	4320
818.2935	515.0461	5126.65	4336.95
818.4377	517.199	5173.95	4385
818.5818	519.3512	5319.95	4527.8
818.726	521.5029	5559.6	4762.7
818.8703	523.6539	5834.45	5042.05
819.0145	525.8043	5931.2	5134.95
819.1587	527.9541	5734	4936.3
819.303	530.1033	5480.45	4684.8
819.4472	532.2519	5260.8	4463.7
819.5915	534.3999	5145	4347.25
819.7357	536.5472	5112.1	4314.75
819.88	538.694	5109.25	4311.5
820.0243	540.8401	5147.9	4350.55
820.1686	542.9856	5224.15	4423.05
820.3129	545.1305	5277.4	4475.4
820.4572	547.2748	5332.7	4532.65
820.6016	549.4185	5346	4543.7
820.7459	551.5615	5367	4564.7
820.8902	553.704	5419.85	4617.1
821.0346	555.8458	5470.45	4667.35
821.1789	557.987	5529.25	4727.1
821.3233	560.1276	5661.25	4855.15
821.4677	562.2675	5914	5111
821.6121	564.4069	6236.3	5433.3
821.7565	566.5456	6461.15	5658.65
821.9009	568.6837	6400.3	5594.45
822.0453	570.8212	6051.2	5245.8
822.1897	572.958	5666.25	4858.75
822.3342	575.0942	5387.45	4582.05
822.4786	577.2299	5227.35	4419.05
822.6231	579.3648	5147.75	4339.75
822.7675	581.4992	5115.05	4306.4
822.912	583.6329	5135.45	4328.35
823.0565	585.766	5243.95	4433.1
823.201	587.8985	5381.2	4573.35
823.3454	590.0304	5609.2	4774.3
823.4899	592.1616	5771.9	4956.6
823.6345	594.2922	5844.5	5032.6
823.779	596.4222	5762	4950.1
823.9235	598.5515	5543.4	4728.4
824.068	600.6802	5297.85	4484.2
824.2126	602.8083	5112.25	4299.2
824.3571	604.9358	5043.05	4227.95
824.5017	607.0626	5000.45	4183.75
824.6462	609.1888	5015.1	4198.3
824.7908	611.3144	5081.45	4262.95
824.9354	613.4393	5206.3	4388.8
825.08	615.5636	5431.05	4612.9
825.2246	617.6873	5624.5	4806.9
825.3692	619.8103	5801.95	4981.8
825.5138	621.9327	5818.25	4996.45
825.6584	624.0544	5746.65	4927.95
825.803	626.1756	5518.05	4698.95
825.9477	628.2961	5269.55	4448.65
826.0923	630.4159	5109.4	4287.45
826.237	632.5351	5087.25	4263.75
826.3816	634.6537	5084.05	4261.75
826.5263	636.7716	5055.4	4231.35
826.6709	638.8889	5032.65	4209.25
826.8156	641.0056	5056.8	4232.6
826.9603	643.1216	5112.2	4288.55
827.105	645.237	5165.2	4340.05
827.2497	647.3518	5118.75	4294.3
827.3944	649.4659	4990.75	4165.35
827.5391	651.5793	4881.65	4054.2
827.6838	653.6922	4850.95	4024.95
827.8285	655.8043	4797.45	3971.85
827.9733	657.9159	4733.2	3905.15
828.118	660.0268	4702.7	3871.9
828.2627	662.137	4699.45	3869.2
828.4075	664.2466	4713.3	3883.4
828.5522	666.3556	4710	3880.65
828.697	668.4639	4683.1	3849.6
828.8418	670.5716	4682.35	3851.85
828.9865	672.6786	4652.45	3820.05
829.1313	674.785	4605.45	3772.7
829.2761	676.8907	4592	3759.8
829.4209	678.9958	4613.15	3782.3
829.5657	681.1002	4585.5	3753.2
829.7105	683.204	4607.9	3772.75
829.8553	685.3072	4606.1	3773.05
830.0001	687.4097	4596.25	3764.6
830.1449	689.5115	4603.7	3767.8
830.2898	691.6127	4587.8	3754.25
830.4346	693.7132	4574.55	3737.3
830.5794	695.8131	4592.95	3744
830.7243	697.9123	4588.55	3750.4
830.8691	700.0109	4586.95	3750.25
831.014	702.1089	4624.7	3788.3
831.1588	704.2061	4670.95	3832.1
831.3037	706.3028	4755.25	3916.05
831.4486	708.3987	4854.5	4015.4
831.5935	710.4941	4917.45	4078.5
831.7383	712.5887	4953.85	4113.45
831.8832	714.6827	4950.95	4106.4
832.0281	716.7761	4899.2	4060.95
832.173	718.8688	4873.5	4032.9
832.3179	720.9608	4853.3	4009.7
832.4628	723.0522	4887.5	4044.75
832.6077	725.1429	4927.65	4088.05
832.7527	727.233	5043.25	4202.65
832.8976	729.3224	5244.7	4403.85
833.0425	731.4112	5496.15	4651.45
833.1874	733.4993	5630.2	4787.8
833.3324	735.5867	5528.25	4681.35
833.4773	737.6735	5245.15	4400.75
833.6222	739.7596	4958.55	4114.85
833.7672	741.845	4761.05	3916.3
833.9122	743.9298	4689.7	3842.7
834.0571	746.014	4646.55	3801.65
834.2021	748.0974	4668.95	3822.2
834.347	750.1802	4670.1	3824.35
834.492	752.2624	4660.1	3815.65
834.637	754.3439	4675.4	3828.9
834.782	756.4247	4668.75	3814
834.9269	758.5048	4705.5	3860.6
835.0719	760.5843	4759.25	3911.25
835.2169	762.6631	4865.75	4019.9
835.3619	764.7413	5059.75	4213.45
835.5069	766.8188	5369.85	4519.4
835.6519	768.8956	5740.3	4889.2
835.7969	770.9718	6016.2	5168.65
835.9419	773.0473	6023.8	5174.4
836.0869	775.1221	5847.75	4999.3
836.232	777.1962	5737.1	4886
836.377	779.2697	5942.15	5090.5
836.522	781.3426	6362.15	5500.05
836.667	783.4147	6724.45	5873.45
836.8121	785.4862	6815	5966.05
836.9571	787.557	6526.75	5677.9
837.1021	789.6271	6021	5168.85
837.2472	791.6966	5493.75	4641.7
837.3922	793.7654	5079.65	4226.45
837.5373	795.8335	4797.95	3943.9
837.6823	797.901	4664.4	3812.2
837.8274	799.9678	4583.8	3730.15
837.9724	802.0339	4577.45	3726.85
838.1175	804.0993	4611.6	3749.6
838.2626	806.1641	4626.25	3773.25
838.4076	808.2282	4573.35	3719.9
838.5527	810.2916	4508.7	3652.1
838.6978	812.3544	4437.3	3584.8
838.8428	814.4164	4402.1	3549.8
838.9879	816.4778	4406.9	3550.15
839.133	818.5385	4442.8	3587.8
839.2781	820.5986	4546.2	3691.45
839.4232	822.658	4743.2	3886.5
839.5682	824.7166	5008	4154.5
839.7133	826.7747	5312.5	4458.3
839.8584	828.832	5630.85	4775.3
840.0035	830.8886	5859.2	5001.7
840.1486	832.9446	6002.65	5145.65
840.2937	834.9999	5971.55	5116.55
840.4388	837.0545	5740.5	4878.6
840.5839	839.1085	5389.35	4531.05
840.729	841.1618	5065.25	4204.85
840.8741	843.2143	4830.75	3971.15
841.0192	845.2662	4661.1	3805.25
841.1643	847.3175	4586.8	3731.2
841.3095	849.368	4548.3	3690.35
841.4546	851.4179	4521.45	3664.65
841.5997	853.467	4505.65	3646.2
841.7448	855.5155	4550.2	3692.45
841.8899	857.5633	4557.7	3697.7
842.0351	859.6105	4559.95	3699.95
842.1802	861.6569	4528.25	3669.2
842.3253	863.7027	4460.3	3599.9
842.4704	865.7478	4386.3	3526.05
842.6156	867.7922	4348.3	3488.75
842.7607	869.8359	4306.1	3445.8
842.9058	871.8789	4279	3418.7
843.0509	873.9212	4289.3	3395.2
843.1961	875.9629	4282.65	3422.05
843.3412	878.0039	4320.1	3456
843.4863	880.0441	4378.95	3518.6
843.6315	882.0837	4441.25	3579.55
843.7766	884.1226	4512	3647.45
843.9218	886.1609	4652.4	3791.7
844.0669	888.1984	4841.45	3980.85
844.212	890.2352	5037.7	4177.55
844.3572	892.2714	5149.3	4283
844.5023	894.3069	5070.1	4207.9
844.6475	896.3416	4869.25	4005.9
844.7926	898.3757	4664.4	3800.55
844.9377	900.4091	4543.15	3679.2
845.0829	902.4418	4549.65	3681.35
845.228	904.4739	4633.15	3767.45
845.3732	906.5052	4738.25	3875.25
845.5183	908.5358	4757.85	3894.6
845.6635	910.5658	4698.4	3833.55
845.8086	912.595	4581.6	3718.25
845.9538	914.6236	4411.25	3545.15
846.0989	916.6515	4282.5	3418.8
846.2441	918.6786	4198.3	3330.3
846.3892	920.7051	4172	3302.85
846.5344	922.7309	4155.9	3291
846.6795	924.756	4129.6	3262.55
846.8246	926.7804	4161	3293.35
846.9698	928.8041	4200.45	3329.8
847.1149	930.8272	4295.3	3429
847.2601	932.8495	4330.35	3463.6
847.4052	934.8711	4334.6	3467.2
847.5504	936.892	4374.9	3507.8
847.6955	938.9123	4430.4	3562.25
847.8407	940.9318	4548.95	3683.2
847.9858	942.9506	4629.8	3761.95
848.131	944.9688	4634.35	3765.75
848.2761	946.9862	4560.35	3694.4
848.4213	949.003	4441.1	3570.9
848.5664	951.019	4320.5	3451.9
848.7115	953.0344	4257.45	3387.3
848.8567	955.0491	4191.7	3321.35
849.0018	957.063	4140.8	3270.95
849.147	959.0763	4123.15	3256.7
849.2921	961.0888	4122.2	3250.15
849.4373	963.1007	4124.8	3255.6
849.5824	965.1119	4086.15	3214.9
849.7275	967.1223	4037.8	3167.35
849.8727	969.1321	4019	3149.9
850.0178	971.1412	4001.6	3131.6
850.1629	973.1495	3980.75	3110.45
850.3081	975.1572	4022.05	3106.75
850.4532	977.1641	3991.35	3122.4
850.5983	979.1704	3995	3123.7
850.7435	981.1759	3989.8	3116.9
850.8886	983.1808	3960.9	3088.5
851.0337	985.1849	3923.95	3043
851.1788	987.1884	3907.7	3031.5
851.324	989.1911	3911.85	3038.2
851.4691	991.1932	3940.4	3066.85
851.6142	993.1945	3976.75	3103.75
851.7593	995.1951	3969.45	3096.05
851.9045	997.1951	3970.8	3092.75
852.0496	999.1943	3933	3061.7
852.1947	1001.1928	3932.35	3058.55
852.3398	1003.1906	3971.15	3096.1
852.4849	1005.1877	4051.75	3180.15
852.63	1007.1841	4166.05	3292.75
852.7751	1009.1798	4244.25	3372.25
852.9202	1011.1748	4234.75	3360.75
853.0653	1013.1691	4147.85	3274.1
853.2104	1015.1627	4010.7	3135.45
853.3555	1017.1556	3886.4	3012.15
853.5006	1019.1477	3794.05	2917.6
853.6457	1021.1392	3744.8	2871.6
853.7908	1023.1299	3702.9	2829.7
853.9359	1025.12	3693.8	2818.8
854.081	1027.1093	3707.25	2833
854.2261	1029.0979	3811.9	2938.8
854.3712	1031.0859	3863.55	2988.15
854.5163	1033.0731	3924.7	3048.05
854.6613	1035.0596	3956.75	3083.6
854.8064	1037.0454	3928.1	3052.5
854.9515	1039.0304	3897.65	3023.05
855.0965	1041.0148	3809.85	2933.95
855.2416	1042.9985	3730.9	2854.4
855.3867	1044.9814	3664.9	2792.05
855.5317	1046.9636	3620.3	2741.4
855.6768	1048.9452	3652.55	2777.7
855.8219	1050.926	3707.8	2832.15
855.9669	1052.9061	3785.6	2909.9
856.112	1054.8855	3824.75	2948.2
856.257	1056.8642	3844.3	2966.55
856.4021	1058.8421	3822.25	2940.75
856.5471	1060.8194	3804.5	2928.85
856.6921	1062.7959	3781.25	2904.7
856.8372	1064.7717	3775.6	2900.25
856.9822	1066.7469	3785.55	2909.45
857.1272	1068.7213	3781.6	2901.05
857.2723	1070.695	3812.35	2936.05
857.4173	1072.6679	3882	3002.9
857.5623	1074.6402	4002.75	3127.15
857.7073	1076.6117	4086.3	3201.55
857.8523	1078.5826	4066.85	3188.95
857.9973	1080.5527	3906.7	3026.1
858.1423	1082.5221	3743.9	2867.3
858.2873	1084.4908	3634.6	2753.3
858.4323	1086.4587	3551.55	2671.95
858.5773	1088.426	3517.75	2638.4
858.7223	1090.3925	3490.45	2608.2
858.8673	1092.3584	3502.7	2623.5
859.0123	1094.3235	3534.6	2655.15
859.1573	1096.2879	3595.9	2717.75
859.3022	1098.2515	3663.4	2782.7
859.4472	1100.2145	3772.2	2894
859.5922	1102.1767	3876.4	2996.2
859.7371	1104.1382	4025.35	3146
859.8821	1106.099	4229.4	3347.2
860.027	1108.0591	4440.05	3559.55
860.172	1110.0185	4615.25	3735.05
860.3169	1111.9771	4748.95	3869.55
860.4619	1113.9351	4925.5	4044
860.6068	1115.8923	5201.15	4321.85
860.7517	1117.8488	5437.5	4555.3
860.8967	1119.8045	5376.75	4496.2
861.0416	1121.7596	5034.7	4153.6
861.1865	1123.7139	4567.1	3686.35
861.3314	1125.6675	4246.85	3366.45
861.4763	1127.6204	4161	3280.45
861.6212	1129.5726	4238.05	3354.65
861.7661	1131.524	4301.5	3422.4
861.911	1133.4748	4193.2	3312.3
862.0559	1135.4248	3967.2	3083.9
862.2008	1137.3741	3723.35	2842.1
862.3457	1139.3226	3599.65	2717.05
862.4905	1141.2705	3555.05	2674.4
862.6354	1143.2176	3575.2	2689.35
862.7803	1145.164	3646.5	2762.25
862.9251	1147.1097	3673.8	2790.75
863.07	1149.0546	3627.85	2744.95
863.2148	1150.9989	3535.35	2653.2
863.3597	1152.9424	3431	2548.6
863.5045	1154.8852	3356.05	2472.45
863.6493	1156.8272	3318.5	2438.75
863.7942	1158.7686	3312.4	2423.35
863.939	1160.7092	3308.65	2425.6
864.0838	1162.6491	3314.8	2431.25
864.2286	1164.5883	3345.75	2463.95
864.3734	1166.5267	3401.3	2517
864.5182	1168.4644	3472.95	2592.95
864.663	1170.4014	3596.3	2709.25
864.8078	1172.3377	3730.5	2849.6
864.9526	1174.2732	3908.6	3026.5
865.0974	1176.2081	4148.5	3266.35
865.2421	1178.1421	4590.2	3704.35
865.3869	1180.0755	5138.5	4257.4
865.5317	1182.0082	5574.05	4690.9
865.6764	1183.9401	5656.3	4771.15
865.8212	1185.8713	5396.8	4513
865.9659	1187.8017	4885	4003.35
866.1106	1189.7315	4397.2	3516.75
866.2554	1191.6605	4020.8	3110.1
866.4001	1193.5888	3775.25	2891.35
866.5448	1195.5163	3632.85	2749.3
866.6895	1197.4432	3532.35	2649.15
866.8342	1199.3693	3461.95	2579.05
866.9789	1201.2947	3396.1	2504.55
867.1236	1203.2193	3365.6	2481.45
867.2683	1205.1432	3334	2450.25
867.413	1207.0664	3323.7	2438.45
867.5576	1208.9889	3327.8	2439.35
867.7023	1210.9106	3322.75	2436.7
867.847	1212.8316	3347.5	2462.75
867.9916	1214.7519	3379.7	2486.25
868.1363	1216.6715	3412.2	2530.05
868.2809	1218.5903	3465.85	2580.15
868.4255	1220.5084	3497.8	2612.55
868.5701	1222.4257	3551.35	2667
868.7148	1224.3424	3575.85	2692.85
868.8594	1226.2583	3633.35	2745.3
869.004	1228.1735	3737.8	2851.75
869.1486	1230.0879	3846.95	2961.15
869.2932	1232.0016	4002.7	3116.9
869.4377	1233.9146	4157.6	3270.25
869.5823	1235.8269	4224.7	3338.45
869.7269	1237.7384	4235.25	3349.75
869.8715	1239.6492	4225.2	3343.05
870.016	1241.5592	4265.05	3378.7
870.1606	1243.4686	4364.3	3477.8
870.3051	1245.3772	4626.8	3742.65
870.4496	1247.285	4980.05	4094.85
870.5941	1249.1922	5292.95	4409.8
870.7387	1251.0986	5591.5	4706.3
870.8832	1253.0042	5820.05	4935.3
871.0277	1254.9092	6135.4	5247.75
871.1722	1256.8134	6503.25	5617.75
871.3167	1258.7169	6945.25	6056.85
871.4611	1260.6196	7296.15	6409.2
871.6056	1262.5216	7542.95	6652.95
871.7501	1264.4229	7625.65	6739.85
871.8945	1266.3234	7537.95	6653.15
872.039	1268.2232	7297.85	6411.65
872.1834	1270.1223	7022.9	6134.65
872.3278	1272.0207	6843.4	5957.95
872.4723	1273.9183	6722.3	5831
872.6167	1275.8151	6681.9	5793.95
872.7611	1277.7113	6768.45	5880.6
872.9055	1279.6067	7024.3	6138.2
873.0499	1281.5014	7526.75	6638.1
873.1943	1283.3953	8252	7364.4
873.3386	1285.2885	9120.55	8233.65
873.483	1287.181	9921.85	9034.8
873.6274	1289.0727	10392.25	9506.15
873.7717	1290.9637	10260.95	9373.3
873.9161	1292.854	9774.2	8886.95
874.0604	1294.7435	9130.5	8244.05
874.2047	1296.6323	8519.3	7632.2
874.349	1298.5204	7985.6	7095.05
874.4933	1300.4077	7582.95	6693.4
874.6376	1302.2943	7312.2	6425.35
874.7819	1304.1802	7120.9	6233.85
874.9262	1306.0653	6950.55	6060.35
875.0705	1307.9497	6832.8	5946.2
875.2147	1309.8333	6736.1	5849
875.359	1311.7162	6657.55	5771.25
875.5032	1313.5984	6555.05	5666
875.6475	1315.4798	6486.7	5586.6
875.7917	1317.3605	6497.85	5603.55
875.9359	1319.2405	6588.15	5698.85
876.0801	1321.1197	6650.35	5763.05
876.2243	1322.9982	6613.2	5720.55
876.3685	1324.876	6459.35	5571.35
876.5127	1326.753	6124.45	5236.5
876.6569	1328.6293	5765.8	4874.4
876.801	1330.5048	5351.55	4460.4
876.9452	1332.3796	4958.8	4072.1
877.0893	1334.2537	4666.85	3752.7
877.2335	1336.127	4430.9	3542
877.3776	1337.9996	4279.4	3391.3
877.5217	1339.8714	4156.2	3267.55
877.6658	1341.7426	4118	3188.1
877.8099	1343.6129	4002.25	3113.25
877.954	1345.4826	3914.9	3025.6
878.0981	1347.3515	3854.25	2964.1
878.2422	1349.2196	3785.65	2896.45
878.3862	1351.087	3741	2854.6
878.5303	1352.9537	3729.75	2841.6
878.6743	1354.8197	3734.05	2847.45
878.8184	1356.6849	3759.15	2870.85
878.9624	1358.5493	3797.1	2909.75
879.1064	1360.4131	3879.1	2990.75
879.2504	1362.276	4007.95	3119.9
879.3944	1364.1383	4183.4	3295.25
879.5384	1365.9998	4281	3385.15
879.6823	1367.8606	4253.6	3364.65
879.8263	1369.7206	4234.7	3346.7
879.9702	1371.5799	4240.2	3350.25
880.1142	1373.4384	4254.65	3367.75
880.2581	1375.2962	4166.4	3277.1
880.402	1377.1533	3963.8	3073.75
880.5459	1379.0096	3787.8	2897.65
880.6898	1380.8652	3640.1	2750.65
880.8337	1382.7201	3526.95	2636.45
880.9776	1384.5742	3428.55	2541.2
881.1215	1386.4275	3311.45	2419.55
881.2653	1388.2802	3234.45	2347.95
881.4092	1390.132	3170.5	2282.05
881.553	1391.9832	3140.65	2250.6
881.6968	1393.8336	3109.75	2220.4
881.8406	1395.6832	3106.55	2214.8
881.9844	1397.5322	3074.5	2184.6
882.1282	1399.3803	3056.45	2162
882.272	1401.2278	2999.35	2108.45
882.4158	1403.0745	2969.65	2079.25
882.5595	1404.9204	2928.1	2039.1
882.7033	1406.7656	2912.95	2023.75
882.847	1408.6101	2886.95	1997
882.9908	1410.4538	2874.2	1984.65
883.1345	1412.2968	2874.1	1983.85
883.2782	1414.139	2889.95	2002
883.4219	1415.9805	2900.35	2012.2
883.5656	1417.8213	2959.65	2062.05
883.7092	1419.6613	3020.6	2132.15
883.8529	1421.5006	3133.85	2242.25
883.9965	1423.3391	3262.3	2371.35
884.1402	1425.1769	3452.75	2559.85
884.2838	1427.0139	3739.1	2847.5
884.4274	1428.8502	4107	3214.05
884.571	1430.6858	4423.3	3531.5
884.7146	1432.5206	4572.35	3682.15
884.8582	1434.3547	4583.25	3692.2
885.0018	1436.188	4516.5	3625.55
885.1453	1438.0206	4425.65	3536.1
885.2889	1439.8524	4383.3	3491.8
885.4324	1441.6835	4362.35	3470.65
885.5759	1443.5139	4355.5	3460.9
885.7194	1445.3435	4383.9	3492.75
885.8629	1447.1724	4427.6	3536.95
886.0064	1449.0005	4406.85	3517.25
886.1499	1450.8279	4355.8	3463.35
886.2933	1452.6545	4359.6	3469.75
886.4368	1454.4804	4332.35	3442.75
886.5802	1456.3056	4314.25	3416.55
886.7237	1458.13	4245.25	3355.45
886.8671	1459.9536	4147.45	3256.35
887.0105	1461.7766	4026.75	3136.3
887.1539	1463.5987	3867.35	2973.85
887.2972	1465.4202	3720.15	2831.5
887.4406	1467.2409	3574.45	2683.5
887.584	1469.0608	3426	2534.9
887.7273	1470.88	3308.45	2416.35
887.8706	1472.6984	3192.45	2302
888.0139	1474.5161	3087.35	2192.9
888.1572	1476.3331	3000.95	2110.4
888.3005	1478.1493	2976.35	2084.2
888.4438	1479.9648	2957.05	2065.85
888.5871	1481.7795	2942.45	2051.65
888.7303	1483.5935	2946.4	2056
888.8736	1485.4067	2938.55	2045.4
889.0168	1487.2192	2966.95	2072.75
889.16	1489.031	2969.3	2075.15
889.3032	1490.842	2975.95	2084.85
889.4464	1492.6522	2974.25	2084.3
889.5896	1494.4618	2963	2071.55
889.7327	1496.2705	2950.95	2060.1
889.8759	1498.0785	2947.2	2055.75
890.019	1499.8858	2920	2028.4
890.1622	1501.6924	2912.25	2021.4
890.3053	1503.4981	2888.7	1997.65
890.4484	1505.3032	2864.45	1973.2
890.5914	1507.1075	2843.3	1952.05
890.7345	1508.911	2811.85	1921.9
890.8776	1510.7138	2805.2	1912.35
891.0206	1512.5159	2772.9	1881.35
891.1637	1514.3172	2752.45	1861.8
891.3067	1516.1178	2721.4	1832
891.4497	1517.9176	2707.75	1813.85
891.5927	1519.7166	2676.75	1785.8
891.7357	1521.515	2670.8	1772.6
891.8786	1523.3126	2650.85	1760.25
892.0216	1525.1094	2631.85	1736.65
892.1645	1526.9055	2603.6	1712.7
892.3074	1528.7008	2606.8	1716.95
892.4503	1530.4954	2583.35	1684.05
892.5932	1532.2893	2565.5	1675.8
892.7361	1534.0824	2563.35	1667.55
892.879	1535.8747	2579.65	1688.7
893.0218	1537.6663	2566.1	1673.8
893.1647	1539.4572	2567.9	1673.55
893.3075	1541.2473	2568.9	1676.8
893.4503	1543.0367	2560.55	1668.6
893.5931	1544.8253	2575.8	1678.65
893.7359	1546.6132	2593.25	1698.1
893.8787	1548.4003	2607.3	1704.85
894.0214	1550.1867	2640.95	1740.15
894.1642	1551.9723	2680.85	1785.4
894.3069	1553.7572	2705.7	1812.2
894.4496	1555.5414	2761.1	1869.4
894.5923	1557.3247	2859.45	1965.25
894.735	1559.1074	2992.95	2102.5
894.8777	1560.8893	3166	2273
895.0204	1562.6705	3335.8	2444.45
895.163	1564.4509	3484.45	2591.75
895.3056	1566.2305	3545.25	2653.9
895.4482	1568.0094	3586.3	2696.05
895.5908	1569.7876	3575.2	2683.1
895.7334	1571.565	3575.65	2681.95
895.876	1573.3417	3578.55	2687.35
896.0186	1575.1176	3600.2	2708.5
896.1611	1576.8928	3653.25	2760.55
896.3036	1578.6672	3734.3	2842.95
896.4461	1580.4409	3855.7	2964.45
896.5886	1582.2138	4021.15	3125.1
896.7311	1583.986	4203.4	3309.85
896.8736	1585.7575	4389.15	3497.85
897.0161	1587.5282	4557.75	3667.4
897.1585	1589.2981	4686	3794.8
897.3009	1591.0673	4765.3	3872.1
897.4433	1592.8358	4812.1	3919.35
897.5857	1594.6035	4816.25	3919.6
897.7281	1596.3704	4774.05	3880.7
897.8705	1598.1366	4673.4	3779.55
898.0128	1599.9021	4578.85	3686.9
898.1551	1601.6668	4434.45	3538.1
898.2975	1603.4308	4331.9	3440.05
898.4398	1605.194	4276.5	3379.6
898.5821	1606.9564	4346.55	3453.55
898.7243	1608.7182	4515.25	3617.7
898.8666	1610.4791	4823.4	3930.55
899.0088	1612.2394	5245.45	4354
899.1511	1613.9988	5745.75	4852.85
899.2933	1615.7576	6231.6	5337.7
899.4355	1617.5156	6522.25	5622.7
899.5776	1619.2728	6551.65	5657.8
899.7198	1621.0293	6286.65	5394.15
899.862	1622.785	5832.9	4935.5
900.0041	1624.54	5294	4398.05
900.1462	1626.2942	4757.55	3863
900.2883	1628.0477	4266.35	3370.95
900.4304	1629.8005	3858.45	2962
900.5725	1631.5525	3535.9	2642.7
900.7145	1633.3037	3297.6	2403.1
900.8566	1635.0542	3108.6	2214.5
900.9986	1636.804	2950.8	2056.2
901.1406	1638.553	2905.65	1918.8
901.2826	1640.3013	2736.05	1840.15
901.4245	1642.0488	2655.95	1758.9
901.5665	1643.7955	2588.8	1700.1
901.7085	1645.5416	2526.05	1632.5
901.8504	1647.2868	2488.35	1594.85
901.9923	1649.0313	2451.85	1557.65
902.1342	1650.7751	2415.9	1519.7
902.2761	1652.5181	2413.4	1521.1
902.4179	1654.2604	2405.15	1510.5
902.5598	1656.0019	2417.95	1525.05
902.7016	1657.7427	2436.7	1543.2
902.8434	1659.4828	2506.45	1613.4
902.9852	1661.222	2614	1719.25
903.127	1662.9606	2763.25	1868.7
903.2687	1664.6984	2947.9	2053.45
903.4105	1666.4354	3070.25	2177.1
903.5522	1668.1717	3076.75	2182.8
903.6939	1669.9072	2960.75	2068.8
903.8356	1671.642	2774.65	1879.25
903.9773	1673.3761	2572.85	1678.55
904.119	1675.1094	2408.1	1515
904.2606	1676.8419	2295.6	1403.55
904.4022	1678.5737	2209.65	1315.9
904.5439	1680.3048	2172.7	1279.45
904.6855	1682.0351	2127.4	1234.15
904.827	1683.7646	2099.75	1203.5
904.9686	1685.4934	2073.65	1180.2
905.1101	1687.2215	2065.25	1171.9
905.2517	1688.9488	2056.05	1162.25
905.3932	1690.6754	2042.7	1150.6
905.5347	1692.4012	2031.35	1138.45
905.6761	1694.1263	2023.1	1129
905.8176	1695.8506	2012.9	1118.65
905.9591	1697.5742	1995.55	1103.7
906.1005	1699.297	2001.75	1109.35
906.2419	1701.0191	1982.45	1088.4
906.3833	1702.7404	1968.8	1075.65
906.5246	1704.461	1952.45	1056.4
906.666	1706.1808	1962.3	1065.45
906.8073	1707.8999	1946.55	1050.35
906.9487	1709.6182	1942.3	1049.1
907.09	1711.3358	1932.15	1039.55
907.2313	1713.0527	1927.75	1035.8
907.3725	1714.7688	1920.2	1021.8
907.5138	1716.4841	1918.4	1022.8
907.655	1718.1987	1915.7	1015.55
907.7962	1719.9126	1903.1	1010.95
907.9374	1721.6257	1908.8	1010.35
908.0786	1723.338	1910.75	1013.85
908.2198	1725.0496	1888.3	993.35
908.3609	1726.7605	1882.5	989.4
908.502	1728.4706	1877.3	982.4
908.6431	1730.18	1867.85	970.25
908.7842	1731.8886	1876	982.55
908.9253	1733.5964	1887.25	972.8
909.0664	1735.3036	1864.05	969.2
909.2074	1737.0099	1853.7	961.15
909.3484	1738.7156	1850	957.9
909.4894	1740.4204	1851.9	954.95
909.6304	1742.1246	1853.05	956.85
909.7714	1743.8279	1847.85	952.45
909.9123	1745.5306	1857.2	960.45
910.0532	1747.2325	1846	951.05
910.1941	1748.9336	1842.85	950.15
910.335	1750.634	1831.65	936.8
910.4759	1752.3336	1836	942.25
910.6168	1754.0325	1823.45	931.75
910.7576	1755.7307	1831.85	937.85
910.8984	1757.4281	1835.45	942.35
911.0392	1759.1247	1832.5	929.85
911.18	1760.8206	1833.2	933.4
911.3208	1762.5158	1827.25	930.4
911.4615	1764.2102	1812	917.7
911.6022	1765.9039	1809.35	915.3
911.7429	1767.5968	1807.8	913.7
911.8836	1769.289	1804.8	911.05
912.0243	1770.9804	1798.55	904.1
912.1649	1772.6711	1805.6	911.75
912.3056	1774.361	1795	900.15
912.4462	1776.0502	1798.2	903.95
912.5868	1777.7386	1796.6	899.4
912.7274	1779.4263	1791.35	896
912.8679	1781.1132	1790.7	896.05
913.0084	1782.7994	1795.1	899.05
913.149	1784.4849	1784.3	893.65
913.2895	1786.1696	1791.95	892.2
913.4299	1787.8535	1782.15	887.95
913.5704	1789.5367	1776.55	881.1
913.7108	1791.2192	1782.55	886.7
913.8513	1792.9009	1788.3	878.7
913.9917	1794.5818	1771.15	875.05
914.132	1796.2621	1765.8	872.35
914.2724	1797.9415	1759.2	866.4
914.4128	1799.6202	1753	860.65
914.5531	1801.2982	1758.45	864
914.6934	1802.9755	1760.75	863.1
914.8337	1804.6519	1745.95	851.85
914.9739	1806.3277	1741.85	846.95
915.1142	1808.0027	1742.9	848.8
915.2544	1809.6769	1747.7	851.6
915.3946	1811.3504	1744.5	847.85
915.5348	1813.0231	1739.7	844.35
915.675	1814.6951	1741.9	848.15
915.8151	1816.3664	1749.65	853.55
915.9553	1818.0369	1738.4	843.1
916.0954	1819.7067	1733.05	840.05
916.2355	1821.3757	1736.3	840.95
916.3755	1823.044	1722.5	828.3
916.5156	1824.7115	1729.8	836.95
916.6556	1826.3783	1729.2	834.75
916.7956	1828.0443	1719.8	827.2
916.9356	1829.7096	1716.45	819.9
917.0756	1831.3741	1723.75	826.25
917.2155	1833.0379	1725.05	829.85
917.3555	1834.701	1717.65	821.9
917.4954	1836.3633	1714.8	820.65
917.6353	1838.0248	1715.75	818.25
917.7751	1839.6856	1701.85	806.75
917.915	1841.3457	1710.25	818
918.0548	1843.005	1708.15	814.25
918.1946	1844.6636	1708.15	814.05
918.3344	1846.3214	1706.25	812.4
918.4742	1847.9785	1711.75	818.35
918.6139	1849.6349	1700.65	804.85
918.7537	1851.2904	1711.4	807.2
918.8934	1852.9453	1689.75	795.25
919.0331	1854.5994	1699.3	802.4
919.1727	1856.2528	1707.5	809.05
919.3124	1857.9054	1692.5	799.1
919.452	1859.5572	1688.05	795.4
919.5916	1861.2083	1689.4	794.55
919.7312	1862.8587	1687.1	792.55
919.8708	1864.5084	1693.25	798.65
920.0103	1866.1572	1679.8	786.65
920.1498	1867.8054	1672.55	777.6
920.2893	1869.4528	1673.65	780.6
920.4288	1871.0994	1672.45	777.95
920.5683	1872.7453	1673.05	775.4
920.7077	1874.3905	1681.35	780.55
920.8471	1876.0349	1669.15	773.95
920.9865	1877.6786	1677.2	783.6
921.1259	1879.3215	1676.05	783
921.2653	1880.9637	1668.95	774.25
921.4046	1882.6051	1667.45	773.35
921.5439	1884.2458	1674.3	778
921.6832	1885.8858	1664.35	769.75
921.8225	1887.525	1659.25	764.4
921.9617	1889.1634	1657	763.2
922.101	1890.8011	1654.5	760.85
922.2402	1892.4381	1653.65	760.25
922.3794	1894.0743	1648.7	753.8
922.5185	1895.7098	1650.85	756.6
922.6577	1897.3446	1643.1	748.35
922.7968	1898.9786	1657.55	760.65
922.9359	1900.6118	1644.4	751.1
923.075	1902.2443	1640.3	742.75
923.214	1903.8761	1641.7	746.6
923.3531	1905.5071	1634.55	738
923.4921	1907.1374	1628.25	731.35
923.6311	1908.7669	1631.45	735.75
923.77	1910.3957	1628.65	732.75
923.909	1912.0237	1622	727.55
924.0479	1913.651	1618.45	723.6
924.1868	1915.2776	1623.65	729.55
924.3257	1916.9034	1614.05	721.95
924.4646	1918.5285	1612.65	720.5
924.6034	1920.1528	1615.1	719.95
924.7422	1921.7764	1614.4	719.55
924.881	1923.3992	1601.6	708.2
925.0198	1925.0213	1599.55	704.7
925.1586	1926.6427	1602.15	708.4
925.2973	1928.2633	1678.5	700.25
925.436	1929.8832	1600.75	704.85
925.5747	1931.5023	1590.65	699.45
925.7134	1933.1207	1597.75	704.45
925.852	1934.7383	1592	698.6
925.9906	1936.3552	1582.45	688.7
926.1292	1937.9714	1589.2	693.55
926.2678	1939.5868	1586.1	689.65
926.4064	1941.2015	1582.05	686.5
926.5449	1942.8154	1584	686.8
926.6834	1944.4286	1579.7	686.25
926.8219	1946.041	1603.15	685.55
926.9604	1947.6528	1575.45	676.4
927.0988	1949.2637	1562.15	668.95
927.2372	1950.8739	1563.2	668.1
927.3756	1952.4834	1570.35	676
927.514	1954.0921	1565.1	668.7
927.6523	1955.7001	1571.25	671.65
927.7907	1957.3074	1552.25	658.35
927.929	1958.9139	1554.45	662.15
928.0673	1960.5197	1557.05	661.75
928.2055	1962.1247	1556.05	662.6
928.3438	1963.729	1542.25	649.15
928.482	1965.3325	1562.9	643.15
928.6202	1966.9353	1551.15	657.2
928.7584	1968.5374	1544	648.3
928.8965	1970.1387	1532.65	636.05
929.0346	1971.7393	1539.65	644.6
929.1727	1973.3392	1536.85	641.15
929.3108	1974.9383	1534.2	640.1
929.4489	1976.5366	1536.2	643.4
929.5869	1978.1342	1526.2	630.65
929.7249	1979.7311	1535.2	638.55
929.8629	1981.3273	1528.4	632.7
930.0009	1982.9227	1530.45	634.05
930.1388	1984.5173	1524.4	630.1
930.2767	1986.1112	1519.45	623.45
930.4146	1987.7044	1521.85	628.7
930.5525	1989.2968	1522.45	628.1
930.6904	1990.8885	1528	630.5
930.8282	1992.4795	1518.8	623.05
930.966	1994.0697	1508.45	612.9
931.1038	1995.6592	1521.1	626.95
931.2415	1997.2479	1506.4	611.8
931.3793	1998.8359	1508.55	614
931.517	2000.4232	1503.45	609.3
931.6547	2002.0097	1510.55	615.6
931.7923	2003.5955	1497.25	603.2
931.93	2005.1805	1502.9	603.5
932.0676	2006.7648	1501.65	605.2
932.2052	2008.3484	1499.35	603.2
932.3427	2009.9312	1504.5	607.8
932.4803	2011.5133	1493.45	599.3
932.6178	2013.0946	1492	595.55
932.7553	2014.6752	1493.75	599.35
932.8928	2016.2551	1495.3	599.7
933.0302	2017.8342	1491.5	597.05
933.1676	2019.4126	1489.9	594.95
933.305	2020.9902	1481.3	585.35
933.4424	2022.5672	1486.75	591.15
933.5798	2024.1433	1490	588.75
933.7171	2025.7188	1483.3	589.55
933.8544	2027.2935	1481.15	584.75
933.9917	2028.8674	1481.05	586.05
934.129	2030.4406	1475.85	582.45
934.2662	2032.0131	1473.5	577.75
934.4034	2033.5849	1477.3	576.15
934.5406	2035.1559	1474.95	579.3
934.6778	2036.7261	1473.55	578.5
934.8149	2038.2957	1474.5	580.25
934.952	2039.8645	1464.25	570.05
935.0891	2041.4325	1472.6	574.8
935.2262	2042.9998	1465.4	570.55
935.3632	2044.5664	1469.8	573.8
935.5002	2046.1323	1463.55	568.2
935.6372	2047.6974	1456.95	562.75
935.7742	2049.2617	1459.3	564.8
935.9111	2050.8254	1495.9	565.75
936.048	2052.3883	1459.2	563.95
936.1849	2053.9504	1459.95	563.75
936.3218	2055.5118	1459.85	563.9
936.4586	2057.0725	1457.6	557.6
936.5955	2058.6325	1459.45	562.1
936.7323	2060.1917	1453.45	559.1
936.869	2061.7502	1454.75	555.4
937.0058	2063.3079	1447.45	553.05
937.1425	2064.8649	1447.25	548.6
937.2792	2066.4212	1445.2	548.95
937.4159	2067.9767	1443.95	550.1
937.5525	2069.5315	1437	541.8
937.6891	2071.0856	1442.85	547.25
937.8257	2072.6389	1441.4	544.7
937.9623	2074.1915	1438.85	545
938.0989	2075.7433	1433.8	537.05
938.2354	2077.2945	1428.65	534.3
938.3719	2078.8448	1426.1	531.55
938.5084	2080.3945	1431.3	537.95
938.6448	2081.9434	1430.2	535.4
938.7812	2083.4916	1425.65	530.4
938.9176	2085.039	1420.25	524.25
939.054	2086.5857	1426	531
939.1903	2088.1317	1425.75	530.3
939.3267	2089.677	1422.9	527.9
939.463	2091.2215	1412.85	518.25
939.5992	2092.7652	1428.35	533.7
939.7355	2094.3083	1414.95	520.65
939.8717	2095.8506	1416.3	522.9
940.0079	2097.3921	1418.3	526.05
940.1441	2098.933	1415.8	522.35
940.2802	2100.4731	1422.2	528.7
940.4163	2102.0124	1421.2	519.45
940.5524	2103.5511	1419.5	524.15
940.6885	2105.089	1412.4	516.85
940.8245	2106.6261	1411.65	516.85
940.9606	2108.1626	1415.7	519.15
941.0965	2109.6983	1441.05	518.5
941.2325	2111.2332	1417	520.3
941.3684	2112.7675	1414.9	520.3
941.5044	2114.301	1407.85	510.9
941.6403	2115.8337	1409.05	514.45
941.7761	2117.3657	1407.15	514
941.912	2118.897	1405.45	509.5
942.0478	2120.4276	1411.85	510.95
942.1835	2121.9575	1400.75	505.95
942.3193	2123.4866	1414.45	504.2
942.455	2125.0149	1399.4	502.65
942.5907	2126.5426	1397.35	501.45
942.7264	2128.0695	1399	499.55
942.8621	2129.5956	1395.1	501.05
942.9977	2131.1211	1396.6	497.75
943.1333	2132.6458	1397.95	504.45
943.2689	2134.1698	1389.1	496.45
943.4044	2135.693	1386.85	488.1
943.54	2137.2155	1393.2	496.9
943.6755	2138.7373	1381.7	485.7
943.8109	2140.2584	1385.2	491.4
943.9464	2141.7787	1392.45	493.3
944.0818	2143.2983	1382.25	486
944.2172	2144.8171	1382.8	489.45
944.3526	2146.3353	1386.2	488.45
944.4879	2147.8527	1373.15	479.85
944.6232	2149.3693	1382.5	486.7
944.7585	2150.8853	1379.45	484.8
944.8938	2152.4005	1375.05	480.35
945.029	2153.9149	1372	477.65
945.1642	2155.4287	1377.45	482.55
945.2994	2156.9417	1374.6	478.8
945.4346	2158.454	1376.55	478.5
945.5697	2159.9655	1374.5	479.2
945.7048	2161.4764	1372.05	476.25
945.8399	2162.9865	1373.2	477.45
945.9749	2164.4958	1366.75	470
946.1099	2166.0045	1371.2	472.55
946.2449	2167.5124	1364.2	470.85
946.3799	2169.0195	1362.65	467.75
946.5148	2170.526	1361.7	467
946.6498	2172.0317	1365.6	470.25
946.7846	2173.5367	1363.45	465.7
946.9195	2175.0409	1359.3	463.6
947.0543	2176.5445	1362.4	468.75
947.1891	2178.0473	1357.15	462.55
947.3239	2179.5494	1362.65	465.15
947.4587	2181.0507	1360.9	465.15
947.5934	2182.5513	1360.65	466.7
947.7281	2184.0512	1358.7	462.25
947.8628	2185.5504	1352.1	456.8
947.9974	2187.0488	1346.7	450.75
948.132	2188.5465	1359.3	464.3
948.2666	2190.0435	1350.3	453.65
948.4012	2191.5397	1348.15	452.85
948.5357	2193.0353	1345.1	453.4
948.6702	2194.5301	1351.3	455.3
948.8047	2196.0241	1347.9	453.2
948.9392	2197.5175	1343.95	449.65
949.0736	2199.0101	1345.75	449.3
949.208	2200.502	1345.25	451.9
949.3424	2201.9931	1344.05	450
949.4767	2203.4835	1338.4	440.6
949.611	2204.9733	1350.3	449.05
949.7453	2206.4622	1338.65	444.2
949.8796	2207.9505	1339	441.8
950.0138	2209.438	1337.7	443.15
950.148	2210.9248	1334.35	438.95
950.2822	2212.4109	1329.4	432.85
950.4164	2213.8962	1326.5	427.85
950.5505	2215.3809	1329.5	432.6
950.6846	2216.8648	1326.65	431.45
950.8186	2218.3479	1329.2	430.35
950.9527	2219.8304	1322.8	427.05
951.0867	2221.3121	1326.55	430.75
951.2207	2222.7931	1321.1	427.05
951.3546	2224.2733	1327.35	433.65
951.4886	2225.7529	1310.65	416.35
951.6225	2227.2317	1313.6	415.95
951.7563	2228.7098	1316.4	423.1
951.8902	2230.1872	1310.65	416.65
952.024	2231.6638	1312.35	418.8
952.1578	2233.1397	1319.75	418.85
952.2916	2234.6149	1312.6	417.5
952.4253	2236.0894	1307.2	411.9
952.559	2237.5632	1322.3	417.95
952.6927	2239.0362	1309.9	413.15
952.8263	2240.5085	1302.95	407.55
952.9599	2241.9801	1302.95	407.7
953.0935	2243.4509	1304.15	409.6
953.2271	2244.921	1304.9	411.35
953.3606	2246.3904	1300.85	404.3
953.4941	2247.8591	1296.1	400.75
953.6276	2249.3271	1302	408.4
953.7611	2250.7943	1295.6	401
953.8945	2252.2608	1297.25	403.75
954.0279	2253.7266	1299.6	404.9
954.1612	2255.1917	1287.55	391.45
954.2946	2256.656	1287.9	391.35
954.4279	2258.1197	1286.2	391.65
954.5612	2259.5826	1292.45	395.2
954.6944	2261.0447	1293.5	395.45
954.8276	2262.5062	1285.05	388.35
954.9608	2263.9669	1294.25	396.6
955.094	2265.4269	1287.5	393.85
955.2271	2266.8862	1283.5	388.1
955.3602	2268.3448	1291.25	397.2
955.4933	2269.8026	1285.4	390.55
955.6264	2271.2598	1277.75	381.65
955.7594	2272.7162	1286.7	392.5
955.8924	2274.1719	1277.8	382.45
956.0253	2275.6268	1281.65	385.65
956.1583	2277.0811	1280.3	384.6
956.2912	2278.5346	1279.5	383.85
956.4241	2279.9874	1273.45	379.6
956.5569	2281.4395	1277.4	383.5
956.6897	2282.8908	1275.2	375.3
956.8225	2284.3414	1277.95	379.9
956.9553	2285.7914	1272.6	377.4
957.088	2287.2406	1272.25	375.6
957.2207	2288.689	1274.8	379
957.3534	2290.1368	1274.2	378.55
957.486	2291.5838	1274	379.35
957.6186	2293.0302	1274.7	376.35
957.7512	2294.4758	1272	377.05
957.8838	2295.9206	1267.55	369.7
958.0163	2297.3648	1269.95	374.5
958.1488	2298.8082	1267.1	371.2
958.2813	2300.251	1269.45	375.65
958.4137	2301.693	1267.25	370.6
958.5461	2303.1343	1267.95	373.55
958.6785	2304.5748	1262.05	367.6
958.8108	2306.0147	1264.55	369.35
958.9432	2307.4538	1266	368.7
959.0754	2308.8922	1259.6	364.85
959.2077	2310.3299	1258.75	364.3
959.3399	2311.7669	1256.1	359.15
959.4721	2313.2031	1258.35	364.7
959.6043	2314.6387	1256.2	359.8
959.7365	2316.0735	1259.75	364.05
959.8686	2317.5076	1256.25	361.25
960.0006	2318.941	1252.8	358.65
960.1327	2320.3737	1248.75	354
960.2647	2321.8056	1250.95	353
960.3967	2323.2369	1250.15	352.55
960.5287	2324.6674	1254.05	356.6
960.6606	2326.0972	1254.65	355.9
960.7925	2327.5263	1254.45	361.6
960.9244	2328.9547	1249.25	354.55
961.0562	2330.3823	1248.3	353.05
961.1881	2331.8092	1256.8	360.5
961.3198	2333.2355	1247.9	353.85
961.4516	2334.661	1248	352.05
961.5833	2336.0858	1247	351.15
961.715	2337.5098	1236.1	341.65
961.8467	2338.9332	1241.8	345.3
961.9783	2340.3558	1244.55	344.65
962.1099	2341.7778	1238.55	342.25
962.2415	2343.199	1243.05	345.1
962.373	2344.6195	1235.35	340.15
962.5045	2346.0393	1234.95	341.2
962.636	2347.4583	1238.65	341.7
962.7675	2348.8767	1232.9	336.25
962.8989	2350.2943	1235.85	339.05
963.0303	2351.7113	1244.85	347.65
963.1617	2353.1275	1235	338.9
963.293	2354.543	1256.7	338.05
963.4243	2355.9578	1230.85	336.15
963.5556	2357.3718	1231.85	338.15
963.6868	2358.7852	1236	336.5
963.818	2360.1978	1232.2	335.05
963.9492	2361.6098	1230.6	335.95
964.0803	2363.021	1235.2	337.15
964.2114	2364.4315	1226.3	331.75
964.3425	2365.8413	1231.35	334.45
964.4736	2367.2504	1227.9	334.9
964.6046	2368.6587	1226.65	330.65
964.7356	2370.0664	1222.5	327.75
964.8666	2371.4733	1223.6	327.9
964.9975	2372.8795	1226.75	331.6
965.1284	2374.285	1230.1	335.05
965.2593	2375.6899	1224.15	330.05
965.3901	2377.0939	1222.45	327.75
965.5209	2378.4973	1224.6	330.35
965.6517	2379.9	1223.2	326.05
965.7825	2381.3019	1223.4	328.6
965.9132	2382.7032	1216.95	322.85
966.0439	2384.1037	1214.75	320.35
966.1745	2385.5035	1220.6	326.8
966.3051	2386.9027	1218.4	322.6
966.4357	2388.3011	1217.8	319.55
966.5663	2389.6987	1210.8	314.85
966.6968	2391.0957	1205.95	310.95
966.8273	2392.492	1208.85	314.95
966.9578	2393.8876	1209.65	315.65
967.0882	2395.2824	1206.3	312.1
967.2186	2396.6765	1204.4	311.35
967.349	2398.07	1200.55	307.1
967.4793	2399.4627	1211.55	315.9
967.6097	2400.8547	1201.9	305.05
967.7399	2402.246	1210.35	309.2
967.8702	2403.6366	1200	303.9
968.0004	2405.0265	1198.6	304.2
968.1306	2406.4156	1206.9	307.55
968.2607	2407.8041	1200.6	301.25
968.3909	2409.1918	1203.9	306.5
968.521	2410.5789	1198.9	301.7
968.651	2411.9652	1199.8	302.7
968.781	2413.3508	1199.2	302.15
968.911	2414.7358	1192.9	297.45
969.041	2416.12	1193.2	297.25
969.1709	2417.5035	1190.2	296.6
969.3008	2418.8863	1191.6	294.1
969.4307	2420.2684	1193.4	298.45
969.5606	2421.6497	1193.55	296.9
969.6904	2423.0304	1190.5	294.4
969.8201	2424.4104	1189	293.55
969.9499	2425.7896	1198.1	296.15
970.0796	2427.1682	1187.35	293
970.2093	2428.546	1189.25	292.25
970.3389	2429.9232	1187.45	289.65
970.4685	2431.2996	1186.85	291.65
970.5981	2432.6753	1186.6	290.45
970.7277	2434.0503	1183.05	288.6
970.8572	2435.4246	1182.3	287.35
970.9867	2436.7982	1184.65	287.55
971.1161	2438.1711	1180.2	287.7
971.2456	2439.5433	1182.3	284.9
971.375	2440.9148	1183.25	281.35
971.5043	2442.2856	1180.9	285.85
971.6336	2443.6557	1177.4	281.25
971.7629	2445.025	1177.3	282.9
971.8922	2446.3937	1184	288.15
972.0214	2447.7617	1175.45	280.4
972.1506	2449.1289	1174.6	278.75
972.2798	2450.4955	1182.1	281.5
972.4089	2451.8613	1175.95	279.8
972.538	2453.2265	1170.35	274.05
972.6671	2454.5909	1175.85	278.25
972.7961	2455.9546	1173.85	279.6
972.9251	2457.3177	1171.3	276.3
973.0541	2458.68	1171.6	275.6
973.1831	2460.0416	1171.8	275.8
973.312	2461.4025	1170.25	273.6
973.4408	2462.7627	1180.1	273.25
973.5697	2464.1222	1170.05	275.8
973.6985	2465.4811	1170.85	275.25
973.8273	2466.8392	1168.65	272.25
973.956	2468.1966	1171.85	273.15
974.0847	2469.5533	1174	277.95
974.2134	2470.9093	1168.55	271.8
974.3421	2472.2645	1174.4	277.55
974.4707	2473.6191	1166.85	271.65
974.5993	2474.973	1169.25	274.9
974.7278	2476.3262	1168.25	270.65
974.8563	2477.6787	1165.25	270.95
974.9848	2479.0305	1158.8	263.05
975.1132	2480.3816	1166.65	271.05
975.2417	2481.7319	1165.75	271.25
975.37	2483.0816	1167.4	269.2
975.4984	2484.4306	1164.55	268.75
975.6267	2485.7789	1167.35	271.85
975.755	2487.1264	1168.3	273.25
975.8833	2488.4733	1158	264.7
976.0115	2489.8195	1177.7	266.15
976.1397	2491.165	1164.95	265.75
976.2678	2492.5097	1162.8	265.05
976.3959	2493.8538	1157.3	263.85
976.524	2495.1972	1159.4	264.1
976.6521	2496.5398	1160.75	264.75
976.7801	2497.8818	1160.9	262.5
976.9081	2499.2231	1156.95	260.7
977.036	2500.5637	1160.3	263.85
977.164	2501.9035	1161.6	264.5
977.2918	2503.2427	1157.95	259.15
977.4197	2504.5812	1154.5	257.65
977.5475	2505.919	1158.7	261.7
977.6753	2507.256	1160.85	267.25
977.8031	2508.5924	1151.1	256.7
977.9308	2509.9281	1158.95	257
978.0585	2511.2631	1153.75	258.9
978.1861	2512.5974	1150.7	255.05
978.3137	2513.9309	1147.1	252.35
978.4413	2515.2638	1182.7	258.15
978.5689	2516.596	1150.5	257
978.6964	2517.9275	1148.75	252.5
978.8239	2519.2583	1150.65	254.15
978.9513	2520.5884	1143.25	245.05
979.0788	2521.9178	1144.05	247.4
979.2062	2523.2465	1144.15	250.45
979.3335	2524.5745	1143.5	249.3
979.4608	2525.9018	1144.15	247.95
979.5881	2527.2284	1146.5	252.95
979.7154	2528.5543	1145.15	251.8
979.8426	2529.8796	1148.25	251.85
979.9698	2531.2041	1145	249
980.0969	2532.5279	1141.9	246.25
980.224	2533.851	1144.2	249.5
980.3511	2535.1735	1139.45	243.15
980.4781	2536.4952	1143.35	248.55
980.6052	2537.8163	1141.2	245.25
980.7321	2539.1366	1135.15	241.4
980.8591	2540.4562	1141.05	246.6
980.986	2541.7752	1137.95	243.8
981.1129	2543.0935	1139.35	242.7
981.2397	2544.411	1137.75	240.8
981.3665	2545.7279	1140.35	244
981.4933	2547.0441	1140.4	243.1
981.62	2548.3596	1137.15	240
981.7467	2549.6744	1135.1	239.4
981.8734	2550.9885	1137.1	241.85
982.0001	2552.3019	1131.45	235.35
982.1267	2553.6146	1131.05	236.55
982.2532	2554.9266	1132.05	237.7
982.3798	2556.2379	1127.15	230.6
982.5063	2557.5485	1128.5	233.65
982.6327	2558.8585	1136.9	233.5
982.7592	2560.1677	1134.35	233.45
982.8856	2561.4762	1124.9	228.75
983.0119	2562.7841	1132.15	233.2
983.1383	2564.0913	1127.7	234.55
983.2646	2565.3977	1131.8	238.4
983.3908	2566.7035	1128.05	231.95
983.517	2568.0086	1133.95	237.8
983.6432	2569.313	1131.95	235.25
983.7694	2570.6167	1129.65	232.95
983.8955	2571.9197	1123.85	229.35
984.0216	2573.222	1131.1	233.2
984.1476	2574.5236	1129.8	235.9
984.2737	2575.8246	1128.05	229.5
984.3996	2577.1248	1129	232.15
984.5256	2578.4244	1123.25	228.85
984.6515	2579.7232	1131.2	236.05
984.7774	2581.0214	1155.3	227.75
984.9032	2582.3189	1127.05	232.5
985.029	2583.6157	1134.6	232.9
985.1548	2584.9118	1130.05	233.8
985.2806	2586.2072	1122.65	228.25
985.4063	2587.5019	1127.7	234.3
985.5319	2588.7959	1125.45	229.05
985.6576	2590.0893	1125.9	228.45
985.7832	2591.3819	1128.35	233
985.9087	2592.6739	1121.85	227.65
986.0343	2593.9652	1130.6	233.4
986.1597	2595.2557	1126	231.25
986.2852	2596.5456	1129.5	231.85
986.4106	2597.8348	1130.5	236.7
986.536	2599.1234	1129.6	235
986.6614	2600.4112	1130.55	235.6
986.7867	2601.6983	1132.75	235.4
986.912	2602.9848	1132.45	236.45
987.0372	2604.2705	1139.75	238.75
987.1624	2605.5556	1135.25	239.1
987.2876	2606.84	1129.65	231.8
987.4128	2608.1237	1128.4	232.35
987.5379	2609.4067	1126.3	229.6
987.6629	2610.689	1136.75	234.35
987.788	2611.9707	1130.05	231
987.913	2613.2516	1128.1	226.2
988.0379	2614.5319	1125.2	230.85
988.1629	2615.8115	1122.65	226.5
988.2878	2617.0903	1123.1	227.75
988.4126	2618.3685	1121	226.45
988.5375	2619.6461	1121	227
988.6622	2620.9229	1114.85	219.05
988.787	2622.199	1117.05	219.8
988.9117	2623.4745	1118.15	223.4
989.0364	2624.7493	1117.1	222.55
989.161	2626.0234	1115.55	220.5
989.2857	2627.2968	1118.1	223.25
989.4102	2628.5695	1115.45	219
989.5348	2629.8415	1116.85	222.55
989.6593	2631.1128	1114.9	219.1
989.7837	2632.3835	1111.65	217.05
989.9082	2633.6535	1117.45	221.75
990.0326	2634.9228	1113.2	219.1
990.1569	2636.1914	1110.7	214.55
990.2812	2637.4593	1122.45	220.75
990.4055	2638.7265	1115.95	218.8
990.5298	2639.9931	1109.4	213.9
990.654	2641.259	1114.85	218.95
990.7782	2642.5242	1114.15	217.45
990.9023	2643.7887	1112.1	215.35
991.0264	2645.0525	1109.9	216
991.1505	2646.3156	1109.6	214.2
991.2745	2647.5781	1108.65	214.4
991.3985	2648.8398	1106.85	212.55
991.5225	2650.1009	1140.75	205.35
991.6464	2651.3613	1103.4	208.25
991.7703	2652.6211	1102	206.2
991.8942	2653.8801	1105	210.45
992.018	2655.1385	1103.45	205.9
992.1418	2656.3961	1102.4	207
992.2655	2657.6531	1101.05	205
992.3892	2658.9094	1099.15	203.35
992.5129	2660.1651	1096.7	201.7
992.6366	2661.42	1097.95	202.45
992.7602	2662.6743	1100.9	203.7
992.8837	2663.9279	1100.8	206.25
993.0073	2665.1808	1101.15	204.6
993.1307	2666.433	1107.1	210.75
993.2542	2667.6846	1103.15	207.15
993.3776	2668.9354	1106.1	209.9
993.501	2670.1856	1105.6	210.8
993.6244	2671.4351	1105.25	209.9
993.7477	2672.6839	1106.8	210.3
993.8709	2673.9321	1106.25	212.15
993.9942	2675.1795	1110.45	214.25
994.1174	2676.4263	1109.1	215
994.2405	2677.6724	1110.95	215.55
994.3637	2678.9179	1114.35	218.9
994.4868	2680.1626	1109.55	215.95
994.6098	2681.4067	1108.45	212.6
994.7328	2682.6501	1107.45	211.8
994.8558	2683.8928	1107.65	211.95
994.9788	2685.1348	1104.4	208.4
995.1017	2686.3761	1098.7	204.25
995.2245	2687.6168	1100.55	205.65
995.3474	2688.8568	1094.35	200.1
995.4702	2690.0961	1091.35	195
995.5929	2691.3348	1095.45	200.6
995.7156	2692.5727	1095.2	200.3
995.8383	2693.81	1090.55	194.55
995.961	2695.0466	1089.6	195.55
996.0836	2696.2826	1090.8	192.2
996.2062	2697.5178	1094.85	195.85
996.3287	2698.7524	1091	195.85
996.4512	2699.9863	1096.1	196.95
996.5737	2701.2195	1090.65	198.1
996.6961	2702.452	1094.65	197.75
996.8185	2703.6839	1095.2	201.3
996.9408	2704.9151	1092.35	194.65
997.0631	2706.1456	1100.3	204.4
997.1854	2707.3755	1100.45	206.15
997.3077	2708.6046	1101.6	204.1
997.4299	2709.8331	1104.55	207.8
997.552	2711.0609	1103.7	207.75
997.6742	2712.2881	1107.75	212.35
997.7963	2713.5145	1109.8	213.1
997.9183	2714.7403	1107.75	212.65
998.0403	2715.9654	1117.3	219.5
998.1623	2717.1899	1132.65	223.65
998.2842	2718.4136	1116.4	221.05
998.4062	2719.6367	1127.75	233.35
998.528	2720.8591	1140.25	237.65
998.6498	2722.0809	1134.7	237.45
998.7716	2723.3019	1138.3	240.55
998.8934	2724.5223	1140.65	244.65
999.0151	2725.7421	1141.85	244.9
999.1368	2726.9611	1137.5	240.95
999.2584	2728.1795	1139	239.85
999.38	2729.3972	1129.2	234.75
999.5016	2730.6142	1131.75	225.35
999.6231	2731.8306	1116.55	221.1
999.7446	2733.0462	1107.35	208.2
999.8661	2734.2612	1112.5	212.1
999.9875	2735.4756	1100.15	204.05
1000.1089	2736.6892	1104.8	207.55
1000.2302	2737.9022	1098	204.65
1000.3515	2739.1145	1100.6	205.85
1000.4728	2740.3262	1105.05	202.05
1000.594	2741.5372	1093.25	198.1
1000.7152	2742.7475	1086.45	188.2
1000.8363	2743.9571	1086.5	188.55
1000.9575	2745.1661	1084.2	182.95
1001.0785	2746.3744	1082.15	183.65
1001.1996	2747.582	1077	181.4
1001.3206	2748.7889	1079.9	182.55
1001.4415	2749.9952	1070.6	175.25
1001.5625	2751.2008	1071.15	177.05
1001.6833	2752.4057	1068.75	172.05
1001.8042	2753.61	1067	171.05
1001.925	2754.8136	1066.25	168.45
1002.0458	2756.0165	1067.75	171.65
1002.1665	2757.2188	1062.7	167.9
1002.2872	2758.4204	1064.4	169.2
1002.4078	2759.6213	1070.7	174.05
1002.5285	2760.8215	1072.65	170.85
1002.649	2762.0211	1068.9	171.9
1002.7696	2763.22	1067.1	170.85
1002.8901	2764.4182	1066.35	169.15
1003.0106	2765.6158	1062.95	167.85
1003.131	2766.8127	1058.3	163.1
1003.2514	2768.009	1060.9	166.2
1003.3717	2769.2045	1060.45	165.45
1003.492	2770.3994	1061.1	163.55
1003.6123	2771.5936	1058.2	160.5
1003.7325	2772.7872	1055.7	160.5
1003.8527	2773.9801	1060.1	163.5
1003.9729	2775.1723	1073.15	160.7
1004.093	2776.3639	1053.15	157.4
1004.2131	2777.5548	1049.7	151.2
1004.3331	2778.745	1055.15	157.8
1004.4531	2779.9346	1054.05	156.4
1004.5731	2781.1235	1049.2	153.65
1004.693	2782.3117	1049.5	154.15
1004.8129	2783.4992	1053.85	159.35
1004.9328	2784.6861	1052	157.05
1005.0526	2785.8723	1057.25	159.2
1005.1723	2787.0579	1054.65	158.7
1005.2921	2788.2428	1052.95	157.95
1005.4118	2789.427	1053.2	156.2
1005.5314	2790.6106	1055.05	160.3
1005.651	2791.7935	1057.9	160.6
1005.7706	2792.9757	1056.3	164.3
1005.8902	2794.1573	1061	163.85
1006.0097	2795.3382	1055.85	160.6
1006.1291	2796.5184	1058.1	165.1
1006.2485	2797.698	1060	164.95
1006.3679	2798.8769	1060.25	166.5
1006.4873	2800.0551	1063.25	167.2
1006.6066	2801.2327	1066.7	167.6
1006.7258	2802.4096	1060.5	167.6
1006.8451	2803.5859	1066.15	169.3
1006.9642	2804.7615	1073.7	178.45
1007.0834	2805.9364	1068.55	174.65
1007.2025	2807.1106	1074.45	178.9
1007.3216	2808.2842	1077.55	181.5
1007.4406	2809.4572	1080.95	184.3
1007.5596	2810.6294	1080.15	184.3
1007.6785	2811.801	1091.45	197.45
1007.7975	2812.972	1093.95	199.75
1007.9163	2814.1423	1103.75	209.7
1008.0352	2815.3119	1110.25	212.05
1008.154	2816.4808	1123	228.95
1008.2727	2817.6491	1134.7	239.45
1008.3914	2818.8167	1148.35	253
1008.5101	2819.9837	1166.1	266.2
1008.6288	2821.15	1182.6	287.85
1008.7474	2822.3157	1208.85	315.25
1008.8659	2823.4807	1240.3	345.25
1008.9844	2824.645	1275.1	378.95
1009.1029	2825.8086	1306	410.75
1009.2214	2826.9716	1342.85	447.15
1009.3398	2828.134	1380.4	484.8
1009.4581	2829.2957	1409.3	513.35
1009.5764	2830.4567	1425	528.6
1009.6947	2831.617	1455.1	558.95
1009.813	2832.7767	1459.25	561.95
1009.9312	2833.9358	1463.25	569
1010.0493	2835.0941	1463.85	567.2
1010.1675	2836.2519	1444.2	551
1010.2855	2837.4089	1435.45	538.85
1010.4036	2838.5653	1419.8	525.8
1010.5216	2839.7211	1406.65	512.8
1010.6396	2840.8761	1384.5	488.15
1010.7575	2842.0306	1389.3	493.75
1010.8754	2843.1843	1381.25	485.15
1010.9932	2844.3374	1390.45	494.05
1011.111	2845.4899	1399.45	503.15
1011.2288	2846.6417	1406.25	510.9
1011.3465	2847.7928	1410.6	516.8
1011.4642	2848.9433	1420	524.4
1011.5818	2850.0931	1425.9	531.1
1011.6995	2851.2422	1426.3	527.9
1011.817	2852.3907	1431	534.4
1011.9345	2853.5385	1432.05	533.15
1012.052	2854.6857	1457.85	536.85
1012.1695	2855.8323	1441.45	548.95
1012.2869	2856.9781	1447.85	552.45
1012.4042	2858.1233	1454.95	559.75
1012.5216	2859.2679	1466.3	572.45
1012.6389	2860.4118	1488.1	592.8
1012.7561	2861.555	1509.45	606.9
1012.8733	2862.6976	1523.95	626.95
1012.9905	2863.8395	1530.85	635.25
1013.1076	2864.9808	1544.8	649.9
1013.2247	2866.1214	1545.75	651.15
1013.3417	2867.2614	1554.95	660.8
1013.4587	2868.4007	1562.4	665.8
1013.5757	2869.5393	1585.1	688.1
1013.6926	2870.6773	1583.3	684.05
1013.8095	2871.8146	1589.95	691.5
1013.9263	2872.9513	1608	708.75
1014.0431	2874.0874	1610.6	713.75
1014.1599	2875.2227	1620.8	726.5
1014.2766	2876.3574	1637.4	742.2
1014.3933	2877.4915	1639.1	743.6
1014.51	2878.6249	1654.25	758.5
1014.6266	2879.7577	1670.85	772.4
1014.7431	2880.8898	1676.9	769.5
1014.8596	2882.0212	1678.9	784.75
1014.9761	2883.152	1691.7	793.75
1015.0925	2884.2821	1698.75	805.35
1015.2089	2885.4116	1710.85	815.2
1015.3253	2886.5405	1727.95	831.85
1015.4416	2887.6686	1737.75	838.9
1015.5579	2888.7962	1737.5	841.45
1015.6741	2889.923	1730.7	837
1015.7903	2891.0493	1727.7	833.6
1015.9065	2892.1748	1723.65	828
1016.0226	2893.2997	1721.6	825.4
1016.1387	2894.424	1725.9	830.5
1016.2547	2895.5476	1721.45	825.7
1016.3707	2896.6706	1726.8	830.45
1016.4866	2897.7929	1734.85	840
1016.6025	2898.9145	1725.7	828.75
1016.7184	2900.0355	1718.45	821.8
1016.8342	2901.1559	1718.6	823.85
1016.95	2902.2756	1718.5	822.1
1017.0658	2903.3946	1709.8	814.7
1017.1815	2904.513	1702.25	803.25
1017.2971	2905.6308	1700.45	805.7
1017.4127	2906.7479	1698.9	803.1
1017.5283	2907.8643	1694	796.5
1017.6439	2908.9801	1697.45	801
1017.7594	2910.0953	1683.9	788.75
1017.8748	2911.2098	1685.4	787.1
1017.9902	2912.3236	1693.7	790.65
1018.1056	2913.4368	1688.65	791.85
1018.2209	2914.5494	1682.3	786.2
1018.3362	2915.6613	1681.95	780.8
1018.4515	2916.7725	1670.7	772.15
1018.5667	2917.8831	1655.45	759.65
1018.6819	2918.9931	1644.65	746.45
1018.797	2920.1024	1629.5	731.6
1018.9121	2921.211	1623.55	728.65
1019.0271	2922.319	1617.1	719.15
1019.1421	2923.4264	1599.25	704.35
1019.2571	2924.5331	1602.55	710
1019.372	2925.6391	1593.75	697.9
1019.4869	2926.7445	1587.4	693.1
1019.6017	2927.8493	1596.6	700.65
1019.7165	2928.9534	1598.3	701.2
1019.8313	2930.0569	1605.65	704.75
1019.946	2931.1597	1605.45	707.5
1020.0606	2932.2619	1616.35	721.2
1020.1753	2933.3634	1620.9	725
1020.2899	2934.4643	1635.2	733.95
1020.4044	2935.5645	1640.2	738.25
1020.5189	2936.6641	1643.4	743.4
1020.6334	2937.763	1647.9	753.85
1020.7478	2938.8613	1651.25	753.3
1020.8622	2939.959	1647.95	748.15
1020.9765	2941.056	1634.9	741.45
1021.0908	2942.1523	1606.35	710.65
1021.2051	2943.248	1577.4	681.9
1021.3193	2944.3431	1540.6	643.35
1021.4334	2945.4375	1516.25	620.5
1021.5476	2946.5313	1485.45	591.15
1021.6617	2947.6244	1448.65	554.2
1021.7757	2948.7169	1412.8	515.7
1021.8897	2949.8087	1395.05	499.85
1022.0037	2950.8999	1361.5	465.95
1022.1176	2951.9904	1338.5	443.75
1022.2315	2953.0803	1317.6	421.2
1022.3453	2954.1696	1294.2	399.5
1022.4591	2955.2582	1281.95	386.65
1022.5728	2956.3462	1273.95	377.05
1022.6865	2957.4335	1269.2	372.5
1022.8002	2958.5202	1267.05	369.3
1022.9138	2959.6062	1266	371.8
1023.0274	2960.6916	1265.2	369.75
1023.141	2961.7764	1263.95	366.3
1023.2545	2962.8605	1264.35	368.85
1023.3679	2963.9439	1264.95	369.85
1023.4813	2965.0267	1265.7	368.9
1023.5947	2966.1089	1283.05	364.2
1023.708	2967.1905	1256.1	360.8
1023.8213	2968.2714	1247.7	352.35
1023.9346	2969.3516	1242.4	347.8
1024.0478	2970.4312	1248.85	345.3
1024.1609	2971.5102	1241.45	344.9
1024.274	2972.5885	1241.8	347.4
1024.3871	2973.6662	1245	344.2
1024.5002	2974.7432	1240.65	344.6
1024.6132	2975.8196	1246.5	350.9
1024.7261	2976.8954	1242.65	349.2
1024.839	2977.9705	1243.7	348.95
1024.9519	2979.045	1243.4	348.15
1025.0647	2980.1188	1245.45	349.9
1025.1775	2981.192	1241.05	346.65
1025.2902	2982.2645	1229.75	332.8
1025.4029	2983.3364	1230.8	334.75
1025.5156	2984.4077	1218.5	322.25
1025.6282	2985.4783	1217.55	315.65
1025.7407	2986.5483	1191.8	296.35
1025.8532	2987.6177	1185.5	291.2
1025.9657	2988.6864	1182.4	286.65
1026.0782	2989.7545	1173	277
1026.1906	2990.8219	1165.1	268.2
1026.3029	2991.8887	1155.85	258
1026.4152	2992.9548	1150.7	253.25
1026.5275	2994.0204	1126.6	230.25
1026.6397	2995.0852	1116.05	222.2
1026.7519	2996.1495	1110.4	213.05
1026.864	2997.2131	1100.55	205
1026.9761	2998.276	1087.25	191.9
1027.0882	2999.3383	1075.6	179.15
1027.2002	3000.4	1072.15	176
1027.3122	3001.4611	1060	163.2
1027.4241	3002.5215	1055.6	160.65
1027.536	3003.5812	1049.35	154.95
1027.6478	3004.6404	1045.2	149.6
1027.7596	3005.6989	1038.85	140.7
1027.8714	3006.7567	1036.35	140.25
1027.9831	3007.8139	1059.9	135
1028.0947	3008.8705	1022.95	128.15
1028.2064	3009.9264	1028.5	131.65
1028.3179	3010.9818	1017.65	123.2
1028.4295	3012.0364	1017.4	122.1
1028.541	3013.0905	1014.55	117.8
1028.6524	3014.1439	1011.45	115.9
1028.7638	3015.1966	1009.7	114.65
1028.8752	3016.2487	1007.7	111.1
1028.9865	3017.3002	1012.4	115.7
1029.0978	3018.3511	1006.6	112.35
1029.209	3019.4013	1002.75	109.4
1029.3202	3020.4509	1003.15	106.15
1029.4314	3021.4998	1003.5	109.8
1029.5425	3022.5481	1004.95	108.7
1029.6535	3023.5958	999.3	103.65
1029.7645	3024.6428	998.1	102.15
1029.8755	3025.6892	1000.75	105
1029.9864	3026.735	998.1	103.15
1030.0973	3027.7802	999.55	104.1
1030.2082	3028.8247	996.15	99.55
1030.319	3029.8685	1001.85	108.45
1030.4297	3030.9118	1003.4	107.95
1030.5404	3031.9544	1001.6	107.2
1030.6511	3032.9963	998.1	102.85
1030.7617	3034.0376	999.65	104.65
1030.8723	3035.0783	1003.85	106.45
1030.9829	3036.1184	999.4	101.8
1031.0934	3037.1578	998.55	103.45
1031.2038	3038.1966	1000.2	104.15
1031.3142	3039.2348	997	102.5
1031.4246	3040.2723	1009.5	106.85
1031.5349	3041.3092	996.1	102.4
1031.6452	3042.3455	1002.45	106.25
1031.7554	3043.3811	1004.75	109.6
1031.8656	3044.4161	1000.3	104.2
1031.9758	3045.4505	995.85	100.65
1032.0859	3046.4842	1000.4	103.15
1032.1959	3047.5173	999.95	105.45
1032.3059	3048.5498	1005.1	108.7
1032.4159	3049.5816	1002.15	106.35
1032.5258	3050.6128	1004.45	109
1032.6357	3051.6434	1008.2	111.8
1032.7455	3052.6734	1003.45	107.4
1032.8553	3053.7027	1004.7	111.05
1032.9651	3054.7314	1005.4	111.15
1033.0748	3055.7594	1001.45	108.2
1033.1845	3056.7868	1005.65	108.3
1033.2941	3057.8136	1003.7	108.4
1033.4037	3058.8398	1004.75	109.55
1033.5132	3059.8653	1005.6	110.9
1033.6227	3060.8902	1008	113.1
1033.7321	3061.9145	1008	112.4
1033.8415	3062.9381	1007.9	110.95
1033.9509	3063.9612	1029.3	121.65
1034.0602	3064.9835	1011.75	116.15
1034.1694	3066.0053	1018.05	121.15
1034.2787	3067.0264	1012.3	117.7
1034.3878	3068.0469	1018.75	123.4
1034.497	3069.0668	1016.7	118.35
1034.6061	3070.086	1011.65	115.9
1034.7151	3071.1046	1011.75	114.65
1034.8241	3072.1226	1011.45	115.9
1034.9331	3073.1399	1002.15	105.75
1035.042	3074.1567	1003.1	107.55
1035.1508	3075.1727	1007.45	110.15
1035.2597	3076.1882	1000.45	104.3
1035.3684	3077.203	998.65	101.8
1035.4772	3078.2173	1001.35	105.4
1035.5859	3079.2308	996.65	98.95
1035.6945	3080.2438	994.7	98.3
1035.8031	3081.2561	985.95	89.5
1035.9117	3082.2678	983.9	89.3
1036.0202	3083.2789	982.15	85.95
1036.1286	3084.2893	979	82.95
1036.2371	3085.2991	977.9	82.65
1036.3454	3086.3083	982.1	83.2
1036.4538	3087.3169	979.7	82.4
1036.562	3088.3248	977.15	80.8
1036.6703	3089.3321	976	79.95
1036.7785	3090.3388	970	77.05
1036.8866	3091.3449	968.95	72.2
1036.9948	3092.3503	974.65	76.5
1037.1028	3093.3551	968.7	74.8
1037.2108	3094.3593	968.05	74.65
1037.3188	3095.3629	967.4	72.2
1037.4267	3096.3658	967.9	70.85
1037.5346	3097.3681	968.8	71.65
1037.6425	3098.3698	969.75	72.7
1037.7503	3099.3708	961.65	65.55
1037.858	3100.3713	962.25	67.55
1037.9657	3101.3711	961.9	66.55
1038.0734	3102.3702	1097.95	63.3
1038.181	3103.3688	962.8	65.85
1038.2886	3104.3667	959.1	66.6
1038.3961	3105.364	958.4	62
1038.5036	3106.3607	960.6	62.05
1038.611	3107.3568	959.4	63
1038.7184	3108.3522	953.05	57.45
1038.8257	3109.347	954.55	56.95
1038.933	3110.3412	960	59
1039.0403	3111.3348	953.8	58.7
1039.1475	3112.3277	954.7	59.7
1039.2547	3113.32	952.8	57.6
1039.3618	3114.3117	951.5	55.75
1039.4689	3115.3028	952.25	58.65
1039.5759	3116.2932	951.7	55.3
1039.6829	3117.2831	952.95	53.15
1039.7898	3118.2723	949.65	54.45
1039.8967	3119.2608	947.45	51.7
1040.0035	3120.2488	946.65	54
1040.1103	3121.2361	946.6	50.65
1040.2171	3122.2229	943.25	48.8
1040.3238	3123.209	945.35	49.8
1040.4305	3124.1944	942.1	47.4
1040.5371	3125.1793	945.75	47.75
1040.6437	3126.1635	942.75	46.25
1040.7502	3127.1471	942.4	47.3
1040.8567	3128.1301	939.35	43.3
1040.9631	3129.1125	940.95	45.65
1041.0695	3130.0942	940.55	45.3
1041.1759	3131.0753	951.4	48.6
1041.2822	3132.0558	943.45	45.55
1041.3884	3133.0357	940.5	44.55
1041.4946	3134.015	939.55	42.9
1041.6008	3134.9936	938	39.6
1041.7069	3135.9716	959.25	44.8
1041.813	3136.949	938.95	42.7
1041.919	3137.9258	956.45	43.75
1042.025	3138.902	943.15	42.85
1042.1309	3139.8775	934.9	40.6
1042.2368	3140.8524	935.15	39.85
1042.3427	3141.8267	940.15	42.8
1042.4485	3142.8004	935.75	39.7
1042.5542	3143.7735	943.65	42.6
1042.6599	3144.7459	935.5	37.95
1042.7656	3145.7178	936.6	39.4
1042.8712	3146.689	934.4	42.2
1042.9768	3147.6596	934.5	38.85
1043.0823	3148.6295	934.35	39.1
1043.1878	3149.5989	932.5	37.9
1043.2932	3150.5676	932.8	37.3
1043.3986	3151.5357	933.8	38.9
1043.5039	3152.5032	932.3	36.9
1043.6092	3153.4701	933.1	36.6
1043.7145	3154.4364	932.2	34.45
1043.8197	3155.402	929.8	35.35
1043.9248	3156.367	931	33.25
1044.03	3157.3315	968.25	33
1044.135	3158.2952	933.75	37.9
1044.24	3159.2584	930.55	35.55
1044.345	3160.221	933.8	38.3
1044.4499	3161.1829	931.3	35.45
1044.5548	3162.1442	929.85	35
1044.6596	3163.105	929.1	33.4
1044.7644	3164.065	930.4	34.35
1044.8692	3165.0245	929.25	31.35
1044.9739	3165.9834	926.2	31.1
1045.0785	3166.9416	927.85	31.95
1045.1831	3167.8993	927.4	31.55
1045.2877	3168.8563	931.3	34.5
1045.3922	3169.8127	928.55	34.35
1045.4966	3170.7684	928.65	33.9
1045.6011	3171.7236	927.65	32.45
1045.7054	3172.6782	926.6	31.8
1045.8098	3173.6321	928.85	32.45
1045.914	3174.5854	933	33.35
1046.0183	3175.5381	926.45	29.85
1046.1224	3176.4902	921.75	25.25
1046.2266	3177.4417	926.05	29.6
1046.3307	3178.3926	924.5	30
1046.4347	3179.3428	925.1	30.8
1046.5387	3180.2924	924.85	29.85
1046.6427	3181.2415	924.7	29.35
1046.7466	3182.1899	926.3	29.5
1046.8504	3183.1377	925.1	28.85
1046.9542	3184.0848	928.35	29.8
1047.058	3185.0314	925.1	27.65
1047.1617	3185.9773	923.1	27.65
1047.2654	3186.9227	923.65	28.05
1047.369	3187.8674	923.85	28.1
1047.4726	3188.8115	926.75	27.95
1047.5761	3189.755	923.55	29
1047.6796	3190.6979	922.6	28
1047.783	3191.6402	922.75	27.95
1047.8864	3192.5818	922.05	26.35
1047.9898	3193.5229	929.8	29.05
1048.0931	3194.4633	922.25	26.7
1048.1963	3195.4031	923.5	27.6
1048.2995	3196.3423	921.3	24.85
1048.4027	3197.2809	922.85	29.75
1048.5058	3198.2189	924.45	28.45
1048.6089	3199.1563	928.7	28
1048.7119	3200.0931	919.55	25.25
1048.8148	3201.0292	920.35	27.6
1048.9178	3201.9648	919	22.95
1049.0206	3202.8997	924.15	25.75
1049.1235	3203.834	920	23.7
1049.2262	3204.7677	920.8	25.35
1049.329	3205.7008	923.45	24.95
1049.4317	3206.6333	918.1	24.15
1049.5343	3207.5652	922.65	25.35
1049.6369	3208.4964	920.55	24.35
1049.7394	3209.4271	918.05	23.35
1049.8419	3210.3571	917.8	23.5
1049.9444	3211.2865	919.3	21.85
1050.0468	3212.2154	918.45	22.65
1050.1491	3213.1436	921	24
1050.2514	3214.0712	926.45	24.45
1050.3537	3214.9982	917.05	21.5
1050.4559	3215.9246	918.8	21.65
1050.5581	3216.8503	919.55	24.05
1050.6602	3217.7755	919.05	23.3
1050.7623	3218.7001	918.3	22.9
1050.8643	3219.624	918.2	22.2
1050.9663	3220.5473	918.9	22.85
1051.0682	3221.4701	919.45	24.6
1051.1701	3222.3922	920	21.55
1051.2719	3223.3137	917.9	22.15
1051.3737	3224.2346	916	20.25
1051.4754	3225.1549	915.2	21.25
1051.5771	3226.0746	916.85	21.95
1051.6788	3226.9937	916.9	20.1
1051.7804	3227.9121	916.05	23.7
1051.8819	3228.83	917.2	23.05
1051.9834	3229.7473	915.25	21.2
1052.0849	3230.6639	916.35	21.9
1052.1863	3231.5799	916.55	21.1
1052.2876	3232.4954	916.9	20.55
1052.3889	3233.4102	916.35	23.3
1052.4902	3234.3244	916.6	20.3
1052.5914	3235.238	913.8	17.8
1052.6926	3236.151	936.55	18
1052.7937	3237.0634	913.3	18.55
1052.8948	3237.9752	915.65	21.65
1052.9958	3238.8864	915.4	19.7
1053.0968	3239.797	914	18.75
1053.1977	3240.7069	916.5	22.05
1053.2986	3241.6163	917.65	20.3
1053.3994	3242.5251	913.95	19.45
1053.5002	3243.4332	912	15.25
1053.6009	3244.3408	914.4	18.9
1053.7016	3245.2477	912.75	17.25
1053.8022	3246.154	916.6	20.25
1053.9028	3247.0598	913.25	18.4
1054.0034	3247.9649	913.8	18.3
1054.1039	3248.8694	910.95	14.15
1054.2043	3249.7733	910.45	15.55
1054.3047	3250.6766	912.9	16.1
1054.4051	3251.5793	912.55	17.15
1054.5054	3252.4814	911.35	16.2
1054.6056	3253.3829	910.95	15.95
1054.7058	3254.2838	909.7	15.05
1054.806	3255.1841	911.2	16.95
1054.9061	3256.0838	913.8	19.35
1055.0061	3256.9829	912.35	16.55
1055.1062	3257.8814	914.65	16.55
1055.2061	3258.7792	913.1	15.95
1055.306	3259.6765	912.85	16
1055.4059	3260.5731	908.3	12.25
1055.5057	3261.4692	911.25	14.85
1055.6055	3262.3647	909.05	11.4
1055.7052	3263.2595	909.25	12.15
1055.8049	3264.1538	909.15	13.6
1055.9045	3265.0474	908.8	11.8
1056.0041	3265.9404	907.75	12.7
1056.1036	3266.8329	908.95	17.3
1056.2031	3267.7247	918.2	13.45
1056.3025	3268.616	907.55	10.8
1056.4019	3269.5066	909.25	13.75
1056.5013	3270.3966	909.15	12.6
1056.6005	3271.286	907.2	12.2
