Software Version:	3.9.2.0
Unit SN:	10000200
Spectrometer SN:	6960
Date:	3/14/2024 12:34:32 PM
Data Line Index:	25
Spectral Points:	2048
Integration time (ms):	125
Averages:	20
Delay (ms):	30000
Sequence Number:	1
Processing:	dark subtract
Laser Power (mW):	300
Laser Current (mA):	823
Laser Diode Temp (C):	25.1
Laser Case Temp (C):	26.5
System Temp (C):	26.5
Spectrometer Temp (C):	23.9
CCD Temp (C):	0.008
Secondary Temp (C):	20.008
Heatsink Temp (C):	22.847
CCDPCB Temp (C):	36.485
SecondaryPCB Temp (C):	33.884

Wavelength	RamanShift	Raw Counts	Dark Subtracted
787.061	30.1047	417.6	6.55
787.2016	32.3739	416	5.8
787.3422	34.6426	417.8	6.35
787.4828	36.9109	418.8	4.5
787.6235	39.1787	425.35	8.6
787.7642	41.4461	430	9.05
787.9049	43.7131	434.35	11
788.0456	45.9796	437.6	9.65
788.1863	48.2456	442.25	10.4
788.3271	50.5112	446.85	10.8
788.4679	52.7764	450.55	9.95
788.6087	55.0411	454.5	12.45
788.7496	57.3054	459.7	15.1
788.8904	59.5692	461.85	12.85
789.0313	61.8326	466.15	13.7
789.1722	64.0955	472.25	15.65
789.3132	66.3579	477.6	15.75
789.4541	68.6199	484.85	19.45
789.5951	70.8815	492.4	24.9
789.7361	73.1426	508.1	36.8
789.8771	75.4032	537.55	63.25
790.0181	77.6634	604.45	123.8
790.1592	79.9231	746.35	261.45
790.3003	82.1824	1060.8	571.2
790.4414	84.4412	1573.6	1079.35
790.5825	86.6995	2241.9	1742.6
790.7237	88.9574	2905.45	2397.8
790.8648	91.2148	3371.45	2862.45
791.006	93.4717	3602.3	3088.05
791.1472	95.7282	3662.75	3143.4
791.2885	97.9842	3671.15	3151
791.4297	100.2398	3649.1	3126.85
791.571	102.4949	3623.5	3097.25
791.7123	104.7495	3609.25	3075.95
791.8536	107.0036	3569.65	3037.65
791.9949	109.2573	3525.7	2993.7
792.1363	111.5105	3472.55	2940.05
792.2777	113.7632	3416.5	2881.1
792.4191	116.0154	3352.6	2807.95
792.5605	118.2672	3292.3	2752.15
792.7019	120.5185	3217.95	2676.8
792.8434	122.7693	3172.7	2630.05
792.9849	125.0197	3111.3	2567
793.1264	127.2696	3043.6	2494.75
793.2679	129.519	3005.55	2455.4
793.4094	131.7679	2977.05	2424.65
793.551	134.0163	2965.65	2408.5
793.6926	136.2642	2949.5	2388
793.8342	138.5117	2961.4	2394.9
793.9758	140.7587	2957.1	2391.35
794.1175	143.0052	2926.5	2359.45
794.2591	145.2512	2888.2	2320.5
794.4008	147.4967	2845.55	2275.45
794.5425	149.7417	2807.05	2234.85
794.6842	151.9863	2798.2	2221.95
794.826	154.2304	2782.95	2203.7
794.9677	156.4739	2764.2	2178.5
795.1095	158.717	2769.4	2186.15
795.2513	160.9596	2792.5	2203.1
795.3931	163.2017	2814.4	2222.05
795.535	165.4433	2832.8	2239.35
795.6768	167.6844	2816.7	2222.15
795.8187	169.925	2820.65	2221.25
795.9606	172.1651	2787.8	2187.4
796.1025	174.4047	2738.25	2133.05
796.2445	176.6439	2703	2096.65
796.3864	178.8825	2676.95	2065.95
796.5284	181.1206	2670.8	2055.6
796.6704	183.3582	2667.5	2050.8
796.8124	185.5954	2646.55	2025.95
796.9544	187.832	2646.5	2022.75
797.0965	190.0681	2669.95	2044.55
797.2386	192.3037	2652.95	2025
797.3806	194.5388	2656.15	2024.7
797.5228	196.7734	2662.05	2027.25
797.6649	199.0075	2674.85	2035.8
797.807	201.2411	2694.35	2053.9
797.9492	203.4742	2704.1	2062.55
798.0914	205.7068	2719.6	2076.75
798.2336	207.9389	2738.45	2096.6
798.3758	210.1704	2740.8	2097.05
798.518	212.4015	2745.4	2096.3
798.6603	214.632	2743.15	2093.1
798.8025	216.862	2743.5	2097.7
798.9448	219.0915	2726.85	2089.7
799.0871	221.3205	2735.45	2102.95
799.2294	223.549	2741.2	2114.3
799.3718	225.777	2752.2	2120.8
799.5141	228.0044	2738.45	2107.5
799.6565	230.2314	2727.55	2097.45
799.7989	232.4578	2719.15	2088.7
799.9413	234.6837	2699.55	2061.35
800.0837	236.909	2694.3	2057
800.2262	239.1339	2705.45	2044.05
800.3687	241.3582	2694.3	2047
800.5111	243.582	2699.35	2022.3
800.6536	245.8053	2695.65	2028.45
800.7961	248.0281	2698.95	2037.1
800.9387	250.2503	2713.95	2049.35
801.0812	252.472	2720.05	2048.1
801.2238	254.6932	2721.4	2044.35
801.3664	256.9139	2726.7	2048.65
801.509	259.134	2727.55	2045.1
801.6516	261.3536	2729.55	2052.35
801.7942	263.5727	2761.7	2082.55
801.9369	265.7912	2766.55	2085.5
802.0795	268.0092	2814.25	2132.95
802.2222	270.2267	2856.15	2173
802.3649	272.4436	2893.4	2210.5
802.5076	274.6601	2916.6	2222
802.6504	276.8759	2925.5	2236.8
802.7931	279.0913	2929.95	2244
802.9359	281.3061	2936.1	2248.6
803.0787	283.5204	2967.9	2276.2
803.2215	285.7341	2997.45	2300.4
803.3643	287.9473	3004.45	2305.55
803.5071	290.16	3000.4	2297.8
803.6499	292.3721	2964.75	2266.25
803.7928	294.5837	2930.75	2230.1
803.9357	296.7947	2898.95	2200.95
804.0786	299.0052	2880.25	2179.15
804.2215	301.2152	2867.1	2163.45
804.3644	303.4246	2867.5	2168
804.5074	305.6334	2843.5	2142.45
804.6503	307.8418	2840.65	2136.85
804.7933	310.0495	2827.1	2121.45
804.9363	312.2568	2793.85	2093.5
805.0793	314.4635	2750.9	2045.05
805.2223	316.6696	2719.1	2012.6
805.3653	318.8752	2706.7	1991.25
805.5084	321.0802	2661.45	1952
805.6514	323.2847	2673.35	1961.25
805.7945	325.4887	2647.4	1934.4
805.9376	327.692	2668.7	1954.95
806.0807	329.8949	2689.15	1972.95
806.2238	332.0972	2715.85	1997.85
806.367	334.2989	2758.95	2038.25
806.5101	336.5001	2765.4	2045.4
806.6533	338.7007	2743.75	2022.9
806.7965	340.9008	2711.85	1989.8
806.9397	343.1003	2666.2	1940.55
807.0829	345.2992	2618.15	1895.3
807.2261	347.4976	2587.95	1863.8
807.3693	349.6955	2564.1	1833.65
807.5126	351.8927	2545.1	1816.1
807.6559	354.0895	2525.2	1782.8
807.7991	356.2856	2522.7	1788.85
807.9424	358.4812	2502.4	1769.2
808.0857	360.6763	2504.95	1771.15
808.2291	362.8707	2494.8	1758.5
808.3724	365.0646	2498.2	1760.15
808.5158	367.258	2491.6	1751.3
808.6591	369.4508	2511.7	1767.45
808.8025	371.643	2528.6	1783.5
808.9459	373.8346	2542.4	1796.2
809.0893	376.0257	2579.6	1829.25
809.2327	378.2162	2601.2	1853.4
809.3762	380.4062	2613.5	1862.25
809.5196	382.5956	2588.05	1834.65
809.6631	384.7844	2565.5	1815.1
809.8066	386.9726	2519.6	1765.45
809.9501	389.1603	2492.45	1738.4
810.0936	391.3474	2508.4	1732.2
810.2371	393.5339	2474.95	1722
810.3806	395.7199	2465.8	1714.5
810.5241	397.9052	2474.8	1725.3
810.6677	400.09	2513.05	1763.6
810.8113	402.2743	2543.2	1795.65
810.9548	404.4579	2560.8	1813.8
811.0984	406.641	2604.2	1855.15
811.2421	408.8235	2636.3	1887.95
811.3857	411.0054	2673.65	1924.25
811.5293	413.1868	2724.55	1973.4
811.673	415.3675	2803.35	2048.75
811.8166	417.5477	2822.25	2067.6
811.9603	419.7273	2762.3	2003.95
812.104	421.9064	2671.5	1903.8
812.2477	424.0848	2595.75	1833.45
812.3914	426.2627	2548.95	1785.95
812.5351	428.4399	2505.6	1739.8
812.6788	430.6166	2466.95	1697.75
812.8226	432.7928	2427.65	1655.95
812.9663	434.9683	2396.05	1626.65
813.1101	437.1432	2385.7	1611
813.2539	439.3176	2366.6	1590.35
813.3977	441.4914	2350.4	1574.05
813.5415	443.6645	2345	1566.3
813.6853	445.8371	2347	1571.45
813.8291	448.0091	2340.15	1565
813.973	450.1806	2346.35	1568.3
814.1168	452.3514	2341	1562.05
814.2607	454.5216	2336.45	1548.55
814.4046	456.6913	2317.65	1536.25
814.5485	458.8603	2322.05	1541.2
814.6924	461.0288	2347.5	1567.45
814.8363	463.1967	2319.1	1539.4
814.9802	465.3639	2324.8	1542.05
815.1241	467.5306	2321.7	1538.65
815.2681	469.6967	2303.25	1519.65
815.412	471.8622	2307.05	1522
815.556	474.0271	2298.5	1515
815.7	476.1914	2291.9	1502.8
815.844	478.3551	2287.25	1502.35
815.988	480.5182	2297.45	1510.85
816.132	482.6807	2289.95	1499.95
816.276	484.8426	2307.45	1521
816.4201	487.0039	2333.65	1544.35
816.5641	489.1647	2371.75	1582.85
816.7082	491.3248	2401.9	1611.95
816.8522	493.4843	2411.3	1623.85
816.9963	495.6432	2412.1	1624.05
817.1404	497.8015	2388.9	1594.95
817.2845	499.9592	2357.2	1567.1
817.4286	502.1163	2309.7	1519.85
817.5727	504.2728	2279.2	1484.8
817.7168	506.4287	2260.5	1467.2
817.861	508.5839	2247.35	1452.75
818.0051	510.7386	2240.25	1445.3
818.1493	512.8927	2249.25	1446.6
818.2935	515.0461	2244.85	1446.45
818.4377	517.199	2254	1460.95
818.5818	519.3512	2287.65	1490.55
818.726	521.5029	2336.9	1533.7
818.8703	523.6539	2375.9	1576
819.0145	525.8043	2384.45	1585.2
819.1587	527.9541	2349.65	1545.65
819.303	530.1033	2295.8	1492.2
819.4472	532.2519	2259.6	1458.05
819.5915	534.3999	2240.6	1434.3
819.7357	536.5472	2230.4	1426.95
819.88	538.694	2226.65	1423.35
820.0243	540.8401	2235.7	1430.5
820.1686	542.9856	2249.55	1442.2
820.3129	545.1305	2268.7	1460.5
820.4572	547.2748	2278.6	1472.7
820.6016	549.4185	2287.65	1480.8
820.7459	551.5615	2279.2	1469.3
820.8902	553.704	2279.55	1471.05
821.0346	555.8458	2299.55	1490.35
821.1789	557.987	2315.3	1506.5
821.3233	560.1276	2332.3	1523.7
821.4677	562.2675	2393.05	1588.65
821.6121	564.4069	2432.2	1624.55
821.7565	566.5456	2463.55	1656.95
821.9009	568.6837	2453.3	1644.6
822.0453	570.8212	2399.55	1592.35
822.1897	572.958	2331.9	1523.05
822.3342	575.0942	2288.8	1479.75
822.4786	577.2299	2264	1454.45
822.6231	579.3648	2250.55	1438.25
822.7675	581.4992	2228.2	1415.5
822.912	583.6329	2220.7	1408.7
823.0565	585.766	2232.2	1419.9
823.201	587.8985	2262.4	1453.45
823.3454	590.0304	2304.9	1480.3
823.4899	592.1616	2321.2	1504.55
823.6345	594.2922	2336.05	1521.7
823.779	596.4222	2309.1	1492.55
823.9235	598.5515	2263.95	1447.05
824.068	600.6802	2215.35	1398.15
824.2126	602.8083	2183.15	1363.8
824.3571	604.9358	2165.8	1347.15
824.5017	607.0626	2167.5	1346.85
824.6462	609.1888	2173.4	1352.9
824.7908	611.3144	2182.45	1363
824.9354	613.4393	2208.85	1389.5
825.08	615.5636	2250.35	1428.95
825.2246	617.6873	2289.85	1472.35
825.3692	619.8103	2307.5	1484.75
825.5138	621.9327	2316.05	1490.9
825.6584	624.0544	2299.65	1477.5
825.803	626.1756	2253.85	1432.15
825.9477	628.2961	2206.1	1384.8
826.0923	630.4159	2186.5	1364.05
826.237	632.5351	2173.75	1350.6
826.3816	634.6537	2174.1	1348.75
826.5263	636.7716	2173.45	1348.6
826.6709	638.8889	2152.75	1325.95
826.8156	641.0056	2169	1344
826.9603	643.1216	2177.35	1351
827.105	645.237	2189.85	1361.15
827.2497	647.3518	2176.9	1349.25
827.3944	649.4659	2150.2	1322.95
827.5391	651.5793	2126.75	1298.55
827.6838	653.6922	2126.5	1300.1
827.8285	655.8043	2121.35	1293.3
827.9733	657.9159	2107.55	1277.7
828.118	660.0268	2095.65	1262.3
828.2627	662.137	2090.75	1259.7
828.4075	664.2466	2087.7	1255.6
828.5522	666.3556	2088.7	1259.3
828.697	668.4639	2080.1	1247.55
828.8418	670.5716	2074.05	1241.95
828.9865	672.6786	2074.25	1240.8
829.1313	674.785	2067.95	1233.6
829.2761	676.8907	2059.2	1226.2
829.4209	678.9958	2058.55	1226.8
829.5657	681.1002	2066.95	1233.4
829.7105	683.204	2071.15	1234.25
829.8553	685.3072	2067.7	1232.45
830.0001	687.4097	2053	1220.15
830.1449	689.5115	2057.9	1220.3
830.2898	691.6127	2059.4	1224.75
830.4346	693.7132	2053.2	1217.5
830.5794	695.8131	2072.4	1224.55
830.7243	697.9123	2056.85	1218.85
830.8691	700.0109	2050.45	1212.95
831.014	702.1089	2067.1	1230.15
831.1588	704.2061	2080.55	1242.7
831.3037	706.3028	2090	1251.95
831.4486	708.3987	2106.5	1268.75
831.5935	710.4941	2116	1278.45
831.7383	712.5887	2127.1	1287.75
831.8832	714.6827	2118.05	1275
832.0281	716.7761	2110.35	1272.15
832.173	718.8688	2101.6	1260
832.3179	720.9608	2115.55	1272.85
832.4628	723.0522	2114.35	1271.55
832.6077	725.1429	2126.2	1286.35
832.7527	727.233	2164.4	1323.35
832.8976	729.3224	2197	1355.9
833.0425	731.4112	2239.05	1397.1
833.1874	733.4993	2253.55	1409.45
833.3324	735.5867	2230.85	1387.2
833.4773	737.6735	2175.95	1330.75
833.6222	739.7596	2131.9	1286.35
833.7672	741.845	2115.2	1272.3
833.9122	743.9298	2115.4	1268.9
834.0571	746.014	2120.7	1277.45
834.2021	748.0974	2131.1	1286.25
834.347	750.1802	2130.5	1287.2
834.492	752.2624	2122.8	1277.2
834.637	754.3439	2106.85	1257.8
834.782	756.4247	2099.9	1246.85
834.9269	758.5048	2083.1	1239.35
835.0719	760.5843	2094.7	1249
835.2169	762.6631	2100.95	1256.2
835.3619	764.7413	2148.1	1303.25
835.5069	766.8188	2210.75	1362.5
835.6519	768.8956	2263.85	1413.25
835.7969	770.9718	2307.55	1459.4
835.9419	773.0473	2306.15	1458.75
836.0869	775.1221	2258.55	1409.55
836.232	777.1962	2259.05	1410.4
836.377	779.2697	2299.45	1448.35
836.522	781.3426	2376.45	1515.85
836.667	783.4147	2429.95	1579.85
836.8121	785.4862	2432.1	1584.9
836.9571	787.557	2368.6	1518.75
837.1021	789.6271	2272.55	1423.05
837.2472	791.6966	2173.5	1324.45
837.3922	793.7654	2109.1	1259.55
837.5373	795.8335	2050.65	1200.95
837.6823	797.901	2032.5	1180.05
837.8274	799.9678	2021.25	1168.45
837.9724	802.0339	2023.5	1174.5
838.1175	804.0993	2043.6	1186.95
838.2626	806.1641	2012.65	1161.8
838.4076	808.2282	1995	1143.05
838.5527	810.2916	1989.4	1135.1
838.6978	812.3544	1986.2	1135.75
838.8428	814.4164	1964	1113.7
838.9879	816.4778	1973.65	1119.85
839.133	818.5385	1972.3	1120.15
839.2781	820.5986	2000.4	1147
839.4232	822.658	2034.95	1179.65
839.5682	824.7166	2091.65	1238
839.7133	826.7747	2157.65	1306.45
839.8584	828.832	2211.7	1358.05
840.0035	830.8886	2240.05	1384.35
840.1486	832.9446	2267.7	1411.95
840.2937	834.9999	2247.9	1395.05
840.4388	837.0545	2207.3	1350.4
840.5839	839.1085	2134.3	1279.25
840.729	841.1618	2085.4	1227.25
840.8741	843.2143	2031	1178.05
841.0192	845.2662	2000.8	1147.7
841.1643	847.3175	1986.65	1132.55
841.3095	849.368	1983.3	1126.75
841.4546	851.4179	1986.85	1130.7
841.5997	853.467	1981.2	1126.4
841.7448	855.5155	1986.25	1131.2
841.8899	857.5633	1978.65	1123.75
842.0351	859.6105	1973.7	1118.3
842.1802	861.6569	1969.05	1112.35
842.3253	863.7027	1954.7	1097.7
842.4704	865.7478	1950.15	1093.05
842.6156	867.7922	1938.55	1084
842.7607	869.8359	1932.15	1072.55
842.9058	871.8789	1922.45	1064.75
843.0509	873.9212	1961.5	1069.9
843.1961	875.9629	1926	1068
843.3412	878.0039	1929.25	1068.05
843.4863	880.0441	1949.4	1090.55
843.6315	882.0837	1958.15	1096.6
843.7766	884.1226	1976.9	1115.4
843.9218	886.1609	1992.85	1135.3
844.0669	888.1984	2026.35	1168.05
844.212	890.2352	2068.05	1210.85
844.3572	892.2714	2076.05	1213.1
844.5023	894.3069	2069.9	1209.8
844.6475	896.3416	2022.8	1161.3
844.7926	898.3757	1984.8	1122.4
844.9377	900.4091	1969.7	1109.1
845.0829	902.4418	1967	1102.05
845.228	904.4739	1977.8	1116.2
845.3732	906.5052	1988.15	1127.25
845.5183	908.5358	1991.15	1131.3
845.6635	910.5658	1981.45	1120.8
845.8086	912.595	1948.3	1087.8
845.9538	914.6236	1921.8	1062.5
846.0989	916.6515	1903.2	1043.55
846.2441	918.6786	1875.15	1012.15
846.3892	920.7051	1878.65	1014.55
846.5344	922.7309	1873.2	1010.4
846.6795	924.756	1879.4	1016.2
846.8246	926.7804	1884.65	1019.85
846.9698	928.8041	1886.2	1022.45
847.1149	930.8272	1899.85	1037.35
847.2601	932.8495	1895.95	1032.7
847.4052	934.8711	1907.6	1043.85
847.5504	936.892	1911.35	1048.2
847.6955	938.9123	1920.2	1054.2
847.8407	940.9318	1943.25	1078.95
847.9858	942.9506	1954.3	1086.95
848.131	944.9688	1947.55	1083.1
848.2761	946.9862	1933.65	1067.3
848.4213	949.003	1902.9	1039.05
848.5664	951.019	1892.35	1028.2
848.7115	953.0344	1873.05	1008.2
848.8567	955.0491	1868.25	1001.35
849.0018	957.063	1845.75	982.05
849.147	959.0763	1848.95	985.2
849.2921	961.0888	1846.4	979.9
849.4373	963.1007	1843.4	976.3
849.5824	965.1119	1838.55	972.65
849.7275	967.1223	1835.8	969.3
849.8727	969.1321	1815.1	950.55
850.0178	971.1412	1822.95	958.35
850.1629	973.1495	1812.2	945.35
850.3081	975.1572	1854.6	936.3
850.4532	977.1641	1821.25	955.6
850.5983	979.1704	1809.25	940.5
850.7435	981.1759	1809.6	938.3
850.8886	983.1808	1807.7	938
851.0337	985.1849	1805.1	928.3
851.1788	987.1884	1801.25	932.2
851.324	989.1911	1800.7	930.5
851.4691	991.1932	1809.15	940.85
851.6142	993.1945	1802.55	936.05
851.7593	995.1951	1799.2	931.3
851.9045	997.1951	1806	932.7
852.0496	999.1943	1789.65	921.65
852.1947	1001.1928	1794.2	925.1
852.3398	1003.1906	1801.1	934.1
852.4849	1005.1877	1809.25	940.25
852.63	1007.1841	1827.7	957.85
852.7751	1009.1798	1845.75	977.2
852.9202	1011.1748	1842.9	974.1
853.0653	1013.1691	1816.2	946.4
853.2104	1015.1627	1787.6	919.45
853.3555	1017.1556	1760	890.4
853.5006	1019.1477	1754.9	885.55
853.6457	1021.1392	1742.35	874.1
853.7908	1023.1299	1725.1	854.9
853.9359	1025.12	1721.35	848.9
854.081	1027.1093	1717.6	849.75
854.2261	1029.0979	1743.75	875
854.3712	1031.0859	1752.95	884.4
854.5163	1033.0731	1755.6	885.4
854.6613	1035.0596	1761.05	891.4
854.8064	1037.0454	1745.65	875.5
854.9515	1039.0304	1749.9	877.9
855.0965	1041.0148	1731.65	860.85
855.2416	1042.9985	1718.05	844.2
855.3867	1044.9814	1695.15	826.75
855.5317	1046.9636	1694.25	823.1
855.6768	1048.9452	1691.4	821.1
855.8219	1050.926	1709.9	840.9
855.9669	1052.9061	1715	844.35
856.112	1054.8855	1738.65	868.55
856.257	1056.8642	1734.25	864.9
856.4021	1058.8421	1720.8	844.65
856.5471	1060.8194	1724.35	852.75
856.6921	1062.7959	1714.25	844.5
856.8372	1064.7717	1719.85	847.8
856.9822	1066.7469	1712.3	839.9
857.1272	1068.7213	1710.7	834.2
857.2723	1070.695	1713.9	842.4
857.4173	1072.6679	1731.15	858.4
857.5623	1074.6402	1744.3	871.6
857.7073	1076.6117	1761	883.3
857.8523	1078.5826	1746.35	874.75
857.9973	1080.5527	1725	851.1
858.1423	1082.5221	1688.15	815.8
858.2873	1084.4908	1665.35	790.4
858.4323	1086.4587	1654.25	780.9
858.5773	1088.426	1644.15	769.75
858.7223	1090.3925	1648.65	771.55
858.8673	1092.3584	1644.5	772.3
859.0123	1094.3235	1649	776.25
859.1573	1096.2879	1663.35	790.4
859.3022	1098.2515	1679.15	804.9
859.4472	1100.2145	1688.35	812.85
859.5922	1102.1767	1714.3	839.7
859.7371	1104.1382	1732.55	857.65
859.8821	1106.099	1781.55	906.1
860.027	1108.0591	1820.15	946.45
860.172	1110.0185	1850.2	974.85
860.3169	1111.9771	1867.6	994.4
860.4619	1113.9351	1887.45	1014.1
860.6068	1115.8923	1946.05	1071.85
860.7517	1117.8488	1977.5	1102
860.8967	1119.8045	1958.65	1082.7
861.0416	1121.7596	1882.3	1006.2
861.1865	1123.7139	1791.3	918.55
861.3314	1125.6675	1747.95	874
861.4763	1127.6204	1743.05	868.25
861.6212	1129.5726	1759.55	883.35
861.7661	1131.524	1761.4	887.4
861.911	1133.4748	1740.4	865.55
862.0559	1135.4248	1687.4	811.35
862.2008	1137.3741	1640.15	764.65
862.3457	1139.3226	1626.3	748.95
862.4905	1141.2705	1624.15	748.6
862.6354	1143.2176	1626.1	743.7
862.7803	1145.164	1647.9	771.65
862.9251	1147.1097	1639.55	763.05
863.07	1149.0546	1630.25	754.75
863.2148	1150.9989	1605.05	728.55
863.3597	1152.9424	1587.35	712.6
863.5045	1154.8852	1579.85	704.1
863.6493	1156.8272	1566.4	691.5
863.7942	1158.7686	1582.6	701.6
863.939	1160.7092	1571.5	694.7
864.0838	1162.6491	1558.95	680.8
864.2286	1164.5883	1571.5	696.4
864.3734	1166.5267	1583.35	704.35
864.5182	1168.4644	1603.85	728.55
864.663	1170.4014	1615.75	734.8
864.8078	1172.3377	1637.2	760.65
864.9526	1174.2732	1672.35	796.45
865.0974	1176.2081	1718	842.6
865.2421	1178.1421	1822.4	940.2
865.3869	1180.0755	1913.15	1037.7
865.5317	1182.0082	1977.35	1101.1
865.6764	1183.9401	1974.55	1097.3
865.8212	1185.8713	1903.05	1026.05
865.9659	1187.8017	1810.95	932.7
866.1106	1189.7315	1727.95	851.95
866.2554	1191.6605	1688.8	782.95
866.4001	1193.5888	1625.55	748.45
866.5448	1195.5163	1603.8	727
866.6895	1197.4432	1583.15	703.5
866.8342	1199.3693	1573.65	695.95
866.9789	1201.2947	1554.75	670.65
867.1236	1203.2193	1546.8	670.1
867.2683	1205.1432	1551.05	670.3
867.413	1207.0664	1534.35	656.6
867.5576	1208.9889	1549.5	669.15
867.7023	1210.9106	1540.5	663.9
867.847	1212.8316	1539.2	661.75
867.9916	1214.7519	1557.8	670.75
868.1363	1216.6715	1547.25	669.65
868.2809	1218.5903	1567.7	689.15
868.4255	1220.5084	1565.1	686
868.5701	1222.4257	1583.1	703.1
868.7148	1224.3424	1583.4	706.15
868.8594	1226.2583	1594.95	709.65
869.004	1228.1735	1610.75	731.95
869.1486	1230.0879	1632.65	751.35
869.2932	1232.0016	1663.25	785.25
869.4377	1233.9146	1684.95	806.1
869.5823	1235.8269	1685.75	807.9
869.7269	1237.7384	1691.6	813.2
869.8715	1239.6492	1682.6	805.4
870.016	1241.5592	1696.6	816.65
870.1606	1243.4686	1718.35	840.7
870.3051	1245.3772	1769.35	891.65
870.4496	1247.285	1834.15	956.2
870.5941	1249.1922	1890.55	1011.65
870.7387	1251.0986	1924.15	1046.45
870.8832	1253.0042	1980.15	1101.2
871.0277	1254.9092	2019.35	1140.8
871.1722	1256.8134	2094.8	1218.5
871.3167	1258.7169	2167.55	1287.2
871.4611	1260.6196	2230.5	1352.25
871.6056	1262.5216	2265	1383.6
871.7501	1264.4229	2261.45	1380.6
871.8945	1266.3234	2233.65	1351.85
872.039	1268.2232	2193.35	1312.35
872.1834	1270.1223	2147.4	1264.15
872.3278	1272.0207	2114.2	1234.05
872.4723	1273.9183	2097.7	1211.55
872.6167	1275.8151	2092.25	1213.85
872.7611	1277.7113	2111.85	1231.65
872.9055	1279.6067	2159.55	1279.7
873.0499	1281.5014	2267.8	1384.9
873.1943	1283.3953	2397.5	1515
873.3386	1285.2885	2550.15	1668.55
873.483	1287.181	2671.25	1789.1
873.6274	1289.0727	2726.7	1848.3
873.7717	1290.9637	2700.55	1819.8
873.9161	1292.854	2611.4	1730.4
874.0604	1294.7435	2498.95	1617.4
874.2047	1296.6323	2404.35	1524.6
874.349	1298.5204	2318.2	1434.6
874.4933	1300.4077	2245.6	1366.15
874.6376	1302.2943	2202.65	1323.55
874.7819	1304.1802	2172.6	1293
874.9262	1306.0653	2148.55	1266.25
875.0705	1307.9497	2126.2	1245.4
875.2147	1309.8333	2113.85	1233.3
875.359	1311.7162	2080.3	1200
875.5032	1313.5984	2077.3	1194.9
875.6475	1315.4798	2082.05	1189.55
875.7917	1317.3605	2092.95	1195.95
875.9359	1319.2405	2091.9	1209.15
876.0801	1321.1197	2084.55	1202.2
876.2243	1322.9982	2069.65	1182.75
876.3685	1324.876	2033.65	1154.85
876.5127	1326.753	1969	1085.7
876.6569	1328.6293	1902.2	1019.9
876.801	1330.5048	1830.2	946.65
876.9452	1332.3796	1760.95	881.6
877.0893	1334.2537	1740	832.7
877.2335	1336.127	1684.6	804
877.3776	1337.9996	1655.2	770.85
877.5217	1339.8714	1649.95	767.6
877.6658	1341.7426	1671.6	746.9
877.8099	1343.6129	1622.25	740.65
877.954	1345.4826	1602.7	721.55
878.0981	1347.3515	1589.75	707.1
878.2422	1349.2196	1580.3	697.75
878.3862	1351.087	1569.7	686.95
878.5303	1352.9537	1569.75	688.6
878.6743	1354.8197	1564.6	683.35
878.8184	1356.6849	1568.4	689.25
878.9624	1358.5493	1577.95	697.35
879.1064	1360.4131	1593.2	713.3
879.2504	1362.276	1617.4	737.55
879.3944	1364.1383	1654.75	773.8
879.5384	1365.9998	1667.4	779.15
879.6823	1367.8606	1656.35	774.5
879.8263	1369.7206	1652	770.1
879.9702	1371.5799	1653.6	770.05
880.1142	1373.4384	1651.45	768.5
880.2581	1375.2962	1634.35	750.75
880.402	1377.1533	1595.05	713.35
880.5459	1379.0096	1564	682.2
880.6898	1380.8652	1531.35	648.75
880.8337	1382.7201	1511	630.4
880.9776	1384.5742	1494.9	612.35
881.1215	1386.4275	1482.1	598.2
881.2653	1388.2802	1466.7	586.6
881.4092	1390.132	1454.95	573.5
881.553	1391.9832	1451.55	567.65
881.6968	1393.8336	1439.3	555.6
881.8406	1395.6832	1436.75	553.95
881.9844	1397.5322	1433.3	551.35
882.1282	1399.3803	1440.25	550.4
882.272	1401.2278	1417.35	533.6
882.4158	1403.0745	1410	527.05
882.5595	1404.9204	1399.8	516.85
882.7033	1406.7656	1403.25	521
882.847	1408.6101	1398.75	513.3
882.9908	1410.4538	1390.6	507.9
883.1345	1412.2968	1390.95	508.05
883.2782	1414.139	1396.15	515.8
883.4219	1415.9805	1392.75	510.55
883.5656	1417.8213	1410.05	520.3
883.7092	1419.6613	1407.95	526.3
883.8529	1421.5006	1433.6	549.6
883.9965	1423.3391	1463.05	578
884.1402	1425.1769	1503.45	619.1
884.2838	1427.0139	1552.35	667.6
884.4274	1428.8502	1615.9	732
884.571	1430.6858	1660.95	777.2
884.7146	1432.5206	1681.1	798.5
884.8582	1434.3547	1671.35	789.1
885.0018	1436.188	1661.55	778.2
885.1453	1438.0206	1647.65	762.95
885.2889	1439.8524	1644.8	760.5
885.4324	1441.6835	1632.95	749.65
885.5759	1443.5139	1642.1	753.05
885.7194	1445.3435	1633.3	748.1
885.8629	1447.1724	1651	768.85
886.0064	1449.0005	1638.9	755.15
886.1499	1450.8279	1633.25	748.65
886.2933	1452.6545	1626.6	742.35
886.4368	1454.4804	1624.8	742.4
886.5802	1456.3056	1619.6	728.75
886.7237	1458.13	1605.55	722.65
886.8671	1459.9536	1588.2	704.1
887.0105	1461.7766	1561.15	677
887.1539	1463.5987	1536.25	651.65
887.2972	1465.4202	1508.75	624.65
887.4406	1467.2409	1488.7	605.15
887.584	1469.0608	1461.8	577.35
887.7273	1470.88	1437.75	551.5
887.8706	1472.6984	1419.85	536.8
888.0139	1474.5161	1405.75	520.25
888.1572	1476.3331	1393.45	511.3
888.3005	1478.1493	1383.15	498.25
888.4438	1479.9648	1375.4	491.15
888.5871	1481.7795	1375.25	489.55
888.7303	1483.5935	1380.75	497.05
888.8736	1485.4067	1368.35	486.8
889.0168	1487.2192	1380.45	496.3
889.16	1489.031	1386.95	500.55
889.3032	1490.842	1379.45	497.85
889.4464	1492.6522	1379.45	496.05
889.5896	1494.4618	1378.85	494.05
889.7327	1496.2705	1373.4	490.7
889.8759	1498.0785	1366.1	482.55
890.019	1499.8858	1359.5	473.35
890.1622	1501.6924	1355.65	470.45
890.3053	1503.4981	1357.6	475.2
890.4484	1505.3032	1350.45	466.5
890.5914	1507.1075	1350.05	465.3
890.7345	1508.911	1350.3	466
890.8776	1510.7138	1341.1	456.6
891.0206	1512.5159	1336.65	451.15
891.1637	1514.3172	1334.1	449.7
891.3067	1516.1178	1324.45	440.9
891.4497	1517.9176	1323.6	435.45
891.5927	1519.7166	1313.5	429.5
891.7357	1521.515	1314.85	422.7
891.8786	1523.3126	1309.05	424.5
892.0216	1525.1094	1309.4	422.25
892.1645	1526.9055	1301.6	417.25
892.3074	1528.7008	1300.6	416.05
892.4503	1530.4954	1305.55	414.3
892.5932	1532.2893	1294.6	410.35
892.7361	1534.0824	1295.65	404.45
892.879	1535.8747	1287.6	402.35
893.0218	1537.6663	1286.65	400.3
893.1647	1539.4572	1288.85	403.45
893.3075	1541.2473	1284.9	400.9
893.4503	1543.0367	1286.85	404.05
893.5931	1544.8253	1288	397.95
893.7359	1546.6132	1289.5	403.2
893.8787	1548.4003	1292.65	399.9
894.0214	1550.1867	1306	413.8
894.1642	1551.9723	1294.3	402.75
894.3069	1553.7572	1309.2	424.35
894.4496	1555.5414	1308.15	420.75
894.5923	1557.3247	1327.7	442.85
894.735	1559.1074	1355.3	471.2
894.8777	1560.8893	1385.7	500.15
895.0204	1562.6705	1408.3	522.85
895.163	1564.4509	1421.15	537.75
895.3056	1566.2305	1436.4	550.75
895.4482	1568.0094	1435.95	553.3
895.5908	1569.7876	1435.05	551.25
895.7334	1571.565	1431.2	545.6
895.876	1573.3417	1429.15	545.35
896.0186	1575.1176	1436.8	551.35
896.1611	1576.8928	1443.8	558.8
896.3036	1578.6672	1450.95	564.7
896.4461	1580.4409	1471.1	587.85
896.5886	1582.2138	1501.95	614.55
896.7311	1583.986	1531.65	648.15
896.8736	1585.7575	1557.15	670.6
897.0161	1587.5282	1580.2	695.85
897.1585	1589.2981	1596.25	710.65
897.3009	1591.0673	1604.85	718.75
897.4433	1592.8358	1610.65	726.3
897.5857	1594.6035	1614.15	726.2
897.7281	1596.3704	1594.15	709.9
897.8705	1598.1366	1584	700.95
898.0128	1599.9021	1565.75	680.4
898.1551	1601.6668	1551.2	663.65
898.2975	1603.4308	1531.6	646.6
898.4398	1605.194	1526.3	635.2
898.5821	1606.9564	1539.6	652.85
898.7243	1608.7182	1569.75	679.65
898.8666	1610.4791	1620.3	734.7
899.0088	1612.2394	1689.5	805.35
899.1511	1613.9988	1756	869.65
899.2933	1615.7576	1827.65	943.1
899.4355	1617.5156	1870.15	977.9
899.5776	1619.2728	1849.85	965.45
899.7198	1621.0293	1794.2	909.05
899.862	1622.785	1718.35	828.55
900.0041	1624.54	1637.9	750.95
900.1462	1626.2942	1559.3	671.85
900.2883	1628.0477	1491.5	604.25
900.4304	1629.8005	1424.1	533.6
900.5725	1631.5525	1378.8	493.15
900.7145	1633.3037	1335.3	451.95
900.8566	1635.0542	1312.55	427.8
900.9986	1636.804	1284.25	399.05
901.1406	1638.553	1332.15	383.9
901.2826	1640.3013	1258.85	372.85
901.4245	1642.0488	1246.35	359.85
901.5665	1643.7955	1235.6	352.5
901.7085	1645.5416	1220.85	333.4
901.8504	1647.2868	1218.6	332.05
901.9923	1649.0313	1214.3	329.6
902.1342	1650.7751	1204.6	316.45
902.2761	1652.5181	1205.85	319.65
902.4179	1654.2604	1211.4	323.45
902.5598	1656.0019	1209.5	323.25
902.7016	1657.7427	1215.05	328.65
902.8434	1659.4828	1226.85	340.95
902.9852	1661.222	1239.2	353.75
903.127	1662.9606	1268.5	385.8
903.2687	1664.6984	1287.75	402.1
903.4105	1666.4354	1300.6	414.9
903.5522	1668.1717	1298.35	413.75
903.6939	1669.9072	1268.65	383.35
903.8356	1671.642	1240.45	351.25
903.9773	1673.3761	1215.85	330.75
904.119	1675.1094	1192.85	307.8
904.2606	1676.8419	1174.05	288.15
904.4022	1678.5737	1164.5	280.55
904.5439	1680.3048	1153.3	267
904.6855	1682.0351	1151.1	264.95
904.827	1683.7646	1154.4	266.5
904.9686	1685.4934	1144.35	259.95
905.1101	1687.2215	1138.2	251.5
905.2517	1688.9488	1136.9	252.8
905.3932	1690.6754	1133.4	247.35
905.5347	1692.4012	1129.95	244.3
905.6761	1694.1263	1134.3	249.55
905.8176	1695.8506	1129	244.8
905.9591	1697.5742	1126.7	241.4
906.1005	1699.297	1132	245.9
906.2419	1701.0191	1121.2	235.45
906.3833	1702.7404	1117.3	232.25
906.5246	1704.461	1119.85	233.45
906.666	1706.1808	1115.95	229.25
906.8073	1707.8999	1113.85	226.7
906.9487	1709.6182	1115.8	228.6
907.09	1711.3358	1117.7	232.6
907.2313	1713.0527	1110.25	225.8
907.3725	1714.7688	1117.4	223.6
907.5138	1716.4841	1116.35	227.9
907.655	1718.1987	1111.65	219.95
907.7962	1719.9126	1106.1	223.65
907.9374	1721.6257	1109.8	221.35
908.0786	1723.338	1104.85	216.3
908.2198	1725.0496	1106.35	219
908.3609	1726.7605	1106.15	219.7
908.502	1728.4706	1105.4	219.3
908.6431	1730.18	1105.05	215.65
908.7842	1731.8886	1103.25	218.45
908.9253	1733.5964	1126.95	221.55
909.0664	1735.3036	1104.2	215.15
909.2074	1737.0099	1105.45	220
909.3484	1738.7156	1103	216.75
909.4894	1740.4204	1103.45	214.6
909.6304	1742.1246	1102.55	213.9
909.7714	1743.8279	1099.9	213.4
909.9123	1745.5306	1103	217.25
910.0532	1747.2325	1098.35	212.55
910.1941	1748.9336	1094.9	210.4
910.335	1750.634	1098.9	211.65
910.4759	1752.3336	1094.45	208.7
910.6168	1754.0325	1097.75	212.3
910.7576	1755.7307	1097.2	211.85
910.8984	1757.4281	1097.15	210.35
911.0392	1759.1247	1104.2	208
911.18	1760.8206	1097.5	206.2
911.3208	1762.5158	1097.8	207.25
911.4615	1764.2102	1095.9	211.25
911.6022	1765.9039	1088.85	202.55
911.7429	1767.5968	1089.9	204.2
911.8836	1769.289	1089.8	202.35
912.0243	1770.9804	1092.6	206.75
912.1649	1772.6711	1090.05	201.2
912.3056	1774.361	1088.6	202.15
912.4462	1776.0502	1087.25	202.15
912.5868	1777.7386	1089.75	199.95
912.7274	1779.4263	1092.45	205.85
912.8679	1781.1132	1088.7	201.95
913.0084	1782.7994	1091.1	203.8
913.149	1784.4849	1084.15	196.8
913.2895	1786.1696	1091.65	201.5
913.4299	1787.8535	1088.65	201.2
913.5704	1789.5367	1086.85	199.9
913.7108	1791.2192	1083.4	197.1
913.8513	1792.9009	1096.7	196.25
913.9917	1794.5818	1082.55	195.2
914.132	1796.2621	1079.2	194.35
914.2724	1797.9415	1082.9	197.45
914.4128	1799.6202	1079.45	191.8
914.5531	1801.2982	1079.4	194.1
914.6934	1802.9755	1079.6	193.2
914.8337	1804.6519	1079.2	193.1
914.9739	1806.3277	1077.9	192.25
915.1142	1808.0027	1075.6	188.5
915.2544	1809.6769	1078.4	189.8
915.3946	1811.3504	1074.3	185.75
915.5348	1813.0231	1074.55	186.65
915.675	1814.6951	1070.95	183.4
915.8151	1816.3664	1076.15	186.5
915.9553	1818.0369	1076.05	188.5
916.0954	1819.7067	1073.55	188.2
916.2355	1821.3757	1078.7	189.9
916.3755	1823.044	1073.15	187.9
916.5156	1824.7115	1073.5	187.25
916.6556	1826.3783	1073.75	188.7
916.7956	1828.0443	1069.1	182.15
916.9356	1829.7096	1073.9	184.9
917.0756	1831.3741	1074.1	183.25
917.2155	1833.0379	1069.7	182.35
917.3555	1834.701	1073.55	184.7
917.4954	1836.3633	1071.25	183.75
917.6353	1838.0248	1066.95	176.95
917.7751	1839.6856	1067.95	181.75
917.915	1841.3457	1063.8	178.6
918.0548	1843.005	1069.55	183.95
918.1946	1844.6636	1069.45	183.35
918.3344	1846.3214	1069.85	181.8
918.4742	1847.9785	1065.65	179
918.6139	1849.6349	1069.45	181.15
918.7537	1851.2904	1075.15	178.2
918.8934	1852.9453	1066.55	181.15
919.0331	1854.5994	1067.3	177.45
919.1727	1856.2528	1073.35	184.35
919.3124	1857.9054	1068.55	182
919.452	1859.5572	1060.95	176.7
919.5916	1861.2083	1062.3	173.3
919.7312	1862.8587	1062.3	175.7
919.8708	1864.5084	1065.05	178.35
920.0103	1866.1572	1067.05	181.45
920.1498	1867.8054	1058	172
920.2893	1869.4528	1062.6	177.85
920.4288	1871.0994	1059.2	173.75
920.5683	1872.7453	1060.45	173.25
920.7077	1874.3905	1065.05	172.7
920.8471	1876.0349	1060.1	173.7
920.9865	1877.6786	1061.35	175.35
921.1259	1879.3215	1059.35	171.35
921.2653	1880.9637	1060.9	173.3
921.4046	1882.6051	1058.45	171.7
921.5439	1884.2458	1057.2	168.1
921.6832	1885.8858	1056.4	170.05
921.8225	1887.525	1058.85	171
921.9617	1889.1634	1054.2	168.3
922.101	1890.8011	1054.1	169.15
922.2402	1892.4381	1053.9	166.65
922.3794	1894.0743	1057.2	172.25
922.5185	1895.7098	1053.75	169.2
922.6577	1897.3446	1051.5	165.65
922.7968	1898.9786	1057.9	167.3
922.9359	1900.6118	1055.05	169.75
923.075	1902.2443	1054.85	165.25
923.214	1903.8761	1049.8	165.15
923.3531	1905.5071	1054.5	165.7
923.4921	1907.1374	1050.65	163.75
923.6311	1908.7669	1052.05	165.15
923.77	1910.3957	1050.95	162.9
923.909	1912.0237	1045.25	157.65
924.0479	1913.651	1049.65	163.05
924.1868	1915.2776	1049.2	164
924.3257	1916.9034	1047.3	161.55
924.4646	1918.5285	1045.1	157.85
924.6034	1920.1528	1045.2	158
924.7422	1921.7764	1046.05	160.15
924.881	1923.3992	1047.9	161.95
925.0198	1925.0213	1044.5	157.1
925.1586	1926.6427	1044.4	157.9
925.2973	1928.2633	1127.9	154.05
925.436	1929.8832	1041.9	153.55
925.5747	1931.5023	1049.45	162.55
925.7134	1933.1207	1043.2	157.65
925.852	1934.7383	1044.45	158.7
925.9906	1936.3552	1040.1	152.85
926.1292	1937.9714	1040.85	154.05
926.2678	1939.5868	1047.35	157.4
926.4064	1941.2015	1041.35	154.95
926.5449	1942.8154	1042.35	155.2
926.6834	1944.4286	1038.65	151.35
926.8219	1946.041	1062.35	153.35
926.9604	1947.6528	1045.85	153.65
927.0988	1949.2637	1036.6	150.6
927.2372	1950.8739	1035.15	148.8
927.3756	1952.4834	1036.85	150
927.514	1954.0921	1035.55	148.75
927.6523	1955.7001	1039.4	147.05
927.7907	1957.3074	1038.25	153.5
927.929	1958.9139	1036.1	149.6
928.0673	1960.5197	1037.45	149.25
928.2055	1962.1247	1035.75	149.25
928.3438	1963.729	1030.7	144.85
928.482	1965.3325	1059.4	147.9
928.6202	1966.9353	1031.25	144.65
928.7584	1968.5374	1033.65	146.55
928.8965	1970.1387	1030.15	144.35
929.0346	1971.7393	1033.95	148.95
929.1727	1973.3392	1033	146.2
929.3108	1974.9383	1030.35	146
929.4489	1976.5366	1029.5	140.65
929.5869	1978.1342	1032.35	146.1
929.7249	1979.7311	1031	142.05
929.8629	1981.3273	1029.05	142.35
930.0009	1982.9227	1033.6	144.2
930.1388	1984.5173	1032.55	145.7
930.2767	1986.1112	1030.45	143.7
930.4146	1987.7044	1028.1	142.3
930.5525	1989.2968	1030.95	142.15
930.6904	1990.8885	1029.85	140.4
930.8282	1992.4795	1035.05	147.35
930.966	1994.0697	1031.1	145.05
931.1038	1995.6592	1028	143.75
931.2415	1997.2479	1024.65	135.6
931.3793	1998.8359	1024.95	135.55
931.517	2000.4232	1025.8	136.85
931.6547	2002.0097	1024.4	138.8
931.7923	2003.5955	1028.9	140.35
931.93	2005.1805	1023.2	133.95
932.0676	2006.7648	1022.7	136.35
932.2052	2008.3484	1027.05	139.95
932.3427	2009.9312	1024.8	135.3
932.4803	2011.5133	1025.65	139.15
932.6178	2013.0946	1025.7	137.2
932.7553	2014.6752	1022.25	136.45
932.8928	2016.2551	1023.7	136.9
933.0302	2017.8342	1026.35	141.5
933.1676	2019.4126	1024	139.45
933.305	2020.9902	1022.3	136.25
933.4424	2022.5672	1028.45	139.8
933.5798	2024.1433	1026.6	134.4
933.7171	2025.7188	1023.65	137.15
933.8544	2027.2935	1021.75	134.15
933.9917	2028.8674	1020.2	130.85
934.129	2030.4406	1019	133.25
934.2662	2032.0131	1024	136.4
934.4034	2033.5849	1025.25	133.9
934.5406	2035.1559	1022.4	136.65
934.6778	2036.7261	1021.25	134.1
934.8149	2038.2957	1022.6	138.1
934.952	2039.8645	1019.7	132.55
935.0891	2041.4325	1024.85	134
935.2262	2042.9998	1020.75	133.4
935.3632	2044.5664	1021.45	133.2
935.5002	2046.1323	1021.1	132.3
935.6372	2047.6974	1015	128
935.7742	2049.2617	1018.35	132.9
935.9111	2050.8254	1052.9	130.95
936.048	2052.3883	1020.35	131.75
936.1849	2053.9504	1019.45	131.8
936.3218	2055.5118	1020.5	132.55
936.4586	2057.0725	1021.2	131
936.5955	2058.6325	1015.6	127.05
936.7323	2060.1917	1015.7	128.4
936.869	2061.7502	1021.15	131.5
937.0058	2063.3079	1016.8	128.55
937.1425	2064.8649	1019.55	128
937.2792	2066.4212	1017.85	131.05
937.4159	2067.9767	1013.4	127.25
937.5525	2069.5315	1015.7	127.45
937.6891	2071.0856	1015.15	128.4
937.8257	2072.6389	1019.4	131.3
937.9623	2074.1915	1014.1	129.1
938.0989	2075.7433	1014.6	125.6
938.2354	2077.2945	1014.75	128.8
938.3719	2078.8448	1013.85	126.4
938.5084	2080.3945	1013.9	127.15
938.6448	2081.9434	1020.35	135.6
938.7812	2083.4916	1015.2	127.3
938.9176	2085.039	1013.4	124.55
939.054	2086.5857	1014.7	127.9
939.1903	2088.1317	1009.9	124.55
939.3267	2089.677	1015.75	127.95
939.463	2091.2215	1009.7	124.4
939.5992	2092.7652	1015.15	126.4
939.7355	2094.3083	1010.65	123.65
939.8717	2095.8506	1010.3	126.15
940.0079	2097.3921	1013.75	128.45
940.1441	2098.933	1016.1	130.1
940.2802	2100.4731	1015	126.8
940.4163	2102.0124	1022.45	127.5
940.5524	2103.5511	1009.4	122.15
940.6885	2105.089	1014.9	127.65
940.8245	2106.6261	1012.5	125.55
940.9606	2108.1626	1011.15	125.3
941.0965	2109.6983	1038.95	123.6
941.2325	2111.2332	1010	122.25
941.3684	2112.7675	1014.05	125.3
941.5044	2114.301	1011.95	123.5
941.6403	2115.8337	1015.35	127.7
941.7761	2117.3657	1006.65	120.35
941.912	2118.897	1013.5	125.95
942.0478	2120.4276	1014.2	120.75
942.1835	2121.9575	1013.05	126.7
942.3193	2123.4866	1022.85	120.95
942.455	2125.0149	1013.25	124.4
942.5907	2126.5426	1009.2	121.85
942.7264	2128.0695	1016.1	123.95
942.8621	2129.5956	1009.15	124.6
942.9977	2131.1211	1011.55	118.9
943.1333	2132.6458	1009.95	123.55
943.2689	2134.1698	1009	121.95
943.4044	2135.693	1011.05	123.45
943.54	2137.2155	1012.75	126.2
943.6755	2138.7373	1011.2	122.45
943.8109	2140.2584	1009.35	121.5
943.9464	2141.7787	1014.55	120.05
944.0818	2143.2983	1008.2	120.85
944.2172	2144.8171	1005.8	119.35
944.3526	2146.3353	1012.75	124.15
944.4879	2147.8527	1005.4	119.3
944.6232	2149.3693	1002.2	115.35
944.7585	2150.8853	1008	120.6
944.8938	2152.4005	1010.7	124.1
945.029	2153.9149	1008.05	119.3
945.1642	2155.4287	1010.55	124.2
945.2994	2156.9417	1011.15	122.1
945.4346	2158.454	1007.55	118.35
945.5697	2159.9655	1005.85	117.9
945.7048	2161.4764	1005.15	118.15
945.8399	2162.9865	1008.9	121.2
945.9749	2164.4958	1007.3	118.95
946.1099	2166.0045	1010.15	120.35
946.2449	2167.5124	1005.55	118.05
946.3799	2169.0195	1003.3	117.65
946.5148	2170.526	1005.15	117.8
946.6498	2172.0317	1002.85	117
946.7846	2173.5367	1002.4	112.95
946.9195	2175.0409	1004.8	117.45
947.0543	2176.5445	1004.4	119.05
947.1891	2178.0473	1004.15	117.7
947.3239	2179.5494	1006.05	116.5
947.4587	2181.0507	1001.15	112.15
947.5934	2182.5513	1004.4	115.7
947.7281	2184.0512	1003.7	116.95
947.8628	2185.5504	1002.3	115
947.9974	2187.0488	1001.15	113.95
948.132	2188.5465	1005.6	118.1
948.2666	2190.0435	1002.7	114.2
948.4012	2191.5397	999.7	113.55
948.5357	2193.0353	1000.5	114.45
948.6702	2194.5301	998.4	110.8
948.8047	2196.0241	1001.2	115.85
948.9392	2197.5175	999.6	113.6
949.0736	2199.0101	1001.35	115.6
949.208	2200.502	1000.4	115.15
949.3424	2201.9931	998.9	112
949.4767	2203.4835	1001.75	112.2
949.611	2204.9733	1004	110.4
949.7453	2206.4622	1000.5	114.3
949.8796	2207.9505	1004.05	113.25
950.0138	2209.438	998.85	112.6
950.148	2210.9248	999	110.35
950.2822	2212.4109	995.45	108.85
950.4164	2213.8962	997.2	111
950.5505	2215.3809	994.85	105.95
950.6846	2216.8648	996.45	109.9
950.8186	2218.3479	1001.2	109.7
950.9527	2219.8304	998.5	109.5
951.0867	2221.3121	997.7	109.95
951.2207	2222.7931	992.85	106.75
951.3546	2224.2733	996.05	110.3
951.4886	2225.7529	997.1	110.05
951.6225	2227.2317	998	109.8
951.7563	2228.7098	994.7	107.3
951.8902	2230.1872	990.25	104.6
952.024	2231.6638	995.3	106.75
952.1578	2233.1397	996.05	104.2
952.2916	2234.6149	995.05	106.75
952.4253	2236.0894	995	107.6
952.559	2237.5632	997.7	101.4
952.6927	2239.0362	992	104.75
952.8263	2240.5085	990.35	102.9
952.9599	2241.9801	988.7	100.2
953.0935	2243.4509	990.55	103
953.2271	2244.921	991.2	104.8
953.3606	2246.3904	990.2	100.8
953.4941	2247.8591	987.85	102.65
953.6276	2249.3271	990.65	103.45
953.7611	2250.7943	990	105.05
953.8945	2252.2608	989.05	103.1
954.0279	2253.7266	985.05	99.95
954.1612	2255.1917	988.6	102.7
954.2946	2256.656	988.6	102.2
954.4279	2258.1197	987.95	101.9
954.5612	2259.5826	988.05	99.6
954.6944	2261.0447	984.65	96.45
954.8276	2262.5062	987.85	98.05
954.9608	2263.9669	986.95	95.95
955.094	2265.4269	988.9	101.85
955.2271	2266.8862	985.8	100.15
955.3602	2268.3448	983.6	96.15
955.4933	2269.8026	986.05	99.15
955.6264	2271.2598	987.9	100.7
955.7594	2272.7162	985.65	99.6
955.8924	2274.1719	985.5	99.2
956.0253	2275.6268	985.25	100.2
956.1583	2277.0811	986.1	99.1
956.2912	2278.5346	983.05	97.75
956.4241	2279.9874	981.55	94.85
956.5569	2281.4395	982.5	95.35
956.6897	2282.8908	987.5	96.85
956.8225	2284.3414	983.65	95.75
956.9553	2285.7914	983.6	97.85
957.088	2287.2406	988.1	100.15
957.2207	2288.689	984.15	96.6
957.3534	2290.1368	984.4	95.8
957.486	2291.5838	984.85	97.1
957.6186	2293.0302	985.8	97.65
957.7512	2294.4758	981.05	94.85
957.8838	2295.9206	982.15	93.55
958.0163	2297.3648	984.9	97.7
958.1488	2298.8082	983.25	94.45
958.2813	2300.251	981.45	95.55
958.4137	2301.693	982.95	93.85
958.5461	2303.1343	981.45	94.1
958.6785	2304.5748	980.4	95.55
958.8108	2306.0147	981.45	94.3
958.9432	2307.4538	984.8	95.7
959.0754	2308.8922	981.7	95.7
959.2077	2310.3299	979.25	92.9
959.3399	2311.7669	977.4	89.85
959.4721	2313.2031	981	93.35
959.6043	2314.6387	976.45	88.3
959.7365	2316.0735	980.6	93
959.8686	2317.5076	979.9	91.8
960.0006	2318.941	976.55	90.6
960.1327	2320.3737	979	91.35
960.2647	2321.8056	983.35	95.65
960.3967	2323.2369	981.55	94.1
960.5287	2324.6674	982.65	93.15
960.6606	2326.0972	985.65	96.6
960.7925	2327.5263	986.05	100
960.9244	2328.9547	985.95	97.95
961.0562	2330.3823	982.3	97.55
961.1881	2331.8092	982.65	92.45
961.3198	2333.2355	978	90
961.4516	2334.661	977.4	91.95
961.5833	2336.0858	976.85	89.65
961.715	2337.5098	976.8	90.7
961.8467	2338.9332	977.7	90.8
961.9783	2340.3558	976.6	86.8
962.1099	2341.7778	978.35	90.15
962.2415	2343.199	976.15	87.05
962.373	2344.6195	971.1	84.75
962.5045	2346.0393	973.25	85.45
962.636	2347.4583	975.55	88.6
962.7675	2348.8767	977.2	90.5
962.8989	2350.2943	977.85	89.55
963.0303	2351.7113	972.55	86
963.1617	2353.1275	970.75	84.95
963.293	2354.543	997.85	87.65
963.4243	2355.9578	973.3	87.95
963.5556	2357.3718	971.2	83.7
963.6868	2358.7852	975.15	84.55
963.818	2360.1978	974.75	85.65
963.9492	2361.6098	969.95	81.95
964.0803	2363.021	977.55	85.7
964.2114	2364.4315	975.6	88.35
964.3425	2365.8413	971.55	82.05
964.4736	2367.2504	972.55	87.15
964.6046	2368.6587	969.05	82
964.7356	2370.0664	972.4	87.1
964.8666	2371.4733	966.45	78.9
964.9975	2372.8795	969.85	83.1
965.1284	2374.285	968.35	81.65
965.2593	2375.6899	968.1	84
965.3901	2377.0939	970.65	84.85
965.5209	2378.4973	968.9	82.55
965.6517	2379.9	966.25	79.75
965.7825	2381.3019	967.05	81.3
965.9132	2382.7032	968.1	79.7
966.0439	2384.1037	965.7	79.3
966.1745	2385.5035	967.2	78.6
966.3051	2386.9027	972.4	84
966.4357	2388.3011	972.05	81
966.5663	2389.6987	969.45	81.3
966.6968	2391.0957	967.1	81.1
966.8273	2392.492	966.65	78.3
966.9578	2393.8876	965.95	78.9
967.0882	2395.2824	967.3	80.8
967.2186	2396.6765	963.8	78.95
967.349	2398.07	961.85	76.15
967.4793	2399.4627	965.05	76.75
967.6097	2400.8547	962.6	75.85
967.7399	2402.246	970.05	77.2
967.8702	2403.6366	965.15	76.05
968.0004	2405.0265	961	72.6
968.1306	2406.4156	967.55	74.95
968.2607	2407.8041	967.8	76.9
968.3909	2409.1918	964.35	74.3
968.521	2410.5789	963.3	76.85
968.651	2411.9652	964.95	77.7
968.781	2413.3508	960.75	74.45
968.911	2414.7358	961.9	72.8
969.041	2416.12	964.05	78.05
969.1709	2417.5035	963.7	78.1
969.3008	2418.8863	961.35	72.95
969.4307	2420.2684	962.05	75.75
969.5606	2421.6497	960.3	73.55
969.6904	2423.0304	959.95	72
969.8201	2424.4104	962.25	74.1
969.9499	2425.7896	967.65	73.65
970.0796	2427.1682	961.95	74.15
970.2093	2428.546	961.6	74.35
970.3389	2429.9232	962	72.9
970.4685	2431.2996	961.6	75.8
970.5981	2432.6753	956.9	70.8
970.7277	2434.0503	961.75	74.45
970.8572	2435.4246	957.25	71.75
970.9867	2436.7982	959.5	70.3
971.1161	2438.1711	960.05	75.05
971.2456	2439.5433	961.65	72.5
971.375	2440.9148	965.2	72.65
971.5043	2442.2856	955.7	67.7
971.6336	2443.6557	956.8	69.35
971.7629	2445.025	956.4	70.85
971.8922	2446.3937	957.8	70.95
972.0214	2447.7617	960.35	73.3
972.1506	2449.1289	955.6	69.1
972.2798	2450.4955	957.55	66.25
972.4089	2451.8613	957.4	71.85
972.538	2453.2265	959.05	73.5
972.6671	2454.5909	957.7	68.2
972.7961	2455.9546	955.65	68.3
972.9251	2457.3177	959.2	72.1
973.0541	2458.68	955.05	66.45
973.1831	2460.0416	956.95	68.95
973.312	2461.4025	957.3	69.1
973.4408	2462.7627	967.95	69.85
973.5697	2464.1222	954.55	68.05
973.6985	2465.4811	956.25	67.25
973.8273	2466.8392	955	66.9
973.956	2468.1966	958.85	68.05
974.0847	2469.5533	959.75	68.8
974.2134	2470.9093	954.65	65.55
974.3421	2472.2645	954.25	66.95
974.4707	2473.6191	952.85	67.8
974.5993	2474.973	954.4	67.1
974.7278	2476.3262	956.25	67.9
974.8563	2477.6787	952.1	64.45
974.9848	2479.0305	955.5	67.7
975.1132	2480.3816	953.9	65.25
975.2417	2481.7319	954.6	67.8
975.37	2483.0816	954.15	66.1
975.4984	2484.4306	954.85	67.5
975.6267	2485.7789	954.85	69.85
975.755	2487.1264	955.55	65.2
975.8833	2488.4733	953	67.9
976.0115	2489.8195	970.35	63.7
976.1397	2491.165	955.15	63.95
976.2678	2492.5097	953.35	65.2
976.3959	2493.8538	950.1	63
976.524	2495.1972	952.45	64.6
976.6521	2496.5398	950.4	63.2
976.7801	2497.8818	952.4	63.65
976.9081	2499.2231	952.6	63.8
977.036	2500.5637	951.85	61.35
977.164	2501.9035	952.65	64.1
977.2918	2503.2427	954.15	62.65
977.4197	2504.5812	949.7	63.2
977.5475	2505.919	951.6	62.4
977.6753	2507.256	948.85	61.3
977.8031	2508.5924	948.6	61.55
977.9308	2509.9281	957.95	65.25
978.0585	2511.2631	949.15	61.2
978.1861	2512.5974	950.55	64.2
978.3137	2513.9309	948.35	60.9
978.4413	2515.2638	981.05	64.3
978.5689	2516.596	946.2	59.15
978.6964	2517.9275	951.1	63.7
978.8239	2519.2583	948.35	59.85
978.9513	2520.5884	948.4	58.45
979.0788	2521.9178	948.65	59.2
979.2062	2523.2465	949.8	63.1
979.3335	2524.5745	945.15	58.75
979.4608	2525.9018	947.6	60.2
979.5881	2527.2284	944.35	57.9
979.7154	2528.5543	946.15	60.45
979.8426	2529.8796	949.3	61.1
979.9698	2531.2041	946.35	59.8
980.0969	2532.5279	947.05	62.9
980.224	2533.851	947.9	59.75
980.3511	2535.1735	947.85	60.95
980.4781	2536.4952	947.65	61
980.6052	2537.8163	944	56.3
980.7321	2539.1366	944.4	56.55
980.8591	2540.4562	948.45	60.55
980.986	2541.7752	942.15	54.7
981.1129	2543.0935	948.25	61.55
981.2397	2544.411	947.75	60.75
981.3665	2545.7279	945	59.1
981.4933	2547.0441	946.15	59.4
981.62	2548.3596	948.65	58.8
981.7467	2549.6744	944.5	57.95
981.8734	2550.9885	945.4	58.05
982.0001	2552.3019	943.4	55.2
982.1267	2553.6146	945.6	58.65
982.2532	2554.9266	942.85	54.8
982.3798	2556.2379	947.7	57.9
982.5063	2557.5485	943.65	58.7
982.6327	2558.8585	951.9	56.75
982.7592	2560.1677	947.9	57.65
982.8856	2561.4762	943.5	57.1
983.0119	2562.7841	945	56.45
983.1383	2564.0913	941.85	54.35
983.2646	2565.3977	942.2	57.75
983.3908	2566.7035	943.05	55.85
983.517	2568.0086	945.15	55.3
983.6432	2569.313	941.75	53.65
983.7694	2570.6167	944.45	53.5
983.8955	2571.9197	943.7	57.05
984.0216	2573.222	946.5	55.15
984.1476	2574.5236	940.6	53.9
984.2737	2575.8246	944.2	54.8
984.3996	2577.1248	941.7	50.8
984.5256	2578.4244	941.05	54.25
984.6515	2579.7232	942.5	56.25
984.7774	2581.0214	975.8	58
984.9032	2582.3189	941	54.15
985.029	2583.6157	947.95	58.3
985.1548	2584.9118	938.1	49.35
985.2806	2586.2072	938.7	53.7
985.4063	2587.5019	938.6	51.35
985.5319	2588.7959	941.15	52.75
985.6576	2590.0893	942.7	54
985.7832	2591.3819	940.25	54.35
985.9087	2592.6739	940.8	57.3
986.0343	2593.9652	943.3	54.9
986.1597	2595.2557	939.7	53.7
986.2852	2596.5456	944.9	55.8
986.4106	2597.8348	940.8	51.9
986.536	2599.1234	939.5	53.8
986.6614	2600.4112	942.05	53.75
986.7867	2601.6983	943.2	50.95
986.912	2602.9848	943.9	57.45
987.0372	2604.2705	946.3	52.5
987.1624	2605.5556	941.8	56.6
987.2876	2606.84	940.35	52.95
987.4128	2608.1237	939.5	53.1
987.5379	2609.4067	938.4	50.4
987.6629	2610.689	947.75	48.3
987.788	2611.9707	941.75	49.95
987.913	2613.2516	946.05	55.4
988.0379	2614.5319	936.4	48.8
988.1629	2615.8115	940.45	53.6
988.2878	2617.0903	940.3	51.5
988.4126	2618.3685	938.8	50.05
988.5375	2619.6461	937.35	49.05
988.6622	2620.9229	936.55	50.85
988.787	2622.199	937.2	48.95
988.9117	2623.4745	938.4	50.9
989.0364	2624.7493	936.75	52.25
989.161	2626.0234	935.2	49.65
989.2857	2627.2968	938.1	51.7
989.4102	2628.5695	938.25	53.1
989.5348	2629.8415	935.9	48.35
989.6593	2631.1128	938.5	50.95
989.7837	2632.3835	936.45	49.85
989.9082	2633.6535	936.75	50.1
990.0326	2634.9228	934.85	48.75
990.1569	2636.1914	936.1	47.6
990.2812	2637.4593	941.75	47.8
990.4055	2638.7265	935	48.3
990.5298	2639.9931	934.9	49
990.654	2641.259	937.55	50.6
990.7782	2642.5242	936.05	49.05
990.9023	2643.7887	934.6	47.25
991.0264	2645.0525	936.1	47.75
991.1505	2646.3156	935.6	47.2
991.2745	2647.5781	934.8	50.15
991.3985	2648.8398	933	46
991.5225	2650.1009	972.95	46.65
991.6464	2651.3613	935.65	48.05
991.7703	2652.6211	934.2	46.75
991.8942	2653.8801	933.25	45.1
992.018	2655.1385	934.7	44.45
992.1418	2656.3961	932.35	45.75
992.2655	2657.6531	934.55	47.25
992.3892	2658.9094	932.9	45.9
992.5129	2660.1651	934.95	48.7
992.6366	2661.42	935.1	47.6
992.7602	2662.6743	934.75	46.75
992.8837	2663.9279	932.45	46.75
993.0073	2665.1808	931.65	43.15
993.1307	2666.433	936.4	46.7
993.2542	2667.6846	933.6	48.9
993.3776	2668.9354	934.7	44.15
993.501	2670.1856	935.8	47.25
993.6244	2671.4351	931.95	44.3
993.7477	2672.6839	934.5	45.95
993.8709	2673.9321	932.45	46.5
993.9942	2675.1795	934.9	49.7
994.1174	2676.4263	933.8	45.1
994.2405	2677.6724	933.1	45.85
994.3637	2678.9179	933.4	47.4
994.4868	2680.1626	934.15	48.05
994.6098	2681.4067	933.25	45.45
994.7328	2682.6501	933.2	46.55
994.8558	2683.8928	934.6	48
994.9788	2685.1348	929.4	42.2
995.1017	2686.3761	931.4	45.7
995.2245	2687.6168	930.05	43.65
995.3474	2688.8568	932.15	43.6
995.4702	2690.0961	930.65	43
995.5929	2691.3348	930.95	42.95
995.7156	2692.5727	930.35	41.4
995.8383	2693.81	927.15	38.5
995.961	2695.0466	925.6	40.7
996.0836	2696.2826	931	42.55
996.2062	2697.5178	935.9	45.7
996.3287	2698.7524	930.15	43.55
996.4512	2699.9863	934.2	45.1
996.5737	2701.2195	927.45	42.9
996.6961	2702.452	930.65	41.95
996.8185	2703.6839	929.35	40.35
996.9408	2704.9151	929.55	41.6
997.0631	2706.1456	931.05	42.8
997.1854	2707.3755	930.75	45.95
997.3077	2708.6046	933.65	43.45
997.4299	2709.8331	931.25	44.1
997.552	2711.0609	931.35	44.35
997.6742	2712.2881	929.45	43
997.7963	2713.5145	932.55	44.35
997.9183	2714.7403	929.55	43.9
998.0403	2715.9654	935.35	49.4
998.1623	2717.1899	933.95	44.2
998.2842	2718.4136	931.85	44.9
998.4062	2719.6367	934.6	48.3
998.528	2720.8591	941.65	49
998.6498	2722.0809	933.4	47.35
998.7716	2723.3019	939.7	49.9
998.8934	2724.5223	936.55	46.9
999.0151	2725.7421	936.35	47.65
999.1368	2726.9611	937.55	46.55
999.2584	2728.1795	936.1	46.25
999.38	2729.3972	937.15	51.2
999.5016	2730.6142	946.55	45.45
999.6231	2731.8306	934.8	46.55
999.7446	2733.0462	933.2	45.2
999.8661	2734.2612	935.05	41.8
999.9875	2735.4756	930.55	43.55
1000.1089	2736.6892	933.3	45.5
1000.2302	2737.9022	926.75	41.8
1000.3515	2739.1145	930.35	43.2
1000.4728	2740.3262	940.05	45.55
1000.594	2741.5372	928.75	42.35
1000.7152	2742.7475	926.85	39.85
1000.8363	2743.9571	926.25	40.3
1000.9575	2745.1661	929.05	35.45
1001.0785	2746.3744	927.05	37.9
1001.1996	2747.582	926.4	40.45
1001.3206	2748.7889	927.35	38
1001.4415	2749.9952	924.85	38.75
1001.5625	2751.2008	924.9	37.15
1001.6833	2752.4057	927.45	38.6
1001.8042	2753.61	923.45	33.85
1001.925	2754.8136	927.05	37.95
1002.0458	2756.0165	921	32.8
1002.1665	2757.2188	923.1	35.8
1002.2872	2758.4204	921.35	34
1002.4078	2759.6213	927.1	37.9
1002.5285	2760.8215	931.95	39.45
1002.649	2762.0211	926.6	36.4
1002.7696	2763.22	926.2	35.7
1002.8901	2764.4182	922.15	34.75
1003.0106	2765.6158	925.35	37.35
1003.131	2766.8127	923.65	35.25
1003.2514	2768.009	922.85	35.85
1003.3717	2769.2045	921.05	34.1
1003.492	2770.3994	923.2	31.4
1003.6123	2771.5936	924.3	36.15
1003.7325	2772.7872	919.9	33.25
1003.8527	2773.9801	923	33.9
1003.9729	2775.1723	935.6	31.15
1004.093	2776.3639	921.8	32.65
1004.2131	2777.5548	922.95	33.8
1004.3331	2778.745	923.25	35.55
1004.4531	2779.9346	918.4	31.7
1004.5731	2781.1235	922.15	32.65
1004.693	2782.3117	920.65	34.9
1004.8129	2783.4992	919.55	31.7
1004.9328	2784.6861	920.9	32.3
1005.0526	2785.8723	922.5	34.1
1005.1723	2787.0579	919.1	32.15
1005.2921	2788.2428	920	33.5
1005.4118	2789.427	919.6	32.4
1005.5314	2790.6106	920.45	33.9
1005.651	2791.7935	920.65	32.15
1005.7706	2792.9757	919.5	32.95
1005.8902	2794.1573	921.95	30.35
1006.0097	2795.3382	920.1	32.75
1006.1291	2796.5184	918.85	33.15
1006.2485	2797.698	919.9	32.2
1006.3679	2798.8769	918.35	33.3
1006.4873	2800.0551	919.15	32.25
1006.6066	2801.2327	924.65	35.5
1006.7258	2802.4096	919.2	31.85
1006.8451	2803.5859	922.85	34.6
1006.9642	2804.7615	923.7	35.95
1007.0834	2805.9364	920.45	33
1007.2025	2807.1106	921	34.45
1007.3216	2808.2842	925.05	37.8
1007.4406	2809.4572	924.1	37.05
1007.5596	2810.6294	924.05	34.3
1007.6785	2811.801	921.3	38.45
1007.7975	2812.972	924.4	38.8
1007.9163	2814.1423	926.05	39.9
1008.0352	2815.3119	928.45	40.95
1008.154	2816.4808	929.9	44.2
1008.2727	2817.6491	931.1	44.35
1008.3914	2818.8167	934.4	47.3
1008.5101	2819.9837	941.5	48.15
1008.6288	2821.15	942.2	53.5
1008.7474	2822.3157	940.5	51.8
1008.8659	2823.4807	946.05	59.35
1008.9844	2824.645	955.3	67.15
1009.1029	2825.8086	958.35	73.25
1009.2214	2826.9716	960.85	75.4
1009.3398	2828.134	966.85	81.9
1009.4581	2829.2957	973.7	87.35
1009.5764	2830.4567	974.75	87.75
1009.6947	2831.617	980.4	92.1
1009.813	2832.7767	979.65	90.85
1009.9312	2833.9358	978.3	90.75
1010.0493	2835.0941	985.8	96.6
1010.1675	2836.2519	978.35	91
1010.2855	2837.4089	978.6	89.25
1010.4036	2838.5653	974.4	88.2
1010.5216	2839.7211	970.5	84.25
1010.6396	2840.8761	973.75	85
1010.7575	2842.0306	965.75	79.9
1010.8754	2843.1843	969.7	82.75
1010.9932	2844.3374	967.65	80.15
1011.111	2845.4899	972.7	87.4
1011.2288	2846.6417	970.85	84.4
1011.3465	2847.7928	969.3	81.75
1011.4642	2848.9433	972.85	85.6
1011.5818	2850.0931	976.1	90.45
1011.6995	2851.2422	977.55	87.6
1011.817	2852.3907	972.6	86
1011.9345	2853.5385	978.3	89.55
1012.052	2854.6857	1001.8	87.9
1012.1695	2855.8323	974.5	89.05
1012.2869	2856.9781	975.05	87.4
1012.4042	2858.1233	977.2	91.65
1012.5216	2859.2679	981.55	94.6
1012.6389	2860.4118	986.65	100.8
1012.7561	2861.555	990.65	99.4
1012.8733	2862.6976	991.4	102.35
1012.9905	2863.8395	991.2	104.9
1013.1076	2864.9808	990.6	102.3
1013.2247	2866.1214	989.5	104.6
1013.3417	2867.2614	989.95	101.65
1013.4587	2868.4007	995.9	107.05
1013.5757	2869.5393	999.75	112.2
1013.6926	2870.6773	1006.8	119.6
1013.8095	2871.8146	1002.5	113.75
1013.9263	2872.9513	998.65	108.55
1014.0431	2874.0874	1004.3	117.95
1014.1599	2875.2227	1001.55	114.35
1014.2766	2876.3574	1003.3	116.5
1014.3933	2877.4915	1004.6	117.05
1014.51	2878.6249	1005.95	118.9
1014.6266	2879.7577	1007.4	119.25
1014.7431	2880.8898	1023.15	127.2
1014.8596	2882.0212	1007	120
1014.9761	2883.152	1015.75	127
1015.0925	2884.2821	1018.7	134.05
1015.2089	2885.4116	1016.3	129.5
1015.3253	2886.5405	1016.3	129.15
1015.4416	2887.6686	1020.4	128
1015.5579	2888.7962	1016	130.3
1015.6741	2889.923	1018.7	132.65
1015.7903	2891.0493	1016.05	129.7
1015.9065	2892.1748	1019.2	132.45
1016.0226	2893.2997	1016.8	130.85
1016.1387	2894.424	1020.5	135.45
1016.2547	2895.5476	1015.55	128.2
1016.3707	2896.6706	1015.4	127.75
1016.4866	2897.7929	1020.5	134
1016.6025	2898.9145	1018.65	132.45
1016.7184	2900.0355	1016.3	128.3
1016.8342	2901.1559	1020.95	131.8
1016.95	2902.2756	1013.9	125.8
1017.0658	2903.3946	1016.65	128.9
1017.1815	2904.513	1018.2	131.5
1017.2971	2905.6308	1011.9	123.65
1017.4127	2906.7479	1016.1	127.45
1017.5283	2907.8643	1015.5	125.1
1017.6439	2908.9801	1013	127.45
1017.7594	2910.0953	1014.1	127.35
1017.8748	2911.2098	1015.45	125.25
1017.9902	2912.3236	1021.6	129
1018.1056	2913.4368	1018.3	126.35
1018.2209	2914.5494	1012.2	124.95
1018.3362	2915.6613	1015.5	122.3
1018.4515	2916.7725	1012.85	123.05
1018.5667	2917.8831	1010.65	121.3
1018.6819	2918.9931	1008.1	118.2
1018.797	2920.1024	1002.7	115.45
1018.9121	2921.211	1000.5	113.55
1019.0271	2922.319	998.45	109.55
1019.1421	2923.4264	999.3	112.5
1019.2571	2924.5331	994.75	110.7
1019.372	2925.6391	999	111.65
1019.4869	2926.7445	995.45	108.45
1019.6017	2927.8493	996.7	108.1
1019.7165	2928.9534	997.25	110
1019.8313	2930.0569	1002.85	112.35
1019.946	2931.1597	1003.3	115.65
1020.0606	2932.2619	1003	117.05
1020.1753	2933.3634	1002.4	115
1020.2899	2934.4643	1009.75	116.65
1020.4044	2935.5645	1011.9	117.65
1020.5189	2936.6641	1007.65	117.75
1020.6334	2937.763	1004.1	118.35
1020.7478	2938.8613	1003.8	116.9
1020.8622	2939.959	1006.9	115.3
1020.9765	2941.056	1003.05	115.3
1021.0908	2942.1523	1004.1	114.95
1021.2051	2943.248	996.15	105.95
1021.3193	2944.3431	990.35	105.4
1021.4334	2945.4375	978.65	91.25
1021.5476	2946.5313	978.05	92.8
1021.6617	2947.6244	975.15	87.4
1021.7757	2948.7169	970.2	82.15
1021.8897	2949.8087	968.3	82.3
1022.0037	2950.8999	961.75	74.45
1022.1176	2951.9904	958.05	70
1022.2315	2953.0803	953.7	64.7
1022.3453	2954.1696	955.3	67.8
1022.4591	2955.2582	950.95	64.1
1022.5728	2956.3462	947.4	60.45
1022.6865	2957.4335	949.35	62.1
1022.8002	2958.5202	951.15	63.35
1022.9138	2959.6062	947.1	59.7
1023.0274	2960.6916	946.05	58.9
1023.141	2961.7764	946.85	57.45
1023.2545	2962.8605	949.7	62.15
1023.3679	2963.9439	943.95	56.1
1023.4813	2965.0267	948.95	60.05
1023.5947	2966.1089	969.2	59.3
1023.708	2967.1905	948.7	60.95
1023.8213	2968.2714	944.1	57.45
1023.9346	2969.3516	942.4	56.6
1024.0478	2970.4312	950.25	56.4
1024.1609	2971.5102	941.7	54.55
1024.274	2972.5885	941.7	55.05
1024.3871	2973.6662	951.75	62.05
1024.5002	2974.7432	942.5	53.95
1024.6132	2975.8196	944.5	56.75
1024.7261	2976.8954	943.05	56.45
1024.839	2977.9705	942.85	54.25
1024.9519	2979.045	945.6	58.95
1025.0647	2980.1188	946.1	57.85
1025.1775	2981.192	941.85	55.3
1025.2902	2982.2645	943.05	54
1025.4029	2983.3364	938.7	50.9
1025.5156	2984.4077	939	51.3
1025.6282	2985.4783	943.4	52.45
1025.7407	2986.5483	937.9	50.85
1025.8532	2987.6177	935.45	49.05
1025.9657	2988.6864	934.55	48.5
1026.0782	2989.7545	935.4	45.9
1026.1906	2990.8219	930.25	41.85
1026.3029	2991.8887	931.9	42.6
1026.4152	2992.9548	929.65	41.8
1026.5275	2994.0204	923.95	38.5
1026.6397	2995.0852	921.75	34.55
1026.7519	2996.1495	923.85	34.3
1026.864	2997.2131	918.35	30.35
1026.9761	2998.276	920	31.7
1027.0882	2999.3383	919.6	29.65
1027.2002	3000.4	918.95	30.7
1027.3122	3001.4611	916.8	29.2
1027.4241	3002.5215	914.7	27.5
1027.536	3003.5812	913.25	27.8
1027.6478	3004.6404	913.2	27.6
1027.7596	3005.6989	912.4	21.65
1027.8714	3006.7567	911.6	22.65
1027.9831	3007.8139	942.5	25.4
1028.0947	3008.8705	912.9	24.25
1028.2064	3009.9264	926.5	23
1028.3179	3010.9818	908.15	20.75
1028.4295	3012.0364	911.3	23.9
1028.541	3013.0905	910.3	23.8
1028.6524	3014.1439	910.55	22.95
1028.7638	3015.1966	908.95	21.9
1028.8752	3016.2487	907.5	20.6
1028.9865	3017.3002	911.7	20.7
1029.0978	3018.3511	908.45	22.25
1029.209	3019.4013	907.25	19.7
1029.3202	3020.4509	908.35	22.85
1029.4314	3021.4998	906.15	18.15
1029.5425	3022.5481	906.75	19.7
1029.6535	3023.5958	908.1	21.45
1029.7645	3024.6428	906.45	18.95
1029.8755	3025.6892	906.1	19.2
1029.9864	3026.735	907.15	20.25
1030.0973	3027.7802	906.2	18.25
1030.2082	3028.8247	905	17.95
1030.319	3029.8685	908.85	21.1
1030.4297	3030.9118	906.2	16.55
1030.5404	3031.9544	904.75	18.45
1030.6511	3032.9963	907.7	20.55
1030.7617	3034.0376	904.65	19.6
1030.8723	3035.0783	909.65	20
1030.9829	3036.1184	906.55	18.2
1031.0934	3037.1578	906.65	19.45
1031.2038	3038.1966	907.5	19.2
1031.3142	3039.2348	906.55	19.95
1031.4246	3040.2723	915.15	18.1
1031.5349	3041.3092	904.45	17.6
1031.6452	3042.3455	906.35	19.5
1031.7554	3043.3811	905.6	17.55
1031.8656	3044.4161	908.15	21.35
1031.9758	3045.4505	906	19.3
1032.0859	3046.4842	908.6	20
1032.1959	3047.5173	905.7	17.85
1032.3059	3048.5498	907.4	19.05
1032.4159	3049.5816	906	20.25
1032.5258	3050.6128	907.3	17.7
1032.6357	3051.6434	907.25	18.8
1032.7455	3052.6734	906.85	18.55
1032.8553	3053.7027	907	19.8
1032.9651	3054.7314	905.35	18.9
1033.0748	3055.7594	906.1	19.35
1033.1845	3056.7868	908.45	19.45
1033.2941	3057.8136	906.85	20.35
1033.4037	3058.8398	909.6	22.1
1033.5132	3059.8653	907.95	21.35
1033.6227	3060.8902	906.2	19.25
1033.7321	3061.9145	909.9	23.3
1033.8415	3062.9381	906.75	20.85
1033.9509	3063.9612	923.75	21
1034.0602	3064.9835	909.65	21.1
1034.1694	3066.0053	908.8	18.85
1034.2787	3067.0264	908.05	20.15
1034.3878	3068.0469	908.1	20.3
1034.497	3069.0668	914.35	25.05
1034.6061	3070.086	906.2	21.4
1034.7151	3071.1046	909.6	18.8
1034.8241	3072.1226	910.5	21.95
1034.9331	3073.1399	909.35	22.35
1035.042	3074.1567	906.6	18.65
1035.1508	3075.1727	908.2	19.8
1035.2597	3076.1882	906.25	19.05
1035.3684	3077.203	905.95	18.35
1035.4772	3078.2173	907.65	19.8
1035.5859	3079.2308	911.4	20.6
1035.6945	3080.2438	909.05	19.9
1035.8031	3081.2561	904.75	18.65
1035.9117	3082.2678	902.7	17.55
1036.0202	3083.2789	904.1	17.1
1036.1286	3084.2893	901.6	15.2
1036.2371	3085.2991	904.6	17.45
1036.3454	3086.3083	906.4	18.25
1036.4538	3087.3169	904.8	15.25
1036.562	3088.3248	905.5	16.95
1036.6703	3089.3321	904	15.5
1036.7785	3090.3388	903.1	16.05
1036.8866	3091.3449	901.65	14.6
1036.9948	3092.3503	904.7	14.3
1037.1028	3093.3551	900.7	13.45
1037.2108	3094.3593	898.75	13.75
1037.3188	3095.3629	902.15	13.75
1037.4267	3096.3658	904.1	16.95
1037.5346	3097.3681	902.95	14.65
1037.6425	3098.3698	903.95	14.95
1037.7503	3099.3708	902.6	15.75
1037.858	3100.3713	898.15	12.55
1037.9657	3101.3711	901.2	14.4
1038.0734	3102.3702	1043.4	16.7
1038.181	3103.3688	901.85	11.45
1038.2886	3104.3667	900.9	14.1
1038.3961	3105.364	900.25	14.3
1038.5036	3106.3607	902.25	14.05
1038.611	3107.3568	902.15	14.3
1038.7184	3108.3522	900.45	15.3
1038.8257	3109.347	899.7	10.5
1038.933	3110.3412	903.45	12.9
1039.0403	3111.3348	900.1	11.55
1039.1475	3112.3277	901	14.95
1039.2547	3113.32	897.45	11.3
1039.3618	3114.3117	900	13
1039.4689	3115.3028	898.55	12.6
1039.5759	3116.2932	899.5	11
1039.6829	3117.2831	905	13.2
1039.7898	3118.2723	901	14.8
1039.8967	3119.2608	897.75	11.25
1040.0035	3120.2488	899.55	10.15
1040.1103	3121.2361	898.55	10
1040.2171	3122.2229	898.9	11.15
1040.3238	3123.209	897.5	8
1040.4305	3124.1944	898.5	11
1040.5371	3125.1793	898.55	10.35
1040.6437	3126.1635	897.25	10.75
1040.7502	3127.1471	897.7	11
1040.8567	3128.1301	899.4	13.5
1040.9631	3129.1125	897.1	10.45
1041.0695	3130.0942	900.1	11.9
1041.1759	3131.0753	906.25	12.65
1041.2822	3132.0558	899.55	8.05
1041.3884	3133.0357	897.55	9.5
1041.4946	3134.015	897.3	9.55
1041.6008	3134.9936	898.15	9.25
1041.7069	3135.9716	916.65	9.3
1041.813	3136.949	897.7	9.7
1041.919	3137.9258	914.55	7.45
1042.025	3138.902	900	7.95
1042.1309	3139.8775	897.8	10.25
1042.2368	3140.8524	896.9	10.25
1042.3427	3141.8267	896.75	8.15
1042.4485	3142.8004	896.95	8.85
1042.5542	3143.7735	901.45	7.5
1042.6599	3144.7459	900.15	9.7
1042.7656	3145.7178	895.35	7.4
1042.8712	3146.689	892.95	6.1
1042.9768	3147.6596	897.35	7.55
1043.0823	3148.6295	896.55	9.05
1043.1878	3149.5989	895.5	9.45
1043.2932	3150.5676	896.25	11.5
1043.3986	3151.5357	895.1	10.1
1043.5039	3152.5032	895.25	6.95
1043.6092	3153.4701	894.95	7.55
1043.7145	3154.4364	896.3	5.6
1043.8197	3155.402	897.05	11.45
1043.9248	3156.367	895.8	5.8
1044.03	3157.3315	934	7.05
1044.135	3158.2952	895.85	6.75
1044.24	3159.2584	896.45	11.05
1044.345	3160.221	895.05	7.55
1044.4499	3161.1829	894.7	5.2
1044.5548	3162.1442	896.15	9.65
1044.6596	3163.105	893.95	5.85
1044.7644	3164.065	896.1	8.65
1044.8692	3165.0245	898.25	8.1
1044.9739	3165.9834	893.05	7.4
1045.0785	3166.9416	895.4	10.95
1045.1831	3167.8993	895.2	8
1045.2877	3168.8563	894.8	6.5
1045.3922	3169.8127	895.35	8.05
1045.4966	3170.7684	895.05	7.8
1045.6011	3171.7236	896.45	8.15
1045.7054	3172.6782	895.65	7.85
1045.8098	3173.6321	896.1	8.25
1045.914	3174.5854	900.7	9.6
1046.0183	3175.5381	893.55	5.6
1046.1224	3176.4902	893.2	7.6
1046.2266	3177.4417	893.7	7.5
1046.3307	3178.3926	894.6	8.1
1046.4347	3179.3428	895.65	9.45
1046.5387	3180.2924	894.75	6.95
1046.6427	3181.2415	895.3	7.4
1046.7466	3182.1899	895.55	6.55
1046.8504	3183.1377	894.1	7.6
1046.9542	3184.0848	898.85	10.3
1047.058	3185.0314	893.95	7.45
1047.1617	3185.9773	894.95	6.35
1047.2654	3186.9227	897.9	8.2
1047.369	3187.8674	894.8	7.45
1047.4726	3188.8115	899.5	9.2
1047.5761	3189.755	894.05	7.75
1047.6796	3190.6979	893.3	5.7
1047.783	3191.6402	894.9	9.05
1047.8864	3192.5818	893.7	4.85
1047.9898	3193.5229	901.4	8.2
1048.0931	3194.4633	894.25	9.5
1048.1963	3195.4031	895.2	8
1048.2995	3196.3423	892.8	6.8
1048.4027	3197.2809	894.1	6.35
1048.5058	3198.2189	895.4	7.5
1048.6089	3199.1563	900.35	5.25
1048.7119	3200.0931	894.25	6.6
1048.8148	3201.0292	895.4	8.3
1048.9178	3201.9648	891.75	4.25
1049.0206	3202.8997	893.95	3.75
1049.1235	3203.834	893.25	5.55
1049.2262	3204.7677	893.35	5.95
1049.329	3205.7008	894.7	6.8
1049.4317	3206.6333	891.05	5
1049.5343	3207.5652	894.7	3
1049.6369	3208.4964	893.15	6.1
1049.7394	3209.4271	892.15	5.6
1049.8419	3210.3571	893	5.6
1049.9444	3211.2865	894	8.9
1050.0468	3212.2154	895.2	6.15
1050.1491	3213.1436	896.2	5.35
1050.2514	3214.0712	900.55	5.3
1050.3537	3214.9982	893.3	4.75
1050.4559	3215.9246	893.5	4.65
1050.5581	3216.8503	890.9	4.5
1050.6602	3217.7755	892.85	6.4
1050.7623	3218.7001	893.9	6.2
1050.8643	3219.624	892.3	4.45
1050.9663	3220.5473	895.35	8.1
1051.0682	3221.4701	894.7	4.35
1051.1701	3222.3922	896	6.5
1051.2719	3223.3137	892.05	3.9
1051.3737	3224.2346	895.2	8.05
1051.4754	3225.1549	890.8	5.85
1051.5771	3226.0746	891.95	5.3
1051.6788	3226.9937	893.65	6.05
1051.7804	3227.9121	891.25	5.3
1051.8819	3228.83	892.65	5.2
1051.9834	3229.7473	893.35	6.5
1052.0849	3230.6639	895	5.45
1052.1863	3231.5799	893.7	7.75
1052.2876	3232.4954	894.05	6.05
1052.3889	3233.4102	892.1	4.65
1052.4902	3234.3244	892.05	6.1
1052.5914	3235.238	891.85	6.35
1052.6926	3236.151	918.05	5.7
1052.7937	3237.0634	891.85	4.35
1052.8948	3237.9752	893.15	5.85
1052.9958	3238.8864	894.4	8.25
1053.0968	3239.797	893.65	6.5
1053.1977	3240.7069	894.75	5.9
1053.2986	3241.6163	895.05	5.45
1053.3994	3242.5251	890.25	2.95
1053.5002	3243.4332	892.2	3.2
1053.6009	3244.3408	892.85	5.7
1053.7016	3245.2477	892.9	4.7
1053.8022	3246.154	892.9	3.75
1053.9028	3247.0598	893.65	4.1
1054.0034	3247.9649	891.55	4
1054.1039	3248.8694	894.15	5.1
1054.2043	3249.7733	892.4	4.9
1054.3047	3250.6766	890.65	1.4
1054.4051	3251.5793	892	2.45
1054.5054	3252.4814	891.75	5.8
1054.6056	3253.3829	890.25	5.4
1054.7058	3254.2838	892.75	4.5
1054.806	3255.1841	890.35	4.15
1054.9061	3256.0838	891.65	5.05
1055.0061	3256.9829	891.45	6.35
1055.1062	3257.8814	894.9	3.45
1055.2061	3258.7792	895	5.3
1055.306	3259.6765	893.75	6.3
1055.4059	3260.5731	890.2	3.95
1055.5057	3261.4692	891.7	6.15
1055.6055	3262.3647	891.95	5.9
1055.7052	3263.2595	892.6	4.8
1055.8049	3264.1538	891.65	4.05
1055.9045	3265.0474	893.25	4.8
1056.0041	3265.9404	890.9	6.15
1056.1036	3266.8329	889.2	2.1
1056.2031	3267.7247	902.2	4.45
1056.3025	3268.616	889.1	0.8
1056.4019	3269.5066	891.65	3.05
1056.5013	3270.3966	893.45	1.65
1056.6005	3271.286	890.8	5.95
