Software Version:	3.9.2.0
Unit SN:	10000200
Spectrometer SN:	6960
Date:	3/14/2024 1:24:27 PM
Data Line Index:	25
Spectral Points:	2048
Integration time (ms):	125
Averages:	20
Delay (ms):	30000
Sequence Number:	1
Processing:	dark subtract
Laser Power (mW):	300
Laser Current (mA):	825
Laser Diode Temp (C):	25
Laser Case Temp (C):	28.4
System Temp (C):	28.4
Spectrometer Temp (C):	26.3
CCD Temp (C):	0.004
Secondary Temp (C):	20.008
Heatsink Temp (C):	24.37
CCDPCB Temp (C):	37.73
SecondaryPCB Temp (C):	35.495

Wavelength	RamanShift	Raw Counts	Dark Subtracted
787.061	30.1047	463.6	52.25
787.2016	32.3739	466.5	57.55
787.3422	34.6426	471.4	60.45
787.4828	36.9109	474.15	60.85
787.6235	39.1787	483.05	64.9
787.7642	41.4461	493.85	71.2
787.9049	43.7131	506.6	81.25
788.0456	45.9796	514.15	87.05
788.1863	48.2456	523.8	92.1
788.3271	50.5112	535.45	99.75
788.4679	52.7764	542	102.7
788.6087	55.0411	550	108.85
788.7496	57.3054	564.5	117.45
788.8904	59.5692	573.65	123.15
789.0313	61.8326	586.65	133.15
789.1722	64.0955	602	144.7
789.3132	66.3579	618.9	157.6
789.4541	68.6199	635.65	171.2
789.5951	70.8815	668.85	201.05
789.7361	73.1426	752.9	281.35
789.8771	75.4032	961.5	484.35
790.0181	77.6634	1475.75	992.65
790.1592	79.9231	2688.1	2199.45
790.3003	82.1824	5376.05	4875.9
790.4414	84.4412	10228.15	9709.2
790.5825	86.6995	17008.45	16466
790.7237	88.9574	23726.4	23159.55
790.8648	91.2148	28429.25	27853
791.006	93.4717	30652.75	30060.2
791.1472	95.7282	31065.05	30469.5
791.2885	97.9842	30979.25	30378.45
791.4297	100.2398	30267.7	29670.35
791.571	102.4949	29597.15	28994.45
791.7123	104.7495	28731.55	28119.75
791.8536	107.0036	27912.5	27302.3
791.9949	109.2573	27160.45	26551.7
792.1363	111.5105	26495.9	25885.65
792.2777	113.7632	25844.15	25235.4
792.4191	116.0154	25367.75	24745.35
792.5605	118.2672	25053.25	24439.2
792.7019	120.5185	24687.25	24070
792.8434	122.7693	24429.05	23813.05
792.9849	125.0197	24229.1	23605.15
793.1264	127.2696	24026.2	23402.75
793.2679	129.519	23859.95	23232.4
793.4094	131.7679	23581.1	22951.85
793.551	134.0163	23352.15	22717.5
793.6926	136.2642	23044.5	22404.9
793.8342	138.5117	22737.6	22096.05
793.9758	140.7587	22348.4	21707.15
794.1175	143.0052	22093.9	21452.65
794.2591	145.2512	21727.95	21083.35
794.4008	147.4967	21454.3	20809.4
794.5425	149.7417	21212.55	20566
794.6842	151.9863	21068.4	20419.4
794.826	154.2304	20933.5	20278.65
794.9677	156.4739	20787.15	20128.8
795.1095	158.717	20723.3	20063.55
795.2513	160.9596	20555.95	19893.25
795.3931	163.2017	20302.7	19639.7
795.535	165.4433	20048.25	19381.9
795.6768	167.6844	19724.1	19055.75
795.8187	169.925	19457.35	18787.25
795.9606	172.1651	19124.7	18450.4
796.1025	174.4047	18875.7	18196.6
796.2445	176.6439	18644.9	17968.05
796.3864	178.8825	18444.4	17765.2
796.5284	181.1206	18352.7	17667.65
796.6704	183.3582	18203.8	17514.7
796.8124	185.5954	18109.85	17417.9
796.9544	187.832	18060.45	17363.65
797.0965	190.0681	18021.95	17327.3
797.2386	192.3037	18002.6	17305.3
797.3806	194.5388	18007.05	17303.75
797.5228	196.7734	18047.15	17343.55
797.6649	199.0075	18117.75	17411.15
797.807	201.2411	18230.4	17514.65
797.9492	203.4742	18270.5	17560.1
798.0914	205.7068	18417.3	17705.35
798.2336	207.9389	18496.2	17784.35
798.3758	210.1704	18658.55	17944.2
798.518	212.4015	18753.6	18033
798.6603	214.632	18896.9	18177.8
798.8025	216.862	19018.6	18306.2
798.9448	219.0915	19060.3	18359.95
799.0871	221.3205	19136.1	18436.35
799.2294	223.549	19189.2	18498.1
799.3718	225.777	19299	18603.15
799.5141	228.0044	19350.6	18652.75
799.6565	230.2314	19450.5	18754.35
799.7989	232.4578	19519.85	18821.65
799.9413	234.6837	19637.5	18931.65
800.0837	236.909	19685.65	18980.9
800.2262	239.1339	19682.05	18952.95
800.3687	241.3582	19608.85	18895.7
800.5111	243.582	19525.3	18785.15
800.6536	245.8053	19451.25	18719.05
800.7961	248.0281	19407.2	18677.95
800.9387	250.2503	19389.95	18659.55
801.0812	252.472	19451.05	18710.35
801.2238	254.6932	19601	18857.95
801.3664	256.9139	19686.45	18941.05
801.509	259.134	19870.15	19123.25
801.6516	261.3536	20069.4	19329.9
801.7942	263.5727	20339.9	19596
801.9369	265.7912	20591.3	19848.45
802.0795	268.0092	20853.7	20109.85
802.2222	270.2267	21031.25	20284.9
802.3649	272.4436	21187.3	20439.9
802.5076	274.6601	21221.6	20466.75
802.6504	276.8759	21118	20369.75
802.7931	279.0913	21044.9	20296.65
802.9359	281.3061	20905.25	20150.9
803.0787	283.5204	20874.6	20120.2
803.2215	285.7341	20847.8	20090.15
803.3643	287.9473	20870.9	20098.95
803.5071	290.16	20907.1	20139.75
803.6499	292.3721	20954.35	20194.25
803.7928	294.5837	21087.2	20328
803.9357	296.7947	21266.1	20506.65
804.0786	299.0052	21407.8	20647.8
804.2215	301.2152	21349.25	20589.65
804.3644	303.4246	21259.95	20498.6
804.5074	305.6334	20952.3	20194.1
804.6503	307.8418	20612.8	19849.05
804.7933	310.0495	20190.75	19424.45
804.9363	312.2568	19773.05	19010.5
805.0793	314.4635	19357.3	18592.05
805.2223	316.6696	19034.75	18266.1
805.3653	318.8752	18845.5	18068.65
805.5084	321.0802	18725.6	17954.35
805.6514	323.2847	18714.2	17944.3
805.7945	325.4887	18732.7	17962.15
805.9376	327.692	18710.8	17938.55
806.0807	329.8949	18694.75	17920
806.2238	332.0972	18541.35	17763.65
806.367	334.2989	18352.4	17575.9
806.5101	336.5001	18134.3	17357.15
806.6533	338.7007	17939.45	17162.55
806.7965	340.9008	17790.95	17010.75
806.9397	343.1003	17593.45	16811.95
807.0829	345.2992	17482.85	16701.9
807.2261	347.4976	17382.15	16601.35
807.3693	349.6955	17250.4	16463.6
807.5126	351.8927	17263.55	16476.9
807.6559	354.0895	17154.6	16356.25
807.7991	356.2856	17123.25	16335.1
807.9424	358.4812	17024.75	16236.35
808.0857	360.6763	17039.25	16250.1
808.2291	362.8707	16979.65	16187.9
808.3724	365.0646	17030	16236
808.5158	367.258	17043.75	16250.25
808.6591	369.4508	17107.5	16308
808.8025	371.643	17216.7	16421
808.9459	373.8346	17234	16434.65
809.0893	376.0257	17346.25	16540
809.2327	378.2162	17354.95	16551.85
809.3762	380.4062	17368.15	16560.8
809.5196	382.5956	17234.1	16426.85
809.6631	384.7844	17141.85	16334.05
809.8066	386.9726	16960.1	16154.25
809.9501	389.1603	16857.4	16054.9
810.0936	391.3474	16789.65	15953.3
810.2371	393.5339	16734.4	15930.6
810.3806	395.7199	16684.1	15882.25
810.5241	397.9052	16715.15	15917.2
810.6677	400.09	16762.1	15965.9
810.8113	402.2743	16890.55	16095.45
810.9548	404.4579	17033.1	16234.6
811.0984	406.641	17230.4	16431.8
811.2421	408.8235	17386.7	16587.35
811.3857	411.0054	17503.5	16703.55
811.5293	413.1868	17620.85	16817.2
811.673	415.3675	17680.8	16877.15
811.8166	417.5477	17649.8	16846.7
811.9603	419.7273	17609.45	16801.05
812.104	421.9064	17472.65	16658.5
812.2477	424.0848	17443.05	16631.65
812.3914	426.2627	17254.2	16442.45
812.5351	428.4399	17043.05	16226.3
812.6788	430.6166	16736.8	15918.95
812.8226	432.7928	16424.9	15602.65
812.9663	434.9683	16098.2	15281.3
813.1101	437.1432	15891.9	15070.3
813.2539	439.3176	15684.1	14862.55
813.3977	441.4914	15561.7	14740.9
813.5415	443.6645	15531.7	14707.05
813.6853	445.8371	15456.9	14634.4
813.8291	448.0091	15381	14561.8
813.973	450.1806	15395.05	14573.5
814.1168	452.3514	15317.85	14492.75
814.2607	454.5216	15365.15	14530.45
814.4046	456.6913	15303.05	14476
814.5485	458.8603	15335.45	14508.95
814.6924	461.0288	15397.6	14572.85
814.8363	463.1967	15331.9	14506.45
814.9802	465.3639	15370.1	14541.2
815.1241	467.5306	15300.15	14472.65
815.2681	469.6967	15318.3	14488.95
815.412	471.8622	15321.45	14492.8
815.556	474.0271	15335.6	14508.7
815.7	476.1914	15345	14516.15
815.844	478.3551	15337.25	14512.55
815.988	480.5182	15351.9	14520.15
816.132	482.6807	15447.4	14617.6
816.276	484.8426	15582.2	14751.15
816.4201	487.0039	15917.2	15088.2
816.5641	489.1647	16251.35	15419.1
816.7082	491.3248	16539.6	15709.7
816.8522	493.4843	16616.7	15783.15
816.9963	495.6432	16562.45	15730.05
817.1404	497.8015	16415.4	15578.5
817.2845	499.9592	16280	15451.15
817.4286	502.1163	16100.1	15264.45
817.5727	504.2728	15801.55	14966.25
817.7168	506.4287	15560.8	14727
817.861	508.5839	15201.45	14364.65
818.0051	510.7386	15042.25	14208.7
818.1493	512.8927	14973.25	14128.15
818.2935	515.0461	14938.1	14101.5
818.4377	517.199	15002.95	14167.25
818.5818	519.3512	15120.85	14284.05
818.726	521.5029	15407.9	14563.55
818.8703	523.6539	15645.95	14806.9
819.0145	525.8043	15743.75	14907.45
819.1587	527.9541	15690.8	14851.55
819.303	530.1033	15456.8	14619.7
819.4472	532.2519	15302.15	14460.95
819.5915	534.3999	15205.3	14361.25
819.7357	536.5472	15226.3	14384.15
819.88	538.694	15362.9	14520.55
820.0243	540.8401	15595.45	14749.9
820.1686	542.9856	15773.7	14930.8
820.3129	545.1305	15789.45	14947.75
820.4572	547.2748	15761.8	14918.2
820.6016	549.4185	15558.65	14714.05
820.7459	551.5615	15399.05	14557.25
820.8902	553.704	15404.75	14560.05
821.0346	555.8458	15499.7	14657
821.1789	557.987	15621	14779.1
821.3233	560.1276	15835.5	14987.4
821.4677	562.2675	16181.2	15339.2
821.6121	564.4069	16662.95	15819.25
821.7565	566.5456	17113.55	16273.55
821.9009	568.6837	17269.85	16425.55
822.0453	570.8212	16886.7	16041.6
822.1897	572.958	16221.05	15375.65
822.3342	575.0942	15555.85	14710.35
822.4786	577.2299	15109.85	14263.2
822.6231	579.3648	14902.8	14055.65
822.7675	581.4992	14829.1	13979.95
822.912	583.6329	14899.7	14054.55
823.0565	585.766	15022.8	14175.75
823.201	587.8985	15138.35	14289.7
823.3454	590.0304	15196.75	14326.05
823.4899	592.1616	15130.75	14280.5
823.6345	594.2922	15026.85	14176.75
823.779	596.4222	14814.35	13967.05
823.9235	598.5515	14597.45	13748.15
824.068	600.6802	14473.35	13623.35
824.2126	602.8083	14268.65	13419.6
824.3571	604.9358	14272.05	13420.05
824.5017	607.0626	14241.6	13390.75
824.6462	609.1888	14359.35	13506
824.7908	611.3144	14486.4	13636.1
824.9354	613.4393	14601.55	13750.65
825.08	615.5636	14713.4	13860.5
825.2246	617.6873	14764.4	13913.45
825.3692	619.8103	14682.95	13832.25
825.5138	621.9327	14490.05	13635.75
825.6584	624.0544	14289.2	13438
825.803	626.1756	14073.4	13217.15
825.9477	628.2961	13929.15	13075.6
826.0923	630.4159	13835.95	12982.55
826.237	632.5351	13835.85	12981.35
826.3816	634.6537	13790.25	12938.6
826.5263	636.7716	13776.85	12921.1
826.6709	638.8889	13767	12912.6
826.8156	641.0056	13791.15	12937.5
826.9603	643.1216	13760.45	12905.45
827.105	645.237	13734.3	12879.45
827.2497	647.3518	13636.3	12778.35
827.3944	649.4659	13565.9	12708.15
827.5391	651.5793	13485.15	12627.3
827.6838	653.6922	13426.3	12568.2
827.8285	655.8043	13400.35	12543.65
827.9733	657.9159	13403.7	12545
828.118	660.0268	13358.2	12499.2
828.2627	662.137	13367.65	12508.2
828.4075	664.2466	13344.05	12481.55
828.5522	666.3556	13348.2	12487.3
828.697	668.4639	13283.1	12418.3
828.8418	670.5716	13255.65	12394.75
828.9865	672.6786	13210.25	12350.25
829.1313	674.785	13128.55	12266.9
829.2761	676.8907	13085.65	12227.45
829.4209	678.9958	13070.85	12209.7
829.5657	681.1002	13004.4	12139.6
829.7105	683.204	13013.05	12144.5
829.8553	685.3072	12993.2	12129.1
830.0001	687.4097	12951.05	12092.3
830.1449	689.5115	12943.15	12078.65
830.2898	691.6127	12897.8	12037.85
830.4346	693.7132	12897.65	12033.8
830.5794	695.8131	12898.15	12019.8
830.7243	697.9123	12929.65	12067.5
830.8691	700.0109	12935.55	12072.95
831.014	702.1089	12957.1	12093.6
831.1588	704.2061	13032.7	12166
831.3037	706.3028	13062.4	12196.75
831.4486	708.3987	13101.8	12237.7
831.5935	710.4941	13099.1	12237
831.7383	712.5887	13126.35	12258.1
831.8832	714.6827	13177.5	12308.5
832.0281	716.7761	13264.55	12398.95
832.173	718.8688	13384.95	12519.05
832.3179	720.9608	13501	12631.45
832.4628	723.0522	13633.5	12764.4
832.6077	725.1429	13714.15	12849.4
832.7527	727.233	13774.65	12908.7
832.8976	729.3224	13853.8	12988.95
833.0425	731.4112	13821.3	12951.65
833.1874	733.4993	13653.6	12782.2
833.3324	735.5867	13431.1	12563.25
833.4773	737.6735	13200.85	12329.2
833.6222	739.7596	12991.05	12122.05
833.7672	741.845	12832.7	11965.15
833.9122	743.9298	12738.9	11867.95
834.0571	746.014	12681.85	11814.3
834.2021	748.0974	12665.8	11796.4
834.347	750.1802	12630.45	11762.4
834.492	752.2624	12639.85	11771.95
834.637	754.3439	12685.15	11815.1
834.782	756.4247	12759.45	11882.55
834.9269	758.5048	12886.45	12019.2
835.0719	760.5843	13125.65	12255.85
835.2169	762.6631	13492.65	12624.45
835.3619	764.7413	14002.7	13134.35
835.5069	766.8188	14654.05	13782.75
835.6519	768.8956	15210.35	14338.05
835.7969	770.9718	15602	14732.35
835.9419	773.0473	15544.3	14677.75
836.0869	775.1221	15336.15	14462.35
836.232	777.1962	15057.65	14188.45
836.377	779.2697	15004.3	14132.6
836.522	781.3426	15062.1	14183.2
836.667	783.4147	15176.55	14305.1
836.8121	785.4862	15218.85	14346.8
836.9571	787.557	15007.9	14137.35
837.1021	789.6271	14547.5	13675.35
837.2472	791.6966	13917.35	13046.65
837.3922	793.7654	13316.85	12442.3
837.5373	795.8335	12919.6	12049.75
837.6823	797.901	12618.1	11749.1
837.8274	799.9678	12435.4	11562.9
837.9724	802.0339	12321.2	11452.3
838.1175	804.0993	12260.55	11381
838.2626	806.1641	12189.95	11316.2
838.4076	808.2282	12113.5	11242.2
838.5527	810.2916	12059.15	11182.75
838.6978	812.3544	11957.7	11086.75
838.8428	814.4164	11904.95	11035.6
838.9879	816.4778	11912.2	11037.1
839.133	818.5385	11934.2	11062.75
839.2781	820.5986	12084.65	11213.15
839.4232	822.658	12289.9	11417
839.5682	824.7166	12607.75	11738.1
839.7133	826.7747	13074.95	12202.15
839.8584	828.832	13604.75	12730.55
840.0035	830.8886	14006.75	13134.8
840.1486	832.9446	14160.9	13284.75
840.2937	834.9999	14070.95	13198.7
840.4388	837.0545	13755.4	12877
840.5839	839.1085	13405.25	12531.3
840.729	841.1618	13070	12192.35
840.8741	843.2143	12802.95	11928.5
841.0192	845.2662	12551.15	11677.05
841.1643	847.3175	12412.95	11539.6
841.3095	849.368	12287.4	11414
841.4546	851.4179	12228.1	11353.8
841.5997	853.467	12083	11209.15
841.7448	855.5155	12029.9	11156.1
841.8899	857.5633	11928.05	11053
842.0351	859.6105	11856.05	10983.5
842.1802	861.6569	11781.75	10908.95
842.3253	863.7027	11664.9	10787.8
842.4704	865.7478	11640.7	10765.35
842.6156	867.7922	11558.1	10681.7
842.7607	869.8359	11532.35	10655.2
842.9058	871.8789	11547.9	10671.25
843.0509	873.9212	11610.5	10699.1
843.1961	875.9629	11640.75	10765.3
843.3412	878.0039	11774.1	10897.35
843.4863	880.0441	11843.25	10967.25
843.6315	882.0837	11876.15	10998.45
843.7766	884.1226	11915.75	11037.9
843.9218	886.1609	11960.35	11084.1
844.0669	888.1984	12067.3	11193.35
844.212	890.2352	12190.5	11314.2
844.3572	892.2714	12225.95	11345.4
844.5023	894.3069	12194.25	11316.75
844.6475	896.3416	12006.1	11127.65
844.7926	898.3757	11834.65	10957.25
844.9377	900.4091	11715.95	10838.25
845.0829	902.4418	11699.7	10818
845.228	904.4739	11739.5	10860.4
845.3732	906.5052	11776.1	10899.6
845.5183	908.5358	11740.8	10865.4
845.6635	910.5658	11627.85	10751.4
845.8086	912.595	11417.15	10540.55
845.9538	914.6236	11216.35	10338.2
846.0989	916.6515	11057.15	10180.9
846.2441	918.6786	10965.85	10086.8
846.3892	920.7051	10931.55	10053.8
846.5344	922.7309	10968.05	10089.3
846.6795	924.756	10966.7	10090.35
846.8246	926.7804	11032.6	10154.3
846.9698	928.8041	11005.35	10125.7
847.1149	930.8272	11054.25	10176.3
847.2601	932.8495	11017.9	10141.35
847.4052	934.8711	11003.8	10126.25
847.5504	936.892	11001.4	10122.8
847.6955	938.9123	10957.35	10077.95
847.8407	940.9318	10998.05	10117.95
847.9858	942.9506	10960.8	10081.85
848.131	944.9688	10911.15	10034.45
848.2761	946.9862	10825.9	9946
848.4213	949.003	10682.15	9802.4
848.5664	951.019	10564.2	9683.2
848.7115	953.0344	10464.25	9585.5
848.8567	955.0491	10462.8	9583.5
849.0018	957.063	10453.35	9572.45
849.147	959.0763	10557.5	9678.7
849.2921	961.0888	10547.35	9666.45
849.4373	963.1007	10575.85	9693.4
849.5824	965.1119	10596.2	9718.1
849.7275	967.1223	10554.55	9673.8
849.8727	969.1321	10546.45	9668.25
850.0178	971.1412	10535.5	9656.9
850.1629	973.1495	10517.25	9638.15
850.3081	975.1572	10516.05	9605.35
850.4532	977.1641	10502.3	9624.55
850.5983	979.1704	10498.25	9618.7
850.7435	981.1759	10448.8	9568.45
850.8886	983.1808	10435	9553.65
851.0337	985.1849	10431.2	9538.85
851.1788	987.1884	10472.75	9589.35
851.324	989.1911	10532.05	9648.1
851.4691	991.1932	10613.3	9731
851.6142	993.1945	10606.85	9726.3
851.7593	995.1951	10560.85	9681.1
851.9045	997.1951	10522	9635.9
852.0496	999.1943	10476.7	9597.65
852.1947	1001.1928	10467.25	9585.45
852.3398	1003.1906	10517.05	9637.45
852.4849	1005.1877	10634.2	9751.8
852.63	1007.1841	10704.85	9823.85
852.7751	1009.1798	10756.2	9875.4
852.9202	1011.1748	10661.45	9781.2
853.0653	1013.1691	10502	9620.6
853.2104	1015.1627	10314	9431.6
853.3555	1017.1556	10104.7	9223.95
853.5006	1019.1477	9989.05	9106.35
853.6457	1021.1392	9865.4	8985.95
853.7908	1023.1299	9829.2	8948.2
853.9359	1025.12	9815.2	8932.45
854.081	1027.1093	9872.8	8991.7
854.2261	1029.0979	9958.55	9078.65
854.3712	1031.0859	10050	9169.85
854.5163	1033.0731	10078.15	9197.7
854.6613	1035.0596	10006.95	9126.7
854.8064	1037.0454	9909.7	9028.9
854.9515	1039.0304	9806.95	8925.75
855.0965	1041.0148	9682.65	8801.4
855.2416	1042.9985	9586.45	8703.2
855.3867	1044.9814	9551.3	8670.65
855.5317	1046.9636	9498.65	8615.05
855.6768	1048.9452	9467.4	8588
855.8219	1050.926	9490.15	8609.8
855.9669	1052.9061	9524.4	8644.95
856.112	1054.8855	9525.1	8645.35
856.257	1056.8642	9561.25	8679.2
856.4021	1058.8421	9601.05	8717.45
856.5471	1060.8194	9618.8	8738.45
856.6921	1062.7959	9635	8753.9
856.8372	1064.7717	9693.8	8809.55
856.9822	1066.7469	9750.3	8866.35
857.1272	1068.7213	9825.15	8939.9
857.2723	1070.695	9919.25	9036.85
857.4173	1072.6679	9956.6	9075.8
857.5623	1074.6402	9960.95	9076.3
857.7073	1076.6117	9941.65	9053.65
857.8523	1078.5826	9823.7	8943.55
857.9973	1080.5527	9660.9	8778.95
858.1423	1082.5221	9576.85	8694.7
858.2873	1084.4908	9522	8639.3
858.4323	1086.4587	9478.9	8597.85
858.5773	1088.426	9518	8636.65
858.7223	1090.3925	9526.8	8639.5
858.8673	1092.3584	9524.05	8643.1
859.0123	1094.3235	9554.3	8673.55
859.1573	1096.2879	9629.15	8746.7
859.3022	1098.2515	9736.35	8856
859.4472	1100.2145	9923.8	9043.3
859.5922	1102.1767	10085.7	9201.1
859.7371	1104.1382	10291.15	9409.65
859.8821	1106.099	10519.6	9633.9
860.027	1108.0591	10724.75	9842
860.172	1110.0185	10908.55	10024.75
860.3169	1111.9771	10966.8	10084.5
860.4619	1113.9351	10887.75	10006.05
860.6068	1115.8923	10780.85	9897.85
860.7517	1117.8488	10656	9771.35
860.8967	1119.8045	10458.35	9575.15
861.0416	1121.7596	10339.85	9458
861.1865	1123.7139	10158.4	9277.4
861.3314	1125.6675	10115.3	9233
861.4763	1127.6204	10113.05	9231.25
861.6212	1129.5726	10075.15	9191.55
861.7661	1131.524	10016.3	9133.8
861.911	1133.4748	9873.05	8993.2
862.0559	1135.4248	9667.4	8784.15
862.2008	1137.3741	9531.25	8649.55
862.3457	1139.3226	9384.1	8502.55
862.4905	1141.2705	9324.55	8441.25
862.6354	1143.2176	9274.65	8385.5
862.7803	1145.164	9243.5	8360.45
862.9251	1147.1097	9146.85	8263.9
863.07	1149.0546	9039.45	8155.3
863.2148	1150.9989	8925.8	8042.4
863.3597	1152.9424	8843.2	7961.5
863.5045	1154.8852	8740.95	7857.05
863.6493	1156.8272	8700.75	7818.15
863.7942	1158.7686	8738.1	7848.6
863.939	1160.7092	8738.05	7856
864.0838	1162.6491	8763.6	7875.95
864.2286	1164.5883	8840.85	7956.25
864.3734	1166.5267	8963.25	8079
864.5182	1168.4644	9089.15	8205.6
864.663	1170.4014	9280.65	8393.3
864.8078	1172.3377	9517.45	8637
864.9526	1174.2732	9795.3	8913.35
865.0974	1176.2081	10197.95	9317.65
865.2421	1178.1421	10664.25	9779.55
865.3869	1180.0755	11196.8	10314.15
865.5317	1182.0082	11582.25	10699.9
865.6764	1183.9401	11754.95	10871.7
865.8212	1185.8713	11604.55	10720.05
865.9659	1187.8017	11283.85	10400.95
866.1106	1189.7315	10861.25	9978.8
866.2554	1191.6605	10484.6	9574.75
866.4001	1193.5888	10145.15	9262.25
866.5448	1195.5163	9970.1	9091.1
866.6895	1197.4432	9872.8	8988.45
866.8342	1199.3693	9769.75	8886.5
866.9789	1201.2947	9725.8	8835.3
867.1236	1203.2193	9697.2	8813.35
867.2683	1205.1432	9700.55	8817.9
867.413	1207.0664	9653.6	8770.2
867.5576	1208.9889	9627.05	8741.9
867.7023	1210.9106	9593.5	8710.35
867.847	1212.8316	9604.4	8720.8
867.9916	1214.7519	9666.05	8773.8
868.1363	1216.6715	9672.7	8791.55
868.2809	1218.5903	9762.7	8880.7
868.4255	1220.5084	9823.5	8941.2
868.5701	1222.4257	9928.1	9045.85
868.7148	1224.3424	10015.7	9136.55
868.8594	1226.2583	10111.85	9223.3
869.004	1228.1735	10254.75	9369
869.1486	1230.0879	10396.45	9511.95
869.2932	1232.0016	10602.85	9719.8
869.4377	1233.9146	10739.75	9854.35
869.5823	1235.8269	10779.6	9897.7
869.7269	1237.7384	10751.7	9869.3
869.8715	1239.6492	10633.6	9751.8
870.016	1241.5592	10599.2	9714.15
870.1606	1243.4686	10657.9	9774.4
870.3051	1245.3772	10846.4	9963.05
870.4496	1247.285	11064.75	10181.6
870.5941	1249.1922	11307.75	10425.2
870.7387	1251.0986	11494.65	10613.4
870.8832	1253.0042	11594.45	10709.4
871.0277	1254.9092	11725.8	10845.7
871.1722	1256.8134	11811.75	10928.5
871.3167	1258.7169	11948.85	11063.65
871.4611	1260.6196	12057.7	11176.35
871.6056	1262.5216	12294.7	11410.15
871.7501	1264.4229	12464.8	11583.85
871.8945	1266.3234	12635.95	11754.25
872.039	1268.2232	12780.1	11895.55
872.1834	1270.1223	12830.1	11947.9
872.3278	1272.0207	12868.45	11985.5
872.4723	1273.9183	12814.7	11926.2
872.6167	1275.8151	12779.55	11896.9
872.7611	1277.7113	12759.1	11874.15
872.9055	1279.6067	12831.45	11949.7
873.0499	1281.5014	13097.55	12211.35
873.1943	1283.3953	13568.15	12684
873.3386	1285.2885	14111.6	13229.1
873.483	1287.181	14698.35	13814.4
873.6274	1289.0727	15281.05	14398.25
873.7717	1290.9637	15683	14799.15
873.9161	1292.854	15910.35	15027.6
874.0604	1294.7435	15902.65	15017.4
874.2047	1296.6323	15741.8	14857.45
874.349	1298.5204	15518.55	14629.4
874.4933	1300.4077	15214.75	14330
874.6376	1302.2943	14894.8	14011.8
874.7819	1304.1802	14532.6	13647.2
874.9262	1306.0653	14025.65	13140.3
875.0705	1307.9497	13513.1	12628.6
875.2147	1309.8333	13079.6	12193.9
875.359	1311.7162	12721.6	11837
875.5032	1313.5984	12505.4	11620.9
875.6475	1315.4798	12391	11496.05
875.7917	1317.3605	12292.9	11395.2
875.9359	1319.2405	12158.15	11272.2
876.0801	1321.1197	11913.35	11027.05
876.2243	1322.9982	11589.65	10702.05
876.3685	1324.876	11281	10396.75
876.5127	1326.753	10984.4	10100.45
876.6569	1328.6293	10723.95	9837.45
876.801	1330.5048	10544.25	9655.65
876.9452	1332.3796	10333.1	9449.95
877.0893	1334.2537	10221.95	9311.9
877.2335	1336.127	10083.6	9199.25
877.3776	1337.9996	10018.95	9134.75
877.5217	1339.8714	10011.55	9127.25
877.6658	1341.7426	10027.45	9099.45
877.8099	1343.6129	10028.4	9144.2
877.954	1345.4826	10015.05	9131.6
878.0981	1347.3515	10006.05	9120.75
878.2422	1349.2196	9993.35	9107.35
878.3862	1351.087	9974.55	9089.15
878.5303	1352.9537	10037.2	9152.2
878.6743	1354.8197	10149.8	9265.75
878.8184	1356.6849	10315.9	9431.65
878.9624	1358.5493	10476.2	9593.55
879.1064	1360.4131	10665.65	9783.9
879.2504	1362.276	10808.15	9923.65
879.3944	1364.1383	10851.05	9967.55
879.5384	1365.9998	10729.15	9838.85
879.6823	1367.8606	10474.8	9588.45
879.8263	1369.7206	10111.85	9227.1
879.9702	1371.5799	9816.9	8931.2
880.1142	1373.4384	9560.2	8676.65
880.2581	1375.2962	9318.4	8431.8
880.402	1377.1533	9012.25	8127.1
880.5459	1379.0096	8649.7	7763.3
880.6898	1380.8652	8352.85	7467.4
880.8337	1382.7201	8069.65	7185.85
880.9776	1384.5742	7831.2	6947.3
881.1215	1386.4275	7650.85	6763.3
881.2653	1388.2802	7521.1	6639.55
881.4092	1390.132	7412.05	6527.2
881.553	1391.9832	7359.4	6472.8
881.6968	1393.8336	7254.3	6369.25
881.8406	1395.6832	7233.6	6346.55
881.9844	1397.5322	7186.75	6301.85
882.1282	1399.3803	7176.95	6286.5
882.272	1401.2278	7123.45	6238.7
882.4158	1403.0745	7083.25	6199.8
882.5595	1404.9204	7052.95	6169.9
882.7033	1406.7656	7074.55	6190.55
882.847	1408.6101	7072.35	6186.15
882.9908	1410.4538	7080.3	6195.2
883.1345	1412.2968	7128.55	6245.2
883.2782	1414.139	7172.25	6287.8
883.4219	1415.9805	7236.6	6352.6
883.5656	1417.8213	7306.3	6416.15
883.7092	1419.6613	7378.35	6492.65
883.8529	1421.5006	7512.55	6627.2
883.9965	1423.3391	7702.55	6818.15
884.1402	1425.1769	7944.55	7058.8
884.2838	1427.0139	8368.75	7485.45
884.4274	1428.8502	8834.4	7947.75
884.571	1430.6858	9309.15	8426.65
884.7146	1432.5206	9655.8	8770.3
884.8582	1434.3547	9848.05	8964.15
885.0018	1436.188	9904.8	9020.2
885.1453	1438.0206	9820.05	8933.8
885.2889	1439.8524	9655.9	8772.15
885.4324	1441.6835	9531.6	8645.35
885.5759	1443.5139	9451	8562.5
885.7194	1445.3435	9389.4	8506.3
885.8629	1447.1724	9361.35	8477
886.0064	1449.0005	9312	8429.8
886.1499	1450.8279	9281.8	8398.05
886.2933	1452.6545	9280.85	8396.6
886.4368	1454.4804	9302.8	8419.45
886.5802	1456.3056	9298.35	8405.5
886.7237	1458.13	9224.45	8341.1
886.8671	1459.9536	9093.5	8205.5
887.0105	1461.7766	8853.05	7969.65
887.1539	1463.5987	8600.6	7714.05
887.2972	1465.4202	8276.7	7393.1
887.4406	1467.2409	7995.6	7110.3
887.584	1469.0608	7732.25	6848.45
887.7273	1470.88	7473.25	6588.1
887.8706	1472.6984	7275.6	6393
888.0139	1474.5161	7068.05	6181
888.1572	1476.3331	6943.45	6062.05
888.3005	1478.1493	6843.3	5957.5
888.4438	1479.9648	6769.4	5885.7
888.5871	1481.7795	6688.4	5806.15
888.7303	1483.5935	6639.85	5754.15
888.8736	1485.4067	6600.25	5715.65
889.0168	1487.2192	6544.95	5659.4
889.16	1489.031	6540.4	5655.15
889.3032	1490.842	6483.8	5600.25
889.4464	1492.6522	6445.75	5560.55
889.5896	1494.4618	6424.3	5536.9
889.7327	1496.2705	6389.45	5505.05
889.8759	1498.0785	6360.15	5475.35
890.019	1499.8858	6309.25	5426.75
890.1622	1501.6924	6287.2	5405.45
890.3053	1503.4981	6246.6	5361.4
890.4484	1505.3032	6217.85	5332.8
890.5914	1507.1075	6175.35	5289.4
890.7345	1508.911	6141.6	5258.3
890.8776	1510.7138	6095.6	5210.2
891.0206	1512.5159	6064.7	5180.35
891.1637	1514.3172	6009.9	5126.1
891.3067	1516.1178	5968.1	5084.55
891.4497	1517.9176	5952.9	5066.5
891.5927	1519.7166	5921.55	5038.8
891.7357	1521.515	5877.4	4988.3
891.8786	1523.3126	5863.6	4980.65
892.0216	1525.1094	5825.65	4938.9
892.1645	1526.9055	5822	4938.2
892.3074	1528.7008	5779.6	4895.3
892.4503	1530.4954	5776.85	4891.95
892.5932	1532.2893	5777.85	4895.6
892.7361	1534.0824	5730.3	4841.05
892.879	1535.8747	5702.15	4817.65
893.0218	1537.6663	5723.95	4838.75
893.1647	1539.4572	5713.8	4827
893.3075	1541.2473	5720.95	4838.05
893.4503	1543.0367	5715.35	4831.35
893.5931	1544.8253	5717	4829
893.7359	1546.6132	5738.8	4853.1
893.8787	1548.4003	5776.6	4881.7
894.0214	1550.1867	5817.4	4924.6
894.1642	1551.9723	5869.9	4981.25
894.3069	1553.7572	5967.25	5080.8
894.4496	1555.5414	6054.35	5171.05
894.5923	1557.3247	6191.8	5305.2
894.735	1559.1074	6354.5	5471.55
894.8777	1560.8893	6540.3	5657.25
895.0204	1562.6705	6702.5	5819.4
895.163	1564.4509	6835.85	5953.75
895.3056	1566.2305	6908.3	6024.85
895.4482	1568.0094	6975.45	6092.55
895.5908	1569.7876	7001.45	6117.55
895.7334	1571.565	6974.5	6091.2
895.876	1573.3417	6923.9	6042.5
896.0186	1575.1176	6929.7	6046.15
896.1611	1576.8928	6947.8	6062.5
896.3036	1578.6672	6966.2	6084.3
896.4461	1580.4409	7004.45	6121.55
896.5886	1582.2138	7041.9	6156.8
896.7311	1583.986	7138.1	6252.75
896.8736	1585.7575	7235.85	6355.9
897.0161	1587.5282	7318.65	6435.45
897.1585	1589.2981	7450.85	6568.9
897.3009	1591.0673	7554.6	6671.9
897.4433	1592.8358	7667.95	6784.8
897.5857	1594.6035	7752.95	6868.25
897.7281	1596.3704	7834	6950.3
897.8705	1598.1366	7905.05	7022.9
898.0128	1599.9021	7999.6	7117.8
898.1551	1601.6668	8054.2	7165.9
898.2975	1603.4308	8148.8	7265.25
898.4398	1605.194	8310.6	7421.8
898.5821	1606.9564	8477.6	7595.75
898.7243	1608.7182	8740.3	7851.2
898.8666	1610.4791	9029.55	8147.3
899.0088	1612.2394	9332.4	8448.6
899.1511	1613.9988	9671.45	8787.8
899.2933	1615.7576	9978.85	9098.25
899.4355	1617.5156	10218.25	9330.05
899.5776	1619.2728	10265.65	9383.3
899.7198	1621.0293	10171.75	9288.55
899.862	1622.785	9951.05	9061.1
900.0041	1624.54	9597.95	8714.45
900.1462	1626.2942	9231.35	8345.5
900.2883	1628.0477	8810.65	7925.35
900.4304	1629.8005	8435.65	7548.7
900.5725	1631.5525	8085.1	7202.4
900.7145	1633.3037	7769.1	6887.25
900.8566	1635.0542	7529.8	6647.95
900.9986	1636.804	7324.1	6440.7
901.1406	1638.553	7228.5	6290.6
901.2826	1640.3013	7080.95	6198.9
901.4245	1642.0488	7030.7	6146.95
901.5665	1643.7955	7038	6159.65
901.7085	1645.5416	7072.3	6190.55
901.8504	1647.2868	7139.4	6258
901.9923	1649.0313	7213.1	6330.05
902.1342	1650.7751	7342.25	6455.25
902.2761	1652.5181	7455.05	6569.4
902.4179	1654.2604	7590.9	6707.45
902.5598	1656.0019	7776.85	6894.75
902.7016	1657.7427	8010.95	7129.8
902.8434	1659.4828	8233.05	7348.75
902.9852	1661.222	8388.35	7505.15
903.127	1662.9606	8406.15	7523.4
903.2687	1664.6984	8221.45	7338.3
903.4105	1666.4354	7864	6979.9
903.5522	1668.1717	7371.75	6489.15
903.6939	1669.9072	6876.5	5993.85
903.8356	1671.642	6419.25	5535.2
903.9773	1673.3761	6063.75	5182.9
904.119	1675.1094	5775.35	4892.8
904.2606	1676.8419	5558.6	4677.75
904.4022	1678.5737	5369.7	4488.35
904.5439	1680.3048	5237.95	4356.1
904.6855	1682.0351	5128.1	4244.3
904.827	1683.7646	5010.85	4125.9
904.9686	1685.4934	4922.6	4039.55
905.1101	1687.2215	4871.5	3987.8
905.2517	1688.9488	4790.65	3908.1
905.3932	1690.6754	4744.1	3863.35
905.5347	1692.4012	4711.35	3832.3
905.6761	1694.1263	4663.85	3781.9
905.8176	1695.8506	4623.3	3741.25
905.9591	1697.5742	4585.85	3704.5
906.1005	1699.297	4550.8	3667.5
906.2419	1701.0191	4506.6	3624.1
906.3833	1702.7404	4479.3	3597.25
906.5246	1704.461	4452.35	3568.4
906.666	1706.1808	4412.2	3527.65
906.8073	1707.8999	4382.5	3501
906.9487	1709.6182	4352.95	3471.25
907.09	1711.3358	4345.95	3462.85
907.2313	1713.0527	4305.85	3424.85
907.3725	1714.7688	4317.85	3430.3
907.5138	1716.4841	4274.65	3389.8
907.655	1718.1987	4271.85	3385.2
907.7962	1719.9126	4240.85	3359.25
907.9374	1721.6257	4227	3342.65
908.0786	1723.338	4210.35	3325.75
908.2198	1725.0496	4196.45	3312.85
908.3609	1726.7605	4193.15	3309.8
908.502	1728.4706	4168.2	3284.55
908.6431	1730.18	4159.45	3274.15
908.7842	1731.8886	4131.15	3249.15
908.9253	1733.5964	4124.55	3237.85
909.0664	1735.3036	4098.35	3213.9
909.2074	1737.0099	4075.35	3192.45
909.3484	1738.7156	4083.5	3202.65
909.4894	1740.4204	4039.1	3153.8
909.6304	1742.1246	4039.15	3156.3
909.7714	1743.8279	4012.75	3130.6
909.9123	1745.5306	4002.2	3117.4
910.0532	1747.2325	3975.8	3091.3
910.1941	1748.9336	3951.55	3068.6
910.335	1750.634	3951.55	3067.35
910.4759	1752.3336	3931.4	3049.4
910.6168	1754.0325	3939.25	3058.25
910.7576	1755.7307	3921.9	3040.1
910.8984	1757.4281	3917.95	3034.65
911.0392	1759.1247	3897.35	3007.7
911.18	1760.8206	3913.05	3026.2
911.3208	1762.5158	3905.7	3018.3
911.4615	1764.2102	3871.7	2989.8
911.6022	1765.9039	3878.6	2997.15
911.7429	1767.5968	3856.75	2974.85
911.8836	1769.289	3860.45	2978.8
912.0243	1770.9804	3847.35	2964.6
912.1649	1772.6711	3827.95	2945.1
912.3056	1774.361	3821.1	2938.85
912.4462	1776.0502	3818.3	2935.35
912.5868	1777.7386	3809.35	2924.85
912.7274	1779.4263	3814.6	2932.2
912.8679	1781.1132	3785.75	2904.65
913.0084	1782.7994	3792.6	2906.9
913.149	1784.4849	3783.7	2900.95
913.2895	1786.1696	3804	2902.95
913.4299	1787.8535	3768.4	2886.35
913.5704	1789.5367	3746.95	2864.8
913.7108	1791.2192	3763.2	2879.95
913.8513	1792.9009	3740.1	2842.85
913.9917	1794.5818	3731.85	2850
914.132	1796.2621	3707.2	2825.2
914.2724	1797.9415	3717.15	2834.55
914.4128	1799.6202	3712.5	2832.25
914.5531	1801.2982	3691.25	2808.2
914.6934	1802.9755	3690.15	2808.35
914.8337	1804.6519	3699.9	2817.75
914.9739	1806.3277	3665.55	2783.35
915.1142	1808.0027	3655.1	2773.65
915.2544	1809.6769	3655.8	2771.5
915.3946	1811.3504	3648.7	2764.9
915.5348	1813.0231	3629.3	2746.15
915.675	1814.6951	3635.85	2753.8
915.8151	1816.3664	3642.75	2758.4
915.9553	1818.0369	3618.75	2736.4
916.0954	1819.7067	3625.8	2745.15
916.2355	1821.3757	3610.4	2726.3
916.3755	1823.044	3619.3	2738.1
916.5156	1824.7115	3609.45	2727.4
916.6556	1826.3783	3587.05	2705.95
916.7956	1828.0443	3577.1	2697.15
916.9356	1829.7096	3574.75	2691.3
917.0756	1831.3741	3568.6	2682.65
917.2155	1833.0379	3575.3	2693.05
917.3555	1834.701	3562.05	2677.1
917.4954	1836.3633	3561.8	2676.4
917.6353	1838.0248	3549.2	2664.45
917.7751	1839.6856	3535.65	2652.9
917.915	1841.3457	3541.4	2660.2
918.0548	1843.005	3539.4	2657.05
918.1946	1844.6636	3538.65	2657.95
918.3344	1846.3214	3517.6	2637.95
918.4742	1847.9785	3522.7	2640.7
918.6139	1849.6349	3505.5	2622
918.7537	1851.2904	3504.85	2614.75
918.8934	1852.9453	3504.95	2624.05
919.0331	1854.5994	3499.95	2615.2
919.1727	1856.2528	3502.65	2615.25
919.3124	1857.9054	3495.4	2613.3
919.452	1859.5572	3479.75	2596.8
919.5916	1861.2083	3475.4	2590.85
919.7312	1862.8587	3479.05	2597.5
919.8708	1864.5084	3471.4	2585.75
920.0103	1866.1572	3449.35	2568.45
920.1498	1867.8054	3447.25	2564.8
920.2893	1869.4528	3450.2	2569.45
920.4288	1871.0994	3424.8	2542.8
920.5683	1872.7453	3428.7	2546.2
920.7077	1874.3905	3427.55	2528.3
920.8471	1876.0349	3426.05	2542.2
920.9865	1877.6786	3416.7	2533.65
921.1259	1879.3215	3422.25	2543.3
921.2653	1880.9637	3409.05	2525.1
921.4046	1882.6051	3392.8	2509.65
921.5439	1884.2458	3392.9	2508.65
921.6832	1885.8858	3388.35	2505.6
921.8225	1887.525	3366.85	2482.85
921.9617	1889.1634	3357.9	2477.35
922.101	1890.8011	3346.05	2462.25
922.2402	1892.4381	3352	2471
922.3794	1894.0743	3352.6	2473
922.5185	1895.7098	3350.8	2468.7
922.6577	1897.3446	3323.85	2441.2
922.7968	1898.9786	3327.85	2442.1
922.9359	1900.6118	3329.4	2449.65
923.075	1902.2443	3306.7	2422.55
923.214	1903.8761	3303.1	2420.7
923.3531	1905.5071	3291.55	2407.95
923.4921	1907.1374	3284.55	2403.05
923.6311	1908.7669	3295.85	2414.95
923.77	1910.3957	3276.45	2393
923.909	1912.0237	3253.35	2369.5
924.0479	1913.651	3260.3	2377.75
924.1868	1915.2776	3255.2	2374.6
924.3257	1916.9034	3247.15	2366.1
924.4646	1918.5285	3227.3	2344.8
924.6034	1920.1528	3222.8	2339.75
924.7422	1921.7764	3219.95	2338.05
924.881	1923.3992	3216.4	2334.95
925.0198	1925.0213	3199.2	2317.1
925.1586	1926.6427	3195.2	2315
925.2973	1928.2633	3278.55	2290.55
925.436	1929.8832	3202.85	2319.2
925.5747	1931.5023	3181.15	2298.45
925.7134	1933.1207	3171.2	2290.15
925.852	1934.7383	3163.15	2279.6
925.9906	1936.3552	3149	2266
926.1292	1937.9714	3154.65	2273.35
926.2678	1939.5868	3132.6	2247.95
926.4064	1941.2015	3119.5	2236.8
926.5449	1942.8154	3109.85	2227.75
926.6834	1944.4286	3112.95	2231.5
926.8219	1946.041	3118.25	2211.7
926.9604	1947.6528	3088.7	2202.05
927.0988	1949.2637	3079.9	2198.45
927.2372	1950.8739	3076.45	2192.9
927.3756	1952.4834	3070.45	2186.25
927.514	1954.0921	3065.55	2184.5
927.6523	1955.7001	3056.45	2169
927.7907	1957.3074	3052.4	2169.85
927.929	1958.9139	3047.45	2165.7
928.0673	1960.5197	3036.3	2153.65
928.2055	1962.1247	3012.05	2131.1
928.3438	1963.729	3018.35	2138.1
928.482	1965.3325	3014.6	2107
928.6202	1966.9353	3005.25	2124.9
928.7584	1968.5374	2993.35	2111.5
928.8965	1970.1387	2987.9	2105.1
929.0346	1971.7393	2978.1	2095.15
929.1727	1973.3392	2977.05	2093.35
929.3108	1974.9383	2959.35	2077.05
929.4489	1976.5366	2959.15	2077.85
929.5869	1978.1342	2955.35	2073.4
929.7249	1979.7311	2949.55	2066.75
929.8629	1981.3273	2942.3	2060.05
930.0009	1982.9227	2939.75	2055.1
930.1388	1984.5173	2931.65	2050.15
930.2767	1986.1112	2923.65	2041.25
930.4146	1987.7044	2916.4	2035.5
930.5525	1989.2968	2908.8	2024.45
930.6904	1990.8885	2920.2	2034.9
930.8282	1992.4795	2906.8	2023.5
930.966	1994.0697	2900.5	2019.4
931.1038	1995.6592	2885	2002.7
931.2415	1997.2479	2885.15	2003.3
931.3793	1998.8359	2875.3	1992.5
931.517	2000.4232	2873.35	1990.9
931.6547	2002.0097	2861.05	1980.45
931.7923	2003.5955	2849.65	1967.35
931.93	2005.1805	2857.3	1971.7
932.0676	2006.7648	2859.85	1976.85
932.2052	2008.3484	2847.75	1964.1
932.3427	2009.9312	2854.1	1969.35
932.4803	2011.5133	2831.6	1948.9
932.6178	2013.0946	2827.85	1946.15
932.7553	2014.6752	2830.45	1950.25
932.8928	2016.2551	2824.3	1941.6
933.0302	2017.8342	2821.2	1938.3
933.1676	2019.4126	2800.2	1916.9
933.305	2020.9902	2804.25	1922.05
933.4424	2022.5672	2792.15	1906.45
933.5798	2024.1433	2792.3	1903.2
933.7171	2025.7188	2793.55	1910
933.8544	2027.2935	2788.65	1905.3
933.9917	2028.8674	2774.65	1891.45
934.129	2030.4406	2771.25	1891.15
934.2662	2032.0131	2764.9	1882.05
934.4034	2033.5849	2764.1	1876.95
934.5406	2035.1559	2752.35	1872.1
934.6778	2036.7261	2738.85	1855.85
934.8149	2038.2957	2741	1857.65
934.952	2039.8645	2737.45	1855.15
935.0891	2041.4325	2749.85	1865
935.2262	2042.9998	2728.5	1847.05
935.3632	2044.5664	2729	1842.95
935.5002	2046.1323	2721.2	1840
935.6372	2047.6974	2717.25	1835.7
935.7742	2049.2617	2715.65	1833.2
935.9111	2050.8254	2733.6	1814.65
936.048	2052.3883	2710.65	1827.85
936.1849	2053.9504	2695.3	1811.55
936.3218	2055.5118	2687.2	1806.45
936.4586	2057.0725	2684.25	1795
936.5955	2058.6325	2696.25	1812.35
936.7323	2060.1917	2682.3	1800.3
936.869	2061.7502	2667.75	1783.45
937.0058	2063.3079	2668.9	1788.1
937.1425	2064.8649	2657.9	1770.85
937.2792	2066.4212	2656.35	1775.15
937.4159	2067.9767	2635.1	1753.1
937.5525	2069.5315	2639.95	1755.95
937.6891	2071.0856	2646.15	1762.7
937.8257	2072.6389	2622.7	1740.65
937.9623	2074.1915	2616.4	1735.8
938.0989	2075.7433	2610.95	1727.2
938.2354	2077.2945	2613.8	1733.2
938.3719	2078.8448	2603.15	1721.45
938.5084	2080.3945	2582.2	1699.95
938.6448	2081.9434	2589.4	1709.95
938.7812	2083.4916	2595.05	1713.55
938.9176	2085.039	2586.9	1704.15
939.054	2086.5857	2582.2	1698.55
939.1903	2088.1317	2578.65	1695.75
939.3267	2089.677	2570.85	1687.55
939.463	2091.2215	2563.05	1679.55
939.5992	2092.7652	2563.6	1679
939.7355	2094.3083	2555.6	1675.2
939.8717	2095.8506	2543.4	1661.25
940.0079	2097.3921	2550.85	1669.3
940.1441	2098.933	2549.35	1668.4
940.2802	2100.4731	2541.1	1657.3
940.4163	2102.0124	2558.75	1660.35
940.5524	2103.5511	2529.9	1647
940.6885	2105.089	2526.3	1642.2
940.8245	2106.6261	2535.1	1653.45
940.9606	2108.1626	2534.5	1652
941.0965	2109.6983	2548	1636.9
941.2325	2111.2332	2517.1	1633.85
941.3684	2112.7675	2518.7	1634.5
941.5044	2114.301	2507	1624.1
941.6403	2115.8337	2508.5	1624
941.7761	2117.3657	2504.45	1622.4
941.912	2118.897	2508.5	1626.55
942.0478	2120.4276	2488	1601.8
942.1835	2121.9575	2489.75	1607.45
942.3193	2123.4866	2483.85	1588.75
942.455	2125.0149	2472.2	1587.45
942.5907	2126.5426	2474.85	1591.3
942.7264	2128.0695	2479.6	1591.45
942.8621	2129.5956	2469.85	1587.6
942.9977	2131.1211	2465.85	1578.45
943.1333	2132.6458	2455.85	1574.45
943.2689	2134.1698	2452.4	1570.65
943.4044	2135.693	2440.35	1554.8
943.54	2137.2155	2442.05	1557.35
943.6755	2138.7373	2449	1566.85
943.8109	2140.2584	2451.1	1569.2
943.9464	2141.7787	2434.7	1544.2
944.0818	2143.2983	2415.6	1534.5
944.2172	2144.8171	2413.35	1530.9
944.3526	2146.3353	2418.95	1535
944.4879	2147.8527	2404.15	1521
944.6232	2149.3693	2403.55	1521.4
944.7585	2150.8853	2406.55	1523.9
944.8938	2152.4005	2406.3	1524.55
945.029	2153.9149	2399.45	1517.3
945.1642	2155.4287	2392.85	1511.25
945.2994	2156.9417	2395.3	1512.7
945.4346	2158.454	2398.4	1513.8
945.5697	2159.9655	2376.1	1492.05
945.7048	2161.4764	2377.6	1493.95
945.8399	2162.9865	2373	1488.7
945.9749	2164.4958	2366.85	1485.05
946.1099	2166.0045	2369.05	1484.05
946.2449	2167.5124	2360.4	1477.7
946.3799	2169.0195	2356.7	1474.85
946.5148	2170.526	2353.55	1470.25
946.6498	2172.0317	2340.95	1460.25
946.7846	2173.5367	2353.1	1468.65
946.9195	2175.0409	2345.9	1463.05
947.0543	2176.5445	2334.15	1451.05
947.1891	2178.0473	2335.7	1453.95
947.3239	2179.5494	2328.15	1442.5
947.4587	2181.0507	2334.45	1451.95
947.5934	2182.5513	2312.4	1428.95
947.7281	2184.0512	2319.25	1435.35
947.8628	2185.5504	2308.5	1426.4
947.9974	2187.0488	2302.65	1421.75
948.132	2188.5465	2297.65	1414.9
948.2666	2190.0435	2289.9	1405.6
948.4012	2191.5397	2298.9	1416.25
948.5357	2193.0353	2286.15	1404.4
948.6702	2194.5301	2287.55	1404.5
948.8047	2196.0241	2286.9	1405
948.9392	2197.5175	2282.6	1399.9
949.0736	2199.0101	2278.9	1394.15
949.208	2200.502	2260.45	1377.7
949.3424	2201.9931	2271.4	1390.2
949.4767	2203.4835	2275	1390.55
949.611	2204.9733	2263.6	1374.2
949.7453	2206.4622	2260.75	1378.7
949.8796	2207.9505	2240.35	1354.85
950.0138	2209.438	2239.5	1360.15
950.148	2210.9248	2234.35	1348.75
950.2822	2212.4109	2239.45	1357.8
950.4164	2213.8962	2226.25	1342.3
950.5505	2215.3809	2225.8	1344.6
950.6846	2216.8648	2231.85	1348.7
950.8186	2218.3479	2216.55	1328.7
950.9527	2219.8304	2210.9	1326.55
951.0867	2221.3121	2209.85	1326.3
951.2207	2222.7931	2194.1	1310.5
951.3546	2224.2733	2200.6	1318.15
951.4886	2225.7529	2188.45	1305.75
951.6225	2227.2317	2186.4	1299.45
951.7563	2228.7098	2195.25	1314.65
951.8902	2230.1872	2177.65	1294.05
952.024	2231.6638	2178.05	1294.9
952.1578	2233.1397	2178.85	1292
952.2916	2234.6149	2167.6	1285.7
952.4253	2236.0894	2163	1278.45
952.559	2237.5632	2178.25	1286.35
952.6927	2239.0362	2155.85	1272.55
952.8263	2240.5085	2156.6	1274.1
952.9599	2241.9801	2142.2	1259.25
953.0935	2243.4509	2150.65	1268.45
953.2271	2244.921	2141.85	1258.95
953.3606	2246.3904	2126.25	1241.05
953.4941	2247.8591	2135.75	1253.65
953.6276	2249.3271	2122.6	1240.45
953.7611	2250.7943	2114.25	1231.85
953.8945	2252.2608	2101.6	1220.35
954.0279	2253.7266	2110.5	1228.55
954.1612	2255.1917	2110.4	1228.6
954.2946	2256.656	2111.15	1226
954.4279	2258.1197	2092.4	1209.8
954.5612	2259.5826	2101.7	1215.4
954.6944	2261.0447	2106.15	1222.9
954.8276	2262.5062	2094.95	1211.05
954.9608	2263.9669	2083.3	1199.25
955.094	2265.4269	2078.05	1197.15
955.2271	2266.8862	2082.65	1199.55
955.3602	2268.3448	2081.2	1199.3
955.4933	2269.8026	2078.5	1197
955.6264	2271.2598	2076.55	1192.9
955.7594	2272.7162	2063.25	1181.55
955.8924	2274.1719	2062.75	1179.25
956.0253	2275.6268	2052.75	1172
956.1583	2277.0811	2061.1	1177.05
956.2912	2278.5346	2061	1178.9
956.4241	2279.9874	2062.2	1180.65
956.5569	2281.4395	2059.3	1177.35
956.6897	2282.8908	2059.6	1172.1
956.8225	2284.3414	2054.45	1172.25
956.9553	2285.7914	2044.7	1161.85
957.088	2287.2406	2040.7	1156.4
957.2207	2288.689	2039.25	1158.4
957.3534	2290.1368	2043.05	1159.1
957.486	2291.5838	2040.45	1158.8
957.6186	2293.0302	2032.65	1149.15
957.7512	2294.4758	2027.95	1147.9
957.8838	2295.9206	2021.55	1139.1
958.0163	2297.3648	2015.15	1133.95
958.1488	2298.8082	2013.95	1129.7
958.2813	2300.251	2017.55	1136.15
958.4137	2301.693	2016.45	1133.2
958.5461	2303.1343	2016.85	1132.9
958.6785	2304.5748	2004.2	1123.9
958.8108	2306.0147	2001.4	1118
958.9432	2307.4538	2003.5	1117.95
959.0754	2308.8922	1998.95	1117.35
959.2077	2310.3299	1992	1110.9
959.3399	2311.7669	1990.5	1105.85
959.4721	2313.2031	1984.75	1101.95
959.6043	2314.6387	1984.55	1101.85
959.7365	2316.0735	1970.45	1087.2
959.8686	2317.5076	1972.95	1091.85
960.0006	2318.941	1969.35	1084.95
960.1327	2320.3737	1972	1089.75
960.2647	2321.8056	1974.25	1090.6
960.3967	2323.2369	1964.7	1081.75
960.5287	2324.6674	1962.3	1078.8
960.6606	2326.0972	1961.35	1078.15
960.7925	2327.5263	1960.75	1079.6
960.9244	2328.9547	1958.6	1076.85
961.0562	2330.3823	1954.65	1072.9
961.1881	2331.8092	1956.55	1069.6
961.3198	2333.2355	1933.35	1051.25
961.4516	2334.661	1941.1	1058.25
961.5833	2336.0858	1944.55	1058.2
961.715	2337.5098	1930.05	1047.2
961.8467	2338.9332	1928.4	1044.05
961.9783	2340.3558	1932.6	1045.6
962.1099	2341.7778	1917.6	1035.65
962.2415	2343.199	1926.85	1041.25
962.373	2344.6195	1924.4	1042.05
962.5045	2346.0393	1918.75	1035.45
962.636	2347.4583	1916.3	1033.2
962.7675	2348.8767	1921.5	1037.65
962.8989	2350.2943	1917.1	1034.95
963.0303	2351.7113	1918.85	1033.6
963.1617	2353.1275	1908.5	1028.05
963.293	2354.543	1925.4	1018.75
963.4243	2355.9578	1903.7	1021.6
963.5556	2357.3718	1895.7	1015.7
963.6868	2358.7852	1900.85	1016.05
963.818	2360.1978	1887.8	1003.85
963.9492	2361.6098	1885.1	1004.75
964.0803	2363.021	1891.55	1003.9
964.2114	2364.4315	1890	1008.5
964.3425	2365.8413	1889.05	1005.25
964.4736	2367.2504	1880	999.15
964.6046	2368.6587	1885.7	1000
964.7356	2370.0664	1871.65	990.45
964.8666	2371.4733	1879.1	997.15
964.9975	2372.8795	1873.65	990.85
965.1284	2374.285	1869.35	987.2
965.2593	2375.6899	1853.45	971.9
965.3901	2377.0939	1866.65	985.6
965.5209	2378.4973	1859.35	977
965.6517	2379.9	1855.25	970.2
965.7825	2381.3019	1845.1	963.2
965.9132	2382.7032	1840.1	956.2
966.0439	2384.1037	1848.15	967.1
966.1745	2385.5035	1834.4	952.7
966.3051	2386.9027	1836.05	954.45
966.4357	2388.3011	1837.7	952.4
966.5663	2389.6987	1823	940
966.6968	2391.0957	1826.1	944.65
966.8273	2392.492	1827.2	944.4
966.9578	2393.8876	1815.65	931
967.0882	2395.2824	1820.25	936.4
967.2186	2396.6765	1810.85	931.6
967.349	2398.07	1816.25	934
967.4793	2399.4627	1804.1	920.05
967.6097	2400.8547	1803.65	919.1
967.7399	2402.246	1809.15	921.55
967.8702	2403.6366	1801.35	918.9
968.0004	2405.0265	1796.1	913.7
968.1306	2406.4156	1791.7	907.05
968.2607	2407.8041	1789.25	903.95
968.3909	2409.1918	1794.35	909.3
968.521	2410.5789	1782.85	900.5
968.651	2411.9652	1782.5	896.85
968.781	2413.3508	1773.5	894
968.911	2414.7358	1775.95	891.8
969.041	2416.12	1772.9	891.85
969.1709	2417.5035	1769.8	888.35
969.3008	2418.8863	1771.65	890.65
969.4307	2420.2684	1758.15	876.65
969.5606	2421.6497	1763	880.4
969.6904	2423.0304	1754.2	872.2
969.8201	2424.4104	1755.6	871.4
969.9499	2425.7896	1760.35	872.6
970.0796	2427.1682	1754.6	873.8
970.2093	2428.546	1747.15	863.05
970.3389	2429.9232	1752	868.6
970.4685	2431.2996	1749.75	870.4
970.5981	2432.6753	1744.6	862.4
970.7277	2434.0503	1738.6	855.45
970.8572	2435.4246	1737.25	856.55
970.9867	2436.7982	1736.2	851.8
971.1161	2438.1711	1733.25	852.9
971.2456	2439.5433	1734.7	853.25
971.375	2440.9148	1724	835.9
971.5043	2442.2856	1732.4	851.55
971.6336	2443.6557	1725.65	841.1
971.7629	2445.025	1715.9	834.2
971.8922	2446.3937	1714.4	831.45
972.0214	2447.7617	1705.95	823.9
972.1506	2449.1289	1711.75	831.15
972.2798	2450.4955	1706.85	821.15
972.4089	2451.8613	1708.65	827.15
972.538	2453.2265	1706.2	823
972.6671	2454.5909	1708.15	824.8
972.7961	2455.9546	1701.95	821.75
972.9251	2457.3177	1688.65	807
973.0541	2458.68	1694.3	809.4
973.1831	2460.0416	1686	804.25
973.312	2461.4025	1702.7	820.4
973.4408	2462.7627	1704.05	808.4
973.5697	2464.1222	1687.05	806.25
973.6985	2465.4811	1686.55	803.15
973.8273	2466.8392	1681.45	800.35
973.956	2468.1966	1682.3	797.8
974.0847	2469.5533	1686.45	803.5
974.2134	2470.9093	1681.8	800.65
974.3421	2472.2645	1682.25	799.3
974.4707	2473.6191	1677.65	795.85
974.5993	2474.973	1675.75	794.15
974.7278	2476.3262	1684.15	800.6
974.8563	2477.6787	1675.9	793.9
974.9848	2479.0305	1676.15	794.1
975.1132	2480.3816	1667.1	782.3
975.2417	2481.7319	1661.35	780.3
975.37	2483.0816	1663.45	779.7
975.4984	2484.4306	1668.6	785.7
975.6267	2485.7789	1660.45	779.4
975.755	2487.1264	1652.35	768.2
975.8833	2488.4733	1644.85	764.75
976.0115	2489.8195	1656.45	757.2
976.1397	2491.165	1647.9	764.05
976.2678	2492.5097	1647.35	763.75
976.3959	2493.8538	1639.2	758.6
976.524	2495.1972	1631.75	748.6
976.6521	2496.5398	1646.35	763.4
976.7801	2497.8818	1633.4	750.05
976.9081	2499.2231	1639.85	757.4
977.036	2500.5637	1630.35	747.75
977.164	2501.9035	1626.85	744.3
977.2918	2503.2427	1628.55	743.65
977.4197	2504.5812	1618.05	735.2
977.5475	2505.919	1620.35	736.55
977.6753	2507.256	1618.35	736.75
977.8031	2508.5924	1614.95	731.55
977.9308	2509.9281	1621.1	733.75
978.0585	2511.2631	1605.35	724.05
978.1861	2512.5974	1603	721.2
978.3137	2513.9309	1617.85	737.1
978.4413	2515.2638	1636.5	722.9
978.5689	2516.596	1611.65	731.15
978.6964	2517.9275	1601.15	718.4
978.8239	2519.2583	1604.75	721.7
978.9513	2520.5884	1598.35	713.6
979.0788	2521.9178	1599.5	715.05
979.2062	2523.2465	1590.85	708.85
979.3335	2524.5745	1596.4	714
979.4608	2525.9018	1592.2	709.6
979.5881	2527.2284	1590.95	710.3
979.7154	2528.5543	1588.05	705
979.8426	2529.8796	1584.8	702.55
979.9698	2531.2041	1590.6	708.7
980.0969	2532.5279	1587.55	707.45
980.224	2533.851	1583.85	699.4
980.3511	2535.1735	1583.35	700.15
980.4781	2536.4952	1576.2	692.95
980.6052	2537.8163	1579.75	695.35
980.7321	2539.1366	1577.7	695.65
980.8591	2540.4562	1576.95	693.3
980.986	2541.7752	1574.7	692.7
981.1129	2543.0935	1576.45	694.15
981.2397	2544.411	1569.65	688.7
981.3665	2545.7279	1569.6	688.6
981.4933	2547.0441	1577.1	693.55
981.62	2548.3596	1570.65	683.5
981.7467	2549.6744	1559.6	677.65
981.8734	2550.9885	1574.95	683.3
982.0001	2552.3019	1567.25	683.3
982.1267	2553.6146	1562.55	679.85
982.2532	2554.9266	1558.7	675.8
982.3798	2556.2379	1565.45	681.9
982.5063	2557.5485	1555.45	675.55
982.6327	2558.8585	1562.3	674.55
982.7592	2560.1677	1560.4	675.05
982.8856	2561.4762	1556.6	676.65
983.0119	2562.7841	1557.35	669.95
983.1383	2564.0913	1556.35	675.95
983.2646	2565.3977	1554.55	671.2
983.3908	2566.7035	1544.05	662.85
983.517	2568.0086	1547.45	663.7
983.6432	2569.313	1551.4	669.45
983.7694	2570.6167	1551.45	668.55
983.8955	2571.9197	1546.25	665.45
984.0216	2573.222	1547.8	663
984.1476	2574.5236	1548	664.55
984.2737	2575.8246	1549.4	663.85
984.3996	2577.1248	1541.05	657.8
984.5256	2578.4244	1538.15	656.8
984.6515	2579.7232	1535.65	653.8
984.7774	2581.0214	1573.75	658.6
984.9032	2582.3189	1541.5	660.5
985.029	2583.6157	1547.9	663
985.1548	2584.9118	1543.15	660.6
985.2806	2586.2072	1534.7	652.65
985.4063	2587.5019	1542.85	661.35
985.5319	2588.7959	1541.2	657.5
985.6576	2590.0893	1542.7	658
985.7832	2591.3819	1542.3	661.65
985.9087	2592.6739	1540.4	659.9
986.0343	2593.9652	1540.2	656.75
986.1597	2595.2557	1537.35	655.6
986.2852	2596.5456	1540.4	658
986.4106	2597.8348	1535.1	654.15
986.536	2599.1234	1538.3	654.75
986.6614	2600.4112	1532.9	650.95
986.7867	2601.6983	1542.05	654.7
986.912	2602.9848	1546.95	664.85
987.0372	2604.2705	1535.3	646.6
987.1624	2605.5556	1529.3	646.95
987.2876	2606.84	1530.55	650.1
987.4128	2608.1237	1527.8	644.3
987.5379	2609.4067	1522.45	643.15
987.6629	2610.689	1527.15	638
987.788	2611.9707	1528.4	642.7
987.913	2613.2516	1525.4	638.85
988.0379	2614.5319	1510.3	629.35
988.1629	2615.8115	1514.15	631.3
988.2878	2617.0903	1507.1	625.15
988.4126	2618.3685	1503.45	620.95
988.5375	2619.6461	1508.4	627.75
988.6622	2620.9229	1501.95	619.3
988.787	2622.199	1503.2	619.05
988.9117	2623.4745	1507.4	624.65
989.0364	2624.7493	1502.95	622.75
989.161	2626.0234	1495.95	615.35
989.2857	2627.2968	1492.7	611.75
989.4102	2628.5695	1500.8	617
989.5348	2629.8415	1486.5	604.1
989.6593	2631.1128	1492.1	608.4
989.7837	2632.3835	1495.45	615.6
989.9082	2633.6535	1483.65	600.4
990.0326	2634.9228	1490.3	608.9
990.1569	2636.1914	1482.7	601.25
990.2812	2637.4593	1483.3	599.45
990.4055	2638.7265	1480.8	598.4
990.5298	2639.9931	1480.2	599.7
990.654	2641.259	1479.5	596.25
990.7782	2642.5242	1478.5	594.6
990.9023	2643.7887	1473.8	591.5
991.0264	2645.0525	1476.1	596.15
991.1505	2646.3156	1469.85	587.3
991.2745	2647.5781	1469.3	588.9
991.3985	2648.8398	1469.1	588
991.5225	2650.1009	1496.7	575.75
991.6464	2651.3613	1463.35	581.45
991.7703	2652.6211	1466.55	585.6
991.8942	2653.8801	1457.85	575.75
992.018	2655.1385	1464.2	579.5
992.1418	2656.3961	1458.45	578
992.2655	2657.6531	1459.2	577.95
992.3892	2658.9094	1462.85	582.95
992.5129	2660.1651	1456.45	576
992.6366	2661.42	1465.45	584.85
992.7602	2662.6743	1467.15	582.4
992.8837	2663.9279	1468.9	587.7
993.0073	2665.1808	1460.6	578.9
993.1307	2666.433	1466.35	583
993.2542	2667.6846	1470.9	590.4
993.3776	2668.9354	1473.2	589.7
993.501	2670.1856	1472.4	590.05
993.6244	2671.4351	1478.15	597.8
993.7477	2672.6839	1477.05	594.5
993.8709	2673.9321	1465.5	583.85
993.9942	2675.1795	1479.3	596.2
994.1174	2676.4263	1479	598.7
994.2405	2677.6724	1478.55	596.9
994.3637	2678.9179	1478.05	595.15
994.4868	2680.1626	1471.95	589.85
994.6098	2681.4067	1477.25	595.35
994.7328	2682.6501	1476.4	595.8
994.8558	2683.8928	1469.05	588.1
994.9788	2685.1348	1468.25	586.6
995.1017	2686.3761	1460.4	579.5
995.2245	2687.6168	1458.15	574.8
995.3474	2688.8568	1456.45	574.5
995.4702	2690.0961	1447.95	566.2
995.5929	2691.3348	1451.1	569.05
995.7156	2692.5727	1449.5	568.55
995.8383	2693.81	1449.85	569
995.961	2695.0466	1450.3	570.6
996.0836	2696.2826	1441.75	560.4
996.2062	2697.5178	1447.1	559.9
996.3287	2698.7524	1443	561.4
996.4512	2699.9863	1449.35	563.45
996.5737	2701.2195	1448.25	568.35
996.6961	2702.452	1451.2	568
996.8185	2703.6839	1457.35	574.7
996.9408	2704.9151	1459.75	578.25
997.0631	2706.1456	1455.05	574.25
997.1854	2707.3755	1461.35	577.55
997.3077	2708.6046	1469.4	584.95
997.4299	2709.8331	1482.8	599.4
997.552	2711.0609	1473.3	591.7
997.6742	2712.2881	1479.45	597.2
997.7963	2713.5145	1496.8	611.65
997.9183	2714.7403	1492.9	611.55
998.0403	2715.9654	1508.85	626
998.1623	2717.1899	1532.15	635.35
998.2842	2718.4136	1528.2	647.65
998.4062	2719.6367	1539.8	655.8
998.528	2720.8591	1542.9	655.6
998.6498	2722.0809	1548.1	665.1
998.7716	2723.3019	1568.25	681.55
998.8934	2724.5223	1563.35	679.95
999.0151	2725.7421	1583.5	700.65
999.1368	2726.9611	1580.6	695.5
999.2584	2728.1795	1574.95	687.4
999.38	2729.3972	1566.35	684.65
999.5016	2730.6142	1566.7	672.5
999.6231	2731.8306	1551.25	666.1
999.7446	2733.0462	1529.35	645.5
999.8661	2734.2612	1526.5	640.15
999.9875	2735.4756	1493.85	611.5
1000.1089	2736.6892	1490.45	607.65
1000.2302	2737.9022	1475.25	594.25
1000.3515	2739.1145	1456.3	574.4
1000.4728	2740.3262	1466.3	576.5
1000.594	2741.5372	1444.7	565.6
1000.7152	2742.7475	1436.25	555.15
1000.8363	2743.9571	1435.45	552.3
1000.9575	2745.1661	1424.25	537.05
1001.0785	2746.3744	1414.55	529.9
1001.1996	2747.582	1403.55	518.75
1001.3206	2748.7889	1405.5	523.15
1001.4415	2749.9952	1398.45	516.15
1001.5625	2751.2008	1395.9	512.9
1001.6833	2752.4057	1382.15	497.8
1001.8042	2753.61	1384.2	501.1
1001.925	2754.8136	1379	496.1
1002.0458	2756.0165	1378.15	495.5
1002.1665	2757.2188	1365.6	484.8
1002.2872	2758.4204	1367.5	485.65
1002.4078	2759.6213	1375.75	491.65
1002.5285	2760.8215	1385.2	496.5
1002.649	2762.0211	1371.75	487.25
1002.7696	2763.22	1375.95	490.35
1002.8901	2764.4182	1373.05	488.55
1003.0106	2765.6158	1367.95	484.55
1003.131	2766.8127	1366.7	482.6
1003.2514	2768.009	1359.85	479.15
1003.3717	2769.2045	1366.85	485.8
1003.492	2770.3994	1362.8	476.55
1003.6123	2771.5936	1358.7	475.9
1003.7325	2772.7872	1352.4	471.85
1003.8527	2773.9801	1354.2	471.3
1003.9729	2775.1723	1365.9	466.2
1004.093	2776.3639	1345.65	464.9
1004.2131	2777.5548	1348.8	464.9
1004.3331	2778.745	1340.1	457.8
1004.4531	2779.9346	1338.7	457.2
1004.5731	2781.1235	1346.75	466
1004.693	2782.3117	1345	464.3
1004.8129	2783.4992	1346.25	463.35
1004.9328	2784.6861	1353.2	470.65
1005.0526	2785.8723	1357.6	472.2
1005.1723	2787.0579	1357.9	474.95
1005.2921	2788.2428	1356.8	475.6
1005.4118	2789.427	1363.2	480.8
1005.5314	2790.6106	1361.9	479.4
1005.651	2791.7935	1367.9	483.7
1005.7706	2792.9757	1372.15	490.4
1005.8902	2794.1573	1383.95	499.6
1006.0097	2795.3382	1397.4	515.1
1006.1291	2796.5184	1388.95	507.9
1006.2485	2797.698	1411.55	528.25
1006.3679	2798.8769	1405.4	524.55
1006.4873	2800.0551	1426	544.5
1006.6066	2801.2327	1432.85	548.95
1006.7258	2802.4096	1436.8	557.4
1006.8451	2803.5859	1452.9	568.75
1006.9642	2804.7615	1463.45	579.7
1007.0834	2805.9364	1479.75	599.4
1007.2025	2807.1106	1497.65	615.05
1007.3216	2808.2842	1529.75	647.5
1007.4406	2809.4572	1538.35	656.45
1007.5596	2810.6294	1573.2	690.55
1007.6785	2811.801	1591.7	711.55
1007.7975	2812.972	1625.45	742.4
1007.9163	2814.1423	1654.4	771.6
1008.0352	2815.3119	1693	810.65
1008.154	2816.4808	1732.75	850.6
1008.2727	2817.6491	1780.9	896.55
1008.3914	2818.8167	1827	944.45
1008.5101	2819.9837	1879.25	992.05
1008.6288	2821.15	1926.25	1043.7
1008.7474	2822.3157	1973.65	1092.7
1008.8659	2823.4807	2023.2	1141.3
1008.9844	2824.645	2084.45	1198.65
1009.1029	2825.8086	2122.25	1242.15
1009.2214	2826.9716	2170.2	1288.5
1009.3398	2828.134	2220.25	1340.35
1009.4581	2829.2957	2248.75	1366.75
1009.5764	2830.4567	2290.6	1407.55
1009.6947	2831.617	2326.05	1442.65
1009.813	2832.7767	2342.7	1460.2
1009.9312	2833.9358	2330.7	1448.35
1010.0493	2835.0941	2331.45	1447.15
1010.1675	2836.2519	2308.9	1427.15
1010.2855	2837.4089	2282.25	1399.3
1010.4036	2838.5653	2275.4	1393
1010.5216	2839.7211	2254.95	1372.7
1010.6396	2840.8761	2252.75	1369.6
1010.7575	2842.0306	2262.35	1381.8
1010.8754	2843.1843	2289.3	1405.75
1010.9932	2844.3374	2300.65	1419.25
1011.111	2845.4899	2330.65	1445.95
1011.2288	2846.6417	2375.4	1494.3
1011.3465	2847.7928	2424.9	1544.1
1011.4642	2848.9433	2479.35	1596.7
1011.5818	2850.0931	2521.7	1641.4
1011.6995	2851.2422	2568.35	1684.5
1011.817	2852.3907	2624	1741.6
1011.9345	2853.5385	2678.45	1795.4
1012.052	2854.6857	2736.55	1826.5
1012.1695	2855.8323	2759.75	1877.3
1012.2869	2856.9781	2796.05	1914.45
1012.4042	2858.1233	2841.9	1959.45
1012.5216	2859.2679	2880.95	1998.05
1012.6389	2860.4118	2929.25	2046.7
1012.7561	2861.555	2982.9	2097.75
1012.8733	2862.6976	3018.15	2134.15
1012.9905	2863.8395	3049.85	2166.95
1013.1076	2864.9808	3073.6	2190.15
1013.2247	2866.1214	3083.95	2202.95
1013.3417	2867.2614	3113.25	2231.25
1013.4587	2868.4007	3122	2237.4
1013.5757	2869.5393	3150.8	2267.2
1013.6926	2870.6773	3150	2265.3
1013.8095	2871.8146	3164.2	2280.8
1013.9263	2872.9513	3156.7	2273
1014.0431	2874.0874	3148.2	2266.25
1014.1599	2875.2227	3136.5	2253.5
1014.2766	2876.3574	3132.55	2251.25
1014.3933	2877.4915	3100.1	2220.25
1014.51	2878.6249	3077.7	2196.5
1014.6266	2879.7577	3066.45	2184.05
1014.7431	2880.8898	3052	2158.1
1014.8596	2882.0212	3027.2	2145.4
1014.9761	2883.152	3004.3	2120.6
1015.0925	2884.2821	2999.65	2117.25
1015.2089	2885.4116	3001.3	2121.25
1015.3253	2886.5405	2999.8	2116.7
1015.4416	2887.6686	3006.45	2122.1
1015.5579	2888.7962	3009.15	2127.8
1015.6741	2889.923	3031.25	2149.4
1015.7903	2891.0493	3033.05	2152.85
1015.9065	2892.1748	3028.7	2146.35
1016.0226	2893.2997	3040.55	2158.7
1016.1387	2894.424	3040.2	2158.85
1016.2547	2895.5476	3064.85	2182.75
1016.3707	2896.6706	3082	2200.7
1016.4866	2897.7929	3098	2215.2
1016.6025	2898.9145	3118.9	2234.65
1016.7184	2900.0355	3138.95	2257.85
1016.8342	2901.1559	3165	2282.35
1016.95	2902.2756	3199.45	2316.85
1017.0658	2903.3946	3217.4	2335.55
1017.1815	2904.513	3237.8	2352.5
1017.2971	2905.6308	3259.7	2379.25
1017.4127	2906.7479	3292.35	2406.45
1017.5283	2907.8643	3308.4	2426.1
1017.6439	2908.9801	3315	2432.65
1017.7594	2910.0953	3335.55	2454.4
1017.8748	2911.2098	3313.8	2428.35
1017.9902	2912.3236	3304.5	2415
1018.1056	2913.4368	3295.3	2410.05
1018.2209	2914.5494	3278.2	2394.7
1018.3362	2915.6613	3259	2370.6
1018.4515	2916.7725	3234.35	2349.4
1018.5667	2917.8831	3194.65	2311.7
1018.6819	2918.9931	3164.7	2279.5
1018.797	2920.1024	3147.2	2264.7
1018.9121	2921.211	3133.75	2251.15
1019.0271	2922.319	3129.8	2247.6
1019.1421	2923.4264	3107.1	2223.5
1019.2571	2924.5331	3103.4	2222.4
1019.372	2925.6391	3098.25	2219
1019.4869	2926.7445	3094.85	2214.25
1019.6017	2927.8493	3100.45	2219.45
1019.7165	2928.9534	3097.75	2215.5
1019.8313	2930.0569	3097.7	2212.95
1019.946	2931.1597	3122.2	2239.4
1020.0606	2932.2619	3114.35	2231.95
1020.1753	2933.3634	3123.8	2241.5
1020.2899	2934.4643	3133.05	2243.65
1020.4044	2935.5645	3126.45	2238
1020.5189	2936.6641	3105	2220.4
1020.6334	2937.763	3073.95	2193.2
1020.7478	2938.8613	3060.05	2178.55
1020.8622	2939.959	3030.15	2142.9
1020.9765	2941.056	2985.5	2106.25
1021.0908	2942.1523	2917.8	2034.45
1021.2051	2943.248	2849.8	1966.1
1021.3193	2944.3431	2771.6	1890.95
1021.4334	2945.4375	2695.6	1813.7
1021.5476	2946.5313	2597.1	1715.7
1021.6617	2947.6244	2519.4	1635
1021.7757	2948.7169	2437.2	1554.05
1021.8897	2949.8087	2358.7	1479.2
1022.0037	2950.8999	2284.35	1401.35
1022.1176	2951.9904	2217.05	1336.95
1022.2315	2953.0803	2157.25	1274.55
1022.3453	2954.1696	2108.7	1225.05
1022.4591	2955.2582	2050.5	1169.9
1022.5728	2956.3462	2017.15	1133.8
1022.6865	2957.4335	1982.75	1099.9
1022.8002	2958.5202	1954.5	1070.4
1022.9138	2959.6062	1924.4	1041.2
1023.0274	2960.6916	1901.95	1021.75
1023.141	2961.7764	1890.15	1007.8
1023.2545	2962.8605	1865.75	981.6
1023.3679	2963.9439	1866.6	984.7
1023.4813	2965.0267	1851.9	967.55
1023.5947	2966.1089	1866.85	961.85
1023.708	2967.1905	1840.25	959.25
1023.8213	2968.2714	1836.3	953.7
1023.9346	2969.3516	1841.9	961.5
1024.0478	2970.4312	1855.85	964.05
1024.1609	2971.5102	1858.4	976.5
1024.274	2972.5885	1859.7	977.75
1024.3871	2973.6662	1862.1	975.9
1024.5002	2974.7432	1851.15	969.75
1024.6132	2975.8196	1860.5	978.85
1024.7261	2976.8954	1846.75	964.85
1024.839	2977.9705	1849.6	969
1024.9519	2979.045	1845.7	964.7
1025.0647	2980.1188	1824.4	943.85
1025.1775	2981.192	1811.9	932.1
1025.2902	2982.2645	1805.85	923.65
1025.4029	2983.3364	1768	886.2
1025.5156	2984.4077	1752.6	872
1025.6282	2985.4783	1738.25	850.65
1025.7407	2986.5483	1698	815.35
1025.8532	2987.6177	1674.8	794.45
1025.9657	2988.6864	1653.5	771.15
1026.0782	2989.7545	1629.95	748.55
1026.1906	2990.8219	1592.7	709.7
1026.3029	2991.8887	1566.75	682
1026.4152	2992.9548	1536.45	652.6
1026.5275	2994.0204	1508.2	628.25
1026.6397	2995.0852	1476.3	595.7
1026.7519	2996.1495	1459	577.55
1026.864	2997.2131	1443.15	562.55
1026.9761	2998.276	1415.65	534.9
1027.0882	2999.3383	1404.7	522.75
1027.2002	3000.4	1378.05	495.45
1027.3122	3001.4611	1364.15	480.6
1027.4241	3002.5215	1348.6	466.35
1027.536	3003.5812	1339.3	457.6
1027.6478	3004.6404	1321.55	440.7
1027.7596	3005.6989	1312	428
1027.8714	3006.7567	1296.85	413.6
1027.9831	3007.8139	1320.05	412.6
1028.0947	3008.8705	1284.1	404.7
1028.2064	3009.9264	1293.85	394.7
1028.3179	3010.9818	1269	387.6
1028.4295	3012.0364	1267.25	385.5
1028.541	3013.0905	1253.7	372.75
1028.6524	3014.1439	1253.5	372
1028.7638	3015.1966	1247.05	366.3
1028.8752	3016.2487	1238.8	356.9
1028.9865	3017.3002	1243.45	358.55
1029.0978	3018.3511	1234.85	352.75
1029.209	3019.4013	1229.25	347.45
1029.3202	3020.4509	1227.65	346.7
1029.4314	3021.4998	1229.35	347
1029.5425	3022.5481	1223.3	341.3
1029.6535	3023.5958	1228.7	348.45
1029.7645	3024.6428	1220.9	336.25
1029.8755	3025.6892	1223.85	343.45
1029.9864	3026.735	1215.6	333.15
1030.0973	3027.7802	1217.85	333.6
1030.2082	3028.8247	1218.1	337.95
1030.319	3029.8685	1216.4	334.65
1030.4297	3030.9118	1223.4	340.85
1030.5404	3031.9544	1224.15	341.35
1030.6511	3032.9963	1220.4	339.5
1030.7617	3034.0376	1230.45	350.8
1030.8723	3035.0783	1229.45	344
1030.9829	3036.1184	1226.4	345.1
1031.0934	3037.1578	1231.65	350.6
1031.2038	3038.1966	1231.45	349.65
1031.3142	3039.2348	1231.8	352.7
1031.4246	3040.2723	1241	350.4
1031.5349	3041.3092	1236.5	356.4
1031.6452	3042.3455	1231.15	350.7
1031.7554	3043.3811	1232.95	349.95
1031.8656	3044.4161	1233	352
1031.9758	3045.4505	1226.95	346.35
1032.0859	3046.4842	1226.85	345.1
1032.1959	3047.5173	1224.2	343.85
1032.3059	3048.5498	1220.55	339.5
1032.4159	3049.5816	1218.7	334.55
1032.5258	3050.6128	1223.1	338.8
1032.6357	3051.6434	1220	337.2
1032.7455	3052.6734	1215.15	332.15
1032.8553	3053.7027	1211.85	331.65
1032.9651	3054.7314	1213.1	332.4
1033.0748	3055.7594	1206.4	323.05
1033.1845	3056.7868	1210.3	327.95
1033.2941	3057.8136	1206.2	324.1
1033.4037	3058.8398	1204.55	322.8
1033.5132	3059.8653	1198	316.5
1033.6227	3060.8902	1198.3	316.9
1033.7321	3061.9145	1201.1	318.55
1033.8415	3062.9381	1205.55	324.3
1033.9509	3063.9612	1209.2	312.1
1034.0602	3064.9835	1191.95	309.9
1034.1694	3066.0053	1194.6	310.9
1034.2787	3067.0264	1186.65	304.15
1034.3878	3068.0469	1180.5	297.65
1034.497	3069.0668	1185.6	299.8
1034.6061	3070.086	1177.85	297.45
1034.7151	3071.1046	1168.1	283.3
1034.8241	3072.1226	1168	286
1034.9331	3073.1399	1171.05	289.15
1035.042	3074.1567	1155.7	272.55
1035.1508	3075.1727	1149.45	266
1035.2597	3076.1882	1149.6	267.45
1035.3684	3077.203	1143.05	263.15
1035.4772	3078.2173	1127.45	246.35
1035.5859	3079.2308	1131.35	245.6
1035.6945	3080.2438	1121.75	237.35
1035.8031	3081.2561	1116.25	234.55
1035.9117	3082.2678	1113.6	232.7
1036.0202	3083.2789	1105.05	221.1
1036.1286	3084.2893	1102.75	223.1
1036.2371	3085.2991	1099.55	217.05
1036.3454	3086.3083	1099.35	215.7
1036.4538	3087.3169	1093.1	211.45
1036.562	3088.3248	1092.05	207.3
1036.6703	3089.3321	1084.85	201.25
1036.7785	3090.3388	1080	200.25
1036.8866	3091.3449	1071.05	188.75
1036.9948	3092.3503	1077.2	192.7
1037.1028	3093.3551	1072.65	191.95
1037.2108	3094.3593	1066.15	185.15
1037.3188	3095.3629	1064	184.1
1037.4267	3096.3658	1066.7	183.75
1037.5346	3097.3681	1061.95	179.95
1037.6425	3098.3698	1057.3	175.55
1037.7503	3099.3708	1059.1	170.05
1037.858	3100.3713	1050.45	170.35
1037.9657	3101.3711	1050.25	168.4
1038.0734	3102.3702	1190.8	169.35
1038.181	3103.3688	1049.4	165.1
1038.2886	3104.3667	1042.15	161.35
1038.3961	3105.364	1040.85	158
1038.5036	3106.3607	1044.6	161.1
1038.611	3107.3568	1039.35	156.3
1038.7184	3108.3522	1035.1	153.75
1038.8257	3109.347	1038.35	155.95
1038.933	3110.3412	1040.95	154.6
1039.0403	3111.3348	1032.35	150.85
1039.1475	3112.3277	1031.45	149.4
1039.2547	3113.32	1028.8	148.1
1039.3618	3114.3117	1025.9	143
1039.4689	3115.3028	1024.05	143.3
1039.5759	3116.2932	1018.9	135.3
1039.6829	3117.2831	1025	139.35
1039.7898	3118.2723	1020.2	140.15
1039.8967	3119.2608	1020.95	139.55
1040.0035	3120.2488	1018.5	135.95
1040.1103	3121.2361	1016.5	135.25
1040.2171	3122.2229	1015.7	133.4
1040.3238	3123.209	1015.65	133.15
1040.4305	3124.1944	1014.85	133.75
1040.5371	3125.1793	1013.25	130.55
1040.6437	3126.1635	1010.45	128.45
1040.7502	3127.1471	1008.45	126.55
1040.8567	3128.1301	1006.4	124.4
1040.9631	3129.1125	1002.95	122.75
1041.0695	3130.0942	1006.8	125.3
1041.1759	3131.0753	1012.7	123.1
1041.2822	3132.0558	1007.95	124.3
1041.3884	3133.0357	1001.95	119.9
1041.4946	3134.015	998.7	116.25
1041.6008	3134.9936	1000.35	117.8
1041.7069	3135.9716	1015.3	111.35
1041.813	3136.949	1000.55	118.15
1041.919	3137.9258	1013.75	114.05
1042.025	3138.902	1002.6	115.25
1042.1309	3139.8775	995.85	112.85
1042.2368	3140.8524	992.2	109.4
1042.3427	3141.8267	997.25	112.6
1042.4485	3142.8004	994.35	114.55
1042.5542	3143.7735	998.2	111
1042.6599	3144.7459	993.6	110.9
1042.7656	3145.7178	990.7	109
1042.8712	3146.689	988.45	106.95
1042.9768	3147.6596	991.3	109.95
1043.0823	3148.6295	988.5	105.75
1043.1878	3149.5989	985.75	103.85
1043.2932	3150.5676	980.95	100
1043.3986	3151.5357	978	96.55
1043.5039	3152.5032	988.6	108.5
1043.6092	3153.4701	984.2	104.05
1043.7145	3154.4364	987.3	102.1
1043.8197	3155.402	981.85	101.1
1043.9248	3156.367	985.05	101.55
1044.03	3157.3315	1013.05	102.6
1044.135	3158.2952	982.1	100.1
1044.24	3159.2584	978.7	99.5
1044.345	3160.221	978.05	96.75
1044.4499	3161.1829	979.75	97.6
1044.5548	3162.1442	978.6	98.1
1044.6596	3163.105	977.8	94.55
1044.7644	3164.065	976.9	94.7
1044.8692	3165.0245	977.15	93.05
1044.9739	3165.9834	975.35	95.55
1045.0785	3166.9416	973.35	92.5
1045.1831	3167.8993	976.35	94.6
1045.2877	3168.8563	975.45	93.85
1045.3922	3169.8127	970.85	89.9
1045.4966	3170.7684	975.1	93.3
1045.6011	3171.7236	971.75	89.95
1045.7054	3172.6782	970.2	87.15
1045.8098	3173.6321	971.9	87.4
1045.914	3174.5854	975.15	87.8
1046.0183	3175.5381	971.9	91.05
1046.1224	3176.4902	969.1	88.35
1046.2266	3177.4417	965.25	83.95
1046.3307	3178.3926	966.75	86.1
1046.4347	3179.3428	967.95	86.85
1046.5387	3180.2924	962.2	81.5
1046.6427	3181.2415	965.9	84
1046.7466	3182.1899	967.8	84.15
1046.8504	3183.1377	965	83.2
1046.9542	3184.0848	970.05	84.15
1047.058	3185.0314	966.95	83.6
1047.1617	3185.9773	961.9	77.3
1047.2654	3186.9227	961.5	79
1047.369	3187.8674	962.65	81.1
1047.4726	3188.8115	963.5	77.15
1047.5761	3189.755	963.85	82.85
1047.6796	3190.6979	960.85	78.3
1047.783	3191.6402	958.05	76.9
1047.8864	3192.5818	961	81
1047.9898	3193.5229	980.55	78.45
1048.0931	3194.4633	958.45	77.25
1048.1963	3195.4031	962.25	80.75
1048.2995	3196.3423	958.1	74.85
1048.4027	3197.2809	956	74.7
1048.5058	3198.2189	955.7	73.45
1048.6089	3199.1563	964.6	77.75
1048.7119	3200.0931	962.15	81.75
1048.8148	3201.0292	954.95	72.75
1048.9178	3201.9648	953.85	72.2
1049.0206	3202.8997	956.75	72.4
1049.1235	3203.834	954.7	72.5
1049.2262	3204.7677	953.75	72.35
1049.329	3205.7008	956.45	72.55
1049.4317	3206.6333	955.9	75.5
1049.5343	3207.5652	954	70.15
1049.6369	3208.4964	950.7	69.35
1049.7394	3209.4271	950.85	70.35
1049.8419	3210.3571	948.75	67
1049.9444	3211.2865	951.65	69.05
1050.0468	3212.2154	954.6	71.65
1050.1491	3213.1436	957.05	73.15
1050.2514	3214.0712	955.7	68.5
1050.3537	3214.9982	951.65	69.5
1050.4559	3215.9246	948.25	66.9
1050.5581	3216.8503	947.7	66
1050.6602	3217.7755	947.75	65.8
1050.7623	3218.7001	948.6	66.25
1050.8643	3219.624	948.6	65.9
1050.9663	3220.5473	947.3	66.05
1051.0682	3221.4701	947.6	64.6
1051.1701	3222.3922	951.9	70
1051.2719	3223.3137	949.85	69.3
1051.3737	3224.2346	944.65	61.4
1051.4754	3225.1549	947.7	67.1
1051.5771	3226.0746	945.95	63.5
1051.6788	3226.9937	945.35	63.8
1051.7804	3227.9121	945.8	65.1
1051.8819	3228.83	944	64.55
1051.9834	3229.7473	944.6	62.95
1052.0849	3230.6639	942.8	60.5
1052.1863	3231.5799	943.15	60.35
1052.2876	3232.4954	944.4	61.1
1052.3889	3233.4102	942.8	61.9
1052.4902	3234.3244	943.6	59.9
1052.5914	3235.238	940.4	60.65
1052.6926	3236.151	965.75	59.6
1052.7937	3237.0634	939.1	59.95
1052.8948	3237.9752	942.4	62.05
1052.9958	3238.8864	942.55	60.5
1053.0968	3239.797	940.65	58.8
1053.1977	3240.7069	939.7	55.95
1053.2986	3241.6163	938.85	57
1053.3994	3242.5251	937.65	57.8
1053.5002	3243.4332	937.7	58.35
1053.6009	3244.3408	939.15	55.85
1053.7016	3245.2477	936.9	55.9
1053.8022	3246.154	937.45	55
1053.9028	3247.0598	935.35	52.2
1054.0034	3247.9649	938.05	56.85
1054.1039	3248.8694	935.25	52.15
1054.2043	3249.7733	934.05	50.8
1054.3047	3250.6766	936.15	57.4
1054.4051	3251.5793	935.65	52.75
1054.5054	3252.4814	934.15	53.5
1054.6056	3253.3829	930.65	51.4
1054.7058	3254.2838	934.1	51.2
1054.806	3255.1841	934.05	53.95
1054.9061	3256.0838	933.15	50.5
1055.0061	3256.9829	927.8	46.95
1055.1062	3257.8814	932.95	47.75
1055.2061	3258.7792	933.75	50.4
1055.306	3259.6765	931.65	47.05
1055.4059	3260.5731	929	48.85
1055.5057	3261.4692	926.65	43.95
1055.6055	3262.3647	928.3	45.65
1055.7052	3263.2595	928.65	49.3
1055.8049	3264.1538	924.8	45.3
1055.9045	3265.0474	926.15	43.45
1056.0041	3265.9404	923.7	42.3
1056.1036	3266.8329	926.7	45.45
1056.2031	3267.7247	934.25	41.95
1056.3025	3268.616	922.2	42.95
1056.4019	3269.5066	924.15	42.2
1056.5013	3270.3966	919.65	37.8
1056.6005	3271.286	916.6	35.7
