Software Version:	3.9.2.0
Unit SN:	10000200
Spectrometer SN:	6960
Date:	3/14/2024 12:39:15 PM
Data Line Index:	25
Spectral Points:	2048
Integration time (ms):	125
Averages:	20
Delay (ms):	30000
Sequence Number:	1
Processing:	dark subtract
Laser Power (mW):	300
Laser Current (mA):	823
Laser Diode Temp (C):	25.1
Laser Case Temp (C):	26.9
System Temp (C):	26.9
Spectrometer Temp (C):	24.4
CCD Temp (C):	0.001
Secondary Temp (C):	20.006
Heatsink Temp (C):	23.058
CCDPCB Temp (C):	36.718
SecondaryPCB Temp (C):	34.35

Wavelength	RamanShift	Raw Counts	Dark Subtracted
787.061	30.1047	418.4	6.5
787.2016	32.3739	417.2	7.2
787.3422	34.6426	418.75	7.3
787.4828	36.9109	421.6	6.1
787.6235	39.1787	423.35	6.95
787.7642	41.4461	430.3	8.65
787.9049	43.7131	433.15	9.2
788.0456	45.9796	438.05	9
788.1863	48.2456	443.25	11.05
788.3271	50.5112	447.4	10.65
788.4679	52.7764	450	10.4
788.6087	55.0411	454.15	11.8
788.7496	57.3054	460.45	13.7
788.8904	59.5692	462.25	12.35
789.0313	61.8326	467.7	15
789.1722	64.0955	472.4	15.2
789.3132	66.3579	478.35	16.3
789.4541	68.6199	484.3	20.85
789.5951	70.8815	494.3	25.35
789.7361	73.1426	508.8	38.8
789.8771	75.4032	539.75	64.1
790.0181	77.6634	605.85	126.35
790.1592	79.9231	743.95	259.6
790.3003	82.1824	1059.05	569.8
790.4414	84.4412	1573.6	1079
790.5825	86.6995	2253.4	1748.35
790.7237	88.9574	2916.55	2406.2
790.8648	91.2148	3388	2873.6
791.006	93.4717	3627.3	3108.6
791.1472	95.7282	3683.15	3159.1
791.2885	97.9842	3691.6	3167.95
791.4297	100.2398	3673.95	3146.8
791.571	102.4949	3641.25	3108.45
791.7123	104.7495	3621.5	3085.15
791.8536	107.0036	3582	3045.7
791.9949	109.2573	3539.3	3006.95
792.1363	111.5105	3488.35	2952
792.2777	113.7632	3424.55	2883.9
792.4191	116.0154	3375.95	2826.6
792.5605	118.2672	3292.25	2747.15
792.7019	120.5185	3232.25	2690.45
792.8434	122.7693	3165.2	2618.15
792.9849	125.0197	3100.8	2550.5
793.1264	127.2696	3056.85	2502.7
793.2679	129.519	3022.55	2469
793.4094	131.7679	3002	2445.25
793.551	134.0163	2984.75	2426.1
793.6926	136.2642	2983.8	2419
793.8342	138.5117	2971.55	2403.6
793.9758	140.7587	2958.35	2388.1
794.1175	143.0052	2929.95	2355.05
794.2591	145.2512	2898.3	2324.75
794.4008	147.4967	2851.9	2278.45
794.5425	149.7417	2816.35	2238.2
794.6842	151.9863	2813.85	2235.1
794.826	154.2304	2791.15	2208.2
794.9677	156.4739	2788.65	2199.45
795.1095	158.717	2794.4	2206.25
795.2513	160.9596	2811.45	2218.3
795.3931	163.2017	2823.15	2230.1
795.535	165.4433	2833.45	2234.1
795.6768	167.6844	2832.3	2232.45
795.8187	169.925	2818.15	2215.6
795.9606	172.1651	2770.85	2165
796.1025	174.4047	2738.2	2125.5
796.2445	176.6439	2713.9	2101.65
796.3864	178.8825	2678.6	2062.85
796.5284	181.1206	2677.05	2059.95
796.6704	183.3582	2670	2049.95
796.8124	185.5954	2670.4	2049.7
796.9544	187.832	2656.7	2031.4
797.0965	190.0681	2657.05	2029.4
797.2386	192.3037	2664.85	2031.4
797.3806	194.5388	2676.1	2040.65
797.5228	196.7734	2676.25	2039.4
797.6649	199.0075	2686.5	2045.15
797.807	201.2411	2691.45	2047.25
797.9492	203.4742	2706.55	2061.8
798.0914	205.7068	2728.85	2084.1
798.2336	207.9389	2737.8	2091.5
798.3758	210.1704	2750	2101.8
798.518	212.4015	2750.5	2098.15
798.6603	214.632	2758.4	2105.05
798.8025	216.862	2751.25	2103.7
798.9448	219.0915	2728.85	2089
799.0871	221.3205	2740.85	2103.95
799.2294	223.549	2746.45	2115.35
799.3718	225.777	2749.4	2116.9
799.5141	228.0044	2758.1	2122.65
799.6565	230.2314	2727.8	2095.3
799.7989	232.4578	2715.1	2083.65
799.9413	234.6837	2716.15	2072.3
800.0837	236.909	2699.6	2059.6
800.2262	239.1339	2702.9	2037
800.3687	241.3582	2690.7	2041.6
800.5111	243.582	2700.8	2021.55
800.6536	245.8053	2701.9	2031.3
800.7961	248.0281	2701.2	2035.15
800.9387	250.2503	2710.25	2038.95
801.0812	252.472	2718.75	2041.6
801.2238	254.6932	2720.5	2042
801.3664	256.9139	2710.05	2028.5
801.509	259.134	2733.8	2047
801.6516	261.3536	2739.35	2054.7
801.7942	263.5727	2759.8	2074.55
801.9369	265.7912	2769.95	2087.05
802.0795	268.0092	2823.4	2139.75
802.2222	270.2267	2863.4	2177.9
802.3649	272.4436	2893.75	2204.5
802.5076	274.6601	2912.75	2214.9
802.6504	276.8759	2916.3	2226.45
802.7931	279.0913	2943.1	2255.15
802.9359	281.3061	2954.25	2260.85
803.0787	283.5204	2959.8	2262.4
803.2215	285.7341	2977.7	2278.6
803.3643	287.9473	2996.25	2295.8
803.5071	290.16	2997.1	2292.85
803.6499	292.3721	2969.5	2266.95
803.7928	294.5837	2928.85	2227.05
803.9357	296.7947	2903.95	2201.55
804.0786	299.0052	2881.95	2179.05
804.2215	301.2152	2867.05	2160.4
804.3644	303.4246	2858.45	2154.65
804.5074	305.6334	2838.75	2135.35
804.6503	307.8418	2844.15	2135.7
804.7933	310.0495	2817.05	2109.95
804.9363	312.2568	2800.2	2092.5
805.0793	314.4635	2767.75	2060.4
805.2223	316.6696	2720.45	2009.95
805.3653	318.8752	2695.7	1978.95
805.5084	321.0802	2666.55	1955.75
805.6514	323.2847	2657.7	1944.4
805.7945	325.4887	2660.75	1946.2
805.9376	327.692	2663.1	1948
806.0807	329.8949	2688.4	1972.65
806.2238	332.0972	2716.9	1998.65
806.367	334.2989	2753.3	2031.35
806.5101	336.5001	2753.75	2030.7
806.6533	338.7007	2732.75	2009.25
806.7965	340.9008	2692.5	1970
806.9397	343.1003	2648.45	1920.95
807.0829	345.2992	2611.85	1881.45
807.2261	347.4976	2584.1	1853.7
807.3693	349.6955	2557.05	1826.05
807.5126	351.8927	2534.55	1798.8
807.6559	354.0895	2525	1781.5
807.7991	356.2856	2507.2	1771.2
807.9424	358.4812	2509.2	1773.5
808.0857	360.6763	2507.45	1771.2
808.2291	362.8707	2490.9	1753.45
808.3724	365.0646	2502.25	1761.45
808.5158	367.258	2497	1755.25
808.6591	369.4508	2513.5	1766.2
808.8025	371.643	2536	1790.65
808.9459	373.8346	2540.1	1791.5
809.0893	376.0257	2567.7	1815.8
809.2327	378.2162	2584.45	1833.2
809.3762	380.4062	2607.65	1855.05
809.5196	382.5956	2582.7	1824.6
809.6631	384.7844	2560.1	1803.1
809.8066	386.9726	2512.2	1751.9
809.9501	389.1603	2488	1730.75
810.0936	391.3474	2500.85	1710.65
810.2371	393.5339	2467.4	1709.05
810.3806	395.7199	2467.35	1714.95
810.5241	397.9052	2480.4	1730.65
810.6677	400.09	2510.25	1760.3
810.8113	402.2743	2533.6	1784.25
810.9548	404.4579	2549.1	1801.3
811.0984	406.641	2597.25	1848.6
811.2421	408.8235	2628	1876.45
811.3857	411.0054	2657.7	1901.65
811.5293	413.1868	2729.1	1974.8
811.673	415.3675	2794.2	2036.85
811.8166	417.5477	2811.5	2053.6
811.9603	419.7273	2758.1	1998.25
812.104	421.9064	2655.75	1887.35
812.2477	424.0848	2595.15	1829.4
812.3914	426.2627	2561.5	1793.9
812.5351	428.4399	2507.05	1737.55
812.6788	430.6166	2451.9	1678.75
812.8226	432.7928	2421.1	1647.7
812.9663	434.9683	2390.15	1617.85
813.1101	437.1432	2375.2	1598.3
813.2539	439.3176	2351.9	1574.25
813.3977	441.4914	2334.3	1557.7
813.5415	443.6645	2340.55	1561.9
813.6853	445.8371	2346.8	1569.05
813.8291	448.0091	2336	1556.15
813.973	450.1806	2331.3	1551.4
814.1168	452.3514	2323.5	1541.8
814.2607	454.5216	2333.85	1544.15
814.4046	456.6913	2308.9	1527.2
814.5485	458.8603	2321.45	1539.15
814.6924	461.0288	2325.35	1541.9
814.8363	463.1967	2310.65	1526.15
814.9802	465.3639	2323.35	1537.35
815.1241	467.5306	2300.85	1514.35
815.2681	469.6967	2302	1515.25
815.412	471.8622	2294.4	1507.25
815.556	474.0271	2298.65	1512.55
815.7	476.1914	2289.4	1500.45
815.844	478.3551	2286.6	1500.6
815.988	480.5182	2282.15	1493.2
816.132	482.6807	2292.65	1501.35
816.276	484.8426	2294.15	1502.05
816.4201	487.0039	2314.45	1521.5
816.5641	489.1647	2361.6	1569.55
816.7082	491.3248	2403.55	1613.45
816.8522	493.4843	2410.05	1617.8
816.9963	495.6432	2398.85	1606.25
817.1404	497.8015	2374.25	1579.55
817.2845	499.9592	2342.75	1550.45
817.4286	502.1163	2304.5	1509.5
817.5727	504.2728	2272.1	1476.2
817.7168	506.4287	2253.55	1457.2
817.861	508.5839	2241.15	1445.2
818.0051	510.7386	2239.85	1443.55
818.1493	512.8927	2248.25	1443.25
818.2935	515.0461	2242.1	1443.6
818.4377	517.199	2254.7	1457.8
818.5818	519.3512	2273	1474.9
818.726	521.5029	2324.4	1521.1
818.8703	523.6539	2375	1574.05
819.0145	525.8043	2380.45	1578.05
819.1587	527.9541	2334.9	1529.25
819.303	530.1033	2281.6	1479.65
819.4472	532.2519	2247.1	1443.85
819.5915	534.3999	2230	1424.75
819.7357	536.5472	2228.85	1424.85
819.88	538.694	2229.25	1424.7
820.0243	540.8401	2232.5	1425.45
820.1686	542.9856	2243.4	1434.95
820.3129	545.1305	2252.7	1445.8
820.4572	547.2748	2260.85	1453.3
820.6016	549.4185	2266.65	1456.5
820.7459	551.5615	2267.2	1458.45
820.8902	553.704	2273.65	1464.45
821.0346	555.8458	2281.25	1471.55
821.1789	557.987	2298	1489.7
821.3233	560.1276	2320.4	1509.25
821.4677	562.2675	2360.95	1552.1
821.6121	564.4069	2404.6	1592.65
821.7565	566.5456	2457.95	1645.9
821.9009	568.6837	2430.5	1617.9
822.0453	570.8212	2383.45	1570.25
822.1897	572.958	2325.6	1513.2
822.3342	575.0942	2280.7	1471.75
822.4786	577.2299	2257.05	1446.15
822.6231	579.3648	2232.85	1417.65
822.7675	581.4992	2214.5	1399
822.912	583.6329	2216.2	1400.85
823.0565	585.766	2220.6	1405.85
823.201	587.8985	2258.85	1446.15
823.3454	590.0304	2298.05	1470.1
823.4899	592.1616	2309.05	1491.4
823.6345	594.2922	2321.25	1504.85
823.779	596.4222	2293.4	1477.3
823.9235	598.5515	2246.55	1428.75
824.068	600.6802	2209.7	1391.55
824.2126	602.8083	2177.05	1356.75
824.3571	604.9358	2173.2	1353.6
824.5017	607.0626	2165.1	1345.9
824.6462	609.1888	2168.65	1347.35
824.7908	611.3144	2179.45	1356.75
824.9354	613.4393	2201.5	1380.1
825.08	615.5636	2232.05	1411.8
825.2246	617.6873	2272.35	1452.2
825.3692	619.8103	2298.7	1473.95
825.5138	621.9327	2304.2	1478.45
825.6584	624.0544	2279	1455.6
825.803	626.1756	2240.25	1416.55
825.9477	628.2961	2185.8	1361.05
826.0923	630.4159	2170.2	1347.65
826.237	632.5351	2167.5	1344.1
826.3816	634.6537	2173.7	1349.5
826.5263	636.7716	2154.1	1327.5
826.6709	638.8889	2153.35	1324.75
826.8156	641.0056	2158.5	1332.45
826.9603	643.1216	2157.95	1329.7
827.105	645.237	2172.5	1341.8
827.2497	647.3518	2161.45	1332.4
827.3944	649.4659	2147.8	1320.95
827.5391	651.5793	2122.15	1294.15
827.6838	653.6922	2098.05	1268.4
827.8285	655.8043	2088.55	1260.2
827.9733	657.9159	2087.3	1258.65
828.118	660.0268	2077.35	1246.45
828.2627	662.137	2087.05	1254
828.4075	664.2466	2067.7	1232.5
828.5522	666.3556	2086.5	1253.9
828.697	668.4639	2074.25	1238.8
828.8418	670.5716	2074.75	1240.7
828.9865	672.6786	2069.6	1234.7
829.1313	674.785	2061.75	1225.95
829.2761	676.8907	2049.65	1213.25
829.4209	678.9958	2050.3	1220.1
829.5657	681.1002	2050.1	1214.5
829.7105	683.204	2052.9	1214.45
829.8553	685.3072	2044.4	1207.35
830.0001	687.4097	2048.95	1213.7
830.1449	689.5115	2050.35	1213.25
830.2898	691.6127	2040.55	1203.6
830.4346	693.7132	2046.45	1208.5
830.5794	695.8131	2067.45	1213.7
830.7243	697.9123	2047.25	1205.2
830.8691	700.0109	2048.25	1210.6
831.014	702.1089	2065.15	1228.1
831.1588	704.2061	2063.55	1227.2
831.3037	706.3028	2081.05	1240.4
831.4486	708.3987	2087.1	1247.35
831.5935	710.4941	2097.85	1258.6
831.7383	712.5887	2108.25	1267.55
831.8832	714.6827	2107.1	1262.25
832.0281	716.7761	2094.8	1256.3
832.173	718.8688	2088.3	1246.15
832.3179	720.9608	2103.95	1258.25
832.4628	723.0522	2099.7	1255.25
832.6077	725.1429	2107.85	1266.75
832.7527	727.233	2139.95	1298.65
832.8976	729.3224	2178.1	1335.45
833.0425	731.4112	2216.05	1372.1
833.1874	733.4993	2235.4	1390.35
833.3324	735.5867	2211.65	1366.85
833.4773	737.6735	2160.2	1313.3
833.6222	739.7596	2115.95	1270.55
833.7672	741.845	2094.4	1248.75
833.9122	743.9298	2088.85	1242.45
834.0571	746.014	2107.85	1264.1
834.2021	748.0974	2118.45	1271.75
834.347	750.1802	2114.3	1267.9
834.492	752.2624	2107.15	1260.3
834.637	754.3439	2096.85	1247.95
834.782	756.4247	2089.55	1233.7
834.9269	758.5048	2075.8	1230.25
835.0719	760.5843	2082.75	1235.9
835.2169	762.6631	2094.35	1247.4
835.3619	764.7413	2129.75	1283.05
835.5069	766.8188	2190.15	1338.85
835.6519	768.8956	2242.9	1392.75
835.7969	770.9718	2273.75	1425.6
835.9419	773.0473	2278.15	1430.6
836.0869	775.1221	2248.05	1398.65
836.232	777.1962	2237.7	1388.9
836.377	779.2697	2272	1421.45
836.522	781.3426	2365.3	1503.55
836.667	783.4147	2413.5	1562.1
836.8121	785.4862	2403.8	1554.85
836.9571	787.557	2346	1494.85
837.1021	789.6271	2253.35	1402.6
837.2472	791.6966	2146.1	1294.8
837.3922	793.7654	2079.7	1226.35
837.5373	795.8335	2037.4	1184.8
837.6823	797.901	2009.45	1157.1
837.8274	799.9678	2005.15	1152.5
837.9724	802.0339	2003.6	1153.8
838.1175	804.0993	2000.5	1138.8
838.2626	806.1641	1989.95	1137.65
838.4076	808.2282	1983.05	1131.6
838.5527	810.2916	1985.2	1130.35
838.6978	812.3544	1954.6	1105.25
838.8428	814.4164	1949.2	1095.75
838.9879	816.4778	1959.95	1106.85
839.133	818.5385	1960.55	1107.3
839.2781	820.5986	1985.85	1132.8
839.4232	822.658	2022.95	1170.1
839.5682	824.7166	2067.2	1213.2
839.7133	826.7747	2141.15	1290.6
839.8584	828.832	2186.1	1330.1
840.0035	830.8886	2219.65	1363.55
840.1486	832.9446	2243.3	1387.55
840.2937	834.9999	2225.65	1371.75
840.4388	837.0545	2177.4	1318
840.5839	839.1085	2109.5	1252.1
840.729	841.1618	2057.2	1198.75
840.8741	843.2143	2019.2	1164.65
841.0192	845.2662	1986	1129.4
841.1643	847.3175	1969.85	1115
841.3095	849.368	1973.55	1117.2
841.4546	851.4179	1953.9	1097.6
841.5997	853.467	1959.05	1103.5
841.7448	855.5155	1971.2	1113.6
841.8899	857.5633	1974.65	1116
842.0351	859.6105	1966.45	1109.8
842.1802	861.6569	1949.65	1093.05
842.3253	863.7027	1935.9	1076
842.4704	865.7478	1928.3	1071.4
842.6156	867.7922	1919.5	1062.4
842.7607	869.8359	1920.4	1062.8
842.9058	871.8789	1918.6	1058
843.0509	873.9212	1937.9	1046.45
843.1961	875.9629	1907.05	1048.45
843.3412	878.0039	1922.15	1062.25
843.4863	880.0441	1931.55	1075.3
843.6315	882.0837	1941.35	1080.75
843.7766	884.1226	1957.7	1096.9
843.9218	886.1609	1982.9	1125.2
844.0669	888.1984	2029.1	1171
844.212	890.2352	2045.7	1186.2
844.3572	892.2714	2064.45	1200.65
844.5023	894.3069	2049.1	1187.9
844.6475	896.3416	2007.9	1148.6
844.7926	898.3757	1973.9	1111
844.9377	900.4091	1948.65	1087.35
845.0829	902.4418	1952.35	1084.4
845.228	904.4739	1969.9	1106.75
845.3732	906.5052	1980.5	1118.35
845.5183	908.5358	1982.55	1122.6
845.6635	910.5658	1964.3	1101.1
845.8086	912.595	1935.9	1072.45
845.9538	914.6236	1910.1	1047.7
846.0989	916.6515	1890.95	1031.25
846.2441	918.6786	1878.05	1014.35
846.3892	920.7051	1860.45	997.3
846.5344	922.7309	1860.75	999.1
846.6795	924.756	1850	986.65
846.8246	926.7804	1863.8	999.05
846.9698	928.8041	1860.35	994.3
847.1149	930.8272	1885	1022.85
847.2601	932.8495	1896	1029.75
847.4052	934.8711	1894.7	1029.9
847.5504	936.892	1892.5	1028.9
847.6955	938.9123	1899.35	1033.8
847.8407	940.9318	1927.6	1063.4
847.9858	942.9506	1931.85	1066.3
848.131	944.9688	1924.2	1058.4
848.2761	946.9862	1906.55	1042.6
848.4213	949.003	1884.1	1019
848.5664	951.019	1860.65	996.15
848.7115	953.0344	1852.55	987.45
848.8567	955.0491	1836.5	970.2
849.0018	957.063	1834.75	967.9
849.147	959.0763	1818.9	955.25
849.2921	961.0888	1827.5	959.3
849.4373	963.1007	1821.55	955.4
849.5824	965.1119	1814.55	948.25
849.7275	967.1223	1811.45	945.05
849.8727	969.1321	1819.05	954.2
850.0178	971.1412	1796.7	931.45
850.1629	973.1495	1795.6	929.8
850.3081	975.1572	1847.4	927.15
850.4532	977.1641	1800	935.15
850.5983	979.1704	1801.3	932.75
850.7435	981.1759	1799.2	928.7
850.8886	983.1808	1792.8	924.45
851.0337	985.1849	1789.2	912.8
851.1788	987.1884	1776.5	909.6
851.324	989.1911	1780.35	908.75
851.4691	991.1932	1785.75	916.8
851.6142	993.1945	1790.35	922.6
851.7593	995.1951	1783.95	914.9
851.9045	997.1951	1787.2	913.8
852.0496	999.1943	1776.25	909.3
852.1947	1001.1928	1769.9	900.65
852.3398	1003.1906	1778.35	909.5
852.4849	1005.1877	1791.5	920.7
852.63	1007.1841	1816.85	945.95
852.7751	1009.1798	1827.7	959.2
852.9202	1011.1748	1817.8	949.2
853.0653	1013.1691	1795.6	926.2
853.2104	1015.1627	1769.3	900.95
853.3555	1017.1556	1752.45	883.8
853.5006	1019.1477	1732.8	863.15
853.6457	1021.1392	1716.25	847.25
853.7908	1023.1299	1705.8	835.55
853.9359	1025.12	1708.3	834.25
854.081	1027.1093	1707.65	838.8
854.2261	1029.0979	1722.5	854.8
854.3712	1031.0859	1731.3	858.15
854.5163	1033.0731	1745.7	875.15
854.6613	1035.0596	1740.65	871.7
854.8064	1037.0454	1740.05	870.05
854.9515	1039.0304	1732.55	861.85
855.0965	1041.0148	1711.05	840.8
855.2416	1042.9985	1692.1	819.8
855.3867	1044.9814	1686.25	815.6
855.5317	1046.9636	1693	820.95
855.6768	1048.9452	1674.05	803.5
855.8219	1050.926	1699	829.45
855.9669	1052.9061	1703.55	833.4
856.112	1054.8855	1712.45	841.05
856.257	1056.8642	1710.05	839.3
856.4021	1058.8421	1705.85	831.35
856.5471	1060.8194	1703.95	831.35
856.6921	1062.7959	1694.65	821.2
856.8372	1064.7717	1692.4	821.25
856.9822	1066.7469	1688.7	814.55
857.1272	1068.7213	1687.05	812.8
857.2723	1070.695	1695	821.6
857.4173	1072.6679	1717.65	845.85
857.5623	1074.6402	1726.7	854.15
857.7073	1076.6117	1745.4	867.8
857.8523	1078.5826	1730.2	856.5
857.9973	1080.5527	1705	828.45
858.1423	1082.5221	1671.25	796.95
858.2873	1084.4908	1646.6	772.4
858.4323	1086.4587	1638.25	766.35
858.5773	1088.426	1631.35	756.5
858.7223	1090.3925	1629.35	751.2
858.8673	1092.3584	1628.75	755.65
859.0123	1094.3235	1630.6	758.65
859.1573	1096.2879	1642.65	767.55
859.3022	1098.2515	1659.15	786.5
859.4472	1100.2145	1670.95	797.2
859.5922	1102.1767	1699.2	822.1
859.7371	1104.1382	1724.4	849.7
859.8821	1106.099	1761.8	886.15
860.027	1108.0591	1792.45	919.25
860.172	1110.0185	1820.15	944.1
860.3169	1111.9771	1851.65	977.65
860.4619	1113.9351	1874.4	999.75
860.6068	1115.8923	1925.2	1050
860.7517	1117.8488	1955.45	1078
860.8967	1119.8045	1914.9	1041.65
861.0416	1121.7596	1847.5	972.7
861.1865	1123.7139	1777.75	905.35
861.3314	1125.6675	1723.9	848.6
861.4763	1127.6204	1716	842.45
861.6212	1129.5726	1737.75	860.95
861.7661	1131.524	1742.15	870.1
861.911	1133.4748	1708.45	834.4
862.0559	1135.4248	1678.1	801.45
862.2008	1137.3741	1638.75	763.65
862.3457	1139.3226	1612.15	734.8
862.4905	1141.2705	1608.3	731.95
862.6354	1143.2176	1621.5	737.7
862.7803	1145.164	1622.55	746.4
862.9251	1147.1097	1622.8	746.2
863.07	1149.0546	1606.1	728.1
863.2148	1150.9989	1587.85	711.3
863.3597	1152.9424	1574.5	696.9
863.5045	1154.8852	1557.7	681.8
863.6493	1156.8272	1554.8	680.15
863.7942	1158.7686	1561.85	679
863.939	1160.7092	1547.55	672.75
864.0838	1162.6491	1550.35	670.9
864.2286	1164.5883	1552.9	676.2
864.3734	1166.5267	1566	687.45
864.5182	1168.4644	1580.9	702.25
864.663	1170.4014	1606.7	726.45
864.8078	1172.3377	1624	749.7
864.9526	1174.2732	1657.15	782.05
865.0974	1176.2081	1719.75	842.75
865.2421	1178.1421	1794.9	917.3
865.3869	1180.0755	1884.85	1007.05
865.5317	1182.0082	1933.1	1057
865.6764	1183.9401	1927.6	1050
865.8212	1185.8713	1865.25	989.75
865.9659	1187.8017	1787.35	912.55
866.1106	1189.7315	1703.75	827.8
866.2554	1191.6605	1672.15	763.55
866.4001	1193.5888	1611.75	732.1
866.5448	1195.5163	1586.85	710.6
866.6895	1197.4432	1569.1	690.05
866.8342	1199.3693	1550.95	673.85
866.9789	1201.2947	1555.3	672.3
867.1236	1203.2193	1532.65	656.25
867.2683	1205.1432	1530.5	653.2
867.413	1207.0664	1526	648.1
867.5576	1208.9889	1521.7	640.1
867.7023	1210.9106	1523.15	645.05
867.847	1212.8316	1527.6	651.5
867.9916	1214.7519	1543.95	657.1
868.1363	1216.6715	1541	664.45
868.2809	1218.5903	1546.1	668.5
868.4255	1220.5084	1558.5	680.1
868.5701	1222.4257	1562.1	681.55
868.7148	1224.3424	1564.35	684.5
868.8594	1226.2583	1577	694.1
869.004	1228.1735	1603.4	724.7
869.1486	1230.0879	1624.9	746.7
869.2932	1232.0016	1640.85	764.4
869.4377	1233.9146	1672	790.3
869.5823	1235.8269	1677.45	797.9
869.7269	1237.7384	1677.05	796.7
869.8715	1239.6492	1675.2	796.65
870.016	1241.5592	1686.2	806.4
870.1606	1243.4686	1706.75	827.45
870.3051	1245.3772	1750.4	869.8
870.4496	1247.285	1811.45	932.6
870.5941	1249.1922	1877.55	997.35
870.7387	1251.0986	1907.95	1029.5
870.8832	1253.0042	1957.55	1077.95
871.0277	1254.9092	2007.25	1127.2
871.1722	1256.8134	2077.45	1198.95
871.3167	1258.7169	2133.45	1255.5
871.4611	1260.6196	2184.35	1305.3
871.6056	1262.5216	2213	1329.4
871.7501	1264.4229	2200.45	1321.75
871.8945	1266.3234	2180.25	1300.3
872.039	1268.2232	2141.8	1261.2
872.1834	1270.1223	2100.8	1219.15
872.3278	1272.0207	2080.55	1201.6
872.4723	1273.9183	2053.8	1169.7
872.6167	1275.8151	2048.9	1172.7
872.7611	1277.7113	2074.8	1194.35
872.9055	1279.6067	2126.1	1244.85
873.0499	1281.5014	2221.1	1339.9
873.1943	1283.3953	2352.05	1470
873.3386	1285.2885	2467.95	1589.6
873.483	1287.181	2601.8	1720
873.6274	1289.0727	2649.4	1768.9
873.7717	1290.9637	2617.7	1735.9
873.9161	1292.854	2540.35	1661.3
874.0604	1294.7435	2442.45	1558.4
874.2047	1296.6323	2351.1	1470.35
874.349	1298.5204	2278.25	1392.95
874.4933	1300.4077	2215.5	1335.85
874.6376	1302.2943	2169.5	1290.75
874.7819	1304.1802	2142.05	1261.65
874.9262	1306.0653	2123.9	1241.45
875.0705	1307.9497	2105.75	1225.6
875.2147	1309.8333	2081.85	1202.75
875.359	1311.7162	2059.05	1180.75
875.5032	1313.5984	2047.9	1165
875.6475	1315.4798	2049.95	1153.25
875.7917	1317.3605	2059.35	1161.25
875.9359	1319.2405	2046.45	1163.05
876.0801	1321.1197	2042.5	1159.85
876.2243	1322.9982	2009.8	1125.4
876.3685	1324.876	1979	1098.05
876.5127	1326.753	1915.3	1033.25
876.6569	1328.6293	1854.3	970.45
876.801	1330.5048	1795.65	910.85
876.9452	1332.3796	1730.3	851
877.0893	1334.2537	1709.85	802.45
877.2335	1336.127	1650.95	769.9
877.3776	1337.9996	1630.8	748.85
877.5217	1339.8714	1611.65	729.75
877.6658	1341.7426	1642	717
877.8099	1343.6129	1588.15	707.8
877.954	1345.4826	1577.85	696.95
878.0981	1347.3515	1572.7	689.2
878.2422	1349.2196	1558.2	677.3
878.3862	1351.087	1549.9	666.45
878.5303	1352.9537	1537.95	656.45
878.6743	1354.8197	1547.65	664.45
878.8184	1356.6849	1550.45	669
878.9624	1358.5493	1562.4	680.65
879.1064	1360.4131	1583.15	702.8
879.2504	1362.276	1595.65	716.1
879.3944	1364.1383	1628.05	750.05
879.5384	1365.9998	1641.85	753.3
879.6823	1367.8606	1628.85	745.9
879.8263	1369.7206	1630.15	747.25
879.9702	1371.5799	1623.55	737.3
880.1142	1373.4384	1615.95	733.95
880.2581	1375.2962	1603.4	719.7
880.402	1377.1533	1566.25	685
880.5459	1379.0096	1542	659.65
880.6898	1380.8652	1515	633.25
880.8337	1382.7201	1492.4	609.7
880.9776	1384.5742	1470.85	587.4
881.1215	1386.4275	1459.6	575.55
881.2653	1388.2802	1444.55	563.5
881.4092	1390.132	1433.5	549.25
881.553	1391.9832	1430.9	548.2
881.6968	1393.8336	1428.65	545.65
881.8406	1395.6832	1423.3	539.05
881.9844	1397.5322	1412.6	529.05
882.1282	1399.3803	1415.25	527.1
882.272	1401.2278	1401.35	517.55
882.4158	1403.0745	1397.3	514.1
882.5595	1404.9204	1384.65	501.7
882.7033	1406.7656	1387.85	504.75
882.847	1408.6101	1376.5	493.45
882.9908	1410.4538	1373.55	490.8
883.1345	1412.2968	1375.55	492.65
883.2782	1414.139	1377.8	495.2
883.4219	1415.9805	1386.55	505.5
883.5656	1417.8213	1393.4	504.1
883.7092	1419.6613	1393.9	512.8
883.8529	1421.5006	1418.55	534.05
883.9965	1423.3391	1443.15	559.95
884.1402	1425.1769	1471.65	587.3
884.2838	1427.0139	1526.05	642.25
884.4274	1428.8502	1582	698.55
884.571	1430.6858	1635.7	750.95
884.7146	1432.5206	1646.35	763.55
884.8582	1434.3547	1644.15	760.45
885.0018	1436.188	1636.3	752.9
885.1453	1438.0206	1617.95	736.9
885.2889	1439.8524	1603.85	719.7
885.4324	1441.6835	1600.85	717.1
885.5759	1443.5139	1612.8	724.75
885.7194	1445.3435	1609.55	726.35
885.8629	1447.1724	1611.2	728.8
886.0064	1449.0005	1609.15	727.65
886.1499	1450.8279	1600.6	716.75
886.2933	1452.6545	1594.25	710.55
886.4368	1454.4804	1601.15	719.7
886.5802	1456.3056	1600.2	710.35
886.7237	1458.13	1582.3	699.3
886.8671	1459.9536	1562.4	678.65
887.0105	1461.7766	1544.5	662.85
887.1539	1463.5987	1518.35	633.2
887.2972	1465.4202	1480.4	596.75
887.4406	1467.2409	1465.2	581.75
887.584	1469.0608	1440.35	557.25
887.7273	1470.88	1419.25	535.35
887.8706	1472.6984	1401	517.65
888.0139	1474.5161	1381.3	497.4
888.1572	1476.3331	1370.6	488
888.3005	1478.1493	1364.25	480.8
888.4438	1479.9648	1360.05	478
888.5871	1481.7795	1360.75	477.6
888.7303	1483.5935	1359.8	477
888.8736	1485.4067	1360.05	476.25
889.0168	1487.2192	1365.35	481.2
889.16	1489.031	1364.85	481.15
889.3032	1490.842	1363.65	478.9
889.4464	1492.6522	1359.05	476.25
889.5896	1494.4618	1353.8	469.3
889.7327	1496.2705	1348.8	465.65
889.8759	1498.0785	1352.45	469.95
890.019	1499.8858	1346.4	460.85
890.1622	1501.6924	1340.75	458.5
890.3053	1503.4981	1340.95	456.95
890.4484	1505.3032	1332.15	447.3
890.5914	1507.1075	1340.05	456.45
890.7345	1508.911	1326.3	442.65
890.8776	1510.7138	1329.1	443.05
891.0206	1512.5159	1316.05	432.95
891.1637	1514.3172	1316.65	431.75
891.3067	1516.1178	1306.1	424.2
891.4497	1517.9176	1301.4	415.5
891.5927	1519.7166	1299.4	416.2
891.7357	1521.515	1298.05	406.1
891.8786	1523.3126	1292.5	406.35
892.0216	1525.1094	1286.3	398.95
892.1645	1526.9055	1282.05	399.65
892.3074	1528.7008	1278.5	392.7
892.4503	1530.4954	1280.95	390.8
892.5932	1532.2893	1278.35	393.65
892.7361	1534.0824	1275.4	384.15
892.879	1535.8747	1277.55	391.75
893.0218	1537.6663	1277	392.3
893.1647	1539.4572	1276.4	390.65
893.3075	1541.2473	1275.85	390.7
893.4503	1543.0367	1271	387.8
893.5931	1544.8253	1279.4	391.5
893.7359	1546.6132	1268.2	382.65
893.8787	1548.4003	1278.75	383.55
894.0214	1550.1867	1286.15	390.3
894.1642	1551.9723	1287.3	397.45
894.3069	1553.7572	1289.7	404
894.4496	1555.5414	1297	409.05
894.5923	1557.3247	1313.5	427.25
894.735	1559.1074	1335.75	452.6
894.8777	1560.8893	1362.1	477
895.0204	1562.6705	1380.5	496.6
895.163	1564.4509	1408.65	523.85
895.3056	1566.2305	1413.85	530.1
895.4482	1568.0094	1421.85	538.5
895.5908	1569.7876	1415.45	530.7
895.7334	1571.565	1411.55	526.35
895.876	1573.3417	1415.6	533.15
896.0186	1575.1176	1415.55	532.6
896.1611	1576.8928	1420.15	533.25
896.3036	1578.6672	1432.4	549.35
896.4461	1580.4409	1449.3	564.05
896.5886	1582.2138	1481.7	593.15
896.7311	1583.986	1500.8	615.7
896.8736	1585.7575	1520.3	636.45
897.0161	1587.5282	1549.4	665.25
897.1585	1589.2981	1563.05	679.75
897.3009	1591.0673	1567.35	679.5
897.4433	1592.8358	1575.3	688.85
897.5857	1594.6035	1579	691.6
897.7281	1596.3704	1557.4	671.25
897.8705	1598.1366	1549.1	665
898.0128	1599.9021	1540.55	656.4
898.1551	1601.6668	1519.65	631.6
898.2975	1603.4308	1509.15	624.9
898.4398	1605.194	1505.2	615.1
898.5821	1606.9564	1509.55	623.55
898.7243	1608.7182	1547.3	656.7
898.8666	1610.4791	1588.95	703.05
899.0088	1612.2394	1657.95	772.95
899.1511	1613.9988	1726.4	842.25
899.2933	1615.7576	1793.55	907.9
899.4355	1617.5156	1819.1	929.2
899.5776	1619.2728	1791.75	908.1
899.7198	1621.0293	1746.75	861.25
899.862	1622.785	1686.2	794.6
900.0041	1624.54	1595.9	706.3
900.1462	1626.2942	1517.7	631.65
900.2883	1628.0477	1448.55	561.55
900.4304	1629.8005	1400.85	511.4
900.5725	1631.5525	1357.4	471.35
900.7145	1633.3037	1320.5	434.6
900.8566	1635.0542	1296.1	410.05
900.9986	1636.804	1271.9	386.3
901.1406	1638.553	1315.25	366.05
901.2826	1640.3013	1242.1	356.15
901.4245	1642.0488	1224.8	338.05
901.5665	1643.7955	1220.85	336.55
901.7085	1645.5416	1208.45	322.6
901.8504	1647.2868	1207.15	322.4
901.9923	1649.0313	1204.05	318.8
902.1342	1650.7751	1198.15	308.5
902.2761	1652.5181	1195.65	309.25
902.4179	1654.2604	1195.6	307.8
902.5598	1656.0019	1194.45	308.85
902.7016	1657.7427	1202.6	316.75
902.8434	1659.4828	1207.8	324.15
902.9852	1661.222	1225.5	339.95
903.127	1662.9606	1238.4	352.3
903.2687	1664.6984	1269.1	383.85
903.4105	1666.4354	1282.8	393.95
903.5522	1668.1717	1273.4	387.95
903.6939	1669.9072	1248.25	363.65
903.8356	1671.642	1219.4	331.75
903.9773	1673.3761	1190.55	303.9
904.119	1675.1094	1177.05	291.3
904.2606	1676.8419	1162.2	277.7
904.4022	1678.5737	1151	264.3
904.5439	1680.3048	1142.05	256.8
904.6855	1682.0351	1136.05	251.95
904.827	1683.7646	1142.35	254.65
904.9686	1685.4934	1131.7	246.1
905.1101	1687.2215	1131.9	245.75
905.2517	1688.9488	1124.25	239.6
905.3932	1690.6754	1124.55	238.65
905.5347	1692.4012	1125.35	240.55
905.6761	1694.1263	1115.55	230.2
905.8176	1695.8506	1111.1	225.8
905.9591	1697.5742	1115.3	231.5
906.1005	1699.297	1111.4	226.2
906.2419	1701.0191	1111.95	227.25
906.3833	1702.7404	1112.35	227.6
906.5246	1704.461	1109.6	223.45
906.666	1706.1808	1105.7	218.35
906.8073	1707.8999	1106.45	217.5
906.9487	1709.6182	1110	222.85
907.09	1711.3358	1101.65	215.75
907.2313	1713.0527	1099.35	214.55
907.3725	1714.7688	1109.55	218.6
907.5138	1716.4841	1102.75	216.45
907.655	1718.1987	1104.6	214.75
907.7962	1719.9126	1097.2	213.8
907.9374	1721.6257	1098.5	208.05
908.0786	1723.338	1098	209.35
908.2198	1725.0496	1098.3	209.9
908.3609	1726.7605	1094.05	208.35
908.502	1728.4706	1096.2	209.5
908.6431	1730.18	1092.4	204.25
908.7842	1731.8886	1090.6	204.8
908.9253	1733.5964	1108.75	202.8
909.0664	1735.3036	1094.65	206.05
909.2074	1737.0099	1087.3	202.3
909.3484	1738.7156	1088.6	201.95
909.4894	1740.4204	1088.9	198.1
909.6304	1742.1246	1089.5	202.7
909.7714	1743.8279	1089.9	203.15
909.9123	1745.5306	1086.65	199.55
910.0532	1747.2325	1085.35	199.45
910.1941	1748.9336	1085.4	200.25
910.335	1750.634	1084.3	195.9
910.4759	1752.3336	1084.8	197.75
910.6168	1754.0325	1084.15	199.15
910.7576	1755.7307	1081.65	194.3
910.8984	1757.4281	1082.3	196.05
911.0392	1759.1247	1091.55	197.55
911.18	1760.8206	1088.6	197.65
911.3208	1762.5158	1087.55	198.7
911.4615	1764.2102	1077.5	193.05
911.6022	1765.9039	1081.4	196
911.7429	1767.5968	1079.9	194.35
911.8836	1769.289	1077.8	190.5
912.0243	1770.9804	1077.6	192.25
912.1649	1772.6711	1079.8	194
912.3056	1774.361	1077.05	190.1
912.4462	1776.0502	1080.85	195.05
912.5868	1777.7386	1078.15	188.35
912.7274	1779.4263	1079.5	194.95
912.8679	1781.1132	1077.65	192.55
913.0084	1782.7994	1083.55	194.05
913.149	1784.4849	1080	194.3
913.2895	1786.1696	1096.25	190.1
913.4299	1787.8535	1073.05	185.9
913.5704	1789.5367	1077.5	191.25
913.7108	1791.2192	1075.2	188.75
913.8513	1792.9009	1085.25	184.15
913.9917	1794.5818	1072.95	185.25
914.132	1796.2621	1069.5	184.3
914.2724	1797.9415	1072.65	186.15
914.4128	1799.6202	1071.7	184.45
914.5531	1801.2982	1070.4	182.9
914.6934	1802.9755	1074.6	186.4
914.8337	1804.6519	1068.7	181.15
914.9739	1806.3277	1066	179.8
915.1142	1808.0027	1068.3	182.35
915.2544	1809.6769	1070.55	184.2
915.3946	1811.3504	1064.75	176.95
915.5348	1813.0231	1069.05	180.3
915.675	1814.6951	1066.95	179.45
915.8151	1816.3664	1068	177.8
915.9553	1818.0369	1066.85	180.75
916.0954	1819.7067	1064.7	178.85
916.2355	1821.3757	1062.65	173.7
916.3755	1823.044	1067.6	181.35
916.5156	1824.7115	1063.9	176
916.6556	1826.3783	1065.1	182.15
916.7956	1828.0443	1061.6	178.3
916.9356	1829.7096	1066.2	179.35
917.0756	1831.3741	1064.75	176.4
917.2155	1833.0379	1059.55	173.1
917.3555	1834.701	1064.2	175.7
917.4954	1836.3633	1060.6	171.55
917.6353	1838.0248	1064.3	176.5
917.7751	1839.6856	1057.7	171.5
917.915	1841.3457	1059.75	174.35
918.0548	1843.005	1057	171.6
918.1946	1844.6636	1056	170.6
918.3344	1846.3214	1055.8	168.75
918.4742	1847.9785	1056.2	170.4
918.6139	1849.6349	1059.15	173.25
918.7537	1851.2904	1066.9	171.35
918.8934	1852.9453	1054.1	167.45
919.0331	1854.5994	1060.95	172.8
919.1727	1856.2528	1059.8	170.35
919.3124	1857.9054	1053.4	167.35
919.452	1859.5572	1051.3	165.5
919.5916	1861.2083	1054.5	167.6
919.7312	1862.8587	1056.15	170
919.8708	1864.5084	1055.2	169.05
920.0103	1866.1572	1052.2	167.25
920.1498	1867.8054	1048.35	162.9
920.2893	1869.4528	1050.65	165.4
920.4288	1871.0994	1051.3	166.15
920.5683	1872.7453	1053.9	167.05
920.7077	1874.3905	1057.15	164
920.8471	1876.0349	1055.25	168.25
920.9865	1877.6786	1049.2	161
921.1259	1879.3215	1050.35	164.4
921.2653	1880.9637	1055.75	168.3
921.4046	1882.6051	1044.6	157.75
921.5439	1884.2458	1050.15	161.25
921.6832	1885.8858	1050.9	163.35
921.8225	1887.525	1050.2	162.25
921.9617	1889.1634	1046.2	161.45
922.101	1890.8011	1046.45	161.35
922.2402	1892.4381	1045.6	160.45
922.3794	1894.0743	1048	162
922.5185	1895.7098	1045	159.05
922.6577	1897.3446	1047.65	160.8
922.7968	1898.9786	1050	159.3
922.9359	1900.6118	1040.95	154.85
923.075	1902.2443	1044.95	156.95
923.214	1903.8761	1044.9	159.1
923.3531	1905.5071	1042.95	155.75
923.4921	1907.1374	1041.3	154.45
923.6311	1908.7669	1040.9	154.45
923.77	1910.3957	1038.75	152.7
923.909	1912.0237	1040.7	154.5
924.0479	1913.651	1040.1	153.95
924.1868	1915.2776	1034.1	149.4
924.3257	1916.9034	1037.25	151.2
924.4646	1918.5285	1040.05	155.7
924.6034	1920.1528	1034.75	147
924.7422	1921.7764	1040.55	156.45
924.881	1923.3992	1036.25	151
925.0198	1925.0213	1036.9	151.5
925.1586	1926.6427	1038.15	152.55
925.2973	1928.2633	1145.05	144.4
925.436	1929.8832	1040.5	151.15
925.5747	1931.5023	1034.2	148.1
925.7134	1933.1207	1029.85	144.7
925.852	1934.7383	1036.4	150.95
925.9906	1936.3552	1033.35	148
926.1292	1937.9714	1033.9	145.8
926.2678	1939.5868	1034.7	146.2
926.4064	1941.2015	1034.5	147.05
926.5449	1942.8154	1028.55	142.85
926.6834	1944.4286	1028.4	142.8
926.8219	1946.041	1053.4	142.15
926.9604	1947.6528	1039.15	146.85
927.0988	1949.2637	1030	144.6
927.2372	1950.8739	1031.75	143.55
927.3756	1952.4834	1033.2	147.3
927.514	1954.0921	1034.45	146.8
927.6523	1955.7001	1033.95	143
927.7907	1957.3074	1029.15	140.75
927.929	1958.9139	1032.55	145.25
928.0673	1960.5197	1029.55	141.65
928.2055	1962.1247	1024.75	138.1
928.3438	1963.729	1026.15	141.5
928.482	1965.3325	1049.9	138.45
928.6202	1966.9353	1024.55	138
928.7584	1968.5374	1029.1	141.35
928.8965	1970.1387	1026.85	140.6
929.0346	1971.7393	1029.5	144.95
929.1727	1973.3392	1022.35	134.7
929.3108	1974.9383	1019.25	132.85
929.4489	1976.5366	1019.9	131.3
929.5869	1978.1342	1024.6	137.7
929.7249	1979.7311	1024	136.1
929.8629	1981.3273	1023.25	136.8
930.0009	1982.9227	1020.85	133.95
930.1388	1984.5173	1020.2	133.75
930.2767	1986.1112	1021.15	135.55
930.4146	1987.7044	1019.45	133.85
930.5525	1989.2968	1023	135.85
930.6904	1990.8885	1021.1	131.3
930.8282	1992.4795	1025.35	137.7
930.966	1994.0697	1019.75	133.85
931.1038	1995.6592	1021.5	135.55
931.2415	1997.2479	1018.3	130.3
931.3793	1998.8359	1018.8	132.85
931.517	2000.4232	1013.85	127.9
931.6547	2002.0097	1018.8	133.6
931.7923	2003.5955	1020.05	131.85
931.93	2005.1805	1018.45	129.05
932.0676	2006.7648	1017.8	132.3
932.2052	2008.3484	1021.25	131.7
932.3427	2009.9312	1018.2	127.65
932.4803	2011.5133	1017.95	131.85
932.6178	2013.0946	1018.15	130.8
932.7553	2014.6752	1015.3	130.8
932.8928	2016.2551	1016.85	129.9
933.0302	2017.8342	1017.2	131.5
933.1676	2019.4126	1014.6	128.55
933.305	2020.9902	1016.3	131.35
933.4424	2022.5672	1017.9	128.85
933.5798	2024.1433	1021.8	129.9
933.7171	2025.7188	1012.55	127.2
933.8544	2027.2935	1012.3	123.45
933.9917	2028.8674	1013.2	126.2
934.129	2030.4406	1014.1	128.3
934.2662	2032.0131	1015.1	130.85
934.4034	2033.5849	1020.65	128
934.5406	2035.1559	1015.45	127.25
934.6778	2036.7261	1011.35	124.95
934.8149	2038.2957	1015.3	127.55
934.952	2039.8645	1014.05	128.35
935.0891	2041.4325	1011.95	121.2
935.2262	2042.9998	1015.9	129.2
935.3632	2044.5664	1015.3	127.2
935.5002	2046.1323	1014.05	127.1
935.6372	2047.6974	1015.55	130.45
935.7742	2049.2617	1012.7	125.15
935.9111	2050.8254	1044	124.4
936.048	2052.3883	1016.6	127.3
936.1849	2053.9504	1011.35	126.45
936.3218	2055.5118	1012.35	125.4
936.4586	2057.0725	1016.75	125.75
936.5955	2058.6325	1016.85	131.7
936.7323	2060.1917	1010	122.85
936.869	2061.7502	1013.95	123.65
937.0058	2063.3079	1011.15	125.4
937.1425	2064.8649	1016.3	126.5
937.2792	2066.4212	1013.25	125.95
937.4159	2067.9767	1012.1	125.5
937.5525	2069.5315	1011.65	125.35
937.6891	2071.0856	1011.2	124.4
937.8257	2072.6389	1013.95	126.65
937.9623	2074.1915	1008.8	124.1
938.0989	2075.7433	1013.6	125.1
938.2354	2077.2945	1009.85	126.1
938.3719	2078.8448	1009.15	122.35
938.5084	2080.3945	1007.15	120.95
938.6448	2081.9434	1007.1	120.2
938.7812	2083.4916	1011.5	125.5
938.9176	2085.039	1007.35	119.8
939.054	2086.5857	1009.55	121.95
939.1903	2088.1317	1006.5	120.15
939.3267	2089.677	1008.6	121.15
939.463	2091.2215	1008.8	124.1
939.5992	2092.7652	1010.35	121.55
939.7355	2094.3083	1007.55	121.4
939.8717	2095.8506	1004.9	118.6
940.0079	2097.3921	1006.15	120.1
940.1441	2098.933	1006.35	120.55
940.2802	2100.4731	1001.75	114.9
940.4163	2102.0124	1013.05	119.7
940.5524	2103.5511	1006.55	120.5
940.6885	2105.089	1005.2	117.5
940.8245	2106.6261	1004.35	117.3
940.9606	2108.1626	1010.7	122.35
941.0965	2109.6983	1036.05	120.95
941.2325	2111.2332	1007.95	119.6
941.3684	2112.7675	1007.65	119.6
941.5044	2114.301	1006.4	117.95
941.6403	2115.8337	1010.1	122.55
941.7761	2117.3657	1002.4	115.7
941.912	2118.897	1008.3	123.2
942.0478	2120.4276	1011	117.65
942.1835	2121.9575	1003.5	117.5
942.3193	2123.4866	1018.2	117.6
942.455	2125.0149	1008.4	118.55
942.5907	2126.5426	1008.25	121.25
942.7264	2128.0695	1005.95	115.95
942.8621	2129.5956	1005.05	118.4
942.9977	2131.1211	1005.45	114.8
943.1333	2132.6458	1004.3	117.35
943.2689	2134.1698	1002.4	115.1
943.4044	2135.693	1005	117.85
943.54	2137.2155	1006	117.55
943.6755	2138.7373	1001.85	113.95
943.8109	2140.2584	1002.3	115.55
943.9464	2141.7787	1008.55	115.4
944.0818	2143.2983	1000.75	113.6
944.2172	2144.8171	1001.1	116.25
944.3526	2146.3353	1006.05	117
944.4879	2147.8527	1000.55	115.45
944.6232	2149.3693	1000.25	114.25
944.7585	2150.8853	1003	118
944.8938	2152.4005	1002.45	115.85
945.029	2153.9149	1003.05	115.75
945.1642	2155.4287	998	111.85
945.2994	2156.9417	1002.1	115.1
945.4346	2158.454	1005.1	115.5
945.5697	2159.9655	998.2	110.45
945.7048	2161.4764	1002.35	113.7
945.8399	2162.9865	1003.65	117.95
945.9749	2164.4958	999.55	111.8
946.1099	2166.0045	1004.3	115.25
946.2449	2167.5124	1000.95	113.5
946.3799	2169.0195	999.75	115
946.5148	2170.526	998.2	111.7
946.6498	2172.0317	995.85	108.95
946.7846	2173.5367	1000.25	113.2
946.9195	2175.0409	999.2	113.35
947.0543	2176.5445	1000.85	114.95
947.1891	2178.0473	997.25	110.55
947.3239	2179.5494	1001.2	110.2
947.4587	2181.0507	999.2	111.2
947.5934	2182.5513	997.7	110.6
947.7281	2184.0512	995.55	108.05
947.8628	2185.5504	992.4	105.85
947.9974	2187.0488	994.5	106.55
948.132	2188.5465	996.3	109.45
948.2666	2190.0435	998.35	110.3
948.4012	2191.5397	997.8	110.8
948.5357	2193.0353	997.85	112.2
948.6702	2194.5301	995.4	107.4
948.8047	2196.0241	994.45	105.65
948.9392	2197.5175	993.65	108.2
949.0736	2199.0101	995.1	107.05
949.208	2200.502	990.55	104.75
949.3424	2201.9931	989.85	103.65
949.4767	2203.4835	995.25	105.95
949.611	2204.9733	1001.55	107.35
949.7453	2206.4622	992.35	106.2
949.8796	2207.9505	995.2	102.95
950.0138	2209.438	988.65	104.7
950.148	2210.9248	994.85	107.85
950.2822	2212.4109	992.95	106.7
950.4164	2213.8962	996.15	107.55
950.5505	2215.3809	990.1	103.8
950.6846	2216.8648	992.95	105.35
950.8186	2218.3479	995.2	103.3
950.9527	2219.8304	993.85	103.6
951.0867	2221.3121	992.05	104.15
951.2207	2222.7931	987.75	102.15
951.3546	2224.2733	991.75	105.8
951.4886	2225.7529	988.85	103.35
951.6225	2227.2317	992.8	102.95
951.7563	2228.7098	987.75	99.5
951.8902	2230.1872	989.9	104.8
952.024	2231.6638	989.7	102.45
952.1578	2233.1397	990.9	100.65
952.2916	2234.6149	988.25	101.45
952.4253	2236.0894	987	99.55
952.559	2237.5632	999.1	102.9
952.6927	2239.0362	985.85	98.95
952.8263	2240.5085	985.85	98
952.9599	2241.9801	988.2	102.4
953.0935	2243.4509	985.05	99.05
953.2271	2244.921	981.2	96.5
953.3606	2246.3904	990	99.75
953.4941	2247.8591	984.1	97.7
953.6276	2249.3271	984.1	98.4
953.7611	2250.7943	985.05	98.55
953.8945	2252.2608	983.3	97.9
954.0279	2253.7266	982.7	96.7
954.1612	2255.1917	982.9	94.7
954.2946	2256.656	984.1	96.55
954.4279	2258.1197	983.85	97.25
954.5612	2259.5826	985.45	97.6
954.6944	2261.0447	984.8	97.75
954.8276	2262.5062	986.45	98.35
954.9608	2263.9669	983.3	94.9
955.094	2265.4269	982.45	95.9
955.2271	2266.8862	982.3	95.7
955.3602	2268.3448	983.1	95.55
955.4933	2269.8026	980.65	92.7
955.6264	2271.2598	982.4	96.35
955.7594	2272.7162	981.4	95.85
955.8924	2274.1719	982.3	94.95
956.0253	2275.6268	979.1	92.85
956.1583	2277.0811	979.9	93
956.2912	2278.5346	982.15	98.25
956.4241	2279.9874	977.1	90.85
956.5569	2281.4395	976.9	91.05
956.6897	2282.8908	983.95	92.15
956.8225	2284.3414	981.25	93.25
956.9553	2285.7914	976	88.5
957.088	2287.2406	980.6	94.35
957.2207	2288.689	979.3	92.85
957.3534	2290.1368	975.95	87.15
957.486	2291.5838	982.25	92.25
957.6186	2293.0302	977.15	88.7
957.7512	2294.4758	981.3	95.4
957.8838	2295.9206	980.5	92.1
958.0163	2297.3648	977.75	92.05
958.1488	2298.8082	978.55	92.55
958.2813	2300.251	977.65	90.5
958.4137	2301.693	978	88.45
958.5461	2303.1343	980.1	92.3
958.6785	2304.5748	977.9	91
958.8108	2306.0147	978	90.3
958.9432	2307.4538	978	88.4
959.0754	2308.8922	974.05	88.55
959.2077	2310.3299	975.25	88.7
959.3399	2311.7669	970.4	85.5
959.4721	2313.2031	976.9	89.65
959.6043	2314.6387	975.6	87.75
959.7365	2316.0735	975.35	87.45
959.8686	2317.5076	977.25	91.1
960.0006	2318.941	974.6	88.6
960.1327	2320.3737	973.75	86.3
960.2647	2321.8056	975.4	88.2
960.3967	2323.2369	974.4	86.3
960.5287	2324.6674	976.55	87.8
960.6606	2326.0972	979.4	92.3
960.7925	2327.5263	981.8	96.7
960.9244	2328.9547	978.65	94.15
961.0562	2330.3823	980.35	94.45
961.1881	2331.8092	983.95	93.2
961.3198	2333.2355	974.35	86.3
961.4516	2334.661	972.15	84.45
961.5833	2336.0858	970.9	83.35
961.715	2337.5098	971.6	85.3
961.8467	2338.9332	973.4	85.7
961.9783	2340.3558	974.45	83
962.1099	2341.7778	971.05	81.4
962.2415	2343.199	972.6	82.65
962.373	2344.6195	970.8	84.05
962.5045	2346.0393	969.95	82.4
962.636	2347.4583	970.4	84.5
962.7675	2348.8767	968.6	81
962.8989	2350.2943	969.45	81.8
963.0303	2351.7113	969.85	82.55
963.1617	2353.1275	967.8	81.3
963.293	2354.543	980.2	88.05
963.4243	2355.9578	968.3	81.45
963.5556	2357.3718	970.35	85
963.6868	2358.7852	966.25	75.6
963.818	2360.1978	968.85	80.95
963.9492	2361.6098	970.4	82.6
964.0803	2363.021	970.2	80.55
964.2114	2364.4315	967.45	81.45
964.3425	2365.8413	967.5	78.65
964.4736	2367.2504	965.25	79.1
964.6046	2368.6587	968.3	81.15
964.7356	2370.0664	966.4	80.7
964.8666	2371.4733	966.65	78.35
964.9975	2372.8795	965.05	79.45
965.1284	2374.285	968	81.4
965.2593	2375.6899	966.45	79.85
965.3901	2377.0939	965.9	79.3
965.5209	2378.4973	967.3	81.75
965.6517	2379.9	965.5	77.6
965.7825	2381.3019	967.1	79.95
965.9132	2382.7032	961.1	75.4
966.0439	2384.1037	964.55	80.2
966.1745	2385.5035	964.1	76.75
966.3051	2386.9027	964.45	76.4
966.4357	2388.3011	968.65	78.1
966.5663	2389.6987	965.65	77.25
966.6968	2391.0957	964.85	80.85
966.8273	2392.492	960.85	72.95
966.9578	2393.8876	963.3	77.05
967.0882	2395.2824	959.45	73.85
967.2186	2396.6765	957.75	72.35
967.349	2398.07	959.75	75.65
967.4793	2399.4627	964.15	77.2
967.6097	2400.8547	961.35	74.65
967.7399	2402.246	966.9	72.15
967.8702	2403.6366	963.7	75.05
968.0004	2405.0265	958.55	72.8
968.1306	2406.4156	964.6	76
968.2607	2407.8041	964.1	76.1
968.3909	2409.1918	960.85	73.55
968.521	2410.5789	962.4	74.7
968.651	2411.9652	961.6	71.7
968.781	2413.3508	957.3	69.8
968.911	2414.7358	961.7	73.55
969.041	2416.12	956.75	69.45
969.1709	2417.5035	960.25	75.6
969.3008	2418.8863	958.3	71.2
969.4307	2420.2684	958.7	73.35
969.5606	2421.6497	958.55	71.45
969.6904	2423.0304	956	68.75
969.8201	2424.4104	959.1	70.7
969.9499	2425.7896	964.3	74.2
970.0796	2427.1682	957.6	72.15
970.2093	2428.546	958.1	69.85
970.3389	2429.9232	958.3	71.2
970.4685	2431.2996	958.7	72
970.5981	2432.6753	955.25	69.05
970.7277	2434.0503	959.8	73
970.8572	2435.4246	954.15	67.5
970.9867	2436.7982	957.95	69.3
971.1161	2438.1711	955.95	70.5
971.2456	2439.5433	957.85	69.7
971.375	2440.9148	961.45	67.65
971.5043	2442.2856	954.95	67.1
971.6336	2443.6557	952.1	63.8
971.7629	2445.025	951.35	67.3
971.8922	2446.3937	955.35	67.5
972.0214	2447.7617	955.5	68.8
972.1506	2449.1289	954.95	67.35
972.2798	2450.4955	960.4	69.4
972.4089	2451.8613	953.2	68.35
972.538	2453.2265	954.75	68.15
972.6671	2454.5909	952.05	65.5
972.7961	2455.9546	952.8	64.1
972.9251	2457.3177	953.2	67.4
973.0541	2458.68	954.3	63.7
973.1831	2460.0416	953.25	66.8
973.312	2461.4025	952.05	64.9
973.4408	2462.7627	963.7	64.75
973.5697	2464.1222	950.8	65.1
973.6985	2465.4811	949.95	61.7
973.8273	2466.8392	949.85	63.4
973.956	2468.1966	951.65	63.5
974.0847	2469.5533	953.2	64.2
974.2134	2470.9093	953.95	65.35
974.3421	2472.2645	951.15	63.4
974.4707	2473.6191	953.3	66.05
974.5993	2474.973	951.75	65
974.7278	2476.3262	952.8	62.9
974.8563	2477.6787	952.6	65.75
974.9848	2479.0305	950.55	64.95
975.1132	2480.3816	953.1	64.4
975.2417	2481.7319	948.2	60.95
975.37	2483.0816	949.1	58
975.4984	2484.4306	951.85	63.75
975.6267	2485.7789	948.8	64.15
975.755	2487.1264	951.3	62.45
975.8833	2488.4733	947.4	62
976.0115	2489.8195	968	64.75
976.1397	2491.165	951.5	61.75
976.2678	2492.5097	949.15	60.55
976.3959	2493.8538	948.5	61.95
976.524	2495.1972	948.5	61.45
976.6521	2496.5398	951.7	64.75
976.7801	2497.8818	949.8	60.8
976.9081	2499.2231	944.95	58.7
977.036	2500.5637	950.85	61.85
977.164	2501.9035	950.1	62.15
977.2918	2503.2427	949.45	58.9
977.4197	2504.5812	949.85	62.3
977.5475	2505.919	946	56.25
977.6753	2507.256	947.85	62.5
977.8031	2508.5924	946.35	58.25
977.9308	2509.9281	953.35	62.85
978.0585	2511.2631	946.85	60.4
978.1861	2512.5974	946.55	60.35
978.3137	2513.9309	946.1	58.8
978.4413	2515.2638	977.15	58.65
978.5689	2516.596	942.8	56.95
978.6964	2517.9275	947.6	60.1
978.8239	2519.2583	944.95	58.75
978.9513	2520.5884	945.55	56.85
979.0788	2521.9178	948.2	61.5
979.2062	2523.2465	940.45	56
979.3335	2524.5745	943.05	57.05
979.4608	2525.9018	944.1	55.4
979.5881	2527.2284	943.4	57.85
979.7154	2528.5543	941.4	56.45
979.8426	2529.8796	945.1	57.2
979.9698	2531.2041	944.2	55.85
980.0969	2532.5279	941.8	56.2
980.224	2533.851	943.1	53.7
980.3511	2535.1735	942.85	55.6
980.4781	2536.4952	942.45	54.55
980.6052	2537.8163	942.45	53.55
980.7321	2539.1366	942	55.15
980.8591	2540.4562	944.15	56.75
980.986	2541.7752	942.45	55.85
981.1129	2543.0935	941.85	55.5
981.2397	2544.411	945.15	56.15
981.3665	2545.7279	942.75	54
981.4933	2547.0441	942.05	55.95
981.62	2548.3596	943.65	54.5
981.7467	2549.6744	943.45	55.55
981.8734	2550.9885	946.5	58.05
982.0001	2552.3019	938.05	50.9
982.1267	2553.6146	940.7	52.95
982.2532	2554.9266	940.55	53.85
982.3798	2556.2379	939.45	50.65
982.5063	2557.5485	942.05	54.95
982.6327	2558.8585	948.4	52.2
982.7592	2560.1677	947.4	56.2
982.8856	2561.4762	939.85	53.15
983.0119	2562.7841	943.35	50.7
983.1383	2564.0913	940	54.2
983.2646	2565.3977	938.6	51.7
983.3908	2566.7035	940.8	54.45
983.517	2568.0086	940.45	52.6
983.6432	2569.313	939.55	51.45
983.7694	2570.6167	946	55.75
983.8955	2571.9197	941	54.1
984.0216	2573.222	940.2	49.9
984.1476	2574.5236	942.05	56.5
984.2737	2575.8246	941.6	51.85
984.3996	2577.1248	942.05	53.65
984.5256	2578.4244	939.1	51.8
984.6515	2579.7232	939.05	51.2
984.7774	2581.0214	964.85	47.5
984.9032	2582.3189	939.4	51.25
985.029	2583.6157	943.75	53.7
985.1548	2584.9118	938.5	51.1
985.2806	2586.2072	939.45	54.6
985.4063	2587.5019	939	50.85
985.5319	2588.7959	940.05	53.5
985.6576	2590.0893	939.05	51.4
985.7832	2591.3819	937	52.45
985.9087	2592.6739	935.05	50.9
986.0343	2593.9652	938.45	50.65
986.1597	2595.2557	937.35	50.15
986.2852	2596.5456	938.65	49.15
986.4106	2597.8348	934.65	48.5
986.536	2599.1234	939.1	51.6
986.6614	2600.4112	940.5	53.5
986.7867	2601.6983	939.55	48.05
986.912	2602.9848	937.35	51.5
987.0372	2604.2705	943.4	51.05
987.1624	2605.5556	939.45	52.35
987.2876	2606.84	939.05	52.15
987.4128	2608.1237	940.15	51.65
987.5379	2609.4067	937.45	51.55
987.6629	2610.689	945.3	48.6
987.788	2611.9707	940.35	50.15
987.913	2613.2516	940.5	50.2
988.0379	2614.5319	937.25	50.65
988.1629	2615.8115	937.55	52.05
988.2878	2617.0903	935.85	48.3
988.4126	2618.3685	938.3	51.8
988.5375	2619.6461	936.75	48.55
988.6622	2620.9229	939.65	50.4
988.787	2622.199	936.3	47.85
988.9117	2623.4745	936.4	48.7
989.0364	2624.7493	933.3	44.1
989.161	2626.0234	933.5	48.05
989.2857	2627.2968	934.4	47.6
989.4102	2628.5695	932.6	44.7
989.5348	2629.8415	934.3	46.9
989.6593	2631.1128	937.35	47.75
989.7837	2632.3835	933.3	46.05
989.9082	2633.6535	936.25	49.65
990.0326	2634.9228	932	47.1
990.1569	2636.1914	932.3	45.85
990.2812	2637.4593	939.95	47.25
990.4055	2638.7265	935.05	48.1
990.5298	2639.9931	932.85	48.4
990.654	2641.259	932.85	45.25
990.7782	2642.5242	932.2	45.6
990.9023	2643.7887	931.95	45.35
991.0264	2645.0525	932.1	46.5
991.1505	2646.3156	932.55	44.35
991.2745	2647.5781	931.1	45.6
991.3985	2648.8398	931.7	47.35
991.5225	2650.1009	972.95	47.5
991.6464	2651.3613	930.75	45.3
991.7703	2652.6211	931.65	43.9
991.8942	2653.8801	930.05	44.35
992.018	2655.1385	930.85	41.55
992.1418	2656.3961	931.55	43.65
992.2655	2657.6531	931.15	43.65
992.3892	2658.9094	930.2	42
992.5129	2660.1651	931.75	44.35
992.6366	2661.42	931.8	44.25
992.7602	2662.6743	931.5	44.7
992.8837	2663.9279	931.1	45.4
993.0073	2665.1808	930.25	42.25
993.1307	2666.433	932.65	45.15
993.2542	2667.6846	928.1	42.85
993.3776	2668.9354	931.5	40.1
993.501	2670.1856	930.25	42.65
993.6244	2671.4351	928.45	41.75
993.7477	2672.6839	932.65	43.35
993.8709	2673.9321	927.75	41.3
993.9942	2675.1795	928.6	40.8
994.1174	2676.4263	930.65	43.2
994.2405	2677.6724	929.85	44.5
994.3637	2678.9179	932.55	44.85
994.4868	2680.1626	934	46.25
994.6098	2681.4067	928.7	42.4
994.7328	2682.6501	927.85	41.05
994.8558	2683.8928	927.2	42.6
994.9788	2685.1348	926.5	40.6
995.1017	2686.3761	930.35	42.7
995.2245	2687.6168	927.9	42.5
995.3474	2688.8568	928.95	42.2
995.4702	2690.0961	926.3	40.9
995.5929	2691.3348	929.15	40.3
995.7156	2692.5727	931.35	46
995.8383	2693.81	928.4	42.1
995.961	2695.0466	924.5	39.7
996.0836	2696.2826	929.15	40.4
996.2062	2697.5178	930.65	41.65
996.3287	2698.7524	928.05	41.15
996.4512	2699.9863	931.2	42.1
996.5737	2701.2195	926.4	39
996.6961	2702.452	928.55	39.45
996.8185	2703.6839	930.7	42.65
996.9408	2704.9151	925.1	39
997.0631	2706.1456	927.45	39.5
997.1854	2707.3755	930.5	43.05
997.3077	2708.6046	933.1	42.8
997.4299	2709.8331	930	41.95
997.552	2711.0609	927.85	40.85
997.6742	2712.2881	926.7	40.95
997.7963	2713.5145	933.25	42.1
997.9183	2714.7403	927.9	44.4
998.0403	2715.9654	929.9	44
998.1623	2717.1899	931.1	42.05
998.2842	2718.4136	931.6	45.75
998.4062	2719.6367	933.95	47.2
998.528	2720.8591	937.7	43.15
998.6498	2722.0809	930.2	42.7
998.7716	2723.3019	937.4	47.35
998.8934	2724.5223	934.85	46.1
999.0151	2725.7421	937.65	49.6
999.1368	2726.9611	935.45	47
999.2584	2728.1795	936.35	46.6
999.38	2729.3972	930.75	42.8
999.5016	2730.6142	942.7	43.2
999.6231	2731.8306	931.9	44.35
999.7446	2733.0462	931.9	42.15
999.8661	2734.2612	934	42.6
999.9875	2735.4756	930.55	41.65
1000.1089	2736.6892	928.4	40.9
1000.2302	2737.9022	923.2	37.6
1000.3515	2739.1145	925.7	39.5
1000.4728	2740.3262	929.95	34.9
1000.594	2741.5372	925.25	37
1000.7152	2742.7475	923.85	37.2
1000.8363	2743.9571	929.45	41.35
1000.9575	2745.1661	928.15	38.1
1001.0785	2746.3744	924.3	36.25
1001.1996	2747.582	923.15	35.85
1001.3206	2748.7889	923.2	34.55
1001.4415	2749.9952	920.55	32.65
1001.5625	2751.2008	924.8	37.55
1001.6833	2752.4057	925.7	36.25
1001.8042	2753.61	922.3	34
1001.925	2754.8136	923.25	34.4
1002.0458	2756.0165	922.1	36.2
1002.1665	2757.2188	920.95	35.05
1002.2872	2758.4204	920.75	34.15
1002.4078	2759.6213	923.4	33.55
1002.5285	2760.8215	928.7	35.75
1002.649	2762.0211	922.35	34.2
1002.7696	2763.22	924.25	36.45
1002.8901	2764.4182	923.1	36.45
1003.0106	2765.6158	923.5	37.9
1003.131	2766.8127	922.7	35.65
1003.2514	2768.009	919.85	31.55
1003.3717	2769.2045	919.65	30.4
1003.492	2770.3994	921.7	32
1003.6123	2771.5936	920.35	32.65
1003.7325	2772.7872	918.65	34.75
1003.8527	2773.9801	917.25	27.3
1003.9729	2775.1723	933.35	30.95
1004.093	2776.3639	917.4	30.35
1004.2131	2777.5548	918.2	29.25
1004.3331	2778.745	920.85	32.7
1004.4531	2779.9346	918	32.45
1004.5731	2781.1235	921.95	33.7
1004.693	2782.3117	918.6	31.75
1004.8129	2783.4992	918.7	31.2
1004.9328	2784.6861	919.7	33.9
1005.0526	2785.8723	918.2	30.2
1005.1723	2787.0579	918.35	30.05
1005.2921	2788.2428	917.3	29.7
1005.4118	2789.427	916.45	29.25
1005.5314	2790.6106	918.05	29.35
1005.651	2791.7935	919.35	31.75
1005.7706	2792.9757	918.45	32.35
1005.8902	2794.1573	920.95	32.15
1006.0097	2795.3382	918.55	31.45
1006.1291	2796.5184	917.9	32.3
1006.2485	2797.698	919.05	31.6
1006.3679	2798.8769	917.5	30.8
1006.4873	2800.0551	920.9	32.7
1006.6066	2801.2327	922.2	32.75
1006.7258	2802.4096	920.25	32.85
1006.8451	2803.5859	919.4	32.95
1006.9642	2804.7615	921.9	33.25
1007.0834	2805.9364	920.5	33.2
1007.2025	2807.1106	920.3	34.3
1007.3216	2808.2842	920.2	31.25
1007.4406	2809.4572	921.4	35.45
1007.5596	2810.6294	924.45	35.5
1007.6785	2811.801	922.4	37.15
1007.7975	2812.972	922.95	35.45
1007.9163	2814.1423	926.85	40.55
1008.0352	2815.3119	927	39.2
1008.154	2816.4808	929.05	43.5
1008.2727	2817.6491	928.15	39.7
1008.3914	2818.8167	927.95	41.9
1008.5101	2819.9837	940.65	51.85
1008.6288	2821.15	937.9	49.9
1008.7474	2822.3157	938.8	50.85
1008.8659	2823.4807	947.4	61.45
1008.9844	2824.645	950.05	60.4
1009.1029	2825.8086	955.7	68.5
1009.2214	2826.9716	958.8	73.85
1009.3398	2828.134	965.15	79
1009.4581	2829.2957	967.4	79.95
1009.5764	2830.4567	970.45	83.8
1009.6947	2831.617	974.65	87.7
1009.813	2832.7767	977.3	90.2
1009.9312	2833.9358	978.45	91.75
1010.0493	2835.0941	977.7	90.05
1010.1675	2836.2519	973.55	84.9
1010.2855	2837.4089	971.6	83.3
1010.4036	2838.5653	969.2	81.45
1010.5216	2839.7211	967.45	80.35
1010.6396	2840.8761	968.25	77.9
1010.7575	2842.0306	962.1	77.1
1010.8754	2843.1843	962.9	77.5
1010.9932	2844.3374	966.55	80.7
1011.111	2845.4899	966.2	78.95
1011.2288	2846.6417	966.05	79
1011.3465	2847.7928	967.45	82.95
1011.4642	2848.9433	971.8	83.9
1011.5818	2850.0931	966.5	78.85
1011.6995	2851.2422	970	82.5
1011.817	2852.3907	972.2	84.15
1011.9345	2853.5385	970.5	82
1012.052	2854.6857	998	85.9
1012.1695	2855.8323	972.7	85.3
1012.2869	2856.9781	972.85	85.35
1012.4042	2858.1233	973.5	87.65
1012.5216	2859.2679	976.4	91.9
1012.6389	2860.4118	979.3	92.2
1012.7561	2861.555	982.55	90.85
1012.8733	2862.6976	983.8	95.15
1012.9905	2863.8395	986.2	99.65
1013.1076	2864.9808	986.3	100.75
1013.2247	2866.1214	986.15	100.8
1013.3417	2867.2614	988.55	101.1
1013.4587	2868.4007	990.25	101.65
1013.5757	2869.5393	993.9	104.4
1013.6926	2870.6773	994.9	104.65
1013.8095	2871.8146	997.1	108.3
1013.9263	2872.9513	1000.9	110.3
1014.0431	2874.0874	994.8	107.5
1014.1599	2875.2227	1000.4	113.35
1014.2766	2876.3574	996.4	110.35
1014.3933	2877.4915	1000.05	113.15
1014.51	2878.6249	1000.6	115.95
1014.6266	2879.7577	1004.75	115.7
1014.7431	2880.8898	1013.4	115.7
1014.8596	2882.0212	1002.65	115.55
1014.9761	2883.152	1005.35	117.9
1015.0925	2884.2821	1007.1	121.15
1015.2089	2885.4116	1005.1	119.95
1015.3253	2886.5405	1008.85	120.4
1015.4416	2887.6686	1012.15	120
1015.5579	2888.7962	1010.75	124.85
1015.6741	2889.923	1012.1	126.9
1015.7903	2891.0493	1009.05	122.7
1015.9065	2892.1748	1012	124
1016.0226	2893.2997	1010.05	124.3
1016.1387	2894.424	1008.45	124.5
1016.2547	2895.5476	1013.05	128.5
1016.3707	2896.6706	1011.1	127.5
1016.4866	2897.7929	1010.6	122.35
1016.6025	2898.9145	1012.1	125.85
1016.7184	2900.0355	1011.65	125.6
1016.8342	2901.1559	1012.3	124.4
1016.95	2902.2756	1010.35	123.35
1017.0658	2903.3946	1007.8	121.2
1017.1815	2904.513	1008.4	118.25
1017.2971	2905.6308	1008.9	121.45
1017.4127	2906.7479	1007.9	120.8
1017.5283	2907.8643	1008.5	121.75
1017.6439	2908.9801	1005.35	117.5
1017.7594	2910.0953	1006.75	121.1
1017.8748	2911.2098	1007.55	118.15
1017.9902	2912.3236	1017.75	123.75
1018.1056	2913.4368	1009.7	119.95
1018.2209	2914.5494	1004.85	115.65
1018.3362	2915.6613	1010.9	119.9
1018.4515	2916.7725	1004.7	114.55
1018.5667	2917.8831	1001.1	112.8
1018.6819	2918.9931	1004.9	115.05
1018.797	2920.1024	998.25	110.8
1018.9121	2921.211	993.4	106.45
1019.0271	2922.319	996.05	110.4
1019.1421	2923.4264	994.25	107.05
1019.2571	2924.5331	993.75	109.85
1019.372	2925.6391	990.75	104.3
1019.4869	2926.7445	990.2	105.75
1019.6017	2927.8493	992.3	103.7
1019.7165	2928.9534	991.15	103
1019.8313	2930.0569	996.45	106.65
1019.946	2931.1597	998	111
1020.0606	2932.2619	999.25	111.6
1020.1753	2933.3634	995.8	110.3
1020.2899	2934.4643	1006.65	113.55
1020.4044	2935.5645	1008.1	115.2
1020.5189	2936.6641	1003.35	111
1020.6334	2937.763	996.15	109.8
1020.7478	2938.8613	1000.3	113.65
1020.8622	2939.959	1003.5	111.05
1020.9765	2941.056	996.4	111.25
1021.0908	2942.1523	994.65	106.7
1021.2051	2943.248	992.15	104.3
1021.3193	2944.3431	982.7	97.15
1021.4334	2945.4375	979.5	93.05
1021.5476	2946.5313	970.6	85.7
1021.6617	2947.6244	968.5	83.15
1021.7757	2948.7169	967.65	79.55
1021.8897	2949.8087	963.6	76.95
1022.0037	2950.8999	954.1	66.1
1022.1176	2951.9904	954.85	69.55
1022.2315	2953.0803	953.75	65.2
1022.3453	2954.1696	951.3	62.85
1022.4591	2955.2582	944.7	57.25
1022.5728	2956.3462	944.9	58.15
1022.6865	2957.4335	945.8	58.65
1022.8002	2958.5202	947.5	57.3
1022.9138	2959.6062	944.7	57.85
1023.0274	2960.6916	939.7	52.35
1023.141	2961.7764	946.45	58.45
1023.2545	2962.8605	945.5	59.7
1023.3679	2963.9439	943.4	56.75
1023.4813	2965.0267	944.8	56.65
1023.5947	2966.1089	965.6	58.25
1023.708	2967.1905	942.65	55.85
1023.8213	2968.2714	939.95	53.3
1023.9346	2969.3516	939.65	52.6
1024.0478	2970.4312	949.35	53.35
1024.1609	2971.5102	938.95	50.85
1024.274	2972.5885	938.95	53.1
1024.3871	2973.6662	947.15	55.35
1024.5002	2974.7432	940.85	55.3
1024.6132	2975.8196	941.65	53.95
1024.7261	2976.8954	943.05	56.15
1024.839	2977.9705	939.95	53.85
1024.9519	2979.045	940.6	55.75
1025.0647	2980.1188	941.55	55.85
1025.1775	2981.192	938.35	52.15
1025.2902	2982.2645	940.15	53.5
1025.4029	2983.3364	938.85	49.6
1025.5156	2984.4077	939.45	51.25
1025.6282	2985.4783	943.65	52.7
1025.7407	2986.5483	934.9	48.4
1025.8532	2987.6177	933	45.55
1025.9657	2988.6864	931.3	43.95
1026.0782	2989.7545	932.3	44.2
1026.1906	2990.8219	928.55	42.45
1026.3029	2991.8887	928.75	39.75
1026.4152	2992.9548	928.7	41.1
1026.5275	2994.0204	923.4	37.35
1026.6397	2995.0852	921.6	35.2
1026.7519	2996.1495	922	33.1
1026.864	2997.2131	919.85	33.05
1026.9761	2998.276	918.8	31.8
1027.0882	2999.3383	917.75	30.4
1027.2002	3000.4	916.2	28.75
1027.3122	3001.4611	914.85	28.9
1027.4241	3002.5215	912.85	25.4
1027.536	3003.5812	912.15	24.8
1027.6478	3004.6404	913.7	26.1
1027.7596	3005.6989	910.85	22.7
1027.8714	3006.7567	909	22.75
1027.9831	3007.8139	941.5	22.85
1028.0947	3008.8705	908.1	20.2
1028.2064	3009.9264	926.2	22.85
1028.3179	3010.9818	907.1	19.45
1028.4295	3012.0364	909.65	22.85
1028.541	3013.0905	907.35	20.4
1028.6524	3014.1439	905.6	18.05
1028.7638	3015.1966	907.55	18.7
1028.8752	3016.2487	907.95	23.5
1028.9865	3017.3002	910.9	19.6
1029.0978	3018.3511	906	18.25
1029.209	3019.4013	908	20.95
1029.3202	3020.4509	905.35	20.2
1029.4314	3021.4998	907.25	21.4
1029.5425	3022.5481	907.2	20.45
1029.6535	3023.5958	905.1	18.3
1029.7645	3024.6428	906.85	18
1029.8755	3025.6892	906	21.55
1029.9864	3026.735	906.25	18.75
1030.0973	3027.7802	905.15	18.8
1030.2082	3028.8247	904.85	18.3
1030.319	3029.8685	907.2	18.15
1030.4297	3030.9118	906.35	21.1
1030.5404	3031.9544	905.05	17.45
1030.6511	3032.9963	905.65	19.15
1030.7617	3034.0376	906.1	19.15
1030.8723	3035.0783	906.8	17.8
1030.9829	3036.1184	909.4	21.5
1031.0934	3037.1578	903.5	16.45
1031.2038	3038.1966	907.7	20.65
1031.3142	3039.2348	904.35	18.6
1031.4246	3040.2723	912.75	17
1031.5349	3041.3092	906.45	20.55
1031.6452	3042.3455	907.65	20.9
1031.7554	3043.3811	903.55	15
1031.8656	3044.4161	905.85	18.85
1031.9758	3045.4505	903.4	18.85
1032.0859	3046.4842	906.7	20.55
1032.1959	3047.5173	905.35	19.9
1032.3059	3048.5498	905.15	19.35
1032.4159	3049.5816	905.25	17.15
1032.5258	3050.6128	907.8	20.3
1032.6357	3051.6434	907.7	20.1
1032.7455	3052.6734	906.55	17.35
1032.8553	3053.7027	905.45	19.75
1032.9651	3054.7314	906.4	20.65
1033.0748	3055.7594	905.3	20
1033.1845	3056.7868	908	20.5
1033.2941	3057.8136	908.95	22.15
1033.4037	3058.8398	906.1	20.65
1033.5132	3059.8653	906.35	20.45
1033.6227	3060.8902	907.2	19.35
1033.7321	3061.9145	904.85	16.05
1033.8415	3062.9381	905.35	16.1
1033.9509	3063.9612	921.85	20.3
1034.0602	3064.9835	908.6	21.35
1034.1694	3066.0053	909.9	22.3
1034.2787	3067.0264	906.1	20.4
1034.3878	3068.0469	908.4	22.95
1034.497	3069.0668	911.9	21.6
1034.6061	3070.086	908.35	24.1
1034.7151	3071.1046	909.15	19.35
1034.8241	3072.1226	908.3	20.7
1034.9331	3073.1399	907.3	22.15
1035.042	3074.1567	906.8	22.1
1035.1508	3075.1727	908.1	20.5
1035.2597	3076.1882	906.15	21.35
1035.3684	3077.203	905.8	19.05
1035.4772	3078.2173	907.15	17.9
1035.5859	3079.2308	907.15	17.65
1035.6945	3080.2438	906	17.9
1035.8031	3081.2561	905.6	19.4
1035.9117	3082.2678	903.15	15.4
1036.0202	3083.2789	903.6	17.85
1036.1286	3084.2893	902.55	14.15
1036.2371	3085.2991	903.75	16.6
1036.3454	3086.3083	908	16.95
1036.4538	3087.3169	904.5	15.4
1036.562	3088.3248	901.45	13.85
1036.6703	3089.3321	904.4	16.4
1036.7785	3090.3388	899.55	14.25
1036.8866	3091.3449	901.35	14.4
1036.9948	3092.3503	904.35	14.25
1037.1028	3093.3551	899.65	16.75
1037.2108	3094.3593	899.95	13.6
1037.3188	3095.3629	902	16.9
1037.4267	3096.3658	903.25	16.15
1037.5346	3097.3681	901.55	15.35
1037.6425	3098.3698	902.75	13.5
1037.7503	3099.3708	899.45	11.5
1037.858	3100.3713	898.65	10.6
1037.9657	3101.3711	901.65	13.35
1038.0734	3102.3702	1042.65	13.55
1038.181	3103.3688	900.9	13.2
1038.2886	3104.3667	897.55	11.25
1038.3961	3105.364	900.75	15.3
1038.5036	3106.3607	899.6	11.2
1038.611	3107.3568	901.1	13.9
1038.7184	3108.3522	897.7	12.2
1038.8257	3109.347	899.45	12.6
1038.933	3110.3412	903.4	10.85
1039.0403	3111.3348	900.4	11.85
1039.1475	3112.3277	899.45	14.5
1039.2547	3113.32	898.1	13.1
1039.3618	3114.3117	896.45	8.15
1039.4689	3115.3028	898.65	11.9
1039.5759	3116.2932	900.95	12.75
1039.6829	3117.2831	905.95	13.7
1039.7898	3118.2723	898.2	13.75
1039.8967	3119.2608	899.1	12
1040.0035	3120.2488	897.85	9.9
1040.1103	3121.2361	898.1	11.3
1040.2171	3122.2229	896.4	9.15
1040.3238	3123.209	899.05	11.75
1040.4305	3124.1944	896.5	9.8
1040.5371	3125.1793	898.4	10.9
1040.6437	3126.1635	895.9	10.3
1040.7502	3127.1471	895.6	9.5
1040.8567	3128.1301	896.35	8.75
1040.9631	3129.1125	897.1	10.15
1041.0695	3130.0942	895.5	9.2
1041.1759	3131.0753	906.25	10.35
1041.2822	3132.0558	900.85	10.25
1041.3884	3133.0357	895.6	7.75
1041.4946	3134.015	895.2	7
1041.6008	3134.9936	898.65	9.9
1041.7069	3135.9716	917.4	11.15
1041.813	3136.949	897.15	8
1041.919	3137.9258	915.2	10.9
1042.025	3138.902	903.2	10.45
1042.1309	3139.8775	895.7	8.1
1042.2368	3140.8524	895.35	9.7
1042.3427	3141.8267	898.15	9.3
1042.4485	3142.8004	897.15	9.45
1042.5542	3143.7735	901.15	7.5
1042.6599	3144.7459	897.8	9.05
1042.7656	3145.7178	896.6	8.1
1042.8712	3146.689	894.85	9.3
1042.9768	3147.6596	896.05	8.55
1043.0823	3148.6295	895.1	8.6
1043.1878	3149.5989	896.55	10.1
1043.2932	3150.5676	893.65	7.9
1043.3986	3151.5357	893.4	7.6
1043.5039	3152.5032	895.1	10.8
1043.6092	3153.4701	895.45	8.5
1043.7145	3154.4364	897.65	8.85
1043.8197	3155.402	893.75	7.4
1043.9248	3156.367	896.95	9.85
1044.03	3157.3315	925.25	8.55
1044.135	3158.2952	895	7.95
1044.24	3159.2584	894.45	6.7
1044.345	3160.221	894.65	8.45
1044.4499	3161.1829	895.3	7.4
1044.5548	3162.1442	895.05	8.45
1044.6596	3163.105	895.85	8.35
1044.7644	3164.065	895.2	5.7
1044.8692	3165.0245	898.45	9.3
1044.9739	3165.9834	893.4	6.7
1045.0785	3166.9416	893.2	6.6
1045.1831	3167.8993	893.35	5.25
1045.2877	3168.8563	896.2	9.6
1045.3922	3169.8127	893.5	7.45
1045.4966	3170.7684	893.05	3.75
1045.6011	3171.7236	895.1	5.7
1045.7054	3172.6782	895.15	6.45
1045.8098	3173.6321	895.6	8.15
1045.914	3174.5854	899.4	9.55
1046.0183	3175.5381	893.9	7.15
1046.1224	3176.4902	893.85	6.75
1046.2266	3177.4417	893.5	9.55
1046.3307	3178.3926	895.15	9.3
1046.4347	3179.3428	894.25	10.1
1046.5387	3180.2924	894.1	7.55
1046.6427	3181.2415	894.1	5.7
1046.7466	3182.1899	895.5	6.3
1046.8504	3183.1377	894.1	7.15
1046.9542	3184.0848	895.7	4.85
1047.058	3185.0314	894.7	6.8
1047.1617	3185.9773	893.65	4.7
1047.2654	3186.9227	898.05	10.15
1047.369	3187.8674	892.7	6.5
1047.4726	3188.8115	896.95	7.15
1047.5761	3189.755	892.15	5.15
1047.6796	3190.6979	892.6	6.65
1047.783	3191.6402	893.1	6.3
1047.8864	3192.5818	892.45	6.05
1047.9898	3193.5229	901	6.9
1048.0931	3194.4633	895.5	7.6
1048.1963	3195.4031	893.35	6.4
1048.2995	3196.3423	894	7.75
1048.4027	3197.2809	895.5	8.7
1048.5058	3198.2189	894.85	8
1048.6089	3199.1563	900.85	8
1048.7119	3200.0931	892.55	6.6
1048.8148	3201.0292	892.85	5.7
1048.9178	3201.9648	892.05	4.3
1049.0206	3202.8997	896.05	6.75
1049.1235	3203.834	890.75	3.5
1049.2262	3204.7677	892.75	5.25
1049.329	3205.7008	894.55	6.85
1049.4317	3206.6333	890.75	5.2
1049.5343	3207.5652	895.95	5.65
1049.6369	3208.4964	894.55	5.8
1049.7394	3209.4271	892.35	5.3
1049.8419	3210.3571	891.4	6.45
1049.9444	3211.2865	894.75	6.7
1050.0468	3212.2154	893.55	5.25
1050.1491	3213.1436	896.5	6.2
1050.2514	3214.0712	898.7	6
1050.3537	3214.9982	893.7	6.15
1050.4559	3215.9246	892.9	4.85
1050.5581	3216.8503	891.7	6.2
1050.6602	3217.7755	892.5	6.5
1050.7623	3218.7001	890.85	4.3
1050.8643	3219.624	894.5	5
1050.9663	3220.5473	893.4	5.95
1051.0682	3221.4701	894.5	5.3
1051.1701	3222.3922	896.05	7
1051.2719	3223.3137	893.1	3.65
1051.3737	3224.2346	893.05	8.15
1051.4754	3225.1549	891	4.2
1051.5771	3226.0746	892	5
1051.6788	3226.9937	892.5	6.6
1051.7804	3227.9121	891.8	5.4
1051.8819	3228.83	891.15	5.2
1051.9834	3229.7473	893.45	7.55
1052.0849	3230.6639	892.55	3.05
1052.1863	3231.5799	892.3	4.75
1052.2876	3232.4954	893.25	4.1
1052.3889	3233.4102	890.15	3.3
1052.4902	3234.3244	892.05	3.5
1052.5914	3235.238	891.4	4.8
1052.6926	3236.151	917.25	6.05
1052.7937	3237.0634	890.2	2.6
1052.8948	3237.9752	891.95	5.15
1052.9958	3238.8864	891.6	5.15
1053.0968	3239.797	892.6	6.6
1053.1977	3240.7069	892.9	5
1053.2986	3241.6163	894.8	8.25
1053.3994	3242.5251	890.4	2.85
1053.5002	3243.4332	888.8	3.8
1053.6009	3244.3408	894.55	6.2
1053.7016	3245.2477	892	4.7
1053.8022	3246.154	892.85	5.75
1053.9028	3247.0598	893	5.95
1054.0034	3247.9649	892.55	4.4
1054.1039	3248.8694	890.65	4.6
1054.2043	3249.7733	891.35	4.85
1054.3047	3250.6766	892.4	5.4
1054.4051	3251.5793	892.2	4.35
1054.5054	3252.4814	891.1	8.2
1054.6056	3253.3829	891	2.4
1054.7058	3254.2838	891.5	4.75
1054.806	3255.1841	891.35	4.8
1054.9061	3256.0838	889.9	3.65
1055.0061	3256.9829	889.75	3.7
1055.1062	3257.8814	892.35	2.45
1055.2061	3258.7792	892.6	3.7
1055.306	3259.6765	893.95	7.4
1055.4059	3260.5731	890.9	3.35
1055.5057	3261.4692	891.4	3.7
1055.6055	3262.3647	891.35	3.4
1055.7052	3263.2595	891.7	5.05
1055.8049	3264.1538	892.45	6
1055.9045	3265.0474	891.8	3.6
1056.0041	3265.9404	888.9	1.75
1056.1036	3266.8329	889.75	5
1056.2031	3267.7247	899.9	2.95
1056.3025	3268.616	891.9	5.5
1056.4019	3269.5066	890.2	2.3
1056.5013	3270.3966	891.9	3.1
1056.6005	3271.286	889.8	2.55
