Software Version:	3.9.2.0
Unit SN:	10000200
Spectrometer SN:	6960
Date:	3/14/2024 2:31:25 PM
Data Line Index:	25
Spectral Points:	2048
Integration time (ms):	125
Averages:	20
Delay (ms):	30000
Sequence Number:	1
Processing:	dark subtract
Laser Power (mW):	305
Laser Current (mA):	824
Laser Diode Temp (C):	25
Laser Case Temp (C):	29.3
System Temp (C):	29.3
Spectrometer Temp (C):	27
CCD Temp (C):	0.007
Secondary Temp (C):	20.004
Heatsink Temp (C):	25.229
CCDPCB Temp (C):	38.497
SecondaryPCB Temp (C):	36.218

Wavelength	RamanShift	Raw Counts	Dark Subtracted
787.061	30.1047	456.75	48
787.2016	32.3739	459.1	51.3
787.3422	34.6426	466	58.4
787.4828	36.9109	470.55	62.2
787.6235	39.1787	481	66.15
787.7642	41.4461	490.55	71
787.9049	43.7131	497	74.15
788.0456	45.9796	508.7	83.5
788.1863	48.2456	515.3	84.4
788.3271	50.5112	526.3	89.4
788.4679	52.7764	530.6	93.75
788.6087	55.0411	542.45	100.8
788.7496	57.3054	552.95	106.6
788.8904	59.5692	564.75	116
789.0313	61.8326	578.75	125.35
789.1722	64.0955	592.75	134.45
789.3132	66.3579	606.85	144.55
789.4541	68.6199	625.3	158.2
789.5951	70.8815	657.6	189.5
789.7361	73.1426	731.75	259
789.8771	75.4032	925	448.55
790.0181	77.6634	1397.95	915.25
790.1592	79.9231	2495.8	2009.55
790.3003	82.1824	4940.7	4446.55
790.4414	84.4412	9473.65	8963.05
790.5825	86.6995	15884.65	15352.7
790.7237	88.9574	22397.95	21849.1
790.8648	91.2148	27040.5	26478.6
791.006	93.4717	29349.95	28779.7
791.1472	95.7282	29956.5	29382.55
791.2885	97.9842	30003.15	29424.95
791.4297	100.2398	29551.65	28970.75
791.571	102.4949	29000.7	28415.7
791.7123	104.7495	28252.6	27665.65
791.8536	107.0036	27397.3	26809.9
791.9949	109.2573	26581.05	25993.4
792.1363	111.5105	25781.3	25191.65
792.2777	113.7632	24967.4	24375.65
792.4191	116.0154	24245.3	23643.5
792.5605	118.2672	23722.95	23127.05
792.7019	120.5185	23148.6	22550.2
792.8434	122.7693	22736.15	22139.2
792.9849	125.0197	22405.6	21804.65
793.1264	127.2696	22093.35	21488.65
793.2679	129.519	21944.6	21336.8
793.4094	131.7679	21765	21156
793.551	134.0163	21649.05	21035.2
793.6926	136.2642	21524.15	20906.25
793.8342	138.5117	21366.2	20740.45
793.9758	140.7587	21177.25	20556.9
794.1175	143.0052	20998.45	20370
794.2591	145.2512	20773.55	20149.9
794.4008	147.4967	20556.1	19930.2
794.5425	149.7417	20421.25	19794.3
794.6842	151.9863	20305.2	19679.35
794.826	154.2304	20250.8	19617.75
794.9677	156.4739	20080.05	19441.15
795.1095	158.717	20008.7	19368.15
795.2513	160.9596	19870	19224.55
795.3931	163.2017	19619.6	18972.6
795.535	165.4433	19303.6	18655.95
795.6768	167.6844	18928.25	18279.55
795.8187	169.925	18587.85	17936.45
795.9606	172.1651	18159.2	17504.35
796.1025	174.4047	17841.85	17183.85
796.2445	176.6439	17544.4	16885.25
796.3864	178.8825	17274.35	16610
796.5284	181.1206	17107.55	16440.2
796.6704	183.3582	16906.9	16236.65
796.8124	185.5954	16759.05	16084.5
796.9544	187.832	16622	15945.1
797.0965	190.0681	16604.6	15927.8
797.2386	192.3037	16578.75	15898.05
797.3806	194.5388	16526.5	15844.3
797.5228	196.7734	16589.2	15904.85
797.6649	199.0075	16625	15932.95
797.807	201.2411	16776.9	16084.95
797.9492	203.4742	16805.6	16111.65
798.0914	205.7068	16943.1	16248.35
798.2336	207.9389	17043.3	16350.7
798.3758	210.1704	17202.9	16503.55
798.518	212.4015	17322.75	16625.9
798.6603	214.632	17490	16790.95
798.8025	216.862	17666.05	16976.4
798.9448	219.0915	17850.75	17165.5
799.0871	221.3205	18116.1	17429.65
799.2294	223.549	18431.35	17755.65
799.3718	225.777	18802.1	18125.4
799.5141	228.0044	19269.35	18587
799.6565	230.2314	19835.1	19154.05
799.7989	232.4578	20377.85	19697.5
799.9413	234.6837	20837.5	20150.65
800.0837	236.909	21075.6	20388.4
800.2262	239.1339	21025.5	20312.25
800.3687	241.3582	20730.85	20034.05
800.5111	243.582	20276.65	19552.1
800.6536	245.8053	19828.1	19114.9
800.7961	248.0281	19349.05	18635.9
800.9387	250.2503	19023.25	18305.65
801.0812	252.472	18772.85	18050.25
801.2238	254.6932	18636.7	17915.25
801.3664	256.9139	18441.65	17716.45
801.509	259.134	18368.95	17640.05
801.6516	261.3536	18251.75	17524.3
801.7942	263.5727	18202.05	17474.25
801.9369	265.7912	18036.75	17309.45
802.0795	268.0092	17941.9	17214.35
802.2222	270.2267	17826.35	17094.75
802.3649	272.4436	17766.35	17036.9
802.5076	274.6601	17680.7	16942.2
802.6504	276.8759	17643.2	16909.95
802.7931	279.0913	17655.35	16924.65
802.9359	281.3061	17636.05	16902.1
803.0787	283.5204	17769.25	17028.55
803.2215	285.7341	17897.35	17153.7
803.3643	287.9473	18120.85	17365.4
803.5071	290.16	18410.5	17657.75
803.6499	292.3721	18751.7	18007.6
803.7928	294.5837	19274.65	18530
803.9357	296.7947	19671.15	18924.25
804.0786	299.0052	19874.15	19131.25
804.2215	301.2152	19702.7	18956.9
804.3644	303.4246	19266.75	18523.5
804.5074	305.6334	18638.3	17892
804.6503	307.8418	18045.85	17293.3
804.7933	310.0495	17556.15	16806.15
804.9363	312.2568	17239.2	16491.1
805.0793	314.4635	17039.7	16289.1
805.2223	316.6696	16953.5	16203.8
805.3653	318.8752	16913.35	16152.05
805.5084	321.0802	16998.1	16248.75
805.6514	323.2847	17140.35	16385.1
805.7945	325.4887	17157.75	16403.9
805.9376	327.692	17120.75	16364.4
806.0807	329.8949	17021.15	16265.05
806.2238	332.0972	16686.4	15928.75
806.367	334.2989	16366.45	15603.3
806.5101	336.5001	16055.35	15296.25
806.6533	338.7007	15843.3	15080.1
806.7965	340.9008	15709.8	14948.85
806.9397	343.1003	15564.85	14799.25
807.0829	345.2992	15485.75	14715.75
807.2261	347.4976	15477.75	14712
807.3693	349.6955	15472.9	14701.95
807.5126	351.8927	15531.2	14760.35
807.6559	354.0895	15493.85	14711.5
807.7991	356.2856	15567.65	14794.85
807.9424	358.4812	15555.7	14786.9
808.0857	360.6763	15586.5	14813.9
808.2291	362.8707	15570.3	14796.4
808.3724	365.0646	15569.4	14791.85
808.5158	367.258	15536.7	14755.15
808.6591	369.4508	15537.5	14752.3
808.8025	371.643	15605.95	14823.3
808.9459	373.8346	15544	14759.7
809.0893	376.0257	15495.9	14706.05
809.2327	378.2162	15366.6	14576.25
809.3762	380.4062	15227.8	14437.45
809.5196	382.5956	15076.5	14285.95
809.6631	384.7844	14960.8	14170.4
809.8066	386.9726	14821.75	14028.1
809.9501	389.1603	14754.4	13961.45
810.0936	391.3474	14741.4	13899.6
810.2371	393.5339	14703.6	13908.85
810.3806	395.7199	14612.95	13824.05
810.5241	397.9052	14622.1	13837.5
810.6677	400.09	14626.35	13839.2
810.8113	402.2743	14665.65	13882.4
810.9548	404.4579	14680.8	13898.7
811.0984	406.641	14840.2	14056.5
811.2421	408.8235	15097.3	14313.7
811.3857	411.0054	15424.1	14641.45
811.5293	413.1868	15932	15146.1
811.673	415.3675	16361.65	15572.8
811.8166	417.5477	16632.2	15843.35
811.9603	419.7273	16677.85	15884.8
812.104	421.9064	16547.4	15747.55
812.2477	424.0848	16350.95	15554.4
812.3914	426.2627	16119.7	15321.75
812.5351	428.4399	15782.45	14980.55
812.6788	430.6166	15389.2	14584.9
812.8226	432.7928	14959.1	14155.45
812.9663	434.9683	14621.65	13813.5
813.1101	437.1432	14353.3	13546.45
813.2539	439.3176	14184.3	13375.05
813.3977	441.4914	14045.7	13238.85
813.5415	443.6645	14016.95	13207.65
813.6853	445.8371	13923	13114.95
813.8291	448.0091	13854.15	13049
813.973	450.1806	13798.3	12987.8
814.1168	452.3514	13727.15	12916.1
814.2607	454.5216	13725.75	12907.65
814.4046	456.6913	13640.95	12827.6
814.5485	458.8603	13635.4	12824.25
814.6924	461.0288	13674.3	12862.1
814.8363	463.1967	13734.6	12922.1
814.9802	465.3639	13864.25	13048.55
815.1241	467.5306	13986.9	13171.55
815.2681	469.6967	14211.5	13398.85
815.412	471.8622	14364.85	13552.3
815.556	474.0271	14539.65	13726.75
815.7	476.1914	14595.4	13777.8
815.844	478.3551	14586.05	13771.25
815.988	480.5182	14530.15	13715.05
816.132	482.6807	14464.45	13645.45
816.276	484.8426	14515.95	13699.85
816.4201	487.0039	14778.9	13964.2
816.5641	489.1647	15157.75	14337.95
816.7082	491.3248	15611.65	14793.85
816.8522	493.4843	15870.05	15052.05
816.9963	495.6432	15866.1	15044.85
817.1404	497.8015	15788.05	14964.35
817.2845	499.9592	15810.6	14990.7
817.4286	502.1163	15819.35	15000.85
817.5727	504.2728	15581.2	14755.8
817.7168	506.4287	15249.1	14428.45
817.861	508.5839	14775.95	13953.2
818.0051	510.7386	14371.2	13550.25
818.1493	512.8927	14118.75	13295.8
818.2935	515.0461	13913.15	13086.85
818.4377	517.199	13823	12999.7
818.5818	519.3512	13721.5	12900.65
818.726	521.5029	13677.95	12850.95
818.8703	523.6539	13698.95	12870.7
819.0145	525.8043	13712.65	12885.75
819.1587	527.9541	13730.2	12902.15
819.303	530.1033	13763	12935.05
819.4472	532.2519	13856.95	13026.95
819.5915	534.3999	14041.35	13211.15
819.7357	536.5472	14410.1	13580.85
819.88	538.694	14967	14136.55
820.0243	540.8401	15635.05	14806.1
820.1686	542.9856	16247.2	15414.35
820.3129	545.1305	16481.35	15649.3
820.4572	547.2748	16264.2	15429.45
820.6016	549.4185	15797.95	14961.15
820.7459	551.5615	15346.55	14513.6
820.8902	553.704	15129.3	14292.25
821.0346	555.8458	14980.9	14145.95
821.1789	557.987	14914.8	14081.95
821.3233	560.1276	14796.4	13962.75
821.4677	562.2675	14618.95	13789.7
821.6121	564.4069	14463.2	13629.7
821.7565	566.5456	14343.2	13510.35
821.9009	568.6837	14181.75	13349.1
822.0453	570.8212	13893.2	13060.45
822.1897	572.958	13658.75	12824.2
822.3342	575.0942	13497.6	12664.3
822.4786	577.2299	13362.35	12528.6
822.6231	579.3648	13397.6	12562.45
822.7675	581.4992	13501.15	12667.7
822.912	583.6329	13742.4	12907.85
823.0565	585.766	13996.25	13162.1
823.201	587.8985	14134.25	13299.95
823.3454	590.0304	14128.85	13270.85
823.4899	592.1616	14070.85	13234.85
823.6345	594.2922	13983.95	13149.25
823.779	596.4222	13790.7	12953.75
823.9235	598.5515	13578.05	12740.9
824.068	600.6802	13432.3	12593.5
824.2126	602.8083	13241.4	12404.1
824.3571	604.9358	13154.1	12314.45
824.5017	607.0626	13002.9	12160
824.6462	609.1888	12900.6	12060.5
824.7908	611.3144	12745.9	11904.35
824.9354	613.4393	12596.7	11755.75
825.08	615.5636	12414.25	11573.55
825.2246	617.6873	12250.65	11410.2
825.3692	619.8103	12192.85	11350.8
825.5138	621.9327	12146.45	11298.35
825.6584	624.0544	12117.35	11274.65
825.803	626.1756	12123.45	11279.25
825.9477	628.2961	12109.15	11264.8
826.0923	630.4159	12042.9	11200.75
826.237	632.5351	11986.75	11143.85
826.3816	634.6537	11929.9	11088.5
826.5263	636.7716	11868.6	11023.9
826.6709	638.8889	11845.95	11002.35
826.8156	641.0056	11848.15	11004
826.9603	643.1216	11824.45	10980.25
827.105	645.237	11876.2	11031.1
827.2497	647.3518	11875.45	11027.05
827.3944	649.4659	11880.45	11034.75
827.5391	651.5793	11904.6	11058.15
827.6838	653.6922	11873.7	11027.45
827.8285	655.8043	11833.3	10987.75
827.9733	657.9159	11790.1	10942.5
828.118	660.0268	11705.7	10855.05
828.2627	662.137	11617.05	10769.3
828.4075	664.2466	11566.45	10715.05
828.5522	666.3556	11516.8	10667.65
828.697	668.4639	11508	10656.55
828.8418	670.5716	11537.15	10688.8
828.9865	672.6786	11632.2	10783.1
829.1313	674.785	11722.1	10872.2
829.2761	676.8907	11811.9	10960.95
829.4209	678.9958	11883	11036.5
829.5657	681.1002	11867.8	11015.55
829.7105	683.204	11826.05	10972.05
829.8553	685.3072	11749.9	10897.8
830.0001	687.4097	11677.1	10825.45
830.1449	689.5115	11567.6	10714.15
830.2898	691.6127	11492	10638.6
830.4346	693.7132	11387.1	10532.25
830.5794	695.8131	11348.05	10475.15
830.7243	697.9123	11288.8	10433.1
830.8691	700.0109	11207.7	10354.95
831.014	702.1089	11161.75	10307.95
831.1588	704.2061	11148.3	10295.7
831.3037	706.3028	11180.35	10324.6
831.4486	708.3987	11225.65	10372.75
831.5935	710.4941	11309.5	10456.9
831.7383	712.5887	11532.05	10678
831.8832	714.6827	11866.9	11008.9
832.0281	716.7761	12270.55	11416.5
832.173	718.8688	12699.5	11842.85
832.3179	720.9608	12901.3	12041.4
832.4628	723.0522	12927	12066.95
832.6077	725.1429	12607.65	11749.15
832.7527	727.233	12210.3	11351.2
832.8976	729.3224	11846.05	10988.1
833.0425	731.4112	11481.55	10622.6
833.1874	733.4993	11225	10365.65
833.3324	735.5867	11053.65	10194.7
833.4773	737.6735	10963.9	10104.75
833.6222	739.7596	10918.15	10056.65
833.7672	741.845	10873.25	10012.95
833.9122	743.9298	10858.95	9997.5
834.0571	746.014	10875.85	10019.9
834.2021	748.0974	10850.3	9988.5
834.347	750.1802	10837.55	9977.6
834.492	752.2624	10863.75	10002.4
834.637	754.3439	10856.85	9998.7
834.782	756.4247	10912.2	10043.05
834.9269	758.5048	10975.05	10117.6
835.0719	760.5843	11146.6	10288.85
835.2169	762.6631	11427.15	10567.85
835.3619	764.7413	11860.95	11003.3
835.5069	766.8188	12410.5	11548.35
835.6519	768.8956	12921.85	12058.05
835.7969	770.9718	13275.85	12416.35
835.9419	773.0473	13159.3	12300
836.0869	775.1221	12793.5	11934.05
836.232	777.1962	12367.7	11505.2
836.377	779.2697	12167.05	11304.1
836.522	781.3426	12224.85	11342.3
836.667	783.4147	12551.3	11688.45
836.8121	785.4862	12893.25	12034.35
836.9571	787.557	12932.2	12069.95
837.1021	789.6271	12558.5	11694.4
837.2472	791.6966	11936.25	11073.4
837.3922	793.7654	11389.25	10525.1
837.5373	795.8335	11046.25	10183.55
837.6823	797.901	10852.35	9991.45
837.8274	799.9678	10804.4	9941.55
837.9724	802.0339	10807.6	9948.7
838.1175	804.0993	10871.2	9996.3
838.2626	806.1641	10865.55	10003.1
838.4076	808.2282	10770.6	9906.8
838.5527	810.2916	10678.7	9813.85
838.6978	812.3544	10555.95	9695.85
838.8428	814.4164	10448.55	9585.15
838.9879	816.4778	10428.85	9567.2
839.133	818.5385	10372.95	9509.2
839.2781	820.5986	10407.3	9543.5
839.4232	822.658	10472.3	9607.4
839.5682	824.7166	10487.05	9623.65
839.7133	826.7747	10621.6	9757.5
839.8584	828.832	10726	9861.4
840.0035	830.8886	10803.45	9937.7
840.1486	832.9446	10933.25	10067.5
840.2937	834.9999	11062.05	10198.65
840.4388	837.0545	11153	10284.45
840.5839	839.1085	11225.9	10363.75
840.729	841.1618	11216.7	10348.15
840.8741	843.2143	11218.6	10353.3
841.0192	845.2662	11165.45	10299.85
841.1643	847.3175	11105.65	10241.7
841.3095	849.368	10967.85	10102.2
841.4546	851.4179	10827.15	9959.95
841.5997	853.467	10668.35	9803.1
841.7448	855.5155	10520.65	9654.15
841.8899	857.5633	10422.25	9557.45
842.0351	859.6105	10293.05	9427.45
842.1802	861.6569	10208.5	9340.6
842.3253	863.7027	10136.75	9265.1
842.4704	865.7478	10101.45	9232.85
842.6156	867.7922	10083.7	9216.4
842.7607	869.8359	10161.75	9294.95
842.9058	871.8789	10312.05	9444.95
843.0509	873.9212	10486.25	9584.15
843.1961	875.9629	10651.85	9783.8
843.3412	878.0039	10829.05	9960.2
843.4863	880.0441	10935	10067.5
843.6315	882.0837	10926.8	10057.05
843.7766	884.1226	10774.85	9903.9
843.9218	886.1609	10605.3	9738.05
844.0669	888.1984	10459.65	9593.95
844.212	890.2352	10375.2	9508.85
844.3572	892.2714	10285.65	9409.8
844.5023	894.3069	10265.9	9395
844.6475	896.3416	10184.15	9316.1
844.7926	898.3757	10167.05	9298
844.9377	900.4091	10140.6	9273.65
845.0829	902.4418	10174.95	9300.25
845.228	904.4739	10160.85	9290.7
845.3732	906.5052	10106.05	9238.45
845.5183	908.5358	9999.15	9131.05
845.6635	910.5658	9858.05	8985.95
845.8086	912.595	9669.65	8800.2
845.9538	914.6236	9575.65	8706.15
846.0989	916.6515	9507.5	8639.25
846.2441	918.6786	9488.95	8616.8
846.3892	920.7051	9565.65	8692.65
846.5344	922.7309	9683.75	8811.25
846.6795	924.756	9740.1	8870.85
846.8246	926.7804	9812.25	8941.4
846.9698	928.8041	9819.05	8945.1
847.1149	930.8272	9849.4	8978.95
847.2601	932.8495	9752.85	8879.5
847.4052	934.8711	9661.05	8789.05
847.5504	936.892	9460.2	8588.9
847.6955	938.9123	9292.55	8419.4
847.8407	940.9318	9128.75	8257.65
847.9858	942.9506	8997.6	8124.95
848.131	944.9688	8905.9	8034.8
848.2761	946.9862	8855.6	7985.65
848.4213	949.003	8802.6	7931
848.5664	951.019	8820.95	7952
848.7115	953.0344	8827.4	7956.2
848.8567	955.0491	8873.85	7999.75
849.0018	957.063	8941	8069.2
849.147	959.0763	9067.5	8197
849.2921	961.0888	9099.2	8225.1
849.4373	963.1007	9182.75	8311.35
849.5824	965.1119	9222.85	8351.8
849.7275	967.1223	9244	8371.45
849.8727	969.1321	9262.75	8390.6
850.0178	971.1412	9290.35	8419.8
850.1629	973.1495	9325.65	8454.5
850.3081	975.1572	9395.8	8488.35
850.4532	977.1641	9407.5	8534.6
850.5983	979.1704	9378.5	8505.25
850.7435	981.1759	9356.7	8479.4
850.8886	983.1808	9410.8	8537.8
851.0337	985.1849	9550.9	8664.2
851.1788	987.1884	9701.05	8827.3
851.324	989.1911	9908.7	9031.35
851.4691	991.1932	10055.45	9181.1
851.6142	993.1945	10117.4	9244.25
851.7593	995.1951	10105.7	9229.55
851.9045	997.1951	10071.75	9192.9
852.0496	999.1943	9969	9098.05
852.1947	1001.1928	9907.8	9035.05
852.3398	1003.1906	9890.6	9017.4
852.4849	1005.1877	9912.8	9036.45
852.63	1007.1841	9847.7	8974.9
852.7751	1009.1798	9743.95	8872.05
852.9202	1011.1748	9530.05	8658.9
853.0653	1013.1691	9315.7	8440.85
853.2104	1015.1627	9088.15	8212.95
853.3555	1017.1556	8880.6	8005.3
853.5006	1019.1477	8785.35	7908.85
853.6457	1021.1392	8731.95	7856.5
853.7908	1023.1299	8715.9	7840.75
853.9359	1025.12	8747.6	7870.2
854.081	1027.1093	8814.25	7941.6
854.2261	1029.0979	8888.55	8016.8
854.3712	1031.0859	8934.2	8061.6
854.5163	1033.0731	8904.25	8031.5
854.6613	1035.0596	8828.4	7954.85
854.8064	1037.0454	8670.25	7794.3
854.9515	1039.0304	8564.3	7689.6
855.0965	1041.0148	8466.75	7592.35
855.2416	1042.9985	8339.1	7464.85
855.3867	1044.9814	8276.9	7402.7
855.5317	1046.9636	8238.6	7361.3
855.6768	1048.9452	8223.05	7350
855.8219	1050.926	8218.4	7341.9
855.9669	1052.9061	8203.65	7332.75
856.112	1054.8855	8185.6	7309.85
856.257	1056.8642	8211.45	7336.05
856.4021	1058.8421	8253.75	7374.1
856.5471	1060.8194	8280.1	7404.05
856.6921	1062.7959	8320.75	7444.85
856.8372	1064.7717	8304	7429.45
856.9822	1066.7469	8296.65	7419.85
857.1272	1068.7213	8257.9	7378.35
857.2723	1070.695	8221.3	7346.6
857.4173	1072.6679	8150.55	7275.9
857.5623	1074.6402	8095.9	7221.2
857.7073	1076.6117	8077.9	7195.55
857.8523	1078.5826	8103.5	7228.7
857.9973	1080.5527	8166.8	7286.05
858.1423	1082.5221	8340.2	7462.9
858.2873	1084.4908	8574.6	7698
858.4323	1086.4587	8792.8	7917.25
858.5773	1088.426	8960.3	8083.1
858.7223	1090.3925	8980.85	8099.45
858.8673	1092.3584	8887.5	8014.85
859.0123	1094.3235	8716.2	7841.9
859.1573	1096.2879	8586.4	7709.05
859.3022	1098.2515	8516.4	7641.6
859.4472	1100.2145	8549.45	7673.1
859.5922	1102.1767	8622.35	7743.65
859.7371	1104.1382	8765.25	7890.2
859.8821	1106.099	8973.55	8093.8
860.027	1108.0591	9159.75	8285.25
860.172	1110.0185	9343.6	8466.1
860.3169	1111.9771	9335.85	8460.95
860.4619	1113.9351	9105.35	8228
860.6068	1115.8923	8733.5	7855.7
860.7517	1117.8488	8383.3	7504.65
860.8967	1119.8045	8095.2	7216.15
861.0416	1121.7596	7932.35	7055.35
861.1865	1123.7139	7849.45	6972.2
861.3314	1125.6675	7841.05	6962.8
861.4763	1127.6204	7890.15	7011.35
861.6212	1129.5726	7933.35	7052.8
861.7661	1131.524	7971.05	7093.35
861.911	1133.4748	8015.35	7137.1
862.0559	1135.4248	8061.3	7182
862.2008	1137.3741	8094.35	7217.9
862.3457	1139.3226	8072.6	7192.5
862.4905	1141.2705	8036.15	7159.15
862.6354	1143.2176	7954.95	7070.55
862.7803	1145.164	7969.5	7090.35
862.9251	1147.1097	8018.35	7141.8
863.07	1149.0546	8007.7	7130.05
863.2148	1150.9989	7893.05	7014.85
863.3597	1152.9424	7712.65	6836.65
863.5045	1154.8852	7503.15	6625.2
863.6493	1156.8272	7338.55	6461.7
863.7942	1158.7686	7269.6	6383.05
863.939	1160.7092	7207.8	6327.7
864.0838	1162.6491	7197.75	6318.75
864.2286	1164.5883	7279.7	6402.4
864.3734	1166.5267	7360.4	6481.6
864.5182	1168.4644	7496.25	6617.4
864.663	1170.4014	7706.5	6824.15
864.8078	1172.3377	7899.05	7023.5
864.9526	1174.2732	8125.2	7247.1
865.0974	1176.2081	8303.1	7426.25
865.2421	1178.1421	8502.1	7621.45
865.3869	1180.0755	8609.75	7735.1
865.5317	1182.0082	8623.45	7745.95
865.6764	1183.9401	8579.2	7699
865.8212	1185.8713	8339.75	7461
865.9659	1187.8017	8096.4	7219.65
866.1106	1189.7315	7822.4	6942.75
866.2554	1191.6605	7584.2	6675.25
866.4001	1193.5888	7375.6	6495.25
866.5448	1195.5163	7219.9	6340.05
866.6895	1197.4432	7109.4	6229.2
866.8342	1199.3693	7061.8	6185.2
866.9789	1201.2947	7018.7	6137.2
867.1236	1203.2193	6989.25	6109
867.2683	1205.1432	7020.35	6139.85
867.413	1207.0664	7071.9	6193.95
867.5576	1208.9889	7137.95	6254.6
867.7023	1210.9106	7234.1	6355.85
867.847	1212.8316	7317.7	6438.35
867.9916	1214.7519	7441	6552.8
868.1363	1216.6715	7444.95	6568.1
868.2809	1218.5903	7424.8	6546.3
868.4255	1220.5084	7350.8	6471.45
868.5701	1222.4257	7315.75	6435.65
868.7148	1224.3424	7270.5	6391.5
868.8594	1226.2583	7313.65	6431.05
869.004	1228.1735	7415.8	6535.1
869.1486	1230.0879	7545.45	6666.4
869.2932	1232.0016	7686.65	6808.45
869.4377	1233.9146	7726.35	6845.1
869.5823	1235.8269	7628.15	6748.1
869.7269	1237.7384	7522.1	6640.6
869.8715	1239.6492	7302.3	6424.2
870.016	1241.5592	7199.65	6317.85
870.1606	1243.4686	7111.5	6233.05
870.3051	1245.3772	7017.7	6138.55
870.4496	1247.285	6964.8	6082.95
870.5941	1249.1922	6914.1	6032.95
870.7387	1251.0986	6917.9	6036.55
870.8832	1253.0042	6919.5	6037.75
871.0277	1254.9092	6992.5	6112.05
871.1722	1256.8134	7079.75	6201.3
871.3167	1258.7169	7238.35	6357.15
871.4611	1260.6196	7395.3	6519.15
871.6056	1262.5216	7586.5	6706.1
871.7501	1264.4229	7712.75	6834.45
871.8945	1266.3234	7817.15	6939.05
872.039	1268.2232	7850.55	6968.25
872.1834	1270.1223	7858.3	6978.8
872.3278	1272.0207	7822.4	6943.2
872.4723	1273.9183	7771.1	6882.65
872.6167	1275.8151	7715.65	6836.35
872.7611	1277.7113	7590.2	6709.6
872.9055	1279.6067	7427.95	6549
873.0499	1281.5014	7275.4	6391.55
873.1943	1283.3953	7123.7	6243.05
873.3386	1285.2885	7015.6	6135.5
873.483	1287.181	6941.25	6059.1
873.6274	1289.0727	6947	6068.75
873.7717	1290.9637	6965.45	6085.85
873.9161	1292.854	7091.95	6213.15
874.0604	1294.7435	7246.35	6364.7
874.2047	1296.6323	7486.25	6606.1
874.349	1298.5204	7742.25	6859.3
874.4933	1300.4077	8011	7130.55
874.6376	1302.2943	8223.05	7342.75
874.7819	1304.1802	8304.15	7425.15
874.9262	1306.0653	8255.8	7372.15
875.0705	1307.9497	8140.05	7258.3
875.2147	1309.8333	8064.95	7187.45
875.359	1311.7162	8052.5	7173.45
875.5032	1313.5984	8146.6	7262.65
875.6475	1315.4798	8285.15	7391.8
875.7917	1317.3605	8485.9	7590.5
875.9359	1319.2405	8652.55	7769.65
876.0801	1321.1197	8697.95	7815.95
876.2243	1322.9982	8649.5	7766.25
876.3685	1324.876	8657.7	7775.45
876.5127	1326.753	8621.9	7739.9
876.6569	1328.6293	8642.25	7759.55
876.801	1330.5048	8674.8	7791
876.9452	1332.3796	8645.05	7764.7
877.0893	1334.2537	8634.4	7724.7
877.2335	1336.127	8545.9	7666.4
877.3776	1337.9996	8514.15	7632.95
877.5217	1339.8714	8461.85	7583.85
877.6658	1341.7426	8424.8	7497.85
877.8099	1343.6129	8338.8	7458.65
877.954	1345.4826	8244.7	7365.3
878.0981	1347.3515	8199.7	7316.35
878.2422	1349.2196	8133.4	7251.6
878.3862	1351.087	8130.8	7247.1
878.5303	1352.9537	8194.45	7313.25
878.6743	1354.8197	8315.05	7432.7
878.8184	1356.6849	8455.6	7576.5
878.9624	1358.5493	8537.8	7656.45
879.1064	1360.4131	8551.55	7670.55
879.2504	1362.276	8458.25	7578.45
879.3944	1364.1383	8282.8	7403.1
879.5384	1365.9998	8064.6	7177.8
879.6823	1367.8606	7781.05	6901.75
879.8263	1369.7206	7555.05	6673.4
879.9702	1371.5799	7380.1	6495.55
880.1142	1373.4384	7231.65	6351.2
880.2581	1375.2962	7143	6257.15
880.402	1377.1533	6908.6	6028.05
880.5459	1379.0096	6611.2	5728.2
880.6898	1380.8652	6348.5	5464.95
880.8337	1382.7201	6112.9	5231.95
880.9776	1384.5742	5932.9	5051.3
881.1215	1386.4275	5785.15	4901.9
881.2653	1388.2802	5663.3	4784.7
881.4092	1390.132	5577.9	4696.8
881.553	1391.9832	5507.65	4624.25
881.6968	1393.8336	5456.65	4573.6
881.8406	1395.6832	5421.1	4538.25
881.9844	1397.5322	5392.15	4510.75
882.1282	1399.3803	5395.35	4509.35
882.272	1401.2278	5356.15	4473.8
882.4158	1403.0745	5349.1	4467.3
882.5595	1404.9204	5348.45	4467.35
882.7033	1406.7656	5366.35	4485.4
882.847	1408.6101	5376.25	4494.8
882.9908	1410.4538	5392.5	4509.9
883.1345	1412.2968	5454.5	4574.3
883.2782	1414.139	5485.7	4604.45
883.4219	1415.9805	5585.85	4706.1
883.5656	1417.8213	5704.15	4815.95
883.7092	1419.6613	5809.7	4926.05
883.8529	1421.5006	6020.25	5136.45
883.9965	1423.3391	6301.45	5418.25
884.1402	1425.1769	6668.7	5785.35
884.2838	1427.0139	7200.95	6316.65
884.4274	1428.8502	7835.4	6951.1
884.571	1430.6858	8468.35	7587
884.7146	1432.5206	8935.55	8051.15
884.8582	1434.3547	9204.25	8320.85
885.0018	1436.188	9249.8	8366.5
885.1453	1438.0206	9188.75	8304.9
885.2889	1439.8524	9050.4	8169.5
885.4324	1441.6835	8961.7	8077.95
885.5759	1443.5139	8851.75	7968.8
885.7194	1445.3435	8784.7	7901.65
885.8629	1447.1724	8734.05	7853.5
886.0064	1449.0005	8667.75	7783.8
886.1499	1450.8279	8532.45	7647.9
886.2933	1452.6545	8538.8	7656.65
886.4368	1454.4804	8517.2	7637.15
886.5802	1456.3056	8513.4	7623.95
886.7237	1458.13	8419.4	7537.55
886.8671	1459.9536	8208.1	7325
887.0105	1461.7766	7816.9	6935.5
887.1539	1463.5987	7401.25	6518.4
887.2972	1465.4202	6987.65	6106.75
887.4406	1467.2409	6591.4	5709.6
887.584	1469.0608	6325.45	5442
887.7273	1470.88	6075.8	5192.4
887.8706	1472.6984	5831.75	4950.15
888.0139	1474.5161	5648.15	4763.45
888.1572	1476.3331	5489.75	4609.6
888.3005	1478.1493	5361.5	4477
888.4438	1479.9648	5266.05	4384.55
888.5871	1481.7795	5157.85	4276.5
888.7303	1483.5935	5087.95	4205.85
888.8736	1485.4067	5046.05	4165.4
889.0168	1487.2192	4986.45	4103.8
889.16	1489.031	4943.2	4059.75
889.3032	1490.842	4896.55	4015.15
889.4464	1492.6522	4854.75	3974.25
889.5896	1494.4618	4844.9	3960.7
889.7327	1496.2705	4809.15	3926.8
889.8759	1498.0785	4774.9	3892.05
890.019	1499.8858	4773.55	3892.5
890.1622	1501.6924	4753.35	3870.55
890.3053	1503.4981	4738.55	3857.5
890.4484	1505.3032	4729.85	3846.2
890.5914	1507.1075	4700.75	3818.8
890.7345	1508.911	4656	3773.75
890.8776	1510.7138	4645.55	3760.55
891.0206	1512.5159	4617.9	3736.05
891.1637	1514.3172	4596.2	3712
891.3067	1516.1178	4549.35	3667.3
891.4497	1517.9176	4514	3630.9
891.5927	1519.7166	4489.1	3606.5
891.7357	1521.515	4487.3	3599.05
891.8786	1523.3126	4471.6	3590.25
892.0216	1525.1094	4431.8	3546.45
892.1645	1526.9055	4418.2	3537
892.3074	1528.7008	4402.65	3518.4
892.4503	1530.4954	4394.25	3507.65
892.5932	1532.2893	4386.6	3505.6
892.7361	1534.0824	4359.8	3470.05
892.879	1535.8747	4362	3479.1
893.0218	1537.6663	4364.75	3480.45
893.1647	1539.4572	4340.25	3455.7
893.3075	1541.2473	4317.3	3435.55
893.4503	1543.0367	4325.5	3443.8
893.5931	1544.8253	4332.9	3446.95
893.7359	1546.6132	4334.25	3448
893.8787	1548.4003	4348.05	3456.75
894.0214	1550.1867	4347.85	3455.15
894.1642	1551.9723	4358.4	3469.55
894.3069	1553.7572	4380.5	3495.1
894.4496	1555.5414	4396.15	3511.9
894.5923	1557.3247	4420.45	3538.65
894.735	1559.1074	4465.2	3582.8
894.8777	1560.8893	4511.7	3630.5
895.0204	1562.6705	4585.95	3703.8
895.163	1564.4509	4653.2	3770.25
895.3056	1566.2305	4721.1	3841.45
895.4482	1568.0094	4833.7	3951.4
895.5908	1569.7876	4909.55	4027.55
895.7334	1571.565	4981.45	4100.75
895.876	1573.3417	5051.2	4168.6
896.0186	1575.1176	5061.25	4179.55
896.1611	1576.8928	5031.05	4148.9
896.3036	1578.6672	4949.2	4065.45
896.4461	1580.4409	4834.9	3951.9
896.5886	1582.2138	4718.8	3837.2
896.7311	1583.986	4587.85	3703.55
896.8736	1585.7575	4488.6	3610.15
897.0161	1587.5282	4401.9	3520.5
897.1585	1589.2981	4359.75	3478.2
897.3009	1591.0673	4313.9	3431.1
897.4433	1592.8358	4304.6	3423.6
897.5857	1594.6035	4285.45	3401.65
897.7281	1596.3704	4273.8	3390.95
897.8705	1598.1366	4281.8	3397.8
898.0128	1599.9021	4304.95	3422.65
898.1551	1601.6668	4326.2	3442.35
898.2975	1603.4308	4363.95	3481.7
898.4398	1605.194	4450.6	3562.75
898.5821	1606.9564	4519.05	3637.75
898.7243	1608.7182	4633	3745.55
898.8666	1610.4791	4763.6	3881.55
899.0088	1612.2394	4921.25	4041.6
899.1511	1613.9988	5102.05	4218.85
899.2933	1615.7576	5333	4450.85
899.4355	1617.5156	5579.45	4691.1
899.5776	1619.2728	5792.95	4910.8
899.7198	1621.0293	5987.1	5108.1
899.862	1622.785	6088.7	5199.2
900.0041	1624.54	6041.55	5156.35
900.1462	1626.2942	5919.5	5037
900.2883	1628.0477	5663.6	4777.1
900.4304	1629.8005	5426.85	4540.35
900.5725	1631.5525	5185.95	4301.95
900.7145	1633.3037	4956.2	4072.4
900.8566	1635.0542	4787.1	3903.95
900.9986	1636.804	4685.45	3802.25
901.1406	1638.553	4642.85	3681.35
901.2826	1640.3013	4519.4	3637.15
901.4245	1642.0488	4471.4	3589.25
901.5665	1643.7955	4461.6	3582.45
901.7085	1645.5416	4489.5	3607.6
901.8504	1647.2868	4548.2	3666.7
901.9923	1649.0313	4617.8	3736.45
902.1342	1650.7751	4785.6	3899.6
902.2761	1652.5181	4927.25	4043
902.4179	1654.2604	5190.9	4306.7
902.5598	1656.0019	5518.65	4637.55
902.7016	1657.7427	5892.95	5010.4
902.8434	1659.4828	6243.1	5360.95
902.9852	1661.222	6486.15	5603.35
903.127	1662.9606	6525.5	5644.8
903.2687	1664.6984	6370.25	5488.05
903.4105	1666.4354	6047.35	5165.35
903.5522	1668.1717	5588.9	4708.55
903.6939	1669.9072	5126.45	4244.05
903.8356	1671.642	4766.6	3883.55
903.9773	1673.3761	4475.2	3594.15
904.119	1675.1094	4267	3387.15
904.2606	1676.8419	4069.45	3185.9
904.4022	1678.5737	3952.6	3072.6
904.5439	1680.3048	3858.3	2976.8
904.6855	1682.0351	3778.1	2896.15
904.827	1683.7646	3730.5	2846.7
904.9686	1685.4934	3684.65	2804.2
905.1101	1687.2215	3662.9	2781
905.2517	1688.9488	3613.45	2731.55
905.3932	1690.6754	3584.45	2704.2
905.5347	1692.4012	3557.5	2676.25
905.6761	1694.1263	3535.8	2654.15
905.8176	1695.8506	3518.45	2635.95
905.9591	1697.5742	3500.3	2618.85
906.1005	1699.297	3484.7	2602.75
906.2419	1701.0191	3454.85	2574.7
906.3833	1702.7404	3432.6	2551.75
906.5246	1704.461	3424.15	2542.85
906.666	1706.1808	3405.65	2522.25
906.8073	1707.8999	3395.95	2511.05
906.9487	1709.6182	3369.25	2486.25
907.09	1711.3358	3371.5	2488.6
907.2313	1713.0527	3347.65	2468.7
907.3725	1714.7688	3328.75	2440.6
907.5138	1716.4841	3310.45	2427.1
907.655	1718.1987	3317.5	2430.2
907.7962	1719.9126	3288.45	2407.95
907.9374	1721.6257	3287.3	2402.95
908.0786	1723.338	3275.15	2393.6
908.2198	1725.0496	3272.35	2390.8
908.3609	1726.7605	3245.6	2363.85
908.502	1728.4706	3243.8	2362.05
908.6431	1730.18	3227.4	2344.05
908.7842	1731.8886	3210.75	2328.85
908.9253	1733.5964	3215.7	2331
909.0664	1735.3036	3210.8	2326.45
909.2074	1737.0099	3194.05	2312.2
909.3484	1738.7156	3188.4	2309.7
909.4894	1740.4204	3186.05	2300
909.6304	1742.1246	3174.65	2293.55
909.7714	1743.8279	3166.35	2283.7
909.9123	1745.5306	3173.4	2290.3
910.0532	1747.2325	3143.5	2261.55
910.1941	1748.9336	3151.55	2270.15
910.335	1750.634	3133.35	2249
910.4759	1752.3336	3127.45	2245.05
910.6168	1754.0325	3120.85	2240.55
910.7576	1755.7307	3108.6	2229.1
910.8984	1757.4281	3114.55	2232.8
911.0392	1759.1247	3123.45	2232.85
911.18	1760.8206	3102.65	2216.7
911.3208	1762.5158	3093.45	2207.4
911.4615	1764.2102	3081.35	2199.1
911.6022	1765.9039	3072.1	2191.2
911.7429	1767.5968	3059.55	2178.2
911.8836	1769.289	3062.3	2181.35
912.0243	1770.9804	3055.35	2173.15
912.1649	1772.6711	3049.2	2168.4
912.3056	1774.361	3047.7	2166.55
912.4462	1776.0502	3046	2164.95
912.5868	1777.7386	3042.1	2157.25
912.7274	1779.4263	3021.75	2137.6
912.8679	1781.1132	3010.8	2130.1
913.0084	1782.7994	3016.15	2133.3
913.149	1784.4849	3019.75	2137.25
913.2895	1786.1696	3005	2103.1
913.4299	1787.8535	2993.05	2111.65
913.5704	1789.5367	2987.35	2104.1
913.7108	1791.2192	2996.2	2115.1
913.8513	1792.9009	2986.75	2077.55
913.9917	1794.5818	2983	2100.55
914.132	1796.2621	2961.75	2083.5
914.2724	1797.9415	2954.25	2071.4
914.4128	1799.6202	2966	2083.05
914.5531	1801.2982	2955.5	2072.6
914.6934	1802.9755	2938.2	2055.45
914.8337	1804.6519	2943.85	2062.4
914.9739	1806.3277	2932.85	2050
915.1142	1808.0027	2911.85	2032.45
915.2544	1809.6769	2918.6	2037.5
915.3946	1811.3504	2924.25	2042.05
915.5348	1813.0231	2913.8	2031.8
915.675	1814.6951	2921.35	2036.95
915.8151	1816.3664	2908.35	2022.9
915.9553	1818.0369	2909.9	2027.6
916.0954	1819.7067	2895.3	2013.75
916.2355	1821.3757	2895	2012.6
916.3755	1823.044	2884.9	2002
916.5156	1824.7115	2884.8	2003.55
916.6556	1826.3783	2874.6	1992.65
916.7956	1828.0443	2864.5	1983.8
916.9356	1829.7096	2864.85	1982.7
917.0756	1831.3741	2870.7	1985.5
917.2155	1833.0379	2870.35	1989.85
917.3555	1834.701	2859.6	1973.2
917.4954	1836.3633	2856.65	1972.55
917.6353	1838.0248	2849.1	1966.05
917.7751	1839.6856	2841.6	1959.95
917.915	1841.3457	2833.9	1952.5
918.0548	1843.005	2826.05	1944.8
918.1946	1844.6636	2823.7	1943.65
918.3344	1846.3214	2826.7	1945.65
918.4742	1847.9785	2825.9	1944.7
918.6139	1849.6349	2807.65	1924.65
918.7537	1851.2904	2833	1941.45
918.8934	1852.9453	2810.65	1928.4
919.0331	1854.5994	2816.55	1932.6
919.1727	1856.2528	2801.9	1914.45
919.3124	1857.9054	2815.8	1933.55
919.452	1859.5572	2794.95	1914.7
919.5916	1861.2083	2793.25	1910.45
919.7312	1862.8587	2778	1897.6
919.8708	1864.5084	2767.5	1882.5
920.0103	1866.1572	2773.85	1894.85
920.1498	1867.8054	2769.95	1889.65
920.2893	1869.4528	2768.75	1885.95
920.4288	1871.0994	2761.1	1881.8
920.5683	1872.7453	2752.35	1869.25
920.7077	1874.3905	2773.65	1873.45
920.8471	1876.0349	2742.75	1859.4
920.9865	1877.6786	2750.65	1865.85
921.1259	1879.3215	2730.3	1850.7
921.2653	1880.9637	2722.75	1839.85
921.4046	1882.6051	2726.05	1844.65
921.5439	1884.2458	2726.6	1844.15
921.6832	1885.8858	2718	1835.35
921.8225	1887.525	2715.9	1833
921.9617	1889.1634	2705.2	1824.55
922.101	1890.8011	2694.7	1812.55
922.2402	1892.4381	2688.65	1806.85
922.3794	1894.0743	2695.95	1813.7
922.5185	1895.7098	2674.95	1794.65
922.6577	1897.3446	2683.25	1801.5
922.7968	1898.9786	2670.8	1786.55
922.9359	1900.6118	2675.05	1793.7
923.075	1902.2443	2654.45	1770.3
923.214	1903.8761	2654.65	1773.75
923.3531	1905.5071	2658.8	1775.5
923.4921	1907.1374	2644.8	1761.25
923.6311	1908.7669	2644.2	1764.35
923.77	1910.3957	2635.55	1751.4
923.909	1912.0237	2626.15	1743.35
924.0479	1913.651	2629.75	1746.1
924.1868	1915.2776	2634.6	1751.9
924.3257	1916.9034	2603.9	1724.6
924.4646	1918.5285	2599	1717.75
924.6034	1920.1528	2605.2	1723.65
924.7422	1921.7764	2607	1727.4
924.881	1923.3992	2590.5	1709.45
925.0198	1925.0213	2588.1	1705.8
925.1586	1926.6427	2583.7	1701.5
925.2973	1928.2633	2637.45	1680.1
925.436	1929.8832	2578.15	1696.5
925.5747	1931.5023	2569.75	1688
925.7134	1933.1207	2565.65	1684.2
925.852	1934.7383	2551.2	1669.75
925.9906	1936.3552	2557.35	1675.6
926.1292	1937.9714	2543.2	1661.25
926.2678	1939.5868	2534.4	1651
926.4064	1941.2015	2535.2	1652.35
926.5449	1942.8154	2516.3	1633.8
926.6834	1944.4286	2514.7	1633.7
926.8219	1946.041	2535.8	1630.55
926.9604	1947.6528	2509.75	1623.85
927.0988	1949.2637	2498.45	1617.25
927.2372	1950.8739	2490.7	1609.9
927.3756	1952.4834	2488.55	1604.3
927.514	1954.0921	2490.75	1608.5
927.6523	1955.7001	2476.65	1589.2
927.7907	1957.3074	2467.8	1587.5
927.929	1958.9139	2465.9	1585.15
928.0673	1960.5197	2462.3	1578.5
928.2055	1962.1247	2439	1556.9
928.3438	1963.729	2437.15	1555.65
928.482	1965.3325	2461.3	1555.55
928.6202	1966.9353	2433.05	1551.7
928.7584	1968.5374	2429.85	1544.05
928.8965	1970.1387	2427.9	1547.25
929.0346	1971.7393	2416.9	1533.9
929.1727	1973.3392	2406.15	1524.1
929.3108	1974.9383	2408.1	1527.8
929.4489	1976.5366	2404.65	1521.1
929.5869	1978.1342	2403.5	1519.8
929.7249	1979.7311	2398.6	1516.5
929.8629	1981.3273	2385.1	1504.55
930.0009	1982.9227	2392.6	1510.1
930.1388	1984.5173	2376.9	1493.8
930.2767	1986.1112	2377.95	1496.6
930.4146	1987.7044	2384.95	1504.1
930.5525	1989.2968	2374.25	1492.05
930.6904	1990.8885	2380.3	1494.25
930.8282	1992.4795	2359.45	1474.05
930.966	1994.0697	2357	1473.4
931.1038	1995.6592	2351.6	1469.2
931.2415	1997.2479	2353.55	1470.85
931.3793	1998.8359	2346.5	1464.35
931.517	2000.4232	2341.5	1459.35
931.6547	2002.0097	2331.55	1451.6
931.7923	2003.5955	2328	1446.1
931.93	2005.1805	2331.15	1448.5
932.0676	2006.7648	2325.05	1441.45
932.2052	2008.3484	2307.6	1422.35
932.3427	2009.9312	2326.1	1439.9
932.4803	2011.5133	2321.8	1439.9
932.6178	2013.0946	2309.1	1425.7
932.7553	2014.6752	2314.85	1432.65
932.8928	2016.2551	2305.6	1421
933.0302	2017.8342	2298.45	1417.45
933.1676	2019.4126	2295.7	1413.35
933.305	2020.9902	2286.85	1404.25
933.4424	2022.5672	2277.05	1394.9
933.5798	2024.1433	2289.05	1398.45
933.7171	2025.7188	2280.05	1399.8
933.8544	2027.2935	2275.25	1389.35
933.9917	2028.8674	2267.2	1385.4
934.129	2030.4406	2269.15	1385.65
934.2662	2032.0131	2252.1	1370.25
934.4034	2033.5849	2260.8	1366.9
934.5406	2035.1559	2257.7	1375.65
934.6778	2036.7261	2255.05	1371.6
934.8149	2038.2957	2243.15	1361.8
934.952	2039.8645	2256.8	1374.2
935.0891	2041.4325	2247.6	1363.25
935.2262	2042.9998	2247.8	1365.6
935.3632	2044.5664	2230.55	1346.3
935.5002	2046.1323	2214.25	1332.2
935.6372	2047.6974	2226.25	1344.55
935.7742	2049.2617	2214.15	1332.35
935.9111	2050.8254	2232.15	1345.3
936.048	2052.3883	2214.95	1332.05
936.1849	2053.9504	2214.3	1332.4
936.3218	2055.5118	2211.75	1328.45
936.4586	2057.0725	2194.6	1309.05
936.5955	2058.6325	2206.2	1321.8
936.7323	2060.1917	2197	1315.25
936.869	2061.7502	2194.05	1310.1
937.0058	2063.3079	2184.55	1299.65
937.1425	2064.8649	2183.35	1296
937.2792	2066.4212	2191	1306.9
937.4159	2067.9767	2184.1	1301.15
937.5525	2069.5315	2173.8	1294.05
937.6891	2071.0856	2166.8	1284.2
937.8257	2072.6389	2165.6	1280.7
937.9623	2074.1915	2153.5	1274.3
938.0989	2075.7433	2156.85	1271.8
938.2354	2077.2945	2148.6	1266.75
938.3719	2078.8448	2140.45	1258.3
938.5084	2080.3945	2128.85	1246.75
938.6448	2081.9434	2136.15	1253.6
938.7812	2083.4916	2128.2	1243.7
938.9176	2085.039	2122.1	1238.4
939.054	2086.5857	2132.3	1248.15
939.1903	2088.1317	2128.4	1245.05
939.3267	2089.677	2131.75	1248.1
939.463	2091.2215	2121.35	1238.9
939.5992	2092.7652	2106.75	1222.7
939.7355	2094.3083	2115.35	1232
939.8717	2095.8506	2109.2	1226.45
940.0079	2097.3921	2109.4	1228.45
940.1441	2098.933	2112.3	1228.25
940.2802	2100.4731	2102.85	1220.4
940.4163	2102.0124	2099.45	1207.55
940.5524	2103.5511	2084	1202.8
940.6885	2105.089	2099.65	1216.65
940.8245	2106.6261	2090.7	1208
940.9606	2108.1626	2093.3	1208.65
941.0965	2109.6983	2112.05	1197.45
941.2325	2111.2332	2086.65	1202.95
941.3684	2112.7675	2079.7	1196.15
941.5044	2114.301	2082.15	1197.7
941.6403	2115.8337	2077.35	1193.8
941.7761	2117.3657	2065.8	1184.1
941.912	2118.897	2075.35	1189.1
942.0478	2120.4276	2059.2	1169.1
942.1835	2121.9575	2059.15	1175.45
942.3193	2123.4866	2080.6	1184.1
942.455	2125.0149	2065.75	1179.45
942.5907	2126.5426	2054.55	1169.15
942.7264	2128.0695	2042.25	1155.05
942.8621	2129.5956	2041.75	1158.55
942.9977	2131.1211	2047.95	1162.95
943.1333	2132.6458	2037	1153.5
943.2689	2134.1698	2038.8	1154.6
943.4044	2135.693	2032.85	1147.85
943.54	2137.2155	2036.6	1151.15
943.6755	2138.7373	2028.9	1144.6
943.8109	2140.2584	2031.75	1148.25
943.9464	2141.7787	2029.35	1139.05
944.0818	2143.2983	2022.7	1140.2
944.2172	2144.8171	2005.95	1124.6
944.3526	2146.3353	2004.75	1117.55
944.4879	2147.8527	2011.7	1129.1
944.6232	2149.3693	2015.75	1130.1
944.7585	2150.8853	2010.5	1129.05
944.8938	2152.4005	1992.05	1106.85
945.029	2153.9149	2001.4	1117.4
945.1642	2155.4287	1986.15	1102.4
945.2994	2156.9417	1990.15	1104.2
945.4346	2158.454	2002.9	1118.15
945.5697	2159.9655	1981.4	1100
945.7048	2161.4764	1985.6	1102.35
945.8399	2162.9865	1980.7	1096.65
945.9749	2164.4958	1974.05	1087.7
946.1099	2166.0045	1974.6	1086.55
946.2449	2167.5124	1981.6	1095.55
946.3799	2169.0195	1967.85	1083.85
946.5148	2170.526	1967.75	1082.85
946.6498	2172.0317	1968.45	1083.45
946.7846	2173.5367	1966.05	1081.1
946.9195	2175.0409	1964.05	1082.05
947.0543	2176.5445	1970.1	1085.95
947.1891	2178.0473	1958.4	1075.4
947.3239	2179.5494	1954.5	1067.95
947.4587	2181.0507	1952.5	1068.6
947.5934	2182.5513	1940.5	1056.9
947.7281	2184.0512	1951.4	1068.5
947.8628	2185.5504	1941	1056.55
947.9974	2187.0488	1929.45	1045.35
948.132	2188.5465	1932.15	1047.95
948.2666	2190.0435	1930.85	1046
948.4012	2191.5397	1930.55	1047.15
948.5357	2193.0353	1916.7	1031.95
948.6702	2194.5301	1915.2	1030.65
948.8047	2196.0241	1923.15	1038
948.9392	2197.5175	1913.75	1031.35
949.0736	2199.0101	1919.15	1032.1
949.208	2200.502	1893.6	1011.2
949.3424	2201.9931	1893.6	1009.2
949.4767	2203.4835	1900.6	1014.85
949.611	2204.9733	1902.5	1012.35
949.7453	2206.4622	1897.8	1013.9
949.8796	2207.9505	1898.65	1011.5
950.0138	2209.438	1880	997
950.148	2210.9248	1888.05	1002.4
950.2822	2212.4109	1881.05	997.45
950.4164	2213.8962	1878.45	993.6
950.5505	2215.3809	1885.4	999.8
950.6846	2216.8648	1869.2	986.8
950.8186	2218.3479	1872	983.75
950.9527	2219.8304	1872.25	986.95
951.0867	2221.3121	1864.3	975.8
951.2207	2222.7931	1861.35	978.15
951.3546	2224.2733	1843.15	959.1
951.4886	2225.7529	1854.3	970
951.6225	2227.2317	1856	969.95
951.7563	2228.7098	1844.5	959.6
951.8902	2230.1872	1845.45	960.4
952.024	2231.6638	1843.7	960.55
952.1578	2233.1397	1844.3	954.7
952.2916	2234.6149	1831.65	948.45
952.4253	2236.0894	1828.5	943.75
952.559	2237.5632	1834.3	948.6
952.6927	2239.0362	1825.25	939.4
952.8263	2240.5085	1816.8	931.35
952.9599	2241.9801	1818.75	934
953.0935	2243.4509	1810.4	926.05
953.2271	2244.921	1807.35	924.95
953.3606	2246.3904	1803.4	917.5
953.4941	2247.8591	1805.65	922.9
953.6276	2249.3271	1801.25	917.95
953.7611	2250.7943	1798.6	912.9
953.8945	2252.2608	1794.65	910.25
954.0279	2253.7266	1791.65	907.05
954.1612	2255.1917	1785.5	901.15
954.2946	2256.656	1776.9	891.5
954.4279	2258.1197	1789.6	904.85
954.5612	2259.5826	1777.75	891.7
954.6944	2261.0447	1779.6	893.5
954.8276	2262.5062	1778.9	892.5
954.9608	2263.9669	1781.1	895.15
955.094	2265.4269	1773.05	890.35
955.2271	2266.8862	1775.95	891.9
955.3602	2268.3448	1773.85	890.05
955.4933	2269.8026	1769.75	885.25
955.6264	2271.2598	1763.5	877.75
955.7594	2272.7162	1774	890.7
955.8924	2274.1719	1766.45	879.75
956.0253	2275.6268	1751.05	870.5
956.1583	2277.0811	1760.7	877.05
956.2912	2278.5346	1756.8	873.45
956.4241	2279.9874	1755.55	870.35
956.5569	2281.4395	1764.4	882.75
956.6897	2282.8908	1753.7	865.25
956.8225	2284.3414	1762.95	875.75
956.9553	2285.7914	1740.55	856.9
957.088	2287.2406	1744.65	858
957.2207	2288.689	1745.95	861.25
957.3534	2290.1368	1750.35	865.05
957.486	2291.5838	1734	848.1
957.6186	2293.0302	1730.65	844.3
957.7512	2294.4758	1729.95	845.95
957.8838	2295.9206	1726.65	839.95
958.0163	2297.3648	1727.95	844.3
958.1488	2298.8082	1725.65	839.55
958.2813	2300.251	1727.55	844.35
958.4137	2301.693	1727	839.9
958.5461	2303.1343	1713	827.75
958.6785	2304.5748	1716.9	832
958.8108	2306.0147	1719	835.2
958.9432	2307.4538	1718.1	828.35
959.0754	2308.8922	1712.8	831.25
959.2077	2310.3299	1703.9	818.85
959.3399	2311.7669	1709.05	825.35
959.4721	2313.2031	1708.2	824.1
959.6043	2314.6387	1693.55	808.05
959.7365	2316.0735	1684.35	799.9
959.8686	2317.5076	1694.95	811.15
960.0006	2318.941	1683.15	798.75
960.1327	2320.3737	1686.4	801.6
960.2647	2321.8056	1688.35	800.65
960.3967	2323.2369	1686.45	801.25
960.5287	2324.6674	1678.75	791.7
960.6606	2326.0972	1688	799.95
960.7925	2327.5263	1681.8	797.1
960.9244	2328.9547	1680.9	795.5
961.0562	2330.3823	1667.1	783.65
961.1881	2331.8092	1668.45	780.7
961.3198	2333.2355	1664.2	781.1
961.4516	2334.661	1670.15	785.2
961.5833	2336.0858	1666.8	780.45
961.715	2337.5098	1659.05	774.2
961.8467	2338.9332	1663.8	778.5
961.9783	2340.3558	1662.35	774.35
962.1099	2341.7778	1654.75	770.35
962.2415	2343.199	1659.25	771.85
962.373	2344.6195	1650.4	767.15
962.5045	2346.0393	1648.55	764.2
962.636	2347.4583	1663.9	777.6
962.7675	2348.8767	1661.4	777.35
962.8989	2350.2943	1656.15	774.2
963.0303	2351.7113	1654.7	770.25
963.1617	2353.1275	1654.75	768.8
963.293	2354.543	1661.85	756.25
963.4243	2355.9578	1644.7	760.2
963.5556	2357.3718	1643.35	759.45
963.6868	2358.7852	1636.4	747.5
963.818	2360.1978	1643.5	758.35
963.9492	2361.6098	1632.95	750.3
964.0803	2363.021	1635.55	747.8
964.2114	2364.4315	1630.25	745.8
964.3425	2365.8413	1628.65	738.85
964.4736	2367.2504	1621.15	738
964.6046	2368.6587	1630.65	747.8
964.7356	2370.0664	1618.95	735.6
964.8666	2371.4733	1623.6	739.5
964.9975	2372.8795	1622.7	740
965.1284	2374.285	1615.1	731.3
965.2593	2375.6899	1614.95	731.65
965.3901	2377.0939	1602.85	720.15
965.5209	2378.4973	1608	725.55
965.6517	2379.9	1603.8	721.2
965.7825	2381.3019	1602.25	721.3
965.9132	2382.7032	1601.75	719.75
966.0439	2384.1037	1599.25	717.45
966.1745	2385.5035	1599.45	716.15
966.3051	2386.9027	1592.35	709.8
966.4357	2388.3011	1592.6	708.3
966.5663	2389.6987	1591.2	708.65
966.6968	2391.0957	1587	705.45
966.8273	2392.492	1576.85	694.65
966.9578	2393.8876	1581.8	699.75
967.0882	2395.2824	1578.75	695.7
967.2186	2396.6765	1573.15	692.2
967.349	2398.07	1559.65	679.6
967.4793	2399.4627	1563.3	677.45
967.6097	2400.8547	1571.05	689.55
967.7399	2402.246	1568.85	681.1
967.8702	2403.6366	1568.45	685.1
968.0004	2405.0265	1559.95	677.55
968.1306	2406.4156	1564.9	676.2
968.2607	2407.8041	1554.9	669
968.3909	2409.1918	1559.85	677.5
968.521	2410.5789	1557.25	674.2
968.651	2411.9652	1555.1	670.25
968.781	2413.3508	1547	663.95
968.911	2414.7358	1549.2	664.75
969.041	2416.12	1551.9	671.1
969.1709	2417.5035	1547.3	663.3
969.3008	2418.8863	1536.3	653.95
969.4307	2420.2684	1544.75	663.45
969.5606	2421.6497	1536.75	652.15
969.6904	2423.0304	1536.4	653.6
969.8201	2424.4104	1539.45	656.45
969.9499	2425.7896	1532.3	643.2
970.0796	2427.1682	1526.95	643.8
970.2093	2428.546	1534.85	651.3
970.3389	2429.9232	1535.5	651.2
970.4685	2431.2996	1525.35	642.15
970.5981	2432.6753	1523.35	641.15
970.7277	2434.0503	1520.35	638.95
970.8572	2435.4246	1512.95	632.6
970.9867	2436.7982	1529.35	645.75
971.1161	2438.1711	1528.5	646.1
971.2456	2439.5433	1509.05	625.85
971.375	2440.9148	1523.15	635.5
971.5043	2442.2856	1519.7	637.05
971.6336	2443.6557	1514.95	629.6
971.7629	2445.025	1504.85	621.2
971.8922	2446.3937	1510.95	627.45
972.0214	2447.7617	1505.6	622.3
972.1506	2449.1289	1503.6	619.9
972.2798	2450.4955	1506.55	620.95
972.4089	2451.8613	1496	613.8
972.538	2453.2265	1504.05	620.15
972.6671	2454.5909	1500.65	614.6
972.7961	2455.9546	1490.3	607.6
972.9251	2457.3177	1495.25	614.4
973.0541	2458.68	1497.65	613.7
973.1831	2460.0416	1501.9	620.6
973.312	2461.4025	1497.1	614.3
973.4408	2462.7627	1512.55	616.75
973.5697	2464.1222	1488.3	606.85
973.6985	2465.4811	1497.6	611
973.8273	2466.8392	1495.5	610.5
973.956	2468.1966	1483.6	597.7
974.0847	2469.5533	1491.05	604.75
974.2134	2470.9093	1489.55	606.7
974.3421	2472.2645	1490.8	604.2
974.4707	2473.6191	1483.85	600.1
974.5993	2474.973	1479.2	596.4
974.7278	2476.3262	1484.45	597.6
974.8563	2477.6787	1485.5	605.15
974.9848	2479.0305	1484.95	601.35
975.1132	2480.3816	1477.45	592.8
975.2417	2481.7319	1481.5	599.25
975.37	2483.0816	1480.75	594
975.4984	2484.4306	1480.85	594.65
975.6267	2485.7789	1470.85	585.85
975.755	2487.1264	1475.65	588.3
975.8833	2488.4733	1461.6	578.5
976.0115	2489.8195	1483.9	581.8
976.1397	2491.165	1473.95	586.95
976.2678	2492.5097	1461.15	577.2
976.3959	2493.8538	1459.05	577.65
976.524	2495.1972	1455.15	573.4
976.6521	2496.5398	1452.3	566.8
976.7801	2497.8818	1455.4	570.8
976.9081	2499.2231	1454.45	569.45
977.036	2500.5637	1442	556.7
977.164	2501.9035	1445.15	561.9
977.2918	2503.2427	1451.4	564.05
977.4197	2504.5812	1450.1	568.3
977.5475	2505.919	1447.4	561.85
977.6753	2507.256	1436.35	552.85
977.8031	2508.5924	1441.15	559.75
977.9308	2509.9281	1447.85	556.8
978.0585	2511.2631	1438.15	554.45
978.1861	2512.5974	1438	552.95
978.3137	2513.9309	1438.75	553.9
978.4413	2515.2638	1466.9	554.5
978.5689	2516.596	1439.8	555.5
978.6964	2517.9275	1435.95	552.85
978.8239	2519.2583	1434.35	552.4
978.9513	2520.5884	1432.85	548.25
979.0788	2521.9178	1430.2	546.35
979.2062	2523.2465	1426.15	543.05
979.3335	2524.5745	1423.5	541.5
979.4608	2525.9018	1428.7	542.8
979.5881	2527.2284	1419.45	537.25
979.7154	2528.5543	1418.95	537.2
979.8426	2529.8796	1420.7	538.65
979.9698	2531.2041	1422.4	538.85
980.0969	2532.5279	1419.75	540.45
980.224	2533.851	1418.9	533.85
980.3511	2535.1735	1417.1	536.45
980.4781	2536.4952	1418.75	534.95
980.6052	2537.8163	1416.55	532.9
980.7321	2539.1366	1414.55	530.4
980.8591	2540.4562	1412.05	526.65
980.986	2541.7752	1408.15	527.85
981.1129	2543.0935	1401.55	517.75
981.2397	2544.411	1409.4	525.15
981.3665	2545.7279	1411.7	528.9
981.4933	2547.0441	1402.6	519.75
981.62	2548.3596	1406.6	520.1
981.7467	2549.6744	1408.2	525.55
981.8734	2550.9885	1403.25	517.6
982.0001	2552.3019	1393	508.9
982.1267	2553.6146	1401	516.6
982.2532	2554.9266	1394.85	511.9
982.3798	2556.2379	1398.95	513.8
982.5063	2557.5485	1394.85	510.15
982.6327	2558.8585	1401	510.35
982.7592	2560.1677	1399.1	508.8
982.8856	2561.4762	1394	510.35
983.0119	2562.7841	1393.75	505.8
983.1383	2564.0913	1390.45	507.05
983.2646	2565.3977	1393.05	510.5
983.3908	2566.7035	1387.5	504.8
983.517	2568.0086	1393.65	507
983.6432	2569.313	1388.45	502.2
983.7694	2570.6167	1391.5	503.5
983.8955	2571.9197	1384	501.05
984.0216	2573.222	1386.35	498.05
984.1476	2574.5236	1375.95	489.5
984.2737	2575.8246	1382.05	495.2
984.3996	2577.1248	1391.95	505.4
984.5256	2578.4244	1384.6	500.15
984.6515	2579.7232	1387.6	503.9
984.7774	2581.0214	1418.4	505.35
984.9032	2582.3189	1384.3	498.7
985.029	2583.6157	1391.5	502
985.1548	2584.9118	1387.2	503.85
985.2806	2586.2072	1394.7	511.05
985.4063	2587.5019	1388	504.05
985.5319	2588.7959	1395.3	512.2
985.6576	2590.0893	1386.3	500.4
985.7832	2591.3819	1393.5	510.55
985.9087	2592.6739	1398.4	515.15
986.0343	2593.9652	1397.9	513.45
986.1597	2595.2557	1393.35	508.2
986.2852	2596.5456	1401.95	516.1
986.4106	2597.8348	1404.7	522.05
986.536	2599.1234	1402.4	519.05
986.6614	2600.4112	1411.15	527.55
986.7867	2601.6983	1411.15	524.15
986.912	2602.9848	1400.65	516.3
987.0372	2604.2705	1413.25	522.6
987.1624	2605.5556	1401.3	518.2
987.2876	2606.84	1395.95	511.9
987.4128	2608.1237	1394.5	512.2
987.5379	2609.4067	1404.15	520.4
987.6629	2610.689	1409.55	517
987.788	2611.9707	1393.65	505.9
987.913	2613.2516	1397.1	507.25
988.0379	2614.5319	1393.55	510.3
988.1629	2615.8115	1389.75	504.2
988.2878	2617.0903	1380.9	493.55
988.4126	2618.3685	1389.9	504.1
988.5375	2619.6461	1392.95	509.5
988.6622	2620.9229	1395.4	511.55
988.787	2622.199	1379.9	493.25
988.9117	2623.4745	1388.8	503.55
989.0364	2624.7493	1393.15	508.8
989.161	2626.0234	1384.8	500.35
989.2857	2627.2968	1384.2	500.95
989.4102	2628.5695	1390.1	505.45
989.5348	2629.8415	1382.35	499.75
989.6593	2631.1128	1390.2	504.55
989.7837	2632.3835	1385.65	502.3
989.9082	2633.6535	1393.05	508.8
990.0326	2634.9228	1387.2	503.15
990.1569	2636.1914	1385.75	501.45
990.2812	2637.4593	1386.5	501
990.4055	2638.7265	1379.95	496.15
990.5298	2639.9931	1383.6	501.4
990.654	2641.259	1380.45	493.3
990.7782	2642.5242	1381.5	496.65
990.9023	2643.7887	1376.45	494.7
991.0264	2645.0525	1380.05	495.55
991.1505	2646.3156	1380	493.75
991.2745	2647.5781	1376.6	492.85
991.3985	2648.8398	1375.2	490.7
991.5225	2650.1009	1375.85	483.05
991.6464	2651.3613	1368.9	483.6
991.7703	2652.6211	1370.4	487.05
991.8942	2653.8801	1374.8	491.05
992.018	2655.1385	1369.75	483.1
992.1418	2656.3961	1362.6	477.65
992.2655	2657.6531	1371.35	486.45
992.3892	2658.9094	1371.1	486.7
992.5129	2660.1651	1362.65	479.25
992.6366	2661.42	1371.3	484.65
992.7602	2662.6743	1375.8	490.25
992.8837	2663.9279	1374.65	491.5
993.0073	2665.1808	1367.9	483.5
993.1307	2666.433	1378.35	492.3
993.2542	2667.6846	1376.05	491.8
993.3776	2668.9354	1387.35	501.45
993.501	2670.1856	1382.05	494.8
993.6244	2671.4351	1389.65	504.65
993.7477	2672.6839	1392.9	507.2
993.8709	2673.9321	1391.85	506.55
993.9942	2675.1795	1392.5	506.05
994.1174	2676.4263	1393.95	508.45
994.2405	2677.6724	1394.25	509.6
994.3637	2678.9179	1405.9	520.95
994.4868	2680.1626	1398.45	516.55
994.6098	2681.4067	1394.1	510.4
994.7328	2682.6501	1399.85	513.4
994.8558	2683.8928	1397.35	513.5
994.9788	2685.1348	1395.45	510.95
995.1017	2686.3761	1384.9	498.05
995.2245	2687.6168	1390.05	506
995.3474	2688.8568	1392.5	508.9
995.4702	2690.0961	1376.2	492.45
995.5929	2691.3348	1380.05	496.55
995.7156	2692.5727	1375.25	492.35
995.8383	2693.81	1376.15	493.6
995.961	2695.0466	1373.3	488.35
996.0836	2696.2826	1372.2	485.5
996.2062	2697.5178	1374.6	485.7
996.3287	2698.7524	1376.1	490.1
996.4512	2699.9863	1379.3	492.95
996.5737	2701.2195	1371.45	489.1
996.6961	2702.452	1387.1	500.7
996.8185	2703.6839	1385.95	502.05
996.9408	2704.9151	1386.65	502.85
997.0631	2706.1456	1394.8	511.75
997.1854	2707.3755	1403.5	518.9
997.3077	2708.6046	1415	527.3
997.4299	2709.8331	1425.65	542.15
997.552	2711.0609	1426.45	541.15
997.6742	2712.2881	1431.2	546.75
997.7963	2713.5145	1449.65	563.65
997.9183	2714.7403	1453.9	569.55
998.0403	2715.9654	1467.85	583.5
998.1623	2717.1899	1488.4	589.2
998.2842	2718.4136	1492.3	607.35
998.4062	2719.6367	1499.15	612.1
998.528	2720.8591	1517.75	626.45
998.6498	2722.0809	1518.85	632.55
998.7716	2723.3019	1543.15	656.3
998.8934	2724.5223	1548.6	662.65
999.0151	2725.7421	1543.3	657.8
999.1368	2726.9611	1546.1	659.75
999.2584	2728.1795	1551.45	662.7
999.38	2729.3972	1545.3	659.45
999.5016	2730.6142	1541.1	644.45
999.6231	2731.8306	1519.65	633.05
999.7446	2733.0462	1508.65	622.9
999.8661	2734.2612	1493.2	604.7
999.9875	2735.4756	1463.85	577.6
1000.1089	2736.6892	1448.9	562.25
1000.2302	2737.9022	1435.25	551.35
1000.3515	2739.1145	1428.5	543.5
1000.4728	2740.3262	1418.3	527.9
1000.594	2741.5372	1397.25	512.35
1000.7152	2742.7475	1386.8	501.75
1000.8363	2743.9571	1373.5	488.85
1000.9575	2745.1661	1367.7	478.4
1001.0785	2746.3744	1365.15	480.05
1001.1996	2747.582	1351.65	465.8
1001.3206	2748.7889	1346.65	460.2
1001.4415	2749.9952	1333.9	451.05
1001.5625	2751.2008	1340.45	452.05
1001.6833	2752.4057	1337.3	450.85
1001.8042	2753.61	1326.35	440.4
1001.925	2754.8136	1333.4	445.05
1002.0458	2756.0165	1325.1	438.55
1002.1665	2757.2188	1327.6	444.55
1002.2872	2758.4204	1323.8	439.45
1002.4078	2759.6213	1326	437.15
1002.5285	2760.8215	1332.75	442.65
1002.649	2762.0211	1324.8	438.75
1002.7696	2763.22	1328.2	441.05
1002.8901	2764.4182	1322.15	437.7
1003.0106	2765.6158	1323.25	438.8
1003.131	2766.8127	1312.55	425.45
1003.2514	2768.009	1312.95	426.5
1003.3717	2769.2045	1309.65	422.25
1003.492	2770.3994	1311.05	424.25
1003.6123	2771.5936	1302.75	416.9
1003.7325	2772.7872	1301	416
1003.8527	2773.9801	1305.55	418.65
1003.9729	2775.1723	1324.55	422.5
1004.093	2776.3639	1303.4	418.55
1004.2131	2777.5548	1307.25	420.1
1004.3331	2778.745	1306.1	421.05
1004.4531	2779.9346	1304.1	419.95
1004.5731	2781.1235	1314.65	427.95
1004.693	2782.3117	1315.75	433
1004.8129	2783.4992	1323.4	437.75
1004.9328	2784.6861	1324.5	438.15
1005.0526	2785.8723	1336.65	450.7
1005.1723	2787.0579	1343.6	459
1005.2921	2788.2428	1345.45	460.9
1005.4118	2789.427	1355.45	469.05
1005.5314	2790.6106	1373.05	488.95
1005.651	2791.7935	1378	493.45
1005.7706	2792.9757	1390.55	506.95
1005.8902	2794.1573	1404.5	517.9
1006.0097	2795.3382	1424.1	537.45
1006.1291	2796.5184	1433.1	549.9
1006.2485	2797.698	1451.15	565.65
1006.3679	2798.8769	1472.7	587.35
1006.4873	2800.0551	1487.7	600.55
1006.6066	2801.2327	1516.15	627.55
1006.7258	2802.4096	1537.05	652.45
1006.8451	2803.5859	1553.75	668.8
1006.9642	2804.7615	1572	686.15
1007.0834	2805.9364	1600.8	718.3
1007.2025	2807.1106	1634.1	749.9
1007.3216	2808.2842	1658.7	772.75
1007.4406	2809.4572	1693.85	810.25
1007.5596	2810.6294	1741.35	854.05
1007.6785	2811.801	1780.2	895.1
1007.7975	2812.972	1824.05	938.95
1007.9163	2814.1423	1857.55	973.8
1008.0352	2815.3119	1922.05	1036.6
1008.154	2816.4808	1961.8	1077.35
1008.2727	2817.6491	2016.5	1131.5
1008.3914	2818.8167	2061.65	1179.3
1008.5101	2819.9837	2127.25	1237.4
1008.6288	2821.15	2171	1285.1
1008.7474	2822.3157	2213.55	1331.95
1008.8659	2823.4807	2255.25	1369.5
1008.9844	2824.645	2309.75	1427.35
1009.1029	2825.8086	2349.75	1463.75
1009.2214	2826.9716	2390.55	1508.25
1009.3398	2828.134	2430.45	1544.7
1009.4581	2829.2957	2463.3	1579.45
1009.5764	2830.4567	2492.6	1608.4
1009.6947	2831.617	2497.45	1611.45
1009.813	2832.7767	2512.2	1629.65
1009.9312	2833.9358	2520.35	1636.05
1010.0493	2835.0941	2520.6	1633.6
1010.1675	2836.2519	2511.9	1628.05
1010.2855	2837.4089	2499.35	1614.75
1010.4036	2838.5653	2480.65	1596.8
1010.5216	2839.7211	2474.9	1591.3
1010.6396	2840.8761	2497.35	1610.95
1010.7575	2842.0306	2522.95	1640.4
1010.8754	2843.1843	2557.6	1673.75
1010.9932	2844.3374	2593.9	1709.05
1011.111	2845.4899	2672.65	1788.75
1011.2288	2846.6417	2745.8	1860.8
1011.3465	2847.7928	2824.6	1941.1
1011.4642	2848.9433	2902.15	2018
1011.5818	2850.0931	2989.7	2105.2
1011.6995	2851.2422	3070.95	2186.6
1011.817	2852.3907	3141	2252.7
1011.9345	2853.5385	3200.05	2312.75
1012.052	2854.6857	3301.85	2390.4
1012.1695	2855.8323	3337.85	2451.65
1012.2869	2856.9781	3376.5	2492.05
1012.4042	2858.1233	3428.75	2543.9
1012.5216	2859.2679	3478.05	2592.2
1012.6389	2860.4118	3529.15	2644.5
1012.7561	2861.555	3574.95	2684.5
1012.8733	2862.6976	3623.1	2737.35
1012.9905	2863.8395	3621.85	2737.85
1013.1076	2864.9808	3664.55	2779.85
1013.2247	2866.1214	3678.9	2795.25
1013.3417	2867.2614	3687.05	2802.6
1013.4587	2868.4007	3701.95	2816.15
1013.5757	2869.5393	3702.8	2816.55
1013.6926	2870.6773	3730.75	2844.05
1013.8095	2871.8146	3759.5	2871.25
1013.9263	2872.9513	3747.75	2861.35
1014.0431	2874.0874	3742.9	2858.05
1014.1599	2875.2227	3744.5	2858.35
1014.2766	2876.3574	3738.75	2852.65
1014.3933	2877.4915	3700	2815.9
1014.51	2878.6249	3676.2	2792.1
1014.6266	2879.7577	3655.8	2771.15
1014.7431	2880.8898	3641.9	2748.25
1014.8596	2882.0212	3634.5	2751.1
1014.9761	2883.152	3604.9	2720.65
1015.0925	2884.2821	3584.45	2701.95
1015.2089	2885.4116	3579	2695.4
1015.3253	2886.5405	3584.3	2699.8
1015.4416	2887.6686	3597.55	2710.5
1015.5579	2888.7962	3604.85	2722.7
1015.6741	2889.923	3600.65	2716.35
1015.7903	2891.0493	3630.1	2746.75
1015.9065	2892.1748	3633.1	2748.1
1016.0226	2893.2997	3639.3	2755.15
1016.1387	2894.424	3656.15	2774.15
1016.2547	2895.5476	3682.7	2798.8
1016.3707	2896.6706	3711.8	2829.05
1016.4866	2897.7929	3748.6	2863.55
1016.6025	2898.9145	3771.15	2885.95
1016.7184	2900.0355	3800.95	2915.45
1016.8342	2901.1559	3827	2941.75
1016.95	2902.2756	3864.9	2981.65
1017.0658	2903.3946	3903.4	3019.4
1017.1815	2904.513	3936.3	3049.3
1017.2971	2905.6308	3952.6	3069
1017.4127	2906.7479	3970.15	3085.7
1017.5283	2907.8643	4007.3	3124.75
1017.6439	2908.9801	4023.95	3140.25
1017.7594	2910.0953	4041.75	3157.25
1017.8748	2911.2098	4023.4	3136.85
1017.9902	2912.3236	4038.65	3145.6
1018.1056	2913.4368	4034.95	3145.2
1018.2209	2914.5494	4008.3	3124.9
1018.3362	2915.6613	3977.25	3085.9
1018.4515	2916.7725	3949.15	3063.55
1018.5667	2917.8831	3932.8	3047.3
1018.6819	2918.9931	3895.8	3008.2
1018.797	2920.1024	3856.55	2970.7
1018.9121	2921.211	3838.85	2954.55
1019.0271	2922.319	3824.25	2938.6
1019.1421	2923.4264	3811.65	2927.8
1019.2571	2924.5331	3784.15	2899.55
1019.372	2925.6391	3763.45	2879.8
1019.4869	2926.7445	3753.3	2870.25
1019.6017	2927.8493	3751.7	2866.6
1019.7165	2928.9534	3757.2	2871.55
1019.8313	2930.0569	3740.05	2853.65
1019.946	2931.1597	3725.55	2838.9
1020.0606	2932.2619	3721.45	2836.3
1020.1753	2933.3634	3719.6	2836.3
1020.2899	2934.4643	3694.45	2800.95
1020.4044	2935.5645	3684.9	2794.5
1020.5189	2936.6641	3638.05	2749.3
1020.6334	2937.763	3607.45	2722.8
1020.7478	2938.8613	3550.05	2665.35
1020.8622	2939.959	3506.85	2617.25
1020.9765	2941.056	3419.8	2537.95
1021.0908	2942.1523	3333.65	2448.75
1021.2051	2943.248	3241.05	2353.55
1021.3193	2944.3431	3147.45	2263.7
1021.4334	2945.4375	3038.7	2154.7
1021.5476	2946.5313	2925.8	2042.1
1021.6617	2947.6244	2820.75	1936.25
1021.7757	2948.7169	2720.4	1834.7
1021.8897	2949.8087	2614.2	1728.9
1022.0037	2950.8999	2530.35	1645.3
1022.1176	2951.9904	2451.3	1567.85
1022.2315	2953.0803	2364.35	1481.55
1022.3453	2954.1696	2302.45	1418.2
1022.4591	2955.2582	2253.8	1370.8
1022.5728	2956.3462	2196	1311.9
1022.6865	2957.4335	2159.35	1273.35
1022.8002	2958.5202	2122.2	1235.2
1022.9138	2959.6062	2089.5	1202.9
1023.0274	2960.6916	2079.65	1196.1
1023.141	2961.7764	2057.4	1170.75
1023.2545	2962.8605	2034.3	1148.7
1023.3679	2963.9439	2024.7	1141.2
1023.4813	2965.0267	2013.55	1128.45
1023.5947	2966.1089	2030.6	1125.8
1023.708	2967.1905	1998.05	1115.15
1023.8213	2968.2714	1984.6	1100.35
1023.9346	2969.3516	1989.35	1105.65
1024.0478	2970.4312	2009.55	1117.1
1024.1609	2971.5102	1990.5	1106.35
1024.274	2972.5885	1990.5	1107.65
1024.3871	2973.6662	1999.7	1109.35
1024.5002	2974.7432	1996.7	1114.8
1024.6132	2975.8196	1981.65	1097.2
1024.7261	2976.8954	1973.5	1091.1
1024.839	2977.9705	1959.05	1074.85
1024.9519	2979.045	1941.8	1056.75
1025.0647	2980.1188	1940.8	1058.75
1025.1775	2981.192	1916.75	1033.4
1025.2902	2982.2645	1895.25	1010.3
1025.4029	2983.3364	1866.25	981
1025.5156	2984.4077	1838.4	955.25
1025.6282	2985.4783	1812.7	923.7
1025.7407	2986.5483	1771.65	886.1
1025.8532	2987.6177	1732.15	845.95
1025.9657	2988.6864	1702.85	816.85
1026.0782	2989.7545	1670.3	785.2
1026.1906	2990.8219	1635.2	752.05
1026.3029	2991.8887	1615.2	730.15
1026.4152	2992.9548	1578.25	692.1
1026.5275	2994.0204	1538.2	655
1026.6397	2995.0852	1510.8	628.35
1026.7519	2996.1495	1494.8	608.3
1026.864	2997.2131	1467.8	585.4
1026.9761	2998.276	1442.7	557.3
1027.0882	2999.3383	1428.2	545.15
1027.2002	3000.4	1407.75	522.65
1027.3122	3001.4611	1392.3	510.3
1027.4241	3002.5215	1379.25	495.4
1027.536	3003.5812	1359.8	475.85
1027.6478	3004.6404	1347.4	464
1027.7596	3005.6989	1345.05	457.35
1027.8714	3006.7567	1339.75	455.15
1027.9831	3007.8139	1348.5	447.7
1028.0947	3008.8705	1327.25	442.25
1028.2064	3009.9264	1321.2	437.55
1028.3179	3010.9818	1315.35	431.2
1028.4295	3012.0364	1313.9	432
1028.541	3013.0905	1304.8	422.85
1028.6524	3014.1439	1303.6	418.6
1028.7638	3015.1966	1303.55	420.3
1028.8752	3016.2487	1297.9	412.25
1028.9865	3017.3002	1309.35	421.55
1029.0978	3018.3511	1303	421.35
1029.209	3019.4013	1302.15	417.15
1029.3202	3020.4509	1300.7	418.35
1029.4314	3021.4998	1309.3	425.15
1029.5425	3022.5481	1308.7	424.05
1029.6535	3023.5958	1308.75	425.25
1029.7645	3024.6428	1314.5	430.2
1029.8755	3025.6892	1310	426.4
1029.9864	3026.735	1320.6	437.4
1030.0973	3027.7802	1315.35	431.15
1030.2082	3028.8247	1318.3	433.85
1030.319	3029.8685	1317.35	432.15
1030.4297	3030.9118	1331.1	445.25
1030.5404	3031.9544	1331.55	448.7
1030.6511	3032.9963	1336.95	452.9
1030.7617	3034.0376	1342.1	457.35
1030.8723	3035.0783	1350.65	463.25
1030.9829	3036.1184	1360.4	474.75
1031.0934	3037.1578	1355.05	470.25
1031.2038	3038.1966	1365.25	479.1
1031.3142	3039.2348	1360.8	478.5
1031.4246	3040.2723	1364.45	472.25
1031.5349	3041.3092	1355	471.85
1031.6452	3042.3455	1349.45	465.85
1031.7554	3043.3811	1350.85	467.25
1031.8656	3044.4161	1344	461
1031.9758	3045.4505	1339.15	454.55
1032.0859	3046.4842	1339.5	455.7
1032.1959	3047.5173	1328	444.35
1032.3059	3048.5498	1325.35	441.1
1032.4159	3049.5816	1328.25	444.6
1032.5258	3050.6128	1314.45	427.75
1032.6357	3051.6434	1305.4	419.25
1032.7455	3052.6734	1300.85	416.25
1032.8553	3053.7027	1291.05	406.2
1032.9651	3054.7314	1288.25	404.25
1033.0748	3055.7594	1276.5	391.85
1033.1845	3056.7868	1275.95	390.8
1033.2941	3057.8136	1274.1	390.9
1033.4037	3058.8398	1259.55	376.4
1033.5132	3059.8653	1257.85	375.35
1033.6227	3060.8902	1251.4	367.15
1033.7321	3061.9145	1245.75	359.8
1033.8415	3062.9381	1238.25	355.35
1033.9509	3063.9612	1250.15	348.8
1034.0602	3064.9835	1231.95	347.55
1034.1694	3066.0053	1224.1	339.8
1034.2787	3067.0264	1218.05	334.15
1034.3878	3068.0469	1214	328.35
1034.497	3069.0668	1207.5	321
1034.6061	3070.086	1192.75	310.45
1034.7151	3071.1046	1184.55	298.1
1034.8241	3072.1226	1180.75	296.3
1034.9331	3073.1399	1165.45	282.25
1035.042	3074.1567	1157.05	273.25
1035.1508	3075.1727	1150.4	263.1
1035.2597	3076.1882	1139.6	254.6
1035.3684	3077.203	1129.4	243.8
1035.4772	3078.2173	1120.9	237.15
1035.5859	3079.2308	1117.85	232.1
1035.6945	3080.2438	1106.55	220
1035.8031	3081.2561	1094.8	213.5
1035.9117	3082.2678	1093.1	209.8
1036.0202	3083.2789	1083.1	200.75
1036.1286	3084.2893	1077.45	195.2
1036.2371	3085.2991	1074.45	189.15
1036.3454	3086.3083	1072.35	182
1036.4538	3087.3169	1067.7	183.65
1036.562	3088.3248	1062.9	179.05
1036.6703	3089.3321	1052.95	166.6
1036.7785	3090.3388	1044.15	162.4
1036.8866	3091.3449	1046.9	160.7
1036.9948	3092.3503	1046.4	160.9
1037.1028	3093.3551	1036.3	155.3
1037.2108	3094.3593	1035.25	152.4
1037.3188	3095.3629	1029.1	146.05
1037.4267	3096.3658	1031.6	146.45
1037.5346	3097.3681	1024.2	140.65
1037.6425	3098.3698	1025.65	140.3
1037.7503	3099.3708	1022.35	139.95
1037.858	3100.3713	1019.85	137.75
1037.9657	3101.3711	1021.55	138.5
1038.0734	3102.3702	1136.6	138.3
1038.181	3103.3688	1015.7	128.6
1038.2886	3104.3667	1008.15	125.2
1038.3961	3105.364	1010.25	125.9
1038.5036	3106.3607	1014.3	131.7
1038.611	3107.3568	1008.8	125.1
1038.7184	3108.3522	1006.85	124.3
1038.8257	3109.347	1005.9	119.95
1038.933	3110.3412	1009.55	122.15
1039.0403	3111.3348	1003.35	118.8
1039.1475	3112.3277	1000.6	118.3
1039.2547	3113.32	1000.4	115.95
1039.3618	3114.3117	1000.75	119.35
1039.4689	3115.3028	999.9	116.45
1039.5759	3116.2932	997.25	111.95
1039.6829	3117.2831	1002.85	113.25
1039.7898	3118.2723	991.65	108.2
1039.8967	3119.2608	991.5	107.85
1040.0035	3120.2488	992	107
1040.1103	3121.2361	989.95	107.05
1040.2171	3122.2229	990.2	104.85
1040.3238	3123.209	988.85	104.3
1040.4305	3124.1944	990.35	108.35
1040.5371	3125.1793	990.6	104.05
1040.6437	3126.1635	986.05	102.6
1040.7502	3127.1471	987	106.15
1040.8567	3128.1301	982.65	98.2
1040.9631	3129.1125	980.8	98.65
1041.0695	3130.0942	980.2	96.1
1041.1759	3131.0753	990.7	98.9
1041.2822	3132.0558	982	95.75
1041.3884	3133.0357	981.35	97.85
1041.4946	3134.015	979.5	96
1041.6008	3134.9936	980	93.45
1041.7069	3135.9716	996.25	90.65
1041.813	3136.949	976	92.8
1041.919	3137.9258	992	90.65
1042.025	3138.902	981.3	92.4
1042.1309	3139.8775	971.25	88.2
1042.2368	3140.8524	970.2	86.8
1042.3427	3141.8267	974.65	88.25
1042.4485	3142.8004	972.2	88.5
1042.5542	3143.7735	975.1	85.8
1042.6599	3144.7459	972	86.3
1042.7656	3145.7178	969.75	88.6
1042.8712	3146.689	966.7	84.95
1042.9768	3147.6596	969	84
1043.0823	3148.6295	966.3	81.8
1043.1878	3149.5989	966.1	83.3
1043.2932	3150.5676	961.05	78.85
1043.3986	3151.5357	962.3	80.2
1043.5039	3152.5032	959.6	75.35
1043.6092	3153.4701	960.55	75.2
1043.7145	3154.4364	962.9	78.1
1043.8197	3155.402	962.75	81.8
1043.9248	3156.367	961.45	75.8
1044.03	3157.3315	1003.55	78.6
1044.135	3158.2952	958.2	75.25
1044.24	3159.2584	955.1	72.05
1044.345	3160.221	955.6	72.65
1044.4499	3161.1829	953.45	70.7
1044.5548	3162.1442	955.75	72.15
1044.6596	3163.105	953.85	70.85
1044.7644	3164.065	956.4	72
1044.8692	3165.0245	955.35	69.7
1044.9739	3165.9834	951.6	69.35
1045.0785	3166.9416	952.1	68.45
1045.1831	3167.8993	952.05	66.65
1045.2877	3168.8563	952.2	67.95
1045.3922	3169.8127	948.9	66.8
1045.4966	3170.7684	950.65	67.85
1045.6011	3171.7236	951.2	66.3
1045.7054	3172.6782	948.45	66.7
1045.8098	3173.6321	953	69.75
1045.914	3174.5854	954.15	68.2
1046.0183	3175.5381	950.5	67.5
1046.1224	3176.4902	946.5	63.05
1046.2266	3177.4417	945.35	63.25
1046.3307	3178.3926	945.15	63.75
1046.4347	3179.3428	944.65	66.25
1046.5387	3180.2924	944.7	61.05
1046.6427	3181.2415	945	63.25
1046.7466	3182.1899	946.85	61.75
1046.8504	3183.1377	945.45	63.7
1046.9542	3184.0848	947.5	62.1
1047.058	3185.0314	944	58.35
1047.1617	3185.9773	942.45	57.9
1047.2654	3186.9227	944.5	59.55
1047.369	3187.8674	943.7	61.75
1047.4726	3188.8115	948.2	60.35
1047.5761	3189.755	943.15	60.6
1047.6796	3190.6979	942.8	59.05
1047.783	3191.6402	940.25	59.75
1047.8864	3192.5818	939.15	57.65
1047.9898	3193.5229	962.05	61
1048.0931	3194.4633	939.4	57.25
1048.1963	3195.4031	938.25	55
1048.2995	3196.3423	940.2	58.25
1048.4027	3197.2809	943.4	60.65
1048.5058	3198.2189	937.3	52.8
1048.6089	3199.1563	954.45	53.8
1048.7119	3200.0931	937.9	56.6
1048.8148	3201.0292	936.75	56.65
1048.9178	3201.9648	938.4	53.8
1049.0206	3202.8997	939.95	53.1
1049.1235	3203.834	938.25	54.15
1049.2262	3204.7677	937.4	55.3
1049.329	3205.7008	937.65	53.95
1049.4317	3206.6333	936.35	56.45
1049.5343	3207.5652	936.65	53.05
1049.6369	3208.4964	935.15	54.05
1049.7394	3209.4271	931.95	50.7
1049.8419	3210.3571	932.55	51.35
1049.9444	3211.2865	936.65	54.25
1050.0468	3212.2154	935.2	52.5
1050.1491	3213.1436	937.5	53.8
1050.2514	3214.0712	941.9	52.4
1050.3537	3214.9982	932.8	49.9
1050.4559	3215.9246	931.9	49.9
1050.5581	3216.8503	931.4	49.8
1050.6602	3217.7755	933.4	50.1
1050.7623	3218.7001	931.55	50.8
1050.8643	3219.624	933.95	50.25
1050.9663	3220.5473	934.15	50.45
1051.0682	3221.4701	934.35	50.1
1051.1701	3222.3922	933.25	49.4
1051.2719	3223.3137	931.05	48.45
1051.3737	3224.2346	932.25	48.5
1051.4754	3225.1549	928.75	46.45
1051.5771	3226.0746	932.3	50.7
1051.6788	3226.9937	929.45	46.75
1051.7804	3227.9121	927.6	47
1051.8819	3228.83	930.65	47.45
1051.9834	3229.7473	932.05	49.55
1052.0849	3230.6639	929.35	47.2
1052.1863	3231.5799	930.05	48.6
1052.2876	3232.4954	928.4	44
1052.3889	3233.4102	923.5	41
1052.4902	3234.3244	928.35	44.7
1052.5914	3235.238	925.9	42.25
1052.6926	3236.151	954	46.55
1052.7937	3237.0634	926.85	46.35
1052.8948	3237.9752	925.75	42.35
1052.9958	3238.8864	928.65	47
1053.0968	3239.797	926.7	45.3
1053.1977	3240.7069	925.55	44.15
1053.2986	3241.6163	928.1	44
1053.3994	3242.5251	923.05	40.5
1053.5002	3243.4332	923.9	41.15
1053.6009	3244.3408	925.95	45.45
1053.7016	3245.2477	922.7	42.3
1053.8022	3246.154	925.85	42.85
1053.9028	3247.0598	924.45	40.25
1054.0034	3247.9649	922.35	41.05
1054.1039	3248.8694	922.7	40.45
1054.2043	3249.7733	921.8	39.95
1054.3047	3250.6766	924.85	41.2
1054.4051	3251.5793	921.9	38.95
1054.5054	3252.4814	922.4	41.35
1054.6056	3253.3829	921.15	39.4
1054.7058	3254.2838	918.15	37
1054.806	3255.1841	924.05	42.8
1054.9061	3256.0838	918.85	37.8
1055.0061	3256.9829	919.15	38.6
1055.1062	3257.8814	921.05	39.4
1055.2061	3258.7792	922	36.9
1055.306	3259.6765	917.75	37.5
1055.4059	3260.5731	916.75	34.55
1055.5057	3261.4692	915.75	33.45
1055.6055	3262.3647	919.1	36.4
1055.7052	3263.2595	915.5	34.3
1055.8049	3264.1538	915.2	34.75
1055.9045	3265.0474	916.85	33.7
1056.0041	3265.9404	914.6	34.15
1056.1036	3266.8329	911.75	31.65
1056.2031	3267.7247	923.1	33.25
1056.3025	3268.616	911.9	31.35
1056.4019	3269.5066	912	29.25
1056.5013	3270.3966	912.25	27.55
1056.6005	3271.286	907.75	29.35
