Software Version:	3.9.2.0
Unit SN:	10000200
Spectrometer SN:	6960
Date:	3/14/2024 1:41:49 PM
Data Line Index:	25
Spectral Points:	2048
Integration time (ms):	125
Averages:	20
Delay (ms):	30000
Sequence Number:	1
Processing:	dark subtract
Laser Power (mW):	305
Laser Current (mA):	824
Laser Diode Temp (C):	25.1
Laser Case Temp (C):	28.7
System Temp (C):	28.8
Spectrometer Temp (C):	26.6
CCD Temp (C):	0.016
Secondary Temp (C):	20.01
Heatsink Temp (C):	24.683
CCDPCB Temp (C):	38.208
SecondaryPCB Temp (C):	35.784

Wavelength	RamanShift	Raw Counts	Dark Subtracted
787.061	30.1047	466.8	57.1
787.2016	32.3739	467.5	58.5
787.3422	34.6426	472.25	63.4
787.4828	36.9109	480.2	69.75
787.6235	39.1787	490.05	74.25
787.7642	41.4461	499.55	79.1
787.9049	43.7131	510.85	87.4
788.0456	45.9796	519.8	90.45
788.1863	48.2456	527.3	93.8
788.3271	50.5112	539.85	101.9
788.4679	52.7764	548.75	111.45
788.6087	55.0411	559.3	120.4
788.7496	57.3054	572.25	125.85
788.8904	59.5692	583.45	133.6
789.0313	61.8326	600.25	146.05
789.1722	64.0955	614.75	157.4
789.3132	66.3579	630.8	166.95
789.4541	68.6199	650.75	183.35
789.5951	70.8815	688.65	221.45
789.7361	73.1426	774.1	301.9
789.8771	75.4032	989.05	510
790.0181	77.6634	1528.25	1044.15
790.1592	79.9231	2796.05	2305.65
790.3003	82.1824	5593.4	5094.4
790.4414	84.4412	10746.8	10230.25
790.5825	86.6995	17990.9	17449.05
790.7237	88.9574	25183.55	24620
790.8648	91.2148	30296.75	29718.4
791.006	93.4717	32685	32094.05
791.1472	95.7282	33278.05	32682.55
791.2885	97.9842	33225.45	32627.7
791.4297	100.2398	32621.9	32020.5
791.571	102.4949	31955.65	31354.7
791.7123	104.7495	31162.2	30555.7
791.8536	107.0036	30310.8	29704.85
791.9949	109.2573	29532.75	28925.75
792.1363	111.5105	28780.65	28174.2
792.2777	113.7632	28083.9	27474.15
792.4191	116.0154	27444	26820.45
792.5605	118.2672	27059.75	26444.9
792.7019	120.5185	26623.7	26008.55
792.8434	122.7693	26309.65	25692.8
792.9849	125.0197	26018.65	25395.65
793.1264	127.2696	25694.7	25070.65
793.2679	129.519	25579	24955.8
793.4094	131.7679	25295	24668.15
793.551	134.0163	25104.25	24469.7
793.6926	136.2642	24852.1	24217.35
793.8342	138.5117	24594.25	23947.85
793.9758	140.7587	24269.75	23627.8
794.1175	143.0052	23989.35	23345.55
794.2591	145.2512	23738.4	23095.05
794.4008	147.4967	23445.05	22804.4
794.5425	149.7417	23265.9	22618.65
794.6842	151.9863	23096.2	22448.1
794.826	154.2304	23016.65	22361.65
794.9677	156.4739	22848.25	22190.35
795.1095	158.717	22781.05	22126.95
795.2513	160.9596	22585.15	21923.2
795.3931	163.2017	22319.8	21656.3
795.535	165.4433	22031.5	21365.65
795.6768	167.6844	21651.25	20983.75
795.8187	169.925	21347.75	20676.95
795.9606	172.1651	20948.35	20277
796.1025	174.4047	20673.95	19997.75
796.2445	176.6439	20371.95	19695.35
796.3864	178.8825	20135.05	19454.7
796.5284	181.1206	19979.3	19294.15
796.6704	183.3582	19808.95	19121.05
796.8124	185.5954	19704.4	19015.3
796.9544	187.832	19599.05	18904.9
797.0965	190.0681	19580.4	18882.55
797.2386	192.3037	19553.35	18855.75
797.3806	194.5388	19541.55	18840.15
797.5228	196.7734	19563.35	18861.5
797.6649	199.0075	19608.05	18899.65
797.807	201.2411	19787.7	19078.3
797.9492	203.4742	19817.9	19108.95
798.0914	205.7068	19969.5	19255.6
798.2336	207.9389	20081.65	19369.55
798.3758	210.1704	20229.55	19516.55
798.518	212.4015	20362.5	19645.9
798.6603	214.632	20485.25	19766.35
798.8025	216.862	20635.35	19922.35
798.9448	219.0915	20756.3	20052.2
799.0871	221.3205	20934.55	20230.15
799.2294	223.549	21115.25	20418.05
799.3718	225.777	21345.3	20649.3
799.5141	228.0044	21582.65	20883.85
799.6565	230.2314	21960.8	21266.15
799.7989	232.4578	22228.3	21531.8
799.9413	234.6837	22495.15	21791.45
800.0837	236.909	22662.6	21958.7
800.2262	239.1339	22657.15	21929.95
800.3687	241.3582	22490.05	21777.3
800.5111	243.582	22227.95	21490.6
800.6536	245.8053	21999.85	21266.7
800.7961	248.0281	21773.45	21049.3
800.9387	250.2503	21600.95	20867.8
801.0812	252.472	21517.25	20780.95
801.2238	254.6932	21528.4	20786.7
801.3664	256.9139	21538.6	20799.5
801.509	259.134	21593.25	20849.3
801.6516	261.3536	21687.25	20944.45
801.7942	263.5727	21820.15	21075.05
801.9369	265.7912	21903.05	21160
802.0795	268.0092	22053.05	21312.35
802.2222	270.2267	22090.75	21345.75
802.3649	272.4436	22093.75	21348
802.5076	274.6601	22035.9	21281.4
802.6504	276.8759	21922.4	21176.45
802.7931	279.0913	21865	21113.1
802.9359	281.3061	21737.4	20987.45
803.0787	283.5204	21730.35	20977.6
803.2215	285.7341	21750.2	20990.65
803.3643	287.9473	21843.45	21069.9
803.5071	290.16	22003.7	21237.9
803.6499	292.3721	22255.4	21494.65
803.7928	294.5837	22590.7	21831.25
803.9357	296.7947	22851.95	22091.05
804.0786	299.0052	23067.75	22309.7
804.2215	301.2152	22935.25	22173.4
804.3644	303.4246	22596	21836.5
804.5074	305.6334	22104.75	21343.95
804.6503	307.8418	21604.4	20843
804.7933	310.0495	21152.75	20391.5
804.9363	312.2568	20766.15	20004.15
805.0793	314.4635	20458.9	19693.5
805.2223	316.6696	20239.6	19472.85
805.3653	318.8752	20114.1	19340.25
805.5084	321.0802	20129.1	19360.2
805.6514	323.2847	20191.8	19426.4
805.7945	325.4887	20217.35	19450
805.9376	327.692	20140.8	19370.9
806.0807	329.8949	20086.3	19314.9
806.2238	332.0972	19837.15	19063.45
806.367	334.2989	19572.6	18797.75
806.5101	336.5001	19317.85	18541.7
806.6533	338.7007	19087.6	18312.75
806.7965	340.9008	18939.85	18162.35
806.9397	343.1003	18778.6	17997.75
807.0829	345.2992	18673.1	17892.1
807.2261	347.4976	18629.5	17847.4
807.3693	349.6955	18567.45	17783.55
807.5126	351.8927	18624.1	17840.2
807.6559	354.0895	18553.15	17757.9
807.7991	356.2856	18566.35	17778.35
807.9424	358.4812	18491.05	17702.2
808.0857	360.6763	18544.1	17758.05
808.2291	362.8707	18451.7	17664.9
808.3724	365.0646	18524	17736.6
808.5158	367.258	18542.7	17751.65
808.6591	369.4508	18567.45	17773.3
808.8025	371.643	18656.9	17861.05
808.9459	373.8346	18630.35	17826.9
809.0893	376.0257	18654.5	17850.45
809.2327	378.2162	18576.45	17774.45
809.3762	380.4062	18502.2	17697.3
809.5196	382.5956	18325.8	17521.75
809.6631	384.7844	18214.7	17409.95
809.8066	386.9726	18076.7	17269.1
809.9501	389.1603	18001.65	17194.55
810.0936	391.3474	17949.55	17111.85
810.2371	393.5339	17858.75	17054.65
810.3806	395.7199	17805.75	17006.3
810.5241	397.9052	17854.1	17054.9
810.6677	400.09	17862	17063.65
810.8113	402.2743	17934.75	17135.9
810.9548	404.4579	18035.05	17240.3
811.0984	406.641	18186.85	17389.6
811.2421	408.8235	18393.55	17597.3
811.3857	411.0054	18625.5	17827.8
811.5293	413.1868	18990.65	18192.6
811.673	415.3675	19192.2	18389.15
811.8166	417.5477	19303.65	18500.6
811.9603	419.7273	19341.3	18533.15
812.104	421.9064	19224.85	18414.2
812.2477	424.0848	19080.6	18270.1
812.3914	426.2627	18861.75	18050.2
812.5351	428.4399	18597.35	17784.7
812.6788	430.6166	18230.85	17415.1
812.8226	432.7928	17837.7	17018.9
812.9663	434.9683	17511.6	16696.45
813.1101	437.1432	17239.15	16421.15
813.2539	439.3176	17080.45	16258.25
813.3977	441.4914	16922.8	16101.45
813.5415	443.6645	16907.85	16084.8
813.6853	445.8371	16803.4	15980.25
813.8291	448.0091	16721.65	15900.45
813.973	450.1806	16697.15	15879.05
814.1168	452.3514	16610.1	15786.15
814.2607	454.5216	16606.7	15772.4
814.4046	456.6913	16529.3	15704.95
814.5485	458.8603	16573.65	15746.85
814.6924	461.0288	16647.8	15824
814.8363	463.1967	16638.95	15814.55
814.9802	465.3639	16697.15	15871
815.1241	467.5306	16726.9	15900.15
815.2681	469.6967	16794.95	15968.85
815.412	471.8622	16906.4	16081.85
815.556	474.0271	17018.3	16192.5
815.7	476.1914	17052.35	16224.65
815.844	478.3551	17012.6	16185.3
815.988	480.5182	17011.2	16181.1
816.132	482.6807	17034.25	16203
816.276	484.8426	17163.9	16334
816.4201	487.0039	17471.45	16642.7
816.5641	489.1647	17848.65	17017.85
816.7082	491.3248	18260.3	17429.55
816.8522	493.4843	18418.55	17587.85
816.9963	495.6432	18361.4	17531.7
817.1404	497.8015	18216.2	17382.05
817.2845	499.9592	18162.75	17329.8
817.4286	502.1163	18031.4	17197.35
817.5727	504.2728	17732.3	16899.7
817.7168	506.4287	17453.85	16620
817.861	508.5839	17027.5	16192.85
818.0051	510.7386	16732.95	15900.7
818.1493	512.8927	16553.6	15711.2
818.2935	515.0461	16481.6	15643.85
818.4377	517.199	16467.7	15632.45
818.5818	519.3512	16526.65	15690.7
818.726	521.5029	16680.95	15834.7
818.8703	523.6539	16781.85	15946.85
819.0145	525.8043	16841.25	16001.05
819.1587	527.9541	16833.95	15991.1
819.303	530.1033	16690.2	15849.7
819.4472	532.2519	16655.8	15816.2
819.5915	534.3999	16705.85	15863.15
819.7357	536.5472	16867.4	16025.6
819.88	538.694	17236.85	16395.95
820.0243	540.8401	17661.45	16819.25
820.1686	542.9856	18059.4	17218
820.3129	545.1305	18185.6	17342.3
820.4572	547.2748	18017.65	17173.2
820.6016	549.4185	17717.05	16874
820.7459	551.5615	17415.7	16574.1
820.8902	553.704	17309.7	16464.45
821.0346	555.8458	17262.8	16420.55
821.1789	557.987	17351.8	16510.95
821.3233	560.1276	17380.55	16535.8
821.4677	562.2675	17574	16731.5
821.6121	564.4069	17821.3	16977.4
821.7565	566.5456	17969.7	17126.45
821.9009	568.6837	17974.15	17128.5
822.0453	570.8212	17620.7	16775.55
822.1897	572.958	17138.8	16292.45
822.3342	575.0942	16634.6	15790.65
822.4786	577.2299	16331.95	15487.35
822.6231	579.3648	16208.2	15360.8
822.7675	581.4992	16218.85	15372.9
822.912	583.6329	16346	15499.5
823.0565	585.766	16626.9	15783.1
823.201	587.8985	16675.75	15828.8
823.3454	590.0304	16691.7	15818.75
823.4899	592.1616	16606	15757.8
823.6345	594.2922	16475.2	15627.85
823.779	596.4222	16259.55	15407.7
823.9235	598.5515	16075.95	15225.5
824.068	600.6802	15913.5	15064.2
824.2126	602.8083	15706.15	14856.1
824.3571	604.9358	15662.4	14813.05
824.5017	607.0626	15598.15	14748.25
824.6462	609.1888	15599.55	14747.35
824.7908	611.3144	15630.55	14779.45
824.9354	613.4393	15589.5	14738.6
825.08	615.5636	15562.8	14709.6
825.2246	617.6873	15519.9	14670.25
825.3692	619.8103	15433.25	14579.75
825.5138	621.9327	15276.85	14422.75
825.6584	624.0544	15165.3	14314.55
825.803	626.1756	15067.75	14215.7
825.9477	628.2961	14974.55	14121.35
826.0923	630.4159	14884.95	14029.3
826.237	632.5351	14831.45	13978.4
826.3816	634.6537	14779.85	13925.85
826.5263	636.7716	14751.85	13896.05
826.6709	638.8889	14721.95	13867
826.8156	641.0056	14760.15	13905.8
826.9603	643.1216	14710.7	13854.65
827.105	645.237	14720.35	13861.75
827.2497	647.3518	14669.15	13810.45
827.3944	649.4659	14620.25	13762.35
827.5391	651.5793	14578.8	13722.85
827.6838	653.6922	14556.4	13701.45
827.8285	655.8043	14524.95	13667.85
827.9733	657.9159	14509.45	13650.25
828.118	660.0268	14443.75	13583.9
828.2627	662.137	14379.55	13522.35
828.4075	664.2466	14366.8	13506.75
828.5522	666.3556	14351.8	13493.85
828.697	668.4639	14268	13404.25
828.8418	670.5716	14290.35	13431.1
828.9865	672.6786	14332.4	13474.15
829.1313	674.785	14295.65	13433.9
829.2761	676.8907	14310.35	13447.7
829.4209	678.9958	14369.85	13510.3
829.5657	681.1002	14328.75	13467.3
829.7105	683.204	14283	13417.85
829.8553	685.3072	14239.4	13377.95
830.0001	687.4097	14142.2	13282.95
830.1449	689.5115	14147.05	13284
830.2898	691.6127	14097.85	13236
830.4346	693.7132	14022	13157.35
830.5794	695.8131	13995.9	13121.2
830.7243	697.9123	13969.3	13107
830.8691	700.0109	13924.35	13060.15
831.014	702.1089	13943.25	13082.6
831.1588	704.2061	13945.25	13082.4
831.3037	706.3028	13966.1	13101.05
831.4486	708.3987	13969.85	13107.3
831.5935	710.4941	14042	13177.15
831.7383	712.5887	14179.85	13314.55
831.8832	714.6827	14353.5	13485.45
832.0281	716.7761	14640.65	13776.75
832.173	718.8688	14887.4	14021.7
832.3179	720.9608	15038.95	14170.45
832.4628	723.0522	15102.8	14233.75
832.6077	725.1429	15029.15	14162.2
832.7527	727.233	14854.25	13992.2
832.8976	729.3224	14714.7	13849.65
833.0425	731.4112	14535.55	13667.4
833.1874	733.4993	14300.3	13433.85
833.3324	735.5867	14125.25	13255.25
833.4773	737.6735	13932.15	13064.8
833.6222	739.7596	13807.95	12938.4
833.7672	741.845	13701	12831.95
833.9122	743.9298	13633.2	12766.1
834.0571	746.014	13607.75	12741.1
834.2021	748.0974	13605.95	12736.45
834.347	750.1802	13591.8	12725.25
834.492	752.2624	13595.7	12727.75
834.637	754.3439	13621.9	12752.85
834.782	756.4247	13694.6	12815.2
834.9269	758.5048	13784.7	12916.6
835.0719	760.5843	14069.4	13202.65
835.2169	762.6631	14416	13548.3
835.3619	764.7413	14905.5	14037
835.5069	766.8188	15576.95	14705.25
835.6519	768.8956	16092.45	15220.65
835.7969	770.9718	16400.85	15531.6
835.9419	773.0473	16238.55	15368.9
836.0869	775.1221	15926.8	15059.8
836.232	777.1962	15574.05	14705.65
836.377	779.2697	15388.05	14517.6
836.522	781.3426	15423.7	14543.5
836.667	783.4147	15599.6	14729.2
836.8121	785.4862	15807.35	14939
836.9571	787.557	15742.9	14872.6
837.1021	789.6271	15303.75	14431.35
837.2472	791.6966	14695.7	13826
837.3922	793.7654	14115.85	13243.8
837.5373	795.8335	13737.2	12864.75
837.6823	797.901	13459.75	12589.35
837.8274	799.9678	13340.5	12466.75
837.9724	802.0339	13285.85	12416.35
838.1175	804.0993	13298.8	12418.85
838.2626	806.1641	13250.65	12378.65
838.4076	808.2282	13148.15	12277.65
838.5527	810.2916	13066.4	12190.8
838.6978	812.3544	12981.5	12112.85
838.8428	814.4164	12864.8	11992.9
838.9879	816.4778	12887.9	12015.45
839.133	818.5385	12853.4	11981.35
839.2781	820.5986	12981.6	12109.55
839.4232	822.658	13126.2	12253.9
839.5682	824.7166	13340.25	12468.15
839.7133	826.7747	13673.35	12800.55
839.8584	828.832	13985.75	13114.2
840.0035	830.8886	14215.95	13340
840.1486	832.9446	14355.1	13479.25
840.2937	834.9999	14288.65	13417.95
840.4388	837.0545	14147.25	13270.95
840.5839	839.1085	13972.45	13098.2
840.729	841.1618	13794.1	12918.2
840.8741	843.2143	13664.2	12793.7
841.0192	845.2662	13517.2	12645.5
841.1643	847.3175	13422.1	12546.9
841.3095	849.368	13305.35	12428.9
841.4546	851.4179	13157.75	12283.8
841.5997	853.467	13056.8	12184.6
841.7448	855.5155	12945.85	12071.5
841.8899	857.5633	12827.35	11952.9
842.0351	859.6105	12703.15	11830.5
842.1802	861.6569	12615	11741.35
842.3253	863.7027	12518.75	11646
842.4704	865.7478	12494.1	11616.85
842.6156	867.7922	12471.05	11596.1
842.7607	869.8359	12442.65	11566.7
842.9058	871.8789	12533.55	11657.4
843.0509	873.9212	12656.7	11746.5
843.1961	875.9629	12772.3	11896.85
843.3412	878.0039	12913.35	12036.1
843.4863	880.0441	13023.6	12148.25
843.6315	882.0837	13044.65	12168.1
843.7766	884.1226	12974.15	12097.05
843.9218	886.1609	12906.3	12033.65
844.0669	888.1984	12903.85	12029
844.212	890.2352	12935.15	12061.25
844.3572	892.2714	12905.05	12023.8
844.5023	894.3069	12824.65	11947.15
844.6475	896.3416	12698.7	11823.15
844.7926	898.3757	12592.25	11717.2
844.9377	900.4091	12548.65	11669.2
845.0829	902.4418	12542.05	11662.4
845.228	904.4739	12557.55	11680
845.3732	906.5052	12543.95	11669
845.5183	908.5358	12491.6	11618.15
845.6635	910.5658	12348.75	11469.05
845.8086	912.595	12126.15	11247.85
845.9538	914.6236	11926.65	11049.85
846.0989	916.6515	11838.5	10962.95
846.2441	918.6786	11804.65	10925.6
846.3892	920.7051	11777.65	10898.75
846.5344	922.7309	11863.05	10988.15
846.6795	924.756	11895.45	11017.05
846.8246	926.7804	11961.3	11082.15
846.9698	928.8041	11944.95	11065.5
847.1149	930.8272	11993.45	11115.15
847.2601	932.8495	11930.45	11053
847.4052	934.8711	11881.95	11002.3
847.5504	936.892	11756.7	10879.8
847.6955	938.9123	11674	10795.1
847.8407	940.9318	11575.2	10697.7
847.9858	942.9506	11489.35	10611.1
848.131	944.9688	11411.75	10529.75
848.2761	946.9862	11314.3	10434.2
848.4213	949.003	11235.5	10357
848.5664	951.019	11160.4	10280.3
848.7115	953.0344	11149	10269.85
848.8567	955.0491	11139	10256.9
849.0018	957.063	11188.05	10309
849.147	959.0763	11271.65	10393.15
849.2921	961.0888	11279.85	10398.2
849.4373	963.1007	11343.4	10462.7
849.5824	965.1119	11403.5	10523.7
849.7275	967.1223	11401.6	10520.95
849.8727	969.1321	11419.1	10540.6
850.0178	971.1412	11396.15	10517.1
850.1629	973.1495	11377.4	10499.2
850.3081	975.1572	11420.6	10509
850.4532	977.1641	11424.45	10544.35
850.5983	979.1704	11372	10491
850.7435	981.1759	11387.8	10505.6
850.8886	983.1808	11397.75	10517.1
851.0337	985.1849	11458.75	10569.45
851.1788	987.1884	11538.95	10659
851.324	989.1911	11658.45	10778.5
851.4691	991.1932	11775.25	10891.6
851.6142	993.1945	11827.3	10947.1
851.7593	995.1951	11742.9	10861.15
851.9045	997.1951	11717.85	10832.45
852.0496	999.1943	11654.65	10776.25
852.1947	1001.1928	11616.3	10737.8
852.3398	1003.1906	11640	10759.8
852.4849	1005.1877	11687.8	10806.2
852.63	1007.1841	11686.15	10806.55
852.7751	1009.1798	11647.8	10768.1
852.9202	1011.1748	11522.8	10641.1
853.0653	1013.1691	11316.95	10435.55
853.2104	1015.1627	11112.8	10230.85
853.3555	1017.1556	10861.55	9980.3
853.5006	1019.1477	10758.45	9876.05
853.6457	1021.1392	10645.55	9765.95
853.7908	1023.1299	10615.8	9732.05
853.9359	1025.12	10657.2	9773.9
854.081	1027.1093	10687.4	9807.7
854.2261	1029.0979	10772.1	9893.1
854.3712	1031.0859	10885.4	10006.4
854.5163	1033.0731	10886.05	10005.55
854.6613	1035.0596	10780.2	9900.75
854.8064	1037.0454	10635.15	9754.25
854.9515	1039.0304	10545.7	9662.55
855.0965	1041.0148	10400.3	9519
855.2416	1042.9985	10300.45	9418.3
855.3867	1044.9814	10252.85	9372.7
855.5317	1046.9636	10172.5	9288.5
855.6768	1048.9452	10172	9293.85
855.8219	1050.926	10141.25	9262.5
855.9669	1052.9061	10136.35	9259.4
856.112	1054.8855	10146.65	9265.6
856.257	1056.8642	10189.15	9307.75
856.4021	1058.8421	10229.5	9346.2
856.5471	1060.8194	10276.7	9394
856.6921	1062.7959	10289.4	9408.1
856.8372	1064.7717	10342.8	9459.15
856.9822	1066.7469	10386.5	9502.65
857.1272	1068.7213	10388.4	9505.05
857.2723	1070.695	10404	9522.75
857.4173	1072.6679	10381.9	9498.75
857.5623	1074.6402	10362.05	9480.6
857.7073	1076.6117	10318.65	9431.95
857.8523	1078.5826	10259	9377.15
857.9973	1080.5527	10182.85	9299.2
858.1423	1082.5221	10206.85	9326
858.2873	1084.4908	10291.05	9410.15
858.4323	1086.4587	10433.15	9548.65
858.5773	1088.426	10525.1	9642.1
858.7223	1090.3925	10516.3	9628.2
858.8673	1092.3584	10486.05	9603.45
859.0123	1094.3235	10410.95	9531.55
859.1573	1096.2879	10374.25	9491.95
859.3022	1098.2515	10419.05	9538.3
859.4472	1100.2145	10520.15	9640.8
859.5922	1102.1767	10635.6	9749.2
859.7371	1104.1382	10838.4	9956.45
859.8821	1106.099	11062.25	10175.95
860.027	1108.0591	11286.45	10404.05
860.172	1110.0185	11442.55	10557.45
860.3169	1111.9771	11449.35	10567.8
860.4619	1113.9351	11319	10436.05
860.6068	1115.8923	11073.15	10189.55
860.7517	1117.8488	10835.4	9951.4
860.8967	1119.8045	10568.3	9686.95
861.0416	1121.7596	10441.45	9558.55
861.1865	1123.7139	10339	9456.4
861.3314	1125.6675	10361	9477.7
861.4763	1127.6204	10366.2	9483.85
861.6212	1129.5726	10334.8	9449.7
861.7661	1131.524	10290	9409.4
861.911	1133.4748	10184.8	9303.15
862.0559	1135.4248	10084.85	9201.5
862.2008	1137.3741	10018.05	9137.45
862.3457	1139.3226	9940.05	9054.6
862.4905	1141.2705	9888.35	9008.1
862.6354	1143.2176	9786.75	8898.35
862.7803	1145.164	9754.3	8871.05
862.9251	1147.1097	9716.3	8832.35
863.07	1149.0546	9667.05	8782.9
863.2148	1150.9989	9577.15	8694.65
863.3597	1152.9424	9448.05	8565.35
863.5045	1154.8852	9311.6	8429.6
863.6493	1156.8272	9199.5	8319.85
863.7942	1158.7686	9200.75	8312.6
863.939	1160.7092	9176.75	8293.85
864.0838	1162.6491	9198.65	8312.25
864.2286	1164.5883	9258.5	8376.7
864.3734	1166.5267	9367	8480.6
864.5182	1168.4644	9488.35	8603.4
864.663	1170.4014	9715.1	8829.45
864.8078	1172.3377	9925.05	9045.9
864.9526	1174.2732	10177.35	9294.45
865.0974	1176.2081	10503.45	9619.6
865.2421	1178.1421	10853.35	9969.45
865.3869	1180.0755	11247.3	10366.55
865.5317	1182.0082	11420.4	10539.25
865.6764	1183.9401	11507.7	10623.3
865.8212	1185.8713	11377.95	10494.8
865.9659	1187.8017	11127.7	10247.5
866.1106	1189.7315	10813.8	9930.6
866.2554	1191.6605	10490.8	9577.25
866.4001	1193.5888	10244.25	9360.9
866.5448	1195.5163	10069	9185.95
866.6895	1197.4432	9990.05	9107
866.8342	1199.3693	9946.85	9065.1
866.9789	1201.2947	9921.8	9032.45
867.1236	1203.2193	9897.85	9015
867.2683	1205.1432	9897.55	9015.85
867.413	1207.0664	9897.35	9013.15
867.5576	1208.9889	9928.85	9041.45
867.7023	1210.9106	9913.75	9032.25
867.847	1212.8316	9920.45	9035.9
867.9916	1214.7519	9960.2	9065.95
868.1363	1216.6715	9982.6	9098.65
868.2809	1218.5903	10001.5	9120.15
868.4255	1220.5084	10016.1	9133.25
868.5701	1222.4257	10086.75	9201.9
868.7148	1224.3424	10080.5	9197.35
868.8594	1226.2583	10154.1	9268.6
869.004	1228.1735	10229.9	9345.1
869.1486	1230.0879	10377.7	9493.25
869.2932	1232.0016	10509.35	9628.55
869.4377	1233.9146	10529.25	9644.5
869.5823	1235.8269	10491.8	9608.3
869.7269	1237.7384	10380.7	9497.9
869.8715	1239.6492	10212.1	9328.35
870.016	1241.5592	10129.55	9244.85
870.1606	1243.4686	10073.05	9187
870.3051	1245.3772	10142	9257.75
870.4496	1247.285	10186.65	9301.7
870.5941	1249.1922	10248.05	9363.75
870.7387	1251.0986	10284.45	9401.7
870.8832	1253.0042	10285.75	9402.45
871.0277	1254.9092	10347.65	9461.85
871.1722	1256.8134	10421.55	9538.75
871.3167	1258.7169	10577.6	9694
871.4611	1260.6196	10744.9	9864.5
871.6056	1262.5216	10972.5	10088.6
871.7501	1264.4229	11160.95	10277.8
871.8945	1266.3234	11307.75	10424.1
872.039	1268.2232	11428.4	10543.45
872.1834	1270.1223	11430.9	10544.8
872.3278	1272.0207	11439	10554.05
872.4723	1273.9183	11407.35	10518.3
872.6167	1275.8151	11308.9	10426.05
872.7611	1277.7113	11300.9	10412.9
872.9055	1279.6067	11258.7	10374.75
873.0499	1281.5014	11271.6	10386.65
873.1943	1283.3953	11398.55	10511.75
873.3386	1285.2885	11608.4	10725.65
873.483	1287.181	11823.45	10939.95
873.6274	1289.0727	12061.55	11180.45
873.7717	1290.9637	12244.65	11360.45
873.9161	1292.854	12383.95	11498.75
874.0604	1294.7435	12460.75	11574.3
874.2047	1296.6323	12494.25	11607.25
874.349	1298.5204	12525.75	11637.6
874.4933	1300.4077	12555.9	11669.2
874.6376	1302.2943	12530.05	11646.25
874.7819	1304.1802	12438.45	11555.45
874.9262	1306.0653	12192.3	11306.6
875.0705	1307.9497	11883.25	10997.5
875.2147	1309.8333	11605.05	10721.15
875.359	1311.7162	11420.2	10535.05
875.5032	1313.5984	11367.2	10481.1
875.6475	1315.4798	11365.25	10464.2
875.7917	1317.3605	11395.3	10493.65
875.9359	1319.2405	11377.05	10489.9
876.0801	1321.1197	11271.2	10384.5
876.2243	1322.9982	11066.9	10179.55
876.3685	1324.876	10933.15	10047.75
876.5127	1326.753	10769.35	9885.6
876.6569	1328.6293	10674.35	9790.2
876.801	1330.5048	10628.75	9744.85
876.9452	1332.3796	10533.1	9650.5
877.0893	1334.2537	10478.3	9564.75
877.2335	1336.127	10413.25	9529.25
877.3776	1337.9996	10369.15	9485.05
877.5217	1339.8714	10380.6	9495.55
877.6658	1341.7426	10412.3	9484
877.8099	1343.6129	10380.5	9495.5
877.954	1345.4826	10319.7	9433.4
878.0981	1347.3515	10347	9460.3
878.2422	1349.2196	10286.75	9400.7
878.3862	1351.087	10321.45	9435.95
878.5303	1352.9537	10381.65	9494.7
878.6743	1354.8197	10497.1	9613
878.8184	1356.6849	10658.55	9773.35
878.9624	1358.5493	10788.7	9902.7
879.1064	1360.4131	10908.35	10022.05
879.2504	1362.276	10942.7	10059.6
879.3944	1364.1383	10892.25	10006.85
879.5384	1365.9998	10661.45	9770.3
879.6823	1367.8606	10330.5	9443.9
879.8263	1369.7206	9977.7	9091.45
879.9702	1371.5799	9681.3	8795.55
880.1142	1373.4384	9443.1	8558.3
880.2581	1375.2962	9234.3	8347.45
880.402	1377.1533	8949.9	8065.2
880.5459	1379.0096	8614.3	7728.45
880.6898	1380.8652	8340.3	7456.05
880.8337	1382.7201	8031	7143.7
880.9776	1384.5742	7805.5	6920.25
881.1215	1386.4275	7630.1	6744.15
881.2653	1388.2802	7468.35	6585.75
881.4092	1390.132	7351.5	6467.15
881.553	1391.9832	7315.85	6431.5
881.6968	1393.8336	7222.4	6336.35
881.8406	1395.6832	7198.35	6312.7
881.9844	1397.5322	7157.7	6273.45
882.1282	1399.3803	7156.85	6265.9
882.272	1401.2278	7106.45	6220.5
882.4158	1403.0745	7100	6212.65
882.5595	1404.9204	7076.35	6191.45
882.7033	1406.7656	7107.4	6220.5
882.847	1408.6101	7121.4	6235.55
882.9908	1410.4538	7167.1	6281.4
883.1345	1412.2968	7215.9	6330.5
883.2782	1414.139	7279.55	6395
883.4219	1415.9805	7331.2	6445.45
883.5656	1417.8213	7442.2	6550
883.7092	1419.6613	7553.8	6667
883.8529	1421.5006	7719.9	6832.7
883.9965	1423.3391	7944.45	7057.85
884.1402	1425.1769	8240.6	7355.5
884.2838	1427.0139	8712.65	7825.25
884.4274	1428.8502	9275	8389.25
884.571	1430.6858	9825	8941
884.7146	1432.5206	10244.35	9359.7
884.8582	1434.3547	10489.85	9603.4
885.0018	1436.188	10536.45	9652.8
885.1453	1438.0206	10439.6	9553.45
885.2889	1439.8524	10248.85	9362.95
885.4324	1441.6835	10143.45	9256.05
885.5759	1443.5139	10057.05	9167.85
885.7194	1445.3435	9955.2	9067.65
885.8629	1447.1724	9900.6	9013.9
886.0064	1449.0005	9885.55	9000.35
886.1499	1450.8279	9760.55	8874.55
886.2933	1452.6545	9768.85	8883.8
886.4368	1454.4804	9805.1	8921.4
886.5802	1456.3056	9794.05	8902.4
886.7237	1458.13	9684.65	8799.75
886.8671	1459.9536	9489	8603.15
887.0105	1461.7766	9184.1	8298.95
887.1539	1463.5987	8814	7929
887.2972	1465.4202	8481.45	7597.8
887.4406	1467.2409	8121.8	7237.4
887.584	1469.0608	7821.3	6937.5
887.7273	1470.88	7556.3	6668.55
887.8706	1472.6984	7333.05	6447.25
888.0139	1474.5161	7126.45	6237.6
888.1572	1476.3331	6993.75	6109.2
888.3005	1478.1493	6851.7	5966.4
888.4438	1479.9648	6755.95	5872.35
888.5871	1481.7795	6670.8	5785.4
888.7303	1483.5935	6589.95	5705.95
888.8736	1485.4067	6533.3	5648.95
889.0168	1487.2192	6504.3	5616.85
889.16	1489.031	6443.85	5555.85
889.3032	1490.842	6390.8	5505.9
889.4464	1492.6522	6362.85	5478.6
889.5896	1494.4618	6310.5	5423
889.7327	1496.2705	6309.9	5423.35
889.8759	1498.0785	6257.3	5369.5
890.019	1499.8858	6225.95	5339.25
890.1622	1501.6924	6187.05	5302.45
890.3053	1503.4981	6162.85	5278.6
890.4484	1505.3032	6142.9	5258.35
890.5914	1507.1075	6102.95	5218.4
890.7345	1508.911	6061.3	5174.8
890.8776	1510.7138	6039.5	5153.35
891.0206	1512.5159	5973.35	5087.1
891.1637	1514.3172	5930.95	5046.7
891.3067	1516.1178	5911.15	5029.9
891.4497	1517.9176	5912.45	5024.55
891.5927	1519.7166	5857.4	4974.85
891.7357	1521.515	5814.3	4922.65
891.8786	1523.3126	5803.4	4918.15
892.0216	1525.1094	5786.95	4901.65
892.1645	1526.9055	5756.75	4872.25
892.3074	1528.7008	5739.15	4853.3
892.4503	1530.4954	5706.9	4822.6
892.5932	1532.2893	5707.25	4823
892.7361	1534.0824	5670.9	4780.4
892.879	1535.8747	5683.85	4799.45
893.0218	1537.6663	5663.7	4777.95
893.1647	1539.4572	5661.95	4774.8
893.3075	1541.2473	5651.6	4766.8
893.4503	1543.0367	5654	4771.45
893.5931	1544.8253	5652.05	4761.7
893.7359	1546.6132	5668.25	4782.1
893.8787	1548.4003	5688.4	4793.55
894.0214	1550.1867	5724.35	4831.2
894.1642	1551.9723	5764.9	4872.7
894.3069	1553.7572	5820.3	4932
894.4496	1555.5414	5882.75	4996
894.5923	1557.3247	5972.55	5088.35
894.735	1559.1074	6080.45	5197.6
894.8777	1560.8893	6206.8	5322.7
895.0204	1562.6705	6312.4	5428.85
895.163	1564.4509	6434.85	5549.5
895.3056	1566.2305	6500.65	5615.85
895.4482	1568.0094	6552.85	5666.25
895.5908	1569.7876	6570.55	5686
895.7334	1571.565	6562.4	5677.5
895.876	1573.3417	6564.7	5679.15
896.0186	1575.1176	6561.95	5679.1
896.1611	1576.8928	6545.5	5661.7
896.3036	1578.6672	6478.2	5596.2
896.4461	1580.4409	6438.85	5552.8
896.5886	1582.2138	6374.25	5486.8
896.7311	1583.986	6348.25	5461.95
896.8736	1585.7575	6331.75	5447
897.0161	1587.5282	6327.5	5444.55
897.1585	1589.2981	6372.35	5487.4
897.3009	1591.0673	6353.7	5470.15
897.4433	1592.8358	6420.4	5535.45
897.5857	1594.6035	6461.7	5575.35
897.7281	1596.3704	6506.75	5622.9
897.8705	1598.1366	6583.9	5698.65
898.0128	1599.9021	6662.3	5779
898.1551	1601.6668	6736.25	5849.45
898.2975	1603.4308	6833.25	5946.7
898.4398	1605.194	6981.65	6092.65
898.5821	1606.9564	7129.35	6244.7
898.7243	1608.7182	7332.25	6442.75
898.8666	1610.4791	7546.65	6662.3
899.0088	1612.2394	7773.8	6888.6
899.1511	1613.9988	8002.85	7118.55
899.2933	1615.7576	8271.6	7386.2
899.4355	1617.5156	8491.55	7600.85
899.5776	1619.2728	8623.4	7738.6
899.7198	1621.0293	8682	7799.15
899.862	1622.785	8610.25	7719
900.0041	1624.54	8439.9	7552.45
900.1462	1626.2942	8226.5	7342.8
900.2883	1628.0477	7944.25	7056.75
900.4304	1629.8005	7676.75	6789.2
900.5725	1631.5525	7434.9	6550.8
900.7145	1633.3037	7201.4	6315.35
900.8566	1635.0542	7063.85	6181.2
900.9986	1636.804	6920.75	6035.35
901.1406	1638.553	6887.6	5931.7
901.2826	1640.3013	6804.6	5922.9
901.4245	1642.0488	6797.1	5911.15
901.5665	1643.7955	6809.35	5926.8
901.7085	1645.5416	6872.3	5989.1
901.8504	1647.2868	6969.25	6086.2
901.9923	1649.0313	7088.3	6204.65
902.1342	1650.7751	7237.75	6351.75
902.2761	1652.5181	7414.95	6531.55
902.4179	1654.2604	7613.75	6728.2
902.5598	1656.0019	7850.25	6966.95
902.7016	1657.7427	8116.35	7231.7
902.8434	1659.4828	8424.75	7539.9
902.9852	1661.222	8570.6	7685.7
903.127	1662.9606	8587.25	7705.05
903.2687	1664.6984	8345.35	7461
903.4105	1666.4354	7915.1	7029.85
903.5522	1668.1717	7397.3	6514.95
903.6939	1669.9072	6857.4	5974.1
903.8356	1671.642	6384.65	5498.4
903.9773	1673.3761	6003.2	5120.85
904.119	1675.1094	5720.2	4837.3
904.2606	1676.8419	5488.05	4603.35
904.4022	1678.5737	5310.7	4428.95
904.5439	1680.3048	5173.45	4290.1
904.6855	1682.0351	5048.85	4167
904.827	1683.7646	4962.6	4076.95
904.9686	1685.4934	4912.1	4030.05
905.1101	1687.2215	4833.05	3949.6
905.2517	1688.9488	4775.9	3893.25
905.3932	1690.6754	4712.65	3830.2
905.5347	1692.4012	4689.55	3805.7
905.6761	1694.1263	4668.9	3784.75
905.8176	1695.8506	4605.55	3721.75
905.9591	1697.5742	4571.9	3689.1
906.1005	1699.297	4546.15	3664.65
906.2419	1701.0191	4509.5	3624.95
906.3833	1702.7404	4489.4	3609.15
906.5246	1704.461	4430.45	3546.25
906.666	1706.1808	4417.2	3531.65
906.8073	1707.8999	4398.85	3513.05
906.9487	1709.6182	4369.15	3484.7
907.09	1711.3358	4354.45	3471.3
907.2313	1713.0527	4315.05	3434.6
907.3725	1714.7688	4312.1	3423.45
907.5138	1716.4841	4291.4	3407.5
907.655	1718.1987	4294.6	3406.2
907.7962	1719.9126	4259.2	3375.75
907.9374	1721.6257	4245.7	3357.55
908.0786	1723.338	4229.15	3344.45
908.2198	1725.0496	4216.55	3331.4
908.3609	1726.7605	4214.35	3330.15
908.502	1728.4706	4198.6	3315.6
908.6431	1730.18	4177.4	3290.75
908.7842	1731.8886	4150.65	3267.05
908.9253	1733.5964	4151.75	3261.2
909.0664	1735.3036	4133.3	3247.8
909.2074	1737.0099	4114.6	3231.45
909.3484	1738.7156	4104.45	3223.6
909.4894	1740.4204	4073.25	3185.2
909.6304	1742.1246	4050.65	3165.55
909.7714	1743.8279	4030.5	3148.45
909.9123	1745.5306	4028.5	3145.15
910.0532	1747.2325	4002.35	3119.8
910.1941	1748.9336	3993.7	3110.85
910.335	1750.634	3963.2	3078.75
910.4759	1752.3336	3955.85	3071.8
910.6168	1754.0325	3946.05	3063.9
910.7576	1755.7307	3945.1	3063.15
910.8984	1757.4281	3932.75	3047.7
911.0392	1759.1247	3928.75	3037.8
911.18	1760.8206	3922.35	3034.6
911.3208	1762.5158	3904.75	3017.65
911.4615	1764.2102	3893.4	3008.55
911.6022	1765.9039	3890.9	3008.5
911.7429	1767.5968	3885.55	3001.35
911.8836	1769.289	3869.4	2984.65
912.0243	1770.9804	3867.6	2981.55
912.1649	1772.6711	3861	2977.6
912.3056	1774.361	3851.55	2968.25
912.4462	1776.0502	3843.6	2959.85
912.5868	1777.7386	3830.65	2944.55
912.7274	1779.4263	3815.45	2929.8
912.8679	1781.1132	3811.25	2927.85
913.0084	1782.7994	3802.65	2918.6
913.149	1784.4849	3811.75	2928
913.2895	1786.1696	3810.6	2909.25
913.4299	1787.8535	3769.2	2887
913.5704	1789.5367	3759.8	2876.25
913.7108	1791.2192	3762.05	2878.1
913.8513	1792.9009	3761.6	2863.4
913.9917	1794.5818	3754.95	2871.05
914.132	1796.2621	3727.55	2845.9
914.2724	1797.9415	3727.15	2843.35
914.4128	1799.6202	3727.15	2845.2
914.5531	1801.2982	3713.3	2831
914.6934	1802.9755	3708.5	2823.8
914.8337	1804.6519	3693.3	2811.35
914.9739	1806.3277	3690.1	2806.9
915.1142	1808.0027	3676.9	2793.5
915.2544	1809.6769	3682.25	2798.45
915.3946	1811.3504	3667.1	2781.6
915.5348	1813.0231	3672.15	2788.95
915.675	1814.6951	3651.3	2767.6
915.8151	1816.3664	3650.3	2764.35
915.9553	1818.0369	3651.7	2769.7
916.0954	1819.7067	3654.5	2771.45
916.2355	1821.3757	3629.2	2745
916.3755	1823.044	3627.8	2744.75
916.5156	1824.7115	3626.1	2743.05
916.6556	1826.3783	3606.3	2724.5
916.7956	1828.0443	3599.55	2715.6
916.9356	1829.7096	3587.2	2702.15
917.0756	1831.3741	3595.45	2709.75
917.2155	1833.0379	3593.75	2711.35
917.3555	1834.701	3560.3	2673.8
917.4954	1836.3633	3566.7	2682.55
917.6353	1838.0248	3560.6	2674.65
917.7751	1839.6856	3558.55	2676.25
917.915	1841.3457	3556.7	2675.9
918.0548	1843.005	3563.9	2682.65
918.1946	1844.6636	3532.15	2648.65
918.3344	1846.3214	3530.1	2646.9
918.4742	1847.9785	3526.05	2643.75
918.6139	1849.6349	3533.45	2647.1
918.7537	1851.2904	3526.4	2635
918.8934	1852.9453	3510.85	2627.95
919.0331	1854.5994	3507	2622.2
919.1727	1856.2528	3517.25	2628.5
919.3124	1857.9054	3510.3	2627.5
919.452	1859.5572	3484.7	2604.25
919.5916	1861.2083	3476.5	2592.05
919.7312	1862.8587	3485.2	2602.2
919.8708	1864.5084	3477.15	2594.9
920.0103	1866.1572	3475.45	2592.7
920.1498	1867.8054	3456.25	2574
920.2893	1869.4528	3466.05	2584.3
920.4288	1871.0994	3449.9	2566.95
920.5683	1872.7453	3429	2545.3
920.7077	1874.3905	3442.55	2540.3
920.8471	1876.0349	3418.5	2534.25
920.9865	1877.6786	3432.75	2551
921.1259	1879.3215	3413.3	2531.1
921.2653	1880.9637	3428.3	2546
921.4046	1882.6051	3413.55	2530.75
921.5439	1884.2458	3414.1	2529.35
921.6832	1885.8858	3393.4	2507.35
921.8225	1887.525	3372.75	2490.55
921.9617	1889.1634	3367.1	2484.25
922.101	1890.8011	3354.65	2470.85
922.2402	1892.4381	3347.4	2466.2
922.3794	1894.0743	3352.3	2470.4
922.5185	1895.7098	3349.5	2468.85
922.6577	1897.3446	3346.95	2464.2
922.7968	1898.9786	3339.55	2452
922.9359	1900.6118	3335.1	2454.25
923.075	1902.2443	3311.2	2423.55
923.214	1903.8761	3303.55	2421.45
923.3531	1905.5071	3296.7	2413.65
923.4921	1907.1374	3294.05	2409.25
923.6311	1908.7669	3292.75	2409.45
923.77	1910.3957	3282.65	2401.1
923.909	1912.0237	3262.9	2378.3
924.0479	1913.651	3278.55	2395.15
924.1868	1915.2776	3271.85	2389.4
924.3257	1916.9034	3252.8	2371.6
924.4646	1918.5285	3233.35	2351.45
924.6034	1920.1528	3240.4	2357.35
924.7422	1921.7764	3232.15	2350.85
924.881	1923.3992	3224.95	2343.05
925.0198	1925.0213	3211.6	2328.85
925.1586	1926.6427	3193.6	2311.55
925.2973	1928.2633	3383.85	2263.35
925.436	1929.8832	3227.45	2339.65
925.5747	1931.5023	3177.55	2295.15
925.7134	1933.1207	3175.95	2293.75
925.852	1934.7383	3168.45	2284.75
925.9906	1936.3552	3152.75	2271.1
926.1292	1937.9714	3148.5	2264.15
926.2678	1939.5868	3144.7	2260.05
926.4064	1941.2015	3138.65	2254.2
926.5449	1942.8154	3127.15	2243.35
926.6834	1944.4286	3125.45	2242.2
926.8219	1946.041	3125.8	2219.45
926.9604	1947.6528	3093.15	2204.05
927.0988	1949.2637	3098.45	2216.5
927.2372	1950.8739	3080.3	2198.5
927.3756	1952.4834	3080.45	2196.7
927.514	1954.0921	3075.05	2189.7
927.6523	1955.7001	3070.9	2182.85
927.7907	1957.3074	3060.85	2179.25
927.929	1958.9139	3049.4	2165.3
928.0673	1960.5197	3041.1	2155.05
928.2055	1962.1247	3028.25	2145.1
928.3438	1963.729	3025.75	2143.95
928.482	1965.3325	3034.55	2130.2
928.6202	1966.9353	3008.8	2126.65
928.7584	1968.5374	2993.95	2109.8
928.8965	1970.1387	3007.1	2125.75
929.0346	1971.7393	2990.6	2106.9
929.1727	1973.3392	2990.25	2104.9
929.3108	1974.9383	2965.9	2083.25
929.4489	1976.5366	2976.15	2091.75
929.5869	1978.1342	2953.9	2068.35
929.7249	1979.7311	2969.75	2083.4
929.8629	1981.3273	2962.75	2078.5
930.0009	1982.9227	2938.2	2052.2
930.1388	1984.5173	2944.8	2062.3
930.2767	1986.1112	2920.3	2037.55
930.4146	1987.7044	2913.45	2033.45
930.5525	1989.2968	2914.1	2030.85
930.6904	1990.8885	2917.75	2031.25
930.8282	1992.4795	2915.3	2029.5
930.966	1994.0697	2912.85	2029.4
931.1038	1995.6592	2892.65	2010.6
931.2415	1997.2479	2883.6	2000.9
931.3793	1998.8359	2884.6	2000.35
931.517	2000.4232	2863.5	1980.75
931.6547	2002.0097	2873.3	1991.65
931.7923	2003.5955	2868.75	1983.45
931.93	2005.1805	2866.6	1982.85
932.0676	2006.7648	2856.25	1973.15
932.2052	2008.3484	2853.75	1969
932.3427	2009.9312	2872.95	1987.45
932.4803	2011.5133	2846.1	1964.15
932.6178	2013.0946	2832.05	1948.4
932.7553	2014.6752	2829.15	1946.8
932.8928	2016.2551	2835.5	1952
933.0302	2017.8342	2817.35	1934.05
933.1676	2019.4126	2816.65	1935
933.305	2020.9902	2808.3	1925.9
933.4424	2022.5672	2808.5	1924.45
933.5798	2024.1433	2797.65	1907.3
933.7171	2025.7188	2790.5	1906.9
933.8544	2027.2935	2783.85	1901.2
933.9917	2028.8674	2784.95	1901.7
934.129	2030.4406	2765.9	1883.85
934.2662	2032.0131	2750.75	1867.6
934.4034	2033.5849	2749	1861.05
934.5406	2035.1559	2742.55	1858.9
934.6778	2036.7261	2754.6	1874.75
934.8149	2038.2957	2747.05	1865.1
934.952	2039.8645	2738	1854.9
935.0891	2041.4325	2744.45	1858.15
935.2262	2042.9998	2725.2	1842.8
935.3632	2044.5664	2720.6	1834.85
935.5002	2046.1323	2725.85	1842.3
935.6372	2047.6974	2712.9	1829.25
935.7742	2049.2617	2714.7	1833.7
935.9111	2050.8254	2731.5	1815.85
936.048	2052.3883	2716.15	1831.15
936.1849	2053.9504	2697.7	1814.5
936.3218	2055.5118	2695.4	1811.95
936.4586	2057.0725	2695.8	1809.5
936.5955	2058.6325	2673.3	1789.25
936.7323	2060.1917	2679.65	1796.35
936.869	2061.7502	2677.4	1790.25
937.0058	2063.3079	2667.6	1786.05
937.1425	2064.8649	2657.1	1768.9
937.2792	2066.4212	2655.85	1773.05
937.4159	2067.9767	2657.15	1776.05
937.5525	2069.5315	2645.3	1763.7
937.6891	2071.0856	2635.15	1751.9
937.8257	2072.6389	2625.9	1739.4
937.9623	2074.1915	2621.15	1740.5
938.0989	2075.7433	2608.15	1722.5
938.2354	2077.2945	2610.7	1728.85
938.3719	2078.8448	2600.8	1716.75
938.5084	2080.3945	2601.9	1719
938.6448	2081.9434	2610.05	1728.35
938.7812	2083.4916	2603.45	1720.8
938.9176	2085.039	2584.8	1701.2
939.054	2086.5857	2585.3	1701.2
939.1903	2088.1317	2574.65	1689.9
939.3267	2089.677	2566.05	1681.7
939.463	2091.2215	2570.3	1690.15
939.5992	2092.7652	2564.75	1679.35
939.7355	2094.3083	2559.8	1676.7
939.8717	2095.8506	2564.9	1681.2
940.0079	2097.3921	2552.7	1670.95
940.1441	2098.933	2545.35	1662.35
940.2802	2100.4731	2551	1667.35
940.4163	2102.0124	2578.5	1677.7
940.5524	2103.5511	2553.1	1667.9
940.6885	2105.089	2538	1653.5
940.8245	2106.6261	2534.15	1651.25
940.9606	2108.1626	2539.9	1656.85
941.0965	2109.6983	2544.25	1632.8
941.2325	2111.2332	2524.5	1640.55
941.3684	2112.7675	2514.35	1630.3
941.5044	2114.301	2514.85	1632.4
941.6403	2115.8337	2504.15	1620.15
941.7761	2117.3657	2521.15	1637.85
941.912	2118.897	2502.45	1616.75
942.0478	2120.4276	2501.75	1610.9
942.1835	2121.9575	2487.7	1603.05
942.3193	2123.4866	2494.7	1596.35
942.455	2125.0149	2485	1600
942.5907	2126.5426	2479.5	1596.65
942.7264	2128.0695	2482.75	1595.2
942.8621	2129.5956	2473.35	1591.45
942.9977	2131.1211	2475.4	1586.5
943.1333	2132.6458	2457.45	1576.75
943.2689	2134.1698	2459.8	1575.85
943.4044	2135.693	2454.4	1567.8
943.54	2137.2155	2449.3	1565.95
943.6755	2138.7373	2455.9	1572.05
943.8109	2140.2584	2441.25	1558.7
943.9464	2141.7787	2445.55	1557.35
944.0818	2143.2983	2434.05	1551.65
944.2172	2144.8171	2427.45	1545.35
944.3526	2146.3353	2422.35	1534.95
944.4879	2147.8527	2410.75	1527.9
944.6232	2149.3693	2410.9	1526.35
944.7585	2150.8853	2411	1526.45
944.8938	2152.4005	2393.7	1509
945.029	2153.9149	2404.3	1518.7
945.1642	2155.4287	2393.85	1510
945.2994	2156.9417	2398.95	1514
945.4346	2158.454	2387.7	1501.15
945.5697	2159.9655	2377.75	1493.05
945.7048	2161.4764	2388.3	1503.05
945.8399	2162.9865	2374.35	1491.7
945.9749	2164.4958	2376.6	1491.8
946.1099	2166.0045	2367.6	1481.3
946.2449	2167.5124	2362.9	1479.2
946.3799	2169.0195	2358.55	1475.5
946.5148	2170.526	2358.3	1474.95
946.6498	2172.0317	2342.6	1458.2
946.7846	2173.5367	2344.85	1459.95
946.9195	2175.0409	2337.05	1454.3
947.0543	2176.5445	2344.9	1461.4
947.1891	2178.0473	2341.55	1458.85
947.3239	2179.5494	2344.8	1457.15
947.4587	2181.0507	2326.95	1442.3
947.5934	2182.5513	2327.45	1445.65
947.7281	2184.0512	2322.3	1440.7
947.8628	2185.5504	2327.8	1445.4
947.9974	2187.0488	2306.95	1422.3
948.132	2188.5465	2307.8	1426.15
948.2666	2190.0435	2302.3	1417.5
948.4012	2191.5397	2295.2	1413
948.5357	2193.0353	2291.1	1408.95
948.6702	2194.5301	2285.45	1400.9
948.8047	2196.0241	2283.1	1399.75
948.9392	2197.5175	2281.45	1398.45
949.0736	2199.0101	2277.3	1391.1
949.208	2200.502	2270.65	1388.85
949.3424	2201.9931	2269.45	1385.65
949.4767	2203.4835	2262.35	1377.25
949.611	2204.9733	2256.05	1364.85
949.7453	2206.4622	2254.25	1369.9
949.8796	2207.9505	2253.35	1364.9
950.0138	2209.438	2241	1359.55
950.148	2210.9248	2230.2	1345.05
950.2822	2212.4109	2228.45	1345.8
950.4164	2213.8962	2234.2	1348.95
950.5505	2215.3809	2246.3	1362.8
950.6846	2216.8648	2229.9	1346.35
950.8186	2218.3479	2216.5	1328.55
950.9527	2219.8304	2219.05	1332.35
951.0867	2221.3121	2203.75	1319.1
951.2207	2222.7931	2202.7	1317.45
951.3546	2224.2733	2191.6	1306.95
951.4886	2225.7529	2194.45	1310
951.6225	2227.2317	2188.9	1301.45
951.7563	2228.7098	2194	1310.9
951.8902	2230.1872	2187.7	1303.3
952.024	2231.6638	2179.55	1296.5
952.1578	2233.1397	2180.65	1291.65
952.2916	2234.6149	2182.3	1298.2
952.4253	2236.0894	2179.3	1294.9
952.559	2237.5632	2169.85	1274.7
952.6927	2239.0362	2163.85	1281.45
952.8263	2240.5085	2155.7	1271.9
952.9599	2241.9801	2156.15	1273
953.0935	2243.4509	2138.4	1255.25
953.2271	2244.921	2142.6	1260
953.3606	2246.3904	2135.9	1248.15
953.4941	2247.8591	2131.35	1247.25
953.6276	2249.3271	2132.25	1248.2
953.7611	2250.7943	2122.15	1236.4
953.8945	2252.2608	2121.85	1237.05
954.0279	2253.7266	2114.55	1231.55
954.1612	2255.1917	2110.65	1226.65
954.2946	2256.656	2104.3	1220.65
954.4279	2258.1197	2089.6	1206
954.5612	2259.5826	2092.2	1206.85
954.6944	2261.0447	2092.4	1208.6
954.8276	2262.5062	2091.25	1206.4
954.9608	2263.9669	2093.5	1207.95
955.094	2265.4269	2097.05	1212.7
955.2271	2266.8862	2077.7	1193.9
955.3602	2268.3448	2077.8	1193.4
955.4933	2269.8026	2068.85	1184
955.6264	2271.2598	2086.35	1203
955.7594	2272.7162	2061.1	1179.05
955.8924	2274.1719	2064.05	1180.85
956.0253	2275.6268	2065.4	1182.5
956.1583	2277.0811	2064.9	1180.7
956.2912	2278.5346	2064.05	1182.65
956.4241	2279.9874	2062.5	1179.4
956.5569	2281.4395	2064.25	1181.05
956.6897	2282.8908	2059.65	1172
956.8225	2284.3414	2062.3	1177.55
956.9553	2285.7914	2044.8	1161.35
957.088	2287.2406	2037.95	1153.55
957.2207	2288.689	2039.7	1156.25
957.3534	2290.1368	2041.15	1159
957.486	2291.5838	2035.95	1152.05
957.6186	2293.0302	2044.5	1160.8
957.7512	2294.4758	2031.25	1148.65
957.8838	2295.9206	2032.2	1146.75
958.0163	2297.3648	2030.75	1145.85
958.1488	2298.8082	2016.15	1130.9
958.2813	2300.251	2017.65	1133.7
958.4137	2301.693	2010.1	1123.05
958.5461	2303.1343	2019.9	1134.95
958.6785	2304.5748	2010	1126.75
958.8108	2306.0147	2010.4	1124.8
958.9432	2307.4538	2000.75	1114.35
959.0754	2308.8922	1997.7	1114.35
959.2077	2310.3299	2004.75	1120.8
959.3399	2311.7669	1988.9	1106.75
959.4721	2313.2031	1988.7	1105.3
959.6043	2314.6387	1981.15	1097
959.7365	2316.0735	1975.1	1092.3
959.8686	2317.5076	1979.1	1095.7
960.0006	2318.941	1974.55	1091.4
960.1327	2320.3737	1969.65	1085.2
960.2647	2321.8056	1967.1	1080.8
960.3967	2323.2369	1960.8	1077.55
960.5287	2324.6674	1966.35	1079.65
960.6606	2326.0972	1958.85	1074.55
960.7925	2327.5263	1961.2	1077.8
960.9244	2328.9547	1954.05	1071.8
961.0562	2330.3823	1948.75	1065.4
961.1881	2331.8092	1944.8	1058.55
961.3198	2333.2355	1941.25	1056.65
961.4516	2334.661	1953.25	1068.05
961.5833	2336.0858	1945.3	1059.3
961.715	2337.5098	1937.35	1055.85
961.8467	2338.9332	1927.05	1042.45
961.9783	2340.3558	1937.45	1050
962.1099	2341.7778	1927.9	1044.25
962.2415	2343.199	1931.85	1045.85
962.373	2344.6195	1928.3	1043.5
962.5045	2346.0393	1918.4	1037.25
962.636	2347.4583	1928.2	1042.35
962.7675	2348.8767	1925.2	1042.15
962.8989	2350.2943	1925.9	1041.85
963.0303	2351.7113	1917.1	1032.35
963.1617	2353.1275	1915.85	1032.2
963.293	2354.543	1925.75	1018.45
963.4243	2355.9578	1914.85	1032.3
963.5556	2357.3718	1895.05	1012.25
963.6868	2358.7852	1895.65	1009.5
963.818	2360.1978	1901.25	1017.15
963.9492	2361.6098	1888.55	1003.6
964.0803	2363.021	1898.9	1010.35
964.2114	2364.4315	1884.9	997.95
964.3425	2365.8413	1878.55	992.1
964.4736	2367.2504	1877.45	995.15
964.6046	2368.6587	1873.2	989.55
964.7356	2370.0664	1881.25	997.65
964.8666	2371.4733	1871.35	987.85
964.9975	2372.8795	1872.85	991.4
965.1284	2374.285	1870.95	988.05
965.2593	2375.6899	1862.95	980.65
965.3901	2377.0939	1868.05	982.3
965.5209	2378.4973	1844.7	963.35
965.6517	2379.9	1849.95	966.5
965.7825	2381.3019	1844.75	962.9
965.9132	2382.7032	1839.05	955
966.0439	2384.1037	1841.5	959.9
966.1745	2385.5035	1833.85	948.5
966.3051	2386.9027	1836.9	954.55
966.4357	2388.3011	1827.7	942.5
966.5663	2389.6987	1825.25	942.45
966.6968	2391.0957	1820.4	936.5
966.8273	2392.492	1827.9	946.3
966.9578	2393.8876	1813.1	930
967.0882	2395.2824	1812.8	931.45
967.2186	2396.6765	1803.65	920.05
967.349	2398.07	1806.5	924.3
967.4793	2399.4627	1804.25	918.55
967.6097	2400.8547	1807.65	924.05
967.7399	2402.246	1804.45	914.5
967.8702	2403.6366	1791.05	905.7
968.0004	2405.0265	1795.9	912.8
968.1306	2406.4156	1786.85	899.85
968.2607	2407.8041	1780.85	894.95
968.3909	2409.1918	1784.5	899.8
968.521	2410.5789	1775	892.1
968.651	2411.9652	1780	895.75
968.781	2413.3508	1774.6	890.1
968.911	2414.7358	1772	887.75
969.041	2416.12	1770.35	887.75
969.1709	2417.5035	1766.4	883.35
969.3008	2418.8863	1765.2	879.75
969.4307	2420.2684	1764	883.1
969.5606	2421.6497	1764.95	879.65
969.6904	2423.0304	1760.4	878.9
969.8201	2424.4104	1753.15	869.95
969.9499	2425.7896	1748.95	864.15
970.0796	2427.1682	1754.2	872.15
970.2093	2428.546	1750.55	866.15
970.3389	2429.9232	1751.55	866.55
970.4685	2431.2996	1739.15	856.65
970.5981	2432.6753	1738.75	855.35
970.7277	2434.0503	1743.75	860.7
970.8572	2435.4246	1737.95	854
970.9867	2436.7982	1726.55	842.35
971.1161	2438.1711	1734.55	854.35
971.2456	2439.5433	1729.35	844.7
971.375	2440.9148	1730.4	842.45
971.5043	2442.2856	1721.35	837.3
971.6336	2443.6557	1718.7	834.1
971.7629	2445.025	1710.25	828.5
971.8922	2446.3937	1718.5	833.7
972.0214	2447.7617	1715.25	833.15
972.1506	2449.1289	1711.9	829.45
972.2798	2450.4955	1713.05	825.85
972.4089	2451.8613	1711.6	829.5
972.538	2453.2265	1710.1	827.95
972.6671	2454.5909	1705.25	824.05
972.7961	2455.9546	1699.35	817.9
972.9251	2457.3177	1691.05	808.95
973.0541	2458.68	1694.2	809.75
973.1831	2460.0416	1695.95	813.05
973.312	2461.4025	1695.75	810.7
973.4408	2462.7627	1702.9	809.2
973.5697	2464.1222	1685.7	804.5
973.6985	2465.4811	1683.1	799.4
973.8273	2466.8392	1681.5	798.75
973.956	2468.1966	1684.9	801.45
974.0847	2469.5533	1684.75	801.25
974.2134	2470.9093	1689.2	806.1
974.3421	2472.2645	1679	793.25
974.4707	2473.6191	1676.9	795.7
974.5993	2474.973	1672.75	787.05
974.7278	2476.3262	1675.15	791
974.8563	2477.6787	1676.25	792.05
974.9848	2479.0305	1670.15	788.35
975.1132	2480.3816	1666.3	782.75
975.2417	2481.7319	1661.25	779.1
975.37	2483.0816	1669.9	785.8
975.4984	2484.4306	1659.35	774.5
975.6267	2485.7789	1665.7	782.9
975.755	2487.1264	1657.2	771.95
975.8833	2488.4733	1648.4	766.3
976.0115	2489.8195	1665.45	764.35
976.1397	2491.165	1643.25	756.65
976.2678	2492.5097	1649.15	765.65
976.3959	2493.8538	1638.35	756.2
976.524	2495.1972	1636.85	751.6
976.6521	2496.5398	1640.45	755.8
976.7801	2497.8818	1629.7	743.7
976.9081	2499.2231	1634.6	752.7
977.036	2500.5637	1629.6	743.7
977.164	2501.9035	1632.65	749.2
977.2918	2503.2427	1621.75	734.3
977.4197	2504.5812	1626.05	742.8
977.5475	2505.919	1618.05	732.4
977.6753	2507.256	1623.75	741.25
977.8031	2508.5924	1620	735.6
977.9308	2509.9281	1621.6	732.85
978.0585	2511.2631	1612.1	729.6
978.1861	2512.5974	1612.45	730.55
978.3137	2513.9309	1608.25	723.95
978.4413	2515.2638	1632.4	722.2
978.5689	2516.596	1603.45	720.9
978.6964	2517.9275	1602.75	717
978.8239	2519.2583	1603.15	720.35
978.9513	2520.5884	1598.95	716.25
979.0788	2521.9178	1600.15	717.5
979.2062	2523.2465	1595.6	712.1
979.3335	2524.5745	1591.85	708.4
979.4608	2525.9018	1596.65	713.5
979.5881	2527.2284	1595.85	712.7
979.7154	2528.5543	1586.75	705.55
979.8426	2529.8796	1582.6	700
979.9698	2531.2041	1581.05	697.5
980.0969	2532.5279	1580.5	698.25
980.224	2533.851	1583.05	702.65
980.3511	2535.1735	1587.25	705.5
980.4781	2536.4952	1581.6	697.2
980.6052	2537.8163	1582.55	698.5
980.7321	2539.1366	1578.3	696.65
980.8591	2540.4562	1581	696.2
980.986	2541.7752	1576.55	693.6
981.1129	2543.0935	1576.35	693.55
981.2397	2544.411	1570.95	687.1
981.3665	2545.7279	1571.55	690.4
981.4933	2547.0441	1568.7	683.1
981.62	2548.3596	1576.85	690.95
981.7467	2549.6744	1572.65	689.5
981.8734	2550.9885	1572.3	686
982.0001	2552.3019	1559.3	675.9
982.1267	2553.6146	1563.6	680.9
982.2532	2554.9266	1559.55	675.85
982.3798	2556.2379	1564	679.4
982.5063	2557.5485	1554.55	671.35
982.6327	2558.8585	1563.35	673.8
982.7592	2560.1677	1554.25	665.2
982.8856	2561.4762	1549	665.15
983.0119	2562.7841	1558	670.25
983.1383	2564.0913	1548.8	667.75
983.2646	2565.3977	1541.8	658.75
983.3908	2566.7035	1548.95	665.2
983.517	2568.0086	1548	662.2
983.6432	2569.313	1549.25	667.05
983.7694	2570.6167	1543.3	655.6
983.8955	2571.9197	1540.45	658.2
984.0216	2573.222	1549.35	662.5
984.1476	2574.5236	1536.25	651.4
984.2737	2575.8246	1540.25	654.05
984.3996	2577.1248	1539.25	653.95
984.5256	2578.4244	1538.75	655.3
984.6515	2579.7232	1536.55	653.6
984.7774	2581.0214	1564.6	649.1
984.9032	2582.3189	1540.65	657.45
985.029	2583.6157	1538.15	650.55
985.1548	2584.9118	1532.85	649.4
985.2806	2586.2072	1532.8	651.05
985.4063	2587.5019	1533.65	650
985.5319	2588.7959	1530.8	647.05
985.6576	2590.0893	1541.45	657.9
985.7832	2591.3819	1540.3	658.3
985.9087	2592.6739	1539.3	655.85
986.0343	2593.9652	1538.6	654.8
986.1597	2595.2557	1539	657.5
986.2852	2596.5456	1543.3	657.65
986.4106	2597.8348	1541.25	659.4
986.536	2599.1234	1539.55	656.7
986.6614	2600.4112	1544.2	661.15
986.7867	2601.6983	1543.15	657.15
986.912	2602.9848	1535.7	653.6
987.0372	2604.2705	1539.35	648.85
987.1624	2605.5556	1531.1	646.6
987.2876	2606.84	1542.8	660.75
987.4128	2608.1237	1539.4	656
987.5379	2609.4067	1531.95	648.5
987.6629	2610.689	1528.05	635.3
987.788	2611.9707	1526.9	640.25
987.913	2613.2516	1524.7	638.25
988.0379	2614.5319	1522.55	639.25
988.1629	2615.8115	1519.05	635.9
988.2878	2617.0903	1517.95	632
988.4126	2618.3685	1510.25	627.95
988.5375	2619.6461	1513.6	630.5
988.6622	2620.9229	1510.95	628.5
988.787	2622.199	1514.5	628.3
988.9117	2623.4745	1509.8	625.3
989.0364	2624.7493	1510.75	628.35
989.161	2626.0234	1510.5	629.65
989.2857	2627.2968	1511.35	627.95
989.4102	2628.5695	1511	627.5
989.5348	2629.8415	1510.8	625.85
989.6593	2631.1128	1506.1	623.4
989.7837	2632.3835	1501.6	619.55
989.9082	2633.6535	1499.25	617.7
990.0326	2634.9228	1503	619.8
990.1569	2636.1914	1497.25	614.15
990.2812	2637.4593	1502.95	620.05
990.4055	2638.7265	1490.35	607.6
990.5298	2639.9931	1491.6	607.45
990.654	2641.259	1498.1	614.05
990.7782	2642.5242	1491.45	608.35
990.9023	2643.7887	1489.15	607.4
991.0264	2645.0525	1484.6	600.35
991.1505	2646.3156	1490.35	605.55
991.2745	2647.5781	1482.05	601.15
991.3985	2648.8398	1483.6	600.15
991.5225	2650.1009	1515.6	596.1
991.6464	2651.3613	1485.4	603.4
991.7703	2652.6211	1477.45	594.7
991.8942	2653.8801	1474.45	592.85
992.018	2655.1385	1468.3	580.5
992.1418	2656.3961	1471.55	587.6
992.2655	2657.6531	1478.25	595.85
992.3892	2658.9094	1475.3	591.05
992.5129	2660.1651	1475.6	594.25
992.6366	2661.42	1481.8	597.9
992.7602	2662.6743	1485.5	601.6
992.8837	2663.9279	1478.3	596.05
993.0073	2665.1808	1484.2	600
993.1307	2666.433	1484.8	602.45
993.2542	2667.6846	1489.65	609.65
993.3776	2668.9354	1488.7	602.7
993.501	2670.1856	1488.35	604.75
993.6244	2671.4351	1487.7	605.7
993.7477	2672.6839	1495.35	610.85
993.8709	2673.9321	1491.3	607.85
993.9942	2675.1795	1496.55	612.95
994.1174	2676.4263	1492.35	606.85
994.2405	2677.6724	1495.2	610.6
994.3637	2678.9179	1500.65	616.65
994.4868	2680.1626	1495.35	612.15
994.6098	2681.4067	1499.75	616.35
994.7328	2682.6501	1495.35	611.95
994.8558	2683.8928	1489.9	606.05
994.9788	2685.1348	1485.05	603.05
995.1017	2686.3761	1476.2	593.45
995.2245	2687.6168	1487.05	602.15
995.3474	2688.8568	1484.25	599.95
995.4702	2690.0961	1475	591.6
995.5929	2691.3348	1468.55	583.45
995.7156	2692.5727	1465.7	584.1
995.8383	2693.81	1467.7	583.1
995.961	2695.0466	1468.35	586.8
996.0836	2696.2826	1476.15	591.7
996.2062	2697.5178	1485.65	582.3
996.3287	2698.7524	1471.15	588.25
996.4512	2699.9863	1468.15	580.9
996.5737	2701.2195	1464.45	582.65
996.6961	2702.452	1467.4	581.7
996.8185	2703.6839	1472.8	589
996.9408	2704.9151	1474.4	594.25
997.0631	2706.1456	1481.8	597.35
997.1854	2707.3755	1484.1	602
997.3077	2708.6046	1497.9	612.2
997.4299	2709.8331	1502.4	618.85
997.552	2711.0609	1502.75	619.45
997.6742	2712.2881	1515.8	632.4
997.7963	2713.5145	1530.4	644.05
997.9183	2714.7403	1535.4	651.55
998.0403	2715.9654	1542.35	660
998.1623	2717.1899	1561.25	663.35
998.2842	2718.4136	1561.95	677.85
998.4062	2719.6367	1574.75	691.45
998.528	2720.8591	1589.85	695.8
998.6498	2722.0809	1601.8	718.65
998.7716	2723.3019	1611.05	724.65
998.8934	2724.5223	1615.1	730.4
999.0151	2725.7421	1621.7	737.8
999.1368	2726.9611	1623	736.6
999.2584	2728.1795	1620.5	732
999.38	2729.3972	1612.5	731.85
999.5016	2730.6142	1621.35	723.6
999.6231	2731.8306	1599.3	714.95
999.7446	2733.0462	1575.1	690.5
999.8661	2734.2612	1563.1	673.8
999.9875	2735.4756	1542.2	657.7
1000.1089	2736.6892	1527.5	643.35
1000.2302	2737.9022	1507.65	625.25
1000.3515	2739.1145	1502.6	619.25
1000.4728	2740.3262	1499.25	610
1000.594	2741.5372	1483.7	601
1000.7152	2742.7475	1470.65	588.45
1000.8363	2743.9571	1461.8	579.3
1000.9575	2745.1661	1452.35	564.35
1001.0785	2746.3744	1439.55	556
1001.1996	2747.582	1434.4	552.2
1001.3206	2748.7889	1419.55	534.55
1001.4415	2749.9952	1418.65	535.05
1001.5625	2751.2008	1405.45	521.25
1001.6833	2752.4057	1407.75	519.7
1001.8042	2753.61	1403.05	518.85
1001.925	2754.8136	1402	516.45
1002.0458	2756.0165	1393.1	509.9
1002.1665	2757.2188	1390.55	509.1
1002.2872	2758.4204	1394.9	510.4
1002.4078	2759.6213	1394.65	511.85
1002.5285	2760.8215	1403.6	511.6
1002.649	2762.0211	1394.8	510.25
1002.7696	2763.22	1395	507.5
1002.8901	2764.4182	1393.65	508.1
1003.0106	2765.6158	1386.95	503.65
1003.131	2766.8127	1385.15	500.6
1003.2514	2768.009	1382.25	497.75
1003.3717	2769.2045	1383.6	500.35
1003.492	2770.3994	1386.85	502.05
1003.6123	2771.5936	1378.05	495.05
1003.7325	2772.7872	1372.2	489.8
1003.8527	2773.9801	1374.05	489.6
1003.9729	2775.1723	1384.25	483.8
1004.093	2776.3639	1366.75	484.95
1004.2131	2777.5548	1366.15	480.9
1004.3331	2778.745	1378.65	492.65
1004.4531	2779.9346	1374.1	491.3
1004.5731	2781.1235	1367.7	483.85
1004.693	2782.3117	1378.8	496.45
1004.8129	2783.4992	1375.85	492.65
1004.9328	2784.6861	1380.55	498.45
1005.0526	2785.8723	1391.35	506.1
1005.1723	2787.0579	1390.75	507.45
1005.2921	2788.2428	1388.95	504.8
1005.4118	2789.427	1399.3	516.8
1005.5314	2790.6106	1413.9	530.7
1005.651	2791.7935	1419.45	535.35
1005.7706	2792.9757	1431.15	548.7
1005.8902	2794.1573	1438.6	551.6
1006.0097	2795.3382	1452.4	569.35
1006.1291	2796.5184	1461.4	580.15
1006.2485	2797.698	1464.75	578.8
1006.3679	2798.8769	1486.2	603.25
1006.4873	2800.0551	1505.3	620.9
1006.6066	2801.2327	1519.65	634.95
1006.7258	2802.4096	1530.2	647.65
1006.8451	2803.5859	1552.25	667.45
1006.9642	2804.7615	1563.1	679.45
1007.0834	2805.9364	1585.7	703.75
1007.2025	2807.1106	1614.05	732
1007.3216	2808.2842	1641.75	757.55
1007.4406	2809.4572	1671.75	788.25
1007.5596	2810.6294	1702.55	818.15
1007.6785	2811.801	1735.7	854.2
1007.7975	2812.972	1771.5	888.35
1007.9163	2814.1423	1823.15	940.3
1008.0352	2815.3119	1868.05	981.95
1008.154	2816.4808	1915.4	1033.5
1008.2727	2817.6491	1966.3	1083.8
1008.3914	2818.8167	2005.55	1123.35
1008.5101	2819.9837	2059.8	1172.6
1008.6288	2821.15	2108.55	1224.2
1008.7474	2822.3157	2152	1269.35
1008.8659	2823.4807	2214.9	1330.75
1008.9844	2824.645	2271.65	1387.3
1009.1029	2825.8086	2317.3	1433.85
1009.2214	2826.9716	2367.95	1485.45
1009.3398	2828.134	2420.2	1537.5
1009.4581	2829.2957	2461.3	1577.75
1009.5764	2830.4567	2488.1	1606.55
1009.6947	2831.617	2513.3	1628.95
1009.813	2832.7767	2524.9	1643
1009.9312	2833.9358	2535.55	1653.15
1010.0493	2835.0941	2529.2	1644.65
1010.1675	2836.2519	2514.8	1632.15
1010.2855	2837.4089	2480.1	1596.5
1010.4036	2838.5653	2464.05	1581.8
1010.5216	2839.7211	2465.5	1582.95
1010.6396	2840.8761	2455.95	1572.1
1010.7575	2842.0306	2479.2	1596.75
1010.8754	2843.1843	2501.4	1617.35
1010.9932	2844.3374	2535.8	1651.25
1011.111	2845.4899	2585.25	1704.1
1011.2288	2846.6417	2653.25	1770.4
1011.3465	2847.7928	2722.25	1840.05
1011.4642	2848.9433	2780.7	1898.2
1011.5818	2850.0931	2855.45	1972.7
1011.6995	2851.2422	2902.65	2016.85
1011.817	2852.3907	2987.8	2103.15
1011.9345	2853.5385	3047.4	2161.8
1012.052	2854.6857	3134.2	2222.45
1012.1695	2855.8323	3148.75	2265.8
1012.2869	2856.9781	3212.35	2328.3
1012.4042	2858.1233	3247.5	2366.1
1012.5216	2859.2679	3308.6	2425.85
1012.6389	2860.4118	3356.1	2473.65
1012.7561	2861.555	3388.15	2498.15
1012.8733	2862.6976	3441.15	2557.25
1012.9905	2863.8395	3470.55	2586.75
1013.1076	2864.9808	3495.1	2611.65
1013.2247	2866.1214	3510.45	2629.8
1013.3417	2867.2614	3523.6	2640.35
1013.4587	2868.4007	3543.6	2657.8
1013.5757	2869.5393	3546.9	2661.7
1013.6926	2870.6773	3566.3	2680.7
1013.8095	2871.8146	3576.9	2691.2
1013.9263	2872.9513	3604	2716.2
1014.0431	2874.0874	3580.95	2696.6
1014.1599	2875.2227	3575.55	2693.6
1014.2766	2876.3574	3562.05	2681.4
1014.3933	2877.4915	3539.85	2657
1014.51	2878.6249	3501.5	2619.7
1014.6266	2879.7577	3498.4	2612.5
1014.7431	2880.8898	3487.2	2592.75
1014.8596	2882.0212	3445.7	2562.35
1014.9761	2883.152	3429.5	2545.2
1015.0925	2884.2821	3431.15	2545.8
1015.2089	2885.4116	3416.1	2533.15
1015.3253	2886.5405	3414.4	2529.9
1015.4416	2887.6686	3430.4	2543.25
1015.5579	2888.7962	3433.85	2552.2
1015.6741	2889.923	3435.45	2553.15
1015.7903	2891.0493	3438.75	2557.3
1015.9065	2892.1748	3461.65	2578.5
1016.0226	2893.2997	3471.1	2588.4
1016.1387	2894.424	3483.6	2601.05
1016.2547	2895.5476	3501.4	2620.05
1016.3707	2896.6706	3525.7	2643.45
1016.4866	2897.7929	3530.55	2647.25
1016.6025	2898.9145	3570.7	2686.1
1016.7184	2900.0355	3594.5	2711.75
1016.8342	2901.1559	3643.85	2760.05
1016.95	2902.2756	3673.9	2791.1
1017.0658	2903.3946	3697.8	2815.5
1017.1815	2904.513	3714.6	2828.1
1017.2971	2905.6308	3746.6	2863.05
1017.4127	2906.7479	3780.45	2897.1
1017.5283	2907.8643	3799.5	2915
1017.6439	2908.9801	3803.2	2921.9
1017.7594	2910.0953	3814.75	2930.9
1017.8748	2911.2098	3821.7	2934.35
1017.9902	2912.3236	3825.85	2934.75
1018.1056	2913.4368	3804.75	2919.1
1018.2209	2914.5494	3789.2	2906.2
1018.3362	2915.6613	3753.85	2865.35
1018.4515	2916.7725	3740.65	2855.45
1018.5667	2917.8831	3701.55	2816.85
1018.6819	2918.9931	3666.95	2781
1018.797	2920.1024	3648.25	2764.55
1018.9121	2921.211	3628.1	2744.4
1019.0271	2922.319	3619.1	2732.35
1019.1421	2923.4264	3592.8	2709.75
1019.2571	2924.5331	3568.25	2685.65
1019.372	2925.6391	3561.05	2680.45
1019.4869	2926.7445	3557.6	2675.35
1019.6017	2927.8493	3556.2	2672.9
1019.7165	2928.9534	3549.45	2664.45
1019.8313	2930.0569	3548.95	2660.25
1019.946	2931.1597	3555.95	2672
1020.0606	2932.2619	3546.75	2662.35
1020.1753	2933.3634	3548.9	2665.95
1020.2899	2934.4643	3552.5	2661.85
1020.4044	2935.5645	3537.25	2649.15
1020.5189	2936.6641	3520.05	2631.75
1020.6334	2937.763	3485.1	2604.1
1020.7478	2938.8613	3432.6	2547.95
1020.8622	2939.959	3392.65	2503.6
1020.9765	2941.056	3335.4	2451.95
1021.0908	2942.1523	3254.05	2369.35
1021.2051	2943.248	3161.2	2278.2
1021.3193	2944.3431	3083.6	2202.15
1021.4334	2945.4375	2980.2	2097.25
1021.5476	2946.5313	2876.15	1993.45
1021.6617	2947.6244	2780.85	1896.8
1021.7757	2948.7169	2678.2	1794.7
1021.8897	2949.8087	2581.95	1697.85
1022.0037	2950.8999	2507.1	1621.9
1022.1176	2951.9904	2415	1532.65
1022.2315	2953.0803	2340.45	1458.3
1022.3453	2954.1696	2280	1398
1022.4591	2955.2582	2240.6	1357.95
1022.5728	2956.3462	2182.85	1301.2
1022.6865	2957.4335	2128.55	1244.95
1022.8002	2958.5202	2107.2	1221.8
1022.9138	2959.6062	2084.05	1202.4
1023.0274	2960.6916	2057.45	1173
1023.141	2961.7764	2036.1	1151.7
1023.2545	2962.8605	2017.9	1132.35
1023.3679	2963.9439	2005.4	1123.85
1023.4813	2965.0267	1994.5	1109.7
1023.5947	2966.1089	2006.35	1100.75
1023.708	2967.1905	1978.85	1096.6
1023.8213	2968.2714	1983.9	1103.55
1023.9346	2969.3516	1986.3	1103.15
1024.0478	2970.4312	1988.95	1098.4
1024.1609	2971.5102	1984.5	1103
1024.274	2972.5885	1996.1	1111.5
1024.3871	2973.6662	1989.15	1101.55
1024.5002	2974.7432	1982.15	1100.1
1024.6132	2975.8196	1975.75	1092.35
1024.7261	2976.8954	1974.2	1090.65
1024.839	2977.9705	1968.55	1087.25
1024.9519	2979.045	1955.45	1071.5
1025.0647	2980.1188	1941.15	1056.35
1025.1775	2981.192	1922.15	1041.8
1025.2902	2982.2645	1906	1021.9
1025.4029	2983.3364	1874.9	991.1
1025.5156	2984.4077	1854.45	972.1
1025.6282	2985.4783	1834.95	947.1
1025.7407	2986.5483	1802.25	922.2
1025.8532	2987.6177	1767.35	883.9
1025.9657	2988.6864	1728.45	845.4
1026.0782	2989.7545	1699.35	814.65
1026.1906	2990.8219	1659.7	777.2
1026.3029	2991.8887	1632.85	746.45
1026.4152	2992.9548	1604.7	723.1
1026.5275	2994.0204	1556.95	675.7
1026.6397	2995.0852	1533.75	653.3
1026.7519	2996.1495	1517.35	633.5
1026.864	2997.2131	1485.15	603.25
1026.9761	2998.276	1470.4	587.2
1027.0882	2999.3383	1450.95	566.55
1027.2002	3000.4	1432.45	548.65
1027.3122	3001.4611	1412.05	529.45
1027.4241	3002.5215	1395.9	514
1027.536	3003.5812	1377.25	494.35
1027.6478	3004.6404	1365.5	481.4
1027.7596	3005.6989	1355.05	472.1
1027.8714	3006.7567	1348.4	466.55
1027.9831	3007.8139	1366.1	456.35
1028.0947	3008.8705	1329.95	446.6
1028.2064	3009.9264	1343.55	443.9
1028.3179	3010.9818	1320.5	435.75
1028.4295	3012.0364	1311.05	427.8
1028.541	3013.0905	1310.05	426.75
1028.6524	3014.1439	1300.5	418.2
1028.7638	3015.1966	1304.3	422.25
1028.8752	3016.2487	1295.3	413
1028.9865	3017.3002	1299.1	410.5
1029.0978	3018.3511	1284.65	404.25
1029.209	3019.4013	1291.9	410.3
1029.3202	3020.4509	1287.9	403.8
1029.4314	3021.4998	1285.55	403.3
1029.5425	3022.5481	1290.75	408.7
1029.6535	3023.5958	1288.4	405.85
1029.7645	3024.6428	1287.4	404.75
1029.8755	3025.6892	1286.9	403.15
1029.9864	3026.735	1287.2	404.5
1030.0973	3027.7802	1292.8	411.4
1030.2082	3028.8247	1290.1	408.2
1030.319	3029.8685	1294.4	412.3
1030.4297	3030.9118	1292.4	408.85
1030.5404	3031.9544	1295.8	413.1
1030.6511	3032.9963	1304.1	419.5
1030.7617	3034.0376	1300.3	417.45
1030.8723	3035.0783	1310.55	423.3
1030.9829	3036.1184	1312.75	427.05
1031.0934	3037.1578	1310.3	429.15
1031.2038	3038.1966	1322.9	439.25
1031.3142	3039.2348	1316.35	435.2
1031.4246	3040.2723	1324.65	435.8
1031.5349	3041.3092	1313.5	430.95
1031.6452	3042.3455	1316.2	435.4
1031.7554	3043.3811	1310.6	428.25
1031.8656	3044.4161	1306.45	423.7
1031.9758	3045.4505	1307.2	426.05
1032.0859	3046.4842	1300.85	415.25
1032.1959	3047.5173	1300.9	419.05
1032.3059	3048.5498	1297.25	413.4
1032.4159	3049.5816	1294.55	413.1
1032.5258	3050.6128	1295.65	412.45
1032.6357	3051.6434	1286.85	403.7
1032.7455	3052.6734	1281	397.25
1032.8553	3053.7027	1272.9	393
1032.9651	3054.7314	1270	386.15
1033.0748	3055.7594	1268.4	385
1033.1845	3056.7868	1262.9	379.5
1033.2941	3057.8136	1257.5	375.55
1033.4037	3058.8398	1254.25	372.15
1033.5132	3059.8653	1250.05	367.4
1033.6227	3060.8902	1244.85	360.1
1033.7321	3061.9145	1246.85	362.95
1033.8415	3062.9381	1240.35	357.45
1033.9509	3063.9612	1253.25	355.05
1034.0602	3064.9835	1231.3	348.45
1034.1694	3066.0053	1234.4	350.5
1034.2787	3067.0264	1221.1	337.05
1034.3878	3068.0469	1219.05	335.1
1034.497	3069.0668	1212.55	327.95
1034.6061	3070.086	1201.9	320.25
1034.7151	3071.1046	1199.5	313.8
1034.8241	3072.1226	1192.6	310.1
1034.9331	3073.1399	1180.55	297.7
1035.042	3074.1567	1176.05	292.35
1035.1508	3075.1727	1170.2	284.95
1035.2597	3076.1882	1160.1	278.35
1035.3684	3077.203	1161.45	279
1035.4772	3078.2173	1152.5	268.25
1035.5859	3079.2308	1142.25	255.85
1035.6945	3080.2438	1137.25	252.55
1035.8031	3081.2561	1123.8	242.2
1035.9117	3082.2678	1117.8	235.15
1036.0202	3083.2789	1112.85	231.55
1036.1286	3084.2893	1109.45	226.6
1036.2371	3085.2991	1101.35	217.15
1036.3454	3086.3083	1101.15	215.35
1036.4538	3087.3169	1096.5	213.25
1036.562	3088.3248	1086.3	202.9
1036.6703	3089.3321	1083.15	199.5
1036.7785	3090.3388	1078.35	196.65
1036.8866	3091.3449	1072.65	189.25
1036.9948	3092.3503	1072.1	186.55
1037.1028	3093.3551	1069.1	190.35
1037.2108	3094.3593	1067.2	184.85
1037.3188	3095.3629	1066.15	184.9
1037.4267	3096.3658	1063.7	180.35
1037.5346	3097.3681	1060.2	176.75
1037.6425	3098.3698	1058.3	173.3
1037.7503	3099.3708	1058.65	169.65
1037.858	3100.3713	1049.3	167.25
1037.9657	3101.3711	1050	167.7
1038.0734	3102.3702	1186.55	162.1
1038.181	3103.3688	1044.35	160.05
1038.2886	3104.3667	1043.75	163.55
1038.3961	3105.364	1044.9	161.8
1038.5036	3106.3607	1037.35	153.55
1038.611	3107.3568	1037.2	152.65
1038.7184	3108.3522	1034.1	152.6
1038.8257	3109.347	1035.8	153.2
1038.933	3110.3412	1030.65	144.25
1039.0403	3111.3348	1030.9	149.25
1039.1475	3112.3277	1024.05	142.05
1039.2547	3113.32	1026.85	145.35
1039.3618	3114.3117	1024.6	141.3
1039.4689	3115.3028	1023.1	142.95
1039.5759	3116.2932	1025	141.55
1039.6829	3117.2831	1027.7	138.9
1039.7898	3118.2723	1020.2	137.7
1039.8967	3119.2608	1016.9	134
1040.0035	3120.2488	1013.85	129.15
1040.1103	3121.2361	1015.75	135.25
1040.2171	3122.2229	1011.75	127.65
1040.3238	3123.209	1013.65	126.85
1040.4305	3124.1944	1009.3	127.25
1040.5371	3125.1793	1011.05	126.4
1040.6437	3126.1635	1008.9	127.25
1040.7502	3127.1471	1009.1	126.3
1040.8567	3128.1301	1006.35	123.85
1040.9631	3129.1125	1009.45	127.35
1041.0695	3130.0942	1006.75	122.2
1041.1759	3131.0753	1012.1	120.35
1041.2822	3132.0558	1005.05	118.5
1041.3884	3133.0357	1001.35	119.1
1041.4946	3134.015	999.7	117.6
1041.6008	3134.9936	1002.15	117.4
1041.7069	3135.9716	1021.45	118.1
1041.813	3136.949	999.25	116.75
1041.919	3137.9258	1014.35	113.55
1042.025	3138.902	1001.35	111.6
1042.1309	3139.8775	992.25	109.3
1042.2368	3140.8524	989.95	106.8
1042.3427	3141.8267	992.85	108.1
1042.4485	3142.8004	990.2	106.3
1042.5542	3143.7735	998.35	110.15
1042.6599	3144.7459	991.8	107.05
1042.7656	3145.7178	987.45	104.85
1042.8712	3146.689	988.7	107.6
1042.9768	3147.6596	987.35	102.4
1043.0823	3148.6295	987.15	103.45
1043.1878	3149.5989	983.5	100.05
1043.2932	3150.5676	981.15	99.4
1043.3986	3151.5357	981.9	101.2
1043.5039	3152.5032	984.9	102.9
1043.6092	3153.4701	983.1	101.65
1043.7145	3154.4364	982.6	97.6
1043.8197	3155.402	981.45	101.7
1043.9248	3156.367	978.45	92.8
1044.03	3157.3315	1009.75	97.05
1044.135	3158.2952	979.35	97.25
1044.24	3159.2584	978.45	97.55
1044.345	3160.221	973.85	90.05
1044.4499	3161.1829	975.5	91.8
1044.5548	3162.1442	973.7	93.05
1044.6596	3163.105	974.35	91.65
1044.7644	3164.065	974.5	89.65
1044.8692	3165.0245	978	92.8
1044.9739	3165.9834	973.75	91.9
1045.0785	3166.9416	971.5	88.3
1045.1831	3167.8993	974.4	89.85
1045.2877	3168.8563	972.3	88.25
1045.3922	3169.8127	970.85	87.05
1045.4966	3170.7684	970.15	88.45
1045.6011	3171.7236	970.55	86
1045.7054	3172.6782	966.8	83.7
1045.8098	3173.6321	972.65	88.05
1045.914	3174.5854	972	83.65
1046.0183	3175.5381	968.75	87.85
1046.1224	3176.4902	966.1	82.05
1046.2266	3177.4417	963	80.8
1046.3307	3178.3926	965.35	84.4
1046.4347	3179.3428	963.45	82.8
1046.5387	3180.2924	963.4	81.3
1046.6427	3181.2415	963.75	81.65
1046.7466	3182.1899	966	80.55
1046.8504	3183.1377	960.8	79.2
1046.9542	3184.0848	964.8	80
1047.058	3185.0314	963.4	79
1047.1617	3185.9773	962	76.7
1047.2654	3186.9227	961.8	77.85
1047.369	3187.8674	959.45	79.1
1047.4726	3188.8115	965.25	79.15
1047.5761	3189.755	958.3	76.25
1047.6796	3190.6979	956.7	74.95
1047.783	3191.6402	957.95	77.15
1047.8864	3192.5818	954.2	72.4
1047.9898	3193.5229	975	71.65
1048.0931	3194.4633	960.35	76.1
1048.1963	3195.4031	958.8	75.55
1048.2995	3196.3423	953.9	71.6
1048.4027	3197.2809	957.85	75.7
1048.5058	3198.2189	956.5	73.25
1048.6089	3199.1563	972.55	71.1
1048.7119	3200.0931	955.5	73.05
1048.8148	3201.0292	953.2	70.3
1048.9178	3201.9648	952.95	72.35
1049.0206	3202.8997	954.15	66.6
1049.1235	3203.834	951.55	70.05
1049.2262	3204.7677	952.5	70.4
1049.329	3205.7008	952.45	69.85
1049.4317	3206.6333	951.85	71.3
1049.5343	3207.5652	953.9	68.75
1049.6369	3208.4964	951	67.6
1049.7394	3209.4271	947.75	66.35
1049.8419	3210.3571	948.4	64.4
1049.9444	3211.2865	948.2	65.2
1050.0468	3212.2154	950.75	65.95
1050.1491	3213.1436	949.6	65.6
1050.2514	3214.0712	956.7	69.2
1050.3537	3214.9982	949.6	67.4
1050.4559	3215.9246	950.65	68.1
1050.5581	3216.8503	948.9	67.4
1050.6602	3217.7755	945.45	63.85
1050.7623	3218.7001	946.5	65.8
1050.8643	3219.624	946.9	63.85
1050.9663	3220.5473	948	65.8
1051.0682	3221.4701	947.45	61.1
1051.1701	3222.3922	949.7	65.75
1051.2719	3223.3137	947	64.5
1051.3737	3224.2346	944.1	61.6
1051.4754	3225.1549	942.8	60.3
1051.5771	3226.0746	945.95	64.95
1051.6788	3226.9937	945.95	62.5
1051.7804	3227.9121	942.2	60.3
1051.8819	3228.83	939.1	57.1
1051.9834	3229.7473	945.55	62.35
1052.0849	3230.6639	941.1	60.35
1052.1863	3231.5799	942.75	61.75
1052.2876	3232.4954	943.25	59.4
1052.3889	3233.4102	941.45	58.65
1052.4902	3234.3244	943.2	61.7
1052.5914	3235.238	941.65	60.1
1052.6926	3236.151	965.3	59.65
1052.7937	3237.0634	935.55	54.15
1052.8948	3237.9752	937.85	54.9
1052.9958	3238.8864	940.95	58.45
1053.0968	3239.797	938.45	56.55
1053.1977	3240.7069	940.6	54.75
1053.2986	3241.6163	939.05	54.2
1053.3994	3242.5251	938.9	57.5
1053.5002	3243.4332	934.75	54.65
1053.6009	3244.3408	935.2	54.45
1053.7016	3245.2477	936.75	54.05
1053.8022	3246.154	939	57.3
1053.9028	3247.0598	935.05	51.1
1054.0034	3247.9649	937.15	54.6
1054.1039	3248.8694	936.55	54.3
1054.2043	3249.7733	933.2	51.8
1054.3047	3250.6766	934.15	53.8
1054.4051	3251.5793	935.2	51.05
1054.5054	3252.4814	932.45	51.25
1054.6056	3253.3829	932.25	47.9
1054.7058	3254.2838	931.5	46.7
1054.806	3255.1841	931.45	49.5
1054.9061	3256.0838	929.25	47.55
1055.0061	3256.9829	928.5	45
1055.1062	3257.8814	933.15	48.4
1055.2061	3258.7792	931.45	46.05
1055.306	3259.6765	930.45	46.4
1055.4059	3260.5731	926.95	45.05
1055.5057	3261.4692	930.3	48.95
1055.6055	3262.3647	929.25	46.4
1055.7052	3263.2595	925.3	44.1
1055.8049	3264.1538	924	41.6
1055.9045	3265.0474	926.65	44.55
1056.0041	3265.9404	922.15	41.2
1056.1036	3266.8329	924	42.75
1056.2031	3267.7247	933.65	42.65
1056.3025	3268.616	920.75	42.85
1056.4019	3269.5066	920.4	38.25
1056.5013	3270.3966	921.45	38.85
1056.6005	3271.286	918.05	36.95
