Software Version:	3.9.2.0
Unit SN:	10000200
Spectrometer SN:	6960
Date:	3/14/2024 1:10:06 PM
Data Line Index:	25
Spectral Points:	2048
Integration time (ms):	125
Averages:	20
Delay (ms):	30000
Sequence Number:	1
Processing:	dark subtract
Laser Power (mW):	305
Laser Current (mA):	823
Laser Diode Temp (C):	25.1
Laser Case Temp (C):	28.1
System Temp (C):	28.1
Spectrometer Temp (C):	26
CCD Temp (C):	0.005
Secondary Temp (C):	20.008
Heatsink Temp (C):	24.028
CCDPCB Temp (C):	36.974
SecondaryPCB Temp (C):	35.24

Wavelength	RamanShift	Raw Counts	Dark Subtracted
787.061	30.1047	434.3	23.8
787.2016	32.3739	432.6	24.6
787.3422	34.6426	438.1	28.25
787.4828	36.9109	440.5	28.9
787.6235	39.1787	446.2	29.8
787.7642	41.4461	452.4	30.05
787.9049	43.7131	457.9	34.15
788.0456	45.9796	465.85	38.15
788.1863	48.2456	472.1	38.85
788.3271	50.5112	481.4	45.2
788.4679	52.7764	483.1	43.65
788.6087	55.0411	489.45	48.45
788.7496	57.3054	500.3	54.2
788.8904	59.5692	504.35	53.5
789.0313	61.8326	513.05	59.1
789.1722	64.0955	520.6	63.1
789.3132	66.3579	534.05	69.65
789.4541	68.6199	545.35	78.15
789.5951	70.8815	564.25	95.75
789.7361	73.1426	608.9	137.4
789.8771	75.4032	711.4	234.7
790.0181	77.6634	979.1	496.15
790.1592	79.9231	1586.4	1100.85
790.3003	82.1824	2902.35	2406.95
790.4414	84.4412	5205.5	4701.75
790.5825	86.6995	8359.6	7837.35
790.7237	88.9574	11474.35	10935.4
790.8648	91.2148	13706.45	13162.9
791.006	93.4717	14755.35	14203
791.1472	95.7282	14974.4	14420.1
791.2885	97.9842	14902.5	14345.3
791.4297	100.2398	14550.75	13990.55
791.571	102.4949	14170.05	13608.75
791.7123	104.7495	13738.8	13170.15
791.8536	107.0036	13314.8	12743.25
791.9949	109.2573	12922.45	12356.3
792.1363	111.5105	12543.3	11972.6
792.2777	113.7632	12222.05	11651.5
792.4191	116.0154	11951.45	11370.75
792.5605	118.2672	11762.95	11186.7
792.7019	120.5185	11564.35	10988.65
792.8434	122.7693	11426.95	10848.7
792.9849	125.0197	11273.7	10693.5
793.1264	127.2696	11147.75	10564.25
793.2679	129.519	11049.75	10462.4
793.4094	131.7679	10969.35	10380.05
793.551	134.0163	10817.85	10226.05
793.6926	136.2642	10669.95	10075.2
793.8342	138.5117	10510.5	9907.85
793.9758	140.7587	10319.9	9719.55
794.1175	143.0052	10187.15	9584.75
794.2591	145.2512	10035.6	9432.95
794.4008	147.4967	9851.95	9247.45
794.5425	149.7417	9735.95	9128.7
794.6842	151.9863	9624	9013.4
794.826	154.2304	9570.05	8954.7
794.9677	156.4739	9511.5	8891.7
795.1095	158.717	9470.4	8852.2
795.2513	160.9596	9403.8	8781.15
795.3931	163.2017	9290.75	8664.35
795.535	165.4433	9164.4	8537.1
795.6768	167.6844	9017.75	8387
795.8187	169.925	8868.4	8237
795.9606	172.1651	8708.65	8068.55
796.1025	174.4047	8578.6	7938.4
796.2445	176.6439	8450.3	7811.3
796.3864	178.8825	8336.7	7693.35
796.5284	181.1206	8279.45	7632.85
796.6704	183.3582	8206.8	7556.65
796.8124	185.5954	8166.1	7510.55
796.9544	187.832	8130.3	7473.4
797.0965	190.0681	8099.3	7440.7
797.2386	192.3037	8111.15	7448.85
797.3806	194.5388	8090.75	7427.95
797.5228	196.7734	8107.1	7441.9
797.6649	199.0075	8147.9	7477.25
797.807	201.2411	8187.25	7514.35
797.9492	203.4742	8212.75	7536.4
798.0914	205.7068	8302.95	7626.8
798.2336	207.9389	8326.95	7650.2
798.3758	210.1704	8417	7739.6
798.518	212.4015	8452.45	7772.15
798.6603	214.632	8510.45	7826.95
798.8025	216.862	8582.05	7905.8
798.9448	219.0915	8602.15	7928.75
799.0871	221.3205	8626.95	7960.15
799.2294	223.549	8680.55	8021
799.3718	225.777	8720.4	8060.55
799.5141	228.0044	8748.5	8084.85
799.6565	230.2314	8786.15	8123.7
799.7989	232.4578	8848.3	8186.3
799.9413	234.6837	8866.05	8194
800.0837	236.909	8929.45	8256.6
800.2262	239.1339	8925.35	8231.5
800.3687	241.3582	8889.25	8209.15
800.5111	243.582	8862.2	8156.35
800.6536	245.8053	8800.85	8104.4
800.7961	248.0281	8769.7	8077
800.9387	250.2503	8761.3	8066.7
801.0812	252.472	8776.75	8074.55
801.2238	254.6932	8838.2	8134.5
801.3664	256.9139	8851.4	8144.4
801.509	259.134	8932	8221.3
801.6516	261.3536	9032.9	8327.55
801.7942	263.5727	9159	8449.4
801.9369	265.7912	9277.85	8568.1
802.0795	268.0092	9412.3	8700.2
802.2222	270.2267	9508.95	8793.5
802.3649	272.4436	9582.3	8869
802.5076	274.6601	9610.75	8889.85
802.6504	276.8759	9584.3	8869.05
802.7931	279.0913	9535.85	8816.05
802.9359	281.3061	9489	8767.7
803.0787	283.5204	9470.75	8752.95
803.2215	285.7341	9471.2	8745.65
803.3643	287.9473	9458.4	8730.85
803.5071	290.16	9491.95	8757.3
803.6499	292.3721	9504.5	8777.4
803.7928	294.5837	9584.45	8853.45
803.9357	296.7947	9656.05	8930.15
804.0786	299.0052	9740.2	9008.95
804.2215	301.2152	9723.15	8988.75
804.3644	303.4246	9637.15	8910.5
804.5074	305.6334	9497.95	8767.45
804.6503	307.8418	9335.45	8603.3
804.7933	310.0495	9136.45	8404.7
804.9363	312.2568	8943.3	8211.7
805.0793	314.4635	8731.5	7997.85
805.2223	316.6696	8587.3	7855.3
805.3653	318.8752	8463.3	7717.45
805.5084	321.0802	8414.6	7677
805.6514	323.2847	8417	7676.4
805.7945	325.4887	8440.8	7702.45
805.9376	327.692	8432	7692.2
806.0807	329.8949	8426.65	7686.5
806.2238	332.0972	8362.35	7616.7
806.367	334.2989	8261.25	7512.3
806.5101	336.5001	8153.3	7403.7
806.6533	338.7007	8035.9	7289.1
806.7965	340.9008	7971.75	7224.8
806.9397	343.1003	7844.5	7094.3
807.0829	345.2992	7813.05	7061.45
807.2261	347.4976	7763.4	7009.5
807.3693	349.6955	7683.75	6926.55
807.5126	351.8927	7679.75	6921.35
807.6559	354.0895	7660.45	6891.2
807.7991	356.2856	7623.45	6866.05
807.9424	358.4812	7578.85	6819.15
808.0857	360.6763	7574.15	6813.8
808.2291	362.8707	7557.1	6796.3
808.3724	365.0646	7584.15	6821.25
808.5158	367.258	7584.45	6819.45
808.6591	369.4508	7609.2	6839.8
808.8025	371.643	7660.85	6890.4
808.9459	373.8346	7690.25	6918.6
809.0893	376.0257	7748	6972.85
809.2327	378.2162	7770.9	6997.4
809.3762	380.4062	7761.5	6983.95
809.5196	382.5956	7712.3	6935.9
809.6631	384.7844	7669.85	6893.35
809.8066	386.9726	7560	6780.05
809.9501	389.1603	7500.2	6721.7
810.0936	391.3474	7499.7	6686.7
810.2371	393.5339	7468.1	6687.45
810.3806	395.7199	7418.15	6643.65
810.5241	397.9052	7459	6686.3
810.6677	400.09	7475.9	6703.85
810.8113	402.2743	7546.1	6774.8
810.9548	404.4579	7642.05	6870.6
811.0984	406.641	7728.7	6958.1
811.2421	408.8235	7826.9	7051.75
811.3857	411.0054	7875.5	7101.2
811.5293	413.1868	8011.5	7236.85
811.673	415.3675	8058.7	7282.65
811.8166	417.5477	8050.6	7274
811.9603	419.7273	7974.1	7194.75
812.104	421.9064	7904.15	7116.95
812.2477	424.0848	7846	7062.45
812.3914	426.2627	7771.95	6983.05
812.5351	428.4399	7650.9	6864.2
812.6788	430.6166	7508.3	6715.5
812.8226	432.7928	7332.15	6536.85
812.9663	434.9683	7181.75	6391.55
813.1101	437.1432	7079.25	6283.65
813.2539	439.3176	6972.25	6175.9
813.3977	441.4914	6937.15	6141.15
813.5415	443.6645	6911.85	6114.1
813.6853	445.8371	6876.75	6078.25
813.8291	448.0091	6830.4	6035.35
813.973	450.1806	6840.4	6043.4
814.1168	452.3514	6826.6	6025.35
814.2607	454.5216	6851.6	6043.45
814.4046	456.6913	6818.65	6016.6
814.5485	458.8603	6816.15	6014.75
814.6924	461.0288	6861.95	6061.8
814.8363	463.1967	6843.9	6040.7
814.9802	465.3639	6825.25	6021.55
815.1241	467.5306	6810.75	6007.95
815.2681	469.6967	6810.85	6007.3
815.412	471.8622	6820.45	6015.4
815.556	474.0271	6846.85	6044.05
815.7	476.1914	6836.55	6030.05
815.844	478.3551	6841.6	6037.15
815.988	480.5182	6847.4	6040.2
816.132	482.6807	6882.85	6074.4
816.276	484.8426	6959.65	6151.5
816.4201	487.0039	7122	6313.5
816.5641	489.1647	7296.95	6487.45
816.7082	491.3248	7448.5	6639.95
816.8522	493.4843	7484.3	6673.85
816.9963	495.6432	7450.75	6643.65
817.1404	497.8015	7371.55	6559.85
817.2845	499.9592	7306.45	6496.15
817.4286	502.1163	7214.85	6406.3
817.5727	504.2728	7045.55	6234.5
817.7168	506.4287	6928.4	6116.45
817.861	508.5839	6797.4	5983.75
818.0051	510.7386	6690.75	5878.45
818.1493	512.8927	6654	5833.15
818.2935	515.0461	6623.95	5808.5
818.4377	517.199	6666.15	5852
818.5818	519.3512	6747.1	5932.9
818.726	521.5029	6860.35	6040.45
818.8703	523.6539	6982.25	6163.55
819.0145	525.8043	7051.45	6234.5
819.1587	527.9541	6998.35	6179.4
819.303	530.1033	6912	6092.75
819.4472	532.2519	6802.95	5986.65
819.5915	534.3999	6762.35	5940.45
819.7357	536.5472	6779.45	5962.6
819.88	538.694	6853.85	6033.75
820.0243	540.8401	6972.4	6152.5
820.1686	542.9856	7069.6	6246.3
820.3129	545.1305	7072	6249.75
820.4572	547.2748	7042.85	6218.55
820.6016	549.4185	6970.95	6148.8
820.7459	551.5615	6915.1	6090.4
820.8902	553.704	6886.85	6060.5
821.0346	555.8458	6941.65	6115.35
821.1789	557.987	6986.85	6161.6
821.3233	560.1276	7095.35	6267.9
821.4677	562.2675	7276.6	6452.2
821.6121	564.4069	7504.55	6679.2
821.7565	566.5456	7719.7	6897.7
821.9009	568.6837	7790.8	6964.6
822.0453	570.8212	7616.15	6792.6
822.1897	572.958	7305.95	6477.15
822.3342	575.0942	6991.45	6167.8
822.4786	577.2299	6785.45	5960.45
822.6231	579.3648	6675	5848.75
822.7675	581.4992	6613.55	5787.2
822.912	583.6329	6661.4	5834.7
823.0565	585.766	6706.8	5879.2
823.201	587.8985	6794.2	5968.45
823.3454	590.0304	6853.85	6002.3
823.4899	592.1616	6818.4	5986.3
823.6345	594.2922	6762.5	5933.15
823.779	596.4222	6682.55	5853.05
823.9235	598.5515	6568.7	5739.15
824.068	600.6802	6487.4	5655.65
824.2126	602.8083	6401.85	5570.35
824.3571	604.9358	6385.65	5552.35
824.5017	607.0626	6394.2	5563.65
824.6462	609.1888	6440.05	5605.6
824.7908	611.3144	6487.9	5653.9
824.9354	613.4393	6533.3	5701.55
825.08	615.5636	6610.65	5775.2
825.2246	617.6873	6631.05	5796.65
825.3692	619.8103	6593.25	5758.85
825.5138	621.9327	6537.2	5699.8
825.6584	624.0544	6426.85	5591.4
825.803	626.1756	6310.85	5475.85
825.9477	628.2961	6245.35	5410.95
826.0923	630.4159	6184.65	5349.7
826.237	632.5351	6174.65	5339.6
826.3816	634.6537	6166.85	5328.8
826.5263	636.7716	6158.65	5321.5
826.6709	638.8889	6177.05	5339.35
826.8156	641.0056	6167.9	5330
826.9603	643.1216	6171.95	5333.05
827.105	645.237	6165.2	5322.9
827.2497	647.3518	6109.55	5269.85
827.3944	649.4659	6094.8	5253.4
827.5391	651.5793	6060	5219.25
827.6838	653.6922	6030.05	5192.55
827.8285	655.8043	6004.25	5162.2
827.9733	657.9159	5997.3	5156.55
828.118	660.0268	5971.95	5128.3
828.2627	662.137	5990.35	5147.65
828.4075	664.2466	5986.1	5141.3
828.5522	666.3556	5970.25	5129.05
828.697	668.4639	5956.35	5110.15
828.8418	670.5716	5930.9	5089.35
828.9865	672.6786	5912.5	5068.9
829.1313	674.785	5876.2	5032.5
829.2761	676.8907	5864.95	5019.85
829.4209	678.9958	5860.9	5018.95
829.5657	681.1002	5842.5	4998.05
829.7105	683.204	5832.6	4981.95
829.8553	685.3072	5827.45	4981.05
830.0001	687.4097	5791.9	4947.35
830.1449	689.5115	5787.15	4941
830.2898	691.6127	5792	4946.2
830.4346	693.7132	5772.2	4925.85
830.5794	695.8131	5789.35	4935.25
830.7243	697.9123	5800.55	4950.95
830.8691	700.0109	5791.3	4944.3
831.014	702.1089	5802.95	4956.6
831.1588	704.2061	5831.35	4983.65
831.3037	706.3028	5865.75	5016.5
831.4486	708.3987	5899.6	5052.2
831.5935	710.4941	5885.3	5035.8
831.7383	712.5887	5906.7	5056.3
831.8832	714.6827	5954.95	5102.1
832.0281	716.7761	5978.4	5128.75
832.173	718.8688	6059.35	5206.45
832.3179	720.9608	6128.35	5273.5
832.4628	723.0522	6192.5	5339.35
832.6077	725.1429	6210.05	5361.6
832.7527	727.233	6220.1	5369.25
832.8976	729.3224	6294.9	5444.9
833.0425	731.4112	6275.2	5419.75
833.1874	733.4993	6185.6	5330.2
833.3324	735.5867	6062.4	5208.9
833.4773	737.6735	5951.3	5096.4
833.6222	739.7596	5852.9	4998.15
833.7672	741.845	5795.75	4942.4
833.9122	743.9298	5764.1	4906.7
834.0571	746.014	5728.9	4875.25
834.2021	748.0974	5728.6	4873.5
834.347	750.1802	5723.65	4867.8
834.492	752.2624	5733.35	4882.3
834.637	754.3439	5748.05	4891.4
834.782	756.4247	5786.25	4924
834.9269	758.5048	5842.85	4988.35
835.0719	760.5843	5948.3	5094.25
835.2169	762.6631	6091.8	5238.75
835.3619	764.7413	6345.2	5489.7
835.5069	766.8188	6691.4	5833.15
835.6519	768.8956	6957.95	6098.25
835.7969	770.9718	7164.9	6310.95
835.9419	773.0473	7136.2	6280.4
836.0869	775.1221	7054.3	6197.5
836.232	777.1962	6902.65	6045.7
836.377	779.2697	6879.2	6018.15
836.522	781.3426	6961.75	6094.7
836.667	783.4147	7007.7	6148.9
836.8121	785.4862	7011.95	6156.25
836.9571	787.557	6929.15	6070
837.1021	789.6271	6721.3	5861.85
837.2472	791.6966	6404.05	5544.8
837.3922	793.7654	6098.7	5238.25
837.5373	795.8335	5882.75	5022.1
837.6823	797.901	5739.55	4881.15
837.8274	799.9678	5661.2	4800.1
837.9724	802.0339	5592.95	4733.45
838.1175	804.0993	5571.35	4704
838.2626	806.1641	5525.3	4664.55
838.4076	808.2282	5510.5	4653.15
838.5527	810.2916	5480.3	4619.05
838.6978	812.3544	5431.6	4571.6
838.8428	814.4164	5398.25	4539.95
838.9879	816.4778	5408.35	4545.15
839.133	818.5385	5437	4575.05
839.2781	820.5986	5491.95	4631.3
839.4232	822.658	5582.15	4720.95
839.5682	824.7166	5737.85	4877.95
839.7133	826.7747	5982.15	5122.7
839.8584	828.832	6222.85	5361.4
840.0035	830.8886	6427.65	5565.4
840.1486	832.9446	6532.4	5668.6
840.2937	834.9999	6453.45	5594.85
840.4388	837.0545	6312.8	5449.3
840.5839	839.1085	6125.8	5264.25
840.729	841.1618	5978.4	5113.65
840.8741	843.2143	5859	4997.1
841.0192	845.2662	5739.3	4877
841.1643	847.3175	5694.7	4834.85
841.3095	849.368	5617.6	4755.15
841.4546	851.4179	5594.65	4734.9
841.5997	853.467	5529.15	4666.6
841.7448	855.5155	5522.7	4657.35
841.8899	857.5633	5461.4	4599.25
842.0351	859.6105	5410.2	4548.6
842.1802	861.6569	5380.65	4516.6
842.3253	863.7027	5359	4494.6
842.4704	865.7478	5330.5	4468.05
842.6156	867.7922	5296.05	4432.1
842.7607	869.8359	5288.4	4422.95
842.9058	871.8789	5285.45	4420.35
843.0509	873.9212	5332.2	4433.4
843.1961	875.9629	5327.9	4462.4
843.3412	878.0039	5389.7	4525.95
843.4863	880.0441	5397.65	4534
843.6315	882.0837	5436.55	4572.3
843.7766	884.1226	5454.25	4587.9
843.9218	886.1609	5502.9	4638.5
844.0669	888.1984	5566.65	4702.3
844.212	890.2352	5631.2	4768.75
844.3572	892.2714	5649.7	4781.55
844.5023	894.3069	5632.5	4767.05
844.6475	896.3416	5536.85	4669.5
844.7926	898.3757	5455.65	4589.75
844.9377	900.4091	5391.7	4524.6
845.0829	902.4418	5387.75	4516.8
845.228	904.4739	5392.1	4523.75
845.3732	906.5052	5429.9	4564.6
845.5183	908.5358	5415.95	4551.5
845.6635	910.5658	5361.6	4494.2
845.8086	912.595	5266.5	4401.15
845.9538	914.6236	5134.35	4269.05
846.0989	916.6515	5067.3	4200.3
846.2441	918.6786	5009.35	4141.8
846.3892	920.7051	5015.25	4146.45
846.5344	922.7309	5039.25	4173.85
846.6795	924.756	5029.9	4162.45
846.8246	926.7804	5069.7	4199.75
846.9698	928.8041	5060.75	4192.4
847.1149	930.8272	5073.25	4201.75
847.2601	932.8495	5062.9	4192.55
847.4052	934.8711	5077.05	4208.85
847.5504	936.892	5051.3	4182.2
847.6955	938.9123	5042.4	4171.55
847.8407	940.9318	5069.95	4199.45
847.9858	942.9506	5061.7	4193
848.131	944.9688	5049.4	4181
848.2761	946.9862	4998.55	4128.2
848.4213	949.003	4918.25	4050.6
848.5664	951.019	4852.4	3983.3
848.7115	953.0344	4832.05	3961
848.8567	955.0491	4798.4	3928.8
849.0018	957.063	4804.25	3934.5
849.147	959.0763	4859.05	3990.65
849.2921	961.0888	4866.3	3993.2
849.4373	963.1007	4893.55	4023.95
849.5824	965.1119	4900.55	4029.9
849.7275	967.1223	4867.8	3997.5
849.8727	969.1321	4869.95	3999.35
850.0178	971.1412	4862.1	3990.9
850.1629	973.1495	4853.15	3982.8
850.3081	975.1572	4875.35	3971.75
850.4532	977.1641	4858.25	3988.5
850.5983	979.1704	4835.7	3965.05
850.7435	981.1759	4814.65	3941.55
850.8886	983.1808	4813.4	3939.85
851.0337	985.1849	4830.75	3947.6
851.1788	987.1884	4851.1	3980.8
851.324	989.1911	4895.75	4023
851.4691	991.1932	4912	4039.35
851.6142	993.1945	4902.85	4031.45
851.7593	995.1951	4897.9	4026.05
851.9045	997.1951	4880.05	4001.65
852.0496	999.1943	4865.4	3996
852.1947	1001.1928	4873.05	4000.9
852.3398	1003.1906	4878	4006.5
852.4849	1005.1877	4944.55	4071.6
852.63	1007.1841	4999.4	4126.4
852.7751	1009.1798	5013.35	4143.25
852.9202	1011.1748	4968	4095.45
853.0653	1013.1691	4917.55	4045.3
853.2104	1015.1627	4806.8	3932.5
853.3555	1017.1556	4708.4	3837.1
853.5006	1019.1477	4644.9	3771.1
853.6457	1021.1392	4573.4	3704.2
853.7908	1023.1299	4548.85	3677
853.9359	1025.12	4573	3699.25
854.081	1027.1093	4590.05	3717.7
854.2261	1029.0979	4653.35	3782.6
854.3712	1031.0859	4702.6	3831.1
854.5163	1033.0731	4722.05	3849.15
854.6613	1035.0596	4694.45	3824
854.8064	1037.0454	4650.35	3778.05
854.9515	1039.0304	4579	3706.8
855.0965	1041.0148	4529.25	3655.85
855.2416	1042.9985	4491.15	3615.1
855.3867	1044.9814	4449.85	3576.15
855.5317	1046.9636	4420.8	3548.75
855.6768	1048.9452	4388.25	3516.35
855.8219	1050.926	4439.35	3567.95
855.9669	1052.9061	4450.75	3579.65
856.112	1054.8855	4458.15	3585.1
856.257	1056.8642	4474.3	3599.1
856.4021	1058.8421	4495.3	3616.15
856.5471	1060.8194	4509.75	3636.05
856.6921	1062.7959	4513	3638.4
856.8372	1064.7717	4536.6	3662
856.9822	1066.7469	4568.95	3696.5
857.1272	1068.7213	4622.8	3745.7
857.2723	1070.695	4632.45	3759.05
857.4173	1072.6679	4667.85	3792.2
857.5623	1074.6402	4684.6	3811.25
857.7073	1076.6117	4676.05	3795.8
857.8523	1078.5826	4622.2	3747.2
857.9973	1080.5527	4535.7	3659.25
858.1423	1082.5221	4466.15	3589.6
858.2873	1084.4908	4473.7	3600.3
858.4323	1086.4587	4456.9	3580.15
858.5773	1088.426	4478.9	3602.9
858.7223	1090.3925	4464.85	3583.25
858.8673	1092.3584	4491.2	3616.45
859.0123	1094.3235	4479.45	3604.6
859.1573	1096.2879	4533.6	3656.75
859.3022	1098.2515	4580.7	3704.15
859.4472	1100.2145	4658.75	3783.15
859.5922	1102.1767	4745.1	3867.1
859.7371	1104.1382	4859.15	3986.05
859.8821	1106.099	4992.05	4114.7
860.027	1108.0591	5082.9	4208.55
860.172	1110.0185	5170.05	4292.05
860.3169	1111.9771	5202.8	4328.6
860.4619	1113.9351	5178.05	4300.2
860.6068	1115.8923	5137.65	4264.25
860.7517	1117.8488	5077.6	4196.85
860.8967	1119.8045	4983.25	4107.15
861.0416	1121.7596	4884.2	4007.5
861.1865	1123.7139	4813.7	3939.1
861.3314	1125.6675	4766.9	3890.5
861.4763	1127.6204	4798.3	3921
861.6212	1129.5726	4786.4	3907.75
861.7661	1131.524	4735.45	3860.35
861.911	1133.4748	4672.4	3796.5
862.0559	1135.4248	4573.15	3694.35
862.2008	1137.3741	4516.75	3639.4
862.3457	1139.3226	4432.65	3553.2
862.4905	1141.2705	4413.1	3534.75
862.6354	1143.2176	4367.65	3484.6
862.7803	1145.164	4358.55	3482.8
862.9251	1147.1097	4323.65	3446.55
863.07	1149.0546	4279.2	3401.55
863.2148	1150.9989	4222	3347.45
863.3597	1152.9424	4164.05	3286.55
863.5045	1154.8852	4111.2	3236.9
863.6493	1156.8272	4085.8	3211.5
863.7942	1158.7686	4106	3224.1
863.939	1160.7092	4095.45	3217.4
864.0838	1162.6491	4133.8	3255.3
864.2286	1164.5883	4175.4	3300.25
864.3734	1166.5267	4236.55	3359.5
864.5182	1168.4644	4297.1	3417.8
864.663	1170.4014	4387.75	3506.05
864.8078	1172.3377	4489.6	3611.75
864.9526	1174.2732	4626.25	3749.75
865.0974	1176.2081	4822.7	3945.05
865.2421	1178.1421	5056.85	4174.6
865.3869	1180.0755	5318.95	4443.95
865.5317	1182.0082	5513.55	4635.7
865.6764	1183.9401	5590.5	4712.95
865.8212	1185.8713	5511.25	4634.4
865.9659	1187.8017	5336.95	4458.45
866.1106	1189.7315	5151	4276.05
866.2554	1191.6605	4950.2	4044.65
866.4001	1193.5888	4792.3	3914.45
866.5448	1195.5163	4690.55	3813.5
866.6895	1197.4432	4629.35	3752.3
866.8342	1199.3693	4611.05	3735.85
866.9789	1201.2947	4567.45	3682.15
867.1236	1203.2193	4565.55	3687.75
867.2683	1205.1432	4560.55	3680.7
867.413	1207.0664	4546.15	3670.75
867.5576	1208.9889	4529.2	3647.75
867.7023	1210.9106	4517.35	3640.9
867.847	1212.8316	4526.35	3651.15
867.9916	1214.7519	4572.7	3684.95
868.1363	1216.6715	4573.25	3695.85
868.2809	1218.5903	4616.35	3737.15
868.4255	1220.5084	4655.1	3776.85
868.5701	1222.4257	4703.7	3826.15
868.7148	1224.3424	4713.35	3837.2
868.8594	1226.2583	4785.5	3901.5
869.004	1228.1735	4873.45	3994
869.1486	1230.0879	4948.2	4067.85
869.2932	1232.0016	5068.85	4192
869.4377	1233.9146	5135.8	4255.05
869.5823	1235.8269	5162.35	4288.4
869.7269	1237.7384	5125.65	4247.6
869.8715	1239.6492	5071.05	4194.15
870.016	1241.5592	5063.3	4185.35
870.1606	1243.4686	5071.2	4193.85
870.3051	1245.3772	5178.4	4300.85
870.4496	1247.285	5307.7	4428.25
870.5941	1249.1922	5423.55	4543.6
870.7387	1251.0986	5510.1	4632.15
870.8832	1253.0042	5597.6	4720.1
871.0277	1254.9092	5657.9	4777.8
871.1722	1256.8134	5705.35	4829.65
871.3167	1258.7169	5781.5	4899.65
871.4611	1260.6196	5867.8	4989.7
871.6056	1262.5216	5947.25	5066.55
871.7501	1264.4229	6024.2	5147.5
871.8945	1266.3234	6123.45	5242.7
872.039	1268.2232	6177.15	5297.1
872.1834	1270.1223	6201.85	5323.85
872.3278	1272.0207	6222.3	5344.75
872.4723	1273.9183	6199.8	5313.25
872.6167	1275.8151	6148.8	5271
872.7611	1277.7113	6147.45	5267.05
872.9055	1279.6067	6207.2	5327.7
873.0499	1281.5014	6340.6	5458.1
873.1943	1283.3953	6574.1	5690.75
873.3386	1285.2885	6875.65	5996.85
873.483	1287.181	7189.25	6309.8
873.6274	1289.0727	7470.05	6592.65
873.7717	1290.9637	7686.15	6805.75
873.9161	1292.854	7794.45	6915.7
874.0604	1294.7435	7796.45	6917.1
874.2047	1296.6323	7709.85	6830.4
874.349	1298.5204	7592.75	6708.9
874.4933	1300.4077	7428.4	6547.25
874.6376	1302.2943	7277	6399.8
874.7819	1304.1802	7073.95	6196.5
874.9262	1306.0653	6829.05	5947.2
875.0705	1307.9497	6574.45	5694.6
875.2147	1309.8333	6359.95	5479.5
875.359	1311.7162	6182.75	5303.15
875.5032	1313.5984	6093	5210.45
875.6475	1315.4798	6013.3	5116.9
875.7917	1317.3605	5982.15	5086.15
875.9359	1319.2405	5932.45	5048.2
876.0801	1321.1197	5819.75	4937.65
876.2243	1322.9982	5644	4759.55
876.3685	1324.876	5488.95	4610.6
876.5127	1326.753	5324.95	4444
876.6569	1328.6293	5198.3	4317.3
876.801	1330.5048	5099.55	4217.65
876.9452	1332.3796	4994.15	4113.45
877.0893	1334.2537	4961.9	4054.85
877.2335	1336.127	4867.45	3988.65
877.3776	1337.9996	4843.2	3964.45
877.5217	1339.8714	4816.6	3934.1
877.6658	1341.7426	4840.35	3915.15
877.8099	1343.6129	4815.7	3936.05
877.954	1345.4826	4806.45	3926.45
878.0981	1347.3515	4809.25	3926.05
878.2422	1349.2196	4777.65	3895.85
878.3862	1351.087	4787.35	3905.7
878.5303	1352.9537	4811.65	3931.05
878.6743	1354.8197	4863.6	3982.3
878.8184	1356.6849	4930.7	4049.85
878.9624	1358.5493	5005.15	4122.9
879.1064	1360.4131	5092.25	4211.15
879.2504	1362.276	5189.05	4307.45
879.3944	1364.1383	5229.7	4349
879.5384	1365.9998	5173.75	4287.5
879.6823	1367.8606	5027.4	4145.85
879.8263	1369.7206	4884.6	4002.35
879.9702	1371.5799	4749.6	3867.95
880.1142	1373.4384	4623.25	3741.65
880.2581	1375.2962	4515.6	3632.4
880.402	1377.1533	4366.2	3487.2
880.5459	1379.0096	4199.55	3317.95
880.6898	1380.8652	4026.7	3147.05
880.8337	1382.7201	3912	3029.55
880.9776	1384.5742	3794.6	2915.1
881.1215	1386.4275	3710.55	2828.45
881.2653	1388.2802	3654.95	2775.9
881.4092	1390.132	3590.4	2709.9
881.553	1391.9832	3569.15	2686.65
881.6968	1393.8336	3544.35	2663.6
881.8406	1395.6832	3522.15	2637.65
881.9844	1397.5322	3485.4	2604.45
882.1282	1399.3803	3481.75	2595.05
882.272	1401.2278	3454.45	2570.3
882.4158	1403.0745	3445.35	2564.7
882.5595	1404.9204	3449.05	2568.4
882.7033	1406.7656	3449.3	2566.15
882.847	1408.6101	3458.1	2577.45
882.9908	1410.4538	3447.2	2565.6
883.1345	1412.2968	3479.1	2597.7
883.2782	1414.139	3508.6	2628.55
883.4219	1415.9805	3537.55	2655.25
883.5656	1417.8213	3576.35	2690.1
883.7092	1419.6613	3615	2732.35
883.8529	1421.5006	3689.85	2807.35
883.9965	1423.3391	3786	2903.35
884.1402	1425.1769	3920.9	3036.8
884.2838	1427.0139	4117.15	3238.15
884.4274	1428.8502	4385.9	3503
884.571	1430.6858	4612.5	3731.1
884.7146	1432.5206	4786.8	3905.65
884.8582	1434.3547	4888.05	4004.2
885.0018	1436.188	4909.4	4028
885.1453	1438.0206	4877.05	3995.8
885.2889	1439.8524	4787.1	3904.55
885.4324	1441.6835	4735.6	3855.05
885.5759	1443.5139	4691.7	3804.75
885.7194	1445.3435	4673.7	3791.8
885.8629	1447.1724	4653.95	3772.8
886.0064	1449.0005	4628.85	3748.45
886.1499	1450.8279	4617	3736.85
886.2933	1452.6545	4592	3709.15
886.4368	1454.4804	4617.45	3738.5
886.5802	1456.3056	4614.6	3727.5
886.7237	1458.13	4569	3687.85
886.8671	1459.9536	4495.15	3611.2
887.0105	1461.7766	4386.8	3506.5
887.1539	1463.5987	4251.15	3368.4
887.2972	1465.4202	4083.25	3201.6
887.4406	1467.2409	3947.9	3065.35
887.584	1469.0608	3815.25	2935.9
887.7273	1470.88	3687.05	2803.3
887.8706	1472.6984	3569.25	2687
888.0139	1474.5161	3505.6	2621.85
888.1572	1476.3331	3420.5	2539.1
888.3005	1478.1493	3377.5	2495.55
888.4438	1479.9648	3341.45	2458.25
888.5871	1481.7795	3307.35	2425.75
888.7303	1483.5935	3291	2410.5
888.8736	1485.4067	3266.6	2387
889.0168	1487.2192	3240.65	2359.75
889.16	1489.031	3224.1	2342.55
889.3032	1490.842	3205.05	2323.95
889.4464	1492.6522	3200.75	2317.4
889.5896	1494.4618	3183.4	2302
889.7327	1496.2705	3169.7	2288.5
889.8759	1498.0785	3154.3	2272.65
890.019	1499.8858	3139.05	2255.85
890.1622	1501.6924	3114.8	2235.3
890.3053	1503.4981	3103.6	2222.6
890.4484	1505.3032	3082.4	2201.15
890.5914	1507.1075	3062.25	2181.4
890.7345	1508.911	3056.8	2174.65
890.8776	1510.7138	3023.25	2140.55
891.0206	1512.5159	3009.45	2128.45
891.1637	1514.3172	3001.6	2120.4
891.3067	1516.1178	2977.9	2097.25
891.4497	1517.9176	2965	2079.8
891.5927	1519.7166	2937.15	2056.8
891.7357	1521.515	2923.7	2036
891.8786	1523.3126	2916.85	2034.45
892.0216	1525.1094	2906.65	2021.7
892.1645	1526.9055	2883.55	2004.05
892.3074	1528.7008	2886.95	2003.65
892.4503	1530.4954	2876.05	1989.85
892.5932	1532.2893	2867.4	1987.75
892.7361	1534.0824	2860.1	1974.55
892.879	1535.8747	2857.3	1975.35
893.0218	1537.6663	2863.6	1980.6
893.1647	1539.4572	2853.5	1969.6
893.3075	1541.2473	2863.25	1979.7
893.4503	1543.0367	2857.65	1975.2
893.5931	1544.8253	2860.55	1974.15
893.7359	1546.6132	2890.15	2007
893.8787	1548.4003	2883.45	1993.35
894.0214	1550.1867	2922.05	2032.25
894.1642	1551.9723	2929.6	2044.15
894.3069	1553.7572	2986.55	2101.25
894.4496	1555.5414	3037.45	2156.95
894.5923	1557.3247	3091.6	2209.65
894.735	1559.1074	3187.75	2306.65
894.8777	1560.8893	3258.65	2378.45
895.0204	1562.6705	3337.95	2456.55
895.163	1564.4509	3410.1	2526.35
895.3056	1566.2305	3443.9	2565.05
895.4482	1568.0094	3485.55	2604.55
895.5908	1569.7876	3477.65	2596.4
895.7334	1571.565	3487.3	2605.35
895.876	1573.3417	3486.1	2606.7
896.0186	1575.1176	3476.6	2595.2
896.1611	1576.8928	3474.65	2591.55
896.3036	1578.6672	3506.45	2626.05
896.4461	1580.4409	3519.55	2640.15
896.5886	1582.2138	3543.95	2661.3
896.7311	1583.986	3587.85	2703.15
896.8736	1585.7575	3644.65	2763.1
897.0161	1587.5282	3679	2798.5
897.1585	1589.2981	3731.45	2850.25
897.3009	1591.0673	3774.9	2891.25
897.4433	1592.8358	3824.65	2943.85
897.5857	1594.6035	3881.2	2995.75
897.7281	1596.3704	3898.4	3017.45
897.8705	1598.1366	3944.3	3061.9
898.0128	1599.9021	3960.4	3079.5
898.1551	1601.6668	3991.95	3107.7
898.2975	1603.4308	4052.9	3169.3
898.4398	1605.194	4112.3	3227.55
898.5821	1606.9564	4196.95	3313.85
898.7243	1608.7182	4313	3425.6
898.8666	1610.4791	4450.35	3567.7
899.0088	1612.2394	4632.05	3750.65
899.1511	1613.9988	4798.65	3918.05
899.2933	1615.7576	4950.2	4069.3
899.4355	1617.5156	5074.4	4188.75
899.5776	1619.2728	5111.35	4230.95
899.7198	1621.0293	5066.8	4186.7
899.862	1622.785	4980.05	4092.7
900.0041	1624.54	4792.05	3908.25
900.1462	1626.2942	4593.7	3711
900.2883	1628.0477	4379.25	3492.65
900.4304	1629.8005	4177.65	3293.2
900.5725	1631.5525	4008.8	3128.9
900.7145	1633.3037	3854.15	2971.6
900.8566	1635.0542	3726	2843.6
900.9986	1636.804	3620.45	2736.9
901.1406	1638.553	3608.8	2661.5
901.2826	1640.3013	3501.95	2621.1
901.4245	1642.0488	3477.05	2594.3
901.5665	1643.7955	3471.75	2590.4
901.7085	1645.5416	3494.45	2612.3
901.8504	1647.2868	3518.5	2636.1
901.9923	1649.0313	3551.4	2669.05
902.1342	1650.7751	3609.55	2724.35
902.2761	1652.5181	3649.3	2767.45
902.4179	1654.2604	3711.6	2829.35
902.5598	1656.0019	3790.4	2909.95
902.7016	1657.7427	3892.75	3011.2
902.8434	1659.4828	4009.4	3129.75
902.9852	1661.222	4096.45	3211.55
903.127	1662.9606	4095.8	3213.7
903.2687	1664.6984	4038.95	3157.3
903.4105	1666.4354	3858.55	2976.85
903.5522	1668.1717	3638.5	2757.6
903.6939	1669.9072	3401.25	2519.9
903.8356	1671.642	3209.9	2327.15
903.9773	1673.3761	3036.4	2156.45
904.119	1675.1094	2901.55	2019.6
904.2606	1676.8419	2796.9	1915.55
904.4022	1678.5737	2705	1822.7
904.5439	1680.3048	2647.2	1765.35
904.6855	1682.0351	2583.45	1699.75
904.827	1683.7646	2548.5	1662.25
904.9686	1685.4934	2503.45	1622.55
905.1101	1687.2215	2476.4	1596.2
905.2517	1688.9488	2455.9	1575.05
905.3932	1690.6754	2423.8	1544
905.5347	1692.4012	2406.45	1526
905.6761	1694.1263	2382.95	1501.4
905.8176	1695.8506	2372.65	1490.3
905.9591	1697.5742	2343.35	1463.05
906.1005	1699.297	2331.45	1450.2
906.2419	1701.0191	2319.45	1437.75
906.3833	1702.7404	2297.6	1416.4
906.5246	1704.461	2291.35	1410.05
906.666	1706.1808	2277.25	1394.1
906.8073	1707.8999	2270.9	1387.85
906.9487	1709.6182	2250.5	1365.85
907.09	1711.3358	2242.4	1360.6
907.2313	1713.0527	2230.75	1350.05
907.3725	1714.7688	2233.1	1345
907.5138	1716.4841	2212.75	1330.95
907.655	1718.1987	2217.2	1330.3
907.7962	1719.9126	2206.7	1327.45
907.9374	1721.6257	2193.4	1307.25
908.0786	1723.338	2191.9	1310.15
908.2198	1725.0496	2188.45	1308.15
908.3609	1726.7605	2178.5	1296.95
908.502	1728.4706	2181.7	1299.6
908.6431	1730.18	2166.55	1281
908.7842	1731.8886	2155.85	1272.2
908.9253	1733.5964	2173.1	1285.75
909.0664	1735.3036	2164.25	1280.55
909.2074	1737.0099	2144.35	1262.9
909.3484	1738.7156	2134.95	1255.45
909.4894	1740.4204	2130.2	1245.15
909.6304	1742.1246	2117.6	1235.4
909.7714	1743.8279	2118.55	1237.3
909.9123	1745.5306	2104.7	1222.4
910.0532	1747.2325	2087.9	1205.55
910.1941	1748.9336	2093.35	1211.15
910.335	1750.634	2091.05	1206.05
910.4759	1752.3336	2082.15	1201.2
910.6168	1754.0325	2077.6	1196.8
910.7576	1755.7307	2070.55	1187.55
910.8984	1757.4281	2080.9	1199.65
911.0392	1759.1247	2084.95	1195.35
911.18	1760.8206	2067.4	1181.5
911.3208	1762.5158	2060.45	1176.2
911.4615	1764.2102	2058.2	1177.65
911.6022	1765.9039	2051.15	1168.25
911.7429	1767.5968	2049.1	1167.05
911.8836	1769.289	2038.85	1155.15
912.0243	1770.9804	2047.05	1165
912.1649	1772.6711	2044.5	1165
912.3056	1774.361	2038.45	1156.1
912.4462	1776.0502	2031.2	1148.05
912.5868	1777.7386	2043.45	1160.35
912.7274	1779.4263	2031.7	1150.45
912.8679	1781.1132	2023.55	1141.9
913.0084	1782.7994	2024.45	1137.35
913.149	1784.4849	2018.9	1137.9
913.2895	1786.1696	2045.25	1144.25
913.4299	1787.8535	2008.3	1127.6
913.5704	1789.5367	2014.2	1132.8
913.7108	1791.2192	2005.3	1124.4
913.8513	1792.9009	2016.65	1120.35
913.9917	1794.5818	2011.1	1128.8
914.132	1796.2621	1994.45	1113
914.2724	1797.9415	2000.4	1117.5
914.4128	1799.6202	1990.55	1108.4
914.5531	1801.2982	1989.7	1107.8
914.6934	1802.9755	1985.85	1103
914.8337	1804.6519	1985.3	1103.3
914.9739	1806.3277	1975.85	1094.6
915.1142	1808.0027	1970.9	1090.25
915.2544	1809.6769	1974.45	1092.25
915.3946	1811.3504	1968	1083.2
915.5348	1813.0231	1964	1082.1
915.675	1814.6951	1957.5	1075.4
915.8151	1816.3664	1964.5	1079.8
915.9553	1818.0369	1960.6	1078.25
916.0954	1819.7067	1961.95	1079.85
916.2355	1821.3757	1953.75	1069.35
916.3755	1823.044	1959.6	1077.7
916.5156	1824.7115	1944.95	1060.8
916.6556	1826.3783	1937.75	1056.85
916.7956	1828.0443	1938.65	1058.15
916.9356	1829.7096	1935.6	1052.05
917.0756	1831.3741	1945.45	1061.15
917.2155	1833.0379	1936.5	1055.7
917.3555	1834.701	1939.7	1056.3
917.4954	1836.3633	1936	1053.15
917.6353	1838.0248	1929.75	1047.7
917.7751	1839.6856	1928.05	1047.15
917.915	1841.3457	1934.5	1052.3
918.0548	1843.005	1920.5	1040.45
918.1946	1844.6636	1916.85	1034.75
918.3344	1846.3214	1923.75	1040.1
918.4742	1847.9785	1908.05	1027.75
918.6139	1849.6349	1908.35	1024.4
918.7537	1851.2904	1921.15	1032.15
918.8934	1852.9453	1906	1025.95
919.0331	1854.5994	1911.35	1026.8
919.1727	1856.2528	1912.15	1027
919.3124	1857.9054	1905.75	1024.85
919.452	1859.5572	1904.85	1024.05
919.5916	1861.2083	1905.95	1022.5
919.7312	1862.8587	1912.25	1029.4
919.8708	1864.5084	1907.45	1025.95
920.0103	1866.1572	1885.8	1002.85
920.1498	1867.8054	1892.5	1010.7
920.2893	1869.4528	1885.7	1004.95
920.4288	1871.0994	1881.6	999.9
920.5683	1872.7453	1881.85	1001.35
920.7077	1874.3905	1893.45	993.1
920.8471	1876.0349	1875.1	991.4
920.9865	1877.6786	1876.8	992.8
921.1259	1879.3215	1878.65	995.1
921.2653	1880.9637	1885.85	1002.15
921.4046	1882.6051	1873.1	991.1
921.5439	1884.2458	1866.25	983.25
921.6832	1885.8858	1860.2	978.2
921.8225	1887.525	1855.3	972.5
921.9617	1889.1634	1858.05	976.9
922.101	1890.8011	1847	966.25
922.2402	1892.4381	1844.9	963.3
922.3794	1894.0743	1857.7	975.05
922.5185	1895.7098	1839.45	959.2
922.6577	1897.3446	1849.5	966.5
922.7968	1898.9786	1837.3	950.65
922.9359	1900.6118	1834.65	952.6
923.075	1902.2443	1828.7	947.45
923.214	1903.8761	1833.5	950.65
923.3531	1905.5071	1827.9	945.4
923.4921	1907.1374	1820.9	937.7
923.6311	1908.7669	1829.75	949.3
923.77	1910.3957	1819.45	937.35
923.909	1912.0237	1811.75	929.8
924.0479	1913.651	1821.75	939.75
924.1868	1915.2776	1811.6	931.35
924.3257	1916.9034	1804.4	924.05
924.4646	1918.5285	1813.4	933.4
924.6034	1920.1528	1800	917.55
924.7422	1921.7764	1802.5	920.8
924.881	1923.3992	1799.85	920.3
925.0198	1925.0213	1793.6	909.9
925.1586	1926.6427	1786.2	905.05
925.2973	1928.2633	1889.8	899.4
925.436	1929.8832	1797.7	914.6
925.5747	1931.5023	1789.45	906.7
925.7134	1933.1207	1770.6	886.45
925.852	1934.7383	1781.05	901.45
925.9906	1936.3552	1776.45	896.8
926.1292	1937.9714	1777.45	894.4
926.2678	1939.5868	1774.15	892.6
926.4064	1941.2015	1767.1	884
926.5449	1942.8154	1763.6	882.55
926.6834	1944.4286	1755.15	873.65
926.8219	1946.041	1771.05	868.1
926.9604	1947.6528	1752.9	866.1
927.0988	1949.2637	1747.85	866.3
927.2372	1950.8739	1740.75	857.55
927.3756	1952.4834	1743.05	860.6
927.514	1954.0921	1741.1	859
927.6523	1955.7001	1744.25	859
927.7907	1957.3074	1734.9	853.9
927.929	1958.9139	1730.55	849.55
928.0673	1960.5197	1734	849.9
928.2055	1962.1247	1726.65	845.1
928.3438	1963.729	1716.85	834.7
928.482	1965.3325	1740.7	834.55
928.6202	1966.9353	1722.8	840.9
928.7584	1968.5374	1718.8	837.15
928.8965	1970.1387	1714.35	831.8
929.0346	1971.7393	1715.95	834.4
929.1727	1973.3392	1712.5	830.4
929.3108	1974.9383	1702.6	821.25
929.4489	1976.5366	1701.6	821
929.5869	1978.1342	1697.65	813.1
929.7249	1979.7311	1702.95	821.05
929.8629	1981.3273	1694.8	811.45
930.0009	1982.9227	1688.75	806.6
930.1388	1984.5173	1684.45	803
930.2767	1986.1112	1692.6	811.9
930.4146	1987.7044	1691.45	809.75
930.5525	1989.2968	1678.55	795.7
930.6904	1990.8885	1687.55	802.2
930.8282	1992.4795	1688.15	802
930.966	1994.0697	1676.65	794.95
931.1038	1995.6592	1675.25	792.5
931.2415	1997.2479	1682.2	800.95
931.3793	1998.8359	1671.15	789.4
931.517	2000.4232	1657.6	777.35
931.6547	2002.0097	1670.7	789.2
931.7923	2003.5955	1658.6	776.1
931.93	2005.1805	1661.4	774.55
932.0676	2006.7648	1661.2	777
932.2052	2008.3484	1662.85	779.05
932.3427	2009.9312	1657.55	774.45
932.4803	2011.5133	1654.95	775.4
932.6178	2013.0946	1646.1	763.4
932.7553	2014.6752	1653.15	771.65
932.8928	2016.2551	1647.05	762.95
933.0302	2017.8342	1651.95	769.9
933.1676	2019.4126	1642.95	762.55
933.305	2020.9902	1642.2	761
933.4424	2022.5672	1643.95	761.4
933.5798	2024.1433	1645.2	755.35
933.7171	2025.7188	1635.5	754
933.8544	2027.2935	1637.5	754
933.9917	2028.8674	1627	744.75
934.129	2030.4406	1624.35	743
934.2662	2032.0131	1630.05	750.5
934.4034	2033.5849	1631.2	744.8
934.5406	2035.1559	1626.65	745.05
934.6778	2036.7261	1626.8	745.3
934.8149	2038.2957	1630.8	747.8
934.952	2039.8645	1629.4	747
935.0891	2041.4325	1622.35	740.6
935.2262	2042.9998	1614.95	733.95
935.3632	2044.5664	1614.2	729.85
935.5002	2046.1323	1615.3	734.75
935.6372	2047.6974	1610.35	729.65
935.7742	2049.2617	1605.55	724.55
935.9111	2050.8254	1629.55	722.45
936.048	2052.3883	1614.35	730.95
936.1849	2053.9504	1600.9	717.7
936.3218	2055.5118	1600.3	718.35
936.4586	2057.0725	1603.2	716.85
936.5955	2058.6325	1598.3	715.25
936.7323	2060.1917	1593	712.4
936.869	2061.7502	1604.55	717.8
937.0058	2063.3079	1591.05	709.2
937.1425	2064.8649	1586.95	700.05
937.2792	2066.4212	1587.5	703.95
937.4159	2067.9767	1583.1	701.3
937.5525	2069.5315	1583.9	700.15
937.6891	2071.0856	1585.85	705.65
937.8257	2072.6389	1580	697.1
937.9623	2074.1915	1575.85	694.8
938.0989	2075.7433	1577.7	693.7
938.2354	2077.2945	1568.55	686.65
938.3719	2078.8448	1567.3	686.55
938.5084	2080.3945	1568.65	685.6
938.6448	2081.9434	1564.55	682.9
938.7812	2083.4916	1560.85	676.4
938.9176	2085.039	1559.45	677
939.054	2086.5857	1562.55	679.55
939.1903	2088.1317	1553.05	670.75
939.3267	2089.677	1554.6	672.1
939.463	2091.2215	1550.1	668.35
939.5992	2092.7652	1559.4	677.2
939.7355	2094.3083	1551.95	671.2
939.8717	2095.8506	1544.1	662.35
940.0079	2097.3921	1551.75	670.9
940.1441	2098.933	1554.05	670.4
940.2802	2100.4731	1546.75	665.1
940.4163	2102.0124	1561.55	659.6
940.5524	2103.5511	1542.85	661
940.6885	2105.089	1537.45	653.9
940.8245	2106.6261	1537.3	654.15
940.9606	2108.1626	1547.1	664.8
941.0965	2109.6983	1567.3	656.9
941.2325	2111.2332	1543.9	661.7
941.3684	2112.7675	1541.15	658.4
941.5044	2114.301	1535.45	653.4
941.6403	2115.8337	1536.7	654.35
941.7761	2117.3657	1533.75	650.75
941.912	2118.897	1526.05	644.4
942.0478	2120.4276	1533.25	645.75
942.1835	2121.9575	1526.9	644.45
942.3193	2123.4866	1525.9	639.35
942.455	2125.0149	1533.05	648.85
942.5907	2126.5426	1527.9	646.75
942.7264	2128.0695	1522.25	632.95
942.8621	2129.5956	1521.15	640.45
942.9977	2131.1211	1522.65	635.55
943.1333	2132.6458	1509	629.85
943.2689	2134.1698	1509.75	627.6
943.4044	2135.693	1508.1	623.95
943.54	2137.2155	1510.3	624.6
943.6755	2138.7373	1515.2	632.8
943.8109	2140.2584	1514.45	632.85
943.9464	2141.7787	1511.1	621.5
944.0818	2143.2983	1504.45	623
944.2172	2144.8171	1497.5	615.65
944.3526	2146.3353	1495.3	610.9
944.4879	2147.8527	1496.6	614.15
944.6232	2149.3693	1498.7	616.45
944.7585	2150.8853	1500.55	618.3
944.8938	2152.4005	1494.75	612.2
945.029	2153.9149	1490.5	607.55
945.1642	2155.4287	1490.9	608.9
945.2994	2156.9417	1490.4	606.35
945.4346	2158.454	1488.6	604.35
945.5697	2159.9655	1483.85	603.25
945.7048	2161.4764	1483.4	600
945.8399	2162.9865	1481.15	596.3
945.9749	2164.4958	1488.9	606.15
946.1099	2166.0045	1488.7	604
946.2449	2167.5124	1486.55	605.1
946.3799	2169.0195	1480.1	597.9
946.5148	2170.526	1472.95	589.35
946.6498	2172.0317	1473.9	593.5
946.7846	2173.5367	1469.55	586.1
946.9195	2175.0409	1468.7	586.6
947.0543	2176.5445	1468.1	587.65
947.1891	2178.0473	1469.1	587.05
947.3239	2179.5494	1468.9	584.25
947.4587	2181.0507	1465.9	582.75
947.5934	2182.5513	1468.75	587.05
947.7281	2184.0512	1460.35	578.75
947.8628	2185.5504	1471.95	589.65
947.9974	2187.0488	1457.85	576
948.132	2188.5465	1459.9	578.45
948.2666	2190.0435	1454.7	572.55
948.4012	2191.5397	1453	570
948.5357	2193.0353	1449.85	567.8
948.6702	2194.5301	1458.55	575.55
948.8047	2196.0241	1448	566.4
948.9392	2197.5175	1451.05	569.85
949.0736	2199.0101	1451.95	565.75
949.208	2200.502	1443.8	561.8
949.3424	2201.9931	1446.55	565.75
949.4767	2203.4835	1436	550.75
949.611	2204.9733	1452	561.35
949.7453	2206.4622	1438.85	555.75
949.8796	2207.9505	1433.85	547.55
950.0138	2209.438	1433.5	551.8
950.148	2210.9248	1432.35	548.6
950.2822	2212.4109	1431.1	549.75
950.4164	2213.8962	1432.35	548.1
950.5505	2215.3809	1435.25	553
950.6846	2216.8648	1425.1	542.55
950.8186	2218.3479	1431.3	545.05
950.9527	2219.8304	1422.25	539.8
951.0867	2221.3121	1417.25	531.95
951.2207	2222.7931	1421.5	540.9
951.3546	2224.2733	1416.7	536.3
951.4886	2225.7529	1410.8	528.05
951.6225	2227.2317	1416.5	530.1
951.7563	2228.7098	1407.55	525.35
951.8902	2230.1872	1410.75	527.8
952.024	2231.6638	1413.3	531.35
952.1578	2233.1397	1412.7	526.8
952.2916	2234.6149	1399.8	518.25
952.4253	2236.0894	1410.4	527.3
952.559	2237.5632	1413.8	522.15
952.6927	2239.0362	1400.65	519.2
952.8263	2240.5085	1396.2	513.25
952.9599	2241.9801	1390	508.4
953.0935	2243.4509	1394.8	515.45
953.2271	2244.921	1390.2	506.9
953.3606	2246.3904	1394.2	510.7
953.4941	2247.8591	1385.3	502.8
953.6276	2249.3271	1391.85	511.4
953.7611	2250.7943	1385.9	503.4
953.8945	2252.2608	1381.85	498.9
954.0279	2253.7266	1382.3	500.95
954.1612	2255.1917	1379.4	495.7
954.2946	2256.656	1387.25	503
954.4279	2258.1197	1377.2	495.9
954.5612	2259.5826	1380.95	496.1
954.6944	2261.0447	1373.45	491.75
954.8276	2262.5062	1378.1	493.1
954.9608	2263.9669	1379.85	498.65
955.094	2265.4269	1367.6	485.3
955.2271	2266.8862	1372.15	487.25
955.3602	2268.3448	1374	490.85
955.4933	2269.8026	1368.45	484.7
955.6264	2271.2598	1365.5	483.15
955.7594	2272.7162	1369.7	488.3
955.8924	2274.1719	1359.3	475.8
956.0253	2275.6268	1366.65	486.1
956.1583	2277.0811	1368	485.2
956.2912	2278.5346	1357.8	476.05
956.4241	2279.9874	1371.45	489.25
956.5569	2281.4395	1367.35	485.45
956.6897	2282.8908	1360.85	473.15
956.8225	2284.3414	1357.95	474.35
956.9553	2285.7914	1357.15	475.1
957.088	2287.2406	1361.3	479
957.2207	2288.689	1354.8	472.7
957.3534	2290.1368	1355.75	474.05
957.486	2291.5838	1354.1	470.7
957.6186	2293.0302	1356.05	470.75
957.7512	2294.4758	1351.2	469.4
957.8838	2295.9206	1349.65	466.7
958.0163	2297.3648	1350.25	468
958.1488	2298.8082	1352	468.15
958.2813	2300.251	1346	462.9
958.4137	2301.693	1346.45	463.1
958.5461	2303.1343	1347	463.7
958.6785	2304.5748	1347.25	465.35
958.8108	2306.0147	1340.8	459.05
958.9432	2307.4538	1342.45	457.65
959.0754	2308.8922	1342.85	462
959.2077	2310.3299	1340.5	459.25
959.3399	2311.7669	1332	451.3
959.4721	2313.2031	1334.3	452.5
959.6043	2314.6387	1333.7	451
959.7365	2316.0735	1331.1	447.05
959.8686	2317.5076	1334.85	452.95
960.0006	2318.941	1329.7	446.5
960.1327	2320.3737	1329.55	446.9
960.2647	2321.8056	1330.05	445.7
960.3967	2323.2369	1332.15	450
960.5287	2324.6674	1324.15	439.25
960.6606	2326.0972	1328.55	446.7
960.7925	2327.5263	1328.95	444.15
960.9244	2328.9547	1330.75	447.25
961.0562	2330.3823	1324.1	440.8
961.1881	2331.8092	1323.85	437.2
961.3198	2333.2355	1314.6	432.05
961.4516	2334.661	1316.6	433
961.5833	2336.0858	1317.8	433.55
961.715	2337.5098	1310.35	427.8
961.8467	2338.9332	1315.2	433.6
961.9783	2340.3558	1313.6	428.45
962.1099	2341.7778	1308.25	428.1
962.2415	2343.199	1312.65	427
962.373	2344.6195	1315.15	433.35
962.5045	2346.0393	1304.85	422.95
962.636	2347.4583	1315.85	433.55
962.7675	2348.8767	1310.05	426.55
962.8989	2350.2943	1301.65	419.7
963.0303	2351.7113	1305.8	421.95
963.1617	2353.1275	1301.6	421.45
963.293	2354.543	1314.05	422.2
963.4243	2355.9578	1302.35	420.25
963.5556	2357.3718	1298.9	416.35
963.6868	2358.7852	1300.25	413.95
963.818	2360.1978	1297.9	415.15
963.9492	2361.6098	1300.2	419.2
964.0803	2363.021	1294.6	408.15
964.2114	2364.4315	1292.35	409.85
964.3425	2365.8413	1292.8	407.65
964.4736	2367.2504	1293.2	411.15
964.6046	2368.6587	1295	413.4
964.7356	2370.0664	1289.85	408.15
964.8666	2371.4733	1288.8	405.9
964.9975	2372.8795	1286.35	404.95
965.1284	2374.285	1290.3	407.9
965.2593	2375.6899	1280.7	398.25
965.3901	2377.0939	1276.2	395.15
965.5209	2378.4973	1274.6	393.5
965.6517	2379.9	1280.2	397.15
965.7825	2381.3019	1277.85	395.8
965.9132	2382.7032	1275.55	395.4
966.0439	2384.1037	1273.35	390.35
966.1745	2385.5035	1276.8	395.85
966.3051	2386.9027	1275.8	394.95
966.4357	2388.3011	1275.85	390.35
966.5663	2389.6987	1279	397.1
966.6968	2391.0957	1268.2	385.5
966.8273	2392.492	1269.4	386.6
966.9578	2393.8876	1262.7	379.5
967.0882	2395.2824	1268.3	385.5
967.2186	2396.6765	1257.6	376.25
967.349	2398.07	1258.25	377.65
967.4793	2399.4627	1258.05	371.9
967.6097	2400.8547	1263.05	381.75
967.7399	2402.246	1261.85	373.05
967.8702	2403.6366	1255.3	374.9
968.0004	2405.0265	1249.55	367.65
968.1306	2406.4156	1261.25	375.4
968.2607	2407.8041	1253.35	369
968.3909	2409.1918	1254.2	369.2
968.521	2410.5789	1247.3	365.05
968.651	2411.9652	1251.55	363.95
968.781	2413.3508	1250.6	369.8
968.911	2414.7358	1249.95	366.55
969.041	2416.12	1246.05	364.7
969.1709	2417.5035	1243.4	360.9
969.3008	2418.8863	1243.3	359.2
969.4307	2420.2684	1242.1	360.65
969.5606	2421.6497	1246.1	363.4
969.6904	2423.0304	1239	357.65
969.8201	2424.4104	1243.35	360.15
969.9499	2425.7896	1245.7	355.75
970.0796	2427.1682	1239.6	358.05
970.2093	2428.546	1239.8	356.3
970.3389	2429.9232	1242.85	357.15
970.4685	2431.2996	1235.85	354
970.5981	2432.6753	1236.55	355.55
970.7277	2434.0503	1231.6	347.55
970.8572	2435.4246	1230.1	349.75
970.9867	2436.7982	1232.9	349.1
971.1161	2438.1711	1231.1	350.5
971.2456	2439.5433	1229.6	346.6
971.375	2440.9148	1239.35	350.35
971.5043	2442.2856	1226.55	344.75
971.6336	2443.6557	1227.25	343.25
971.7629	2445.025	1221.95	341.3
971.8922	2446.3937	1224.55	342.3
972.0214	2447.7617	1225.15	343.45
972.1506	2449.1289	1224.7	342.65
972.2798	2450.4955	1222.55	334.85
972.4089	2451.8613	1217.75	337.1
972.538	2453.2265	1213.5	333.4
972.6671	2454.5909	1216.8	335.1
972.7961	2455.9546	1219.5	334.9
972.9251	2457.3177	1215.3	333.3
973.0541	2458.68	1219.65	335.45
973.1831	2460.0416	1218	334.5
973.312	2461.4025	1219.55	333.6
973.4408	2462.7627	1226.95	334.55
973.5697	2464.1222	1213.25	332.8
973.6985	2465.4811	1215.15	331.35
973.8273	2466.8392	1218.95	335.75
973.956	2468.1966	1209.8	325.55
974.0847	2469.5533	1211.7	326.95
974.2134	2470.9093	1216.9	333.65
974.3421	2472.2645	1213.3	327.05
974.4707	2473.6191	1212.3	330.65
974.5993	2474.973	1203.9	320.6
974.7278	2476.3262	1215.25	330
974.8563	2477.6787	1209.15	327.75
974.9848	2479.0305	1205.4	321.8
975.1132	2480.3816	1208.95	325.6
975.2417	2481.7319	1204.15	322.5
975.37	2483.0816	1205.25	321.5
975.4984	2484.4306	1211.2	328.05
975.6267	2485.7789	1203.85	320.2
975.755	2487.1264	1198.75	313.4
975.8833	2488.4733	1198.6	317.5
976.0115	2489.8195	1220.3	321
976.1397	2491.165	1203.8	317.35
976.2678	2492.5097	1196.45	312.9
976.3959	2493.8538	1196.3	316.1
976.524	2495.1972	1198.4	316.75
976.6521	2496.5398	1193.7	310.35
976.7801	2497.8818	1195.85	313.85
976.9081	2499.2231	1193.6	313.35
977.036	2500.5637	1190.95	307.9
977.164	2501.9035	1192.9	309.55
977.2918	2503.2427	1195.75	311.35
977.4197	2504.5812	1187.6	305.25
977.5475	2505.919	1186.6	302.25
977.6753	2507.256	1183.65	302.45
977.8031	2508.5924	1183.65	301.6
977.9308	2509.9281	1191.75	304.25
978.0585	2511.2631	1183.25	300.9
978.1861	2512.5974	1184.5	301.9
978.3137	2513.9309	1187.95	305.15
978.4413	2515.2638	1213.45	300.6
978.5689	2516.596	1182.45	299.25
978.6964	2517.9275	1181.5	297.4
978.8239	2519.2583	1179.55	297.3
978.9513	2520.5884	1185.2	301.05
979.0788	2521.9178	1174.35	291.65
979.2062	2523.2465	1178.85	295.95
979.3335	2524.5745	1182.25	300.3
979.4608	2525.9018	1181.75	299.4
979.5881	2527.2284	1172.05	289.65
979.7154	2528.5543	1172.75	290.9
979.8426	2529.8796	1176.2	292.95
979.9698	2531.2041	1176.5	295.1
980.0969	2532.5279	1169.85	288.6
980.224	2533.851	1176.2	292.4
980.3511	2535.1735	1173.1	291.75
980.4781	2536.4952	1167.4	285.4
980.6052	2537.8163	1170.6	289.55
980.7321	2539.1366	1167.05	284.25
980.8591	2540.4562	1172.65	290
980.986	2541.7752	1173.3	290.15
981.1129	2543.0935	1169.45	287.25
981.2397	2544.411	1174.3	291.65
981.3665	2545.7279	1172	291.25
981.4933	2547.0441	1173.45	290.55
981.62	2548.3596	1173.2	287.55
981.7467	2549.6744	1171.95	288.4
981.8734	2550.9885	1172.3	286.95
982.0001	2552.3019	1167.7	285.2
982.1267	2553.6146	1169.7	288.95
982.2532	2554.9266	1167.15	284.3
982.3798	2556.2379	1162.25	278.75
982.5063	2557.5485	1163	280.9
982.6327	2558.8585	1169.95	281.5
982.7592	2560.1677	1165.05	277
982.8856	2561.4762	1167.15	285.3
983.0119	2562.7841	1166.3	279
983.1383	2564.0913	1163.5	284.2
983.2646	2565.3977	1156	274.3
983.3908	2566.7035	1160.7	279.7
983.517	2568.0086	1162.85	276.95
983.6432	2569.313	1164.9	283.45
983.7694	2570.6167	1162.8	278.5
983.8955	2571.9197	1158.2	276.1
984.0216	2573.222	1159.8	274.5
984.1476	2574.5236	1154	271.8
984.2737	2575.8246	1161.9	276.45
984.3996	2577.1248	1159.4	275
984.5256	2578.4244	1156.6	274.7
984.6515	2579.7232	1156.05	272.85
984.7774	2581.0214	1184.8	271.7
984.9032	2582.3189	1150.25	268.95
985.029	2583.6157	1166.65	281.2
985.1548	2584.9118	1156.4	274.4
985.2806	2586.2072	1155	272.7
985.4063	2587.5019	1159.9	277.25
985.5319	2588.7959	1154.65	274.3
985.6576	2590.0893	1156.05	273
985.7832	2591.3819	1154.7	275.35
985.9087	2592.6739	1157.8	278.15
986.0343	2593.9652	1156.3	274.35
986.1597	2595.2557	1155.6	272.9
986.2852	2596.5456	1160.95	279.15
986.4106	2597.8348	1157.75	275.45
986.536	2599.1234	1151.15	270.95
986.6614	2600.4112	1155.3	273.1
986.7867	2601.6983	1160.55	272.7
986.912	2602.9848	1158.5	276.15
987.0372	2604.2705	1156.85	269.25
987.1624	2605.5556	1154.65	270.5
987.2876	2606.84	1157.5	275.3
987.4128	2608.1237	1162.25	280.25
987.5379	2609.4067	1149.25	265.5
987.6629	2610.689	1160.35	268.6
987.788	2611.9707	1149.9	266.7
987.913	2613.2516	1151.6	263.1
988.0379	2614.5319	1147.6	266.25
988.1629	2615.8115	1144.3	261.25
988.2878	2617.0903	1149.25	266.65
988.4126	2618.3685	1144.65	262
988.5375	2619.6461	1142.75	261.45
988.6622	2620.9229	1140.4	259.25
988.787	2622.199	1146.45	263.85
988.9117	2623.4745	1141.75	259
989.0364	2624.7493	1141.25	260
989.161	2626.0234	1143.2	262.25
989.2857	2627.2968	1145.3	263.55
989.4102	2628.5695	1144.85	262.2
989.5348	2629.8415	1138.4	257.65
989.6593	2631.1128	1143.1	258.75
989.7837	2632.3835	1142.6	261.05
989.9082	2633.6535	1134.9	253.6
990.0326	2634.9228	1135.7	254.55
990.1569	2636.1914	1140.85	258.75
990.2812	2637.4593	1143.7	253.25
990.4055	2638.7265	1139.2	258.2
990.5298	2639.9931	1136.85	252.75
990.654	2641.259	1137	253.55
990.7782	2642.5242	1134.25	250.55
990.9023	2643.7887	1132.85	248.4
991.0264	2645.0525	1130.65	249.15
991.1505	2646.3156	1134.35	251.45
991.2745	2647.5781	1129.35	247.75
991.3985	2648.8398	1126.95	248
991.5225	2650.1009	1165.7	245.7
991.6464	2651.3613	1128.8	247.55
991.7703	2652.6211	1128.2	243.05
991.8942	2653.8801	1124.3	243.05
992.018	2655.1385	1128.9	242.05
992.1418	2656.3961	1126.3	245.7
992.2655	2657.6531	1125.15	242.4
992.3892	2658.9094	1126.55	244.6
992.5129	2660.1651	1128.9	246.15
992.6366	2661.42	1128.7	247.55
992.7602	2662.6743	1128.15	245.15
992.8837	2663.9279	1130.9	250.15
993.0073	2665.1808	1130.3	249.2
993.1307	2666.433	1131.55	248
993.2542	2667.6846	1129.7	248.55
993.3776	2668.9354	1127.85	241.8
993.501	2670.1856	1139.4	259.15
993.6244	2671.4351	1130.5	248.8
993.7477	2672.6839	1135.65	251.7
993.8709	2673.9321	1134.15	254.55
993.9942	2675.1795	1143.8	261.4
994.1174	2676.4263	1138.65	254.65
994.2405	2677.6724	1132.4	252.2
994.3637	2678.9179	1144.1	261.3
994.4868	2680.1626	1131.5	251.65
994.6098	2681.4067	1134.65	252.2
994.7328	2682.6501	1133.05	251.1
994.8558	2683.8928	1134.05	249.4
994.9788	2685.1348	1130.1	246.6
995.1017	2686.3761	1129.5	249.75
995.2245	2687.6168	1126.45	242.9
995.3474	2688.8568	1122.35	240.2
995.4702	2690.0961	1121.9	239.1
995.5929	2691.3348	1126.2	244.9
995.7156	2692.5727	1123.6	240.9
995.8383	2693.81	1121.8	239.7
995.961	2695.0466	1117.05	235.55
996.0836	2696.2826	1126.2	242.15
996.2062	2697.5178	1127.7	240.7
996.3287	2698.7524	1123.65	242.75
996.4512	2699.9863	1123.2	237.8
996.5737	2701.2195	1123.6	243.7
996.6961	2702.452	1125.3	242.15
996.8185	2703.6839	1127.8	244.15
996.9408	2704.9151	1129.65	249.4
997.0631	2706.1456	1128.5	245.4
997.1854	2707.3755	1134.15	250.5
997.3077	2708.6046	1136.2	253.05
997.4299	2709.8331	1141.35	259.15
997.552	2711.0609	1142.1	259.7
997.6742	2712.2881	1143.55	259.85
997.7963	2713.5145	1149.45	265.7
997.9183	2714.7403	1146.65	263.55
998.0403	2715.9654	1150.8	266.55
998.1623	2717.1899	1172	274.8
998.2842	2718.4136	1165.1	284
998.4062	2719.6367	1167.3	283.9
998.528	2720.8591	1174.15	287.05
998.6498	2722.0809	1172.65	291.25
998.7716	2723.3019	1186.15	299.95
998.8934	2724.5223	1184.5	301.2
999.0151	2725.7421	1183.8	299.35
999.1368	2726.9611	1186.15	301.15
999.2584	2728.1795	1192.15	305
999.38	2729.3972	1185.45	304.85
999.5016	2730.6142	1182.7	290.95
999.6231	2731.8306	1169.35	284.75
999.7446	2733.0462	1168.15	286.6
999.8661	2734.2612	1167.2	279.1
999.9875	2735.4756	1154.55	270.8
1000.1089	2736.6892	1144.2	260.5
1000.2302	2737.9022	1138.1	255.8
1000.3515	2739.1145	1133.35	251.75
1000.4728	2740.3262	1135.15	246.8
1000.594	2741.5372	1129.15	246.7
1000.7152	2742.7475	1121.45	238.25
1000.8363	2743.9571	1119.9	235.1
1000.9575	2745.1661	1115.65	229
1001.0785	2746.3744	1109.35	225.85
1001.1996	2747.582	1109.5	225.75
1001.3206	2748.7889	1107	224.4
1001.4415	2749.9952	1104.5	223.05
1001.5625	2751.2008	1098.15	215.7
1001.6833	2752.4057	1099.05	212.85
1001.8042	2753.61	1095.4	212.7
1001.925	2754.8136	1098.75	216.35
1002.0458	2756.0165	1091.85	208.55
1002.1665	2757.2188	1088.8	206.75
1002.2872	2758.4204	1091.05	210.3
1002.4078	2759.6213	1095.55	210.85
1002.5285	2760.8215	1098.15	209.8
1002.649	2762.0211	1092.35	208.5
1002.7696	2763.22	1096.25	209.65
1002.8901	2764.4182	1093	208.6
1003.0106	2765.6158	1089.45	206.7
1003.131	2766.8127	1088.65	205.2
1003.2514	2768.009	1089.45	206.6
1003.3717	2769.2045	1085.5	203
1003.492	2770.3994	1090.6	206.55
1003.6123	2771.5936	1087.3	203.55
1003.7325	2772.7872	1079.15	196.7
1003.8527	2773.9801	1086.4	203.5
1003.9729	2775.1723	1096.6	196.1
1004.093	2776.3639	1077.8	196.8
1004.2131	2777.5548	1088	204.1
1004.3331	2778.745	1083.25	200.35
1004.4531	2779.9346	1079	196.65
1004.5731	2781.1235	1086.15	202.9
1004.693	2782.3117	1085.65	203.05
1004.8129	2783.4992	1087.35	203.65
1004.9328	2784.6861	1086.95	204.4
1005.0526	2785.8723	1086.7	203
1005.1723	2787.0579	1088.6	205.45
1005.2921	2788.2428	1086.65	203
1005.4118	2789.427	1089.3	207.85
1005.5314	2790.6106	1088.65	204.4
1005.651	2791.7935	1092.7	208.9
1005.7706	2792.9757	1095.25	212.6
1005.8902	2794.1573	1107.15	223.75
1006.0097	2795.3382	1102.4	220.8
1006.1291	2796.5184	1107.35	224.9
1006.2485	2797.698	1109.05	225.4
1006.3679	2798.8769	1114.2	232.55
1006.4873	2800.0551	1117.55	234.3
1006.6066	2801.2327	1126	241.7
1006.7258	2802.4096	1130.5	247.5
1006.8451	2803.5859	1133.35	248.95
1006.9642	2804.7615	1138.15	254.75
1007.0834	2805.9364	1143.4	261.65
1007.2025	2807.1106	1154.35	272.3
1007.3216	2808.2842	1167.9	284.75
1007.4406	2809.4572	1174.15	292.15
1007.5596	2810.6294	1191.85	306.9
1007.6785	2811.801	1201.65	319.25
1007.7975	2812.972	1213.4	332.45
1007.9163	2814.1423	1235.4	353.35
1008.0352	2815.3119	1251.15	367.05
1008.154	2816.4808	1269.3	389.65
1008.2727	2817.6491	1296.3	413.7
1008.3914	2818.8167	1308.7	427.9
1008.5101	2819.9837	1338.6	451.1
1008.6288	2821.15	1364.45	481.05
1008.7474	2822.3157	1381.8	498.8
1008.8659	2823.4807	1401.15	518.9
1008.9844	2824.645	1434.35	550.35
1009.1029	2825.8086	1450.45	570.2
1009.2214	2826.9716	1475.95	593.2
1009.3398	2828.134	1499.8	618.9
1009.4581	2829.2957	1528.35	646.4
1009.5764	2830.4567	1538.15	657.45
1009.6947	2831.617	1542.5	658.75
1009.813	2832.7767	1545.45	663.15
1009.9312	2833.9358	1544.9	663.9
1010.0493	2835.0941	1538.45	655.7
1010.1675	2836.2519	1533.8	651.05
1010.2855	2837.4089	1533.25	649.1
1010.4036	2838.5653	1523.35	642
1010.5216	2839.7211	1515.75	634.2
1010.6396	2840.8761	1511.05	626.05
1010.7575	2842.0306	1507.3	625.6
1010.8754	2843.1843	1520.2	638.3
1010.9932	2844.3374	1534.2	653
1011.111	2845.4899	1552.65	671
1011.2288	2846.6417	1574.65	694.4
1011.3465	2847.7928	1600.2	720.55
1011.4642	2848.9433	1631	748.35
1011.5818	2850.0931	1637.3	753.85
1011.6995	2851.2422	1672.9	787.05
1011.817	2852.3907	1698.85	815.15
1011.9345	2853.5385	1715.65	830.35
1012.052	2854.6857	1761	850.6
1012.1695	2855.8323	1759.1	877.95
1012.2869	2856.9781	1771.6	889.85
1012.4042	2858.1233	1791.3	907.7
1012.5216	2859.2679	1813.05	932.6
1012.6389	2860.4118	1833.1	951.8
1012.7561	2861.555	1851.45	964.85
1012.8733	2862.6976	1867.15	982.8
1012.9905	2863.8395	1881.95	1000.5
1013.1076	2864.9808	1894.4	1012.35
1013.2247	2866.1214	1906.35	1025.25
1013.3417	2867.2614	1917.35	1035.05
1013.4587	2868.4007	1922.2	1038.45
1013.5757	2869.5393	1924.05	1037.9
1013.6926	2870.6773	1932.6	1046.8
1013.8095	2871.8146	1944.9	1060
1013.9263	2872.9513	1943.6	1057.3
1014.0431	2874.0874	1931.4	1050.65
1014.1599	2875.2227	1932.65	1049.75
1014.2766	2876.3574	1928.45	1047.4
1014.3933	2877.4915	1905.7	1023.2
1014.51	2878.6249	1901.4	1018.4
1014.6266	2879.7577	1883.6	1001.6
1014.7431	2880.8898	1900.25	1006
1014.8596	2882.0212	1878.1	996.2
1014.9761	2883.152	1874.8	993.7
1015.0925	2884.2821	1871.4	988.8
1015.2089	2885.4116	1875.8	993.25
1015.3253	2886.5405	1863.25	982.65
1015.4416	2887.6686	1879.35	992.45
1015.5579	2888.7962	1880.4	999
1015.6741	2889.923	1870.65	990.9
1015.7903	2891.0493	1879.9	999.2
1015.9065	2892.1748	1882.25	1000.45
1016.0226	2893.2997	1894.55	1011.25
1016.1387	2894.424	1898.95	1016.8
1016.2547	2895.5476	1908.85	1026.8
1016.3707	2896.6706	1912.75	1029.7
1016.4866	2897.7929	1920.15	1036.9
1016.6025	2898.9145	1940.2	1057
1016.7184	2900.0355	1929.05	1044.85
1016.8342	2901.1559	1953.85	1071.2
1016.95	2902.2756	1965.5	1083.75
1017.0658	2903.3946	1977.45	1096.2
1017.1815	2904.513	1978.55	1091.75
1017.2971	2905.6308	1999.1	1119.15
1017.4127	2906.7479	2003.85	1121.05
1017.5283	2907.8643	2022	1138.85
1017.6439	2908.9801	2016.5	1133.85
1017.7594	2910.0953	2017.25	1136.2
1017.8748	2911.2098	2013.45	1127.4
1017.9902	2912.3236	2030.45	1139.8
1018.1056	2913.4368	2004.7	1117.8
1018.2209	2914.5494	1990.25	1108.05
1018.3362	2915.6613	1986.05	1096.55
1018.4515	2916.7725	1973	1089.4
1018.5667	2917.8831	1962	1078.85
1018.6819	2918.9931	1960.5	1074.45
1018.797	2920.1024	1948.1	1064.75
1018.9121	2921.211	1929.1	1047.65
1019.0271	2922.319	1922.7	1039
1019.1421	2923.4264	1928	1045.2
1019.2571	2924.5331	1912.95	1032
1019.372	2925.6391	1907.55	1024.15
1019.4869	2926.7445	1904.65	1023.95
1019.6017	2927.8493	1907.1	1023.15
1019.7165	2928.9534	1915.35	1034.3
1019.8313	2930.0569	1918.5	1032.65
1019.946	2931.1597	1915.9	1034.05
1020.0606	2932.2619	1916.3	1033.5
1020.1753	2933.3634	1927.6	1044.05
1020.2899	2934.4643	1933.2	1044.4
1020.4044	2935.5645	1919.45	1029
1020.5189	2936.6641	1917.75	1031.8
1020.6334	2937.763	1906.5	1027.45
1020.7478	2938.8613	1899.95	1015.9
1020.8622	2939.959	1884	996.8
1020.9765	2941.056	1845.45	964.35
1021.0908	2942.1523	1822.05	938.95
1021.2051	2943.248	1795.9	911.85
1021.3193	2944.3431	1753.75	870.65
1021.4334	2945.4375	1723.25	839.9
1021.5476	2946.5313	1686.45	805.5
1021.6617	2947.6244	1639.3	755.65
1021.7757	2948.7169	1603.3	719.75
1021.8897	2949.8087	1560.15	676.05
1022.0037	2950.8999	1532.7	650.35
1022.1176	2951.9904	1492.3	611.1
1022.2315	2953.0803	1472.75	588.85
1022.3453	2954.1696	1444.45	564
1022.4591	2955.2582	1429.95	547.25
1022.5728	2956.3462	1404.2	523.3
1022.6865	2957.4335	1392.25	509.7
1022.8002	2958.5202	1377.55	492.1
1022.9138	2959.6062	1365.9	483.1
1023.0274	2960.6916	1359.05	478.6
1023.141	2961.7764	1356.8	471.6
1023.2545	2962.8605	1346.25	463.2
1023.3679	2963.9439	1342.9	461.5
1023.4813	2965.0267	1328.65	443.3
1023.5947	2966.1089	1350.9	445.2
1023.708	2967.1905	1329.95	448.05
1023.8213	2968.2714	1328.35	448.7
1023.9346	2969.3516	1331.05	448.6
1024.0478	2970.4312	1341.65	452.9
1024.1609	2971.5102	1332.75	451.2
1024.274	2972.5885	1345.55	464.45
1024.3871	2973.6662	1347.95	460.8
1024.5002	2974.7432	1335.8	453.05
1024.6132	2975.8196	1338.45	455.35
1024.7261	2976.8954	1333.25	451.35
1024.839	2977.9705	1336.65	453.85
1024.9519	2979.045	1329	448.55
1025.0647	2980.1188	1319.7	437.35
1025.1775	2981.192	1315.6	435.6
1025.2902	2982.2645	1306.45	424.5
1025.4029	2983.3364	1302.7	420.5
1025.5156	2984.4077	1293.7	412.65
1025.6282	2985.4783	1287.1	397.85
1025.7407	2986.5483	1264.35	383.65
1025.8532	2987.6177	1256.2	375.4
1025.9657	2988.6864	1239	356.55
1026.0782	2989.7545	1228.15	345.3
1026.1906	2990.8219	1211.05	327.7
1026.3029	2991.8887	1202.45	317
1026.4152	2992.9548	1186.4	302.55
1026.5275	2994.0204	1165.6	283.75
1026.6397	2995.0852	1163.1	282.9
1026.7519	2996.1495	1148.65	266.6
1026.864	2997.2131	1136.45	254.35
1026.9761	2998.276	1129.8	248.75
1027.0882	2999.3383	1122.1	239.95
1027.2002	3000.4	1114.9	232.75
1027.3122	3001.4611	1101.6	220.35
1027.4241	3002.5215	1096.15	211.9
1027.536	3003.5812	1091.1	210.85
1027.6478	3004.6404	1080.25	197.7
1027.7596	3005.6989	1077.2	192.25
1027.8714	3006.7567	1072.1	190.2
1027.9831	3007.8139	1096.55	188.2
1028.0947	3008.8705	1066.55	185.6
1028.2064	3009.9264	1076.25	179.5
1028.3179	3010.9818	1055.6	173.9
1028.4295	3012.0364	1053.15	170.4
1028.541	3013.0905	1053.75	170.1
1028.6524	3014.1439	1049.3	168.15
1028.7638	3015.1966	1044.2	164.8
1028.8752	3016.2487	1045.9	163
1028.9865	3017.3002	1050.35	162.3
1029.0978	3018.3511	1041.15	159.4
1029.209	3019.4013	1039.95	158.8
1029.3202	3020.4509	1040.2	158.55
1029.4314	3021.4998	1040.75	158.35
1029.5425	3022.5481	1040.6	159.65
1029.6535	3023.5958	1033.8	150.6
1029.7645	3024.6428	1034.2	151.55
1029.8755	3025.6892	1037.25	155.4
1029.9864	3026.735	1038.85	155.8
1030.0973	3027.7802	1039.85	156.95
1030.2082	3028.8247	1034.85	152.1
1030.319	3029.8685	1036.15	152.1
1030.4297	3030.9118	1039.65	158.05
1030.5404	3031.9544	1039.5	157.95
1030.6511	3032.9963	1037.05	156.6
1030.7617	3034.0376	1035.5	152.8
1030.8723	3035.0783	1038.2	152.05
1030.9829	3036.1184	1043.2	160.3
1031.0934	3037.1578	1039.7	158.25
1031.2038	3038.1966	1043.9	161.7
1031.3142	3039.2348	1042.45	159.45
1031.4246	3040.2723	1056.05	165.75
1031.5349	3041.3092	1041.25	160.9
1031.6452	3042.3455	1041.9	158.25
1031.7554	3043.3811	1044.15	161.5
1031.8656	3044.4161	1044.65	159.95
1031.9758	3045.4505	1037.3	155.95
1032.0859	3046.4842	1040.3	157.75
1032.1959	3047.5173	1041.6	160.75
1032.3059	3048.5498	1037.7	156.35
1032.4159	3049.5816	1038.3	156.75
1032.5258	3050.6128	1038.6	155.6
1032.6357	3051.6434	1036.5	153.35
1032.7455	3052.6734	1036.35	151.1
1032.8553	3053.7027	1030.1	149.8
1032.9651	3054.7314	1032.65	147.4
1033.0748	3055.7594	1033.15	151.2
1033.1845	3056.7868	1033.1	151.4
1033.2941	3057.8136	1031.6	150.95
1033.4037	3058.8398	1028.5	148.4
1033.5132	3059.8653	1031.6	149.95
1033.6227	3060.8902	1028.6	146.65
1033.7321	3061.9145	1028.05	146
1033.8415	3062.9381	1023.55	140.2
1033.9509	3063.9612	1037.55	138.45
1034.0602	3064.9835	1020.65	140.55
1034.1694	3066.0053	1026	141.8
1034.2787	3067.0264	1018.3	136
1034.3878	3068.0469	1020.75	138.45
1034.497	3069.0668	1022.2	137.5
1034.6061	3070.086	1017	136.2
1034.7151	3071.1046	1015.7	127.5
1034.8241	3072.1226	1014.8	131.9
1034.9331	3073.1399	1008.85	126.5
1035.042	3074.1567	1008.6	125.4
1035.1508	3075.1727	1007.2	122.45
1035.2597	3076.1882	1000.85	117.75
1035.3684	3077.203	1002.4	120.9
1035.4772	3078.2173	1001	118
1035.5859	3079.2308	996.2	110.85
1035.6945	3080.2438	996.2	112.35
1035.8031	3081.2561	989.8	107.35
1035.9117	3082.2678	984.5	101.7
1036.0202	3083.2789	983.75	102.05
1036.1286	3084.2893	981.95	98.9
1036.2371	3085.2991	978.7	95.5
1036.3454	3086.3083	985.5	98.1
1036.4538	3087.3169	976.55	93.55
1036.562	3088.3248	974.65	88.3
1036.6703	3089.3321	975	89.85
1036.7785	3090.3388	966.9	84.7
1036.8866	3091.3449	970.25	88.7
1036.9948	3092.3503	970.15	85.25
1037.1028	3093.3551	965.25	83.2
1037.2108	3094.3593	964.65	83.55
1037.3188	3095.3629	964.65	83.2
1037.4267	3096.3658	961.45	76.55
1037.5346	3097.3681	959.7	75.95
1037.6425	3098.3698	962.45	81.2
1037.7503	3099.3708	964.9	76.8
1037.858	3100.3713	956.7	74.95
1037.9657	3101.3711	956.8	73.4
1038.0734	3102.3702	1095.5	70.1
1038.181	3103.3688	957.75	74.15
1038.2886	3104.3667	954.05	71.4
1038.3961	3105.364	954	73.55
1038.5036	3106.3607	958.55	75.3
1038.611	3107.3568	952.4	66.95
1038.7184	3108.3522	949.8	70.5
1038.8257	3109.347	951.25	68.95
1038.933	3110.3412	952.4	67.9
1039.0403	3111.3348	947.1	64.25
1039.1475	3112.3277	949.8	66.45
1039.2547	3113.32	944.95	63.05
1039.3618	3114.3117	948.7	66.6
1039.4689	3115.3028	944.55	61.4
1039.5759	3116.2932	945.55	62.35
1039.6829	3117.2831	946.65	58.2
1039.7898	3118.2723	942.9	59.4
1039.8967	3119.2608	944.3	61.8
1040.0035	3120.2488	939.15	56.1
1040.1103	3121.2361	942.7	61.3
1040.2171	3122.2229	941.25	59.3
1040.3238	3123.209	939.85	57.15
1040.4305	3124.1944	940.15	58.55
1040.5371	3125.1793	941.9	57.3
1040.6437	3126.1635	939.4	57.7
1040.7502	3127.1471	936.9	55.65
1040.8567	3128.1301	935.05	52.65
1040.9631	3129.1125	936.45	53.6
1041.0695	3130.0942	935.5	53.2
1041.1759	3131.0753	946.1	57.25
1041.2822	3132.0558	936.85	51.15
1041.3884	3133.0357	937.05	55.7
1041.4946	3134.015	935.45	52.85
1041.6008	3134.9936	935.55	50.05
1041.7069	3135.9716	955.55	52.1
1041.813	3136.949	934.4	53.55
1041.919	3137.9258	950.8	49.25
1042.025	3138.902	938.45	51.6
1042.1309	3139.8775	932.35	50.8
1042.2368	3140.8524	933.1	50.7
1042.3427	3141.8267	933.8	50.6
1042.4485	3142.8004	931.15	49.45
1042.5542	3143.7735	937.55	48.05
1042.6599	3144.7459	931.85	48.75
1042.7656	3145.7178	929.5	46.7
1042.8712	3146.689	926.85	45.4
1042.9768	3147.6596	931.3	45.9
1043.0823	3148.6295	931.05	47.75
1043.1878	3149.5989	929.9	49.1
1043.2932	3150.5676	924.05	43.15
1043.3986	3151.5357	926.55	45.6
1043.5039	3152.5032	927.45	44.4
1043.6092	3153.4701	926.65	47.05
1043.7145	3154.4364	930.05	45
1043.8197	3155.402	923.8	42.9
1043.9248	3156.367	928.5	44.2
1044.03	3157.3315	945.3	44.2
1044.135	3158.2952	924.3	40.65
1044.24	3159.2584	928.1	46.35
1044.345	3160.221	925.1	43.3
1044.4499	3161.1829	922.7	41.65
1044.5548	3162.1442	924.65	43.6
1044.6596	3163.105	921	40.45
1044.7644	3164.065	925.05	44.65
1044.8692	3165.0245	925.35	41.85
1044.9739	3165.9834	922.65	42.4
1045.0785	3166.9416	923.1	41.75
1045.1831	3167.8993	922.75	39.8
1045.2877	3168.8563	925.15	41.5
1045.3922	3169.8127	922.55	42.2
1045.4966	3170.7684	921.1	39.9
1045.6011	3171.7236	923.65	39.95
1045.7054	3172.6782	923.2	41.2
1045.8098	3173.6321	921.8	39.8
1045.914	3174.5854	925.3	39.55
1046.0183	3175.5381	920.4	39.95
1046.1224	3176.4902	920	40.05
1046.2266	3177.4417	918.1	36.8
1046.3307	3178.3926	920.95	41.2
1046.4347	3179.3428	918.85	37.95
1046.5387	3180.2924	917.2	36.05
1046.6427	3181.2415	920.75	38.35
1046.7466	3182.1899	919.25	37.25
1046.8504	3183.1377	916.9	35.9
1046.9542	3184.0848	921.05	36.35
1047.058	3185.0314	919.15	37.85
1047.1617	3185.9773	919.7	37.45
1047.2654	3186.9227	919	35.8
1047.369	3187.8674	919.55	36.35
1047.4726	3188.8115	919.9	34
1047.5761	3189.755	917.8	35.6
1047.6796	3190.6979	916.25	35.05
1047.783	3191.6402	916.65	35.2
1047.8864	3192.5818	916.7	37.45
1047.9898	3193.5229	922.45	35.05
1048.0931	3194.4633	918.5	37.65
1048.1963	3195.4031	915.95	32
1048.2995	3196.3423	915.2	32.2
1048.4027	3197.2809	916.7	35.15
1048.5058	3198.2189	913.2	30.8
1048.6089	3199.1563	931.5	31.3
1048.7119	3200.0931	913.7	33.75
1048.8148	3201.0292	912.85	30.55
1048.9178	3201.9648	914.2	34.35
1049.0206	3202.8997	918.05	34.6
1049.1235	3203.834	912.05	30.85
1049.2262	3204.7677	914.25	31.65
1049.329	3205.7008	917.15	33.8
1049.4317	3206.6333	912.45	31.5
1049.5343	3207.5652	915.55	30.55
1049.6369	3208.4964	915.2	31.5
1049.7394	3209.4271	911.75	30
1049.8419	3210.3571	911.25	30
1049.9444	3211.2865	911.3	30.95
1050.0468	3212.2154	914.75	31.1
1050.1491	3213.1436	913.8	28.8
1050.2514	3214.0712	920.35	31.6
1050.3537	3214.9982	911.1	30.35
1050.4559	3215.9246	913.35	30.2
1050.5581	3216.8503	911.4	30.55
1050.6602	3217.7755	912.25	29.85
1050.7623	3218.7001	913	29.35
1050.8643	3219.624	912.1	28.35
1050.9663	3220.5473	912.95	29.65
1051.0682	3221.4701	911.1	26
1051.1701	3222.3922	912.85	29.2
1051.2719	3223.3137	910.4	27.4
1051.3737	3224.2346	908.7	26.85
1051.4754	3225.1549	909.15	28.2
1051.5771	3226.0746	910.85	30.75
1051.6788	3226.9937	911	28.65
1051.7804	3227.9121	908.05	26.4
1051.8819	3228.83	907.2	27.45
1051.9834	3229.7473	909.35	27.55
1052.0849	3230.6639	911.75	29.2
1052.1863	3231.5799	907.9	25.65
1052.2876	3232.4954	909.15	25.65
1052.3889	3233.4102	908.9	27.85
1052.4902	3234.3244	908.4	25.4
1052.5914	3235.238	907.45	24.55
1052.6926	3236.151	932.4	24.5
1052.7937	3237.0634	906.6	24.15
1052.8948	3237.9752	906.9	24.15
1052.9958	3238.8864	905.65	23.7
1053.0968	3239.797	908.75	27.25
1053.1977	3240.7069	909.9	26.4
1053.2986	3241.6163	906.75	20.25
1053.3994	3242.5251	906.55	25.25
1053.5002	3243.4332	905.2	24.4
1053.6009	3244.3408	905.35	22.25
1053.7016	3245.2477	903.5	21.55
1053.8022	3246.154	907.95	22.55
1053.9028	3247.0598	907.95	24.05
1054.0034	3247.9649	903.9	19.3
1054.1039	3248.8694	906.6	25.15
1054.2043	3249.7733	906.35	23.9
1054.3047	3250.6766	906.5	23.8
1054.4051	3251.5793	907.25	25.15
1054.5054	3252.4814	905.55	23.35
1054.6056	3253.3829	904.6	23.2
1054.7058	3254.2838	905.15	22.85
1054.806	3255.1841	905	23.4
1054.9061	3256.0838	904.35	23.6
1055.0061	3256.9829	902.15	22.05
1055.1062	3257.8814	905.8	19.65
1055.2061	3258.7792	907.6	23.7
1055.306	3259.6765	903	19.6
1055.4059	3260.5731	903.3	21.9
1055.5057	3261.4692	902.65	18.35
1055.6055	3262.3647	902.85	19.55
1055.7052	3263.2595	901.8	17.7
1055.8049	3264.1538	900.5	18.9
1055.9045	3265.0474	901.65	18.4
1056.0041	3265.9404	901.5	20.95
1056.1036	3266.8329	898.55	16.6
1056.2031	3267.7247	909.7	19.1
1056.3025	3268.616	900.15	19.15
1056.4019	3269.5066	899.2	15.4
1056.5013	3270.3966	900.4	17.05
1056.6005	3271.286	897.15	17.15
