Software Version:	3.9.2.0
Unit SN:	10000200
Spectrometer SN:	6960
Date:	3/14/2024 1:05:18 PM
Data Line Index:	25
Spectral Points:	2048
Integration time (ms):	125
Averages:	20
Delay (ms):	30000
Sequence Number:	1
Processing:	dark subtract
Laser Power (mW):	300
Laser Current (mA):	823
Laser Diode Temp (C):	25.1
Laser Case Temp (C):	28
System Temp (C):	28
Spectrometer Temp (C):	25.9
CCD Temp (C):	0.004
Secondary Temp (C):	20.014
Heatsink Temp (C):	23.915
CCDPCB Temp (C):	37.441
SecondaryPCB Temp (C):	35.062

Wavelength	RamanShift	Raw Counts	Dark Subtracted
787.061	30.1047	437.6	28.3
787.2016	32.3739	436.65	28.1
787.3422	34.6426	438.4	27.95
787.4828	36.9109	443.15	30.45
787.6235	39.1787	448.3	32.9
787.7642	41.4461	457.35	37.9
787.9049	43.7131	463.1	39.6
788.0456	45.9796	471.65	45.8
788.1863	48.2456	477	46.1
788.3271	50.5112	484.95	49
788.4679	52.7764	490.2	51.95
788.6087	55.0411	495.8	54.55
788.7496	57.3054	503.45	55.7
788.8904	59.5692	511.5	60.05
789.0313	61.8326	517.9	63.65
789.1722	64.0955	529.95	70.15
789.3132	66.3579	539.85	74.25
789.4541	68.6199	552.4	86
789.5951	70.8815	572.15	104.45
789.7361	73.1426	619.35	146.9
789.8771	75.4032	726.45	248.65
790.0181	77.6634	995.95	514.45
790.1592	79.9231	1632.1	1146.5
790.3003	82.1824	2971.65	2481.45
790.4414	84.4412	5372.05	4869.45
790.5825	86.6995	8654.05	8144.4
790.7237	88.9574	11938.5	11414.35
790.8648	91.2148	14274.6	13747.75
791.006	93.4717	15452.25	14919.3
791.1472	95.7282	15763.55	15227.95
791.2885	97.9842	15745.3	15207.45
791.4297	100.2398	15473.9	14931.85
791.571	102.4949	15128.7	14583.85
791.7123	104.7495	14742.05	14195
791.8536	107.0036	14366.8	13816.9
791.9949	109.2573	13988.45	13440.1
792.1363	111.5105	13689.8	13136.35
792.2777	113.7632	13369.45	12817.65
792.4191	116.0154	13136.5	12572.9
792.5605	118.2672	12968.3	12411.6
792.7019	120.5185	12772	12212.15
792.8434	122.7693	12633.2	12073.3
792.9849	125.0197	12542.4	11980.6
793.1264	127.2696	12404.1	11836.3
793.2679	129.519	12337.8	11769.55
793.4094	131.7679	12229.6	11656.65
793.551	134.0163	12109.45	11535.45
793.6926	136.2642	11993.75	11415.1
793.8342	138.5117	11847.35	11262.95
793.9758	140.7587	11680	11098.5
794.1175	143.0052	11553.6	10967.35
794.2591	145.2512	11388.25	10801.35
794.4008	147.4967	11226.65	10639.95
794.5425	149.7417	11104.3	10513.9
794.6842	151.9863	11030.7	10435.35
794.826	154.2304	10947.15	10350.6
794.9677	156.4739	10888.5	10285.8
795.1095	158.717	10848.55	10246.7
795.2513	160.9596	10792.9	10185.35
795.3931	163.2017	10705	10097.35
795.535	165.4433	10618.55	10009.7
795.6768	167.6844	10481.75	9866.95
795.8187	169.925	10360.95	9744
795.9606	172.1651	10197.7	9579.15
796.1025	174.4047	10052.1	9429.6
796.2445	176.6439	9963.55	9339.6
796.3864	178.8825	9856.65	9227.8
796.5284	181.1206	9798.2	9167.85
796.6704	183.3582	9717.1	9082.45
796.8124	185.5954	9685.45	9049.6
796.9544	187.832	9628.95	8990.95
797.0965	190.0681	9631.4	8988.2
797.2386	192.3037	9632.75	8988.2
797.3806	194.5388	9626.1	8977.6
797.5228	196.7734	9640.3	8989.35
797.6649	199.0075	9668.45	9012.35
797.807	201.2411	9736.65	9077.85
797.9492	203.4742	9770.9	9111
798.0914	205.7068	9808.55	9148.8
798.2336	207.9389	9846.05	9187.5
798.3758	210.1704	9922.75	9263.7
798.518	212.4015	9940.95	9278.8
798.6603	214.632	10007.05	9342.6
798.8025	216.862	10069.55	9410.1
798.9448	219.0915	10073.05	9418.7
799.0871	221.3205	10102.65	9452.45
799.2294	223.549	10146.65	9502.55
799.3718	225.777	10165.95	9521.55
799.5141	228.0044	10186.5	9538.65
799.6565	230.2314	10239	9594.85
799.7989	232.4578	10252.7	9607.05
799.9413	234.6837	10286.6	9633.1
800.0837	236.909	10305.55	9653.4
800.2262	239.1339	10308.6	9630.05
800.3687	241.3582	10290.6	9625.9
800.5111	243.582	10239.4	9552.55
800.6536	245.8053	10219.4	9535.1
800.7961	248.0281	10157	9479.2
800.9387	250.2503	10136.4	9452.5
801.0812	252.472	10164.7	9478.15
801.2238	254.6932	10207.5	9515.35
801.3664	256.9139	10227.35	9535.6
801.509	259.134	10277.5	9580.55
801.6516	261.3536	10339.7	9644.8
801.7942	263.5727	10491.7	9792.9
801.9369	265.7912	10602.1	9904.95
802.0795	268.0092	10719.05	10023.45
802.2222	270.2267	10823.4	10122.2
802.3649	272.4436	10914	10213.95
802.5076	274.6601	10971.7	10261.8
802.6504	276.8759	10969.95	10269.4
802.7931	279.0913	10937.55	10235.75
802.9359	281.3061	10895.8	10191.25
803.0787	283.5204	10885	10178.15
803.2215	285.7341	10865.95	10155.65
803.3643	287.9473	10891.55	10178.55
803.5071	290.16	10885.35	10168.5
803.6499	292.3721	10884.2	10169.45
803.7928	294.5837	10897.05	10182.85
803.9357	296.7947	10934.7	10219.45
804.0786	299.0052	11019.7	10305.75
804.2215	301.2152	11013.8	10298.4
804.3644	303.4246	10990.5	10275.55
804.5074	305.6334	10843.5	10129.7
804.6503	307.8418	10711.05	9991.55
804.7933	310.0495	10530.4	9809.75
804.9363	312.2568	10332.9	9615.1
805.0793	314.4635	10153	9432
805.2223	316.6696	9965.75	9241.5
805.3653	318.8752	9840.45	9111
805.5084	321.0802	9783.5	9063.5
805.6514	323.2847	9780.3	9056.15
805.7945	325.4887	9794.1	9070.05
805.9376	327.692	9778.4	9050.2
806.0807	329.8949	9806.55	9077.75
806.2238	332.0972	9764.9	9035.1
806.367	334.2989	9688.1	8952.7
806.5101	336.5001	9573.8	8841.1
806.6533	338.7007	9474.25	8740.6
806.7965	340.9008	9389.55	8654
806.9397	343.1003	9280.4	8541
807.0829	345.2992	9202.2	8464.55
807.2261	347.4976	9130.5	8392.1
807.3693	349.6955	9090.3	8348.3
807.5126	351.8927	9078.15	8336.6
807.6559	354.0895	9005.05	8248.6
807.7991	356.2856	8987.35	8239.55
807.9424	358.4812	8944.7	8199.85
808.0857	360.6763	8916.15	8168
808.2291	362.8707	8893.75	8143.1
808.3724	365.0646	8902.15	8150.7
808.5158	367.258	8904.25	8150.7
808.6591	369.4508	8904.7	8147.05
808.8025	371.643	8974.1	8219.6
808.9459	373.8346	9007.7	8248.8
809.0893	376.0257	9055.65	8293.55
809.2327	378.2162	9079.15	8318.4
809.3762	380.4062	9106.55	8342.5
809.5196	382.5956	9019.7	8254.3
809.6631	384.7844	8958.95	8194.1
809.8066	386.9726	8855.8	8088.6
809.9501	389.1603	8833.35	8064.85
810.0936	391.3474	8786.9	7986.75
810.2371	393.5339	8747.15	7978.1
810.3806	395.7199	8726.6	7963.8
810.5241	397.9052	8757.15	7999
810.6677	400.09	8765	8006.85
810.8113	402.2743	8833	8074.5
810.9548	404.4579	8916.3	8158.7
811.0984	406.641	9004.7	8246.4
811.2421	408.8235	9079.1	8320.25
811.3857	411.0054	9166.9	8406.9
811.5293	413.1868	9247.9	8484.85
811.673	415.3675	9295.2	8527.6
811.8166	417.5477	9297.85	8530.9
811.9603	419.7273	9232.7	8464.55
812.104	421.9064	9153.2	8376.25
812.2477	424.0848	9072.55	8301.25
812.3914	426.2627	8975.15	8200.95
812.5351	428.4399	8872.9	8097.4
812.6788	430.6166	8706.85	7924.9
812.8226	432.7928	8542.65	7759.9
812.9663	434.9683	8412.35	7631.7
813.1101	437.1432	8292.2	7505.2
813.2539	439.3176	8206.85	7425.35
813.3977	441.4914	8130.7	7344.85
813.5415	443.6645	8100.65	7313.45
813.6853	445.8371	8066.65	7280.7
813.8291	448.0091	8035.15	7247.75
813.973	450.1806	8001.45	7214.9
814.1168	452.3514	7986.7	7196.5
814.2607	454.5216	8011.45	7214.8
814.4046	456.6913	7960.2	7169.95
814.5485	458.8603	7996.7	7206.05
814.6924	461.0288	7980.8	7189.5
814.8363	463.1967	7977.35	7188.75
814.9802	465.3639	8009	7217.25
815.1241	467.5306	7966.05	7172
815.2681	469.6967	7954.8	7164.75
815.412	471.8622	7933.2	7139.35
815.556	474.0271	7942.85	7148.4
815.7	476.1914	7953.6	7157.4
815.844	478.3551	7942.2	7147.8
815.988	480.5182	7960.8	7165.15
816.132	482.6807	7980.3	7183.6
816.276	484.8426	8043.85	7247.55
816.4201	487.0039	8177.5	7379.3
816.5641	489.1647	8339.25	7542.55
816.7082	491.3248	8483.45	7685.35
816.8522	493.4843	8535.3	7736.95
816.9963	495.6432	8499.85	7702.05
817.1404	497.8015	8425.25	7622.75
817.2845	499.9592	8335.3	7535.75
817.4286	502.1163	8244.5	7444.35
817.5727	504.2728	8079.6	7276.3
817.7168	506.4287	7982.1	7181.65
817.861	508.5839	7830.8	7027.2
818.0051	510.7386	7740.8	6938.7
818.1493	512.8927	7706.35	6895.9
818.2935	515.0461	7693.9	6891.2
818.4377	517.199	7691.75	6889.7
818.5818	519.3512	7784.7	6979.75
818.726	521.5029	7917.25	7105.05
818.8703	523.6539	8038	7229.05
819.0145	525.8043	8097.15	7289.75
819.1587	527.9541	8041.95	7232.8
819.303	530.1033	7922.65	7112.4
819.4472	532.2519	7827.45	7018.3
819.5915	534.3999	7763.7	6952.9
819.7357	536.5472	7783.85	6974.95
819.88	538.694	7835.4	7023.55
820.0243	540.8401	7925.65	7112.45
820.1686	542.9856	8038.4	7226.35
820.3129	545.1305	8037.95	7225.1
820.4572	547.2748	8007.65	7194.15
820.6016	549.4185	7940.6	7127.45
820.7459	551.5615	7877.7	7064.15
820.8902	553.704	7884.15	7067.9
821.0346	555.8458	7891.6	7078.05
821.1789	557.987	7967.25	7152.65
821.3233	560.1276	8055.85	7241.1
821.4677	562.2675	8215.1	7400.35
821.6121	564.4069	8418.85	7607.15
821.7565	566.5456	8638.55	7823.45
821.9009	568.6837	8723.05	7905.45
822.0453	570.8212	8560.75	7745.4
822.1897	572.958	8243.7	7426.6
822.3342	575.0942	7934.85	7118.8
822.4786	577.2299	7726.9	6907.1
822.6231	579.3648	7605.5	6785.3
822.7675	581.4992	7531.8	6713.5
822.912	583.6329	7562.2	6742.65
823.0565	585.766	7637	6816.2
823.201	587.8985	7696.8	6877.4
823.3454	590.0304	7757.75	6919.15
823.4899	592.1616	7750.6	6926.4
823.6345	594.2922	7709	6889.45
823.779	596.4222	7613.8	6790.95
823.9235	598.5515	7504.9	6682.45
824.068	600.6802	7407.45	6585.95
824.2126	602.8083	7331.3	6509.2
824.3571	604.9358	7302.8	6477.25
824.5017	607.0626	7289.25	6464.7
824.6462	609.1888	7331.35	6508.15
824.7908	611.3144	7389.7	6561.55
824.9354	613.4393	7470	6644.9
825.08	615.5636	7515.4	6691.35
825.2246	617.6873	7554.3	6727.35
825.3692	619.8103	7538.2	6711.65
825.5138	621.9327	7467.95	6638.8
825.6584	624.0544	7354.75	6530
825.803	626.1756	7236.6	6410.05
825.9477	628.2961	7153.95	6326.3
826.0923	630.4159	7116.75	6289.6
826.237	632.5351	7108.35	6281.5
826.3816	634.6537	7077.2	6246.75
826.5263	636.7716	7072.4	6240.65
826.6709	638.8889	7062.5	6233.3
826.8156	641.0056	7092.75	6262.35
826.9603	643.1216	7063.15	6229.05
827.105	645.237	7073.4	6239.75
827.2497	647.3518	7024	6193.8
827.3944	649.4659	6990.35	6159.35
827.5391	651.5793	6935.75	6101.85
827.6838	653.6922	6903.9	6071.75
827.8285	655.8043	6908	6076.7
827.9733	657.9159	6900.65	6064.85
828.118	660.0268	6860.15	6022.6
828.2627	662.137	6862.65	6026.95
828.4075	664.2466	6870.2	6032.6
828.5522	666.3556	6842.55	6007.1
828.697	668.4639	6815.4	5976.65
828.8418	670.5716	6826.1	5990.85
828.9865	672.6786	6796.4	5959.4
829.1313	674.785	6729.95	5891.7
829.2761	676.8907	6690.15	5855.3
829.4209	678.9958	6718.1	5882.15
829.5657	681.1002	6702.05	5863.65
829.7105	683.204	6661.65	5821.2
829.8553	685.3072	6665.7	5826.8
830.0001	687.4097	6651.1	5813.65
830.1449	689.5115	6637.5	5796.65
830.2898	691.6127	6622.65	5785.45
830.4346	693.7132	6639.55	5799.15
830.5794	695.8131	6629.9	5779.65
830.7243	697.9123	6646.8	5804.8
830.8691	700.0109	6625.1	5782.8
831.014	702.1089	6653.45	5812.95
831.1588	704.2061	6678.8	5837.7
831.3037	706.3028	6712.65	5868.5
831.4486	708.3987	6729.5	5886.85
831.5935	710.4941	6748.25	5907.4
831.7383	712.5887	6743.15	5900.8
831.8832	714.6827	6791.6	5945.6
832.0281	716.7761	6761.1	5919.1
832.173	718.8688	6820.05	5975.85
832.3179	720.9608	6881.3	6034.4
832.4628	723.0522	6945.1	6098.65
832.6077	725.1429	6959.95	6119.55
832.7527	727.233	7034.2	6189.65
832.8976	729.3224	7070.8	6225.95
833.0425	731.4112	7059.4	6214.05
833.1874	733.4993	6993.3	6146.35
833.3324	735.5867	6899.4	6052.45
833.4773	737.6735	6773.6	5927.1
833.6222	739.7596	6669.4	5821.3
833.7672	741.845	6581.35	5734.55
833.9122	743.9298	6563.3	5715.65
834.0571	746.014	6525.4	5679.2
834.2021	748.0974	6536.5	5688.8
834.347	750.1802	6498.55	5652.8
834.492	752.2624	6481.65	5635.65
834.637	754.3439	6490.55	5640.3
834.782	756.4247	6521.2	5665.1
834.9269	758.5048	6575.45	5726.1
835.0719	760.5843	6660.7	5812.35
835.2169	762.6631	6792.5	5944.1
835.3619	764.7413	7012.05	6164.5
835.5069	766.8188	7309.25	6459.4
835.6519	768.8956	7578.75	6726.8
835.7969	770.9718	7795.5	6948.4
835.9419	773.0473	7771.85	6923.7
836.0869	775.1221	7685	6835.15
836.232	777.1962	7577.65	6725.45
836.377	779.2697	7554.45	6703.85
836.522	781.3426	7637.95	6773.6
836.667	783.4147	7712.55	6858.9
836.8121	785.4862	7755.9	6902.8
836.9571	787.557	7641.25	6789.4
837.1021	789.6271	7408.35	6557.2
837.2472	791.6966	7106.4	6254.05
837.3922	793.7654	6812.3	5959.85
837.5373	795.8335	6595.15	5744.45
837.6823	797.901	6450.7	5600.5
837.8274	799.9678	6362.6	5508.7
837.9724	802.0339	6301.8	5449.3
838.1175	804.0993	6285.05	5421.8
838.2626	806.1641	6260.75	5407.35
838.4076	808.2282	6228.25	5375.75
838.5527	810.2916	6186.55	5330.25
838.6978	812.3544	6162	5310.05
838.8428	814.4164	6116	5262.95
838.9879	816.4778	6126.85	5272.05
839.133	818.5385	6108.3	5254.4
839.2781	820.5986	6169.8	5316.5
839.4232	822.658	6274.75	5417.7
839.5682	824.7166	6390.9	5535.8
839.7133	826.7747	6629.05	5775.6
839.8584	828.832	6863.55	6008.1
840.0035	830.8886	7070.75	6212.5
840.1486	832.9446	7184.45	6327.95
840.2937	834.9999	7132.35	6280.1
840.4388	837.0545	6982.45	6123.65
840.5839	839.1085	6833.65	5979.4
840.729	841.1618	6659.5	5800.05
840.8741	843.2143	6519.9	5664.05
841.0192	845.2662	6396.05	5538.55
841.1643	847.3175	6327	5472.35
841.3095	849.368	6272.15	5417.2
841.4546	851.4179	6225.65	5367.2
841.5997	853.467	6197.35	5341.05
841.7448	855.5155	6180.65	5321.6
841.8899	857.5633	6120	5261.55
842.0351	859.6105	6083.2	5225.7
842.1802	861.6569	6051.4	5193.45
842.3253	863.7027	5987.05	5126.7
842.4704	865.7478	5973.15	5113.9
842.6156	867.7922	5946.75	5089.7
842.7607	869.8359	5894.85	5035.25
842.9058	871.8789	5910.7	5049.2
843.0509	873.9212	5963.25	5067.95
843.1961	875.9629	5955.3	5096.3
843.3412	878.0039	6004.65	5142.9
843.4863	880.0441	6036.8	5177.9
843.6315	882.0837	6052.7	5191.55
843.7766	884.1226	6089.15	5227.55
843.9218	886.1609	6122.8	5264.15
844.0669	888.1984	6170.4	5310.05
844.212	890.2352	6254.9	5395.25
844.3572	892.2714	6300.25	5436.65
844.5023	894.3069	6279.45	5417.75
844.6475	896.3416	6151.75	5291.35
844.7926	898.3757	6086.25	5225.1
844.9377	900.4091	6028.9	5167.45
845.0829	902.4418	6004.95	5138.75
845.228	904.4739	6016.4	5151.2
845.3732	906.5052	6051.45	5188.45
845.5183	908.5358	6032.35	5171.55
845.6635	910.5658	5981.8	5117.85
845.8086	912.595	5875.2	5012.85
845.9538	914.6236	5751.3	4890.7
846.0989	916.6515	5677	4814.9
846.2441	918.6786	5612.8	4748.95
846.3892	920.7051	5616.2	4748.85
846.5344	922.7309	5618.95	4754.15
846.6795	924.756	5624	4760
846.8246	926.7804	5648.65	4785.7
846.9698	928.8041	5660.7	4793.8
847.1149	930.8272	5684.1	4820.9
847.2601	932.8495	5669.2	4804.15
847.4052	934.8711	5651.8	4787.45
847.5504	936.892	5630.05	4766.3
847.6955	938.9123	5635.75	4771.35
847.8407	940.9318	5639.7	4775.05
847.9858	942.9506	5652.55	4788
848.131	944.9688	5629.8	4766.35
848.2761	946.9862	5585	4721.55
848.4213	949.003	5504.45	4639
848.5664	951.019	5439.75	4573.4
848.7115	953.0344	5398.8	4532.8
848.8567	955.0491	5380.45	4516.3
849.0018	957.063	5386.7	4522.3
849.147	959.0763	5410.8	4547.1
849.2921	961.0888	5411.85	4546.5
849.4373	963.1007	5412.25	4546.85
849.5824	965.1119	5419.9	4555.55
849.7275	967.1223	5426.35	4559.25
849.8727	969.1321	5394.85	4528.85
850.0178	971.1412	5410.9	4547
850.1629	973.1495	5393.15	4527.25
850.3081	975.1572	5408.5	4509.4
850.4532	977.1641	5388.75	4524.7
850.5983	979.1704	5367.85	4498.6
850.7435	981.1759	5330.95	4462.25
850.8886	983.1808	5331.3	4465.05
851.0337	985.1849	5325.4	4449.4
851.1788	987.1884	5347.85	4478.45
851.324	989.1911	5375.85	4506.7
851.4691	991.1932	5401.6	4532.8
851.6142	993.1945	5391.9	4523.6
851.7593	995.1951	5383	4514
851.9045	997.1951	5377.65	4505.15
852.0496	999.1943	5359.15	4491.7
852.1947	1001.1928	5336.45	4470.3
852.3398	1003.1906	5356	4490.15
852.4849	1005.1877	5402.3	4532.7
852.63	1007.1841	5444.15	4577
852.7751	1009.1798	5467.35	4600.7
852.9202	1011.1748	5439.4	4572.55
853.0653	1013.1691	5377	4507.5
853.2104	1015.1627	5291.9	4423.9
853.3555	1017.1556	5179.8	4313.5
853.5006	1019.1477	5097.7	4228.6
853.6457	1021.1392	5046.6	4176.7
853.7908	1023.1299	5025.95	4156.9
853.9359	1025.12	5036.35	4165.6
854.081	1027.1093	5030.75	4161.15
854.2261	1029.0979	5096.5	4228.1
854.3712	1031.0859	5121.9	4254.1
854.5163	1033.0731	5130.4	4260.9
854.6613	1035.0596	5128.8	4260.1
854.8064	1037.0454	5079.9	4210.8
854.9515	1039.0304	5025.75	4156.3
855.0965	1041.0148	4970.55	4099.6
855.2416	1042.9985	4907.8	4037
855.3867	1044.9814	4888.1	4019.55
855.5317	1046.9636	4868.05	3996.1
855.6768	1048.9452	4846.75	3977.1
855.8219	1050.926	4867.9	3999
855.9669	1052.9061	4869.95	4001.5
856.112	1054.8855	4881.95	4012.45
856.257	1056.8642	4906	4035.95
856.4021	1058.8421	4928.25	4052.65
856.5471	1060.8194	4901.8	4031.4
856.6921	1062.7959	4916	4046.75
856.8372	1064.7717	4947.3	4075.4
856.9822	1066.7469	4974.35	4103.35
857.1272	1068.7213	5011	4138.4
857.2723	1070.695	5027.6	4158.3
857.4173	1072.6679	5050.9	4179.25
857.5623	1074.6402	5065.45	4193.15
857.7073	1076.6117	5075.5	4200.15
857.8523	1078.5826	5021.5	4149.45
857.9973	1080.5527	4928.6	4053.85
858.1423	1082.5221	4874.5	4002.85
858.2873	1084.4908	4818.3	3946.15
858.4323	1086.4587	4817.3	3944.5
858.5773	1088.426	4822	3949.2
858.7223	1090.3925	4809.35	3934.2
858.8673	1092.3584	4814.25	3943.1
859.0123	1094.3235	4808.9	3937.4
859.1573	1096.2879	4830.45	3958.75
859.3022	1098.2515	4919.35	4047.4
859.4472	1100.2145	4980.15	4108.3
859.5922	1102.1767	5062.15	4186.55
859.7371	1104.1382	5171.95	4300.4
859.8821	1106.099	5276.9	4403.95
860.027	1108.0591	5393.3	4522.85
860.172	1110.0185	5482.5	4610.1
860.3169	1111.9771	5529.65	4658.55
860.4619	1113.9351	5499.55	4627.9
860.6068	1115.8923	5474.5	4601.5
860.7517	1117.8488	5422	4547.35
860.8967	1119.8045	5324.75	4449.7
861.0416	1121.7596	5250.2	4375.55
861.1865	1123.7139	5130.8	4257.85
861.3314	1125.6675	5086.95	4212.1
861.4763	1127.6204	5090.75	4218.45
861.6212	1129.5726	5085.45	4208.9
861.7661	1131.524	5058.35	4187.2
861.911	1133.4748	4977.45	4103.45
862.0559	1135.4248	4889.55	4013.8
862.2008	1137.3741	4802.15	3930.7
862.3457	1139.3226	4733.9	3859.25
862.4905	1141.2705	4706.85	3833.05
862.6354	1143.2176	4687.05	3808.2
862.7803	1145.164	4666.25	3793.05
862.9251	1147.1097	4635.5	3760.05
863.07	1149.0546	4570.5	3694.55
863.2148	1150.9989	4503.35	3628.95
863.3597	1152.9424	4462.65	3589.5
863.5045	1154.8852	4430.15	3557
863.6493	1156.8272	4410.2	3537.05
863.7942	1158.7686	4392.4	3510.8
863.939	1160.7092	4401.3	3525.7
864.0838	1162.6491	4408.3	3530.95
864.2286	1164.5883	4435.55	3562.55
864.3734	1166.5267	4475.45	3601.15
864.5182	1168.4644	4536.85	3661.2
864.663	1170.4014	4608.85	3731.05
864.8078	1172.3377	4733.45	3860.7
864.9526	1174.2732	4852.15	3976.95
865.0974	1176.2081	5028.7	4152.25
865.2421	1178.1421	5276.95	4398.35
865.3869	1180.0755	5523.55	4650.05
865.5317	1182.0082	5710	4835.2
865.6764	1183.9401	5800	4924.05
865.8212	1185.8713	5729.8	4853.8
865.9659	1187.8017	5555.7	4680.8
866.1106	1189.7315	5335.25	4461.1
866.2554	1191.6605	5146.8	4242.05
866.4001	1193.5888	4967.85	4092.95
866.5448	1195.5163	4858	3983.65
866.6895	1197.4432	4799.1	3925.95
866.8342	1199.3693	4752.1	3877.6
866.9789	1201.2947	4710.9	3829.95
867.1236	1203.2193	4696.65	3823.6
867.2683	1205.1432	4679.35	3803.9
867.413	1207.0664	4672.8	3796.5
867.5576	1208.9889	4666.55	3788.85
867.7023	1210.9106	4665.15	3788.65
867.847	1212.8316	4654.5	3779.7
867.9916	1214.7519	4682.8	3799.4
868.1363	1216.6715	4702.9	3829.4
868.2809	1218.5903	4728.95	3855.1
868.4255	1220.5084	4751.25	3875.7
868.5701	1222.4257	4810.25	3934
868.7148	1224.3424	4855.3	3979.95
868.8594	1226.2583	4916.6	4036.5
869.004	1228.1735	4983.15	4107.35
869.1486	1230.0879	5068.2	4193.3
869.2932	1232.0016	5168.05	4291.3
869.4377	1233.9146	5243.1	4364.7
869.5823	1235.8269	5279.6	4403.45
869.7269	1237.7384	5282.7	4407.45
869.8715	1239.6492	5215.4	4339.4
870.016	1241.5592	5201	4324.45
870.1606	1243.4686	5214.05	4338.5
870.3051	1245.3772	5311.4	4434.35
870.4496	1247.285	5428.85	4551.05
870.5941	1249.1922	5558.5	4682.6
870.7387	1251.0986	5677.35	4801.9
870.8832	1253.0042	5751.65	4874.55
871.0277	1254.9092	5846.2	4969.7
871.1722	1256.8134	5923.6	5047.55
871.3167	1258.7169	6003.15	5124.75
871.4611	1260.6196	6044.8	5169.25
871.6056	1262.5216	6144.05	5266.75
871.7501	1264.4229	6222.2	5346.85
871.8945	1266.3234	6281.05	5404.5
872.039	1268.2232	6342.6	5463.5
872.1834	1270.1223	6381.35	5503.95
872.3278	1272.0207	6379.65	5503.7
872.4723	1273.9183	6329.1	5447.5
872.6167	1275.8151	6297.65	5420.6
872.7611	1277.7113	6291.6	5411.75
872.9055	1279.6067	6331.15	5454.4
873.0499	1281.5014	6487.85	5606.6
873.1943	1283.3953	6713.45	5834.35
873.3386	1285.2885	7040	6162.8
873.483	1287.181	7380.95	6502.75
873.6274	1289.0727	7691.5	6815.95
873.7717	1290.9637	7912.3	7034.05
873.9161	1292.854	8099.9	7222.35
874.0604	1294.7435	8071.85	7192.75
874.2047	1296.6323	8007.1	7129.35
874.349	1298.5204	7860.35	6978.1
874.4933	1300.4077	7674.55	6794.5
874.6376	1302.2943	7488.75	6610.85
874.7819	1304.1802	7272.4	6393.8
874.9262	1306.0653	7026.95	6147.95
875.0705	1307.9497	6750.6	5871.85
875.2147	1309.8333	6519.8	5641.9
875.359	1311.7162	6302.35	5424.2
875.5032	1313.5984	6208.2	5328.05
875.6475	1315.4798	6156.2	5261.25
875.7917	1317.3605	6123.5	5243.15
875.9359	1319.2405	6082.25	5201.5
876.0801	1321.1197	5963.7	5083.8
876.2243	1322.9982	5834.8	4952.8
876.3685	1324.876	5656.45	4778.15
876.5127	1326.753	5487.25	4608.85
876.6569	1328.6293	5356.05	4478.45
876.801	1330.5048	5209.2	4329.05
876.9452	1332.3796	5078.6	4202.7
877.0893	1334.2537	5021.4	4116.3
877.2335	1336.127	4928.55	4049.7
877.3776	1337.9996	4882.75	4003.45
877.5217	1339.8714	4849.5	3970.8
877.6658	1341.7426	4885.65	3963.05
877.8099	1343.6129	4849.45	3971.2
877.954	1345.4826	4834.7	3957.15
878.0981	1347.3515	4817.7	3937.35
878.2422	1349.2196	4796.4	3917.65
878.3862	1351.087	4793.85	3916.15
878.5303	1352.9537	4800.15	3921.35
878.6743	1354.8197	4841.55	3963.8
878.8184	1356.6849	4921.2	4043.65
878.9624	1358.5493	4987.75	4109.75
879.1064	1360.4131	5069.45	4192.3
879.2504	1362.276	5152.95	4275.5
879.3944	1364.1383	5206.35	4327.55
879.5384	1365.9998	5197.9	4313.45
879.6823	1367.8606	5088.3	4209.45
879.8263	1369.7206	4955.75	4076.4
879.9702	1371.5799	4820.9	3938.45
880.1142	1373.4384	4721.15	3840.4
880.2581	1375.2962	4628.15	3749.2
880.402	1377.1533	4480.4	3602
880.5459	1379.0096	4315.85	3434.7
880.6898	1380.8652	4162.85	3284.65
880.8337	1382.7201	4040.3	3160.35
880.9776	1384.5742	3939.9	3061.9
881.1215	1386.4275	3857.25	2977.4
881.2653	1388.2802	3781.4	2903.9
881.4092	1390.132	3750.7	2871.55
881.553	1391.9832	3713.65	2832.85
881.6968	1393.8336	3671.2	2792.9
881.8406	1395.6832	3662.7	2780.55
881.9844	1397.5322	3644.65	2765.85
882.1282	1399.3803	3630.4	2748.9
882.272	1401.2278	3599.25	2718.85
882.4158	1403.0745	3600.15	2720.3
882.5595	1404.9204	3568.5	2690
882.7033	1406.7656	3573.1	2692.65
882.847	1408.6101	3580.45	2700.55
882.9908	1410.4538	3573.9	2693.95
883.1345	1412.2968	3593.95	2714.6
883.2782	1414.139	3596.7	2716.75
883.4219	1415.9805	3646.8	2767.8
883.5656	1417.8213	3673.65	2788.1
883.7092	1419.6613	3698.75	2820.55
883.8529	1421.5006	3763.9	2882.75
883.9965	1423.3391	3855.45	2974.5
884.1402	1425.1769	3973.2	3092.6
884.2838	1427.0139	4185.35	3304.6
884.4274	1428.8502	4412.35	3531.55
884.571	1430.6858	4653.4	3772.8
884.7146	1432.5206	4816.35	3935.8
884.8582	1434.3547	4894.35	4013.4
885.0018	1436.188	4903.55	4024.25
885.1453	1438.0206	4875.9	3995.85
885.2889	1439.8524	4799.65	3919.65
885.4324	1441.6835	4758.85	3880.15
885.5759	1443.5139	4714.05	3828.55
885.7194	1445.3435	4671.95	3791.85
885.8629	1447.1724	4674.9	3796.5
886.0064	1449.0005	4639.5	3759.85
886.1499	1450.8279	4627.95	3748.15
886.2933	1452.6545	4625.85	3745.1
886.4368	1454.4804	4629.7	3750.1
886.5802	1456.3056	4639.65	3751
886.7237	1458.13	4599.15	3717.8
886.8671	1459.9536	4534.95	3654.9
887.0105	1461.7766	4425.35	3545.15
887.1539	1463.5987	4302.7	3421.15
887.2972	1465.4202	4149.85	3268.05
887.4406	1467.2409	4018.5	3137.05
887.584	1469.0608	3887.55	3007.55
887.7273	1470.88	3777.4	2896.2
887.8706	1472.6984	3670.15	2791.15
888.0139	1474.5161	3586.3	2702.5
888.1572	1476.3331	3530.6	2651.5
888.3005	1478.1493	3473.95	2594.3
888.4438	1479.9648	3443.4	2561.3
888.5871	1481.7795	3401	2522.1
888.7303	1483.5935	3387.15	2506.3
888.8736	1485.4067	3371.05	2492.05
889.0168	1487.2192	3355.35	2476.65
889.16	1489.031	3349.95	2470.6
889.3032	1490.842	3329.8	2450.35
889.4464	1492.6522	3313.9	2433.4
889.5896	1494.4618	3310.15	2427.75
889.7327	1496.2705	3301.85	2421
889.8759	1498.0785	3265.7	2383.8
890.019	1499.8858	3249.8	2366.2
890.1622	1501.6924	3236.8	2357.6
890.3053	1503.4981	3206.35	2326.75
890.4484	1505.3032	3222	2341.1
890.5914	1507.1075	3194.85	2313.25
890.7345	1508.911	3171.8	2292.2
890.8776	1510.7138	3148.5	2267.95
891.0206	1512.5159	3130.05	2246.75
891.1637	1514.3172	3110.8	2230.25
891.3067	1516.1178	3093.95	2214.15
891.4497	1517.9176	3087.45	2204.9
891.5927	1519.7166	3045.9	2165.65
891.7357	1521.515	3046.85	2159.45
891.8786	1523.3126	3030.95	2150.45
892.0216	1525.1094	3028.8	2147.6
892.1645	1526.9055	3008.15	2127.8
892.3074	1528.7008	3003.1	2121.6
892.4503	1530.4954	2990.25	2105.8
892.5932	1532.2893	2986.1	2106.9
892.7361	1534.0824	2969.8	2085.9
892.879	1535.8747	2968.85	2089
893.0218	1537.6663	2962.4	2080.7
893.1647	1539.4572	2957.8	2074.55
893.3075	1541.2473	2969.75	2088.95
893.4503	1543.0367	2956.45	2077.55
893.5931	1544.8253	2957.6	2069.9
893.7359	1546.6132	2965.5	2082.1
893.8787	1548.4003	2973.8	2082.95
894.0214	1550.1867	2999.1	2109.3
894.1642	1551.9723	3017.15	2132.5
894.3069	1553.7572	3032.25	2150.6
894.4496	1555.5414	3099	2218.3
894.5923	1557.3247	3141.75	2260.25
894.735	1559.1074	3222.8	2342.7
894.8777	1560.8893	3287.5	2408.15
895.0204	1562.6705	3386.15	2505.4
895.163	1564.4509	3439.65	2560.45
895.3056	1566.2305	3487.15	2607.95
895.4482	1568.0094	3530.25	2651.2
895.5908	1569.7876	3534.15	2653.85
895.7334	1571.565	3532.05	2651.1
895.876	1573.3417	3526.4	2645
896.0186	1575.1176	3537.35	2657.6
896.1611	1576.8928	3554.7	2672.4
896.3036	1578.6672	3566.5	2685.15
896.4461	1580.4409	3590.25	2710.45
896.5886	1582.2138	3621.85	2739.3
896.7311	1583.986	3670.1	2786.95
896.8736	1585.7575	3708.7	2828.8
897.0161	1587.5282	3747.8	2867.9
897.1585	1589.2981	3814.65	2933.1
897.3009	1591.0673	3853.45	2972.95
897.4433	1592.8358	3911.85	3031.35
897.5857	1594.6035	3943.85	3060.45
897.7281	1596.3704	3952.5	3072.5
897.8705	1598.1366	3976.2	3094.1
898.0128	1599.9021	3981.35	3100.8
898.1551	1601.6668	4006.95	3123.7
898.2975	1603.4308	4008.85	3125.85
898.4398	1605.194	4072	3187.6
898.5821	1606.9564	4140.8	3259.2
898.7243	1608.7182	4215.8	3329.65
898.8666	1610.4791	4353.95	3474.65
899.0088	1612.2394	4512	3628.95
899.1511	1613.9988	4682.7	3799.8
899.2933	1615.7576	4847.25	3967.4
899.4355	1617.5156	4989.05	4102.8
899.5776	1619.2728	5030.75	4151.3
899.7198	1621.0293	4999.45	4119.5
899.862	1622.785	4907.1	4019.75
900.0041	1624.54	4750.55	3866.15
900.1462	1626.2942	4557.6	3675.55
900.2883	1628.0477	4319.15	3434.1
900.4304	1629.8005	4137.2	3250.95
900.5725	1631.5525	3939.95	3059.05
900.7145	1633.3037	3793.45	2910.2
900.8566	1635.0542	3662.25	2781.65
900.9986	1636.804	3571	2690.1
901.1406	1638.553	3529.85	2584.5
901.2826	1640.3013	3420.25	2540.65
901.4245	1642.0488	3386.35	2504.8
901.5665	1643.7955	3357.5	2476.15
901.7085	1645.5416	3361.35	2478.75
901.8504	1647.2868	3381.85	2499.55
901.9923	1649.0313	3398.1	2517.85
902.1342	1650.7751	3432.8	2547.15
902.2761	1652.5181	3450.45	2569.15
902.4179	1654.2604	3494.65	2612.7
902.5598	1656.0019	3542.45	2663.35
902.7016	1657.7427	3644.15	2763.25
902.8434	1659.4828	3738.15	2859.35
902.9852	1661.222	3827.85	2945.45
903.127	1662.9606	3866.85	2986.25
903.2687	1664.6984	3833.6	2952.4
903.4105	1666.4354	3691.75	2810.85
903.5522	1668.1717	3508.15	2629.65
903.6939	1669.9072	3301.25	2419.7
903.8356	1671.642	3113.7	2230.7
903.9773	1673.3761	2965.95	2086.25
904.119	1675.1094	2838.25	1958.7
904.2606	1676.8419	2736.9	1854.2
904.4022	1678.5737	2669.35	1789.1
904.5439	1680.3048	2618.25	1737.5
904.6855	1682.0351	2553.95	1673.75
904.827	1683.7646	2532.3	1649.1
904.9686	1685.4934	2499.95	1619.6
905.1101	1687.2215	2463.95	1581.7
905.2517	1688.9488	2456.05	1575.15
905.3932	1690.6754	2420.4	1540.45
905.5347	1692.4012	2399.75	1520.8
905.6761	1694.1263	2390.05	1510.4
905.8176	1695.8506	2367.4	1484.6
905.9591	1697.5742	2352.25	1472.3
906.1005	1699.297	2343	1460.45
906.2419	1701.0191	2328	1446.45
906.3833	1702.7404	2312.95	1433.15
906.5246	1704.461	2297.9	1415
906.666	1706.1808	2292.85	1411.05
906.8073	1707.8999	2272.5	1390.35
906.9487	1709.6182	2273.75	1392.1
907.09	1711.3358	2267.95	1385.7
907.2313	1713.0527	2258.3	1378.1
907.3725	1714.7688	2246.85	1360.3
907.5138	1716.4841	2233.95	1350.7
907.655	1718.1987	2236.95	1350.45
907.7962	1719.9126	2223.05	1343.65
907.9374	1721.6257	2216.35	1331
908.0786	1723.338	2210.15	1327.05
908.2198	1725.0496	2193.75	1313.8
908.3609	1726.7605	2204.9	1322.8
908.502	1728.4706	2198.75	1317.9
908.6431	1730.18	2177.05	1291.4
908.7842	1731.8886	2172.1	1292.1
908.9253	1733.5964	2173.4	1286.15
909.0664	1735.3036	2168.3	1285.8
909.2074	1737.0099	2158.65	1277.9
909.3484	1738.7156	2146.2	1265.55
909.4894	1740.4204	2148.1	1263.8
909.6304	1742.1246	2141.1	1256.4
909.7714	1743.8279	2147.85	1262.95
909.9123	1745.5306	2126.5	1244.55
910.0532	1747.2325	2122.35	1241.95
910.1941	1748.9336	2111.5	1230.25
910.335	1750.634	2107.65	1226.85
910.4759	1752.3336	2113.55	1231.7
910.6168	1754.0325	2112.95	1233.15
910.7576	1755.7307	2109.35	1228.3
910.8984	1757.4281	2105.15	1222.65
911.0392	1759.1247	2115.05	1225.9
911.18	1760.8206	2100.8	1214.5
911.3208	1762.5158	2101.95	1216.3
911.4615	1764.2102	2075.8	1196.9
911.6022	1765.9039	2076.6	1195.45
911.7429	1767.5968	2080.5	1198.25
911.8836	1769.289	2076.45	1194.85
912.0243	1770.9804	2069.45	1187.6
912.1649	1772.6711	2067.6	1186.45
912.3056	1774.361	2072.55	1189.75
912.4462	1776.0502	2067.3	1186.2
912.5868	1777.7386	2059.15	1175.35
912.7274	1779.4263	2062	1180.5
912.8679	1781.1132	2051.3	1168.95
913.0084	1782.7994	2049.7	1166.4
913.149	1784.4849	2046.55	1165.8
913.2895	1786.1696	2062.2	1159.9
913.4299	1787.8535	2047.05	1165.5
913.5704	1789.5367	2036	1153.35
913.7108	1791.2192	2031.1	1149.35
913.8513	1792.9009	2051.15	1156
913.9917	1794.5818	2029.55	1145.2
914.132	1796.2621	2028	1147
914.2724	1797.9415	2015.45	1133.55
914.4128	1799.6202	2016.75	1133.7
914.5531	1801.2982	2009.9	1129.7
914.6934	1802.9755	2011.6	1129.45
914.8337	1804.6519	2004.25	1123.25
914.9739	1806.3277	1993.3	1111.15
915.1142	1808.0027	1991.95	1110.6
915.2544	1809.6769	1996.5	1114.6
915.3946	1811.3504	1998.3	1116.15
915.5348	1813.0231	1988.5	1104.95
915.675	1814.6951	1986.3	1104.2
915.8151	1816.3664	1993.85	1110.75
915.9553	1818.0369	1981.7	1100.3
916.0954	1819.7067	1977.55	1095.65
916.2355	1821.3757	1967.8	1084.05
916.3755	1823.044	1979.4	1098.9
916.5156	1824.7115	1974.15	1090.8
916.6556	1826.3783	1959.75	1080.3
916.7956	1828.0443	1969.55	1088.8
916.9356	1829.7096	1973.4	1090.45
917.0756	1831.3741	1957.6	1073.3
917.2155	1833.0379	1960.4	1079.7
917.3555	1834.701	1952.05	1068.5
917.4954	1836.3633	1949.8	1066.6
917.6353	1838.0248	1953.5	1068.75
917.7751	1839.6856	1948.8	1066.55
917.915	1841.3457	1950	1069.75
918.0548	1843.005	1938.9	1059.65
918.1946	1844.6636	1951.85	1070.15
918.3344	1846.3214	1941.65	1059.85
918.4742	1847.9785	1940.7	1061.85
918.6139	1849.6349	1934	1050.1
918.7537	1851.2904	1950.4	1060.7
918.8934	1852.9453	1933.8	1051.45
919.0331	1854.5994	1930.5	1047
919.1727	1856.2528	1934.2	1049.65
919.3124	1857.9054	1927.4	1043.25
919.452	1859.5572	1917	1036.65
919.5916	1861.2083	1922.4	1040.3
919.7312	1862.8587	1924.15	1042.45
919.8708	1864.5084	1926.45	1044.95
920.0103	1866.1572	1913.45	1033
920.1498	1867.8054	1913.2	1031.5
920.2893	1869.4528	1903.2	1021.1
920.4288	1871.0994	1899.2	1018.25
920.5683	1872.7453	1897	1016.45
920.7077	1874.3905	1913.25	1016.1
920.8471	1876.0349	1889	1005.5
920.9865	1877.6786	1893.35	1009.85
921.1259	1879.3215	1895.35	1011.9
921.2653	1880.9637	1891.8	1008.85
921.4046	1882.6051	1888.4	1006.95
921.5439	1884.2458	1888.35	1004.2
921.6832	1885.8858	1877.9	996.45
921.8225	1887.525	1878.3	995.6
921.9617	1889.1634	1873.65	992.95
922.101	1890.8011	1876.1	993.3
922.2402	1892.4381	1868.25	986.9
922.3794	1894.0743	1870.1	988.65
922.5185	1895.7098	1857.85	974.6
922.6577	1897.3446	1864.95	982.35
922.7968	1898.9786	1870.95	984.85
922.9359	1900.6118	1849.85	970.1
923.075	1902.2443	1851.75	969.75
923.214	1903.8761	1836.6	954.8
923.3531	1905.5071	1848	964.3
923.4921	1907.1374	1841.7	960.25
923.6311	1908.7669	1843.8	959
923.77	1910.3957	1836.1	955.25
923.909	1912.0237	1838.45	956.65
924.0479	1913.651	1837.25	956.65
924.1868	1915.2776	1821.15	940.75
924.3257	1916.9034	1812.7	931.9
924.4646	1918.5285	1819.8	937.65
924.6034	1920.1528	1815.45	933.15
924.7422	1921.7764	1820.6	939
924.881	1923.3992	1805.5	923.55
925.0198	1925.0213	1800.95	920.45
925.1586	1926.6427	1796.15	915.5
925.2973	1928.2633	1896	903.7
925.436	1929.8832	1804.1	921.25
925.5747	1931.5023	1792	910
925.7134	1933.1207	1794.2	913.8
925.852	1934.7383	1792.5	910.5
925.9906	1936.3552	1782.1	898.3
926.1292	1937.9714	1784.75	902.55
926.2678	1939.5868	1782.15	897.2
926.4064	1941.2015	1783.35	901
926.5449	1942.8154	1780.8	899.7
926.6834	1944.4286	1778.5	896.1
926.8219	1946.041	1794.85	888.25
926.9604	1947.6528	1764.2	878.7
927.0988	1949.2637	1763.5	881.25
927.2372	1950.8739	1757.85	874.55
927.3756	1952.4834	1757.25	874.15
927.514	1954.0921	1749.35	866.3
927.6523	1955.7001	1766.4	880.1
927.7907	1957.3074	1753.15	872.65
927.929	1958.9139	1744.75	863.75
928.0673	1960.5197	1739.85	854.9
928.2055	1962.1247	1742.6	863
928.3438	1963.729	1734.45	854.55
928.482	1965.3325	1754.3	847.65
928.6202	1966.9353	1727.2	846.1
928.7584	1968.5374	1727.05	844.35
928.8965	1970.1387	1725.6	842.9
929.0346	1971.7393	1718.25	836.6
929.1727	1973.3392	1726.1	844.1
929.3108	1974.9383	1713.9	833.15
929.4489	1976.5366	1718.25	835.3
929.5869	1978.1342	1718.1	834.5
929.7249	1979.7311	1709.95	827.15
929.8629	1981.3273	1721	837.7
930.0009	1982.9227	1711.2	828.1
930.1388	1984.5173	1699	816.95
930.2767	1986.1112	1703.85	823.3
930.4146	1987.7044	1704.6	823.75
930.5525	1989.2968	1699.3	816.5
930.6904	1990.8885	1702.55	816.3
930.8282	1992.4795	1693.95	811.65
930.966	1994.0697	1693.55	811
931.1038	1995.6592	1687.25	805.5
931.2415	1997.2479	1690.1	806.55
931.3793	1998.8359	1680.75	797.9
931.517	2000.4232	1686.75	805.6
931.6547	2002.0097	1682.25	802.85
931.7923	2003.5955	1670.95	789.65
931.93	2005.1805	1685.5	800.15
932.0676	2006.7648	1676.95	794.9
932.2052	2008.3484	1678.75	794.5
932.3427	2009.9312	1680.3	796.25
932.4803	2011.5133	1666	783.05
932.6178	2013.0946	1675	791.35
932.7553	2014.6752	1662.05	781.6
932.8928	2016.2551	1669.45	784.95
933.0302	2017.8342	1655.2	770.25
933.1676	2019.4126	1662.4	780.15
933.305	2020.9902	1654.95	772.65
933.4424	2022.5672	1661.15	779.7
933.5798	2024.1433	1664.45	776.2
933.7171	2025.7188	1654.95	772.55
933.8544	2027.2935	1652	767.7
933.9917	2028.8674	1643.45	760.25
934.129	2030.4406	1646.5	766.15
934.2662	2032.0131	1640.25	757.6
934.4034	2033.5849	1643.65	753.25
934.5406	2035.1559	1641.8	761.15
934.6778	2036.7261	1640	758.05
934.8149	2038.2957	1632.1	750.95
934.952	2039.8645	1626.5	743.85
935.0891	2041.4325	1635.15	750.45
935.2262	2042.9998	1621.05	738.25
935.3632	2044.5664	1635.15	751.1
935.5002	2046.1323	1625.2	740.3
935.6372	2047.6974	1618.7	740
935.7742	2049.2617	1624.65	740
935.9111	2050.8254	1646.5	742.15
936.048	2052.3883	1623.3	739.05
936.1849	2053.9504	1627.05	745.3
936.3218	2055.5118	1627	743.7
936.4586	2057.0725	1614.45	727.75
936.5955	2058.6325	1612.85	730.45
936.7323	2060.1917	1607.75	725.15
936.869	2061.7502	1618.8	734.4
937.0058	2063.3079	1604.15	722.8
937.1425	2064.8649	1610.25	722.95
937.2792	2066.4212	1601	715.65
937.4159	2067.9767	1603.1	724.15
937.5525	2069.5315	1600.7	718.7
937.6891	2071.0856	1599.85	718.9
937.8257	2072.6389	1593.4	709.3
937.9623	2074.1915	1593.3	710.9
938.0989	2075.7433	1583.7	700.15
938.2354	2077.2945	1582.75	700.55
938.3719	2078.8448	1593.2	711.4
938.5084	2080.3945	1585.75	702.95
938.6448	2081.9434	1583.35	701.35
938.7812	2083.4916	1578.35	698.7
938.9176	2085.039	1571.65	686.6
939.054	2086.5857	1580.1	697.45
939.1903	2088.1317	1578.1	696.2
939.3267	2089.677	1573.95	691.5
939.463	2091.2215	1578.55	697.5
939.5992	2092.7652	1565.95	681.25
939.7355	2094.3083	1561.1	680.15
939.8717	2095.8506	1573.65	692.55
940.0079	2097.3921	1565.45	683.9
940.1441	2098.933	1567.7	683.65
940.2802	2100.4731	1566.15	684.95
940.4163	2102.0124	1579.9	680.25
940.5524	2103.5511	1567.1	686.35
940.6885	2105.089	1563.4	681.65
940.8245	2106.6261	1558.1	676.6
940.9606	2108.1626	1554.5	670.55
941.0965	2109.6983	1588.05	679.35
941.2325	2111.2332	1555.55	672.95
941.3684	2112.7675	1554.15	669.9
941.5044	2114.301	1547.75	662.3
941.6403	2115.8337	1558.65	673.95
941.7761	2117.3657	1551.8	671.55
941.912	2118.897	1555.05	674
942.0478	2120.4276	1557.8	670.7
942.1835	2121.9575	1542.15	659.05
942.3193	2123.4866	1560.7	675.45
942.455	2125.0149	1548.4	664.85
942.5907	2126.5426	1538.3	655.3
942.7264	2128.0695	1536.4	650.8
942.8621	2129.5956	1531.6	648.7
942.9977	2131.1211	1541.15	655.05
943.1333	2132.6458	1534.8	655.1
943.2689	2134.1698	1534.9	653.25
943.4044	2135.693	1531.2	645.65
943.54	2137.2155	1532	647.25
943.6755	2138.7373	1523.45	640.7
943.8109	2140.2584	1525.65	643.15
943.9464	2141.7787	1529.55	643.45
944.0818	2143.2983	1519.5	635.4
944.2172	2144.8171	1516.2	634.55
944.3526	2146.3353	1515.55	629.2
944.4879	2147.8527	1511.05	630.95
944.6232	2149.3693	1515.35	632.9
944.7585	2150.8853	1505.5	623.1
944.8938	2152.4005	1514.55	633.05
945.029	2153.9149	1514.55	633.5
945.1642	2155.4287	1508.95	627.7
945.2994	2156.9417	1506.4	622.35
945.4346	2158.454	1510.7	624.95
945.5697	2159.9655	1507.85	626.6
945.7048	2161.4764	1498.35	616.15
945.8399	2162.9865	1496.4	613.4
945.9749	2164.4958	1499.6	619.4
946.1099	2166.0045	1503.35	617.2
946.2449	2167.5124	1495.35	613
946.3799	2169.0195	1492.7	610.5
946.5148	2170.526	1491.3	607.8
946.6498	2172.0317	1490.7	611.1
946.7846	2173.5367	1494.7	610.7
946.9195	2175.0409	1482.2	602
947.0543	2176.5445	1479.8	597.4
947.1891	2178.0473	1484	603.2
947.3239	2179.5494	1492.15	606.8
947.4587	2181.0507	1487.2	605
947.5934	2182.5513	1483.6	600.75
947.7281	2184.0512	1484.45	600.45
947.8628	2185.5504	1480.35	596.7
947.9974	2187.0488	1467.7	585.5
948.132	2188.5465	1470.35	586.6
948.2666	2190.0435	1473.3	592
948.4012	2191.5397	1476.75	594.75
948.5357	2193.0353	1470	588.55
948.6702	2194.5301	1460.5	577.55
948.8047	2196.0241	1471.9	590.05
948.9392	2197.5175	1466.35	584.85
949.0736	2199.0101	1455.7	570.95
949.208	2200.502	1452.1	570.75
949.3424	2201.9931	1456.5	574.2
949.4767	2203.4835	1468.75	582.95
949.611	2204.9733	1461.8	573.5
949.7453	2206.4622	1454.9	571.5
949.8796	2207.9505	1461.75	575.4
950.0138	2209.438	1453.55	572.85
950.148	2210.9248	1447.45	564.45
950.2822	2212.4109	1442.5	559.75
950.4164	2213.8962	1446.35	562.1
950.5505	2215.3809	1445.8	563.5
950.6846	2216.8648	1443.8	560.75
950.8186	2218.3479	1451.1	565.3
950.9527	2219.8304	1444.4	560.4
951.0867	2221.3121	1439.8	554.55
951.2207	2222.7931	1436.3	554.85
951.3546	2224.2733	1436.15	552.6
951.4886	2225.7529	1434.1	551.75
951.6225	2227.2317	1435.45	549.35
951.7563	2228.7098	1429.75	548.35
951.8902	2230.1872	1421.3	538.9
952.024	2231.6638	1430.75	544.7
952.1578	2233.1397	1430.35	544.15
952.2916	2234.6149	1425.95	542.85
952.4253	2236.0894	1419.6	535.35
952.559	2237.5632	1423.2	532.5
952.6927	2239.0362	1418.95	536.25
952.8263	2240.5085	1410.55	526.7
952.9599	2241.9801	1412.35	532.8
953.0935	2243.4509	1408.95	525.85
953.2271	2244.921	1404.75	523.7
953.3606	2246.3904	1413.05	528.55
953.4941	2247.8591	1403.25	521.75
953.6276	2249.3271	1401.7	519.75
953.7611	2250.7943	1397.65	515.15
953.8945	2252.2608	1395.6	514.1
954.0279	2253.7266	1396.7	515.15
954.1612	2255.1917	1397.4	513.7
954.2946	2256.656	1396.75	513.8
954.4279	2258.1197	1397.9	516.25
954.5612	2259.5826	1394.85	510.85
954.6944	2261.0447	1391.7	508.5
954.8276	2262.5062	1398.4	512.6
954.9608	2263.9669	1390.65	508.25
955.094	2265.4269	1388.3	508.55
955.2271	2266.8862	1388.05	507.35
955.3602	2268.3448	1385.45	503.6
955.4933	2269.8026	1382.4	500.65
955.6264	2271.2598	1376.05	493.55
955.7594	2272.7162	1377.35	496.75
955.8924	2274.1719	1382.55	499.35
956.0253	2275.6268	1376.45	495.2
956.1583	2277.0811	1383	500.6
956.2912	2278.5346	1378.35	496.55
956.4241	2279.9874	1372.3	489.55
956.5569	2281.4395	1375.9	494.4
956.6897	2282.8908	1379.65	489.8
956.8225	2284.3414	1376.9	494.45
956.9553	2285.7914	1374.8	493.15
957.088	2287.2406	1372.3	489.1
957.2207	2288.689	1368.85	487
957.3534	2290.1368	1370.65	488.5
957.486	2291.5838	1366.25	483.1
957.6186	2293.0302	1361.25	477
957.7512	2294.4758	1367.15	486.2
957.8838	2295.9206	1361.8	477.6
958.0163	2297.3648	1365.3	482.6
958.1488	2298.8082	1365.2	481.4
958.2813	2300.251	1353.8	470.75
958.4137	2301.693	1357.95	473.45
958.5461	2303.1343	1357.05	474.65
958.6785	2304.5748	1354.7	472.25
958.8108	2306.0147	1353.3	472.55
958.9432	2307.4538	1351.55	466.25
959.0754	2308.8922	1350.8	470.9
959.2077	2310.3299	1352.3	469.6
959.3399	2311.7669	1346.5	464.95
959.4721	2313.2031	1342.7	462
959.6043	2314.6387	1351.1	466.55
959.7365	2316.0735	1341.6	458.45
959.8686	2317.5076	1333.05	451.5
960.0006	2318.941	1339.4	457.3
960.1327	2320.3737	1341.9	460.75
960.2647	2321.8056	1338.05	453.5
960.3967	2323.2369	1341.8	457.3
960.5287	2324.6674	1345.55	463.1
960.6606	2326.0972	1340.85	458.35
960.7925	2327.5263	1336.95	454.5
960.9244	2328.9547	1332.25	449.65
961.0562	2330.3823	1327.6	444.85
961.1881	2331.8092	1337.05	452.4
961.3198	2333.2355	1325.3	442.8
961.4516	2334.661	1329.15	445.55
961.5833	2336.0858	1327.2	443.65
961.715	2337.5098	1319.95	436.5
961.8467	2338.9332	1324	439.5
961.9783	2340.3558	1322.7	436.4
962.1099	2341.7778	1320.6	438.35
962.2415	2343.199	1329.55	446.75
962.373	2344.6195	1321.45	438.6
962.5045	2346.0393	1317.2	436.3
962.636	2347.4583	1319.45	436
962.7675	2348.8767	1316.7	432.5
962.8989	2350.2943	1312.85	430.1
963.0303	2351.7113	1311.15	427
963.1617	2353.1275	1316.1	435.2
963.293	2354.543	1322.2	430.2
963.4243	2355.9578	1313.4	430.7
963.5556	2357.3718	1309	426.15
963.6868	2358.7852	1307.2	423.5
963.818	2360.1978	1301.9	418.95
963.9492	2361.6098	1307.9	425
964.0803	2363.021	1305.05	420.75
964.2114	2364.4315	1297.45	415.85
964.3425	2365.8413	1298.25	415.05
964.4736	2367.2504	1295	413.25
964.6046	2368.6587	1293.5	411.15
964.7356	2370.0664	1294.6	410.7
964.8666	2371.4733	1287.35	403.85
964.9975	2372.8795	1294.4	409.85
965.1284	2374.285	1280.85	399.15
965.2593	2375.6899	1289	407.35
965.3901	2377.0939	1289.25	408.45
965.5209	2378.4973	1285	405.6
965.6517	2379.9	1285.15	400.7
965.7825	2381.3019	1279.35	398.3
965.9132	2382.7032	1280.3	398
966.0439	2384.1037	1281.4	400.65
966.1745	2385.5035	1280.05	398.35
966.3051	2386.9027	1276.7	394.9
966.4357	2388.3011	1280.2	392.9
966.5663	2389.6987	1271.3	386.7
966.6968	2391.0957	1271.05	388.55
966.8273	2392.492	1273.3	391.55
966.9578	2393.8876	1265.3	382.5
967.0882	2395.2824	1259.9	377.1
967.2186	2396.6765	1261.1	378.45
967.349	2398.07	1258.3	377
967.4793	2399.4627	1261.15	377.5
967.6097	2400.8547	1258.7	375.55
967.7399	2402.246	1260.55	372.35
967.8702	2403.6366	1254.15	371.95
968.0004	2405.0265	1251.5	368.5
968.1306	2406.4156	1255	369.45
968.2607	2407.8041	1252.65	366.15
968.3909	2409.1918	1253.35	368.4
968.521	2410.5789	1251.6	370.75
968.651	2411.9652	1246.25	359.8
968.781	2413.3508	1251.5	368.9
968.911	2414.7358	1241.45	356.8
969.041	2416.12	1248.45	367.2
969.1709	2417.5035	1245.8	363.85
969.3008	2418.8863	1248.2	365.15
969.4307	2420.2684	1246.35	365.25
969.5606	2421.6497	1242.75	359.7
969.6904	2423.0304	1246.25	364.25
969.8201	2424.4104	1242.15	359.75
969.9499	2425.7896	1240.45	350.45
970.0796	2427.1682	1239.4	359.15
970.2093	2428.546	1241.8	357.75
970.3389	2429.9232	1234.85	349.95
970.4685	2431.2996	1231.8	349.1
970.5981	2432.6753	1229.75	349.65
970.7277	2434.0503	1229.4	345.15
970.8572	2435.4246	1231.95	349.25
970.9867	2436.7982	1227.55	345.15
971.1161	2438.1711	1227.15	344.8
971.2456	2439.5433	1230.05	345.65
971.375	2440.9148	1227.7	339.7
971.5043	2442.2856	1220.75	339.1
971.6336	2443.6557	1222.95	339.1
971.7629	2445.025	1225.35	341.05
971.8922	2446.3937	1227.45	341.95
972.0214	2447.7617	1224.4	340.4
972.1506	2449.1289	1218.85	333.75
972.2798	2450.4955	1224.7	338
972.4089	2451.8613	1218.6	336.15
972.538	2453.2265	1216.25	331.6
972.6671	2454.5909	1224.6	342.7
972.7961	2455.9546	1214	332.6
972.9251	2457.3177	1217.45	335.45
973.0541	2458.68	1222.2	339.95
973.1831	2460.0416	1217.25	334.9
973.312	2461.4025	1216.55	332.9
973.4408	2462.7627	1221.8	327.7
973.5697	2464.1222	1208.75	326.05
973.6985	2465.4811	1215.75	333.65
973.8273	2466.8392	1211.9	327.4
973.956	2468.1966	1216.2	331.05
974.0847	2469.5533	1211.85	325.6
974.2134	2470.9093	1211.85	329.05
974.3421	2472.2645	1209.15	325.15
974.4707	2473.6191	1211.3	328
974.5993	2474.973	1205.9	324.35
974.7278	2476.3262	1210	324.95
974.8563	2477.6787	1202.25	320.4
974.9848	2479.0305	1200.6	318.6
975.1132	2480.3816	1211.25	325.6
975.2417	2481.7319	1204.8	323.3
975.37	2483.0816	1202.05	318.55
975.4984	2484.4306	1203.2	319.35
975.6267	2485.7789	1196.25	315.4
975.755	2487.1264	1206.3	321.9
975.8833	2488.4733	1197.45	316.7
976.0115	2489.8195	1216.7	316.35
976.1397	2491.165	1198.3	311.95
976.2678	2492.5097	1202.4	318.8
976.3959	2493.8538	1194.4	314.4
976.524	2495.1972	1193.2	310.45
976.6521	2496.5398	1186.25	302.45
976.7801	2497.8818	1197.05	315.2
976.9081	2499.2231	1191.05	307.25
977.036	2500.5637	1189.65	307.1
977.164	2501.9035	1191.9	306.75
977.2918	2503.2427	1197.35	313.25
977.4197	2504.5812	1191.55	308.7
977.5475	2505.919	1190.45	306.05
977.6753	2507.256	1188.6	304.4
977.8031	2508.5924	1182.8	301.65
977.9308	2509.9281	1190.85	301.7
978.0585	2511.2631	1188.6	306
978.1861	2512.5974	1183.7	300.6
978.3137	2513.9309	1185.3	303.6
978.4413	2515.2638	1208.5	293.95
978.5689	2516.596	1175.95	294.15
978.6964	2517.9275	1182	299.65
978.8239	2519.2583	1181.05	299.1
978.9513	2520.5884	1180.05	295.5
979.0788	2521.9178	1176.5	294.05
979.2062	2523.2465	1181.3	299.45
979.3335	2524.5745	1171.75	289.55
979.4608	2525.9018	1177.65	293.95
979.5881	2527.2284	1171.7	291.75
979.7154	2528.5543	1171.5	289.65
979.8426	2529.8796	1170.5	288.6
979.9698	2531.2041	1171.75	289.75
980.0969	2532.5279	1171.7	290.6
980.224	2533.851	1170.55	286.15
980.3511	2535.1735	1170.65	289.8
980.4781	2536.4952	1168.35	287.9
980.6052	2537.8163	1176.75	293.3
980.7321	2539.1366	1161.9	282
980.8591	2540.4562	1166.65	283.3
980.986	2541.7752	1169.35	286.85
981.1129	2543.0935	1170.55	288.45
981.2397	2544.411	1167.75	283.55
981.3665	2545.7279	1170.9	290.2
981.4933	2547.0441	1171	288.2
981.62	2548.3596	1173.85	290.1
981.7467	2549.6744	1172.6	293.55
981.8734	2550.9885	1170.4	284.45
982.0001	2552.3019	1159.3	275.6
982.1267	2553.6146	1165.6	282.2
982.2532	2554.9266	1165.15	282.9
982.3798	2556.2379	1163.25	280
982.5063	2557.5485	1159.55	278.7
982.6327	2558.8585	1169.15	277.8
982.7592	2560.1677	1159.15	272.45
982.8856	2561.4762	1158	274.2
983.0119	2562.7841	1164.6	280.15
983.1383	2564.0913	1156.15	274.85
983.2646	2565.3977	1155.6	274.25
983.3908	2566.7035	1158.65	275.25
983.517	2568.0086	1158.15	273.1
983.6432	2569.313	1158.45	274.55
983.7694	2570.6167	1154.65	269.3
983.8955	2571.9197	1154.6	272.75
984.0216	2573.222	1155.65	270.75
984.1476	2574.5236	1157.35	273.05
984.2737	2575.8246	1163.15	277.75
984.3996	2577.1248	1159.65	275.9
984.5256	2578.4244	1155.1	272.25
984.6515	2579.7232	1158.55	276.3
984.7774	2581.0214	1182.6	270.05
984.9032	2582.3189	1152.85	271.7
985.029	2583.6157	1155.4	269.5
985.1548	2584.9118	1150.7	267.75
985.2806	2586.2072	1149.5	267.25
985.4063	2587.5019	1151.75	271.35
985.5319	2588.7959	1151.3	268.2
985.6576	2590.0893	1151.65	268.15
985.7832	2591.3819	1154.25	273.1
985.9087	2592.6739	1152.7	272.15
986.0343	2593.9652	1157.2	274.3
986.1597	2595.2557	1151.4	269.55
986.2852	2596.5456	1151.1	266.15
986.4106	2597.8348	1150.65	267.2
986.536	2599.1234	1150.65	270.65
986.6614	2600.4112	1147.25	264.45
986.7867	2601.6983	1153.6	267.75
986.912	2602.9848	1157.1	274.05
987.0372	2604.2705	1157.2	267.3
987.1624	2605.5556	1150.7	267.8
987.2876	2606.84	1149.2	267.35
987.4128	2608.1237	1153.55	269.85
987.5379	2609.4067	1149.45	267.7
987.6629	2610.689	1154	262.55
987.788	2611.9707	1149.05	263.55
987.913	2613.2516	1140.15	253.55
988.0379	2614.5319	1140.1	259.05
988.1629	2615.8115	1147.75	264.7
988.2878	2617.0903	1141.6	258.5
988.4126	2618.3685	1138.7	255.3
988.5375	2619.6461	1132	249.4
988.6622	2620.9229	1133.2	250.8
988.787	2622.199	1138.55	257.2
988.9117	2623.4745	1137.4	252.75
989.0364	2624.7493	1132.25	250.25
989.161	2626.0234	1131.4	247.65
989.2857	2627.2968	1136.5	253.95
989.4102	2628.5695	1134.35	251
989.5348	2629.8415	1132.05	250.75
989.6593	2631.1128	1137.6	251.15
989.7837	2632.3835	1137.25	254.85
989.9082	2633.6535	1129.2	246.5
990.0326	2634.9228	1124.45	244.45
990.1569	2636.1914	1128.6	246.35
990.2812	2637.4593	1136.3	249.15
990.4055	2638.7265	1130.35	247.45
990.5298	2639.9931	1129.5	246.75
990.654	2641.259	1131.35	249.05
990.7782	2642.5242	1130.6	247.5
990.9023	2643.7887	1124.95	242.2
991.0264	2645.0525	1127.6	244.8
991.1505	2646.3156	1125.7	242.9
991.2745	2647.5781	1123.2	242
991.3985	2648.8398	1119.15	239.25
991.5225	2650.1009	1157.6	239.05
991.6464	2651.3613	1121.1	238.2
991.7703	2652.6211	1122.7	242.1
991.8942	2653.8801	1115.9	233.8
992.018	2655.1385	1123.4	238.55
992.1418	2656.3961	1119.7	238.85
992.2655	2657.6531	1120.1	237.35
992.3892	2658.9094	1119.95	236.15
992.5129	2660.1651	1122.15	239.8
992.6366	2661.42	1115.75	230.9
992.7602	2662.6743	1121.9	238.8
992.8837	2663.9279	1119.75	237.4
993.0073	2665.1808	1114.7	231.4
993.1307	2666.433	1122.75	239.1
993.2542	2667.6846	1122.05	241.35
993.3776	2668.9354	1132.1	244.85
993.501	2670.1856	1122.3	238.1
993.6244	2671.4351	1124.8	242.5
993.7477	2672.6839	1124.1	238.75
993.8709	2673.9321	1122.35	240.7
993.9942	2675.1795	1126.8	245.1
994.1174	2676.4263	1126.95	245.8
994.2405	2677.6724	1125.15	243.7
994.3637	2678.9179	1132.4	250.8
994.4868	2680.1626	1124.2	242.75
994.6098	2681.4067	1125.25	242.1
994.7328	2682.6501	1123.4	240.2
994.8558	2683.8928	1121.5	237.75
994.9788	2685.1348	1124.3	242.2
995.1017	2686.3761	1116.45	233.3
995.2245	2687.6168	1121.2	239
995.3474	2688.8568	1119.55	236.95
995.4702	2690.0961	1111.1	229.55
995.5929	2691.3348	1117.35	235.15
995.7156	2692.5727	1108.3	224.45
995.8383	2693.81	1108.85	226.9
995.961	2695.0466	1112.35	231.7
996.0836	2696.2826	1115.3	231.55
996.2062	2697.5178	1117.95	229.2
996.3287	2698.7524	1115.2	233.6
996.4512	2699.9863	1111.8	225.55
996.5737	2701.2195	1114.4	235.65
996.6961	2702.452	1117.7	232.65
996.8185	2703.6839	1114.85	232.3
996.9408	2704.9151	1118.45	236.95
997.0631	2706.1456	1119.7	237.3
997.1854	2707.3755	1126.25	244.4
997.3077	2708.6046	1126.1	240.3
997.4299	2709.8331	1124.7	241.55
997.552	2711.0609	1130.7	246.85
997.6742	2712.2881	1126.9	242
997.7963	2713.5145	1132.9	247.3
997.9183	2714.7403	1134.2	252.85
998.0403	2715.9654	1139.4	257.2
998.1623	2717.1899	1160.35	263
998.2842	2718.4136	1148.35	264.4
998.4062	2719.6367	1156.1	275.15
998.528	2720.8591	1160.25	271.15
998.6498	2722.0809	1165.8	283.2
998.7716	2723.3019	1170	285.2
998.8934	2724.5223	1165.6	282.6
999.0151	2725.7421	1170.75	286.45
999.1368	2726.9611	1168.95	284.1
999.2584	2728.1795	1175.35	288.55
999.38	2729.3972	1161	278.35
999.5016	2730.6142	1167	272
999.6231	2731.8306	1151.6	267.6
999.7446	2733.0462	1150.2	267.6
999.8661	2734.2612	1143.95	254.1
999.9875	2735.4756	1138.2	255
1000.1089	2736.6892	1126.45	242.3
1000.2302	2737.9022	1128.4	247.1
1000.3515	2739.1145	1120.55	237.65
1000.4728	2740.3262	1127.45	236.7
1000.594	2741.5372	1111.8	230.65
1000.7152	2742.7475	1107.2	225.75
1000.8363	2743.9571	1108.65	222.9
1000.9575	2745.1661	1106.25	218.2
1001.0785	2746.3744	1100.8	216.95
1001.1996	2747.582	1096.95	216.05
1001.3206	2748.7889	1095.7	211.45
1001.4415	2749.9952	1091.9	210.1
1001.5625	2751.2008	1090.2	207.5
1001.6833	2752.4057	1091	205.35
1001.8042	2753.61	1085.6	203.4
1001.925	2754.8136	1089.1	205.65
1002.0458	2756.0165	1080.75	197.75
1002.1665	2757.2188	1081.7	200.1
1002.2872	2758.4204	1082.55	197.85
1002.4078	2759.6213	1086.5	201.05
1002.5285	2760.8215	1087.6	199.45
1002.649	2762.0211	1086.95	202.8
1002.7696	2763.22	1081.9	197.3
1002.8901	2764.4182	1082.35	200.05
1003.0106	2765.6158	1082.15	200.5
1003.131	2766.8127	1080.75	199.15
1003.2514	2768.009	1079.2	196.3
1003.3717	2769.2045	1077.3	193.9
1003.492	2770.3994	1079.1	195.65
1003.6123	2771.5936	1073.4	191.6
1003.7325	2772.7872	1073.55	190
1003.8527	2773.9801	1071.35	187
1003.9729	2775.1723	1091.55	193.9
1004.093	2776.3639	1068.65	188
1004.2131	2777.5548	1076.15	191.4
1004.3331	2778.745	1072.95	190.05
1004.4531	2779.9346	1068.75	185.05
1004.5731	2781.1235	1073.8	190.35
1004.693	2782.3117	1072.75	190.2
1004.8129	2783.4992	1068.65	185.9
1004.9328	2784.6861	1071.95	188.65
1005.0526	2785.8723	1076.15	191.45
1005.1723	2787.0579	1076.5	194.1
1005.2921	2788.2428	1078.2	195.7
1005.4118	2789.427	1074.75	193.45
1005.5314	2790.6106	1079.2	197.35
1005.651	2791.7935	1077.1	192.85
1005.7706	2792.9757	1080.45	199.85
1005.8902	2794.1573	1082.7	197.3
1006.0097	2795.3382	1085.4	200.6
1006.1291	2796.5184	1087.65	203.95
1006.2485	2797.698	1095	209.8
1006.3679	2798.8769	1097	215.3
1006.4873	2800.0551	1096.75	213.55
1006.6066	2801.2327	1105.4	220.1
1006.7258	2802.4096	1108.6	228.5
1006.8451	2803.5859	1113.55	231.05
1006.9642	2804.7615	1120.6	236.7
1007.0834	2805.9364	1125.05	242.2
1007.2025	2807.1106	1134.9	253.2
1007.3216	2808.2842	1138.8	255.55
1007.4406	2809.4572	1155.45	273.3
1007.5596	2810.6294	1163.4	279.05
1007.6785	2811.801	1177.2	295.9
1007.7975	2812.972	1182.25	298.95
1007.9163	2814.1423	1197.85	313.6
1008.0352	2815.3119	1216.6	333.2
1008.154	2816.4808	1234.2	353.9
1008.2727	2817.6491	1251.5	368.75
1008.3914	2818.8167	1268	386.6
1008.5101	2819.9837	1295.3	408.75
1008.6288	2821.15	1302.7	419.1
1008.7474	2822.3157	1332	449.5
1008.8659	2823.4807	1352.8	468.45
1008.9844	2824.645	1378.55	492.95
1009.1029	2825.8086	1394.85	512.8
1009.2214	2826.9716	1423.95	544
1009.3398	2828.134	1438.2	557.05
1009.4581	2829.2957	1460	576.8
1009.5764	2830.4567	1462.95	582
1009.6947	2831.617	1478.85	598.75
1009.813	2832.7767	1478.6	598.05
1009.9312	2833.9358	1483.25	601.2
1010.0493	2835.0941	1479.3	597.15
1010.1675	2836.2519	1471.3	588.8
1010.2855	2837.4089	1459.8	575.8
1010.4036	2838.5653	1450.8	568.2
1010.5216	2839.7211	1447.75	566.6
1010.6396	2840.8761	1454.05	569.4
1010.7575	2842.0306	1445.25	563.55
1010.8754	2843.1843	1458.1	577.85
1010.9932	2844.3374	1468.25	583.9
1011.111	2845.4899	1486.5	603.05
1011.2288	2846.6417	1502.9	620.85
1011.3465	2847.7928	1521.85	637.6
1011.4642	2848.9433	1546.05	664.85
1011.5818	2850.0931	1565	682.6
1011.6995	2851.2422	1585.85	703.8
1011.817	2852.3907	1605.25	722.85
1011.9345	2853.5385	1620.25	737.05
1012.052	2854.6857	1664.45	754.2
1012.1695	2855.8323	1655.35	773.45
1012.2869	2856.9781	1672.35	790.45
1012.4042	2858.1233	1691.95	808.6
1012.5216	2859.2679	1715.35	832.05
1012.6389	2860.4118	1728.55	846.75
1012.7561	2861.555	1755.5	867.8
1012.8733	2862.6976	1760.95	876.9
1012.9905	2863.8395	1776.55	895.95
1013.1076	2864.9808	1780.65	897.55
1013.2247	2866.1214	1795.8	914.95
1013.3417	2867.2614	1802.35	920.45
1013.4587	2868.4007	1806.7	923.6
1013.5757	2869.5393	1819	936.15
1013.6926	2870.6773	1815.9	930.3
1013.8095	2871.8146	1814.6	929.45
1013.9263	2872.9513	1825.5	938.3
1014.0431	2874.0874	1814.7	931.7
1014.1599	2875.2227	1811.9	928.6
1014.2766	2876.3574	1800.9	918.4
1014.3933	2877.4915	1787.75	905.2
1014.51	2878.6249	1785.5	903.5
1014.6266	2879.7577	1776.9	892.5
1014.7431	2880.8898	1780	887.9
1014.8596	2882.0212	1770.95	890.9
1014.9761	2883.152	1764.7	880.45
1015.0925	2884.2821	1757.9	877.05
1015.2089	2885.4116	1755.75	872.95
1015.3253	2886.5405	1771.5	889.9
1015.4416	2887.6686	1769.1	882.85
1015.5579	2888.7962	1772	891.25
1015.6741	2889.923	1774	893.8
1015.7903	2891.0493	1774.95	892.75
1015.9065	2892.1748	1774.75	892.95
1016.0226	2893.2997	1787.9	904.5
1016.1387	2894.424	1790.35	909.3
1016.2547	2895.5476	1793.65	912.1
1016.3707	2896.6706	1793.6	911.1
1016.4866	2897.7929	1803	919
1016.6025	2898.9145	1820.2	936.1
1016.7184	2900.0355	1831.5	947.3
1016.8342	2901.1559	1840.05	956.05
1016.95	2902.2756	1838.65	955.8
1017.0658	2903.3946	1853.85	971.15
1017.1815	2904.513	1868.05	983.2
1017.2971	2905.6308	1868.65	985.45
1017.4127	2906.7479	1881.1	998.25
1017.5283	2907.8643	1887.8	1004.25
1017.6439	2908.9801	1888.45	1007.05
1017.7594	2910.0953	1886.6	1004.2
1017.8748	2911.2098	1885.05	1000.2
1017.9902	2912.3236	1877	986.65
1018.1056	2913.4368	1885.7	1001.4
1018.2209	2914.5494	1870.3	985.1
1018.3362	2915.6613	1861.5	972.95
1018.4515	2916.7725	1843.7	957.7
1018.5667	2917.8831	1840.45	957.05
1018.6819	2918.9931	1826.6	941.05
1018.797	2920.1024	1807.85	923.3
1018.9121	2921.211	1802	921.05
1019.0271	2922.319	1804.85	921.7
1019.1421	2923.4264	1789.35	908.6
1019.2571	2924.5331	1791.25	909.8
1019.372	2925.6391	1793.35	910.6
1019.4869	2926.7445	1791.9	911.95
1019.6017	2927.8493	1786.8	903.5
1019.7165	2928.9534	1786.4	904.5
1019.8313	2930.0569	1792.55	907.35
1019.946	2931.1597	1793	907.5
1020.0606	2932.2619	1798.6	917.9
1020.1753	2933.3634	1794.4	911.95
1020.2899	2934.4643	1808.65	920.1
1020.4044	2935.5645	1811.15	923.45
1020.5189	2936.6641	1791.8	904.9
1020.6334	2937.763	1775.05	892.5
1020.7478	2938.8613	1773.45	891.95
1020.8622	2939.959	1772.75	884.65
1020.9765	2941.056	1744.2	864.2
1021.0908	2942.1523	1722.1	836.55
1021.2051	2943.248	1690.5	809.15
1021.3193	2944.3431	1654.45	772.45
1021.4334	2945.4375	1630.15	747.1
1021.5476	2946.5313	1586.35	707.25
1021.6617	2947.6244	1553.5	667.95
1021.7757	2948.7169	1520	636.95
1021.8897	2949.8087	1496.05	610.8
1022.0037	2950.8999	1456.9	573.3
1022.1176	2951.9904	1427.7	545.5
1022.2315	2953.0803	1408.7	524.6
1022.3453	2954.1696	1386.4	504.35
1022.4591	2955.2582	1362.7	481.75
1022.5728	2956.3462	1355.35	473.1
1022.6865	2957.4335	1339.05	456.1
1022.8002	2958.5202	1324.7	441.8
1022.9138	2959.6062	1316.45	434.9
1023.0274	2960.6916	1308	425.1
1023.141	2961.7764	1304.45	419.85
1023.2545	2962.8605	1293.35	408.45
1023.3679	2963.9439	1297.55	416.55
1023.4813	2965.0267	1292.65	407.85
1023.5947	2966.1089	1316.25	409
1023.708	2967.1905	1285.65	403.05
1023.8213	2968.2714	1282.75	400.9
1023.9346	2969.3516	1291.65	410.9
1024.0478	2970.4312	1291.55	402.2
1024.1609	2971.5102	1286.4	406.05
1024.274	2972.5885	1288.85	407
1024.3871	2973.6662	1293.55	405.7
1024.5002	2974.7432	1293	410.45
1024.6132	2975.8196	1296.7	414
1024.7261	2976.8954	1290.05	408.2
1024.839	2977.9705	1292.45	409.7
1024.9519	2979.045	1284.15	403.5
1025.0647	2980.1188	1279.3	396.05
1025.1775	2981.192	1275.65	395.15
1025.2902	2982.2645	1267.95	384.5
1025.4029	2983.3364	1260.15	375.85
1025.5156	2984.4077	1249	368.2
1025.6282	2985.4783	1244.85	355.65
1025.7407	2986.5483	1232	351.15
1025.8532	2987.6177	1214.7	333.4
1025.9657	2988.6864	1212.2	329.55
1026.0782	2989.7545	1198.2	314.05
1026.1906	2990.8219	1183.7	300.9
1026.3029	2991.8887	1169.75	285.05
1026.4152	2992.9548	1158.75	276.5
1026.5275	2994.0204	1146.55	265.4
1026.6397	2995.0852	1134.15	250.65
1026.7519	2996.1495	1125.95	243.3
1026.864	2997.2131	1114.45	230.25
1026.9761	2998.276	1108.4	226.95
1027.0882	2999.3383	1096.85	213.8
1027.2002	3000.4	1086.9	203.8
1027.3122	3001.4611	1083.5	202.25
1027.4241	3002.5215	1073.75	190.75
1027.536	3003.5812	1068.8	187.45
1027.6478	3004.6404	1066.55	184.35
1027.7596	3005.6989	1063.2	179.4
1027.8714	3006.7567	1056.15	172.85
1027.9831	3007.8139	1072.8	163.3
1028.0947	3008.8705	1048.05	165.7
1028.2064	3009.9264	1060.3	159.95
1028.3179	3010.9818	1041.9	160.05
1028.4295	3012.0364	1040.65	156.5
1028.541	3013.0905	1033.7	149.7
1028.6524	3014.1439	1033.25	150.2
1028.7638	3015.1966	1030.45	148
1028.8752	3016.2487	1030.5	148.85
1028.9865	3017.3002	1036.45	148.45
1029.0978	3018.3511	1029.45	147.35
1029.209	3019.4013	1026.5	143.1
1029.3202	3020.4509	1021.7	139.6
1029.4314	3021.4998	1026	143.8
1029.5425	3022.5481	1023.55	142.65
1029.6535	3023.5958	1019.4	135.85
1029.7645	3024.6428	1021.05	139.9
1029.8755	3025.6892	1021.5	139.85
1029.9864	3026.735	1023.2	141.4
1030.0973	3027.7802	1020.75	137.4
1030.2082	3028.8247	1024.95	143.35
1030.319	3029.8685	1017.45	135.3
1030.4297	3030.9118	1024.5	142.55
1030.5404	3031.9544	1020.65	139.4
1030.6511	3032.9963	1022.3	140.5
1030.7617	3034.0376	1025.2	142.2
1030.8723	3035.0783	1023.3	137.4
1030.9829	3036.1184	1025.75	142.15
1031.0934	3037.1578	1024.4	142.9
1031.2038	3038.1966	1027.55	143.8
1031.3142	3039.2348	1023	141.75
1031.4246	3040.2723	1032.6	141.85
1031.5349	3041.3092	1023.95	144.65
1031.6452	3042.3455	1026.65	144.55
1031.7554	3043.3811	1029.6	146.55
1031.8656	3044.4161	1028.4	145
1031.9758	3045.4505	1027.75	148.15
1032.0859	3046.4842	1029.1	146
1032.1959	3047.5173	1023.55	144.35
1032.3059	3048.5498	1022.1	139.3
1032.4159	3049.5816	1022.1	140.15
1032.5258	3050.6128	1023.8	140.05
1032.6357	3051.6434	1025.8	142.25
1032.7455	3052.6734	1019.4	134.75
1032.8553	3053.7027	1020	138.45
1032.9651	3054.7314	1015.7	132.7
1033.0748	3055.7594	1017.85	135.35
1033.1845	3056.7868	1019	135.35
1033.2941	3057.8136	1015.45	134.2
1033.4037	3058.8398	1013.2	132.85
1033.5132	3059.8653	1015.05	133.65
1033.6227	3060.8902	1013.65	133.4
1033.7321	3061.9145	1012.15	128.55
1033.8415	3062.9381	1016.5	135.55
1033.9509	3063.9612	1030	130.25
1034.0602	3064.9835	1015.6	134.3
1034.1694	3066.0053	1012.6	128.8
1034.2787	3067.0264	1013.15	132.15
1034.3878	3068.0469	1009.35	125.65
1034.497	3069.0668	1009.55	124.45
1034.6061	3070.086	1004.45	122.9
1034.7151	3071.1046	1008.75	122.1
1034.8241	3072.1226	1004.35	120.25
1034.9331	3073.1399	998.65	117.6
1035.042	3074.1567	999.25	117.95
1035.1508	3075.1727	994.85	110.1
1035.2597	3076.1882	990.65	110.2
1035.3684	3077.203	990.75	106.95
1035.4772	3078.2173	990.25	105.95
1035.5859	3079.2308	987.2	103.2
1035.6945	3080.2438	987.15	105.4
1035.8031	3081.2561	981.1	100.25
1035.9117	3082.2678	979.95	99.65
1036.0202	3083.2789	979.4	97
1036.1286	3084.2893	974.7	95.65
1036.2371	3085.2991	976.7	93.1
1036.3454	3086.3083	973.15	85.8
1036.4538	3087.3169	971.05	87.75
1036.562	3088.3248	965.45	81.4
1036.6703	3089.3321	969.55	86.55
1036.7785	3090.3388	963.3	82.1
1036.8866	3091.3449	965.45	82.75
1036.9948	3092.3503	964.4	79.65
1037.1028	3093.3551	961.15	79.6
1037.2108	3094.3593	955.9	74.25
1037.3188	3095.3629	956.5	74.7
1037.4267	3096.3658	958.75	74.25
1037.5346	3097.3681	958.45	77.35
1037.6425	3098.3698	961	76.5
1037.7503	3099.3708	959.55	73.25
1037.858	3100.3713	952.35	72.35
1037.9657	3101.3711	954.5	70.2
1038.0734	3102.3702	1093.6	76.7
1038.181	3103.3688	953.9	70
1038.2886	3104.3667	948.85	68.4
1038.3961	3105.364	948.4	66.75
1038.5036	3106.3607	949.7	65.45
1038.611	3107.3568	950.6	66.8
1038.7184	3108.3522	945.65	64.2
1038.8257	3109.347	949.25	64.85
1038.933	3110.3412	947.3	62.65
1039.0403	3111.3348	944.95	62.7
1039.1475	3112.3277	945.3	63.65
1039.2547	3113.32	942.45	61.5
1039.3618	3114.3117	942.8	60.5
1039.4689	3115.3028	944.25	61.5
1039.5759	3116.2932	940.8	56.35
1039.6829	3117.2831	944	55.6
1039.7898	3118.2723	941.55	59.45
1039.8967	3119.2608	941.75	60.05
1040.0035	3120.2488	939.4	56.75
1040.1103	3121.2361	940.25	56.15
1040.2171	3122.2229	937.5	55.65
1040.3238	3123.209	935.4	51.55
1040.4305	3124.1944	938.8	57.25
1040.5371	3125.1793	938.6	53.8
1040.6437	3126.1635	934.6	53.2
1040.7502	3127.1471	933.75	52.95
1040.8567	3128.1301	934	51.85
1040.9631	3129.1125	934.4	53.2
1041.0695	3130.0942	933.15	50.45
1041.1759	3131.0753	941.5	48.3
1041.2822	3132.0558	936.6	51.15
1041.3884	3133.0357	932.2	48.85
1041.4946	3134.015	932.65	49.6
1041.6008	3134.9936	930.6	46.85
1041.7069	3135.9716	951.7	47.95
1041.813	3136.949	931.15	47.45
1041.919	3137.9258	948.6	47.5
1042.025	3138.902	935.85	48.95
1042.1309	3139.8775	928.35	46.25
1042.2368	3140.8524	927.5	44.1
1042.3427	3141.8267	932.75	48.4
1042.4485	3142.8004	929.15	48.2
1042.5542	3143.7735	933.65	44.25
1042.6599	3144.7459	927.95	42.45
1042.7656	3145.7178	928.85	44.3
1042.8712	3146.689	926.35	46.1
1042.9768	3147.6596	926.4	41.7
1043.0823	3148.6295	926.85	44.45
1043.1878	3149.5989	924	41.45
1043.2932	3150.5676	924.3	42.6
1043.3986	3151.5357	923.55	43.55
1043.5039	3152.5032	924.05	41.9
1043.6092	3153.4701	924	41.9
1043.7145	3154.4364	925.75	40
1043.8197	3155.402	923.9	43.3
1043.9248	3156.367	926.85	44.05
1044.03	3157.3315	943.65	42.35
1044.135	3158.2952	925.6	43.5
1044.24	3159.2584	922.6	41.9
1044.345	3160.221	923.8	40.45
1044.4499	3161.1829	923.55	42.55
1044.5548	3162.1442	923.5	41.05
1044.6596	3163.105	922.55	38.15
1044.7644	3164.065	921.7	39.8
1044.8692	3165.0245	923.2	37.15
1044.9739	3165.9834	922.05	41.75
1045.0785	3166.9416	921.8	40.3
1045.1831	3167.8993	919.55	36.2
1045.2877	3168.8563	922.5	39.1
1045.3922	3169.8127	918.45	37.4
1045.4966	3170.7684	922.45	40.75
1045.6011	3171.7236	921.4	38.75
1045.7054	3172.6782	916.9	34.2
1045.8098	3173.6321	920.1	37.2
1045.914	3174.5854	923.25	36.3
1046.0183	3175.5381	920.65	39.45
1046.1224	3176.4902	916.55	35.45
1046.2266	3177.4417	917.8	35.9
1046.3307	3178.3926	917.85	37.65
1046.4347	3179.3428	915.1	35.55
1046.5387	3180.2924	917.85	34.85
1046.6427	3181.2415	918.2	37.45
1046.7466	3182.1899	917.9	33.55
1046.8504	3183.1377	916.5	34.6
1046.9542	3184.0848	921.3	37.2
1047.058	3185.0314	916.35	32.5
1047.1617	3185.9773	917.55	34.5
1047.2654	3186.9227	917.5	34.6
1047.369	3187.8674	914.45	31.5
1047.4726	3188.8115	918	30.55
1047.5761	3189.755	915.15	32.95
1047.6796	3190.6979	915.5	33.45
1047.783	3191.6402	915.25	34.75
1047.8864	3192.5818	916.1	34.9
1047.9898	3193.5229	919.85	30.9
1048.0931	3194.4633	914.9	30.95
1048.1963	3195.4031	914.9	30.95
1048.2995	3196.3423	914.65	33.45
1048.4027	3197.2809	913.4	31.4
1048.5058	3198.2189	911.95	29.15
1048.6089	3199.1563	930.4	29.55
1048.7119	3200.0931	913.35	31.05
1048.8148	3201.0292	911.55	30.7
1048.9178	3201.9648	914.15	31.35
1049.0206	3202.8997	914.25	29.1
1049.1235	3203.834	910.7	29.25
1049.2262	3204.7677	911.15	30.5
1049.329	3205.7008	914.4	29.25
1049.4317	3206.6333	911.15	27.1
1049.5343	3207.5652	913.05	30.25
1049.6369	3208.4964	914.1	29.9
1049.7394	3209.4271	911.55	30
1049.8419	3210.3571	911.2	29.9
1049.9444	3211.2865	913.95	31.8
1050.0468	3212.2154	910.7	27.8
1050.1491	3213.1436	911.7	27
1050.2514	3214.0712	917.8	30.4
1050.3537	3214.9982	910.15	28.55
1050.4559	3215.9246	909.75	27.05
1050.5581	3216.8503	907.5	25.5
1050.6602	3217.7755	911.35	29.1
1050.7623	3218.7001	910.5	28.7
1050.8643	3219.624	909.05	26.65
1050.9663	3220.5473	910.3	26.75
1051.0682	3221.4701	913.15	29.8
1051.1701	3222.3922	910.75	28.5
1051.2719	3223.3137	908.1	24.15
1051.3737	3224.2346	909.6	28.6
1051.4754	3225.1549	910	26.5
1051.5771	3226.0746	910.4	29.6
1051.6788	3226.9937	908.2	24.9
1051.7804	3227.9121	908.3	28.9
1051.8819	3228.83	906.45	25.3
1051.9834	3229.7473	909.55	24.85
1052.0849	3230.6639	907.15	25
1052.1863	3231.5799	906.4	25.05
1052.2876	3232.4954	910.65	27.9
1052.3889	3233.4102	907.05	23.6
1052.4902	3234.3244	909.95	28.25
1052.5914	3235.238	907.05	26
1052.6926	3236.151	929.8	20.8
1052.7937	3237.0634	909.05	26.15
1052.8948	3237.9752	906.3	24.05
1052.9958	3238.8864	907.25	23.45
1053.0968	3239.797	905.5	23.8
1053.1977	3240.7069	907.7	24.7
1053.2986	3241.6163	907.9	23.15
1053.3994	3242.5251	904.85	24
1053.5002	3243.4332	904.85	24.1
1053.6009	3244.3408	905.9	23.95
1053.7016	3245.2477	906	25.05
1053.8022	3246.154	907.15	24.05
1053.9028	3247.0598	908.3	25.1
1054.0034	3247.9649	903.8	21.1
1054.1039	3248.8694	905.35	24.5
1054.2043	3249.7733	905.05	22.95
1054.3047	3250.6766	902.95	19.45
1054.4051	3251.5793	904.65	20.1
1054.5054	3252.4814	903	21
1054.6056	3253.3829	905.1	22.55
1054.7058	3254.2838	903.45	20.75
1054.806	3255.1841	906.2	22.95
1054.9061	3256.0838	902.55	19.9
1055.0061	3256.9829	899.4	18.45
1055.1062	3257.8814	907.95	23.5
1055.2061	3258.7792	906.05	22.85
1055.306	3259.6765	904.15	21.25
1055.4059	3260.5731	902.3	19.8
1055.5057	3261.4692	904.3	20.85
1055.6055	3262.3647	902.75	18.7
1055.7052	3263.2595	899.4	16.9
1055.8049	3264.1538	898.85	16.15
1055.9045	3265.0474	900.9	19.35
1056.0041	3265.9404	899.8	18
1056.1036	3266.8329	899.35	17.15
1056.2031	3267.7247	908.4	16.45
1056.3025	3268.616	898.4	16.5
1056.4019	3269.5066	901.25	18.15
1056.5013	3270.3966	902.25	19.15
1056.6005	3271.286	897.85	15.85
