Software Version:	3.9.2.0
Unit SN:	10000200
Spectrometer SN:	6960
Date:	3/14/2024 2:02:18 PM
Data Line Index:	25
Spectral Points:	2048
Integration time (ms):	125
Averages:	20
Delay (ms):	30000
Sequence Number:	1
Processing:	dark subtract
Laser Power (mW):	305
Laser Current (mA):	825
Laser Diode Temp (C):	25
Laser Case Temp (C):	29
System Temp (C):	29
Spectrometer Temp (C):	26.8
CCD Temp (C):	0.004
Secondary Temp (C):	20.004
Heatsink Temp (C):	24.839
CCDPCB Temp (C):	38.119
SecondaryPCB Temp (C):	35.996

Wavelength	RamanShift	Raw Counts	Dark Subtracted
787.061	30.1047	453.65	41.45
787.2016	32.3739	450.95	42.6
787.3422	34.6426	456.3	45.95
787.4828	36.9109	462.15	50.75
787.6235	39.1787	470.85	55.35
787.7642	41.4461	476.95	57.65
787.9049	43.7131	486.05	60.1
788.0456	45.9796	491.25	63.45
788.1863	48.2456	503.8	71.35
788.3271	50.5112	510.65	74.1
788.4679	52.7764	520.05	83
788.6087	55.0411	528.25	86.6
788.7496	57.3054	542	95.75
788.8904	59.5692	547.3	96.65
789.0313	61.8326	561.15	108.1
789.1722	64.0955	572.45	113.8
789.3132	66.3579	583.9	122.25
789.4541	68.6199	600.95	137.1
789.5951	70.8815	628.8	161.5
789.7361	73.1426	692.85	220.3
789.8771	75.4032	854	377
790.0181	77.6634	1252	769.2
790.1592	79.9231	2175.5	1686.15
790.3003	82.1824	4238.35	3741.35
790.4414	84.4412	8023.1	7504.1
790.5825	86.6995	13387.45	12846.95
790.7237	88.9574	18785.45	18225.3
790.8648	91.2148	22708.6	22134
791.006	93.4717	24658.7	24075.45
791.1472	95.7282	25214.4	24623.75
791.2885	97.9842	25239.8	24646.95
791.4297	100.2398	24856.85	24261.25
791.571	102.4949	24407.3	23807.9
791.7123	104.7495	23825.55	23219.25
791.8536	107.0036	23104.25	22504.6
791.9949	109.2573	22462.1	21860
792.1363	111.5105	21791.85	21187.45
792.2777	113.7632	21148.3	20542.9
792.4191	116.0154	20582.85	19968.95
792.5605	118.2672	20131.4	19520.2
792.7019	120.5185	19673.45	19061.4
792.8434	122.7693	19350.25	18739.85
792.9849	125.0197	19116.9	18498.45
793.1264	127.2696	18829.05	18207.7
793.2679	129.519	18708.15	18087.65
793.4094	131.7679	18566.85	17944.25
793.551	134.0163	18452.9	17825.6
793.6926	136.2642	18343.9	17708.55
793.8342	138.5117	18204.15	17562.35
793.9758	140.7587	18041.35	17402.85
794.1175	143.0052	17889.9	17248.05
794.2591	145.2512	17712.65	17074.6
794.4008	147.4967	17520.7	16878.2
794.5425	149.7417	17421.4	16780.55
794.6842	151.9863	17309.35	16665
794.826	154.2304	17294.75	16641.95
794.9677	156.4739	17165.05	16512.25
795.1095	158.717	17119.2	16464.15
795.2513	160.9596	16957.4	16298.35
795.3931	163.2017	16715.3	16054.05
795.535	165.4433	16479.25	15817.8
795.6768	167.6844	16180.3	15517.55
795.8187	169.925	15900.9	15236.25
795.9606	172.1651	15571.6	14903.65
796.1025	174.4047	15332.85	14662.25
796.2445	176.6439	15076.25	14400.5
796.3864	178.8825	14842.25	14164.95
796.5284	181.1206	14702	14018.85
796.6704	183.3582	14530	13843.65
796.8124	185.5954	14437.7	13749.8
796.9544	187.832	14343.1	13654.7
797.0965	190.0681	14292.2	13601
797.2386	192.3037	14276.4	13581.5
797.3806	194.5388	14234.25	13539.45
797.5228	196.7734	14267.4	13565.95
797.6649	199.0075	14312.2	13605.7
797.807	201.2411	14407	13698.5
797.9492	203.4742	14463.35	13758.4
798.0914	205.7068	14600.25	13891.9
798.2336	207.9389	14667.55	13956.15
798.3758	210.1704	14774.6	14063.4
798.518	212.4015	14854.95	14141.9
798.6603	214.632	15005.9	14294.95
798.8025	216.862	15143.2	14439.5
798.9448	219.0915	15311.4	14610.1
799.0871	221.3205	15484.6	14785.35
799.2294	223.549	15754.05	15061.15
799.3718	225.777	16014.95	15325.85
799.5141	228.0044	16409.75	15716.8
799.6565	230.2314	16867.3	16176.45
799.7989	232.4578	17308.3	16616.65
799.9413	234.6837	17650.45	16949.3
800.0837	236.909	17844.75	17140.05
800.2262	239.1339	17817.1	17093.7
800.3687	241.3582	17537.75	16825.85
800.5111	243.582	17197	16456.25
800.6536	245.8053	16830.7	16102.25
800.7961	248.0281	16462.45	15738.9
800.9387	250.2503	16185.55	15457.3
801.0812	252.472	15977.3	15244.55
801.2238	254.6932	15857.35	15122.3
801.3664	256.9139	15727.2	14988.45
801.509	259.134	15672.7	14930.8
801.6516	261.3536	15592.45	14851.8
801.7942	263.5727	15515.2	14774.6
801.9369	265.7912	15407.3	14668.2
802.0795	268.0092	15363.85	14621.45
802.2222	270.2267	15257.6	14514.15
802.3649	272.4436	15172.4	14430.55
802.5076	274.6601	15127	14375.8
802.6504	276.8759	15063.95	14318.45
802.7931	279.0913	15089.15	14342.1
802.9359	281.3061	15085.05	14335.85
803.0787	283.5204	15186.9	14438.35
803.2215	285.7341	15288.4	14534.95
803.3643	287.9473	15461.2	14696.3
803.5071	290.16	15675.5	14913.95
803.6499	292.3721	15963	15210.25
803.7928	294.5837	16372.35	15613.65
803.9357	296.7947	16706.5	15951.45
804.0786	299.0052	16849.65	16094.7
804.2215	301.2152	16709.9	15950.8
804.3644	303.4246	16375.8	15619.45
804.5074	305.6334	15849.55	15095.8
804.6503	307.8418	15370.55	14610.8
804.7933	310.0495	14992.6	14232.9
804.9363	312.2568	14726.9	13970.4
805.0793	314.4635	14572	13811.2
805.2223	316.6696	14455.8	13695.65
805.3653	318.8752	14483.25	13708.5
805.5084	321.0802	14569.4	13806.5
805.6514	323.2847	14626.7	13862.15
805.7945	325.4887	14677	13911.4
805.9376	327.692	14641.25	13874
806.0807	329.8949	14498	13730.5
806.2238	332.0972	14257.55	13488.45
806.367	334.2989	13998	13224.3
806.5101	336.5001	13719.9	12947.65
806.6533	338.7007	13548.7	12779.5
806.7965	340.9008	13463.85	12691.95
806.9397	343.1003	13345.65	12569
807.0829	345.2992	13295.15	12516.25
807.2261	347.4976	13233	12456.75
807.3693	349.6955	13264.65	12479.85
807.5126	351.8927	13337.75	12556
807.6559	354.0895	13292.6	12497.25
807.7991	356.2856	13336.4	12551.1
807.9424	358.4812	13294.05	12512.05
808.0857	360.6763	13332.3	12548.15
808.2291	362.8707	13287.9	12503.7
808.3724	365.0646	13306.9	12518.3
808.5158	367.258	13301.45	12511.7
808.6591	369.4508	13320.25	12523.15
808.8025	371.643	13361.6	12568.5
808.9459	373.8346	13296.1	12503.8
809.0893	376.0257	13255.3	12455.95
809.2327	378.2162	13151.6	12351.8
809.3762	380.4062	13042.3	12237.75
809.5196	382.5956	12920.75	12118.55
809.6631	384.7844	12818.2	12018.75
809.8066	386.9726	12724.95	11921.25
809.9501	389.1603	12665.3	11861.85
810.0936	391.3474	12641.05	11805.75
810.2371	393.5339	12587.35	11781.45
810.3806	395.7199	12563.55	11768.75
810.5241	397.9052	12547.8	11751.7
810.6677	400.09	12547.5	11753.95
810.8113	402.2743	12581.6	11789.7
810.9548	404.4579	12605.9	11813.15
811.0984	406.641	12744.55	11952.9
811.2421	408.8235	12936.3	12141.65
811.3857	411.0054	13233.15	12441.25
811.5293	413.1868	13631.75	12832.25
811.673	415.3675	14001.45	13200.9
811.8166	417.5477	14166.05	13368.35
811.9603	419.7273	14216.2	13414.9
812.104	421.9064	14091.95	13281.1
812.2477	424.0848	13934.9	13129.05
812.3914	426.2627	13693.05	12886.7
812.5351	428.4399	13438.9	12629.45
812.6788	430.6166	13098.35	12288.95
812.8226	432.7928	12801.65	11988.35
812.9663	434.9683	12507.7	11696.1
813.1101	437.1432	12300.1	11484.95
813.2539	439.3176	12152.5	11334
813.3977	441.4914	12056.8	11241.35
813.5415	443.6645	12039.75	11219.95
813.6853	445.8371	11974.9	11158.55
813.8291	448.0091	11918.35	11100.9
813.973	450.1806	11836.6	11018.85
814.1168	452.3514	11791.05	10972.65
814.2607	454.5216	11760.05	10933.35
814.4046	456.6913	11686.4	10865.6
814.5485	458.8603	11702.95	10884.75
814.6924	461.0288	11736.2	10914.7
814.8363	463.1967	11799.8	10980.3
814.9802	465.3639	11881.75	11057.95
815.1241	467.5306	11977.35	11154.4
815.2681	469.6967	12153	11328.95
815.412	471.8622	12278.2	11455.45
815.556	474.0271	12388.55	11565.55
815.7	476.1914	12447.25	11623.3
815.844	478.3551	12434.1	11610.4
815.988	480.5182	12379.95	11556.65
816.132	482.6807	12317.05	11491.5
816.276	484.8426	12347.3	11524
816.4201	487.0039	12593.05	11766.15
816.5641	489.1647	12925	12098.15
816.7082	491.3248	13301.65	12475.8
816.8522	493.4843	13495.25	12671.8
816.9963	495.6432	13473.65	12645.85
817.1404	497.8015	13421.6	12591.2
817.2845	499.9592	13408.2	12580.1
817.4286	502.1163	13388	12560.25
817.5727	504.2728	13232.8	12400.9
817.7168	506.4287	12952.9	12125.2
817.861	508.5839	12569.4	11738.75
818.0051	510.7386	12241.5	11412.7
818.1493	512.8927	12042.1	11203.6
818.2935	515.0461	11883.05	11052.25
818.4377	517.199	11791.4	10961.65
818.5818	519.3512	11719.25	10889.55
818.726	521.5029	11731.8	10895.75
818.8703	523.6539	11722.7	10887.05
819.0145	525.8043	11740.95	10905.7
819.1587	527.9541	11761.7	10925.65
819.303	530.1033	11783.2	10948.3
819.4472	532.2519	11858.1	11025
819.5915	534.3999	12003.45	11165
819.7357	536.5472	12301.85	11464.35
819.88	538.694	12713.3	11876.65
820.0243	540.8401	13285.9	12449.1
820.1686	542.9856	13761.7	12921.65
820.3129	545.1305	13920.25	13082.8
820.4572	547.2748	13768.35	12928.2
820.6016	549.4185	13361.95	12518.6
820.7459	551.5615	13038.6	12198.8
820.8902	553.704	12824	11984.95
821.0346	555.8458	12727.3	11890.35
821.1789	557.987	12689.6	11849.15
821.3233	560.1276	12584.15	11740.25
821.4677	562.2675	12455.55	11615.05
821.6121	564.4069	12375.5	11536
821.7565	566.5456	12227.4	11388.3
821.9009	568.6837	12096.55	11257.8
822.0453	570.8212	11891.45	11052.65
822.1897	572.958	11689.15	10842.15
822.3342	575.0942	11538.65	10700.65
822.4786	577.2299	11438.55	10599.75
822.6231	579.3648	11467.2	10625.25
822.7675	581.4992	11570.8	10730.2
822.912	583.6329	11770.35	10929.8
823.0565	585.766	11966.75	11123.75
823.201	587.8985	12061.9	11222.55
823.3454	590.0304	12049.6	11199.65
823.4899	592.1616	11986.35	11139.75
823.6345	594.2922	11904.05	11061.05
823.779	596.4222	11762.25	10919.9
823.9235	598.5515	11616.85	10771.3
824.068	600.6802	11453.2	10609.3
824.2126	602.8083	11282.4	10438.65
824.3571	604.9358	11229.9	10385.3
824.5017	607.0626	11123.35	10278.55
824.6462	609.1888	11057.85	10212.55
824.7908	611.3144	10942.8	10095.65
824.9354	613.4393	10800.5	9952.8
825.08	615.5636	10666.3	9817.95
825.2246	617.6873	10557.95	9708.4
825.3692	619.8103	10510.8	9662.25
825.5138	621.9327	10421.5	9571.6
825.6584	624.0544	10438.75	9592.55
825.803	626.1756	10431.8	9586.95
825.9477	628.2961	10410.05	9561.9
826.0923	630.4159	10367.3	9519
826.237	632.5351	10325.3	9476.8
826.3816	634.6537	10247.5	9397.6
826.5263	636.7716	10206.5	9353.85
826.6709	638.8889	10203.85	9353.9
826.8156	641.0056	10203.1	9353.85
826.9603	643.1216	10196.35	9345.1
827.105	645.237	10231	9379.15
827.2497	647.3518	10193	9339.7
827.3944	649.4659	10205.35	9353.75
827.5391	651.5793	10238.55	9386.65
827.6838	653.6922	10214.6	9362.35
827.8285	655.8043	10176.35	9325.3
827.9733	657.9159	10150.1	9298.1
828.118	660.0268	10079.3	9224.7
828.2627	662.137	10021.6	9170.15
828.4075	664.2466	9971	9114.4
828.5522	666.3556	9941.9	9089.7
828.697	668.4639	9939.75	9083.3
828.8418	670.5716	9970.2	9116.75
828.9865	672.6786	10061.65	9204.95
829.1313	674.785	10097.3	9238.6
829.2761	676.8907	10186.6	9331.2
829.4209	678.9958	10220.8	9367
829.5657	681.1002	10217.55	9359.95
829.7105	683.204	10163.25	9305.5
829.8553	685.3072	10141.45	9281.1
830.0001	687.4097	10036.8	9180.2
830.1449	689.5115	9966.05	9106.8
830.2898	691.6127	9928.6	9072
830.4346	693.7132	9814.9	8957.3
830.5794	695.8131	9765.25	8883.3
830.7243	697.9123	9725.8	8870.1
830.8691	700.0109	9666.75	8810.4
831.014	702.1089	9608.95	8751.05
831.1588	704.2061	9617.2	8756.4
831.3037	706.3028	9652.1	8791.7
831.4486	708.3987	9689.8	8831.85
831.5935	710.4941	9756	8898.7
831.7383	712.5887	9929.8	9066.25
831.8832	714.6827	10200.4	9338.35
832.0281	716.7761	10516.05	9654.2
832.173	718.8688	10861.05	9998.45
832.3179	720.9608	11053.75	10188.95
832.4628	723.0522	11035.55	10171.6
832.6077	725.1429	10790.75	9929.95
832.7527	727.233	10450.7	9588.7
832.8976	729.3224	10148.25	9285.95
833.0425	731.4112	9874.95	9012.45
833.1874	733.4993	9681.45	8816.8
833.3324	735.5867	9560.95	8699.35
833.4773	737.6735	9456.65	8592.45
833.6222	739.7596	9410.6	8546.65
833.7672	741.845	9399.1	8536
833.9122	743.9298	9421.7	8556.05
834.0571	746.014	9380	8515.45
834.2021	748.0974	9403.05	8537.05
834.347	750.1802	9379.75	8515.55
834.492	752.2624	9393.85	8531
834.637	754.3439	9392.1	8528
834.782	756.4247	9420.9	8544.1
834.9269	758.5048	9498.25	8634.7
835.0719	760.5843	9632.55	8769.15
835.2169	762.6631	9849.85	8985.55
835.3619	764.7413	10212.5	9344.2
835.5069	766.8188	10659.95	9792.7
835.6519	768.8956	11047.85	10182.6
835.7969	770.9718	11306.4	10439.8
835.9419	773.0473	11187.15	10323.05
836.0869	775.1221	10894.05	10029.15
836.232	777.1962	10560.1	9693.8
836.377	779.2697	10408.55	9540.15
836.522	781.3426	10441.15	9557.7
836.667	783.4147	10707.9	9840.5
836.8121	785.4862	10991.5	10126.6
836.9571	787.557	11027.35	10161.55
837.1021	789.6271	10697.85	9831.3
837.2472	791.6966	10208.2	9341.3
837.3922	793.7654	9783.3	8917.15
837.5373	795.8335	9480.85	8613.9
837.6823	797.901	9340.35	8472.85
837.8274	799.9678	9270.95	8401.35
837.9724	802.0339	9271.85	8406.45
838.1175	804.0993	9329.8	8454.6
838.2626	806.1641	9331.95	8462.8
838.4076	808.2282	9275.65	8407.95
838.5527	810.2916	9202.75	8333.65
838.6978	812.3544	9088.5	8221.75
838.8428	814.4164	8993.7	8127.3
838.9879	816.4778	9000.85	8131.95
839.133	818.5385	8961.35	8093.1
839.2781	820.5986	9000.15	8133.95
839.4232	822.658	9020.2	8149.75
839.5682	824.7166	9045.95	8179.1
839.7133	826.7747	9158.05	8291.1
839.8584	828.832	9243.3	8374.4
840.0035	830.8886	9316.5	8446.35
840.1486	832.9446	9411.05	8542.55
840.2937	834.9999	9488.75	8621.6
840.4388	837.0545	9558.35	8685.25
840.5839	839.1085	9604.25	8734.1
840.729	841.1618	9604.9	8734.15
840.8741	843.2143	9616.85	8747.8
841.0192	845.2662	9551.3	8682.45
841.1643	847.3175	9483	8614.45
841.3095	849.368	9373.35	8504.15
841.4546	851.4179	9283.35	8410.75
841.5997	853.467	9153.65	8285.2
841.7448	855.5155	9072.35	8202.15
841.8899	857.5633	8945.3	8077.25
842.0351	859.6105	8865.75	7995.45
842.1802	861.6569	8798.65	7928.45
842.3253	863.7027	8701.7	7830.7
842.4704	865.7478	8681.85	7811.05
842.6156	867.7922	8674.6	7802.8
842.7607	869.8359	8749.8	7877.85
842.9058	871.8789	8849.2	7976.75
843.0509	873.9212	9027.55	8122.75
843.1961	875.9629	9120.4	8248.2
843.3412	878.0039	9297.2	8425.5
843.4863	880.0441	9365.6	8495.3
843.6315	882.0837	9343.85	8471.3
843.7766	884.1226	9201.35	8328.45
843.9218	886.1609	9075.1	8205.8
844.0669	888.1984	8985.8	8115.85
844.212	890.2352	8906.2	8035.7
844.3572	892.2714	8837.55	7963.15
844.5023	894.3069	8813.3	7939.65
844.6475	896.3416	8769.45	7896.95
844.7926	898.3757	8733.3	7862.8
844.9377	900.4091	8713.6	7841.05
845.0829	902.4418	8726.75	7849.1
845.228	904.4739	8732.1	7856.5
845.3732	906.5052	8699.1	7827.1
845.5183	908.5358	8597.5	7722.3
845.6635	910.5658	8466.85	7593.25
845.8086	912.595	8336.45	7464.7
845.9538	914.6236	8217	7344.2
846.0989	916.6515	8193	7318.6
846.2441	918.6786	8177.5	7303.15
846.3892	920.7051	8234.8	7359.55
846.5344	922.7309	8326.9	7455.7
846.6795	924.756	8387.8	7515.45
846.8246	926.7804	8476.6	7600.75
846.9698	928.8041	8435.05	7560.95
847.1149	930.8272	8436.3	7561.25
847.2601	932.8495	8385.5	7509.7
847.4052	934.8711	8298.85	7423.65
847.5504	936.892	8163.45	7287.8
847.6955	938.9123	8011.3	7134.65
847.8407	940.9318	7897.75	7023.7
847.9858	942.9506	7778.75	6902.1
848.131	944.9688	7698.05	6826.5
848.2761	946.9862	7660.15	6785.05
848.4213	949.003	7622.6	6747.75
848.5664	951.019	7610	6735.3
848.7115	953.0344	7635.75	6760.35
848.8567	955.0491	7655.8	6777.8
849.0018	957.063	7707.3	6834
849.147	959.0763	7807.75	6933.7
849.2921	961.0888	7822.3	6947.2
849.4373	963.1007	7878.3	7000.75
849.5824	965.1119	7912.5	7038.6
849.7275	967.1223	7949.8	7072.25
849.8727	969.1321	7950.3	7075.85
850.0178	971.1412	7996.45	7122.25
850.1629	973.1495	8006.2	7130.45
850.3081	975.1572	8053.3	7142.45
850.4532	977.1641	8040.9	7167.85
850.5983	979.1704	8033.8	7155.6
850.7435	981.1759	8014.65	7136.4
850.8886	983.1808	8078.9	7200.6
851.0337	985.1849	8153.6	7268.2
851.1788	987.1884	8293.75	7415.85
851.324	989.1911	8455.8	7577.15
851.4691	991.1932	8575.2	7697.25
851.6142	993.1945	8629.6	7755.2
851.7593	995.1951	8588.15	7711.45
851.9045	997.1951	8580.25	7698.45
852.0496	999.1943	8502.6	7627.3
852.1947	1001.1928	8435.55	7558.65
852.3398	1003.1906	8423.8	7546.15
852.4849	1005.1877	8459.15	7580.35
852.63	1007.1841	8398.25	7522
852.7751	1009.1798	8333.15	7456.2
852.9202	1011.1748	8136.8	7262.2
853.0653	1013.1691	7941.1	7066.35
853.2104	1015.1627	7787.3	6911.5
853.3555	1017.1556	7588.4	6713.35
853.5006	1019.1477	7528.35	6650.55
853.6457	1021.1392	7478.65	6603.2
853.7908	1023.1299	7478.95	6602.2
853.9359	1025.12	7487.4	6610.5
854.081	1027.1093	7531.9	6656.55
854.2261	1029.0979	7602	6727.2
854.3712	1031.0859	7633.95	6758.35
854.5163	1033.0731	7654.5	6775.15
854.6613	1035.0596	7588.15	6711.85
854.8064	1037.0454	7454.05	6577.55
854.9515	1039.0304	7355.3	6476.8
855.0965	1041.0148	7245.7	6368.45
855.2416	1042.9985	7153.45	6274.6
855.3867	1044.9814	7121.35	6245.5
855.5317	1046.9636	7091.95	6213.65
855.6768	1048.9452	7056.3	6180.8
855.8219	1050.926	7047.95	6169.45
855.9669	1052.9061	7031.6	6156
856.112	1054.8855	7019.35	6143.5
856.257	1056.8642	7053.7	6177.05
856.4021	1058.8421	7102.7	6219.75
856.5471	1060.8194	7102.9	6225.9
856.6921	1062.7959	7114.05	6236.1
856.8372	1064.7717	7116.3	6238.4
856.9822	1066.7469	7117.05	6236.35
857.1272	1068.7213	7093.8	6214.3
857.2723	1070.695	7049.55	6171.25
857.4173	1072.6679	7002.15	6126.15
857.5623	1074.6402	6969.45	6092.3
857.7073	1076.6117	6964.55	6080.35
857.8523	1078.5826	6967.85	6089.75
857.9973	1080.5527	7001.55	6119.9
858.1423	1082.5221	7141.45	6262.55
858.2873	1084.4908	7307.85	6430.05
858.4323	1086.4587	7509.55	6632.6
858.5773	1088.426	7650.85	6771.3
858.7223	1090.3925	7638.9	6756.2
858.8673	1092.3584	7560.3	6682.35
859.0123	1094.3235	7405.95	6531.2
859.1573	1096.2879	7331.45	6449.05
859.3022	1098.2515	7260.25	6382.75
859.4472	1100.2145	7285.75	6405.7
859.5922	1102.1767	7357.9	6479.85
859.7371	1104.1382	7455.95	6577.65
859.8821	1106.099	7631.1	6748.75
860.027	1108.0591	7796	6918.95
860.172	1110.0185	7892.3	7014.1
860.3169	1111.9771	7896.9	7017.25
860.4619	1113.9351	7707.05	6827.4
860.6068	1115.8923	7431.75	6553.55
860.7517	1117.8488	7129.95	6250.7
860.8967	1119.8045	6886.9	6009.25
861.0416	1121.7596	6781.25	5901.3
861.1865	1123.7139	6722.7	5844
861.3314	1125.6675	6708.5	5828.15
861.4763	1127.6204	6772.15	5891.9
861.6212	1129.5726	6801.35	5921.35
861.7661	1131.524	6805.5	5927.95
861.911	1133.4748	6835.95	5955.6
862.0559	1135.4248	6878.45	5998.15
862.2008	1137.3741	6905	6026.95
862.3457	1139.3226	6873.5	5990.45
862.4905	1141.2705	6843.65	5963.1
862.6354	1143.2176	6778.85	5894.25
862.7803	1145.164	6792.1	5909.6
862.9251	1147.1097	6793.5	5916.45
863.07	1149.0546	6814.7	5933.8
863.2148	1150.9989	6728.6	5847.7
863.3597	1152.9424	6561.35	5680.95
863.5045	1154.8852	6386.9	5506.7
863.6493	1156.8272	6270.9	5390.75
863.7942	1158.7686	6219.2	5331
863.939	1160.7092	6187.55	5307.05
864.0838	1162.6491	6177.7	5297.3
864.2286	1164.5883	6218.2	5336.75
864.3734	1166.5267	6285.5	5405
864.5182	1168.4644	6410.05	5531.25
864.663	1170.4014	6565.15	5680.7
864.8078	1172.3377	6752.35	5875.55
864.9526	1174.2732	6926.35	6047.35
865.0974	1176.2081	7089.35	6210.95
865.2421	1178.1421	7203.85	6318.85
865.3869	1180.0755	7316.6	6437.1
865.5317	1182.0082	7340.5	6458.5
865.6764	1183.9401	7258.1	6376.95
865.8212	1185.8713	7093.5	6211.9
865.9659	1187.8017	6885.9	6005.1
866.1106	1189.7315	6674.7	5797.5
866.2554	1191.6605	6481.7	5573.15
866.4001	1193.5888	6300.9	5420.55
866.5448	1195.5163	6192.25	5311.95
866.6895	1197.4432	6125.9	5244.3
866.8342	1199.3693	6076.05	5197.2
866.9789	1201.2947	6021.75	5141.15
867.1236	1203.2193	6017.4	5136.95
867.2683	1205.1432	6049.05	5168.15
867.413	1207.0664	6073.75	5192.75
867.5576	1208.9889	6142.05	5259.55
867.7023	1210.9106	6205.15	5327.1
867.847	1212.8316	6272.85	5391.7
867.9916	1214.7519	6343.9	5453.35
868.1363	1216.6715	6340.25	5459.75
868.2809	1218.5903	6320.05	5441.25
868.4255	1220.5084	6287.1	5408.05
868.5701	1222.4257	6236.4	5355.9
868.7148	1224.3424	6210.45	5333.2
868.8594	1226.2583	6235.15	5349.15
869.004	1228.1735	6336.55	5455.55
869.1486	1230.0879	6453.25	5571
869.2932	1232.0016	6549.1	5667.7
869.4377	1233.9146	6589.85	5708.2
869.5823	1235.8269	6523.35	5641
869.7269	1237.7384	6386.4	5505.3
869.8715	1239.6492	6251.3	5372.2
870.016	1241.5592	6144.15	5265.45
870.1606	1243.4686	6069.15	5188.45
870.3051	1245.3772	5999.3	5117.7
870.4496	1247.285	5946.15	5065
870.5941	1249.1922	5915.4	5034.05
870.7387	1251.0986	5915.45	5035.25
870.8832	1253.0042	5913.2	5034.05
871.0277	1254.9092	5972	5090.2
871.1722	1256.8134	6042.4	5163.85
871.3167	1258.7169	6157.95	5276.65
871.4611	1260.6196	6301.1	5419.55
871.6056	1262.5216	6455.05	5571.25
871.7501	1264.4229	6558.65	5678.65
871.8945	1266.3234	6644.65	5761.4
872.039	1268.2232	6681.55	5801.8
872.1834	1270.1223	6665.55	5786.1
872.3278	1272.0207	6628	5745.4
872.4723	1273.9183	6621	5735.15
872.6167	1275.8151	6528.4	5648.85
872.7611	1277.7113	6438.8	5554.95
872.9055	1279.6067	6304.05	5424.9
873.0499	1281.5014	6181.75	5298.75
873.1943	1283.3953	6088.15	5205.3
873.3386	1285.2885	6014.5	5133.95
873.483	1287.181	5965.4	5082.75
873.6274	1289.0727	5959.6	5081.2
873.7717	1290.9637	5990.8	5109.35
873.9161	1292.854	6070.5	5191.3
874.0604	1294.7435	6197.15	5315.85
874.2047	1296.6323	6369.55	5488.85
874.349	1298.5204	6585.25	5699.2
874.4933	1300.4077	6804.65	5923.5
874.6376	1302.2943	6957.75	6075.45
874.7819	1304.1802	7037.55	6157.2
874.9262	1306.0653	6985.75	6102.35
875.0705	1307.9497	6866.75	5985.65
875.2147	1309.8333	6797.45	5916.7
875.359	1311.7162	6796.85	5914.65
875.5032	1313.5984	6874.85	5991.8
875.6475	1315.4798	6981.85	6083.75
875.7917	1317.3605	7157.55	6259.05
875.9359	1319.2405	7262.55	6378.75
876.0801	1321.1197	7283.3	6401.45
876.2243	1322.9982	7262.45	6376.55
876.3685	1324.876	7241.65	6359.5
876.5127	1326.753	7213.55	6329.25
876.6569	1328.6293	7214.35	6332
876.801	1330.5048	7247.6	6362.8
876.9452	1332.3796	7223.4	6343.3
877.0893	1334.2537	7204.9	6294.6
877.2335	1336.127	7155.45	6273.95
877.3776	1337.9996	7122.95	6241.1
877.5217	1339.8714	7082	6204.1
877.6658	1341.7426	7052.55	6126.5
877.8099	1343.6129	6983.55	6103.8
877.954	1345.4826	6922	6039.55
878.0981	1347.3515	6884.55	6000.8
878.2422	1349.2196	6815.9	5933.15
878.3862	1351.087	6825.35	5942.8
878.5303	1352.9537	6874.5	5993.9
878.6743	1354.8197	6972.25	6088
878.8184	1356.6849	7090.25	6207.75
878.9624	1358.5493	7156.4	6275.8
879.1064	1360.4131	7137.55	6255.8
879.2504	1362.276	7085.85	6204.3
879.3944	1364.1383	6954.65	6071.3
879.5384	1365.9998	6768.5	5882
879.6823	1367.8606	6522.2	5641.4
879.8263	1369.7206	6337.75	5454.7
879.9702	1371.5799	6196.3	5311.7
880.1142	1373.4384	6118.45	5236.45
880.2581	1375.2962	6019.05	5134.05
880.402	1377.1533	5844.85	4963.3
880.5459	1379.0096	5599.95	4712.6
880.6898	1380.8652	5375.7	4491.95
880.8337	1382.7201	5188.35	4306.7
880.9776	1384.5742	5028.45	4146
881.1215	1386.4275	4906.45	4023.05
881.2653	1388.2802	4811.35	3930.75
881.4092	1390.132	4738.3	3855.3
881.553	1391.9832	4708.3	3826.45
881.6968	1393.8336	4669.7	3785.05
881.8406	1395.6832	4633.55	3751.05
881.9844	1397.5322	4601.75	3717.4
882.1282	1399.3803	4592.7	3706.9
882.272	1401.2278	4575.65	3691.45
882.4158	1403.0745	4577.95	3693.7
882.5595	1404.9204	4557.5	3675.65
882.7033	1406.7656	4593.45	3712.2
882.847	1408.6101	4579	3695.8
882.9908	1410.4538	4601.3	3720.35
883.1345	1412.2968	4626.8	3746.05
883.2782	1414.139	4677.75	3794.75
883.4219	1415.9805	4742.2	3860.5
883.5656	1417.8213	4834.55	3946.65
883.7092	1419.6613	4927.4	4045.35
883.8529	1421.5006	5107.35	4223
883.9965	1423.3391	5327.75	4444.05
884.1402	1425.1769	5630.8	4746
884.2838	1427.0139	6070.15	5187.7
884.4274	1428.8502	6564.05	5679.45
884.571	1430.6858	7063.85	6180.25
884.7146	1432.5206	7429.7	6547.4
884.8582	1434.3547	7647.65	6764.3
885.0018	1436.188	7671.35	6790.95
885.1453	1438.0206	7620.65	6735.9
885.2889	1439.8524	7494	6610.7
885.4324	1441.6835	7410.65	6528.05
885.5759	1443.5139	7334.6	6448.6
885.7194	1445.3435	7279.2	6396.75
885.8629	1447.1724	7243.05	6363.5
886.0064	1449.0005	7175.7	6293.3
886.1499	1450.8279	7106.8	6222.9
886.2933	1452.6545	7074.45	6192.55
886.4368	1454.4804	7088.25	6205.9
886.5802	1456.3056	7081.5	6190.6
886.7237	1458.13	7001.85	6119.7
886.8671	1459.9536	6804.05	5921.95
887.0105	1461.7766	6498.85	5618.15
887.1539	1463.5987	6157.9	5272.95
887.2972	1465.4202	5824.25	4941.65
887.4406	1467.2409	5533	4650.1
887.584	1469.0608	5302.2	4419.6
887.7273	1470.88	5095.25	4212.2
887.8706	1472.6984	4920.9	4039.1
888.0139	1474.5161	4764.05	3878.3
888.1572	1476.3331	4635.6	3754.15
888.3005	1478.1493	4527.35	3644.15
888.4438	1479.9648	4457.25	3575.6
888.5871	1481.7795	4369.3	3485.2
888.7303	1483.5935	4329.2	3447.05
888.8736	1485.4067	4258.65	3375.3
889.0168	1487.2192	4231.95	3349.15
889.16	1489.031	4203.45	3318.55
889.3032	1490.842	4155.85	3274.8
889.4464	1492.6522	4124.95	3242.45
889.5896	1494.4618	4114.1	3232.05
889.7327	1496.2705	4094.85	3211.9
889.8759	1498.0785	4084.45	3202
890.019	1499.8858	4047.6	3164.55
890.1622	1501.6924	4042.75	3159.8
890.3053	1503.4981	4028.45	3145.9
890.4484	1505.3032	4015.15	3132.3
890.5914	1507.1075	3990	3107
890.7345	1508.911	3970.05	3089.6
890.8776	1510.7138	3948.65	3066.2
891.0206	1512.5159	3944.85	3063.2
891.1637	1514.3172	3899.95	3018.35
891.3067	1516.1178	3870.95	2988.45
891.4497	1517.9176	3855.6	2971.25
891.5927	1519.7166	3844.1	2962.6
891.7357	1521.515	3813.65	2924.65
891.8786	1523.3126	3784.3	2902.3
892.0216	1525.1094	3790.9	2909.2
892.1645	1526.9055	3777.85	2896.1
892.3074	1528.7008	3760.9	2879.6
892.4503	1530.4954	3730.25	2846.4
892.5932	1532.2893	3731.95	2850.25
892.7361	1534.0824	3718.1	2827.45
892.879	1535.8747	3723.7	2842.25
893.0218	1537.6663	3698.2	2815.35
893.1647	1539.4572	3710.8	2827.7
893.3075	1541.2473	3693.95	2810.25
893.4503	1543.0367	3694.75	2813.45
893.5931	1544.8253	3687.65	2801.25
893.7359	1546.6132	3694.95	2811.35
893.8787	1548.4003	3698.15	2804.9
894.0214	1550.1867	3704.55	2813.65
894.1642	1551.9723	3710.7	2824.8
894.3069	1553.7572	3731.9	2847.55
894.4496	1555.5414	3744.65	2860.95
894.5923	1557.3247	3774.85	2893
894.735	1559.1074	3803.9	2920.8
894.8777	1560.8893	3853.95	2973.55
895.0204	1562.6705	3905.25	3023.45
895.163	1564.4509	3972.55	3090.95
895.3056	1566.2305	4017.45	3136.05
895.4482	1568.0094	4105.5	3222.3
895.5908	1569.7876	4168.05	3286.95
895.7334	1571.565	4218.15	3334.15
895.876	1573.3417	4251.2	3367.25
896.0186	1575.1176	4261.05	3378.1
896.1611	1576.8928	4241.55	3358.6
896.3036	1578.6672	4178.3	3296
896.4461	1580.4409	4097.6	3215.65
896.5886	1582.2138	3990.65	3106.9
896.7311	1583.986	3886.65	3005.15
896.8736	1585.7575	3819.2	2938.2
897.0161	1587.5282	3745.4	2865.15
897.1585	1589.2981	3690.25	2809.5
897.3009	1591.0673	3672.4	2790.1
897.4433	1592.8358	3653.85	2773.05
897.5857	1594.6035	3640.4	2756.65
897.7281	1596.3704	3639.95	2756.35
897.8705	1598.1366	3647	2765.25
898.0128	1599.9021	3671.1	2788.8
898.1551	1601.6668	3708.5	2825.5
898.2975	1603.4308	3736.25	2854.5
898.4398	1605.194	3800.15	2915.25
898.5821	1606.9564	3842.35	2960.6
898.7243	1608.7182	3946.75	3060.25
898.8666	1610.4791	4059.7	3175.85
899.0088	1612.2394	4174.9	3293
899.1511	1613.9988	4321.1	3438.05
899.2933	1615.7576	4505.5	3621.9
899.4355	1617.5156	4715.55	3828.45
899.5776	1619.2728	4896.05	4016.15
899.7198	1621.0293	5057.85	4177.7
899.862	1622.785	5116.6	4229.9
900.0041	1624.54	5080.25	4196.25
900.1462	1626.2942	4953.1	4070.95
900.2883	1628.0477	4769.4	3883.65
900.4304	1629.8005	4561.5	3675.25
900.5725	1631.5525	4386.15	3502.3
900.7145	1633.3037	4216	3332.8
900.8566	1635.0542	4085.75	3203.35
900.9986	1636.804	3977	3095.95
901.1406	1638.553	3967.05	3015.1
901.2826	1640.3013	3883.65	3002.5
901.4245	1642.0488	3843.85	2962.15
901.5665	1643.7955	3843	2962.05
901.7085	1645.5416	3851.75	2970.4
901.8504	1647.2868	3902.9	3022.05
901.9923	1649.0313	3969.55	3086.25
902.1342	1650.7751	4083.45	3198.5
902.2761	1652.5181	4239.4	3359.85
902.4179	1654.2604	4430.45	3546.5
902.5598	1656.0019	4704.75	3823.65
902.7016	1657.7427	4990.9	4109.45
902.8434	1659.4828	5270.3	4388.55
902.9852	1661.222	5461.7	4579.75
903.127	1662.9606	5491.2	4609.8
903.2687	1664.6984	5344.9	4463.25
903.4105	1666.4354	5058.3	4174.45
903.5522	1668.1717	4698	3818.2
903.6939	1669.9072	4338.65	3458.25
903.8356	1671.642	4033.85	3150.35
903.9773	1673.3761	3787.4	2907.55
904.119	1675.1094	3602.85	2721.15
904.2606	1676.8419	3467	2587.5
904.4022	1678.5737	3367.6	2486.8
904.5439	1680.3048	3301.95	2422.7
904.6855	1682.0351	3233.25	2352.6
904.827	1683.7646	3181.75	2298.7
904.9686	1685.4934	3153.65	2275
905.1101	1687.2215	3126.05	2243.85
905.2517	1688.9488	3085.35	2204.8
905.3932	1690.6754	3069.85	2190.15
905.5347	1692.4012	3046.05	2165.7
905.6761	1694.1263	3030.3	2150.05
905.8176	1695.8506	3015.85	2135.5
905.9591	1697.5742	3002.65	2122.2
906.1005	1699.297	2991.65	2111.2
906.2419	1701.0191	2982.05	2101.55
906.3833	1702.7404	2962.25	2082.85
906.5246	1704.461	2939.7	2057.1
906.666	1706.1808	2931.65	2048.7
906.8073	1707.8999	2905.75	2024.15
906.9487	1709.6182	2906.2	2023.65
907.09	1711.3358	2888.85	2009.2
907.2313	1713.0527	2870.5	1990.65
907.3725	1714.7688	2868.9	1983.1
907.5138	1716.4841	2855.1	1972.55
907.655	1718.1987	2854.2	1969.4
907.7962	1719.9126	2833.3	1954
907.9374	1721.6257	2839.05	1954.55
908.0786	1723.338	2825.35	1943.55
908.2198	1725.0496	2813.65	1931
908.3609	1726.7605	2799.35	1917.55
908.502	1728.4706	2802.05	1920.5
908.6431	1730.18	2776.55	1893.95
908.7842	1731.8886	2778.1	1897.4
908.9253	1733.5964	2772.15	1886.9
909.0664	1735.3036	2761.8	1879.4
909.2074	1737.0099	2758.4	1878.15
909.3484	1738.7156	2739.05	1858.95
909.4894	1740.4204	2732.15	1846.8
909.6304	1742.1246	2730.2	1849
909.7714	1743.8279	2725.05	1844.95
909.9123	1745.5306	2717	1835.65
910.0532	1747.2325	2716.55	1835.85
910.1941	1748.9336	2701.7	1822.45
910.335	1750.634	2698.05	1815.85
910.4759	1752.3336	2701	1819.9
910.6168	1754.0325	2690.8	1811.05
910.7576	1755.7307	2695.5	1812.5
910.8984	1757.4281	2686.05	1804.7
911.0392	1759.1247	2683.7	1794.8
911.18	1760.8206	2675.65	1790.4
911.3208	1762.5158	2667.4	1781.9
911.4615	1764.2102	2648.8	1769.05
911.6022	1765.9039	2646.55	1764.6
911.7429	1767.5968	2654.55	1776.55
911.8836	1769.289	2634.15	1753.85
912.0243	1770.9804	2638.9	1757.95
912.1649	1772.6711	2629.35	1748.9
912.3056	1774.361	2624.05	1741.8
912.4462	1776.0502	2617.5	1737.35
912.5868	1777.7386	2633.9	1750.1
912.7274	1779.4263	2610.2	1728.55
912.8679	1781.1132	2608.35	1728.5
913.0084	1782.7994	2588.5	1705.6
913.149	1784.4849	2592.4	1712.6
913.2895	1786.1696	2602.65	1702.45
913.4299	1787.8535	2598.65	1718.75
913.5704	1789.5367	2573.7	1692.1
913.7108	1791.2192	2581.4	1701.6
913.8513	1792.9009	2594.55	1689.5
913.9917	1794.5818	2572.2	1690.15
914.132	1796.2621	2560	1678.8
914.2724	1797.9415	2553.6	1672.8
914.4128	1799.6202	2536.6	1655.45
914.5531	1801.2982	2548.75	1667.95
914.6934	1802.9755	2545.15	1664.9
914.8337	1804.6519	2552.4	1670.55
914.9739	1806.3277	2543.45	1662.75
915.1142	1808.0027	2523.6	1644.6
915.2544	1809.6769	2531.5	1649
915.3946	1811.3504	2520.95	1638.85
915.5348	1813.0231	2520.5	1637.65
915.675	1814.6951	2532.6	1652.25
915.8151	1816.3664	2529.5	1645.85
915.9553	1818.0369	2508.95	1626.6
916.0954	1819.7067	2494	1614.05
916.2355	1821.3757	2501.95	1620.9
916.3755	1823.044	2498.3	1617.5
916.5156	1824.7115	2492.8	1613.15
916.6556	1826.3783	2483.35	1604.5
916.7956	1828.0443	2483.65	1604.05
916.9356	1829.7096	2474.4	1592.85
917.0756	1831.3741	2476.2	1591.65
917.2155	1833.0379	2475.65	1595.55
917.3555	1834.701	2461	1577.4
917.4954	1836.3633	2466.6	1585.05
917.6353	1838.0248	2454.4	1571.2
917.7751	1839.6856	2447.25	1567.35
917.915	1841.3457	2441.5	1560.7
918.0548	1843.005	2450.4	1570.85
918.1946	1844.6636	2446.55	1567.65
918.3344	1846.3214	2449.5	1569.85
918.4742	1847.9785	2445.15	1565.45
918.6139	1849.6349	2438.95	1556.55
918.7537	1851.2904	2439.7	1550.35
918.8934	1852.9453	2442.25	1560.15
919.0331	1854.5994	2424.9	1542.35
919.1727	1856.2528	2431.65	1545.35
919.3124	1857.9054	2418.25	1537.2
919.452	1859.5572	2412.2	1534.8
919.5916	1861.2083	2414.9	1533.6
919.7312	1862.8587	2412.45	1532.35
919.8708	1864.5084	2419.3	1537.5
920.0103	1866.1572	2404.9	1526.5
920.1498	1867.8054	2396.8	1515.9
920.2893	1869.4528	2391.9	1512.4
920.4288	1871.0994	2388.75	1506.65
920.5683	1872.7453	2387.15	1506.45
920.7077	1874.3905	2385.25	1498.8
920.8471	1876.0349	2367.75	1485.4
920.9865	1877.6786	2372.15	1492.25
921.1259	1879.3215	2368.85	1486.7
921.2653	1880.9637	2372.3	1490.2
921.4046	1882.6051	2364.2	1484.45
921.5439	1884.2458	2351.7	1469.3
921.6832	1885.8858	2358.7	1478.65
921.8225	1887.525	2357.55	1476
921.9617	1889.1634	2356.9	1476.6
922.101	1890.8011	2339.55	1458.05
922.2402	1892.4381	2327.6	1446.7
922.3794	1894.0743	2327.2	1446.4
922.5185	1895.7098	2321.95	1442.1
922.6577	1897.3446	2318.85	1439.45
922.7968	1898.9786	2332.45	1448.85
922.9359	1900.6118	2319	1441.05
923.075	1902.2443	2310.9	1429.05
923.214	1903.8761	2304.8	1422.75
923.3531	1905.5071	2299.5	1417.65
923.4921	1907.1374	2298.1	1418.35
923.6311	1908.7669	2289.95	1409.45
923.77	1910.3957	2304.85	1425.7
923.909	1912.0237	2286.1	1405.5
924.0479	1913.651	2284.8	1403.4
924.1868	1915.2776	2284	1405.3
924.3257	1916.9034	2258	1378.05
924.4646	1918.5285	2264.35	1386.15
924.6034	1920.1528	2261.45	1378.8
924.7422	1921.7764	2269.45	1388.8
924.881	1923.3992	2252	1372.7
925.0198	1925.0213	2246.05	1364.45
925.1586	1926.6427	2247.05	1367.55
925.2973	1928.2633	2439.45	1334.6
925.436	1929.8832	2264.7	1380.65
925.5747	1931.5023	2240.85	1360.6
925.7134	1933.1207	2223.45	1344.95
925.852	1934.7383	2220.25	1339.45
925.9906	1936.3552	2216.85	1338
926.1292	1937.9714	2218.9	1338.3
926.2678	1939.5868	2204.55	1322.75
926.4064	1941.2015	2201	1319.75
926.5449	1942.8154	2195.35	1314
926.6834	1944.4286	2188.65	1309.15
926.8219	1946.041	2198.95	1297.3
926.9604	1947.6528	2174.9	1290.25
927.0988	1949.2637	2165.85	1284.9
927.2372	1950.8739	2167.15	1285.7
927.3756	1952.4834	2167.1	1286.7
927.514	1954.0921	2158.75	1276.85
927.6523	1955.7001	2168.9	1285.25
927.7907	1957.3074	2160.1	1281.55
927.929	1958.9139	2153.9	1273.15
928.0673	1960.5197	2152.25	1270.25
928.2055	1962.1247	2147.05	1267.45
928.3438	1963.729	2131.6	1252.85
928.482	1965.3325	2142.1	1238.4
928.6202	1966.9353	2120.2	1239.8
928.7584	1968.5374	2119.25	1236.7
928.8965	1970.1387	2111.05	1232.4
929.0346	1971.7393	2107.5	1224.75
929.1727	1973.3392	2108.4	1228.3
929.3108	1974.9383	2102.5	1221.8
929.4489	1976.5366	2093	1213.8
929.5869	1978.1342	2095.95	1215.45
929.7249	1979.7311	2084.5	1202.35
929.8629	1981.3273	2090.05	1210.8
930.0009	1982.9227	2088.1	1206.45
930.1388	1984.5173	2078.6	1198.4
930.2767	1986.1112	2073.65	1192.7
930.4146	1987.7044	2076.55	1196.2
930.5525	1989.2968	2071.35	1189.7
930.6904	1990.8885	2061.45	1177.2
930.8282	1992.4795	2069.6	1187
930.966	1994.0697	2064.5	1183.1
931.1038	1995.6592	2057.1	1176.05
931.2415	1997.2479	2058.1	1178.7
931.3793	1998.8359	2050.25	1170.7
931.517	2000.4232	2038.25	1158.7
931.6547	2002.0097	2034	1154.9
931.7923	2003.5955	2041.3	1157.55
931.93	2005.1805	2039.75	1158.65
932.0676	2006.7648	2035.55	1155.5
932.2052	2008.3484	2028.15	1144.65
932.3427	2009.9312	2037.25	1154.05
932.4803	2011.5133	2025.95	1147.45
932.6178	2013.0946	2021.95	1139.2
932.7553	2014.6752	2024.2	1144.95
932.8928	2016.2551	2021.9	1138.9
933.0302	2017.8342	2018.55	1137.6
933.1676	2019.4126	2009.25	1129.45
933.305	2020.9902	2006.85	1123.9
933.4424	2022.5672	2004.4	1122.05
933.5798	2024.1433	2009.6	1119.15
933.7171	2025.7188	1998.85	1119.15
933.8544	2027.2935	1994.55	1113.25
933.9917	2028.8674	1997.2	1117.5
934.129	2030.4406	1982.7	1102.8
934.2662	2032.0131	1984.45	1102.7
934.4034	2033.5849	1977.85	1092.45
934.5406	2035.1559	1969	1088.7
934.6778	2036.7261	1973.75	1094.2
934.8149	2038.2957	1970.1	1088.95
934.952	2039.8645	1965.9	1086.75
935.0891	2041.4325	1976.1	1091.65
935.2262	2042.9998	1972.2	1093.4
935.3632	2044.5664	1961.85	1080.35
935.5002	2046.1323	1963.25	1082.55
935.6372	2047.6974	1959.8	1080
935.7742	2049.2617	1949.65	1069.1
935.9111	2050.8254	1967.6	1064.05
936.048	2052.3883	1947.8	1065.55
936.1849	2053.9504	1936.75	1056.9
936.3218	2055.5118	1940.1	1059.1
936.4586	2057.0725	1932.25	1049.05
936.5955	2058.6325	1941.8	1061.05
936.7323	2060.1917	1938.2	1058.8
936.869	2061.7502	1926.9	1045.35
937.0058	2063.3079	1931.05	1049.35
937.1425	2064.8649	1920.6	1037.15
937.2792	2066.4212	1921.85	1040.9
937.4159	2067.9767	1915.05	1034.9
937.5525	2069.5315	1907.8	1025.85
937.6891	2071.0856	1906.3	1026.6
937.8257	2072.6389	1907.9	1024.8
937.9623	2074.1915	1902.2	1025.25
938.0989	2075.7433	1891.65	1009.45
938.2354	2077.2945	1887.1	1008.1
938.3719	2078.8448	1889.1	1008.25
938.5084	2080.3945	1887.35	1007.45
938.6448	2081.9434	1874.55	993.75
938.7812	2083.4916	1884.1	1003.55
938.9176	2085.039	1871.4	989.9
939.054	2086.5857	1880.95	999.1
939.1903	2088.1317	1869.15	987.25
939.3267	2089.677	1868.2	987.45
939.463	2091.2215	1873.6	991.35
939.5992	2092.7652	1872.05	989.1
939.7355	2094.3083	1853.6	973.6
939.8717	2095.8506	1855.8	976.95
940.0079	2097.3921	1861.4	982.6
940.1441	2098.933	1851.9	972.15
940.2802	2100.4731	1859.55	979.2
940.4163	2102.0124	1854.9	968.5
940.5524	2103.5511	1853.55	973.15
940.6885	2105.089	1838.35	959
940.8245	2106.6261	1835.15	954.05
940.9606	2108.1626	1840.5	956.9
941.0965	2109.6983	1849.65	939.85
941.2325	2111.2332	1848.85	968.45
941.3684	2112.7675	1834.35	953.15
941.5044	2114.301	1833.15	950.6
941.6403	2115.8337	1830.55	950.9
941.7761	2117.3657	1833	953.65
941.912	2118.897	1823.75	942.3
942.0478	2120.4276	1829.6	942.75
942.1835	2121.9575	1824.5	943.3
942.3193	2123.4866	1839.25	943.95
942.455	2125.0149	1810.6	928.2
942.5907	2126.5426	1814.1	933.05
942.7264	2128.0695	1809.1	925.15
942.8621	2129.5956	1802.1	920.5
942.9977	2131.1211	1809	924.3
943.1333	2132.6458	1795.4	916.75
943.2689	2134.1698	1797.75	917.25
943.4044	2135.693	1796.65	911.5
943.54	2137.2155	1796.65	911.9
943.6755	2138.7373	1786.15	905.35
943.8109	2140.2584	1788.8	907.9
943.9464	2141.7787	1793.9	907.75
944.0818	2143.2983	1785.35	905.8
944.2172	2144.8171	1784.55	905.35
944.3526	2146.3353	1783.9	901.5
944.4879	2147.8527	1780.85	901.25
944.6232	2149.3693	1778.8	897.9
944.7585	2150.8853	1772.05	890.75
944.8938	2152.4005	1763.25	880.2
945.029	2153.9149	1760.2	880.45
945.1642	2155.4287	1762.9	883.35
945.2994	2156.9417	1751.9	871.35
945.4346	2158.454	1760.2	876.4
945.5697	2159.9655	1756	873.9
945.7048	2161.4764	1755.65	875.75
945.8399	2162.9865	1753.95	872.35
945.9749	2164.4958	1747.6	863.1
946.1099	2166.0045	1750.1	864.9
946.2449	2167.5124	1737.35	857.25
946.3799	2169.0195	1739.3	858.45
946.5148	2170.526	1749.6	868.1
946.6498	2172.0317	1748.95	868.2
946.7846	2173.5367	1746.15	864.85
946.9195	2175.0409	1737.7	857.65
947.0543	2176.5445	1737.35	857
947.1891	2178.0473	1726.65	845.75
947.3239	2179.5494	1730.15	847.75
947.4587	2181.0507	1726.9	846.1
947.5934	2182.5513	1725.8	846
947.7281	2184.0512	1729.1	848.85
947.8628	2185.5504	1719.85	839.5
947.9974	2187.0488	1720.45	840.15
948.132	2188.5465	1711.75	830.75
948.2666	2190.0435	1708.3	826.25
948.4012	2191.5397	1717.1	836.5
948.5357	2193.0353	1710.7	831.75
948.6702	2194.5301	1699.1	815.7
948.8047	2196.0241	1702.9	821.35
948.9392	2197.5175	1697.2	816.95
949.0736	2199.0101	1698.45	814.85
949.208	2200.502	1689.4	810.45
949.3424	2201.9931	1695.85	813.2
949.4767	2203.4835	1681.15	798.6
949.611	2204.9733	1701.25	815.25
949.7453	2206.4622	1675.9	797.3
949.8796	2207.9505	1681.05	795.55
950.0138	2209.438	1676	796.1
950.148	2210.9248	1669.85	787.75
950.2822	2212.4109	1671.05	790.85
950.4164	2213.8962	1672.55	789.45
950.5505	2215.3809	1674.15	792.4
950.6846	2216.8648	1665.4	784.35
950.8186	2218.3479	1676.35	791.5
950.9527	2219.8304	1660.8	776.75
951.0867	2221.3121	1653.15	771.1
951.2207	2222.7931	1655.55	776
951.3546	2224.2733	1645.55	763.55
951.4886	2225.7529	1650.9	767.8
951.6225	2227.2317	1649.5	766.35
951.7563	2228.7098	1645.7	764.4
951.8902	2230.1872	1639.8	758.6
952.024	2231.6638	1642.25	760.4
952.1578	2233.1397	1642.45	753.7
952.2916	2234.6149	1641.35	758.5
952.4253	2236.0894	1639	757.8
952.559	2237.5632	1642.85	751.65
952.6927	2239.0362	1625.5	745.4
952.8263	2240.5085	1629.35	746.2
952.9599	2241.9801	1609.55	728.55
953.0935	2243.4509	1611.05	731.8
953.2271	2244.921	1611.8	731.6
953.3606	2246.3904	1621.35	737.85
953.4941	2247.8591	1613.9	733.7
953.6276	2249.3271	1615.05	734
953.7611	2250.7943	1603.55	722.4
953.8945	2252.2608	1605.95	727.7
954.0279	2253.7266	1595	714.6
954.1612	2255.1917	1599.7	718.8
954.2946	2256.656	1598.8	715.6
954.4279	2258.1197	1589.1	708.2
954.5612	2259.5826	1590.05	706.4
954.6944	2261.0447	1597.7	715.2
954.8276	2262.5062	1598.15	714.7
954.9608	2263.9669	1589.3	706.55
955.094	2265.4269	1586	706.05
955.2271	2266.8862	1580.2	698.4
955.3602	2268.3448	1581.95	702.1
955.4933	2269.8026	1581.15	696.8
955.6264	2271.2598	1585.75	703.7
955.7594	2272.7162	1580.9	700.6
955.8924	2274.1719	1573.25	690.95
956.0253	2275.6268	1573.6	693.7
956.1583	2277.0811	1575.35	693.4
956.2912	2278.5346	1569.35	689.1
956.4241	2279.9874	1567.1	685.85
956.5569	2281.4395	1577.05	695.85
956.6897	2282.8908	1582.95	699.5
956.8225	2284.3414	1567.85	686.65
956.9553	2285.7914	1561	680.85
957.088	2287.2406	1572.65	688.6
957.2207	2288.689	1567.8	687.8
957.3534	2290.1368	1561.9	679.55
957.486	2291.5838	1566.45	682.7
957.6186	2293.0302	1559.8	678.05
957.7512	2294.4758	1555.5	675.4
957.8838	2295.9206	1559.25	676.1
958.0163	2297.3648	1549.85	666.8
958.1488	2298.8082	1560.9	677.35
958.2813	2300.251	1541.7	661.4
958.4137	2301.693	1550.35	667.65
958.5461	2303.1343	1558.65	675.65
958.6785	2304.5748	1542.15	661.05
958.8108	2306.0147	1543.95	662.35
958.9432	2307.4538	1543.65	661.4
959.0754	2308.8922	1533.7	654.3
959.2077	2310.3299	1531.9	651.9
959.3399	2311.7669	1528.8	647.6
959.4721	2313.2031	1526.1	645.05
959.6043	2314.6387	1524.2	643
959.7365	2316.0735	1519.3	639.55
959.8686	2317.5076	1518.85	636.35
960.0006	2318.941	1520.05	640.3
960.1327	2320.3737	1516.7	634.4
960.2647	2321.8056	1518.5	634.05
960.3967	2323.2369	1509.45	628.35
960.5287	2324.6674	1510.7	626.2
960.6606	2326.0972	1513.2	631.4
960.7925	2327.5263	1508	626.55
960.9244	2328.9547	1515.6	635.25
961.0562	2330.3823	1511.05	630.65
961.1881	2331.8092	1505.3	621.55
961.3198	2333.2355	1500.5	619
961.4516	2334.661	1505.1	623.2
961.5833	2336.0858	1509.75	626.95
961.715	2337.5098	1497.55	616.95
961.8467	2338.9332	1499.55	617.2
961.9783	2340.3558	1499.75	614.7
962.1099	2341.7778	1497.75	616.35
962.2415	2343.199	1489.85	605.2
962.373	2344.6195	1489.1	609.15
962.5045	2346.0393	1492.85	610.85
962.636	2347.4583	1487.25	607.2
962.7675	2348.8767	1494.8	612.45
962.8989	2350.2943	1484.6	604.9
963.0303	2351.7113	1491.85	607.05
963.1617	2353.1275	1481.55	600.75
963.293	2354.543	1507.85	602
963.4243	2355.9578	1482.85	602.3
963.5556	2357.3718	1479.4	600.45
963.6868	2358.7852	1485.35	600.9
963.818	2360.1978	1474.85	592.1
963.9492	2361.6098	1470.1	588.75
964.0803	2363.021	1473.1	588.95
964.2114	2364.4315	1472.2	591.75
964.3425	2365.8413	1473.1	591.55
964.4736	2367.2504	1464.85	585.25
964.6046	2368.6587	1461.8	580.1
964.7356	2370.0664	1463.5	583.8
964.8666	2371.4733	1464.6	582.65
964.9975	2372.8795	1457.7	579.55
965.1284	2374.285	1459.4	578.05
965.2593	2375.6899	1448.9	569.3
965.3901	2377.0939	1452.15	572.65
965.5209	2378.4973	1451.25	570.55
965.6517	2379.9	1450.65	570.7
965.7825	2381.3019	1445	563.85
965.9132	2382.7032	1451.5	571.9
966.0439	2384.1037	1447.9	568.6
966.1745	2385.5035	1439.9	558.85
966.3051	2386.9027	1438.7	558.85
966.4357	2388.3011	1439.35	554.05
966.5663	2389.6987	1438.45	557.85
966.6968	2391.0957	1431.45	550.95
966.8273	2392.492	1428.05	548.35
966.9578	2393.8876	1428.3	549.05
967.0882	2395.2824	1424.4	544.35
967.2186	2396.6765	1423.8	544.75
967.349	2398.07	1422.65	545.1
967.4793	2399.4627	1421.65	542.15
967.6097	2400.8547	1425.25	543.85
967.7399	2402.246	1422.45	536.95
967.8702	2403.6366	1415.2	535.95
968.0004	2405.0265	1417.1	537.2
968.1306	2406.4156	1411.35	524.85
968.2607	2407.8041	1419.1	535.3
968.3909	2409.1918	1420.7	539.65
968.521	2410.5789	1410.15	529
968.651	2411.9652	1408.85	526.1
968.781	2413.3508	1413.75	534.35
968.911	2414.7358	1405.35	526.1
969.041	2416.12	1403.6	524.25
969.1709	2417.5035	1404.7	525.35
969.3008	2418.8863	1401.9	520.75
969.4307	2420.2684	1403.7	525.9
969.5606	2421.6497	1399	517.75
969.6904	2423.0304	1392.3	513.35
969.8201	2424.4104	1396.85	514.7
969.9499	2425.7896	1397.65	508.3
970.0796	2427.1682	1397.5	517.05
970.2093	2428.546	1393.3	513.3
970.3389	2429.9232	1395.05	511.95
970.4685	2431.2996	1387.25	508.25
970.5981	2432.6753	1384.75	503.85
970.7277	2434.0503	1389.6	510
970.8572	2435.4246	1386.75	507.8
970.9867	2436.7982	1384.3	502.6
971.1161	2438.1711	1380.25	501.6
971.2456	2439.5433	1379.65	499.95
971.375	2440.9148	1386.9	501.2
971.5043	2442.2856	1374.7	495.45
971.6336	2443.6557	1373.3	490.55
971.7629	2445.025	1369.15	489.1
971.8922	2446.3937	1374	494.4
972.0214	2447.7617	1363.45	483.1
972.1506	2449.1289	1375.05	495.15
972.2798	2450.4955	1372.25	488.2
972.4089	2451.8613	1368	489.15
972.538	2453.2265	1366.65	487.25
972.6671	2454.5909	1365.15	483.95
972.7961	2455.9546	1366.4	486.05
972.9251	2457.3177	1359.7	480.75
973.0541	2458.68	1363.2	480.95
973.1831	2460.0416	1363.65	485.15
973.312	2461.4025	1367.85	486.45
973.4408	2462.7627	1374	482.25
973.5697	2464.1222	1363.05	484.8
973.6985	2465.4811	1366.1	483.3
973.8273	2466.8392	1357.95	477.7
973.956	2468.1966	1363.4	480.2
974.0847	2469.5533	1364.2	482.8
974.2134	2470.9093	1357.15	477
974.3421	2472.2645	1356.65	473.6
974.4707	2473.6191	1356.4	475.1
974.5993	2474.973	1359.65	480.65
974.7278	2476.3262	1349.7	466.5
974.8563	2477.6787	1349.35	470.9
974.9848	2479.0305	1345.85	465.9
975.1132	2480.3816	1349.3	465.4
975.2417	2481.7319	1347.75	466.95
975.37	2483.0816	1344.65	463.35
975.4984	2484.4306	1340.75	459.65
975.6267	2485.7789	1339.3	460.1
975.755	2487.1264	1343.95	461.45
975.8833	2488.4733	1334.15	454.5
976.0115	2489.8195	1352.75	454
976.1397	2491.165	1336.55	452.35
976.2678	2492.5097	1337.05	454.3
976.3959	2493.8538	1332.75	451.85
976.524	2495.1972	1334.35	454
976.6521	2496.5398	1335.4	453.9
976.7801	2497.8818	1330.95	446.75
976.9081	2499.2231	1326.55	447.8
977.036	2500.5637	1325.8	442.7
977.164	2501.9035	1324.7	443.15
977.2918	2503.2427	1326.8	441.4
977.4197	2504.5812	1326.55	447.05
977.5475	2505.919	1322.95	440.2
977.6753	2507.256	1317.4	435.55
977.8031	2508.5924	1321.45	441.6
977.9308	2509.9281	1323.8	436.75
978.0585	2511.2631	1317.55	439.25
978.1861	2512.5974	1315.9	434.9
978.3137	2513.9309	1314.75	432.65
978.4413	2515.2638	1351.7	436.1
978.5689	2516.596	1316.2	436.75
978.6964	2517.9275	1312.25	430.7
978.8239	2519.2583	1310.75	429.45
978.9513	2520.5884	1312.7	429.75
979.0788	2521.9178	1317.1	436.15
979.2062	2523.2465	1302	423.6
979.3335	2524.5745	1304.45	423.05
979.4608	2525.9018	1299.85	417.5
979.5881	2527.2284	1302.75	424.95
979.7154	2528.5543	1304	424.75
979.8426	2529.8796	1308.25	428.6
979.9698	2531.2041	1297.95	416.55
980.0969	2532.5279	1302.8	425
980.224	2533.851	1304.3	423.3
980.3511	2535.1735	1303.75	423.65
980.4781	2536.4952	1303.95	423.9
980.6052	2537.8163	1297.35	416.7
980.7321	2539.1366	1289.8	408.45
980.8591	2540.4562	1294.15	412.15
980.986	2541.7752	1300.3	418.95
981.1129	2543.0935	1294.2	411.35
981.2397	2544.411	1301	421
981.3665	2545.7279	1289.6	408.7
981.4933	2547.0441	1293.05	413.75
981.62	2548.3596	1294.3	411.55
981.7467	2549.6744	1284.3	405.05
981.8734	2550.9885	1292.95	406.2
982.0001	2552.3019	1286	406.1
982.1267	2553.6146	1292.5	412.1
982.2532	2554.9266	1289.85	409.55
982.3798	2556.2379	1283.5	402.2
982.5063	2557.5485	1282.15	403.75
982.6327	2558.8585	1286.65	397.85
982.7592	2560.1677	1290.5	406.8
982.8856	2561.4762	1283.15	401.65
983.0119	2562.7841	1282.05	399.75
983.1383	2564.0913	1275.65	396.6
983.2646	2565.3977	1272.35	391
983.3908	2566.7035	1278	398.4
983.517	2568.0086	1281.45	400.25
983.6432	2569.313	1270.4	390.2
983.7694	2570.6167	1277.5	393.25
983.8955	2571.9197	1272.15	394.25
984.0216	2573.222	1279.3	392.7
984.1476	2574.5236	1269.6	388.35
984.2737	2575.8246	1276.55	394.2
984.3996	2577.1248	1275	391.95
984.5256	2578.4244	1271.4	392.05
984.6515	2579.7232	1271.7	390.4
984.7774	2581.0214	1306.8	395.15
984.9032	2582.3189	1271.1	393.6
985.029	2583.6157	1278.25	393.75
985.1548	2584.9118	1276.35	396.75
985.2806	2586.2072	1270.25	389.3
985.4063	2587.5019	1279.75	399.75
985.5319	2588.7959	1280.65	398.4
985.6576	2590.0893	1281.55	398.95
985.7832	2591.3819	1276.15	395.5
985.9087	2592.6739	1283.25	405.3
986.0343	2593.9652	1282.05	400.15
986.1597	2595.2557	1283.15	402.95
986.2852	2596.5456	1284	401.85
986.4106	2597.8348	1280.6	399.65
986.536	2599.1234	1284.6	406.65
986.6614	2600.4112	1285.95	404.6
986.7867	2601.6983	1291.05	407.55
986.912	2602.9848	1286.2	405.85
987.0372	2604.2705	1285.25	397.6
987.1624	2605.5556	1283.15	402.35
987.2876	2606.84	1283.9	402.75
987.4128	2608.1237	1280.3	399.2
987.5379	2609.4067	1279.15	397.6
987.6629	2610.689	1291.85	403.7
987.788	2611.9707	1278.15	394.45
987.913	2613.2516	1282.8	397.25
988.0379	2614.5319	1273.25	394.2
988.1629	2615.8115	1275.75	392
988.2878	2617.0903	1275.2	393.4
988.4126	2618.3685	1274.5	394.7
988.5375	2619.6461	1274.75	394.55
988.6622	2620.9229	1270.25	389.15
988.787	2622.199	1270.55	386.4
988.9117	2623.4745	1275.75	394.7
989.0364	2624.7493	1274.2	394.2
989.161	2626.0234	1273.4	393.35
989.2857	2627.2968	1277.95	398.5
989.4102	2628.5695	1272.4	388.85
989.5348	2629.8415	1272.95	391.45
989.6593	2631.1128	1275.8	394.85
989.7837	2632.3835	1275.45	396.1
989.9082	2633.6535	1275.55	395.2
990.0326	2634.9228	1272.6	392.65
990.1569	2636.1914	1269.55	389.1
990.2812	2637.4593	1273.15	391.15
990.4055	2638.7265	1268.45	384.75
990.5298	2639.9931	1273.4	394.25
990.654	2641.259	1273.8	394.1
990.7782	2642.5242	1267.7	383.8
990.9023	2643.7887	1268.5	387.5
991.0264	2645.0525	1277.75	397.3
991.1505	2646.3156	1267.9	387.9
991.2745	2647.5781	1261.35	380.5
991.3985	2648.8398	1258.65	377.9
991.5225	2650.1009	1269.2	381.25
991.6464	2651.3613	1261.25	379.4
991.7703	2652.6211	1267.3	387.4
991.8942	2653.8801	1262.45	383.4
992.018	2655.1385	1262.3	378.05
992.1418	2656.3961	1257.95	376.85
992.2655	2657.6531	1260.4	379.7
992.3892	2658.9094	1265.55	384.55
992.5129	2660.1651	1259.25	378.65
992.6366	2661.42	1264	382.5
992.7602	2662.6743	1263.05	382.95
992.8837	2663.9279	1264.4	383.85
993.0073	2665.1808	1267.45	387.6
993.1307	2666.433	1263.1	382.2
993.2542	2667.6846	1267.7	388.15
993.3776	2668.9354	1271.8	388.4
993.501	2670.1856	1267.5	386.5
993.6244	2671.4351	1273.5	394.3
993.7477	2672.6839	1276.5	393.25
993.8709	2673.9321	1277.7	398.75
993.9942	2675.1795	1277.5	397
994.1174	2676.4263	1281.4	400.1
994.2405	2677.6724	1285.65	406.55
994.3637	2678.9179	1280.85	401.6
994.4868	2680.1626	1287.45	406
994.6098	2681.4067	1287.35	408.1
994.7328	2682.6501	1289.6	407.3
994.8558	2683.8928	1282.55	401.95
994.9788	2685.1348	1277.65	397.35
995.1017	2686.3761	1277.45	397.55
995.2245	2687.6168	1275.3	394.55
995.3474	2688.8568	1268.15	387.8
995.4702	2690.0961	1271.5	394.65
995.5929	2691.3348	1274.15	393.15
995.7156	2692.5727	1268.4	385.5
995.8383	2693.81	1261.85	379.85
995.961	2695.0466	1259.4	380.4
996.0836	2696.2826	1265.6	382.5
996.2062	2697.5178	1264.25	380.45
996.3287	2698.7524	1261.8	380.55
996.4512	2699.9863	1271.8	388.15
996.5737	2701.2195	1267.85	389.85
996.6961	2702.452	1277.6	393.55
996.8185	2703.6839	1272.8	391.65
996.9408	2704.9151	1271.45	390.35
997.0631	2706.1456	1281.8	401.15
997.1854	2707.3755	1290.75	407.95
997.3077	2708.6046	1295.2	411.25
997.4299	2709.8331	1301.65	419.9
997.552	2711.0609	1298.8	416.45
997.6742	2712.2881	1309.2	429.05
997.7963	2713.5145	1317.3	434.95
997.9183	2714.7403	1327.05	446.3
998.0403	2715.9654	1338.25	456.5
998.1623	2717.1899	1358.8	462.8
998.2842	2718.4136	1363.35	483.95
998.4062	2719.6367	1357.2	475.6
998.528	2720.8591	1379.65	491.25
998.6498	2722.0809	1387	506.25
998.7716	2723.3019	1394.95	509.85
998.8934	2724.5223	1397.5	516.1
999.0151	2725.7421	1406.85	524.15
999.1368	2726.9611	1402.6	519.4
999.2584	2728.1795	1408.1	521.3
999.38	2729.3972	1399.4	520.7
999.5016	2730.6142	1397.15	503.55
999.6231	2731.8306	1374.75	492.4
999.7446	2733.0462	1368.4	485.6
999.8661	2734.2612	1357	472.7
999.9875	2735.4756	1343.2	460
1000.1089	2736.6892	1322	440.15
1000.2302	2737.9022	1312.45	434.35
1000.3515	2739.1145	1303.4	421.45
1000.4728	2740.3262	1300.05	411.6
1000.594	2741.5372	1282.9	403.6
1000.7152	2742.7475	1274.65	393.8
1000.8363	2743.9571	1261.95	378.05
1000.9575	2745.1661	1266.55	379.4
1001.0785	2746.3744	1253.05	372.45
1001.1996	2747.582	1241.85	361.75
1001.3206	2748.7889	1244.8	362.25
1001.4415	2749.9952	1238.8	357.6
1001.5625	2751.2008	1231.2	350
1001.6833	2752.4057	1236.05	353.2
1001.8042	2753.61	1226.1	345.45
1001.925	2754.8136	1229.2	345
1002.0458	2756.0165	1223.8	343.55
1002.1665	2757.2188	1222.05	342.7
1002.2872	2758.4204	1227.05	346.8
1002.4078	2759.6213	1222.85	337.25
1002.5285	2760.8215	1232.55	344
1002.649	2762.0211	1225.95	344.25
1002.7696	2763.22	1228.85	344.15
1002.8901	2764.4182	1224.75	341.35
1003.0106	2765.6158	1218.8	336.45
1003.131	2766.8127	1218.25	336.05
1003.2514	2768.009	1216.05	336.3
1003.3717	2769.2045	1215.15	333.95
1003.492	2770.3994	1218.3	335.55
1003.6123	2771.5936	1210.3	328.35
1003.7325	2772.7872	1207.85	329.2
1003.8527	2773.9801	1212.6	330.25
1003.9729	2775.1723	1224.4	327.2
1004.093	2776.3639	1205	323
1004.2131	2777.5548	1207.6	325.05
1004.3331	2778.745	1213.4	330.45
1004.4531	2779.9346	1219.9	342.1
1004.5731	2781.1235	1220.1	338
1004.693	2782.3117	1220.25	340.65
1004.8129	2783.4992	1225.05	343.9
1004.9328	2784.6861	1230.15	348.7
1005.0526	2785.8723	1234.95	351.95
1005.1723	2787.0579	1242.95	361.25
1005.2921	2788.2428	1240.9	359.9
1005.4118	2789.427	1254.05	373
1005.5314	2790.6106	1259.65	380.65
1005.651	2791.7935	1273.4	391.5
1005.7706	2792.9757	1279.45	399.85
1005.8902	2794.1573	1295.4	410.4
1006.0097	2795.3382	1299.85	421.15
1006.1291	2796.5184	1320.75	441.25
1006.2485	2797.698	1337.45	455.15
1006.3679	2798.8769	1344.6	464.15
1006.4873	2800.0551	1353.6	472.65
1006.6066	2801.2327	1375.05	493.05
1006.7258	2802.4096	1388.8	508.25
1006.8451	2803.5859	1409.4	528.1
1006.9642	2804.7615	1424.2	542.45
1007.0834	2805.9364	1443.7	564.55
1007.2025	2807.1106	1469.15	588.3
1007.3216	2808.2842	1495.8	614.9
1007.4406	2809.4572	1513.7	631.4
1007.5596	2810.6294	1556.75	674.05
1007.6785	2811.801	1587.45	708.25
1007.7975	2812.972	1620.85	741.25
1007.9163	2814.1423	1662.3	780.55
1008.0352	2815.3119	1699.1	817.35
1008.154	2816.4808	1740.65	860.8
1008.2727	2817.6491	1780.85	899.2
1008.3914	2818.8167	1818.55	940.15
1008.5101	2819.9837	1859.2	972.15
1008.6288	2821.15	1905.8	1018.1
1008.7474	2822.3157	1936.15	1050.7
1008.8659	2823.4807	1975.45	1094.5
1008.9844	2824.645	2010.25	1129.3
1009.1029	2825.8086	2036.55	1156.55
1009.2214	2826.9716	2069.9	1190.7
1009.3398	2828.134	2111.6	1232.2
1009.4581	2829.2957	2133.8	1253.2
1009.5764	2830.4567	2152.75	1272.1
1009.6947	2831.617	2170.95	1289.2
1009.813	2832.7767	2177.15	1295.65
1009.9312	2833.9358	2180.85	1301.55
1010.0493	2835.0941	2175.6	1294.15
1010.1675	2836.2519	2162.25	1281.75
1010.2855	2837.4089	2157.35	1274.95
1010.4036	2838.5653	2154.7	1273.95
1010.5216	2839.7211	2149.4	1269.85
1010.6396	2840.8761	2158.75	1276.95
1010.7575	2842.0306	2180.8	1301.85
1010.8754	2843.1843	2199.6	1318.15
1010.9932	2844.3374	2249.2	1368
1011.111	2845.4899	2290.1	1408.1
1011.2288	2846.6417	2353.15	1475.45
1011.3465	2847.7928	2418.1	1539.6
1011.4642	2848.9433	2483.95	1602.9
1011.5818	2850.0931	2556.6	1675.35
1011.6995	2851.2422	2629.25	1746.55
1011.817	2852.3907	2680.05	1798.55
1011.9345	2853.5385	2745.6	1863.1
1012.052	2854.6857	2804.35	1896.8
1012.1695	2855.8323	2827.7	1950.3
1012.2869	2856.9781	2863.95	1983.05
1012.4042	2858.1233	2908.6	2028.1
1012.5216	2859.2679	2931.75	2050.8
1012.6389	2860.4118	2979.55	2098.8
1012.7561	2861.555	3017.65	2131.25
1012.8733	2862.6976	3048.45	2166.55
1012.9905	2863.8395	3068.9	2188
1013.1076	2864.9808	3082.3	2200.95
1013.2247	2866.1214	3108.35	2227.6
1013.3417	2867.2614	3104.75	2223.9
1013.4587	2868.4007	3119.3	2238.7
1013.5757	2869.5393	3129.5	2245.7
1013.6926	2870.6773	3129.65	2244.8
1013.8095	2871.8146	3153.45	2268.35
1013.9263	2872.9513	3164.9	2281.95
1014.0431	2874.0874	3161.45	2281
1014.1599	2875.2227	3147.7	2265.65
1014.2766	2876.3574	3117.35	2239.1
1014.3933	2877.4915	3122.2	2240.65
1014.51	2878.6249	3094.5	2214.6
1014.6266	2879.7577	3079.1	2196.3
1014.7431	2880.8898	3057.3	2167.05
1014.8596	2882.0212	3049.85	2169.7
1014.9761	2883.152	3048.3	2166.5
1015.0925	2884.2821	3030.9	2149.45
1015.2089	2885.4116	3021.3	2139.5
1015.3253	2886.5405	3017.1	2136.1
1015.4416	2887.6686	3025.5	2141.8
1015.5579	2888.7962	3025.4	2147.6
1015.6741	2889.923	3028.8	2147.3
1015.7903	2891.0493	3053	2173.25
1015.9065	2892.1748	3062.4	2178.8
1016.0226	2893.2997	3069.95	2188
1016.1387	2894.424	3087.4	2207.9
1016.2547	2895.5476	3100	2219.35
1016.3707	2896.6706	3131.4	2251.75
1016.4866	2897.7929	3136.55	2254.9
1016.6025	2898.9145	3163.4	2282.75
1016.7184	2900.0355	3198.15	2315.7
1016.8342	2901.1559	3210.5	2328.9
1016.95	2902.2756	3242.95	2361.8
1017.0658	2903.3946	3269.45	2387.85
1017.1815	2904.513	3291.2	2410.2
1017.2971	2905.6308	3325.35	2444.7
1017.4127	2906.7479	3335.4	2453.4
1017.5283	2907.8643	3356	2474.25
1017.6439	2908.9801	3374.65	2493.95
1017.7594	2910.0953	3376.55	2496.15
1017.8748	2911.2098	3388.5	2503.35
1017.9902	2912.3236	3377.2	2488.3
1018.1056	2913.4368	3354.3	2471.6
1018.2209	2914.5494	3355.55	2474.3
1018.3362	2915.6613	3338.3	2452.1
1018.4515	2916.7725	3304.05	2421.95
1018.5667	2917.8831	3278.45	2394.75
1018.6819	2918.9931	3261	2377.75
1018.797	2920.1024	3247.4	2366.1
1018.9121	2921.211	3220.25	2338.5
1019.0271	2922.319	3204.25	2323.5
1019.1421	2923.4264	3185.95	2306.4
1019.2571	2924.5331	3179.8	2299.5
1019.372	2925.6391	3173.2	2292.85
1019.4869	2926.7445	3161.25	2281.6
1019.6017	2927.8493	3161.3	2278.9
1019.7165	2928.9534	3154.1	2271.75
1019.8313	2930.0569	3140.25	2255.3
1019.946	2931.1597	3137.45	2256.8
1020.0606	2932.2619	3136.1	2254.85
1020.1753	2933.3634	3132.3	2252.5
1020.2899	2934.4643	3125.15	2236.75
1020.4044	2935.5645	3116.5	2229.95
1020.5189	2936.6641	3064.3	2181.05
1020.6334	2937.763	3026.75	2146.95
1020.7478	2938.8613	2994.75	2112.45
1020.8622	2939.959	2957.45	2072.2
1020.9765	2941.056	2880.8	2000.1
1021.0908	2942.1523	2803.75	1920.9
1021.2051	2943.248	2747.1	1865.75
1021.3193	2944.3431	2674	1792.6
1021.4334	2945.4375	2585.45	1704.9
1021.5476	2946.5313	2488.45	1610.8
1021.6617	2947.6244	2414.85	1533.8
1021.7757	2948.7169	2333.45	1450.95
1021.8897	2949.8087	2240.75	1360.85
1022.0037	2950.8999	2176.6	1296.1
1022.1176	2951.9904	2106.75	1225.2
1022.2315	2953.0803	2047.5	1166.35
1022.3453	2954.1696	1997.55	1115
1022.4591	2955.2582	1957.95	1078.8
1022.5728	2956.3462	1925.6	1043.75
1022.6865	2957.4335	1887.7	1007.1
1022.8002	2958.5202	1852.45	968.75
1022.9138	2959.6062	1828.8	947.35
1023.0274	2960.6916	1817.7	939.1
1023.141	2961.7764	1803.85	921.6
1023.2545	2962.8605	1794.95	913.35
1023.3679	2963.9439	1776.7	897.1
1023.4813	2965.0267	1766.45	885.35
1023.5947	2966.1089	1794.95	892.7
1023.708	2967.1905	1762.65	883.9
1023.8213	2968.2714	1764.35	885.55
1023.9346	2969.3516	1764	882.75
1024.0478	2970.4312	1778	888.15
1024.1609	2971.5102	1757.65	878
1024.274	2972.5885	1755.25	873.15
1024.3871	2973.6662	1761.35	875.75
1024.5002	2974.7432	1768.05	888.3
1024.6132	2975.8196	1763.1	881.1
1024.7261	2976.8954	1747.75	865.55
1024.839	2977.9705	1737.6	857.9
1024.9519	2979.045	1729.45	849.3
1025.0647	2980.1188	1714.25	836.15
1025.1775	2981.192	1695.15	816.6
1025.2902	2982.2645	1677.8	796.15
1025.4029	2983.3364	1665.4	783.95
1025.5156	2984.4077	1641.75	760.25
1025.6282	2985.4783	1616.45	728.9
1025.7407	2986.5483	1587.3	707.75
1025.8532	2987.6177	1554.8	673.45
1025.9657	2988.6864	1530.8	652.95
1026.0782	2989.7545	1509.5	628.15
1026.1906	2990.8219	1474.15	593.9
1026.3029	2991.8887	1448.95	564.45
1026.4152	2992.9548	1419.9	538.65
1026.5275	2994.0204	1400.5	520.1
1026.6397	2995.0852	1379.4	500.9
1026.7519	2996.1495	1363.6	480.5
1026.864	2997.2131	1341.35	461.05
1026.9761	2998.276	1323.25	441.6
1027.0882	2999.3383	1311.95	430.35
1027.2002	3000.4	1302.5	420.75
1027.3122	3001.4611	1282.75	402.35
1027.4241	3002.5215	1266.45	386.15
1027.536	3003.5812	1254.7	373.15
1027.6478	3004.6404	1246.6	366
1027.7596	3005.6989	1250.05	366.25
1027.8714	3006.7567	1238.65	355.9
1027.9831	3007.8139	1255.9	347.65
1028.0947	3008.8705	1221.65	340.45
1028.2064	3009.9264	1221.85	338.1
1028.3179	3010.9818	1213.2	332.85
1028.4295	3012.0364	1215.65	334.5
1028.541	3013.0905	1209.75	330.05
1028.6524	3014.1439	1218.15	337.45
1028.7638	3015.1966	1211.65	332.45
1028.8752	3016.2487	1210.4	328.8
1028.9865	3017.3002	1214	330.8
1029.0978	3018.3511	1207.45	328.35
1029.209	3019.4013	1214.55	334.55
1029.3202	3020.4509	1211.55	329.75
1029.4314	3021.4998	1211.2	332.25
1029.5425	3022.5481	1212.65	331.35
1029.6535	3023.5958	1212.35	334.15
1029.7645	3024.6428	1216.75	336.25
1029.8755	3025.6892	1211.25	330.05
1029.9864	3026.735	1227.55	349.75
1030.0973	3027.7802	1217.4	337.35
1030.2082	3028.8247	1218.8	340.35
1030.319	3029.8685	1223.85	341.9
1030.4297	3030.9118	1229.95	348.35
1030.5404	3031.9544	1235.05	354.85
1030.6511	3032.9963	1237.65	358
1030.7617	3034.0376	1238.75	358
1030.8723	3035.0783	1246.7	363.7
1030.9829	3036.1184	1250.85	369.6
1031.0934	3037.1578	1246.05	367.2
1031.2038	3038.1966	1251.5	369.2
1031.3142	3039.2348	1252.65	374.55
1031.4246	3040.2723	1263.2	373.8
1031.5349	3041.3092	1252.65	372.55
1031.6452	3042.3455	1255.1	374.85
1031.7554	3043.3811	1252.8	370
1031.8656	3044.4161	1243.75	363.6
1031.9758	3045.4505	1230.35	349.15
1032.0859	3046.4842	1234.8	353.35
1032.1959	3047.5173	1221.75	344.5
1032.3059	3048.5498	1223.45	343.5
1032.4159	3049.5816	1216.05	335.15
1032.5258	3050.6128	1223.25	341.5
1032.6357	3051.6434	1214.4	332.7
1032.7455	3052.6734	1205.25	324.2
1032.8553	3053.7027	1201.7	320.25
1032.9651	3054.7314	1196.6	317.5
1033.0748	3055.7594	1188.1	307.75
1033.1845	3056.7868	1191.6	309.8
1033.2941	3057.8136	1175	295.75
1033.4037	3058.8398	1178.85	300.2
1033.5132	3059.8653	1177.55	297
1033.6227	3060.8902	1171.3	294.5
1033.7321	3061.9145	1163.45	285
1033.8415	3062.9381	1159.65	277.35
1033.9509	3063.9612	1171.4	276.5
1034.0602	3064.9835	1156.05	274.3
1034.1694	3066.0053	1154.2	268.95
1034.2787	3067.0264	1142.45	264.55
1034.3878	3068.0469	1136.45	254.25
1034.497	3069.0668	1133.8	250.7
1034.6061	3070.086	1123.95	243.75
1034.7151	3071.1046	1119.3	237
1034.8241	3072.1226	1110.2	229
1034.9331	3073.1399	1105.1	223.05
1035.042	3074.1567	1093.35	212.1
1035.1508	3075.1727	1089.95	208.3
1035.2597	3076.1882	1078.45	199.35
1035.3684	3077.203	1073.65	192.6
1035.4772	3078.2173	1067.6	185.3
1035.5859	3079.2308	1066.2	181.9
1035.6945	3080.2438	1056.8	175.45
1035.8031	3081.2561	1047.05	166.45
1035.9117	3082.2678	1039.35	158.7
1036.0202	3083.2789	1038.35	157.2
1036.1286	3084.2893	1032.4	153.6
1036.2371	3085.2991	1030.45	147.8
1036.3454	3086.3083	1027.65	145.7
1036.4538	3087.3169	1022.05	139.9
1036.562	3088.3248	1019.25	138.7
1036.6703	3089.3321	1012.6	133.15
1036.7785	3090.3388	1012.15	131.55
1036.8866	3091.3449	1007.7	128.15
1036.9948	3092.3503	1008.7	125.3
1037.1028	3093.3551	1000.3	121.45
1037.2108	3094.3593	999.45	119.4
1037.3188	3095.3629	992.45	114.25
1037.4267	3096.3658	995.3	113.65
1037.5346	3097.3681	993.45	113.15
1037.6425	3098.3698	992.8	109.8
1037.7503	3099.3708	997.1	109.55
1037.858	3100.3713	985.9	106.1
1037.9657	3101.3711	987.25	104.95
1038.0734	3102.3702	1119.55	98.7
1038.181	3103.3688	984.95	103.5
1038.2886	3104.3667	982.6	103.5
1038.3961	3105.364	981.5	101.5
1038.5036	3106.3607	976.9	93.35
1038.611	3107.3568	976	94.45
1038.7184	3108.3522	976.7	98.6
1038.8257	3109.347	974.7	94.25
1038.933	3110.3412	980.35	94.9
1039.0403	3111.3348	970.85	89.85
1039.1475	3112.3277	970.8	90.1
1039.2547	3113.32	969.55	91.95
1039.3618	3114.3117	969.3	86.7
1039.4689	3115.3028	970.85	91.9
1039.5759	3116.2932	969.55	85.4
1039.6829	3117.2831	973.25	87.8
1039.7898	3118.2723	965.5	84.9
1039.8967	3119.2608	964.05	83.3
1040.0035	3120.2488	967.45	87.6
1040.1103	3121.2361	967.6	84.9
1040.2171	3122.2229	961.65	80.8
1040.3238	3123.209	964.3	84
1040.4305	3124.1944	963	82.2
1040.5371	3125.1793	963.8	82.2
1040.6437	3126.1635	960.85	82.75
1040.7502	3127.1471	960.4	81.35
1040.8567	3128.1301	961.15	79.9
1040.9631	3129.1125	959.5	80.45
1041.0695	3130.0942	957.4	78.55
1041.1759	3131.0753	964.95	78.35
1041.2822	3132.0558	959.15	77.2
1041.3884	3133.0357	955.55	73.9
1041.4946	3134.015	955.25	74.75
1041.6008	3134.9936	958.7	77.65
1041.7069	3135.9716	972.6	71.2
1041.813	3136.949	951.05	67.75
1041.919	3137.9258	970	72.6
1042.025	3138.902	958.9	72.75
1042.1309	3139.8775	949.6	69.95
1042.2368	3140.8524	950.8	70.35
1042.3427	3141.8267	950.4	68
1042.4485	3142.8004	946.8	67.1
1042.5542	3143.7735	951.65	66.65
1042.6599	3144.7459	949.65	68.1
1042.7656	3145.7178	946.3	67.65
1042.8712	3146.689	947.05	66.9
1042.9768	3147.6596	945.35	63.2
1043.0823	3148.6295	940.4	58.95
1043.1878	3149.5989	938.25	58.15
1043.2932	3150.5676	939.3	59.85
1043.3986	3151.5357	942.3	62.65
1043.5039	3152.5032	943.55	63.75
1043.6092	3153.4701	943.05	63.9
1043.7145	3154.4364	941.35	58.55
1043.8197	3155.402	935.15	56.45
1043.9248	3156.367	939.95	58.15
1044.03	3157.3315	975.65	61.05
1044.135	3158.2952	937.4	57.05
1044.24	3159.2584	938.3	58.5
1044.345	3160.221	936.45	54.85
1044.4499	3161.1829	933.95	54.55
1044.5548	3162.1442	936.2	55.8
1044.6596	3163.105	937.2	58
1044.7644	3164.065	934.2	53.7
1044.8692	3165.0245	935.2	52.55
1044.9739	3165.9834	930.9	51
1045.0785	3166.9416	933.25	54.45
1045.1831	3167.8993	931	49.1
1045.2877	3168.8563	928.1	46.4
1045.3922	3169.8127	931.25	50.35
1045.4966	3170.7684	934.3	53.9
1045.6011	3171.7236	930.9	50.85
1045.7054	3172.6782	931.05	52.35
1045.8098	3173.6321	933.1	50.35
1045.914	3174.5854	934.5	50.85
1046.0183	3175.5381	933.9	52.7
1046.1224	3176.4902	928.75	49.3
1046.2266	3177.4417	929.6	50.7
1046.3307	3178.3926	927.45	48.2
1046.4347	3179.3428	927.45	49.6
1046.5387	3180.2924	927.05	49.5
1046.6427	3181.2415	929.15	48.15
1046.7466	3182.1899	929	46.2
1046.8504	3183.1377	927.3	47.05
1046.9542	3184.0848	929.55	47.55
1047.058	3185.0314	926.95	46.1
1047.1617	3185.9773	925.85	44.95
1047.2654	3186.9227	925.35	44.3
1047.369	3187.8674	924.65	46.8
1047.4726	3188.8115	931.8	49.95
1047.5761	3189.755	926.55	45.8
1047.6796	3190.6979	928.1	46.45
1047.783	3191.6402	924.5	46.2
1047.8864	3192.5818	922.75	41.25
1047.9898	3193.5229	950.15	43.55
1048.0931	3194.4633	924.5	45.9
1048.1963	3195.4031	925.15	43.2
1048.2995	3196.3423	921.65	41.95
1048.4027	3197.2809	922.55	41.95
1048.5058	3198.2189	924.95	44.4
1048.6089	3199.1563	940.9	42.45
1048.7119	3200.0931	922.1	43.3
1048.8148	3201.0292	922.3	43.85
1048.9178	3201.9648	919.35	39.05
1049.0206	3202.8997	925.8	41.9
1049.1235	3203.834	923.8	42.3
1049.2262	3204.7677	924.2	43.4
1049.329	3205.7008	920.3	39.4
1049.4317	3206.6333	920.7	41.95
1049.5343	3207.5652	921.65	39.9
1049.6369	3208.4964	920.1	39.6
1049.7394	3209.4271	918.4	38.45
1049.8419	3210.3571	919.8	40.4
1049.9444	3211.2865	921.1	39.35
1050.0468	3212.2154	916.75	35.15
1050.1491	3213.1436	923.4	41.05
1050.2514	3214.0712	925.75	39.2
1050.3537	3214.9982	918.45	39.55
1050.4559	3215.9246	918.2	35.75
1050.5581	3216.8503	918	39.25
1050.6602	3217.7755	915.3	33.95
1050.7623	3218.7001	919.75	38.4
1050.8643	3219.624	917.15	38.2
1050.9663	3220.5473	919.25	38
1051.0682	3221.4701	917.05	33.9
1051.1701	3222.3922	919.7	37.95
1051.2719	3223.3137	917.6	37.3
1051.3737	3224.2346	917.7	37.85
1051.4754	3225.1549	917	37.85
1051.5771	3226.0746	916.05	37.45
1051.6788	3226.9937	916.3	36.7
1051.7804	3227.9121	914.6	36.1
1051.8819	3228.83	916.2	35.95
1051.9834	3229.7473	915.75	33.45
1052.0849	3230.6639	915.7	37.3
1052.1863	3231.5799	914.45	34.45
1052.2876	3232.4954	915.25	34.95
1052.3889	3233.4102	915.2	36.55
1052.4902	3234.3244	915.2	35.7
1052.5914	3235.238	914.75	36.05
1052.6926	3236.151	936.05	32.8
1052.7937	3237.0634	915.2	36.25
1052.8948	3237.9752	911.35	31.4
1052.9958	3238.8864	914.35	33.1
1053.0968	3239.797	916.45	36.1
1053.1977	3240.7069	914.85	34.85
1053.2986	3241.6163	916.6	35.5
1053.3994	3242.5251	913	34.05
1053.5002	3243.4332	911.4	33.95
1053.6009	3244.3408	911.35	30.5
1053.7016	3245.2477	910.5	31.85
1053.8022	3246.154	913.4	33.85
1053.9028	3247.0598	911.55	30.35
1054.0034	3247.9649	912.65	31.75
1054.1039	3248.8694	911.4	30.75
1054.2043	3249.7733	910.85	30.7
1054.3047	3250.6766	909.8	31.4
1054.4051	3251.5793	911.75	30.55
1054.5054	3252.4814	907.75	29.75
1054.6056	3253.3829	910.15	29.4
1054.7058	3254.2838	909.45	31.1
1054.806	3255.1841	908	28.35
1054.9061	3256.0838	908.9	28.45
1055.0061	3256.9829	906.5	28.7
1055.1062	3257.8814	909.15	26.55
1055.2061	3258.7792	909	28.35
1055.306	3259.6765	907.9	27.65
1055.4059	3260.5731	907.15	26.5
1055.5057	3261.4692	906.75	27.15
1055.6055	3262.3647	905.1	24.15
1055.7052	3263.2595	906.65	28.25
1055.8049	3264.1538	904.1	23.15
1055.9045	3265.0474	905.1	27
1056.0041	3265.9404	906.3	28.5
1056.1036	3266.8329	903.05	23.25
1056.2031	3267.7247	913.3	22.5
1056.3025	3268.616	900.2	23.35
1056.4019	3269.5066	901.6	20.25
1056.5013	3270.3966	902.5	20.25
1056.6005	3271.286	899	19.2
