Software Version:	3.9.2.0
Unit SN:	10000200
Spectrometer SN:	6960
Date:	3/14/2024 12:58:58 PM
Data Line Index:	25
Spectral Points:	2048
Integration time (ms):	125
Averages:	20
Delay (ms):	30000
Sequence Number:	1
Processing:	dark subtract
Laser Power (mW):	300
Laser Current (mA):	823
Laser Diode Temp (C):	25
Laser Case Temp (C):	27.9
System Temp (C):	28
Spectrometer Temp (C):	25.7
CCD Temp (C):	0.004
Secondary Temp (C):	20.01
Heatsink Temp (C):	23.772
CCDPCB Temp (C):	37.018
SecondaryPCB Temp (C):	35.095

Wavelength	RamanShift	Raw Counts	Dark Subtracted
787.061	30.1047	418.2	5.7
787.2016	32.3739	416.75	6.45
787.3422	34.6426	418.15	6.7
787.4828	36.9109	422.3	9
787.6235	39.1787	424.9	7.8
787.7642	41.4461	430.85	9.65
787.9049	43.7131	436.9	12
788.0456	45.9796	437.7	9.2
788.1863	48.2456	443.2	9.85
788.3271	50.5112	448.85	10.9
788.4679	52.7764	450.8	11.95
788.6087	55.0411	452.95	8.05
788.7496	57.3054	459.5	12.75
788.8904	59.5692	464.55	13.95
789.0313	61.8326	470.2	18
789.1722	64.0955	475.6	17.95
789.3132	66.3579	482.6	17.95
789.4541	68.6199	485.75	19.85
789.5951	70.8815	496.55	28.9
789.7361	73.1426	512.05	39.05
789.8771	75.4032	544.75	68.5
790.0181	77.6634	614.95	135.4
790.1592	79.9231	775.95	289.95
790.3003	82.1824	1118.3	624.9
790.4414	84.4412	1686.65	1183.8
790.5825	86.6995	2448.55	1931.75
790.7237	88.9574	3193.15	2666.25
790.8648	91.2148	3728.55	3192.2
791.006	93.4717	3991.85	3450.45
791.1472	95.7282	4061.9	3514.3
791.2885	97.9842	4105.7	3556.4
791.4297	100.2398	4066.05	3515.35
791.571	102.4949	4053.45	3497.15
791.7123	104.7495	4034.7	3474.6
791.8536	107.0036	3978.85	3420
791.9949	109.2573	3936.7	3377.45
792.1363	111.5105	3866.1	3306.3
792.2777	113.7632	3790.55	3228.75
792.4191	116.0154	3744.55	3171.1
792.5605	118.2672	3677.8	3112.2
792.7019	120.5185	3610.9	3042.15
792.8434	122.7693	3557.15	2987.25
792.9849	125.0197	3493.25	2921.55
793.1264	127.2696	3444.55	2866.55
793.2679	129.519	3418.1	2839.8
793.4094	131.7679	3400.55	2820.6
793.551	134.0163	3389.75	2807.45
793.6926	136.2642	3383.65	2795.65
793.8342	138.5117	3386.4	2794
793.9758	140.7587	3362.4	2771.95
794.1175	143.0052	3323.4	2727.9
794.2591	145.2512	3292.55	2698.4
794.4008	147.4967	3257.25	2660.6
794.5425	149.7417	3219.65	2620.5
794.6842	151.9863	3201.85	2601.05
794.826	154.2304	3208.3	2602.4
794.9677	156.4739	3192.35	2577.5
795.1095	158.717	3207.25	2594.75
795.2513	160.9596	3210	2593.65
795.3931	163.2017	3231.15	2615.25
795.535	165.4433	3228.2	2611.95
795.6768	167.6844	3223.25	2601.8
795.8187	169.925	3202.45	2577.65
795.9606	172.1651	3158.65	2530.95
796.1025	174.4047	3127.25	2496.15
796.2445	176.6439	3101.05	2467.2
796.3864	178.8825	3070.4	2435.7
796.5284	181.1206	3062.55	2423.85
796.6704	183.3582	3052.1	2408.1
796.8124	185.5954	3050.9	2407.65
796.9544	187.832	3061.25	2412.5
797.0965	190.0681	3039.5	2390.2
797.2386	192.3037	3046.15	2391.8
797.3806	194.5388	3059.85	2405.85
797.5228	196.7734	3063.35	2404.5
797.6649	199.0075	3071.85	2408.9
797.807	201.2411	3093.4	2427.3
797.9492	203.4742	3093.3	2427.2
798.0914	205.7068	3121.5	2454.2
798.2336	207.9389	3127.75	2461.7
798.3758	210.1704	3141.25	2474.3
798.518	212.4015	3119.6	2448.1
798.6603	214.632	3140.6	2467.15
798.8025	216.862	3127.65	2456.4
798.9448	219.0915	3118.5	2453.8
799.0871	221.3205	3117.8	2456.45
799.2294	223.549	3110.2	2460
799.3718	225.777	3114	2463
799.5141	228.0044	3107.05	2452.05
799.6565	230.2314	3095.4	2441.35
799.7989	232.4578	3085.15	2433.2
799.9413	234.6837	3081.2	2419.95
800.0837	236.909	3074	2412.75
800.2262	239.1339	3076.25	2391.1
800.3687	241.3582	3061.05	2391.1
800.5111	243.582	3084.85	2389.1
800.6536	245.8053	3070.25	2379.1
800.7961	248.0281	3073.35	2387.65
800.9387	250.2503	3067.75	2378.6
801.0812	252.472	3083.05	2387.55
801.2238	254.6932	3091.1	2394.4
801.3664	256.9139	3082.25	2384
801.509	259.134	3093.5	2392.05
801.6516	261.3536	3099.7	2401
801.7942	263.5727	3129.15	2425.75
801.9369	265.7912	3139.8	2438.4
802.0795	268.0092	3169.5	2462
802.2222	270.2267	3215.65	2512.9
802.3649	272.4436	3236.85	2530.8
802.5076	274.6601	3248.5	2530.05
802.6504	276.8759	3268.35	2560.85
802.7931	279.0913	3271	2561.7
802.9359	281.3061	3283.8	2570.25
803.0787	283.5204	3299	2583.8
803.2215	285.7341	3307	2587.95
803.3643	287.9473	3324.5	2605.65
803.5071	290.16	3328.25	2601
803.6499	292.3721	3286.55	2567.05
803.7928	294.5837	3277.45	2555.45
803.9357	296.7947	3240.1	2520.25
804.0786	299.0052	3219.85	2499.25
804.2215	301.2152	3205.7	2481
804.3644	303.4246	3198.85	2477.05
804.5074	305.6334	3174.15	2452.25
804.6503	307.8418	3161.45	2436.05
804.7933	310.0495	3144.7	2418.15
804.9363	312.2568	3113.85	2389.3
805.0793	314.4635	3071.35	2342.7
805.2223	316.6696	3030	2299.85
805.3653	318.8752	2993.6	2258.65
805.5084	321.0802	2979.55	2250.95
805.6514	323.2847	2974.05	2241.95
805.7945	325.4887	2963.2	2232.8
805.9376	327.692	2977.3	2244.75
806.0807	329.8949	3007.9	2271.85
806.2238	332.0972	3027.8	2290.85
806.367	334.2989	3038.6	2296.15
806.5101	336.5001	3034.45	2294.5
806.6533	338.7007	3002.5	2264.05
806.7965	340.9008	2970.5	2229.05
806.9397	343.1003	2939.95	2196.35
807.0829	345.2992	2914.25	2171.25
807.2261	347.4976	2876.65	2130.9
807.3693	349.6955	2844.7	2094.05
807.5126	351.8927	2845.2	2091.85
807.6559	354.0895	2819.15	2057.05
807.7991	356.2856	2825.2	2074.05
807.9424	358.4812	2799.05	2047.75
808.0857	360.6763	2789.25	2039.25
808.2291	362.8707	2779.5	2028
808.3724	365.0646	2776	2019.8
808.5158	367.258	2785.55	2026.95
808.6591	369.4508	2799	2036.95
808.8025	371.643	2816.3	2056.15
808.9459	373.8346	2808.9	2044.3
809.0893	376.0257	2853.5	2085.7
809.2327	378.2162	2871.45	2101.65
809.3762	380.4062	2865	2094.5
809.5196	382.5956	2846.7	2073.15
809.6631	384.7844	2812.35	2042.7
809.8066	386.9726	2777.7	2005.3
809.9501	389.1603	2751.8	1979.65
810.0936	391.3474	2765.55	1959.75
810.2371	393.5339	2734.75	1964.6
810.3806	395.7199	2727.45	1960.9
810.5241	397.9052	2741.35	1978.65
810.6677	400.09	2766.4	2002.4
810.8113	402.2743	2787.55	2025.35
810.9548	404.4579	2798.05	2034.85
811.0984	406.641	2838.2	2073.9
811.2421	408.8235	2881.65	2117.2
811.3857	411.0054	2900.1	2130.2
811.5293	413.1868	2970.15	2202.65
811.673	415.3675	3026.8	2254.15
811.8166	417.5477	3040.45	2268.8
811.9603	419.7273	2977.2	2202.65
812.104	421.9064	2876.4	2093.2
812.2477	424.0848	2826.6	2045.45
812.3914	426.2627	2788.5	2008.05
812.5351	428.4399	2734.85	1952.5
812.6788	430.6166	2706.65	1918.95
812.8226	432.7928	2674	1887.2
812.9663	434.9683	2629.2	1843.3
813.1101	437.1432	2603.75	1811.7
813.2539	439.3176	2589.8	1804.1
813.3977	441.4914	2571.05	1780.95
813.5415	443.6645	2564.75	1772
813.6853	445.8371	2573.45	1779.95
813.8291	448.0091	2565.85	1776.35
813.973	450.1806	2556.35	1765.8
814.1168	452.3514	2551.8	1755.15
814.2607	454.5216	2552.55	1748.6
814.4046	456.6913	2544.4	1750.3
814.5485	458.8603	2546.35	1751.15
814.6924	461.0288	2541.45	1745.55
814.8363	463.1967	2542.1	1748.45
814.9802	465.3639	2533.5	1735.7
815.1241	467.5306	2517.55	1717.5
815.2681	469.6967	2502.9	1703.3
815.412	471.8622	2498.55	1700.4
815.556	474.0271	2489.1	1689.45
815.7	476.1914	2495.9	1694.3
815.844	478.3551	2487.95	1689.05
815.988	480.5182	2488.3	1685.75
816.132	482.6807	2487.55	1685.5
816.276	484.8426	2502.2	1700.9
816.4201	487.0039	2514.85	1713.35
816.5641	489.1647	2567.1	1765.25
816.7082	491.3248	2593.5	1790.8
816.8522	493.4843	2590.5	1789
816.9963	495.6432	2590.8	1785.95
817.1404	497.8015	2573.1	1765.3
817.2845	499.9592	2529.95	1724.35
817.4286	502.1163	2501.2	1693.95
817.5727	504.2728	2454.75	1643.05
817.7168	506.4287	2449.25	1643.6
817.861	508.5839	2442.7	1635.35
818.0051	510.7386	2422.1	1614.8
818.1493	512.8927	2440.7	1625.35
818.2935	515.0461	2440.45	1630.35
818.4377	517.199	2443.05	1632.75
818.5818	519.3512	2462.15	1652.15
818.726	521.5029	2503.05	1687.1
818.8703	523.6539	2539.3	1725.1
819.0145	525.8043	2546.55	1732.95
819.1587	527.9541	2515.9	1700.65
819.303	530.1033	2472.5	1657.6
819.4472	532.2519	2428.8	1615
819.5915	534.3999	2421.05	1604.75
819.7357	536.5472	2408.1	1595.85
819.88	538.694	2398.25	1582.9
820.0243	540.8401	2401.65	1583.15
820.1686	542.9856	2426.6	1606.95
820.3129	545.1305	2428.95	1610.6
820.4572	547.2748	2433.2	1613.95
820.6016	549.4185	2431.55	1613.75
820.7459	551.5615	2438.7	1619.55
820.8902	553.704	2442.05	1622.5
821.0346	555.8458	2452.55	1630.35
821.1789	557.987	2468.75	1648.05
821.3233	560.1276	2480.35	1658.45
821.4677	562.2675	2511.95	1691.45
821.6121	564.4069	2537.5	1715.65
821.7565	566.5456	2579.15	1759.1
821.9009	568.6837	2560.35	1738.5
822.0453	570.8212	2520.75	1700.65
822.1897	572.958	2476.85	1653.8
822.3342	575.0942	2447.95	1626.4
822.4786	577.2299	2410.1	1586.8
822.6231	579.3648	2383.05	1560.05
822.7675	581.4992	2378.7	1555.2
822.912	583.6329	2369.85	1547.15
823.0565	585.766	2384.25	1561
823.201	587.8985	2398.65	1577.4
823.3454	590.0304	2441.3	1606.6
823.4899	592.1616	2460.2	1633.65
823.6345	594.2922	2448.4	1625.5
823.779	596.4222	2416	1590.9
823.9235	598.5515	2368.55	1542
824.068	600.6802	2335.3	1508.7
824.2126	602.8083	2319.1	1492.4
824.3571	604.9358	2303.1	1473.35
824.5017	607.0626	2297.25	1469.6
824.6462	609.1888	2310.1	1479.7
824.7908	611.3144	2317.8	1487.8
824.9354	613.4393	2333.4	1502.55
825.08	615.5636	2358.2	1529.1
825.2246	617.6873	2395.4	1565.95
825.3692	619.8103	2420.6	1586.9
825.5138	621.9327	2421.55	1589.6
825.6584	624.0544	2395.6	1564.65
825.803	626.1756	2353.15	1523.75
825.9477	628.2961	2323.45	1491.8
826.0923	630.4159	2300.15	1468.25
826.237	632.5351	2295.1	1461.85
826.3816	634.6537	2290.85	1458.65
826.5263	636.7716	2283.65	1449.25
826.6709	638.8889	2279.15	1444.95
826.8156	641.0056	2289	1455.45
826.9603	643.1216	2288.2	1452.6
827.105	645.237	2284.7	1446
827.2497	647.3518	2262.1	1424.55
827.3944	649.4659	2249.15	1416.25
827.5391	651.5793	2244.95	1405.8
827.6838	653.6922	2238.05	1399.9
827.8285	655.8043	2229.95	1393.65
827.9733	657.9159	2224.4	1386.5
828.118	660.0268	2206.4	1366.85
828.2627	662.137	2198.1	1358.5
828.4075	664.2466	2197.9	1358
828.5522	666.3556	2191.55	1351.55
828.697	668.4639	2186.75	1343.45
828.8418	670.5716	2184.5	1344.25
828.9865	672.6786	2187.15	1346.35
829.1313	674.785	2181.8	1341.2
829.2761	676.8907	2165.75	1327.05
829.4209	678.9958	2173.15	1332.65
829.5657	681.1002	2171.95	1328
829.7105	683.204	2176.7	1331.6
829.8553	685.3072	2166.15	1323.4
830.0001	687.4097	2169.2	1326.35
830.1449	689.5115	2174.05	1325.7
830.2898	691.6127	2154.35	1313.1
830.4346	693.7132	2151.55	1307.6
830.5794	695.8131	2170.95	1313.8
830.7243	697.9123	2165.9	1319.4
830.8691	700.0109	2162.95	1316.8
831.014	702.1089	2174.2	1330.75
831.1588	704.2061	2173.7	1328.5
831.3037	706.3028	2183.65	1335.95
831.4486	708.3987	2201.7	1356
831.5935	710.4941	2200.5	1354.25
831.7383	712.5887	2207.4	1361.7
831.8832	714.6827	2213.15	1361.55
832.0281	716.7761	2198.2	1351.75
832.173	718.8688	2194.8	1346.9
832.3179	720.9608	2206.15	1354.55
832.4628	723.0522	2218	1365.9
832.6077	725.1429	2218.45	1372.9
832.7527	727.233	2247.15	1398.8
832.8976	729.3224	2289.1	1440.15
833.0425	731.4112	2317.6	1467.2
833.1874	733.4993	2327.8	1474.85
833.3324	735.5867	2292.8	1440.3
833.4773	737.6735	2248.6	1396.5
833.6222	739.7596	2212.05	1362.1
833.7672	741.845	2199.45	1349.4
833.9122	743.9298	2206.6	1351.9
834.0571	746.014	2205.3	1355.25
834.2021	748.0974	2216.05	1365.1
834.347	750.1802	2211.65	1360.1
834.492	752.2624	2196.4	1344.15
834.637	754.3439	2185.05	1331.1
834.782	756.4247	2181.05	1320.65
834.9269	758.5048	2162.05	1309.95
835.0719	760.5843	2175.3	1323.25
835.2169	762.6631	2184	1332.3
835.3619	764.7413	2219.65	1366.8
835.5069	766.8188	2277.55	1423.7
835.6519	768.8956	2313	1458.25
835.7969	770.9718	2362.3	1509.4
835.9419	773.0473	2356.35	1503.45
836.0869	775.1221	2328.6	1472.85
836.232	777.1962	2321.2	1466.95
836.377	779.2697	2354.8	1498.6
836.522	781.3426	2423.8	1556.8
836.667	783.4147	2464	1608.05
836.8121	785.4862	2442.6	1588.35
836.9571	787.557	2393.85	1539.1
837.1021	789.6271	2311.3	1456.55
837.2472	791.6966	2216.85	1361.15
837.3922	793.7654	2162.25	1304.75
837.5373	795.8335	2122.25	1266.7
837.6823	797.901	2091.25	1234.25
837.8274	799.9678	2089.8	1230.1
837.9724	802.0339	2087.2	1232.25
838.1175	804.0993	2104.8	1237.55
838.2626	806.1641	2085.45	1228.8
838.4076	808.2282	2072.4	1217.15
838.5527	810.2916	2064.85	1203.9
838.6978	812.3544	2056.2	1201.4
838.8428	814.4164	2042.65	1187.2
838.9879	816.4778	2048.95	1191.3
839.133	818.5385	2042.6	1187.8
839.2781	820.5986	2061.4	1204.6
839.4232	822.658	2101.35	1242.6
839.5682	824.7166	2145.75	1287.3
839.7133	826.7747	2197.05	1340.6
839.8584	828.832	2255.2	1396.65
840.0035	830.8886	2281.7	1423.4
840.1486	832.9446	2305.3	1446.2
840.2937	834.9999	2272.9	1416.65
840.4388	837.0545	2228.4	1365.8
840.5839	839.1085	2171.55	1311.25
840.729	841.1618	2124.75	1261.8
840.8741	843.2143	2083.3	1222.75
841.0192	845.2662	2072	1213.15
841.1643	847.3175	2063.25	1201.55
841.3095	849.368	2036.1	1174.85
841.4546	851.4179	2032.45	1171.7
841.5997	853.467	2031.65	1171.2
841.7448	855.5155	2040.25	1178.6
841.8899	857.5633	2027.95	1167.65
842.0351	859.6105	2028.8	1167.55
842.1802	861.6569	2026.3	1167.25
842.3253	863.7027	2003.7	1140.8
842.4704	865.7478	2007.45	1146.65
842.6156	867.7922	2002.6	1141.95
842.7607	869.8359	1993.75	1130.15
842.9058	871.8789	1986.6	1123.5
843.0509	873.9212	2023.75	1124.65
843.1961	875.9629	1991.75	1130
843.3412	878.0039	1991.7	1126.8
843.4863	880.0441	2001.8	1137.9
843.6315	882.0837	2014.8	1150.8
843.7766	884.1226	2033.45	1169.65
843.9218	886.1609	2046.8	1184.45
844.0669	888.1984	2073.55	1213.25
844.212	890.2352	2111.35	1250.45
844.3572	892.2714	2117.3	1249.3
844.5023	894.3069	2095.45	1229.05
844.6475	896.3416	2065.6	1201.5
844.7926	898.3757	2033.75	1168.1
844.9377	900.4091	2020.3	1155.6
845.0829	902.4418	2019.1	1149.35
845.228	904.4739	2042.2	1175.55
845.3732	906.5052	2032.1	1167.4
845.5183	908.5358	2030.05	1165.75
845.6635	910.5658	2014.9	1148
845.8086	912.595	1986.65	1120.35
845.9538	914.6236	1955.75	1091.8
846.0989	916.6515	1942.55	1078.4
846.2441	918.6786	1936.25	1069.35
846.3892	920.7051	1929.65	1063.65
846.5344	922.7309	1913.65	1046.7
846.6795	924.756	1910.8	1045.3
846.8246	926.7804	1927.65	1057.8
846.9698	928.8041	1923.55	1057.3
847.1149	930.8272	1947.05	1080.3
847.2601	932.8495	1937	1068.8
847.4052	934.8711	1933.35	1065.9
847.5504	936.892	1949.65	1081.15
847.6955	938.9123	1949.4	1084.3
847.8407	940.9318	1960.5	1095.1
847.9858	942.9506	1980.2	1112.45
848.131	944.9688	1977.9	1111.15
848.2761	946.9862	1952.5	1083.95
848.4213	949.003	1926	1058.7
848.5664	951.019	1908.3	1040.25
848.7115	953.0344	1893.2	1023.9
848.8567	955.0491	1897.55	1030.5
849.0018	957.063	1881.45	1012.1
849.147	959.0763	1872.15	1006.25
849.2921	961.0888	1876.65	1005.2
849.4373	963.1007	1880.4	1013.35
849.5824	965.1119	1867.3	998.9
849.7275	967.1223	1865.3	996.15
849.8727	969.1321	1864.5	995.7
850.0178	971.1412	1856.5	988.6
850.1629	973.1495	1857.65	988.8
850.3081	975.1572	1883.7	976.3
850.4532	977.1641	1853.95	984.95
850.5983	979.1704	1851.45	980.15
850.7435	981.1759	1846.5	974.5
850.8886	983.1808	1843.2	970.5
851.0337	985.1849	1848.6	968.45
851.1788	987.1884	1833.85	961.3
851.324	989.1911	1836.2	963.2
851.4691	991.1932	1837.95	965.9
851.6142	993.1945	1829.05	961.15
851.7593	995.1951	1832.45	960.7
851.9045	997.1951	1835	957.3
852.0496	999.1943	1822.05	951.15
852.1947	1001.1928	1818.85	947.45
852.3398	1003.1906	1815	944.5
852.4849	1005.1877	1833.35	961.85
852.63	1007.1841	1847.3	976.2
852.7751	1009.1798	1859.5	988
852.9202	1011.1748	1840.95	971.65
853.0653	1013.1691	1835.85	962.6
853.2104	1015.1627	1812.15	939.9
853.3555	1017.1556	1785.05	913.8
853.5006	1019.1477	1772.2	898.75
853.6457	1021.1392	1757.75	888.55
853.7908	1023.1299	1757.35	885.8
853.9359	1025.12	1754.55	882.1
854.081	1027.1093	1751.7	878.6
854.2261	1029.0979	1764.45	894.45
854.3712	1031.0859	1768.55	897.9
854.5163	1033.0731	1782.5	911.25
854.6613	1035.0596	1779.3	908.05
854.8064	1037.0454	1769.2	895.9
854.9515	1039.0304	1769.55	896.2
855.0965	1041.0148	1743.25	873.5
855.2416	1042.9985	1731.4	858.05
855.3867	1044.9814	1733.9	862
855.5317	1046.9636	1725.9	849.85
855.6768	1048.9452	1716.35	843.15
855.8219	1050.926	1729.4	858.25
855.9669	1052.9061	1738.3	865.95
856.112	1054.8855	1734.2	861.95
856.257	1056.8642	1740.45	868.5
856.4021	1058.8421	1742.2	864.8
856.5471	1060.8194	1723	851.45
856.6921	1062.7959	1721.2	849.45
856.8372	1064.7717	1728.5	855.1
856.9822	1066.7469	1718.95	843.8
857.1272	1068.7213	1724.2	846.6
857.2723	1070.695	1730.5	858
857.4173	1072.6679	1735.2	862.2
857.5623	1074.6402	1750.2	875.75
857.7073	1076.6117	1757.7	883.5
857.8523	1078.5826	1731.3	857.05
857.9973	1080.5527	1717.1	841.7
858.1423	1082.5221	1694.5	820.55
858.2873	1084.4908	1681.2	806.1
858.4323	1086.4587	1673.8	797.6
858.5773	1088.426	1661.95	788.05
858.7223	1090.3925	1657.7	780.15
858.8673	1092.3584	1659.75	784.95
859.0123	1094.3235	1658	784.25
859.1573	1096.2879	1668.15	793.9
859.3022	1098.2515	1686	811.85
859.4472	1100.2145	1701.15	825.65
859.5922	1102.1767	1718.5	840.25
859.7371	1104.1382	1743.55	867.65
859.8821	1106.099	1782.15	904.9
860.027	1108.0591	1801.15	928.05
860.172	1110.0185	1825	948.65
860.3169	1111.9771	1855.5	982.65
860.4619	1113.9351	1883.7	1008.75
860.6068	1115.8923	1909.25	1036.05
860.7517	1117.8488	1922.4	1042.5
860.8967	1119.8045	1884.1	1010.5
861.0416	1121.7596	1828.6	953
861.1865	1123.7139	1773.05	898.4
861.3314	1125.6675	1733.45	859
861.4763	1127.6204	1732.3	856.75
861.6212	1129.5726	1738.1	862.45
861.7661	1131.524	1740.15	864.65
861.911	1133.4748	1721.2	843.8
862.0559	1135.4248	1671.45	795.15
862.2008	1137.3741	1648.2	771.8
862.3457	1139.3226	1632	753.95
862.4905	1141.2705	1627.7	755.1
862.6354	1143.2176	1630.55	748.25
862.7803	1145.164	1632.75	755.25
862.9251	1147.1097	1627.1	751.2
863.07	1149.0546	1618.15	739.8
863.2148	1150.9989	1603.7	728.2
863.3597	1152.9424	1584.75	706.75
863.5045	1154.8852	1570.1	695.2
863.6493	1156.8272	1565.75	689.75
863.7942	1158.7686	1579.85	696.3
863.939	1160.7092	1571.35	693.35
864.0838	1162.6491	1576.3	696.7
864.2286	1164.5883	1573.35	698.8
864.3734	1166.5267	1589.45	711.7
864.5182	1168.4644	1595.85	719.75
864.663	1170.4014	1622.3	741
864.8078	1172.3377	1638.25	761.85
864.9526	1174.2732	1668	792.75
865.0974	1176.2081	1732.9	856
865.2421	1178.1421	1798.3	917.9
865.3869	1180.0755	1864.05	986.65
865.5317	1182.0082	1889.85	1012.8
865.6764	1183.9401	1890.3	1014.85
865.8212	1185.8713	1814.25	937.3
865.9659	1187.8017	1737.6	859.1
866.1106	1189.7315	1673.6	797.3
866.2554	1191.6605	1652.05	745.15
866.4001	1193.5888	1608.6	731.5
866.5448	1195.5163	1578.65	699.85
866.6895	1197.4432	1575	695.45
866.8342	1199.3693	1556.5	678.05
866.9789	1201.2947	1559.25	675.65
867.1236	1203.2193	1540.2	661.85
867.2683	1205.1432	1538.5	660.75
867.413	1207.0664	1535.5	655.65
867.5576	1208.9889	1540.7	660.15
867.7023	1210.9106	1537.75	660.3
867.847	1212.8316	1536	658.65
867.9916	1214.7519	1545.6	657.3
868.1363	1216.6715	1541.7	665.55
868.2809	1218.5903	1554.05	676.35
868.4255	1220.5084	1563	684.95
868.5701	1222.4257	1565.3	686.95
868.7148	1224.3424	1567.95	690.7
868.8594	1226.2583	1591.6	708.7
869.004	1228.1735	1597.3	718.5
869.1486	1230.0879	1621.55	742.75
869.2932	1232.0016	1642.2	764.8
869.4377	1233.9146	1666.7	785.75
869.5823	1235.8269	1669	790.65
869.7269	1237.7384	1675.35	794.7
869.8715	1239.6492	1673.1	794.3
870.016	1241.5592	1690.35	810.4
870.1606	1243.4686	1711.7	833.4
870.3051	1245.3772	1747.7	869.9
870.4496	1247.285	1801.1	921.45
870.5941	1249.1922	1844.8	966.95
870.7387	1251.0986	1897.4	1019.15
870.8832	1253.0042	1929.45	1048.9
871.0277	1254.9092	1976.15	1097.05
871.1722	1256.8134	2027.65	1149.45
871.3167	1258.7169	2076.6	1197.1
871.4611	1260.6196	2087.85	1211.55
871.6056	1262.5216	2093.45	1212.75
871.7501	1264.4229	2067.45	1189.15
871.8945	1266.3234	2054	1174.95
872.039	1268.2232	2022.15	1142.25
872.1834	1270.1223	1997.05	1114.6
872.3278	1272.0207	1970.85	1090.6
872.4723	1273.9183	1965.25	1080.7
872.6167	1275.8151	1957.75	1077.5
872.7611	1277.7113	1996.4	1116.1
872.9055	1279.6067	2041.55	1163.7
873.0499	1281.5014	2125.45	1242.35
873.1943	1283.3953	2223.2	1341.15
873.3386	1285.2885	2330.2	1452.6
873.483	1287.181	2404.5	1524.2
873.6274	1289.0727	2424.75	1546.05
873.7717	1290.9637	2405.15	1525.45
873.9161	1292.854	2343.55	1465.6
874.0604	1294.7435	2280.1	1401.45
874.2047	1296.6323	2219.05	1337.7
874.349	1298.5204	2172.2	1289.35
874.4933	1300.4077	2124.1	1241.8
874.6376	1302.2943	2095.6	1214.7
874.7819	1304.1802	2079.25	1200.3
874.9262	1306.0653	2052.9	1169.75
875.0705	1307.9497	2035.45	1154.15
875.2147	1309.8333	2007.4	1126.35
875.359	1311.7162	1986.55	1106.85
875.5032	1313.5984	1976.15	1092.3
875.6475	1315.4798	1969.75	1078.6
875.7917	1317.3605	1955.65	1072.1
875.9359	1319.2405	1953.55	1071.1
876.0801	1321.1197	1946.05	1063.6
876.2243	1322.9982	1911.8	1026.9
876.3685	1324.876	1855.7	974.9
876.5127	1326.753	1801	919.6
876.6569	1328.6293	1747.4	865.9
876.801	1330.5048	1706.4	823.25
876.9452	1332.3796	1661.7	781
877.0893	1334.2537	1651.05	745.25
877.2335	1336.127	1608.2	727.5
877.3776	1337.9996	1582.9	702.75
877.5217	1339.8714	1575.6	695.35
877.6658	1341.7426	1616.15	688.5
877.8099	1343.6129	1557.95	678.2
877.954	1345.4826	1547	665.2
878.0981	1347.3515	1549.3	664.95
878.2422	1349.2196	1534.25	653.05
878.3862	1351.087	1526	645.65
878.5303	1352.9537	1527.15	644.95
878.6743	1354.8197	1529.7	648.95
878.8184	1356.6849	1535	654.6
878.9624	1358.5493	1543	663.05
879.1064	1360.4131	1555.4	675.25
879.2504	1362.276	1582.15	701.65
879.3944	1364.1383	1608.95	728.35
879.5384	1365.9998	1607.4	720.35
879.6823	1367.8606	1595.15	714.7
879.8263	1369.7206	1583.9	703.3
879.9702	1371.5799	1590.6	707.1
880.1142	1373.4384	1577.3	696.5
880.2581	1375.2962	1564.95	682.5
880.402	1377.1533	1530.4	651.65
880.5459	1379.0096	1504.35	621.6
880.6898	1380.8652	1474.5	592.85
880.8337	1382.7201	1465.95	584.25
880.9776	1384.5742	1453.5	572.9
881.1215	1386.4275	1443.3	562.15
881.2653	1388.2802	1425.5	544.15
881.4092	1390.132	1418.25	537.85
881.553	1391.9832	1416.05	534.15
881.6968	1393.8336	1410.05	529.05
881.8406	1395.6832	1400.85	518.15
881.9844	1397.5322	1400.9	519.2
882.1282	1399.3803	1395.75	509.2
882.272	1401.2278	1384.35	502.5
882.4158	1403.0745	1379.2	497.45
882.5595	1404.9204	1366.6	487.15
882.7033	1406.7656	1372.6	488.45
882.847	1408.6101	1367.95	487.8
882.9908	1410.4538	1366.35	483
883.1345	1412.2968	1365.4	484.2
883.2782	1414.139	1359.25	477.45
883.4219	1415.9805	1361.85	480.1
883.5656	1417.8213	1382.4	493.85
883.7092	1419.6613	1383.1	500.6
883.8529	1421.5006	1389.9	506.35
883.9965	1423.3391	1414.8	531
884.1402	1425.1769	1446.85	563.7
884.2838	1427.0139	1483.15	600.95
884.4274	1428.8502	1525.3	642.25
884.571	1430.6858	1571.9	690.65
884.7146	1432.5206	1587.85	707.2
884.8582	1434.3547	1584.55	703.8
885.0018	1436.188	1567.75	685.45
885.1453	1438.0206	1554.6	672.25
885.2889	1439.8524	1543.75	659.35
885.4324	1441.6835	1547.8	664.75
885.5759	1443.5139	1554.4	665.85
885.7194	1445.3435	1546.35	663.35
885.8629	1447.1724	1546	664.95
886.0064	1449.0005	1552.25	670.5
886.1499	1450.8279	1544.8	661.2
886.2933	1452.6545	1541.85	659.15
886.4368	1454.4804	1543.25	663.6
886.5802	1456.3056	1540.65	651.35
886.7237	1458.13	1521.55	638.45
886.8671	1459.9536	1504.35	622.15
887.0105	1461.7766	1490.3	608.8
887.1539	1463.5987	1461.45	577.65
887.2972	1465.4202	1437.15	553.05
887.4406	1467.2409	1413.85	531.75
887.584	1469.0608	1400	518.7
887.7273	1470.88	1383.15	499.85
887.8706	1472.6984	1370.3	487.25
888.0139	1474.5161	1364.8	479.35
888.1572	1476.3331	1340.6	457.8
888.3005	1478.1493	1344.9	459.85
888.4438	1479.9648	1341.45	459.2
888.5871	1481.7795	1332.05	449.35
888.7303	1483.5935	1328.1	445.4
888.8736	1485.4067	1333.8	451.35
889.0168	1487.2192	1333.35	451.85
889.16	1489.031	1333.45	449.25
889.3032	1490.842	1332.75	450.5
889.4464	1492.6522	1333.6	451.35
889.5896	1494.4618	1328.25	443.35
889.7327	1496.2705	1323.4	441.95
889.8759	1498.0785	1318.75	433.1
890.019	1499.8858	1320.4	436.4
890.1622	1501.6924	1311.7	429.8
890.3053	1503.4981	1311.6	429.5
890.4484	1505.3032	1304.25	421.85
890.5914	1507.1075	1298.85	415.55
890.7345	1508.911	1293	411.7
890.8776	1510.7138	1296.25	411.9
891.0206	1512.5159	1285.35	402.85
891.1637	1514.3172	1286.8	404.35
891.3067	1516.1178	1279.9	396.95
891.4497	1517.9176	1279.35	395.1
891.5927	1519.7166	1270.35	387.55
891.7357	1521.515	1269.95	381.55
891.8786	1523.3126	1267.5	384.75
892.0216	1525.1094	1266.5	381.85
892.1645	1526.9055	1254.1	372.25
892.3074	1528.7008	1259.3	378.15
892.4503	1530.4954	1260.1	371.3
892.5932	1532.2893	1250.3	369.85
892.7361	1534.0824	1252.85	364.2
892.879	1535.8747	1242.7	361.25
893.0218	1537.6663	1245.8	359.35
893.1647	1539.4572	1239.25	354.7
893.3075	1541.2473	1242.35	359.15
893.4503	1543.0367	1241.85	359.25
893.5931	1544.8253	1248.35	364.05
893.7359	1546.6132	1243.65	357.15
893.8787	1548.4003	1251.7	360.5
894.0214	1550.1867	1257.9	366.5
894.1642	1551.9723	1257.6	370.7
894.3069	1553.7572	1257.3	372.3
894.4496	1555.5414	1262.8	379.35
894.5923	1557.3247	1283.6	402.2
894.735	1559.1074	1297.1	414.25
894.8777	1560.8893	1314.9	432.7
895.0204	1562.6705	1338.8	454.95
895.163	1564.4509	1354	471
895.3056	1566.2305	1356.25	474.35
895.4482	1568.0094	1354.5	472.3
895.5908	1569.7876	1348.2	465.45
895.7334	1571.565	1347.3	464.35
895.876	1573.3417	1344.25	462.75
896.0186	1575.1176	1350.95	467.9
896.1611	1576.8928	1354.9	471.1
896.3036	1578.6672	1361.85	479.1
896.4461	1580.4409	1378.4	497.05
896.5886	1582.2138	1396.55	510.05
896.7311	1583.986	1414.05	532.15
896.8736	1585.7575	1436.1	556.4
897.0161	1587.5282	1441.5	561.85
897.1585	1589.2981	1463.9	580.7
897.3009	1591.0673	1472.25	589.85
897.4433	1592.8358	1469.45	585.5
897.5857	1594.6035	1471.15	585.85
897.7281	1596.3704	1462.15	579.15
897.8705	1598.1366	1453.5	572.95
898.0128	1599.9021	1436.1	553.15
898.1551	1601.6668	1425.95	539.7
898.2975	1603.4308	1414.45	530.75
898.4398	1605.194	1426.95	539.6
898.5821	1606.9564	1435.15	551.4
898.7243	1608.7182	1467.6	579.15
898.8666	1610.4791	1495.5	612.5
899.0088	1612.2394	1547.4	663.85
899.1511	1613.9988	1600.65	715.95
899.2933	1615.7576	1634.15	751.15
899.4355	1617.5156	1653.75	765.05
899.5776	1619.2728	1618.15	735.55
899.7198	1621.0293	1576.4	695.95
899.862	1622.785	1523.3	638.2
900.0041	1624.54	1458.15	572.25
900.1462	1626.2942	1400.55	515.15
900.2883	1628.0477	1357.55	469.9
900.4304	1629.8005	1314.9	428.95
900.5725	1631.5525	1271.1	387.9
900.7145	1633.3037	1254.85	370.85
900.8566	1635.0542	1231.6	348.9
900.9986	1636.804	1215.4	331.9
901.1406	1638.553	1270	322.8
901.2826	1640.3013	1192.5	309.85
901.4245	1642.0488	1183.35	299.95
901.5665	1643.7955	1177.75	295.35
901.7085	1645.5416	1170.15	286.95
901.8504	1647.2868	1161.1	276.5
901.9923	1649.0313	1153.4	269.2
902.1342	1650.7751	1160.45	274.85
902.2761	1652.5181	1147.8	264.2
902.4179	1654.2604	1155.7	269.25
902.5598	1656.0019	1156.05	273.25
902.7016	1657.7427	1155.55	271.25
902.8434	1659.4828	1174.6	293
902.9852	1661.222	1183.8	300.6
903.127	1662.9606	1194.9	311.55
903.2687	1664.6984	1208.3	324.35
903.4105	1666.4354	1210.15	325.9
903.5522	1668.1717	1199.4	316.6
903.6939	1669.9072	1178.05	296.1
903.8356	1671.642	1167.7	281.8
903.9773	1673.3761	1137	255.45
904.119	1675.1094	1126.8	242.5
904.2606	1676.8419	1116.75	233.75
904.4022	1678.5737	1105.2	222.65
904.5439	1680.3048	1102.3	219.2
904.6855	1682.0351	1102.2	220.85
904.827	1683.7646	1094.5	206.95
904.9686	1685.4934	1097.95	214.95
905.1101	1687.2215	1093.75	207.85
905.2517	1688.9488	1090.5	208.5
905.3932	1690.6754	1085.05	202.35
905.5347	1692.4012	1084.15	202.3
905.6761	1694.1263	1083.85	202.1
905.8176	1695.8506	1082.65	199.85
905.9591	1697.5742	1081.95	197.65
906.1005	1699.297	1081.1	198.5
906.2419	1701.0191	1075.55	192.9
906.3833	1702.7404	1074.05	191.75
906.5246	1704.461	1072.4	189.3
906.666	1706.1808	1072.15	189.15
906.8073	1707.8999	1072.3	186.15
906.9487	1709.6182	1072.4	190.7
907.09	1711.3358	1067.8	184.8
907.2313	1713.0527	1067.55	185.3
907.3725	1714.7688	1075.6	187.6
907.5138	1716.4841	1070.3	186.35
907.655	1718.1987	1068.25	179.65
907.7962	1719.9126	1067.75	183.7
907.9374	1721.6257	1064.4	178.9
908.0786	1723.338	1062.8	179.05
908.2198	1725.0496	1061.95	176.6
908.3609	1726.7605	1061.85	177.7
908.502	1728.4706	1061.1	177.5
908.6431	1730.18	1062.4	177.7
908.7842	1731.8886	1059.1	175.55
908.9253	1733.5964	1061.8	173.95
909.0664	1735.3036	1067.7	182.75
909.2074	1737.0099	1055.95	173.4
909.3484	1738.7156	1060.7	178.2
909.4894	1740.4204	1055.85	168.15
909.6304	1742.1246	1056.25	171.6
909.7714	1743.8279	1055.65	175.35
909.9123	1745.5306	1060.15	174.5
910.0532	1747.2325	1054.9	171.9
910.1941	1748.9336	1053	171.7
910.335	1750.634	1061.9	178.8
910.4759	1752.3336	1054.95	172.55
910.6168	1754.0325	1050.7	167.65
910.7576	1755.7307	1054.7	171.3
910.8984	1757.4281	1054.8	170.95
911.0392	1759.1247	1063.3	170.1
911.18	1760.8206	1056.4	168.65
911.3208	1762.5158	1056.25	169.25
911.4615	1764.2102	1051.4	168.8
911.6022	1765.9039	1051.65	168.75
911.7429	1767.5968	1049.9	165.75
911.8836	1769.289	1051.45	167.6
912.0243	1770.9804	1050.4	167.35
912.1649	1772.6711	1051.05	167
912.3056	1774.361	1055.5	171.75
912.4462	1776.0502	1050.3	168
912.5868	1777.7386	1050.4	163.95
912.7274	1779.4263	1048.55	163
912.8679	1781.1132	1047.85	162.2
913.0084	1782.7994	1052.2	167.35
913.149	1784.4849	1047.15	163.85
913.2895	1786.1696	1066.2	163.3
913.4299	1787.8535	1045.45	163.7
913.5704	1789.5367	1045.55	157.85
913.7108	1791.2192	1045.35	161.65
913.8513	1792.9009	1060.45	161.8
913.9917	1794.5818	1045.35	163.3
914.132	1796.2621	1039.75	158.7
914.2724	1797.9415	1038.7	154.8
914.4128	1799.6202	1042.9	160
914.5531	1801.2982	1044.2	162.4
914.6934	1802.9755	1040.3	156.25
914.8337	1804.6519	1036.5	153.35
914.9739	1806.3277	1037.5	154.25
915.1142	1808.0027	1040.7	156.8
915.2544	1809.6769	1040.55	157.35
915.3946	1811.3504	1041.45	156.45
915.5348	1813.0231	1034.2	148.15
915.675	1814.6951	1036.1	151.25
915.8151	1816.3664	1038.7	153.05
915.9553	1818.0369	1034.4	149.85
916.0954	1819.7067	1033.3	150.15
916.2355	1821.3757	1037.25	150.4
916.3755	1823.044	1035	151.4
916.5156	1824.7115	1036.05	153.05
916.6556	1826.3783	1032.75	151.3
916.7956	1828.0443	1032.75	148.4
916.9356	1829.7096	1035.55	151.2
917.0756	1831.3741	1035.85	150.05
917.2155	1833.0379	1032.65	150.95
917.3555	1834.701	1030.2	144.2
917.4954	1836.3633	1030.8	145.4
917.6353	1838.0248	1035.05	149.85
917.7751	1839.6856	1029.8	144
917.915	1841.3457	1029.25	147.4
918.0548	1843.005	1031.6	145.4
918.1946	1844.6636	1028.6	147.15
918.3344	1846.3214	1028.9	146.15
918.4742	1847.9785	1031.25	147.65
918.6139	1849.6349	1029.4	144.75
918.7537	1851.2904	1038.65	145.75
918.8934	1852.9453	1027.5	144.7
919.0331	1854.5994	1023.4	137.85
919.1727	1856.2528	1030.75	142
919.3124	1857.9054	1027.55	143.4
919.452	1859.5572	1032.5	148.25
919.5916	1861.2083	1027.4	143.5
919.7312	1862.8587	1026.4	143.45
919.8708	1864.5084	1025.3	140.55
920.0103	1866.1572	1022.1	141.85
920.1498	1867.8054	1021.05	137.45
920.2893	1869.4528	1024.65	142.7
920.4288	1871.0994	1022.7	138.1
920.5683	1872.7453	1021.9	136.9
920.7077	1874.3905	1039.7	139.15
920.8471	1876.0349	1022.9	138.95
920.9865	1877.6786	1026.75	141.65
921.1259	1879.3215	1020.65	138.05
921.2653	1880.9637	1022.2	135.55
921.4046	1882.6051	1021.1	138.85
921.5439	1884.2458	1021.5	134.4
921.6832	1885.8858	1019.8	135.55
921.8225	1887.525	1023.3	138.85
921.9617	1889.1634	1021.2	138.15
922.101	1890.8011	1022.8	140.15
922.2402	1892.4381	1020.1	137.6
922.3794	1894.0743	1018.7	137.1
922.5185	1895.7098	1018.4	134.55
922.6577	1897.3446	1021.85	136.95
922.7968	1898.9786	1021.85	133.95
922.9359	1900.6118	1014.95	134.95
923.075	1902.2443	1022.4	137
923.214	1903.8761	1014.45	133
923.3531	1905.5071	1016.45	131.55
923.4921	1907.1374	1016.6	133.2
923.6311	1908.7669	1015.15	131.85
923.77	1910.3957	1015.25	130.75
923.909	1912.0237	1018.55	134.65
924.0479	1913.651	1014.15	130.45
924.1868	1915.2776	1009	125.5
924.3257	1916.9034	1008.5	125.6
924.4646	1918.5285	1011.95	129.3
924.6034	1920.1528	1014	130
924.7422	1921.7764	1011.95	128.95
924.881	1923.3992	1010.05	127.7
925.0198	1925.0213	1009.75	125.8
925.1586	1926.6427	1008.4	126.75
925.2973	1928.2633	1120.3	128.45
925.436	1929.8832	1008.65	123.4
925.5747	1931.5023	1011.7	129.5
925.7134	1933.1207	1005.8	120.9
925.852	1934.7383	1005.95	121.7
925.9906	1936.3552	1005.75	122.45
926.1292	1937.9714	1008.9	124.75
926.2678	1939.5868	1012.1	127.5
926.4064	1941.2015	1007.55	124.35
926.5449	1942.8154	1008	123.15
926.6834	1944.4286	1006.8	123.2
926.8219	1946.041	1027.75	121.3
926.9604	1947.6528	1006.2	117.4
927.0988	1949.2637	1006.8	124.6
927.2372	1950.8739	1004.35	119.7
927.3756	1952.4834	1008.75	125.25
927.514	1954.0921	1006.7	121.35
927.6523	1955.7001	1009.1	120.7
927.7907	1957.3074	1006.7	123.8
927.929	1958.9139	1004.3	121.8
928.0673	1960.5197	1008.4	123.6
928.2055	1962.1247	1006.05	122.7
928.3438	1963.729	1001.55	118.35
928.482	1965.3325	1026.95	119.35
928.6202	1966.9353	1000.95	116.2
928.7584	1968.5374	1003	117.25
928.8965	1970.1387	1004.5	119.85
929.0346	1971.7393	1005.2	119.55
929.1727	1973.3392	1000.4	116.35
929.3108	1974.9383	1000.85	117.2
929.4489	1976.5366	998.05	114.25
929.5869	1978.1342	1002.75	118.25
929.7249	1979.7311	1001.85	116.05
929.8629	1981.3273	1003.45	120.5
930.0009	1982.9227	1002.35	115.95
930.1388	1984.5173	1000.75	116.3
930.2767	1986.1112	999.3	116.9
930.4146	1987.7044	997.6	113.7
930.5525	1989.2968	1000.7	114.8
930.6904	1990.8885	1000.65	114
930.8282	1992.4795	1001.7	115.35
930.966	1994.0697	1000.2	115.8
931.1038	1995.6592	998.9	114.65
931.2415	1997.2479	999.85	116.9
931.3793	1998.8359	996.65	113.4
931.517	2000.4232	997.6	113.5
931.6547	2002.0097	996.05	112.2
931.7923	2003.5955	996.6	110
931.93	2005.1805	1002.65	116.6
932.0676	2006.7648	998.15	113.25
932.2052	2008.3484	998.05	111.65
932.3427	2009.9312	999.95	113.6
932.4803	2011.5133	996.8	113.9
932.6178	2013.0946	997.35	112.65
932.7553	2014.6752	993.45	110.95
932.8928	2016.2551	997.2	112.95
933.0302	2017.8342	996.2	113.4
933.1676	2019.4126	995.3	111.45
933.305	2020.9902	994.95	111.65
933.4424	2022.5672	996	111.5
933.5798	2024.1433	1000.25	111.75
933.7171	2025.7188	997.1	114.25
933.8544	2027.2935	997.15	111.05
933.9917	2028.8674	995.65	111.55
934.129	2030.4406	991.4	110
934.2662	2032.0131	989.2	105.1
934.4034	2033.5849	1001	110.5
934.5406	2035.1559	992.85	108.55
934.6778	2036.7261	993.55	109.55
934.8149	2038.2957	992.9	108.15
934.952	2039.8645	992.85	108.8
935.0891	2041.4325	997.45	112.1
935.2262	2042.9998	988.25	105
935.3632	2044.5664	995.05	108.75
935.5002	2046.1323	995.55	111.7
935.6372	2047.6974	993.55	109.85
935.7742	2049.2617	991.1	106.5
935.9111	2050.8254	1026.05	106.9
936.048	2052.3883	996.1	110.7
936.1849	2053.9504	992.95	109.65
936.3218	2055.5118	990.95	107.05
936.4586	2057.0725	996.45	110.3
936.5955	2058.6325	992.85	108.15
936.7323	2060.1917	993.05	107.9
936.869	2061.7502	997.55	113.4
937.0058	2063.3079	992.2	107.3
937.1425	2064.8649	995.85	109.6
937.2792	2066.4212	994.55	109.3
937.4159	2067.9767	993.7	110.1
937.5525	2069.5315	993.55	111.8
937.6891	2071.0856	991.7	106.95
937.8257	2072.6389	993.9	110.1
937.9623	2074.1915	990.7	108.35
938.0989	2075.7433	990	101.1
938.2354	2077.2945	992	109.3
938.3719	2078.8448	988.55	103.35
938.5084	2080.3945	986.6	102.65
938.6448	2081.9434	988.35	103.65
938.7812	2083.4916	988.2	104.05
938.9176	2085.039	994.35	108.4
939.054	2086.5857	989.15	105.05
939.1903	2088.1317	990.4	107.2
939.3267	2089.677	993.05	106.7
939.463	2091.2215	988.15	106.3
939.5992	2092.7652	990.7	105
939.7355	2094.3083	992.1	108.55
939.8717	2095.8506	990.95	106.05
940.0079	2097.3921	990.8	108.45
940.1441	2098.933	987.85	103.35
940.2802	2100.4731	989.5	107.8
940.4163	2102.0124	1008.7	108.5
940.5524	2103.5511	992.35	108.3
940.6885	2105.089	989.55	103.9
940.8245	2106.6261	989.05	105.55
940.9606	2108.1626	992.05	106.15
941.0965	2109.6983	1018.5	104.05
941.2325	2111.2332	989.6	104.65
941.3684	2112.7675	989.8	104.75
941.5044	2114.301	991.05	105.35
941.6403	2115.8337	989.2	106.95
941.7761	2117.3657	989.55	107.8
941.912	2118.897	992.55	108.5
942.0478	2120.4276	997.1	109.1
942.1835	2121.9575	991.8	106.7
942.3193	2123.4866	1002.35	106.7
942.455	2125.0149	991.7	106.1
942.5907	2126.5426	986.65	102.7
942.7264	2128.0695	991.8	103.2
942.8621	2129.5956	986.4	103.2
942.9977	2131.1211	991.35	104.25
943.1333	2132.6458	985.7	102.95
943.2689	2134.1698	987.35	103.35
943.4044	2135.693	990.3	103.95
943.54	2137.2155	989.4	102.1
943.6755	2138.7373	988.55	104.2
943.8109	2140.2584	990.15	106.6
943.9464	2141.7787	995.35	104.45
944.0818	2143.2983	984.55	101.1
944.2172	2144.8171	986.55	103.4
944.3526	2146.3353	989.55	104.95
944.4879	2147.8527	984.9	102.2
944.6232	2149.3693	988.9	105.45
944.7585	2150.8853	990.85	105.95
944.8938	2152.4005	983.25	99.85
945.029	2153.9149	987.25	102.55
945.1642	2155.4287	985.4	101.9
945.2994	2156.9417	985.8	100
945.4346	2158.454	991.2	106.35
945.5697	2159.9655	986.95	102.75
945.7048	2161.4764	987.55	103.4
945.8399	2162.9865	988.05	103.75
945.9749	2164.4958	988.15	102.9
946.1099	2166.0045	989.05	103.7
946.2449	2167.5124	985.45	101.75
946.3799	2169.0195	985.95	103.55
946.5148	2170.526	984.35	101.3
946.6498	2172.0317	987	103.25
946.7846	2173.5367	984.6	99.95
946.9195	2175.0409	982.9	100.4
947.0543	2176.5445	983.85	102.5
947.1891	2178.0473	983.6	99.5
947.3239	2179.5494	987	99.05
947.4587	2181.0507	986.05	100.75
947.5934	2182.5513	985.4	100.9
947.7281	2184.0512	986.1	101.1
947.8628	2185.5504	984.4	100.75
947.9974	2187.0488	982.4	97.05
948.132	2188.5465	982.9	98.5
948.2666	2190.0435	984.5	99.55
948.4012	2191.5397	983.2	99.05
948.5357	2193.0353	982.8	98.55
948.6702	2194.5301	979.2	94.1
948.8047	2196.0241	983.8	100.05
948.9392	2197.5175	981.7	98.7
949.0736	2199.0101	983.65	96.4
949.208	2200.502	978.65	95.05
949.3424	2201.9931	978.15	92.6
949.4767	2203.4835	981.9	96
949.611	2204.9733	984.55	92.6
949.7453	2206.4622	979.7	96.95
949.8796	2207.9505	983.1	95.75
950.0138	2209.438	980	96.55
950.148	2210.9248	981.5	95.55
950.2822	2212.4109	980.9	99.25
950.4164	2213.8962	979.35	94.45
950.5505	2215.3809	979.2	93.5
950.6846	2216.8648	979.35	94.5
950.8186	2218.3479	983	94.8
950.9527	2219.8304	979.35	92.75
951.0867	2221.3121	981.1	95.9
951.2207	2222.7931	980.4	97.1
951.3546	2224.2733	978.6	95.2
951.4886	2225.7529	978.75	95.15
951.6225	2227.2317	978.65	91.8
951.7563	2228.7098	977.05	94.45
951.8902	2230.1872	979.7	93.7
952.024	2231.6638	974.55	90.5
952.1578	2233.1397	979.8	90.55
952.2916	2234.6149	975.3	91.05
952.4253	2236.0894	973.5	87.05
952.559	2237.5632	985.05	92
952.6927	2239.0362	978.2	93.6
952.8263	2240.5085	976	90.3
952.9599	2241.9801	976.1	90.5
953.0935	2243.4509	975.15	91.85
953.2271	2244.921	972.55	88.9
953.3606	2246.3904	974.1	89.6
953.4941	2247.8591	973.95	90.45
953.6276	2249.3271	971.4	88.4
953.7611	2250.7943	971.55	86.85
953.8945	2252.2608	970.6	88.35
954.0279	2253.7266	971.2	88.8
954.1612	2255.1917	973.65	89.5
954.2946	2256.656	977.5	93
954.4279	2258.1197	971.5	87.5
954.5612	2259.5826	973.5	87.9
954.6944	2261.0447	975.1	91.9
954.8276	2262.5062	972.35	87.65
954.9608	2263.9669	970	83.15
955.094	2265.4269	969.3	84.65
955.2271	2266.8862	969.2	85.75
955.3602	2268.3448	971.45	84.95
955.4933	2269.8026	971.25	87.1
955.6264	2271.2598	971.1	87.35
955.7594	2272.7162	971.95	88.95
955.8924	2274.1719	966.75	83.6
956.0253	2275.6268	967.5	83.95
956.1583	2277.0811	966.25	82.4
956.2912	2278.5346	971.3	87.95
956.4241	2279.9874	968.75	85.95
956.5569	2281.4395	964.5	81.2
956.6897	2282.8908	972.55	85.3
956.8225	2284.3414	968.85	82.5
956.9553	2285.7914	969.15	86.9
957.088	2287.2406	969.55	82.75
957.2207	2288.689	966.2	82.95
957.3534	2290.1368	968.75	84.9
957.486	2291.5838	967.6	83.15
957.6186	2293.0302	970.5	85.05
957.7512	2294.4758	967.55	85
957.8838	2295.9206	968.25	82.7
958.0163	2297.3648	967.75	84.7
958.1488	2298.8082	966.15	79.85
958.2813	2300.251	966.25	83.6
958.4137	2301.693	967.35	81
958.5461	2303.1343	966.6	82.15
958.6785	2304.5748	968	85
958.8108	2306.0147	968.7	84.6
958.9432	2307.4538	971.1	84.95
959.0754	2308.8922	961.25	79.7
959.2077	2310.3299	968.6	85.2
959.3399	2311.7669	963.3	80.85
959.4721	2313.2031	962.3	76.6
959.6043	2314.6387	964.95	81.35
959.7365	2316.0735	962.55	78.15
959.8686	2317.5076	964.1	80.95
960.0006	2318.941	965.7	81.55
960.1327	2320.3737	966.4	83.05
960.2647	2321.8056	963.05	76.3
960.3967	2323.2369	964.9	80.95
960.5287	2324.6674	970.7	85.05
960.6606	2326.0972	975.1	90.65
960.7925	2327.5263	970.35	86.75
960.9244	2328.9547	973.15	87.85
961.0562	2330.3823	970	86.2
961.1881	2331.8092	970.05	83.8
961.3198	2333.2355	963.8	82.7
961.4516	2334.661	963.45	77.2
961.5833	2336.0858	963.65	77.5
961.715	2337.5098	958.4	75.8
961.8467	2338.9332	962.5	76.1
961.9783	2340.3558	965.4	78.3
962.1099	2341.7778	962.5	77.05
962.2415	2343.199	963.4	77.95
962.373	2344.6195	963.15	79.65
962.5045	2346.0393	958.4	72.45
962.636	2347.4583	964.15	79.4
962.7675	2348.8767	962.3	75.45
962.8989	2350.2943	961.75	78
963.0303	2351.7113	959.6	75.75
963.1617	2353.1275	957.05	73.4
963.293	2354.543	970.75	76.5
963.4243	2355.9578	962.2	78.3
963.5556	2357.3718	957.05	74.2
963.6868	2358.7852	960.9	74.25
963.818	2360.1978	960.45	75.65
963.9492	2361.6098	959.15	75.1
964.0803	2363.021	958.45	71.7
964.2114	2364.4315	955.8	73.05
964.3425	2365.8413	959.75	75.4
964.4736	2367.2504	957.7	73.1
964.6046	2368.6587	959.65	76.8
964.7356	2370.0664	956.35	73.05
964.8666	2371.4733	955.4	72.75
964.9975	2372.8795	956.25	72.9
965.1284	2374.285	953.95	70.6
965.2593	2375.6899	955.7	73.65
965.3901	2377.0939	957.95	73.8
965.5209	2378.4973	957	73.05
965.6517	2379.9	959.15	75.5
965.7825	2381.3019	955.25	71.3
965.9132	2382.7032	954.55	72.5
966.0439	2384.1037	953.8	71.4
966.1745	2385.5035	955.95	72.1
966.3051	2386.9027	953.85	73.3
966.4357	2388.3011	956	67.7
966.5663	2389.6987	955.15	71.1
966.6968	2391.0957	950.4	66.3
966.8273	2392.492	952.65	70.05
966.9578	2393.8876	953.4	70.25
967.0882	2395.2824	951.4	66.7
967.2186	2396.6765	950.3	66.65
967.349	2398.07	952.25	69.65
967.4793	2399.4627	952	66.5
967.6097	2400.8547	950.65	66.15
967.7399	2402.246	956.75	65.65
967.8702	2403.6366	950.55	66.15
968.0004	2405.0265	950.3	65.45
968.1306	2406.4156	953.15	61.3
968.2607	2407.8041	952.55	65.5
968.3909	2409.1918	954.2	66.55
968.521	2410.5789	952.9	69.65
968.651	2411.9652	954.85	68.85
968.781	2413.3508	951.65	68.5
968.911	2414.7358	949	63.05
969.041	2416.12	948.05	65.15
969.1709	2417.5035	947.1	63.65
969.3008	2418.8863	948.25	63.25
969.4307	2420.2684	947.75	61.95
969.5606	2421.6497	948.6	64.45
969.6904	2423.0304	948.9	64.85
969.8201	2424.4104	947.45	61.2
969.9499	2425.7896	956	67.2
970.0796	2427.1682	949.4	64.05
970.2093	2428.546	948.6	63.25
970.3389	2429.9232	945.5	59.4
970.4685	2431.2996	945.6	63.2
970.5981	2432.6753	948.55	67.35
970.7277	2434.0503	944.5	61.05
970.8572	2435.4246	946	64.05
970.9867	2436.7982	949.1	62.2
971.1161	2438.1711	942.9	59.55
971.2456	2439.5433	944.65	60.5
971.375	2440.9148	947.1	57
971.5043	2442.2856	946	61.35
971.6336	2443.6557	950.05	65.3
971.7629	2445.025	943.4	59.7
971.8922	2446.3937	947.35	64.15
972.0214	2447.7617	944.55	60.75
972.1506	2449.1289	945.25	62.05
972.2798	2450.4955	950.05	60.55
972.4089	2451.8613	943.3	61.15
972.538	2453.2265	945	61
972.6671	2454.5909	946	61
972.7961	2455.9546	944.9	59.8
972.9251	2457.3177	944	62.35
973.0541	2458.68	946.8	60.8
973.1831	2460.0416	942.9	59.5
973.312	2461.4025	942.85	59.6
973.4408	2462.7627	953.85	58.55
973.5697	2464.1222	944.85	62.3
973.6985	2465.4811	945.05	58.55
973.8273	2466.8392	940.6	55.4
973.956	2468.1966	945.65	57.7
974.0847	2469.5533	946.45	59.7
974.2134	2470.9093	943.9	57.35
974.3421	2472.2645	943.75	57.65
974.4707	2473.6191	942.35	58
974.5993	2474.973	940.95	57.5
974.7278	2476.3262	942.2	56.8
974.8563	2477.6787	941.55	58.55
974.9848	2479.0305	940.55	57.35
975.1132	2480.3816	944.7	58.8
975.2417	2481.7319	942.25	56.3
975.37	2483.0816	943.65	58.85
975.4984	2484.4306	943.85	59.1
975.6267	2485.7789	943.15	60.35
975.755	2487.1264	941.15	55.45
975.8833	2488.4733	940.15	56.8
976.0115	2489.8195	956.45	53.9
976.1397	2491.165	945.15	57.5
976.2678	2492.5097	940	55.75
976.3959	2493.8538	939.4	53.75
976.524	2495.1972	941.15	57.15
976.6521	2496.5398	942.75	58
976.7801	2497.8818	942.4	55.95
976.9081	2499.2231	940.3	57.75
977.036	2500.5637	940.25	55.35
977.164	2501.9035	938.4	53.85
977.2918	2503.2427	943.75	55.55
977.4197	2504.5812	937.7	53.8
977.5475	2505.919	938.15	50.75
977.6753	2507.256	936.15	51.55
977.8031	2508.5924	937.45	53.5
977.9308	2509.9281	944.55	53.95
978.0585	2511.2631	938.3	54.95
978.1861	2512.5974	937.7	54.2
978.3137	2513.9309	936.1	50.85
978.4413	2515.2638	960.4	49.4
978.5689	2516.596	934.4	50.5
978.6964	2517.9275	936.4	51.05
978.8239	2519.2583	935.75	53
978.9513	2520.5884	939.8	53.9
979.0788	2521.9178	937.4	52.3
979.2062	2523.2465	937.45	54.45
979.3335	2524.5745	936.65	50.25
979.4608	2525.9018	932.45	48.95
979.5881	2527.2284	932.3	50.3
979.7154	2528.5543	934	51.5
979.8426	2529.8796	934.75	51.95
979.9698	2531.2041	934.55	52.4
980.0969	2532.5279	934.7	51.55
980.224	2533.851	934.95	50.85
980.3511	2535.1735	935.25	53.25
980.4781	2536.4952	932.65	47.9
980.6052	2537.8163	936.9	52.6
980.7321	2539.1366	930.65	44.85
980.8591	2540.4562	936.1	50.35
980.986	2541.7752	931.9	49.35
981.1129	2543.0935	934.4	50.8
981.2397	2544.411	933.3	48.4
981.3665	2545.7279	932.85	47.7
981.4933	2547.0441	932.8	50.55
981.62	2548.3596	937.25	50.8
981.7467	2549.6744	930.9	47.6
981.8734	2550.9885	937.35	52.2
982.0001	2552.3019	932.8	50.65
982.1267	2553.6146	933.05	49.2
982.2532	2554.9266	935.1	51.8
982.3798	2556.2379	930.1	43.05
982.5063	2557.5485	931.5	48.3
982.6327	2558.8585	939.05	46.6
982.7592	2560.1677	934.2	45.25
982.8856	2561.4762	931.95	48.5
983.0119	2562.7841	934	44.8
983.1383	2564.0913	931.65	48.8
983.2646	2565.3977	932.4	48.85
983.3908	2566.7035	928.25	44.4
983.517	2568.0086	932.45	50.5
983.6432	2569.313	930.6	46.4
983.7694	2570.6167	937.3	50.05
983.8955	2571.9197	933.05	49.25
984.0216	2573.222	935.4	47.9
984.1476	2574.5236	931.15	47
984.2737	2575.8246	932.55	48.1
984.3996	2577.1248	933.6	46.15
984.5256	2578.4244	927.65	44.4
984.6515	2579.7232	931.25	47.55
984.7774	2581.0214	959.65	47.6
984.9032	2582.3189	928.65	45.1
985.029	2583.6157	934.55	46.7
985.1548	2584.9118	929.9	47
985.2806	2586.2072	928.65	44.7
985.4063	2587.5019	930.25	47.6
985.5319	2588.7959	930.55	45.3
985.6576	2590.0893	931.85	46.55
985.7832	2591.3819	928.75	45.8
985.9087	2592.6739	923.7	41.25
986.0343	2593.9652	928.7	43.1
986.1597	2595.2557	927.45	43.75
986.2852	2596.5456	933	46.8
986.4106	2597.8348	929.05	46.4
986.536	2599.1234	929.8	45.3
986.6614	2600.4112	930.8	47.6
986.7867	2601.6983	933.1	46.3
986.912	2602.9848	927.2	43.9
987.0372	2604.2705	936.7	43.65
987.1624	2605.5556	930.6	48.75
987.2876	2606.84	928.85	44.5
987.4128	2608.1237	928.3	44.8
987.5379	2609.4067	926.75	40.45
987.6629	2610.689	937.55	45.4
987.788	2611.9707	930.55	43
987.913	2613.2516	934.2	44.45
988.0379	2614.5319	925.6	41
988.1629	2615.8115	928.8	44.9
988.2878	2617.0903	928	43.95
988.4126	2618.3685	925.4	41.95
988.5375	2619.6461	929	46.75
988.6622	2620.9229	927.55	44.35
988.787	2622.199	925.95	41
988.9117	2623.4745	927.9	45.1
989.0364	2624.7493	923	39.4
989.161	2626.0234	924.2	40.5
989.2857	2627.2968	923.95	38.1
989.4102	2628.5695	925.15	40.45
989.5348	2629.8415	926.15	42.6
989.6593	2631.1128	926.15	38.85
989.7837	2632.3835	924.45	39.95
989.9082	2633.6535	926.75	42.7
990.0326	2634.9228	922.8	39
990.1569	2636.1914	926.35	43.95
990.2812	2637.4593	929.7	37.75
990.4055	2638.7265	923.3	40.5
990.5298	2639.9931	924.95	40.6
990.654	2641.259	925.4	41.35
990.7782	2642.5242	923.2	40.45
990.9023	2643.7887	923.4	39.7
991.0264	2645.0525	921.7	36.9
991.1505	2646.3156	926.1	41.95
991.2745	2647.5781	922.75	39.45
991.3985	2648.8398	923.15	41.75
991.5225	2650.1009	957.15	35.7
991.6464	2651.3613	919.95	37.3
991.7703	2652.6211	922.4	36
991.8942	2653.8801	920.85	37.45
992.018	2655.1385	925.25	36.85
992.1418	2656.3961	922.9	39.75
992.2655	2657.6531	921	37.55
992.3892	2658.9094	922.55	36.8
992.5129	2660.1651	920.75	37.25
992.6366	2661.42	924.45	39.7
992.7602	2662.6743	921.6	37.8
992.8837	2663.9279	917.45	34.4
993.0073	2665.1808	921.35	35.85
993.1307	2666.433	922.8	36.35
993.2542	2667.6846	923.05	39.45
993.3776	2668.9354	925.5	38.45
993.501	2670.1856	919.55	32.8
993.6244	2671.4351	922.3	39.8
993.7477	2672.6839	921.8	33.65
993.8709	2673.9321	921.65	39.65
993.9942	2675.1795	919.25	33.85
994.1174	2676.4263	919.1	34.55
994.2405	2677.6724	922.85	41.85
994.3637	2678.9179	923.2	39.3
994.4868	2680.1626	919.25	36.5
994.6098	2681.4067	920.4	35.15
994.7328	2682.6501	922.15	37.95
994.8558	2683.8928	919.95	34.45
994.9788	2685.1348	920.35	37.45
995.1017	2686.3761	920.1	37.95
995.2245	2687.6168	919.95	38.95
995.3474	2688.8568	919.2	35
995.4702	2690.0961	916.4	33.5
995.5929	2691.3348	918.5	35.25
995.7156	2692.5727	916.4	32.05
995.8383	2693.81	914.6	31.25
995.961	2695.0466	915.75	33.85
996.0836	2696.2826	921	35.8
996.2062	2697.5178	937.1	34.05
996.3287	2698.7524	918.85	36.15
996.4512	2699.9863	922.6	37.2
996.5737	2701.2195	918.2	36.2
996.6961	2702.452	920.7	35
996.8185	2703.6839	920.25	32.7
996.9408	2704.9151	917.2	35.3
997.0631	2706.1456	919.55	34.5
997.1854	2707.3755	917.6	34.5
997.3077	2708.6046	921.9	34.9
997.4299	2709.8331	923.45	40.5
997.552	2711.0609	917.2	31.3
997.6742	2712.2881	919.6	37.55
997.7963	2713.5145	921.45	35
997.9183	2714.7403	917.65	33.85
998.0403	2715.9654	920.15	33.7
998.1623	2717.1899	935.25	36.65
998.2842	2718.4136	919.75	35.7
998.4062	2719.6367	919.3	36.25
998.528	2720.8591	926.35	36.25
998.6498	2722.0809	923.9	41.65
998.7716	2723.3019	926.35	41
998.8934	2724.5223	922.75	38.65
999.0151	2725.7421	923.7	38.05
999.1368	2726.9611	921.65	37.3
999.2584	2728.1795	929.65	41.7
999.38	2729.3972	922.85	39.45
999.5016	2730.6142	934.2	38.3
999.6231	2731.8306	922.65	38.65
999.7446	2733.0462	921.8	37.4
999.8661	2734.2612	922.4	33.1
999.9875	2735.4756	919.5	34.65
1000.1089	2736.6892	918.6	32.1
1000.2302	2737.9022	917.35	33.65
1000.3515	2739.1145	917	33.75
1000.4728	2740.3262	926.35	34.95
1000.594	2741.5372	915.3	32.05
1000.7152	2742.7475	917.85	35.2
1000.8363	2743.9571	916.8	32.55
1000.9575	2745.1661	919.65	30.7
1001.0785	2746.3744	914.45	28.75
1001.1996	2747.582	912.95	29.65
1001.3206	2748.7889	919.15	33.6
1001.4415	2749.9952	914.25	30.35
1001.5625	2751.2008	914.95	31.1
1001.6833	2752.4057	917.55	30.7
1001.8042	2753.61	914	28
1001.925	2754.8136	915.95	30
1002.0458	2756.0165	913.35	30.15
1002.1665	2757.2188	909.95	24.95
1002.2872	2758.4204	915	30.2
1002.4078	2759.6213	913.1	25.9
1002.5285	2760.8215	916.25	24.25
1002.649	2762.0211	914.65	29.55
1002.7696	2763.22	914.85	26.85
1002.8901	2764.4182	914.2	29
1003.0106	2765.6158	911.65	27.55
1003.131	2766.8127	911.5	26.8
1003.2514	2768.009	913.25	29.95
1003.3717	2769.2045	913.15	28.9
1003.492	2770.3994	912.4	26.05
1003.6123	2771.5936	912.8	27.5
1003.7325	2772.7872	912.3	28.35
1003.8527	2773.9801	914	28.55
1003.9729	2775.1723	927.8	28.75
1004.093	2776.3639	911.75	30
1004.2131	2777.5548	911.75	23.95
1004.3331	2778.745	911.1	25.1
1004.4531	2779.9346	910.7	27.8
1004.5731	2781.1235	914	28.55
1004.693	2782.3117	910.25	25.7
1004.8129	2783.4992	909.55	25.8
1004.9328	2784.6861	910.4	26.55
1005.0526	2785.8723	911.9	26.8
1005.1723	2787.0579	912.45	27.05
1005.2921	2788.2428	907.7	21.85
1005.4118	2789.427	909.95	26.1
1005.5314	2790.6106	910.5	26.25
1005.651	2791.7935	909.65	25.3
1005.7706	2792.9757	908.2	25.2
1005.8902	2794.1573	910.45	23.4
1006.0097	2795.3382	911.75	28.75
1006.1291	2796.5184	907.65	25
1006.2485	2797.698	915.4	30.2
1006.3679	2798.8769	906.55	21.7
1006.4873	2800.0551	911.2	26.85
1006.6066	2801.2327	912.7	26
1006.7258	2802.4096	911.3	29.75
1006.8451	2803.5859	911.7	27.8
1006.9642	2804.7615	913.45	27.45
1007.0834	2805.9364	911.65	28.85
1007.2025	2807.1106	911.7	28.15
1007.3216	2808.2842	911.75	27.7
1007.4406	2809.4572	914.1	30.55
1007.5596	2810.6294	915.15	30.45
1007.6785	2811.801	910.9	29.15
1007.7975	2812.972	912.1	27.65
1007.9163	2814.1423	914.2	30.65
1008.0352	2815.3119	916.75	30.1
1008.154	2816.4808	916.45	34.5
1008.2727	2817.6491	918.7	35.5
1008.3914	2818.8167	920.55	36.75
1008.5101	2819.9837	927.75	39.5
1008.6288	2821.15	924.7	41.65
1008.7474	2822.3157	924.95	40.95
1008.8659	2823.4807	932.85	48.3
1008.9844	2824.645	937	51.95
1009.1029	2825.8086	937.4	55.35
1009.2214	2826.9716	941.25	56.25
1009.3398	2828.134	942.75	60.9
1009.4581	2829.2957	951.15	68.45
1009.5764	2830.4567	952.45	71.25
1009.6947	2831.617	953.4	69.45
1009.813	2832.7767	954.7	72.6
1009.9312	2833.9358	957.75	76
1010.0493	2835.0941	954.45	69.05
1010.1675	2836.2519	951.3	69.1
1010.2855	2837.4089	949.3	65
1010.4036	2838.5653	948.1	64.95
1010.5216	2839.7211	944.4	60.8
1010.6396	2840.8761	945.85	58.95
1010.7575	2842.0306	943.4	60.55
1010.8754	2843.1843	945.45	61.85
1010.9932	2844.3374	945.8	63.3
1011.111	2845.4899	948.25	64.35
1011.2288	2846.6417	943.75	62.15
1011.3465	2847.7928	949.35	65.5
1011.4642	2848.9433	947.5	64.55
1011.5818	2850.0931	949.15	65.65
1011.6995	2851.2422	951.55	64.85
1011.817	2852.3907	950.9	66.3
1011.9345	2853.5385	952.9	67.4
1012.052	2854.6857	978.95	68.8
1012.1695	2855.8323	953.1	70.35
1012.2869	2856.9781	955.55	71.8
1012.4042	2858.1233	953.6	72.55
1012.5216	2859.2679	956.15	71
1012.6389	2860.4118	959.9	75.55
1012.7561	2861.555	966.1	79.8
1012.8733	2862.6976	964.85	77.7
1012.9905	2863.8395	960.95	77.65
1013.1076	2864.9808	962.55	78.45
1013.2247	2866.1214	962.05	78.45
1013.3417	2867.2614	960.9	76.15
1013.4587	2868.4007	967.2	80.6
1013.5757	2869.5393	965.8	79.4
1013.6926	2870.6773	967.85	82.45
1013.8095	2871.8146	968.95	81.55
1013.9263	2872.9513	968.9	86.15
1014.0431	2874.0874	966.35	81.4
1014.1599	2875.2227	969.45	86.25
1014.2766	2876.3574	970.85	87.35
1014.3933	2877.4915	969.45	85.85
1014.51	2878.6249	973.8	90.95
1014.6266	2879.7577	974.65	89.2
1014.7431	2880.8898	984.35	89.1
1014.8596	2882.0212	975.9	92.25
1014.9761	2883.152	973.6	88.9
1015.0925	2884.2821	973.75	93.55
1015.2089	2885.4116	977.2	94.95
1015.3253	2886.5405	978.85	93.85
1015.4416	2887.6686	982.3	95
1015.5579	2888.7962	978.55	96.2
1015.6741	2889.923	977	92.95
1015.7903	2891.0493	979.4	96.45
1015.9065	2892.1748	979.9	94.8
1016.0226	2893.2997	980	94.05
1016.1387	2894.424	978.5	95.6
1016.2547	2895.5476	979.9	96.6
1016.3707	2896.6706	980.5	97.05
1016.4866	2897.7929	980.45	93.85
1016.6025	2898.9145	975.4	92.2
1016.7184	2900.0355	980.6	94
1016.8342	2901.1559	973.95	90.15
1016.95	2902.2756	981.55	94.95
1017.0658	2903.3946	981	98.3
1017.1815	2904.513	981.65	95.75
1017.2971	2905.6308	976.2	92.8
1017.4127	2906.7479	978.9	94
1017.5283	2907.8643	976.85	91.3
1017.6439	2908.9801	977.15	92.35
1017.7594	2910.0953	974.75	91.85
1017.8748	2911.2098	983.25	95.4
1017.9902	2912.3236	984.35	92.7
1018.1056	2913.4368	979.1	92.3
1018.2209	2914.5494	978.5	92.95
1018.3362	2915.6613	981.9	92.15
1018.4515	2916.7725	973.15	86.45
1018.5667	2917.8831	972.15	88.35
1018.6819	2918.9931	973.55	87.9
1018.797	2920.1024	969.65	84.15
1018.9121	2921.211	969.5	85.25
1019.0271	2922.319	969.8	85.1
1019.1421	2923.4264	966.15	82.2
1019.2571	2924.5331	966.65	85.8
1019.372	2925.6391	966.95	83.45
1019.4869	2926.7445	962.65	79.3
1019.6017	2927.8493	963.15	77.7
1019.7165	2928.9534	968.3	84.15
1019.8313	2930.0569	968.4	80.35
1019.946	2931.1597	968.05	81.25
1020.0606	2932.2619	966.95	83.75
1020.1753	2933.3634	964.65	81.7
1020.2899	2934.4643	975.15	85.35
1020.4044	2935.5645	977.9	90.05
1020.5189	2936.6641	978	91.1
1020.6334	2937.763	967.1	84.15
1020.7478	2938.8613	974.8	89.9
1020.8622	2939.959	978.35	87.95
1020.9765	2941.056	967.6	84.45
1021.0908	2942.1523	967.65	82.4
1021.2051	2943.248	961.8	77.75
1021.3193	2944.3431	957.65	72.5
1021.4334	2945.4375	955.85	68.65
1021.5476	2946.5313	949.8	67.2
1021.6617	2947.6244	950.25	66.65
1021.7757	2948.7169	949.2	64.35
1021.8897	2949.8087	942.85	59.35
1022.0037	2950.8999	940.1	54.65
1022.1176	2951.9904	936.75	52.7
1022.2315	2953.0803	932.2	46.95
1022.3453	2954.1696	932.35	47.25
1022.4591	2955.2582	929.3	46.05
1022.5728	2956.3462	929	43.6
1022.6865	2957.4335	930.8	48.65
1022.8002	2958.5202	931.1	43.7
1022.9138	2959.6062	929.7	45.1
1023.0274	2960.6916	925	41.9
1023.141	2961.7764	929.35	42.6
1023.2545	2962.8605	930.35	46
1023.3679	2963.9439	930.55	46.25
1023.4813	2965.0267	930.95	44.95
1023.5947	2966.1089	949.85	42.85
1023.708	2967.1905	927.35	42.05
1023.8213	2968.2714	926.4	44.25
1023.9346	2969.3516	925.35	42.65
1024.0478	2970.4312	931.3	39.45
1024.1609	2971.5102	925.7	42.3
1024.274	2972.5885	924.2	39.2
1024.3871	2973.6662	931	43.2
1024.5002	2974.7432	925.4	42.5
1024.6132	2975.8196	927.3	43.55
1024.7261	2976.8954	925.95	42.4
1024.839	2977.9705	925.2	39
1024.9519	2979.045	924.7	41.3
1025.0647	2980.1188	924.85	40.65
1025.1775	2981.192	924.8	40.55
1025.2902	2982.2645	925.6	39.35
1025.4029	2983.3364	925.65	41.3
1025.5156	2984.4077	922.75	37.9
1025.6282	2985.4783	928.5	39.9
1025.7407	2986.5483	924.05	40.55
1025.8532	2987.6177	917.9	35.75
1025.9657	2988.6864	920.55	36.35
1026.0782	2989.7545	917.25	30.05
1026.1906	2990.8219	917.2	36.5
1026.3029	2991.8887	919.3	30.6
1026.4152	2992.9548	914.6	29.05
1026.5275	2994.0204	910.8	26.75
1026.6397	2995.0852	909.6	28.3
1026.7519	2996.1495	911.7	25.3
1026.864	2997.2131	909.85	25.75
1026.9761	2998.276	908.35	24.5
1027.0882	2999.3383	907.5	22.1
1027.2002	3000.4	907.35	23.5
1027.3122	3001.4611	906.55	21.55
1027.4241	3002.5215	906.5	21.75
1027.536	3003.5812	904.25	19.4
1027.6478	3004.6404	903.85	19.9
1027.7596	3005.6989	903.3	16.1
1027.8714	3006.7567	902.55	17.55
1027.9831	3007.8139	928.05	18.9
1028.0947	3008.8705	903.15	18.2
1028.2064	3009.9264	916.25	16.75
1028.3179	3010.9818	902.75	19.1
1028.4295	3012.0364	903.95	19.6
1028.541	3013.0905	899.8	16.6
1028.6524	3014.1439	901.05	15.6
1028.7638	3015.1966	901.6	19.45
1028.8752	3016.2487	900.35	15.6
1028.9865	3017.3002	904	14.2
1029.0978	3018.3511	898.25	16.15
1029.209	3019.4013	902.1	19.7
1029.3202	3020.4509	899.85	17.55
1029.4314	3021.4998	897.5	12.45
1029.5425	3022.5481	898.75	14.15
1029.6535	3023.5958	899.1	15.15
1029.7645	3024.6428	900.4	15.1
1029.8755	3025.6892	901.1	18.75
1029.9864	3026.735	898.35	14.9
1030.0973	3027.7802	898.7	16.4
1030.2082	3028.8247	897	13.4
1030.319	3029.8685	899.3	15.3
1030.4297	3030.9118	897.35	12.7
1030.5404	3031.9544	898.45	16.5
1030.6511	3032.9963	897.75	12.1
1030.7617	3034.0376	898.3	15.25
1030.8723	3035.0783	901.3	14.35
1030.9829	3036.1184	900.4	14.9
1031.0934	3037.1578	898.1	15.6
1031.2038	3038.1966	899.45	14.95
1031.3142	3039.2348	898.1	15
1031.4246	3040.2723	906.45	13.85
1031.5349	3041.3092	898.2	16.15
1031.6452	3042.3455	898.6	16.65
1031.7554	3043.3811	900.1	14.55
1031.8656	3044.4161	899.5	14.35
1031.9758	3045.4505	899.25	16.2
1032.0859	3046.4842	900.15	15.1
1032.1959	3047.5173	898.7	15.25
1032.3059	3048.5498	898.45	12.8
1032.4159	3049.5816	899.05	14.5
1032.5258	3050.6128	902.5	17.75
1032.6357	3051.6434	900.4	15.45
1032.7455	3052.6734	901.7	18.3
1032.8553	3053.7027	898.3	15.7
1032.9651	3054.7314	900.15	18
1033.0748	3055.7594	897.6	13.3
1033.1845	3056.7868	899.45	15.45
1033.2941	3057.8136	897.2	13
1033.4037	3058.8398	898.05	14.7
1033.5132	3059.8653	898.6	13.9
1033.6227	3060.8902	901	17.9
1033.7321	3061.9145	898.65	14.25
1033.8415	3062.9381	899.5	16.55
1033.9509	3063.9612	913.2	14.85
1034.0602	3064.9835	900.4	17.45
1034.1694	3066.0053	903.45	16.45
1034.2787	3067.0264	900	17.8
1034.3878	3068.0469	901.75	16.15
1034.497	3069.0668	902.9	15.95
1034.6061	3070.086	899.15	15.95
1034.7151	3071.1046	902.8	15.8
1034.8241	3072.1226	899	15.2
1034.9331	3073.1399	900.25	17.8
1035.042	3074.1567	900.35	17.45
1035.1508	3075.1727	899.95	14.75
1035.2597	3076.1882	897.65	12.65
1035.3684	3077.203	896.9	14.05
1035.4772	3078.2173	901.15	15.5
1035.5859	3079.2308	900.75	13.1
1035.6945	3080.2438	899	13.5
1035.8031	3081.2561	897.45	12
1035.9117	3082.2678	895.65	11.8
1036.0202	3083.2789	895.8	13.4
1036.1286	3084.2893	895.8	11.25
1036.2371	3085.2991	895.8	9.8
1036.3454	3086.3083	902.55	14.15
1036.4538	3087.3169	897.6	11.4
1036.562	3088.3248	894.95	9.45
1036.6703	3089.3321	895.8	9.15
1036.7785	3090.3388	893.95	10.45
1036.8866	3091.3449	897.1	13.5
1036.9948	3092.3503	898	12.55
1037.1028	3093.3551	893.05	10.05
1037.2108	3094.3593	894.5	10.45
1037.3188	3095.3629	893.95	9.4
1037.4267	3096.3658	898.8	12.85
1037.5346	3097.3681	895.45	10.75
1037.6425	3098.3698	894.85	8.75
1037.7503	3099.3708	894.25	9.05
1037.858	3100.3713	892.95	10.9
1037.9657	3101.3711	896.2	11.85
1038.0734	3102.3702	1033.65	7.25
1038.181	3103.3688	896.15	8.5
1038.2886	3104.3667	893.05	8.9
1038.3961	3105.364	894.3	11.75
1038.5036	3106.3607	893.7	6.15
1038.611	3107.3568	896.25	10.55
1038.7184	3108.3522	892.7	9.5
1038.8257	3109.347	893.6	10.75
1038.933	3110.3412	898.95	11.8
1039.0403	3111.3348	891.85	7.55
1039.1475	3112.3277	893.4	9.7
1039.2547	3113.32	892.45	10.25
1039.3618	3114.3117	894.5	9.35
1039.4689	3115.3028	894.5	8.15
1039.5759	3116.2932	895.2	9
1039.6829	3117.2831	896.6	7.05
1039.7898	3118.2723	891.95	7.45
1039.8967	3119.2608	892.15	9.4
1040.0035	3120.2488	890.45	6.05
1040.1103	3121.2361	893.1	6.95
1040.2171	3122.2229	891.85	8.3
1040.3238	3123.209	895	10.95
1040.4305	3124.1944	892.15	7.6
1040.5371	3125.1793	893.85	6.45
1040.6437	3126.1635	891.85	8.7
1040.7502	3127.1471	891.4	9
1040.8567	3128.1301	890.35	6.15
1040.9631	3129.1125	892	8.6
1041.0695	3130.0942	891.95	8.05
1041.1759	3131.0753	900.45	7.7
1041.2822	3132.0558	896.8	9.75
1041.3884	3133.0357	893.5	7.65
1041.4946	3134.015	891.5	5.4
1041.6008	3134.9936	892.65	7.65
1041.7069	3135.9716	912.9	7
1041.813	3136.949	890.9	5.35
1041.919	3137.9258	911.1	9.3
1042.025	3138.902	895.6	6.5
1042.1309	3139.8775	890.2	6.3
1042.2368	3140.8524	890.8	7.3
1042.3427	3141.8267	894.3	10.35
1042.4485	3142.8004	891	6.6
1042.5542	3143.7735	896.7	6.9
1042.6599	3144.7459	894.85	9.2
1042.7656	3145.7178	893.65	9.1
1042.8712	3146.689	889.8	8.05
1042.9768	3147.6596	891.1	6.25
1043.0823	3148.6295	889.4	5
1043.1878	3149.5989	891.9	7.15
1043.2932	3150.5676	889.05	7.9
1043.3986	3151.5357	890.35	7.4
1043.5039	3152.5032	889.45	7
1043.6092	3153.4701	888.8	6.15
1043.7145	3154.4364	893.95	7.7
1043.8197	3155.402	890.7	8.05
1043.9248	3156.367	891.35	5.25
1044.03	3157.3315	911.4	8.85
1044.135	3158.2952	892.1	7.5
1044.24	3159.2584	889.45	7.75
1044.345	3160.221	890.1	5.1
1044.4499	3161.1829	890.4	7.1
1044.5548	3162.1442	890.9	8.35
1044.6596	3163.105	891.5	9.1
1044.7644	3164.065	890.5	4.9
1044.8692	3165.0245	892.3	5.5
1044.9739	3165.9834	889.55	5.1
1045.0785	3166.9416	889.5	6.8
1045.1831	3167.8993	889.5	4.35
1045.2877	3168.8563	890.35	4.8
1045.3922	3169.8127	889.2	6.6
1045.4966	3170.7684	891.05	7.65
1045.6011	3171.7236	891.25	6.45
1045.7054	3172.6782	890.2	7.2
1045.8098	3173.6321	890.05	4.25
1045.914	3174.5854	892.5	3.35
1046.0183	3175.5381	888.1	3.4
1046.1224	3176.4902	889.7	6.5
1046.2266	3177.4417	889.4	7.4
1046.3307	3178.3926	888.75	3.95
1046.4347	3179.3428	889	7.25
1046.5387	3180.2924	891.3	6.35
1046.6427	3181.2415	890	6
1046.7466	3182.1899	890.75	6.25
1046.8504	3183.1377	888.2	4.75
1046.9542	3184.0848	893.45	7.75
1047.058	3185.0314	888.85	4.65
1047.1617	3185.9773	889.75	2.85
1047.2654	3186.9227	890.05	4.6
1047.369	3187.8674	889	4.55
1047.4726	3188.8115	895.65	7.05
1047.5761	3189.755	892.95	8.95
1047.6796	3190.6979	887.5	3.4
1047.783	3191.6402	887.2	3.75
1047.8864	3192.5818	888.05	5.45
1047.9898	3193.5229	901.7	5.25
1048.0931	3194.4633	890.2	5.8
1048.1963	3195.4031	888.55	3.75
1048.2995	3196.3423	891.2	5.4
1048.4027	3197.2809	888.35	4.1
1048.5058	3198.2189	889.65	6.5
1048.6089	3199.1563	908.05	5.6
1048.7119	3200.0931	887.05	3
1048.8148	3201.0292	888.75	6.9
1048.9178	3201.9648	889.6	6.3
1049.0206	3202.8997	892.1	6.1
1049.1235	3203.834	889.8	7
1049.2262	3204.7677	889	6.2
1049.329	3205.7008	891.65	7
1049.4317	3206.6333	886.7	2.7
1049.5343	3207.5652	891.05	5.6
1049.6369	3208.4964	889.2	4.3
1049.7394	3209.4271	889.85	6.75
1049.8419	3210.3571	888.8	6.6
1049.9444	3211.2865	887.8	2.95
1050.0468	3212.2154	887.6	3.2
1050.1491	3213.1436	892.7	7.1
1050.2514	3214.0712	894.8	2.6
1050.3537	3214.9982	888.85	5.85
1050.4559	3215.9246	889.8	6.05
1050.5581	3216.8503	888.8	5.75
1050.6602	3217.7755	888	4.55
1050.7623	3218.7001	890.4	4.1
1050.8643	3219.624	888.55	4.95
1050.9663	3220.5473	890.75	5.75
1051.0682	3221.4701	889.9	5.15
1051.1701	3222.3922	890.8	5.1
1051.2719	3223.3137	888.15	4.5
1051.3737	3224.2346	887.7	4.6
1051.4754	3225.1549	888.75	5.9
1051.5771	3226.0746	887.05	4.5
1051.6788	3226.9937	887.6	4.4
1051.7804	3227.9121	886	2.6
1051.8819	3228.83	888.7	5.2
1051.9834	3229.7473	887.85	4
1052.0849	3230.6639	888.2	3.6
1052.1863	3231.5799	889.5	4.75
1052.2876	3232.4954	889.05	2.75
1052.3889	3233.4102	890	7.9
1052.4902	3234.3244	888.65	4.55
1052.5914	3235.238	886.8	5.5
1052.6926	3236.151	913.1	6.2
1052.7937	3237.0634	888.35	5.75
1052.8948	3237.9752	887	3.05
1052.9958	3238.8864	889.3	4.3
1053.0968	3239.797	886.1	3.65
1053.1977	3240.7069	889	2.6
1053.2986	3241.6163	888.25	1.85
1053.3994	3242.5251	888.65	5.8
1053.5002	3243.4332	887.8	5.65
1053.6009	3244.3408	888	4.4
1053.7016	3245.2477	888.7	4.35
1053.8022	3246.154	890.05	4.15
1053.9028	3247.0598	889.6	3.9
1054.0034	3247.9649	887.7	5.4
1054.1039	3248.8694	886	3
1054.2043	3249.7733	887.15	4.55
1054.3047	3250.6766	886.4	1.85
1054.4051	3251.5793	889.05	2.95
1054.5054	3252.4814	884.6	1.7
1054.6056	3253.3829	888.6	5.05
1054.7058	3254.2838	887.2	3.6
1054.806	3255.1841	886.5	4
1054.9061	3256.0838	887.85	2.25
1055.0061	3256.9829	885.85	4.1
1055.1062	3257.8814	888.95	4.1
1055.2061	3258.7792	888	3.45
1055.306	3259.6765	889.55	5.1
1055.4059	3260.5731	886.6	3.3
1055.5057	3261.4692	889.4	3.8
1055.6055	3262.3647	888.05	3.5
1055.7052	3263.2595	887	2.25
1055.8049	3264.1538	887.25	3.75
1055.9045	3265.0474	889.1	3.9
1056.0041	3265.9404	886.75	1.65
1056.1036	3266.8329	886.05	0.45
1056.2031	3267.7247	896.35	1.35
1056.3025	3268.616	887.35	4.5
1056.4019	3269.5066	885.9	0.35
1056.5013	3270.3966	889.05	3
1056.6005	3271.286	885.95	3.55
