Software Version:	3.9.2.0
Unit SN:	10000200
Spectrometer SN:	6960
Date:	3/14/2024 1:17:15 PM
Data Line Index:	25
Spectral Points:	2048
Integration time (ms):	125
Averages:	20
Delay (ms):	30000
Sequence Number:	1
Processing:	dark subtract
Laser Power (mW):	300
Laser Current (mA):	825
Laser Diode Temp (C):	25
Laser Case Temp (C):	28.3
System Temp (C):	28.3
Spectrometer Temp (C):	26.2
CCD Temp (C):	0.002
Secondary Temp (C):	20.013
Heatsink Temp (C):	24.117
CCDPCB Temp (C):	37.685
SecondaryPCB Temp (C):	35.329

Wavelength	RamanShift	Raw Counts	Dark Subtracted
787.061	30.1047	433.85	22.75
787.2016	32.3739	431.2	21.2
787.3422	34.6426	434.95	25.05
787.4828	36.9109	438.15	26.2
787.6235	39.1787	444.5	26.8
787.7642	41.4461	450.65	30.5
787.9049	43.7131	457.75	32.85
788.0456	45.9796	462.15	33
788.1863	48.2456	468.85	35.85
788.3271	50.5112	474.9	38.15
788.4679	52.7764	481.05	41.8
788.6087	55.0411	483.65	42.95
788.7496	57.3054	493.7	46.85
788.8904	59.5692	499.9	51
789.0313	61.8326	505.4	50.4
789.1722	64.0955	514.35	57.3
789.3132	66.3579	523.35	60.05
789.4541	68.6199	534.35	69.9
789.5951	70.8815	550.35	81.75
789.7361	73.1426	586.85	113.15
789.8771	75.4032	678.15	203.05
790.0181	77.6634	893.75	408.85
790.1592	79.9231	1406.55	917.4
790.3003	82.1824	2496.35	2000.8
790.4414	84.4412	4461.6	3949.65
790.5825	86.6995	7173.95	6643.7
790.7237	88.9574	9821.85	9275.55
790.8648	91.2148	11715.7	11156.3
791.006	93.4717	12614.55	12049.85
791.1472	95.7282	12804.2	12236.7
791.2885	97.9842	12747.65	12175.15
791.4297	100.2398	12508.8	11934.6
791.571	102.4949	12162.8	11582.2
791.7123	104.7495	11833.7	11251.3
791.8536	107.0036	11469.3	10885.4
791.9949	109.2573	11147.2	10564.55
792.1363	111.5105	10878.05	10292.8
792.2777	113.7632	10600.3	10014.45
792.4191	116.0154	10394.4	9796.3
792.5605	118.2672	10262.05	9673.35
792.7019	120.5185	10102.15	9511.05
792.8434	122.7693	9982.05	9387.6
792.9849	125.0197	9894.7	9299.3
793.1264	127.2696	9776.5	9175.65
793.2679	129.519	9705.95	9102.4
793.4094	131.7679	9596.2	8990.4
793.551	134.0163	9540.3	8934.55
793.6926	136.2642	9407.65	8793.9
793.8342	138.5117	9282.6	8659.35
793.9758	140.7587	9125.1	8506.25
794.1175	143.0052	9000.9	8380.75
794.2591	145.2512	8861.85	8240.55
794.4008	147.4967	8749.05	8129.3
794.5425	149.7417	8653.15	8028.85
794.6842	151.9863	8574.5	7946
794.826	154.2304	8544.15	7913.7
794.9677	156.4739	8497.2	7863.35
795.1095	158.717	8434.6	7802.3
795.2513	160.9596	8374.95	7734.05
795.3931	163.2017	8269.5	7628.1
795.535	165.4433	8167.65	7521.9
795.6768	167.6844	8057.75	7411.85
795.8187	169.925	7951.7	7302.65
795.9606	172.1651	7798.1	7146.25
796.1025	174.4047	7700.2	7048.1
796.2445	176.6439	7608.8	6952.35
796.3864	178.8825	7516.75	6857.5
796.5284	181.1206	7454.7	6791.05
796.6704	183.3582	7419.65	6753.4
796.8124	185.5954	7375.15	6705.6
796.9544	187.832	7335.05	6662.8
797.0965	190.0681	7323.8	6651.7
797.2386	192.3037	7330.3	6653.2
797.3806	194.5388	7311	6631.35
797.5228	196.7734	7330.2	6648.2
797.6649	199.0075	7370.15	6684.15
797.807	201.2411	7410.75	6724.35
797.9492	203.4742	7410.55	6722.6
798.0914	205.7068	7497.8	6807.35
798.2336	207.9389	7531.45	6842.95
798.3758	210.1704	7599.95	6907.3
798.518	212.4015	7636.35	6942.65
798.6603	214.632	7678.2	6981.5
798.8025	216.862	7716.4	7025.25
798.9448	219.0915	7725.75	7041.85
799.0871	221.3205	7790.7	7111.05
799.2294	223.549	7826.15	7152.45
799.3718	225.777	7846.1	7172.85
799.5141	228.0044	7865.1	7186.05
799.6565	230.2314	7928.1	7252.7
799.7989	232.4578	7991.85	7315.4
799.9413	234.6837	8028.35	7342
800.0837	236.909	8055.2	7368.25
800.2262	239.1339	8068.1	7360.15
800.3687	241.3582	8008.3	7314.45
800.5111	243.582	7982.3	7265.4
800.6536	245.8053	7960.55	7252.05
800.7961	248.0281	7924.9	7217.9
800.9387	250.2503	7914.55	7200.3
801.0812	252.472	7910.95	7193.1
801.2238	254.6932	7959.45	7239.9
801.3664	256.9139	7998.85	7276.7
801.509	259.134	8074.9	7350.15
801.6516	261.3536	8126	7400.55
801.7942	263.5727	8262.35	7536.85
801.9369	265.7912	8343.9	7618.85
802.0795	268.0092	8436.3	7711.55
802.2222	270.2267	8508.2	7780.5
802.3649	272.4436	8543.7	7818.05
802.5076	274.6601	8584.55	7848.1
802.6504	276.8759	8528.9	7798.35
802.7931	279.0913	8504.8	7773.9
802.9359	281.3061	8476.8	7745.7
803.0787	283.5204	8453	7717.7
803.2215	285.7341	8423.05	7683.55
803.3643	287.9473	8427.8	7684.25
803.5071	290.16	8451.9	7704.7
803.6499	292.3721	8504.65	7761.1
803.7928	294.5837	8534.05	7790.2
803.9357	296.7947	8636.7	7897.6
804.0786	299.0052	8672.2	7930.1
804.2215	301.2152	8657.25	7912.15
804.3644	303.4246	8595.25	7855.6
804.5074	305.6334	8463.2	7721.85
804.6503	307.8418	8327.15	7583.7
804.7933	310.0495	8173.25	7428.35
804.9363	312.2568	7994.3	7250.5
805.0793	314.4635	7822.4	7073.35
805.2223	316.6696	7727.4	6980.7
805.3653	318.8752	7618.9	6862.3
805.5084	321.0802	7594.15	6844.25
805.6514	323.2847	7591.5	6840.45
805.7945	325.4887	7605.7	6857.6
805.9376	327.692	7617.4	6864.2
806.0807	329.8949	7608.9	6854.45
806.2238	332.0972	7519.55	6763.9
806.367	334.2989	7431	6673.2
806.5101	336.5001	7344.5	6586.4
806.6533	338.7007	7262.8	6504.05
806.7965	340.9008	7221.2	6463.05
806.9397	343.1003	7139.3	6375.75
807.0829	345.2992	7081.65	6320.15
807.2261	347.4976	7050.2	6284.4
807.3693	349.6955	7006.7	6237.6
807.5126	351.8927	7011.65	6240.65
807.6559	354.0895	6969.1	6189.25
807.7991	356.2856	6956.2	6188.1
807.9424	358.4812	6931.35	6163.65
808.0857	360.6763	6937.65	6165.5
808.2291	362.8707	6932.65	6162.7
808.3724	365.0646	6929.6	6155.5
808.5158	367.258	6943.65	6167.7
808.6591	369.4508	6959.35	6179.65
808.8025	371.643	6979.25	6198.85
808.9459	373.8346	7039.75	6257
809.0893	376.0257	7052.4	6267.7
809.2327	378.2162	7061.35	6276
809.3762	380.4062	7052.1	6264.2
809.5196	382.5956	6996.2	6207.25
809.6631	384.7844	6958.6	6172.2
809.8066	386.9726	6893.65	6103.25
809.9501	389.1603	6858.7	6070.25
810.0936	391.3474	6863.15	6040.35
810.2371	393.5339	6832.25	6042.35
810.3806	395.7199	6784.85	5996.55
810.5241	397.9052	6793.4	6008.7
810.6677	400.09	6818.3	6034.3
810.8113	402.2743	6895.9	6115.1
810.9548	404.4579	6924	6144.15
811.0984	406.641	6998.9	6218.1
811.2421	408.8235	7089.55	6306.7
811.3857	411.0054	7152.9	6367.95
811.5293	413.1868	7271.4	6485.85
811.673	415.3675	7318.65	6532.15
811.8166	417.5477	7318.65	6530.05
811.9603	419.7273	7237.1	6444.3
812.104	421.9064	7165.6	6367.4
812.2477	424.0848	7125.7	6333.4
812.3914	426.2627	7047.6	6252
812.5351	428.4399	6973.55	6177.05
812.6788	430.6166	6856.75	6056
812.8226	432.7928	6712.15	5911.45
812.9663	434.9683	6587.25	5784.15
813.1101	437.1432	6481.7	5676.35
813.2539	439.3176	6415.6	5611.95
813.3977	441.4914	6360.65	5559.45
813.5415	443.6645	6348.05	5540.2
813.6853	445.8371	6329.3	5522.6
813.8291	448.0091	6301.5	5496.45
813.973	450.1806	6286.3	5479.8
814.1168	452.3514	6286	5475.8
814.2607	454.5216	6287.15	5468.65
814.4046	456.6913	6276.6	5467.45
814.5485	458.8603	6290.55	5480.15
814.6924	461.0288	6304.65	5496.95
814.8363	463.1967	6280.85	5473.1
814.9802	465.3639	6297.9	5487.35
815.1241	467.5306	6277.05	5463.5
815.2681	469.6967	6267.55	5451.55
815.412	471.8622	6286	5474.9
815.556	474.0271	6294.85	5483.15
815.7	476.1914	6298.8	5482.8
815.844	478.3551	6300.5	5489.7
815.988	480.5182	6306.9	5492.3
816.132	482.6807	6326.9	5509.3
816.276	484.8426	6425.4	5609.95
816.4201	487.0039	6530.8	5716
816.5641	489.1647	6668.45	5849.95
816.7082	491.3248	6801.25	5984.1
816.8522	493.4843	6820.05	6003.75
816.9963	495.6432	6793.05	5975.05
817.1404	497.8015	6731.4	5908.5
817.2845	499.9592	6678.9	5864.35
817.4286	502.1163	6598.85	5778.4
817.5727	504.2728	6475.75	5650.3
817.7168	506.4287	6393.3	5572.7
817.861	508.5839	6251.4	5429.55
818.0051	510.7386	6168.15	5345.9
818.1493	512.8927	6131.5	5301.65
818.2935	515.0461	6126.45	5304.55
818.4377	517.199	6149.4	5328.5
818.5818	519.3512	6191.1	5367.95
818.726	521.5029	6293.3	5466.35
818.8703	523.6539	6403.85	5580
819.0145	525.8043	6438.55	5612.3
819.1587	527.9541	6400.2	5573.8
819.303	530.1033	6313.75	5487.25
819.4472	532.2519	6258.35	5432.65
819.5915	534.3999	6217.1	5390.55
819.7357	536.5472	6258.3	5429.55
819.88	538.694	6329	5499.1
820.0243	540.8401	6434.7	5606
820.1686	542.9856	6512.45	5683
820.3129	545.1305	6503.25	5674.8
820.4572	547.2748	6490.15	5661
820.6016	549.4185	6414.05	5582.05
820.7459	551.5615	6354.7	5522.95
820.8902	553.704	6346.05	5513.8
821.0346	555.8458	6354.7	5523.45
821.1789	557.987	6428.5	5595
821.3233	560.1276	6494.05	5658.55
821.4677	562.2675	6628.85	5796.5
821.6121	564.4069	6824.6	5991.3
821.7565	566.5456	6972.5	6142.4
821.9009	568.6837	7038.55	6203.9
822.0453	570.8212	6879.5	6047.15
822.1897	572.958	6629.25	5793.35
822.3342	575.0942	6383.2	5553.3
822.4786	577.2299	6228.3	5395.3
822.6231	579.3648	6127.85	5294.15
822.7675	581.4992	6090.95	5257.45
822.912	583.6329	6122.75	5289.05
823.0565	585.766	6184.85	5352.75
823.201	587.8985	6250.65	5417.1
823.3454	590.0304	6274.5	5415.65
823.4899	592.1616	6227.6	5388.55
823.6345	594.2922	6176.25	5339.1
823.779	596.4222	6108.15	5268.6
823.9235	598.5515	6025.4	5189.3
824.068	600.6802	5954.7	5117.1
824.2126	602.8083	5868	5030.45
824.3571	604.9358	5876	5038.4
824.5017	607.0626	5877.75	5036.9
824.6462	609.1888	5903.3	5062.45
824.7908	611.3144	5961.2	5119.6
824.9354	613.4393	5996	5157.95
825.08	615.5636	6051.35	5212.05
825.2246	617.6873	6063.8	5223.7
825.3692	619.8103	6032.6	5192.7
825.5138	621.9327	5956.45	5112.1
825.6584	624.0544	5867.85	5026.15
825.803	626.1756	5786.25	4944
825.9477	628.2961	5723.95	4881.8
826.0923	630.4159	5704.95	4864.85
826.237	632.5351	5696.65	4853.3
826.3816	634.6537	5689.45	4841.95
826.5263	636.7716	5694.5	4849.15
826.6709	638.8889	5676	4831.4
826.8156	641.0056	5709.7	4863.1
826.9603	643.1216	5688.1	4844.45
827.105	645.237	5681.65	4832.3
827.2497	647.3518	5626.45	4780
827.3944	649.4659	5604.2	4758.35
827.5391	651.5793	5595.3	4748.5
827.6838	653.6922	5557.6	4710.9
827.8285	655.8043	5533.3	4686.2
827.9733	657.9159	5533.75	4686.35
828.118	660.0268	5526.3	4676.4
828.2627	662.137	5520	4672.85
828.4075	664.2466	5534.75	4682.55
828.5522	666.3556	5537.1	4689.15
828.697	668.4639	5507.05	4654.25
828.8418	670.5716	5489.75	4640.15
828.9865	672.6786	5472.4	4622.7
829.1313	674.785	5442.65	4590.65
829.2761	676.8907	5422.6	4570.35
829.4209	678.9958	5416.25	4567.75
829.5657	681.1002	5401.7	4550.95
829.7105	683.204	5395.25	4541.05
829.8553	685.3072	5395.15	4541.5
830.0001	687.4097	5381.3	4531.55
830.1449	689.5115	5377.65	4524.05
830.2898	691.6127	5364.95	4512.4
830.4346	693.7132	5357.15	4504.95
830.5794	695.8131	5360.4	4491.95
830.7243	697.9123	5363.75	4508.35
830.8691	700.0109	5359.85	4506.1
831.014	702.1089	5378.65	4522.55
831.1588	704.2061	5396.35	4542.5
831.3037	706.3028	5410.35	4554.8
831.4486	708.3987	5421.8	4567.5
831.5935	710.4941	5415.8	4560.2
831.7383	712.5887	5432.35	4576.25
831.8832	714.6827	5469.4	4608.95
832.0281	716.7761	5503.95	4649.45
832.173	718.8688	5576.25	4718.35
832.3179	720.9608	5612.3	4754.7
832.4628	723.0522	5676.45	4817
832.6077	725.1429	5687.05	4830.85
832.7527	727.233	5714.75	4859.9
832.8976	729.3224	5744.3	4886.95
833.0425	731.4112	5709.45	4852
833.1874	733.4993	5645.8	4785.8
833.3324	735.5867	5563.3	4705.25
833.4773	737.6735	5468.3	4609.65
833.6222	739.7596	5411.55	4552.1
833.7672	741.845	5358.65	4498.8
833.9122	743.9298	5325.7	4465.55
834.0571	746.014	5310.55	4451.35
834.2021	748.0974	5303.65	4445.5
834.347	750.1802	5296.25	4435.65
834.492	752.2624	5294.4	4434.3
834.637	754.3439	5309.4	4450.4
834.782	756.4247	5337.5	4467.25
834.9269	758.5048	5383.1	4525.25
835.0719	760.5843	5474.3	4615
835.2169	762.6631	5612.25	4753.3
835.3619	764.7413	5788.8	4930.3
835.5069	766.8188	6071.1	5208.8
835.6519	768.8956	6284.05	5420.45
835.7969	770.9718	6436.25	5573.9
835.9419	773.0473	6400.35	5539.1
836.0869	775.1221	6305.55	5444.7
836.232	777.1962	6192.2	5330.85
836.377	779.2697	6167.75	5303.55
836.522	781.3426	6213.65	5340.7
836.667	783.4147	6266.8	5405.15
836.8121	785.4862	6271.6	5413.1
836.9571	787.557	6193.75	5330.45
837.1021	789.6271	6031.6	5169.25
837.2472	791.6966	5782.9	4920.7
837.3922	793.7654	5523.5	4658.1
837.5373	795.8335	5385.4	4522.35
837.6823	797.901	5245.65	4382.85
837.8274	799.9678	5187.85	4325.75
837.9724	802.0339	5143.3	4282.95
838.1175	804.0993	5143.2	4268.9
838.2626	806.1641	5102.35	4237.3
838.4076	808.2282	5080.55	4216.65
838.5527	810.2916	5050.05	4185.3
838.6978	812.3544	5018.05	4155.75
838.8428	814.4164	4979.65	4117.1
838.9879	816.4778	4999.6	4134.85
839.133	818.5385	4995.25	4129.15
839.2781	820.5986	5049.45	4185.75
839.4232	822.658	5128.15	4261.6
839.5682	824.7166	5264.5	4398.65
839.7133	826.7747	5452.1	4587.55
839.8584	828.832	5647.65	4784.3
840.0035	830.8886	5791	4925.75
840.1486	832.9446	5858.5	4992.55
840.2937	834.9999	5812.05	4946.65
840.4388	837.0545	5688.65	4819.85
840.5839	839.1085	5556.15	4687.85
840.729	841.1618	5441.15	4571.1
840.8741	843.2143	5322.85	4456.75
841.0192	845.2662	5245.1	4377.85
841.1643	847.3175	5190.75	4327.65
841.3095	849.368	5140.4	4275.25
841.4546	851.4179	5119.15	4254.2
841.5997	853.467	5074.9	4208
841.7448	855.5155	5051.15	4183.6
841.8899	857.5633	5018.3	4151.6
842.0351	859.6105	4964.3	4097.65
842.1802	861.6569	4931.3	4065.2
842.3253	863.7027	4887.6	4019.25
842.4704	865.7478	4877.85	4010.75
842.6156	867.7922	4856.95	3990.3
842.7607	869.8359	4847.15	3977.25
842.9058	871.8789	4859.25	3992.2
843.0509	873.9212	4912.55	4009.85
843.1961	875.9629	4910.55	4043.5
843.3412	878.0039	4949.35	4080.15
843.4863	880.0441	4973.7	4105.95
843.6315	882.0837	5009.75	4139.25
843.7766	884.1226	5018.6	4148.5
843.9218	886.1609	5033.1	4165.55
844.0669	888.1984	5058.05	4189.1
844.212	890.2352	5115.85	4247.05
844.3572	892.2714	5118.8	4245.95
844.5023	894.3069	5100.1	4232.45
844.6475	896.3416	5032.7	4162.15
844.7926	898.3757	4982.4	4113.4
844.9377	900.4091	4931.7	4061.75
845.0829	902.4418	4933.85	4058.45
845.228	904.4739	4942.2	4069.35
845.3732	906.5052	4954.8	4084.55
845.5183	908.5358	4935.25	4064.75
845.6635	910.5658	4893.95	4019.9
845.8086	912.595	4815.95	3946.2
845.9538	914.6236	4725.95	3856.95
846.0989	916.6515	4676.15	3807.2
846.2441	918.6786	4630.25	3760.3
846.3892	920.7051	4614.7	3743.3
846.5344	922.7309	4630.65	3758.55
846.6795	924.756	4636	3766.15
846.8246	926.7804	4671.9	3799.5
846.9698	928.8041	4653.45	3780.55
847.1149	930.8272	4678.65	3805.5
847.2601	932.8495	4657.5	3784.2
847.4052	934.8711	4656.55	3783.95
847.5504	936.892	4645.9	3775.3
847.6955	938.9123	4646.25	3771.65
847.8407	940.9318	4652.8	3781.55
847.9858	942.9506	4640.8	3766.75
848.131	944.9688	4609.8	3738.3
848.2761	946.9862	4576.05	3702.5
848.4213	949.003	4518.3	3645.95
848.5664	951.019	4463.8	3591.65
848.7115	953.0344	4449.75	3576.2
848.8567	955.0491	4449.05	3576.1
849.0018	957.063	4447.45	3577
849.147	959.0763	4470.2	3598.1
849.2921	961.0888	4477.3	3601.7
849.4373	963.1007	4502	3629.1
849.5824	965.1119	4513	3639.8
849.7275	967.1223	4498.5	3623.85
849.8727	969.1321	4485.5	3612.55
850.0178	971.1412	4487.35	3615.3
850.1629	973.1495	4469.6	3595.55
850.3081	975.1572	4500.05	3594.9
850.4532	977.1641	4476	3605.7
850.5983	979.1704	4463.15	3589.3
850.7435	981.1759	4432.4	3556.3
850.8886	983.1808	4436.3	3564
851.0337	985.1849	4446.4	3561.9
851.1788	987.1884	4456.8	3577.6
851.324	989.1911	4494.95	3618.5
851.4691	991.1932	4524	3648.15
851.6142	993.1945	4536.35	3661.1
851.7593	995.1951	4510.9	3635.2
851.9045	997.1951	4508.7	3628.8
852.0496	999.1943	4495.55	3623.3
852.1947	1001.1928	4461.95	3588.25
852.3398	1003.1906	4499.45	3624.55
852.4849	1005.1877	4534.75	3659.2
852.63	1007.1841	4575	3701.2
852.7751	1009.1798	4581.6	3708.1
852.9202	1011.1748	4552.15	3679.2
853.0653	1013.1691	4477.65	3601.75
853.2104	1015.1627	4400.85	3525.7
853.3555	1017.1556	4314.5	3438.75
853.5006	1019.1477	4279.35	3402.4
853.6457	1021.1392	4225.3	3352.4
853.7908	1023.1299	4214.5	3338.5
853.9359	1025.12	4234.9	3358.05
854.081	1027.1093	4222.65	3347.8
854.2261	1029.0979	4248.3	3373.75
854.3712	1031.0859	4299.45	3424.55
854.5163	1033.0731	4320.45	3441.5
854.6613	1035.0596	4295.95	3421.9
854.8064	1037.0454	4257.95	3385.7
854.9515	1039.0304	4221.4	3345.85
855.0965	1041.0148	4180.3	3305.9
855.2416	1042.9985	4125.3	3248.2
855.3867	1044.9814	4109.8	3233.6
855.5317	1046.9636	4069.6	3190.95
855.6768	1048.9452	4071.1	3198.35
855.8219	1050.926	4085.85	3209.2
855.9669	1052.9061	4093.75	3217.5
856.112	1054.8855	4101.4	3223.7
856.257	1056.8642	4119.15	3243.3
856.4021	1058.8421	4126.4	3245.4
856.5471	1060.8194	4130.75	3253.75
856.6921	1062.7959	4158.35	3283.15
856.8372	1064.7717	4170.2	3291
856.9822	1066.7469	4195.55	3316.2
857.1272	1068.7213	4217.05	3340.1
857.2723	1070.695	4233.85	3356.6
857.4173	1072.6679	4261.9	3384.95
857.5623	1074.6402	4268.95	3393.2
857.7073	1076.6117	4267.5	3384.75
857.8523	1078.5826	4223.1	3346.55
857.9973	1080.5527	4159.4	3281.7
858.1423	1082.5221	4109.4	3231.95
858.2873	1084.4908	4101.4	3223.5
858.4323	1086.4587	4111.05	3234.1
858.5773	1088.426	4112.3	3232.6
858.7223	1090.3925	4106.15	3224.7
858.8673	1092.3584	4125.75	3248.5
859.0123	1094.3235	4124.15	3247.9
859.1573	1096.2879	4151	3272.1
859.3022	1098.2515	4207.85	3330.9
859.4472	1100.2145	4258.7	3382.7
859.5922	1102.1767	4330.95	3451.15
859.7371	1104.1382	4407.1	3527.75
859.8821	1106.099	4496.5	3616.35
860.027	1108.0591	4607.95	3730.1
860.172	1110.0185	4644.15	3764.35
860.3169	1111.9771	4679.15	3802.65
860.4619	1113.9351	4647.6	3768.55
860.6068	1115.8923	4611.35	3734.55
860.7517	1117.8488	4542.15	3662.7
860.8967	1119.8045	4449.25	3569.85
861.0416	1121.7596	4415.6	3538.55
861.1865	1123.7139	4352.2	3475.75
861.3314	1125.6675	4324.3	3447.45
861.4763	1127.6204	4341.55	3465.1
861.6212	1129.5726	4333.1	3454.65
861.7661	1131.524	4307.7	3431.35
861.911	1133.4748	4244.75	3366.1
862.0559	1135.4248	4164.45	3284.8
862.2008	1137.3741	4108.4	3230.3
862.3457	1139.3226	4053.3	3174.4
862.4905	1141.2705	4037.8	3160.85
862.6354	1143.2176	4003	3118.1
862.7803	1145.164	4001.75	3121.35
862.9251	1147.1097	3968.2	3088
863.07	1149.0546	3919.65	3039.6
863.2148	1150.9989	3884.35	3005.9
863.3597	1152.9424	3843.55	2963.7
863.5045	1154.8852	3806.8	2928.25
863.6493	1156.8272	3786.45	2910.05
863.7942	1158.7686	3792.65	2907.45
863.939	1160.7092	3783.85	2903.15
864.0838	1162.6491	3801.75	2922
864.2286	1164.5883	3838.35	2960.05
864.3734	1166.5267	3874.1	2994.3
864.5182	1168.4644	3941.15	3063.3
864.663	1170.4014	4018.8	3137.25
864.8078	1172.3377	4082.9	3205.05
864.9526	1174.2732	4214.35	3337.4
865.0974	1176.2081	4376.95	3497
865.2421	1178.1421	4554.9	3673.1
865.3869	1180.0755	4763.6	3884.35
865.5317	1182.0082	4892.8	4013.65
865.6764	1183.9401	4980.95	4101.7
865.8212	1185.8713	4903.4	4024.95
865.9659	1187.8017	4774.8	3894.3
866.1106	1189.7315	4609.45	3730.85
866.2554	1191.6605	4466.8	3558.7
866.4001	1193.5888	4342	3460.6
866.5448	1195.5163	4270	3390.35
866.6895	1197.4432	4226.45	3346.3
866.8342	1199.3693	4217.55	3338.1
866.9789	1201.2947	4199.5	3312.15
867.1236	1203.2193	4183.8	3303.65
867.2683	1205.1432	4172.65	3292.9
867.413	1207.0664	4154.1	3273.25
867.5576	1208.9889	4135.95	3253.6
867.7023	1210.9106	4137.7	3259
867.847	1212.8316	4138.05	3257.8
867.9916	1214.7519	4171.05	3282.2
868.1363	1216.6715	4165.4	3287.3
868.2809	1218.5903	4190.9	3311.4
868.4255	1220.5084	4229.9	3350.3
868.5701	1222.4257	4263.1	3381.05
868.7148	1224.3424	4284.6	3404.5
868.8594	1226.2583	4334.75	3452.15
869.004	1228.1735	4396.65	3516.85
869.1486	1230.0879	4442.65	3563.2
869.2932	1232.0016	4525.55	3646.15
869.4377	1233.9146	4594.3	3712.45
869.5823	1235.8269	4600	3719.5
869.7269	1237.7384	4571.55	3693
869.8715	1239.6492	4510.95	3630.65
870.016	1241.5592	4499.85	3620.3
870.1606	1243.4686	4533.85	3652.45
870.3051	1245.3772	4595.15	3714.5
870.4496	1247.285	4666.6	3786.15
870.5941	1249.1922	4758.4	3876.6
870.7387	1251.0986	4837.6	3958.65
870.8832	1253.0042	4876.2	3994.05
871.0277	1254.9092	4935.05	4055.85
871.1722	1256.8134	4966.2	4086.5
871.3167	1258.7169	5033.15	4151.2
871.4611	1260.6196	5086	4205.65
871.6056	1262.5216	5156.8	4275
871.7501	1264.4229	5218.35	4337
871.8945	1266.3234	5304.55	4424.2
872.039	1268.2232	5354.5	4473.9
872.1834	1270.1223	5365.35	4485.6
872.3278	1272.0207	5380	4500.05
872.4723	1273.9183	5370.8	4485
872.6167	1275.8151	5319	4438.35
872.7611	1277.7113	5327.35	4447.65
872.9055	1279.6067	5350.85	4470.3
873.0499	1281.5014	5435.5	4552.3
873.1943	1283.3953	5634.3	4752.95
873.3386	1285.2885	5845.8	4966.2
873.483	1287.181	6069.1	5186.2
873.6274	1289.0727	6293.35	5414.8
873.7717	1290.9637	6432.75	5553.35
873.9161	1292.854	6520	5638.85
874.0604	1294.7435	6533.9	5651.3
874.2047	1296.6323	6455.75	5574.25
874.349	1298.5204	6386.75	5503.45
874.4933	1300.4077	6285.85	5403.05
874.6376	1302.2943	6156.1	5276.4
874.7819	1304.1802	6024.2	5143.75
874.9262	1306.0653	5838.05	4954.1
875.0705	1307.9497	5632.9	4752
875.2147	1309.8333	5450.95	4570.6
875.359	1311.7162	5328.35	4447.5
875.5032	1313.5984	5263.65	4378.3
875.6475	1315.4798	5209.25	4317.1
875.7917	1317.3605	5176.4	4279.85
875.9359	1319.2405	5112.5	4229.55
876.0801	1321.1197	5046.05	4162.45
876.2243	1322.9982	4899.35	4013.95
876.3685	1324.876	4796.4	3915.8
876.5127	1326.753	4680.7	3799.25
876.6569	1328.6293	4593.1	3709.85
876.801	1330.5048	4521.35	3638.95
876.9452	1332.3796	4437.6	3557.15
877.0893	1334.2537	4391.65	3483.5
877.2335	1336.127	4329.25	3446.75
877.3776	1337.9996	4336.8	3456.05
877.5217	1339.8714	4323	3441.65
877.6658	1341.7426	4378.25	3453.75
877.8099	1343.6129	4334.95	3453.05
877.954	1345.4826	4315	3433.25
878.0981	1347.3515	4315.9	3431.55
878.2422	1349.2196	4316.55	3432.5
878.3862	1351.087	4323.35	3442.75
878.5303	1352.9537	4352.35	3470
878.6743	1354.8197	4376.1	3491.8
878.8184	1356.6849	4433.95	3551.25
878.9624	1358.5493	4497.45	3615.85
879.1064	1360.4131	4559.35	3677.25
879.2504	1362.276	4630.1	3747.9
879.3944	1364.1383	4666.65	3783.65
879.5384	1365.9998	4597.35	3709.35
879.6823	1367.8606	4480.2	3599.6
879.8263	1369.7206	4342.8	3462.25
879.9702	1371.5799	4207.15	3325.45
880.1142	1373.4384	4117	3236.35
880.2581	1375.2962	4038.85	3155.05
880.402	1377.1533	3911.3	3028
880.5459	1379.0096	3776.75	2896.1
880.6898	1380.8652	3635.95	2754.05
880.8337	1382.7201	3536.95	2654.25
880.9776	1384.5742	3450.7	2568.3
881.1215	1386.4275	3388.25	2506.45
881.2653	1388.2802	3347.05	2466.7
881.4092	1390.132	3304.5	2424.1
881.553	1391.9832	3258.2	2374.2
881.6968	1393.8336	3232.75	2349.15
881.8406	1395.6832	3221.4	2339.55
881.9844	1397.5322	3207.8	2324.6
882.1282	1399.3803	3198.65	2312.15
882.272	1401.2278	3182	2298.9
882.4158	1403.0745	3167.95	2285.75
882.5595	1404.9204	3158	2278.6
882.7033	1406.7656	3161.8	2279.35
882.847	1408.6101	3175.95	2292.55
882.9908	1410.4538	3175.85	2293.25
883.1345	1412.2968	3194.35	2313.3
883.2782	1414.139	3211.65	2330.35
883.4219	1415.9805	3241.05	2360.05
883.5656	1417.8213	3273.95	2386
883.7092	1419.6613	3309.3	2426.8
883.8529	1421.5006	3369.35	2485.75
883.9965	1423.3391	3443.9	2561.45
884.1402	1425.1769	3548.15	2664.1
884.2838	1427.0139	3714.2	2830.85
884.4274	1428.8502	3915.75	3033.2
884.571	1430.6858	4100.8	3218.65
884.7146	1432.5206	4237.1	3354.1
884.8582	1434.3547	4327.3	3443.7
885.0018	1436.188	4337.1	3454.65
885.1453	1438.0206	4295.2	3411.85
885.2889	1439.8524	4236.4	3353.2
885.4324	1441.6835	4197.45	3312.95
885.5759	1443.5139	4149.3	3263.75
885.7194	1445.3435	4147.7	3267.1
885.8629	1447.1724	4131.7	3248.8
886.0064	1449.0005	4098.45	3215.75
886.1499	1450.8279	4078.45	3195.9
886.2933	1452.6545	4074.85	3193.05
886.4368	1454.4804	4090.6	3208.6
886.5802	1456.3056	4096.6	3205.5
886.7237	1458.13	4057.25	3175.65
886.8671	1459.9536	4003.3	3120.4
887.0105	1461.7766	3896.55	3014.4
887.1539	1463.5987	3777.1	2894.55
887.2972	1465.4202	3664.95	2782.55
887.4406	1467.2409	3551.75	2667.9
887.584	1469.0608	3441.75	2558.65
887.7273	1470.88	3354.6	2469.9
887.8706	1472.6984	3259.35	2377.8
888.0139	1474.5161	3192.75	2308.95
888.1572	1476.3331	3128.9	2247.65
888.3005	1478.1493	3080.55	2197.9
888.4438	1479.9648	3056	2173.3
888.5871	1481.7795	3041.9	2159.6
888.7303	1483.5935	3019.55	2138.25
888.8736	1485.4067	2997.05	2112.35
889.0168	1487.2192	2977	2092.9
889.16	1489.031	2966.75	2081
889.3032	1490.842	2952.25	2069.8
889.4464	1492.6522	2919.15	2036.8
889.5896	1494.4618	2925.4	2042.1
889.7327	1496.2705	2919.05	2037.35
889.8759	1498.0785	2900.6	2019.6
890.019	1499.8858	2881.7	1998.4
890.1622	1501.6924	2867.35	1984.6
890.3053	1503.4981	2856.6	1972.1
890.4484	1505.3032	2847.95	1965.35
890.5914	1507.1075	2825.9	1943
890.7345	1508.911	2809.05	1927.05
890.8776	1510.7138	2797.95	1917.05
891.0206	1512.5159	2791.05	1908.3
891.1637	1514.3172	2760.2	1878.8
891.3067	1516.1178	2748.8	1867
891.4497	1517.9176	2744.65	1859.9
891.5927	1519.7166	2720.05	1838.35
891.7357	1521.515	2711.7	1822.8
891.8786	1523.3126	2707.6	1826.25
892.0216	1525.1094	2696.75	1814.1
892.1645	1526.9055	2695.8	1812.75
892.3074	1528.7008	2679	1798
892.4503	1530.4954	2677.55	1790.4
892.5932	1532.2893	2663.9	1783.2
892.7361	1534.0824	2666	1779.15
892.879	1535.8747	2662.3	1779.55
893.0218	1537.6663	2646	1763
893.1647	1539.4572	2654.75	1770.05
893.3075	1541.2473	2653.15	1771.05
893.4503	1543.0367	2660.55	1779.55
893.5931	1544.8253	2659.15	1772.75
893.7359	1546.6132	2671.55	1787.7
893.8787	1548.4003	2685.1	1792.45
894.0214	1550.1867	2712.25	1821.2
894.1642	1551.9723	2716.45	1832.7
894.3069	1553.7572	2758.75	1875.35
894.4496	1555.5414	2791.1	1907.85
894.5923	1557.3247	2842.5	1958.4
894.735	1559.1074	2910.2	2027.15
894.8777	1560.8893	2974	2090.65
895.0204	1562.6705	3035.4	2152.25
895.163	1564.4509	3099.65	2218.55
895.3056	1566.2305	3113.3	2230.95
895.4482	1568.0094	3144.8	2260.75
895.5908	1569.7876	3141.05	2260.5
895.7334	1571.565	3142.1	2258.6
895.876	1573.3417	3141.3	2259.05
896.0186	1575.1176	3131.55	2250.55
896.1611	1576.8928	3135.7	2250.4
896.3036	1578.6672	3134.1	2251.9
896.4461	1580.4409	3152.65	2270.55
896.5886	1582.2138	3170.9	2287.4
896.7311	1583.986	3191.2	2309.8
896.8736	1585.7575	3214.45	2333.25
897.0161	1587.5282	3255.8	2376.15
897.1585	1589.2981	3307.1	2424.35
897.3009	1591.0673	3330.75	2445.5
897.4433	1592.8358	3381.85	2500.65
897.5857	1594.6035	3410.7	2525.1
897.7281	1596.3704	3438.05	2557.35
897.8705	1598.1366	3473.55	2591.15
898.0128	1599.9021	3482	2600.3
898.1551	1601.6668	3540.95	2657.25
898.2975	1603.4308	3567.9	2684.45
898.4398	1605.194	3646.9	2762.25
898.5821	1606.9564	3689.85	2807.7
898.7243	1608.7182	3798.3	2911.85
898.8666	1610.4791	3908.65	3027.95
899.0088	1612.2394	4031.8	3148.2
899.1511	1613.9988	4173.25	3289.35
899.2933	1615.7576	4269.95	3387.7
899.4355	1617.5156	4375.2	3488.55
899.5776	1619.2728	4398.65	3518.5
899.7198	1621.0293	4380.7	3499.4
899.862	1622.785	4295.2	3410.3
900.0041	1624.54	4165.2	3281.35
900.1462	1626.2942	4016.85	3133.8
900.2883	1628.0477	3853.6	2968
900.4304	1629.8005	3695.8	2808.55
900.5725	1631.5525	3560.95	2677.4
900.7145	1633.3037	3448.9	2566.2
900.8566	1635.0542	3351.85	2470.35
900.9986	1636.804	3290.85	2408.9
901.1406	1638.553	3271.15	2343.8
901.2826	1640.3013	3200.35	2319.7
901.4245	1642.0488	3177.3	2293.05
901.5665	1643.7955	3172.2	2290.8
901.7085	1645.5416	3186.9	2304.5
901.8504	1647.2868	3221.75	2339.65
901.9923	1649.0313	3244	2363.25
902.1342	1650.7751	3300.85	2414.65
902.2761	1652.5181	3352.1	2470.2
902.4179	1654.2604	3390.3	2507.9
902.5598	1656.0019	3458.85	2578.8
902.7016	1657.7427	3531.5	2648.5
902.8434	1659.4828	3629.95	2750
902.9852	1661.222	3705.15	2821.05
903.127	1662.9606	3712.45	2832.6
903.2687	1664.6984	3641	2758.5
903.4105	1666.4354	3487.7	2604.7
903.5522	1668.1717	3301.75	2421.8
903.6939	1669.9072	3091.05	2210.8
903.8356	1671.642	2932.7	2049.5
903.9773	1673.3761	2790.35	1910.75
904.119	1675.1094	2683.6	1799.8
904.2606	1676.8419	2590.6	1708.85
904.4022	1678.5737	2521.6	1638.55
904.5439	1680.3048	2473.3	1592.95
904.6855	1682.0351	2435.65	1554.75
904.827	1683.7646	2391.4	1505.6
904.9686	1685.4934	2369.1	1490.35
905.1101	1687.2215	2329.6	1447.5
905.2517	1688.9488	2308.45	1426.2
905.3932	1690.6754	2293.2	1412.4
905.5347	1692.4012	2275.95	1393.95
905.6761	1694.1263	2260.95	1380
905.8176	1695.8506	2244.6	1364
905.9591	1697.5742	2237.15	1353.55
906.1005	1699.297	2232.1	1350.8
906.2419	1701.0191	2198.75	1316.35
906.3833	1702.7404	2196.5	1314.95
906.5246	1704.461	2169.25	1286.7
906.666	1706.1808	2159.45	1277.35
906.8073	1707.8999	2155.85	1273.35
906.9487	1709.6182	2161.55	1276.25
907.09	1711.3358	2129.75	1246.7
907.2313	1713.0527	2126.35	1243.3
907.3725	1714.7688	2125.55	1238.6
907.5138	1716.4841	2117.05	1233.9
907.655	1718.1987	2109.5	1221.5
907.7962	1719.9126	2101.4	1220.55
907.9374	1721.6257	2099.3	1216.25
908.0786	1723.338	2085.4	1203.6
908.2198	1725.0496	2090.6	1208.35
908.3609	1726.7605	2090.95	1208.1
908.502	1728.4706	2069.85	1184.8
908.6431	1730.18	2062.9	1177.2
908.7842	1731.8886	2056.35	1173.45
908.9253	1733.5964	2067.35	1182.9
909.0664	1735.3036	2056.5	1171.4
909.2074	1737.0099	2039.05	1157.45
909.3484	1738.7156	2040.8	1161.75
909.4894	1740.4204	2034.45	1149.85
909.6304	1742.1246	2022.2	1138.8
909.7714	1743.8279	2014	1131
909.9123	1745.5306	2011.3	1128.85
910.0532	1747.2325	2001.85	1119.95
910.1941	1748.9336	1990.8	1109.35
910.335	1750.634	1988.5	1105.85
910.4759	1752.3336	1984	1105.5
910.6168	1754.0325	1977.05	1094.3
910.7576	1755.7307	1985.25	1104.75
910.8984	1757.4281	1984.2	1100.95
911.0392	1759.1247	1979.1	1088.2
911.18	1760.8206	1974.45	1086.1
911.3208	1762.5158	1976.5	1091.1
911.4615	1764.2102	1968.65	1088.2
911.6022	1765.9039	1960.5	1078.9
911.7429	1767.5968	1964.35	1083.35
911.8836	1769.289	1948	1064.45
912.0243	1770.9804	1954.85	1071.75
912.1649	1772.6711	1942.55	1062.45
912.3056	1774.361	1949.25	1066.6
912.4462	1776.0502	1948.45	1065.7
912.5868	1777.7386	1935.55	1051.65
912.7274	1779.4263	1938.5	1054.75
912.8679	1781.1132	1937.85	1056.15
913.0084	1782.7994	1937.75	1053.35
913.149	1784.4849	1922.05	1040.6
913.2895	1786.1696	1948.1	1047.15
913.4299	1787.8535	1930.75	1050
913.5704	1789.5367	1925.45	1043.3
913.7108	1791.2192	1930.35	1048.35
913.8513	1792.9009	1935.9	1042.15
913.9917	1794.5818	1916.6	1035.2
914.132	1796.2621	1906.65	1025.85
914.2724	1797.9415	1897.65	1016.5
914.4128	1799.6202	1894.8	1013.1
914.5531	1801.2982	1899.25	1017.55
914.6934	1802.9755	1890.9	1006.95
914.8337	1804.6519	1895.05	1011.55
914.9739	1806.3277	1889.8	1008.8
915.1142	1808.0027	1886.8	1004
915.2544	1809.6769	1880.5	997.35
915.3946	1811.3504	1880.3	998
915.5348	1813.0231	1888.95	1005.95
915.675	1814.6951	1881.2	998.65
915.8151	1816.3664	1882.15	998.9
915.9553	1818.0369	1874.6	992.05
916.0954	1819.7067	1873.35	993.75
916.2355	1821.3757	1859.05	975.3
916.3755	1823.044	1867.5	987
916.5156	1824.7115	1864.15	981.2
916.6556	1826.3783	1867.6	987.35
916.7956	1828.0443	1854.85	972.85
916.9356	1829.7096	1856.75	973.8
917.0756	1831.3741	1862.85	978.3
917.2155	1833.0379	1857.3	975.2
917.3555	1834.701	1857.4	974.95
917.4954	1836.3633	1850.8	967.9
917.6353	1838.0248	1842.9	957.65
917.7751	1839.6856	1849	967.55
917.915	1841.3457	1837.85	958.15
918.0548	1843.005	1844.1	963.15
918.1946	1844.6636	1837.4	956.85
918.3344	1846.3214	1830.5	948.65
918.4742	1847.9785	1832.15	951.45
918.6139	1849.6349	1833.85	950.8
918.7537	1851.2904	1843.9	954.2
918.8934	1852.9453	1830.9	949.1
919.0331	1854.5994	1826.05	941.3
919.1727	1856.2528	1835.7	948.85
919.3124	1857.9054	1828.85	947.05
919.452	1859.5572	1825	947
919.5916	1861.2083	1819.85	937
919.7312	1862.8587	1822.6	942.4
919.8708	1864.5084	1814.6	932.3
920.0103	1866.1572	1803	922.95
920.1498	1867.8054	1807.45	925.55
920.2893	1869.4528	1802.9	921.65
920.4288	1871.0994	1803.5	922.5
920.5683	1872.7453	1802.85	920.4
920.7077	1874.3905	1816.05	915.85
920.8471	1876.0349	1790.85	910.25
920.9865	1877.6786	1796.4	912.4
921.1259	1879.3215	1796.9	915.4
921.2653	1880.9637	1800.1	917.35
921.4046	1882.6051	1788.75	906.6
921.5439	1884.2458	1784.5	901.65
921.6832	1885.8858	1786.55	902.2
921.8225	1887.525	1790.4	909.6
921.9617	1889.1634	1772.75	891.75
922.101	1890.8011	1774.6	891.1
922.2402	1892.4381	1761.05	880.1
922.3794	1894.0743	1771.5	891.45
922.5185	1895.7098	1763.6	882.45
922.6577	1897.3446	1767.35	887.3
922.7968	1898.9786	1770.35	887.35
922.9359	1900.6118	1761.05	881.95
923.075	1902.2443	1755.5	870.7
923.214	1903.8761	1762.2	877.9
923.3531	1905.5071	1745.8	861.3
923.4921	1907.1374	1750.45	867.65
923.6311	1908.7669	1744.45	863.65
923.77	1910.3957	1744.4	863.55
923.909	1912.0237	1744.55	862.6
924.0479	1913.651	1741.8	860.75
924.1868	1915.2776	1730.15	852.15
924.3257	1916.9034	1739.75	861.9
924.4646	1918.5285	1731.7	850.9
924.6034	1920.1528	1729.75	846.15
924.7422	1921.7764	1725.95	845.65
924.881	1923.3992	1718.35	835.7
925.0198	1925.0213	1716.85	834.7
925.1586	1926.6427	1713.45	833.1
925.2973	1928.2633	1817.75	831.4
925.436	1929.8832	1723.3	839.55
925.5747	1931.5023	1702.3	821.5
925.7134	1933.1207	1705.65	824.85
925.852	1934.7383	1700.85	818.7
925.9906	1936.3552	1698.75	816.15
926.1292	1937.9714	1699.35	818.1
926.2678	1939.5868	1695.75	812.3
926.4064	1941.2015	1692.15	808.85
926.5449	1942.8154	1691.6	810.5
926.6834	1944.4286	1680.3	797.6
926.8219	1946.041	1702.2	796.2
926.9604	1947.6528	1682.5	795.8
927.0988	1949.2637	1680.85	801.85
927.2372	1950.8739	1667.25	785.75
927.3756	1952.4834	1681.7	797.75
927.514	1954.0921	1670.65	787.7
927.6523	1955.7001	1668.45	782.15
927.7907	1957.3074	1667.45	786.45
927.929	1958.9139	1660.85	779.75
928.0673	1960.5197	1663.35	778.15
928.2055	1962.1247	1660.5	781.4
928.3438	1963.729	1651.5	770.25
928.482	1965.3325	1671.3	764.35
928.6202	1966.9353	1650.55	769.05
928.7584	1968.5374	1640.35	758.05
928.8965	1970.1387	1640	758.75
929.0346	1971.7393	1642.2	758.95
929.1727	1973.3392	1644	762.45
929.3108	1974.9383	1643.25	761.75
929.4489	1976.5366	1632.1	751
929.5869	1978.1342	1627.05	743.85
929.7249	1979.7311	1628.55	746.2
929.8629	1981.3273	1629.45	746.85
930.0009	1982.9227	1625.45	741.6
930.1388	1984.5173	1622.45	739.95
930.2767	1986.1112	1619.6	738.4
930.4146	1987.7044	1619	739.25
930.5525	1989.2968	1622.3	738.1
930.6904	1990.8885	1612.25	728.2
930.8282	1992.4795	1614.9	732.8
930.966	1994.0697	1612.15	728.4
931.1038	1995.6592	1609.95	729.7
931.2415	1997.2479	1600.6	718.8
931.3793	1998.8359	1598.65	716.85
931.517	2000.4232	1603.2	720
931.6547	2002.0097	1599	718.6
931.7923	2003.5955	1593	709.65
931.93	2005.1805	1592.35	709.5
932.0676	2006.7648	1591.35	710.05
932.2052	2008.3484	1592.7	707.5
932.3427	2009.9312	1594	710.6
932.4803	2011.5133	1586.35	705.9
932.6178	2013.0946	1587.95	704.6
932.7553	2014.6752	1578.15	698.5
932.8928	2016.2551	1582.25	701.1
933.0302	2017.8342	1588.8	707.85
933.1676	2019.4126	1572	691.85
933.305	2020.9902	1575.15	693.9
933.4424	2022.5672	1575.6	692.45
933.5798	2024.1433	1581.45	690.85
933.7171	2025.7188	1565.2	685.85
933.8544	2027.2935	1555.45	673.15
933.9917	2028.8674	1561	679.5
934.129	2030.4406	1568.6	687.7
934.2662	2032.0131	1557.15	675.8
934.4034	2033.5849	1560	670.1
934.5406	2035.1559	1556.75	675.8
934.6778	2036.7261	1557.15	675.9
934.8149	2038.2957	1553.95	670.5
934.952	2039.8645	1556.35	675.55
935.0891	2041.4325	1561.45	677.7
935.2262	2042.9998	1553.7	673
935.3632	2044.5664	1543.8	659.5
935.5002	2046.1323	1550.2	668
935.6372	2047.6974	1545.7	664.45
935.7742	2049.2617	1541.05	657.1
935.9111	2050.8254	1571.1	655.3
936.048	2052.3883	1549.2	664.65
936.1849	2053.9504	1540.8	659.65
936.3218	2055.5118	1544.25	661.45
936.4586	2057.0725	1540.65	652.85
936.5955	2058.6325	1532	651.6
936.7323	2060.1917	1530.35	651.7
936.869	2061.7502	1533.35	648.25
937.0058	2063.3079	1517.75	637
937.1425	2064.8649	1529.85	644.55
937.2792	2066.4212	1519.25	636.5
937.4159	2067.9767	1523.55	642.75
937.5525	2069.5315	1518.7	635.35
937.6891	2071.0856	1520.95	638.7
937.8257	2072.6389	1509.1	625.3
937.9623	2074.1915	1511.55	630.05
938.0989	2075.7433	1510.6	626.6
938.2354	2077.2945	1505.95	624
938.3719	2078.8448	1507.75	626.4
938.5084	2080.3945	1498.15	616.6
938.6448	2081.9434	1504.95	621.8
938.7812	2083.4916	1501	620.1
938.9176	2085.039	1496.25	611.85
939.054	2086.5857	1496.85	613.95
939.1903	2088.1317	1488.2	605.7
939.3267	2089.677	1489.45	606.55
939.463	2091.2215	1489.3	609.25
939.5992	2092.7652	1497.2	613.7
939.7355	2094.3083	1482.9	601.35
939.8717	2095.8506	1485.4	605.7
940.0079	2097.3921	1483.7	604.15
940.1441	2098.933	1482.75	600.85
940.2802	2100.4731	1480.75	599.55
940.4163	2102.0124	1498.4	598.2
940.5524	2103.5511	1486.5	604.05
940.6885	2105.089	1478.2	597.5
940.8245	2106.6261	1478.15	597.6
940.9606	2108.1626	1481.05	596.35
941.0965	2109.6983	1499.6	589.2
941.2325	2111.2332	1477.5	595.4
941.3684	2112.7675	1475.9	592.75
941.5044	2114.301	1470.95	586.8
941.6403	2115.8337	1472.95	591.45
941.7761	2117.3657	1462.05	580.95
941.912	2118.897	1464	583.1
942.0478	2120.4276	1468.75	581.1
942.1835	2121.9575	1459.05	577.4
942.3193	2123.4866	1475.3	579.7
942.455	2125.0149	1467.5	584.25
942.5907	2126.5426	1456.6	575.25
942.7264	2128.0695	1465.4	577.45
942.8621	2129.5956	1450.8	571.25
942.9977	2131.1211	1465.55	577.9
943.1333	2132.6458	1450.5	569.35
943.2689	2134.1698	1449.25	567.3
943.4044	2135.693	1452.45	567.05
943.54	2137.2155	1450.35	567.5
943.6755	2138.7373	1449.9	569
943.8109	2140.2584	1451.1	569
943.9464	2141.7787	1457.35	571.75
944.0818	2143.2983	1442.05	560.1
944.2172	2144.8171	1434.6	555.75
944.3526	2146.3353	1446.6	562.4
944.4879	2147.8527	1435.7	554.5
944.6232	2149.3693	1435.05	553.3
944.7585	2150.8853	1431.05	548.55
944.8938	2152.4005	1427.4	544.75
945.029	2153.9149	1435.75	553.85
945.1642	2155.4287	1431.5	549.35
945.2994	2156.9417	1429.1	544.45
945.4346	2158.454	1427.75	542.05
945.5697	2159.9655	1422.4	539.7
945.7048	2161.4764	1419	538.05
945.8399	2162.9865	1424.2	541.4
945.9749	2164.4958	1414.75	530.95
946.1099	2166.0045	1426.4	540
946.2449	2167.5124	1415.85	535.25
946.3799	2169.0195	1415.55	534.85
946.5148	2170.526	1414.85	532.35
946.6498	2172.0317	1421.35	540.85
946.7846	2173.5367	1408.95	525.8
946.9195	2175.0409	1411.75	531.5
947.0543	2176.5445	1418.8	536.9
947.1891	2178.0473	1406.65	525.9
947.3239	2179.5494	1412.1	528.8
947.4587	2181.0507	1400.8	517.15
947.5934	2182.5513	1402.75	522
947.7281	2184.0512	1397.9	517.55
947.8628	2185.5504	1403.8	521.5
947.9974	2187.0488	1397.2	516.1
948.132	2188.5465	1393	510.1
948.2666	2190.0435	1395.45	513.1
948.4012	2191.5397	1400.95	519.2
948.5357	2193.0353	1389.1	506.2
948.6702	2194.5301	1389.55	505.5
948.8047	2196.0241	1395.25	512.95
948.9392	2197.5175	1392.25	511.85
949.0736	2199.0101	1382.1	497.95
949.208	2200.502	1380.25	499.15
949.3424	2201.9931	1381.1	498.4
949.4767	2203.4835	1386.6	503.3
949.611	2204.9733	1398.75	499.3
949.7453	2206.4622	1382.1	502.2
949.8796	2207.9505	1381.55	496.85
950.0138	2209.438	1374.05	492.45
950.148	2210.9248	1381.65	499.85
950.2822	2212.4109	1374	491.25
950.4164	2213.8962	1380.25	496
950.5505	2215.3809	1371	489.2
950.6846	2216.8648	1365.5	484.5
950.8186	2218.3479	1368.6	484.65
950.9527	2219.8304	1371.25	486.1
951.0867	2221.3121	1371.3	487.1
951.2207	2222.7931	1356.05	474.45
951.3546	2224.2733	1360.4	476.5
951.4886	2225.7529	1354.25	471.3
951.6225	2227.2317	1356.7	472.35
951.7563	2228.7098	1353.8	473.55
951.8902	2230.1872	1352.65	471.2
952.024	2231.6638	1349.55	468
952.1578	2233.1397	1351.95	465.4
952.2916	2234.6149	1344.5	463.8
952.4253	2236.0894	1346.85	464.55
952.559	2237.5632	1359.3	467.2
952.6927	2239.0362	1345.9	461.55
952.8263	2240.5085	1345.2	463.1
952.9599	2241.9801	1337.75	453.8
953.0935	2243.4509	1338.3	459
953.2271	2244.921	1338.55	456.95
953.3606	2246.3904	1340.3	455.9
953.4941	2247.8591	1340.5	460.7
953.6276	2249.3271	1330.45	449.55
953.7611	2250.7943	1332.65	448.45
953.8945	2252.2608	1329.4	447.45
954.0279	2253.7266	1328.65	446.85
954.1612	2255.1917	1323.6	443.2
954.2946	2256.656	1325.85	442.5
954.4279	2258.1197	1318.05	436.15
954.5612	2259.5826	1323.4	439.3
954.6944	2261.0447	1323.9	439.35
954.8276	2262.5062	1316.7	434.2
954.9608	2263.9669	1319.5	435.15
955.094	2265.4269	1321.7	439.85
955.2271	2266.8862	1318.35	434.65
955.3602	2268.3448	1316.45	431.65
955.4933	2269.8026	1317.5	433.9
955.6264	2271.2598	1317.25	435.35
955.7594	2272.7162	1309.35	427.3
955.8924	2274.1719	1305.75	421.65
956.0253	2275.6268	1311.75	429.35
956.1583	2277.0811	1308.45	427.2
956.2912	2278.5346	1305.35	424.9
956.4241	2279.9874	1311.75	429.15
956.5569	2281.4395	1307.85	428.2
956.6897	2282.8908	1314.45	427.75
956.8225	2284.3414	1303	420.1
956.9553	2285.7914	1306.2	424.4
957.088	2287.2406	1306	421.1
957.2207	2288.689	1308.75	426.15
957.3534	2290.1368	1304.25	419.45
957.486	2291.5838	1300.45	417.3
957.6186	2293.0302	1300.95	419.5
957.7512	2294.4758	1302.05	419.9
957.8838	2295.9206	1299.15	415.45
958.0163	2297.3648	1295.4	413.35
958.1488	2298.8082	1294.2	408.3
958.2813	2300.251	1295.3	413.3
958.4137	2301.693	1295.8	411.6
958.5461	2303.1343	1296.35	413.2
958.6785	2304.5748	1284.2	402.9
958.8108	2306.0147	1287.8	406.45
958.9432	2307.4538	1294.65	408.45
959.0754	2308.8922	1278.45	397.75
959.2077	2310.3299	1285.7	405
959.3399	2311.7669	1290	409.3
959.4721	2313.2031	1286.3	404.1
959.6043	2314.6387	1278	396.8
959.7365	2316.0735	1285	403.15
959.8686	2317.5076	1284.35	402
960.0006	2318.941	1275.45	394.75
960.1327	2320.3737	1272.1	390
960.2647	2321.8056	1276.75	393.3
960.3967	2323.2369	1275.4	392.15
960.5287	2324.6674	1278.9	394.5
960.6606	2326.0972	1277.5	395.65
960.7925	2327.5263	1273.95	391.65
960.9244	2328.9547	1277.05	394.55
961.0562	2330.3823	1273.25	391.9
961.1881	2331.8092	1273.95	388.45
961.3198	2333.2355	1270.25	388.5
961.4516	2334.661	1269.6	387.55
961.5833	2336.0858	1270.7	386.15
961.715	2337.5098	1269.4	387.55
961.8467	2338.9332	1264.3	381.6
961.9783	2340.3558	1263.4	377.1
962.1099	2341.7778	1260.85	378.45
962.2415	2343.199	1260.55	374.5
962.373	2344.6195	1262.4	380.65
962.5045	2346.0393	1264	384.9
962.636	2347.4583	1261.45	378.55
962.7675	2348.8767	1259.3	376.15
962.8989	2350.2943	1260.7	378.5
963.0303	2351.7113	1256.25	371.7
963.1617	2353.1275	1255.15	372.8
963.293	2354.543	1267.45	376.65
963.4243	2355.9578	1259.6	378.25
963.5556	2357.3718	1254.1	371.9
963.6868	2358.7852	1249.15	366.1
963.818	2360.1978	1249.25	367.05
963.9492	2361.6098	1252.75	371.95
964.0803	2363.021	1255.6	369.45
964.2114	2364.4315	1249.25	367.85
964.3425	2365.8413	1247.95	365.1
964.4736	2367.2504	1246.4	365.25
964.6046	2368.6587	1241.3	359.5
964.7356	2370.0664	1240.45	359.9
964.8666	2371.4733	1244.75	360.6
964.9975	2372.8795	1242.85	361.6
965.1284	2374.285	1232.45	348.3
965.2593	2375.6899	1237.5	355.65
965.3901	2377.0939	1238.65	356.4
965.5209	2378.4973	1235.65	354.3
965.6517	2379.9	1235.95	354.25
965.7825	2381.3019	1241.7	360.05
965.9132	2382.7032	1232.55	351.35
966.0439	2384.1037	1229.75	350.7
966.1745	2385.5035	1228.6	346.05
966.3051	2386.9027	1235.45	354.45
966.4357	2388.3011	1231.25	347.25
966.5663	2389.6987	1227.25	345.05
966.6968	2391.0957	1228.25	346.6
966.8273	2392.492	1222.4	338.9
966.9578	2393.8876	1223.1	340.4
967.0882	2395.2824	1220.25	338.65
967.2186	2396.6765	1216.1	334.1
967.349	2398.07	1215.6	334.8
967.4793	2399.4627	1217.8	334.95
967.6097	2400.8547	1216.5	335.3
967.7399	2402.246	1220.4	333.2
967.8702	2403.6366	1217.8	334.2
968.0004	2405.0265	1213.6	333.3
968.1306	2406.4156	1219.4	333.6
968.2607	2407.8041	1214.2	327.7
968.3909	2409.1918	1215.65	331.4
968.521	2410.5789	1207.5	324.35
968.651	2411.9652	1215.7	332.5
968.781	2413.3508	1207.2	325.85
968.911	2414.7358	1207.8	325.7
969.041	2416.12	1201.85	320.35
969.1709	2417.5035	1210.2	328.95
969.3008	2418.8863	1204.85	324.55
969.4307	2420.2684	1205.55	324.25
969.5606	2421.6497	1202.55	319.85
969.6904	2423.0304	1197.35	316.9
969.8201	2424.4104	1202.7	320
969.9499	2425.7896	1203.85	316.65
970.0796	2427.1682	1203.15	321.9
970.2093	2428.546	1199.7	317.6
970.3389	2429.9232	1195.2	312
970.4685	2431.2996	1192.8	313.2
970.5981	2432.6753	1196.5	313.9
970.7277	2434.0503	1195.45	313.75
970.8572	2435.4246	1193.8	310.65
970.9867	2436.7982	1191.1	307.3
971.1161	2438.1711	1189.45	307.45
971.2456	2439.5433	1190.5	308.4
971.375	2440.9148	1191.15	305.5
971.5043	2442.2856	1183.35	302.2
971.6336	2443.6557	1184.25	301.5
971.7629	2445.025	1181.3	300.25
971.8922	2446.3937	1186.55	306.05
972.0214	2447.7617	1187.95	304.9
972.1506	2449.1289	1179.6	297.2
972.2798	2450.4955	1186.1	298.6
972.4089	2451.8613	1176.25	294.25
972.538	2453.2265	1179.15	298.45
972.6671	2454.5909	1182.9	300.2
972.7961	2455.9546	1175	293.05
972.9251	2457.3177	1176.35	294.8
973.0541	2458.68	1179.1	298.2
973.1831	2460.0416	1179.05	296.5
973.312	2461.4025	1178.1	295.2
973.4408	2462.7627	1192.2	300.75
973.5697	2464.1222	1175.65	295.95
973.6985	2465.4811	1177	294.05
973.8273	2466.8392	1171.5	286.95
973.956	2468.1966	1180.35	298.3
974.0847	2469.5533	1175.8	291.8
974.2134	2470.9093	1178.3	295.65
974.3421	2472.2645	1174.8	289.95
974.4707	2473.6191	1169.65	287
974.5993	2474.973	1170.25	290.2
974.7278	2476.3262	1166.7	284.6
974.8563	2477.6787	1170.75	289.45
974.9848	2479.0305	1165.3	284.9
975.1132	2480.3816	1173.45	288.8
975.2417	2481.7319	1169.15	287.85
975.37	2483.0816	1162.6	277.35
975.4984	2484.4306	1170.1	285.95
975.6267	2485.7789	1164.25	282.35
975.755	2487.1264	1167.1	282.7
975.8833	2488.4733	1160.6	282.2
976.0115	2489.8195	1177.05	276.95
976.1397	2491.165	1164.7	280.25
976.2678	2492.5097	1165.75	282
976.3959	2493.8538	1164.35	283.35
976.524	2495.1972	1163.75	282.45
976.6521	2496.5398	1156.2	273.7
976.7801	2497.8818	1160.3	275.75
976.9081	2499.2231	1156.45	277.1
977.036	2500.5637	1158.35	275.4
977.164	2501.9035	1155.3	272.15
977.2918	2503.2427	1154.3	266.8
977.4197	2504.5812	1156.65	273.4
977.5475	2505.919	1149.85	267.9
977.6753	2507.256	1155.9	273.4
977.8031	2508.5924	1147.95	263.8
977.9308	2509.9281	1154.05	267.25
978.0585	2511.2631	1151.8	270.2
978.1861	2512.5974	1151.25	271.15
978.3137	2513.9309	1147.5	266.35
978.4413	2515.2638	1180.65	269.45
978.5689	2516.596	1148.6	266.55
978.6964	2517.9275	1144.55	260.95
978.8239	2519.2583	1142.55	261.55
978.9513	2520.5884	1142.6	259.05
979.0788	2521.9178	1140.1	257.6
979.2062	2523.2465	1144.35	263.9
979.3335	2524.5745	1145.05	261.9
979.4608	2525.9018	1136.85	256.6
979.5881	2527.2284	1146.05	264.05
979.7154	2528.5543	1138.45	258.3
979.8426	2529.8796	1138.7	258.55
979.9698	2531.2041	1141.95	259.9
980.0969	2532.5279	1139.7	258.55
980.224	2533.851	1140.25	257.7
980.3511	2535.1735	1134.65	255
980.4781	2536.4952	1132.6	249.6
980.6052	2537.8163	1139.2	256.05
980.7321	2539.1366	1135	255.5
980.8591	2540.4562	1133.1	247.55
980.986	2541.7752	1137.65	254.3
981.1129	2543.0935	1134.95	251.75
981.2397	2544.411	1138.6	254.75
981.3665	2545.7279	1136.25	255.4
981.4933	2547.0441	1133.75	254.55
981.62	2548.3596	1135.85	251.35
981.7467	2549.6744	1138.4	256.7
981.8734	2550.9885	1141.4	249.5
982.0001	2552.3019	1129.8	251
982.1267	2553.6146	1130.95	249.5
982.2532	2554.9266	1131.75	251.4
982.3798	2556.2379	1129.55	247.1
982.5063	2557.5485	1130.7	250.4
982.6327	2558.8585	1135.5	245.4
982.7592	2560.1677	1135.65	249.3
982.8856	2561.4762	1124.25	242.15
983.0119	2562.7841	1130.8	246.2
983.1383	2564.0913	1124.25	241.1
983.2646	2565.3977	1124.45	242.05
983.3908	2566.7035	1125.2	244.35
983.517	2568.0086	1125.65	240.65
983.6432	2569.313	1127.55	246.25
983.7694	2570.6167	1129.2	242.7
983.8955	2571.9197	1124.25	243.8
984.0216	2573.222	1124.5	238.4
984.1476	2574.5236	1122.2	239.4
984.2737	2575.8246	1128.35	243.4
984.3996	2577.1248	1125.9	242.15
984.5256	2578.4244	1121	240.05
984.6515	2579.7232	1124.5	242.15
984.7774	2581.0214	1159.3	245.2
984.9032	2582.3189	1124.1	244.85
985.029	2583.6157	1124.75	239.15
985.1548	2584.9118	1124.5	242.4
985.2806	2586.2072	1124.55	243.95
985.4063	2587.5019	1123.35	241
985.5319	2588.7959	1121.95	240.9
985.6576	2590.0893	1125.05	240.5
985.7832	2591.3819	1120.1	239.85
985.9087	2592.6739	1123.05	240.85
986.0343	2593.9652	1127.4	243.3
986.1597	2595.2557	1120.95	240.8
986.2852	2596.5456	1124.15	240.55
986.4106	2597.8348	1120.1	241.4
986.536	2599.1234	1119.5	238.6
986.6614	2600.4112	1122.7	239.6
986.7867	2601.6983	1124.65	240.05
986.912	2602.9848	1117.35	233.8
987.0372	2604.2705	1127.3	237.4
987.1624	2605.5556	1120.55	238.45
987.2876	2606.84	1121.05	238.3
987.4128	2608.1237	1124.7	242.6
987.5379	2609.4067	1119.8	237.7
987.6629	2610.689	1126.95	234.85
987.788	2611.9707	1118.05	232.9
987.913	2613.2516	1118.9	233.2
988.0379	2614.5319	1113.45	232.1
988.1629	2615.8115	1114.85	233.45
988.2878	2617.0903	1115.45	232.2
988.4126	2618.3685	1109.45	228.05
988.5375	2619.6461	1117.25	236.55
988.6622	2620.9229	1107.65	226.45
988.787	2622.199	1108.95	226.95
988.9117	2623.4745	1108.2	226.95
989.0364	2624.7493	1110.4	228.35
989.161	2626.0234	1109.4	227.8
989.2857	2627.2968	1107.7	227.05
989.4102	2628.5695	1110.35	226.4
989.5348	2629.8415	1105.15	223.8
989.6593	2631.1128	1105.75	223.75
989.7837	2632.3835	1107.4	225.15
989.9082	2633.6535	1105.55	225.35
990.0326	2634.9228	1103.25	221.35
990.1569	2636.1914	1103.95	223.15
990.2812	2637.4593	1106.6	223.65
990.4055	2638.7265	1104.75	222.2
990.5298	2639.9931	1103.55	223.7
990.654	2641.259	1104.6	222.35
990.7782	2642.5242	1103.2	221.6
990.9023	2643.7887	1100.4	218.25
991.0264	2645.0525	1104.05	224.15
991.1505	2646.3156	1100.6	217.2
991.2745	2647.5781	1100.85	220.35
991.3985	2648.8398	1100.15	218.05
991.5225	2650.1009	1137.6	218.6
991.6464	2651.3613	1096.5	216.15
991.7703	2652.6211	1097.6	216.6
991.8942	2653.8801	1092.45	212.3
992.018	2655.1385	1102.3	214.5
992.1418	2656.3961	1093.35	213.55
992.2655	2657.6531	1095.9	216
992.3892	2658.9094	1096.5	215.15
992.5129	2660.1651	1095.1	215.25
992.6366	2661.42	1094.85	212.55
992.7602	2662.6743	1100.9	219.2
992.8837	2663.9279	1100.25	218.85
993.0073	2665.1808	1098.95	215.1
993.1307	2666.433	1101.15	219.3
993.2542	2667.6846	1097.75	216.35
993.3776	2668.9354	1103.8	217.65
993.501	2670.1856	1099.4	215.65
993.6244	2671.4351	1098.85	217.25
993.7477	2672.6839	1104.7	221.9
993.8709	2673.9321	1100.95	219.65
993.9942	2675.1795	1103.8	221.05
994.1174	2676.4263	1100.25	219.1
994.2405	2677.6724	1099.45	218.2
994.3637	2678.9179	1102.4	219.5
994.4868	2680.1626	1104.05	223.7
994.6098	2681.4067	1104.15	222.4
994.7328	2682.6501	1106.85	225.5
994.8558	2683.8928	1099.5	217.75
994.9788	2685.1348	1096.9	216.15
995.1017	2686.3761	1099.05	216.8
995.2245	2687.6168	1093.95	211.8
995.3474	2688.8568	1094.6	212.75
995.4702	2690.0961	1092.1	209.4
995.5929	2691.3348	1095.45	215.85
995.7156	2692.5727	1090.25	207.65
995.8383	2693.81	1086.55	206.75
995.961	2695.0466	1089.4	210.3
996.0836	2696.2826	1089.25	204.95
996.2062	2697.5178	1097.2	213.7
996.3287	2698.7524	1091.5	210.35
996.4512	2699.9863	1089.95	204.65
996.5737	2701.2195	1085.8	206.75
996.6961	2702.452	1096.4	212.55
996.8185	2703.6839	1096.05	213.95
996.9408	2704.9151	1094.8	215.35
997.0631	2706.1456	1098.85	216.7
997.1854	2707.3755	1098.7	217.8
997.3077	2708.6046	1103.05	221.25
997.4299	2709.8331	1102.75	222.65
997.552	2711.0609	1102.4	219.65
997.6742	2712.2881	1108.8	228.25
997.7963	2713.5145	1108.9	224.55
997.9183	2714.7403	1108.35	228.2
998.0403	2715.9654	1116.45	232.9
998.1623	2717.1899	1136.5	239.55
998.2842	2718.4136	1124.65	242.4
998.4062	2719.6367	1129.85	248.55
998.528	2720.8591	1133.45	244.1
998.6498	2722.0809	1131.9	248.55
998.7716	2723.3019	1141.95	260.25
998.8934	2724.5223	1144.1	260.85
999.0151	2725.7421	1147.8	264.75
999.1368	2726.9611	1146.6	261.2
999.2584	2728.1795	1148	262.8
999.38	2729.3972	1137.45	255.95
999.5016	2730.6142	1145.9	247.4
999.6231	2731.8306	1132.6	249.4
999.7446	2733.0462	1126.35	244.2
999.8661	2734.2612	1123.8	237.1
999.9875	2735.4756	1118.85	237.8
1000.1089	2736.6892	1110.45	227.25
1000.2302	2737.9022	1104.5	225.05
1000.3515	2739.1145	1102.7	220.05
1000.4728	2740.3262	1104.9	214
1000.594	2741.5372	1089.25	208.85
1000.7152	2742.7475	1091.3	208.35
1000.8363	2743.9571	1089.35	206.25
1000.9575	2745.1661	1089.6	202
1001.0785	2746.3744	1077.15	194.35
1001.1996	2747.582	1076.6	194.65
1001.3206	2748.7889	1074.4	187.65
1001.4415	2749.9952	1069.35	187.85
1001.5625	2751.2008	1069.8	186
1001.6833	2752.4057	1069.4	185.95
1001.8042	2753.61	1071.95	189
1001.925	2754.8136	1068.5	184.2
1002.0458	2756.0165	1066.5	186.75
1002.1665	2757.2188	1063.3	182.05
1002.2872	2758.4204	1066.5	184.65
1002.4078	2759.6213	1071.95	188.5
1002.5285	2760.8215	1072.05	183.9
1002.649	2762.0211	1069.25	185.4
1002.7696	2763.22	1070.45	185.95
1002.8901	2764.4182	1061.9	176.85
1003.0106	2765.6158	1061.15	180.85
1003.131	2766.8127	1061.35	177.5
1003.2514	2768.009	1060.25	177.65
1003.3717	2769.2045	1058.3	176.55
1003.492	2770.3994	1062.8	178.55
1003.6123	2771.5936	1059.95	178.05
1003.7325	2772.7872	1054.45	172.45
1003.8527	2773.9801	1058.1	174.65
1003.9729	2775.1723	1072.05	173.2
1004.093	2776.3639	1053.45	172.25
1004.2131	2777.5548	1053.5	170.7
1004.3331	2778.745	1052.3	168.2
1004.4531	2779.9346	1055.2	172.75
1004.5731	2781.1235	1055.25	170.2
1004.693	2782.3117	1054.45	171.95
1004.8129	2783.4992	1053.4	172.95
1004.9328	2784.6861	1056.1	174.95
1005.0526	2785.8723	1062.35	179.75
1005.1723	2787.0579	1059.15	176.6
1005.2921	2788.2428	1057.7	176.1
1005.4118	2789.427	1059.25	177.8
1005.5314	2790.6106	1061.15	180.2
1005.651	2791.7935	1065.7	183.2
1005.7706	2792.9757	1062.55	182.4
1005.8902	2794.1573	1070.05	185.6
1006.0097	2795.3382	1072.45	192.05
1006.1291	2796.5184	1074.8	195.35
1006.2485	2797.698	1081.6	198.75
1006.3679	2798.8769	1082.45	201.55
1006.4873	2800.0551	1089.75	207.25
1006.6066	2801.2327	1090.9	205.8
1006.7258	2802.4096	1097.75	216
1006.8451	2803.5859	1099.1	215.35
1006.9642	2804.7615	1105.45	222.8
1007.0834	2805.9364	1109.65	229.15
1007.2025	2807.1106	1113.85	231.65
1007.3216	2808.2842	1123.05	240.8
1007.4406	2809.4572	1133.25	252.6
1007.5596	2810.6294	1151.05	268
1007.6785	2811.801	1155.75	274
1007.7975	2812.972	1168.75	287.6
1007.9163	2814.1423	1187.85	306.15
1008.0352	2815.3119	1195.7	311.5
1008.154	2816.4808	1214	333.75
1008.2727	2817.6491	1234.4	353.3
1008.3914	2818.8167	1239.9	359.35
1008.5101	2819.9837	1270.05	385.35
1008.6288	2821.15	1287.45	404.3
1008.7474	2822.3157	1303.35	423.85
1008.8659	2823.4807	1315.95	433.7
1008.9844	2824.645	1339.8	456.6
1009.1029	2825.8086	1369	488.1
1009.2214	2826.9716	1374.1	493.5
1009.3398	2828.134	1394.65	513.55
1009.4581	2829.2957	1415.4	533.3
1009.5764	2830.4567	1426.25	546.9
1009.6947	2831.617	1437.2	555.05
1009.813	2832.7767	1439.3	558.2
1009.9312	2833.9358	1439.45	560.65
1010.0493	2835.0941	1436.5	551.6
1010.1675	2836.2519	1427.8	546.1
1010.2855	2837.4089	1429.3	547.4
1010.4036	2838.5653	1409.8	529.15
1010.5216	2839.7211	1414	536.05
1010.6396	2840.8761	1410.8	527.55
1010.7575	2842.0306	1416	537.05
1010.8754	2843.1843	1414.45	532.8
1010.9932	2844.3374	1433.9	552.3
1011.111	2845.4899	1442.7	559.9
1011.2288	2846.6417	1458.25	575.7
1011.3465	2847.7928	1478.1	597.85
1011.4642	2848.9433	1503.7	621.5
1011.5818	2850.0931	1529.5	649.2
1011.6995	2851.2422	1541.7	656.1
1011.817	2852.3907	1557.5	676.4
1011.9345	2853.5385	1581.1	698.25
1012.052	2854.6857	1622.15	714
1012.1695	2855.8323	1617.35	736.65
1012.2869	2856.9781	1626.8	744.5
1012.4042	2858.1233	1647.05	765.25
1012.5216	2859.2679	1673.15	790.6
1012.6389	2860.4118	1681.85	799.35
1012.7561	2861.555	1702.05	814.9
1012.8733	2862.6976	1712.1	828.3
1012.9905	2863.8395	1726.5	846.35
1013.1076	2864.9808	1738.9	857.5
1013.2247	2866.1214	1743.7	863.8
1013.3417	2867.2614	1746.95	863.65
1013.4587	2868.4007	1759	877.55
1013.5757	2869.5393	1760	876.55
1013.6926	2870.6773	1770.55	884.75
1013.8095	2871.8146	1776.5	892.6
1013.9263	2872.9513	1766.8	882.05
1014.0431	2874.0874	1758.85	878.6
1014.1599	2875.2227	1761.05	877.2
1014.2766	2876.3574	1753.15	870.95
1014.3933	2877.4915	1742.4	860.85
1014.51	2878.6249	1735.45	854.4
1014.6266	2879.7577	1729.15	845.75
1014.7431	2880.8898	1733.4	840.9
1014.8596	2882.0212	1720.1	840.45
1014.9761	2883.152	1717.75	836.7
1015.0925	2884.2821	1711.05	830.7
1015.2089	2885.4116	1708.45	826.8
1015.3253	2886.5405	1704	823.15
1015.4416	2887.6686	1706.8	821.5
1015.5579	2888.7962	1714.75	834.05
1015.6741	2889.923	1710	829.7
1015.7903	2891.0493	1719.25	838.15
1015.9065	2892.1748	1725.25	843.15
1016.0226	2893.2997	1727.8	844.55
1016.1387	2894.424	1732.75	852.5
1016.2547	2895.5476	1737.1	855.6
1016.3707	2896.6706	1737.4	857.15
1016.4866	2897.7929	1742.85	861.65
1016.6025	2898.9145	1758.15	876.9
1016.7184	2900.0355	1765.7	884.35
1016.8342	2901.1559	1779.95	896.3
1016.95	2902.2756	1783.15	901.1
1017.0658	2903.3946	1796.15	914.75
1017.1815	2904.513	1807.2	922.4
1017.2971	2905.6308	1812.05	930.9
1017.4127	2906.7479	1825.65	943.5
1017.5283	2907.8643	1833.8	948.95
1017.6439	2908.9801	1828.95	947.8
1017.7594	2910.0953	1824.7	941.1
1017.8748	2911.2098	1838.55	952.85
1017.9902	2912.3236	1840.6	952.05
1018.1056	2913.4368	1824.9	938.55
1018.2209	2914.5494	1825.1	943.4
1018.3362	2915.6613	1806.9	919.45
1018.4515	2916.7725	1793.35	909.3
1018.5667	2917.8831	1780.75	896.75
1018.6819	2918.9931	1780.95	899.8
1018.797	2920.1024	1762.45	879.3
1018.9121	2921.211	1751.75	871.2
1019.0271	2922.319	1748.9	866.8
1019.1421	2923.4264	1747.3	867.15
1019.2571	2924.5331	1747.95	866.3
1019.372	2925.6391	1740.1	859.65
1019.4869	2926.7445	1741.2	862.1
1019.6017	2927.8493	1740.95	858.55
1019.7165	2928.9534	1746.5	864.2
1019.8313	2930.0569	1754.05	869.85
1019.946	2931.1597	1749.35	866.35
1020.0606	2932.2619	1752.05	869.05
1020.1753	2933.3634	1750.2	870.75
1020.2899	2934.4643	1758.05	869.5
1020.4044	2935.5645	1747.35	859.5
1020.5189	2936.6641	1748.65	861.7
1020.6334	2937.763	1731.9	850.95
1020.7478	2938.8613	1730.75	849.05
1020.8622	2939.959	1714	826.55
1020.9765	2941.056	1679.25	796.3
1021.0908	2942.1523	1664.7	783.2
1021.2051	2943.248	1644.8	763.1
1021.3193	2944.3431	1615.3	734.65
1021.4334	2945.4375	1583.7	702.1
1021.5476	2946.5313	1550.85	669.7
1021.6617	2947.6244	1514.35	631.8
1021.7757	2948.7169	1485	601.85
1021.8897	2949.8087	1452.65	571.85
1022.0037	2950.8999	1423.85	540.8
1022.1176	2951.9904	1394.1	513.6
1022.2315	2953.0803	1372.85	488.9
1022.3453	2954.1696	1348.85	467.15
1022.4591	2955.2582	1335	453.15
1022.5728	2956.3462	1319.8	438.2
1022.6865	2957.4335	1311.65	427.65
1022.8002	2958.5202	1295.85	410.8
1022.9138	2959.6062	1297.25	416.1
1023.0274	2960.6916	1285.15	403.4
1023.141	2961.7764	1279.3	397.1
1023.2545	2962.8605	1271.6	389
1023.3679	2963.9439	1264.8	384.25
1023.4813	2965.0267	1258.25	377.5
1023.5947	2966.1089	1275.85	368.4
1023.708	2967.1905	1258.75	377.15
1023.8213	2968.2714	1260.35	378.6
1023.9346	2969.3516	1256	376.25
1024.0478	2970.4312	1265.75	375.05
1024.1609	2971.5102	1253.35	370.75
1024.274	2972.5885	1260.2	379.35
1024.3871	2973.6662	1269	382.1
1024.5002	2974.7432	1265.25	384
1024.6132	2975.8196	1256.5	377.85
1024.7261	2976.8954	1261.3	379.6
1024.839	2977.9705	1255.25	373.2
1024.9519	2979.045	1254.55	373.3
1025.0647	2980.1188	1253.35	373.45
1025.1775	2981.192	1241.4	361.25
1025.2902	2982.2645	1241.45	357.3
1025.4029	2983.3364	1223.1	341.8
1025.5156	2984.4077	1217.4	337.35
1025.6282	2985.4783	1220.95	333.85
1025.7407	2986.5483	1198.9	318.3
1025.8532	2987.6177	1190.15	307.8
1025.9657	2988.6864	1177.45	294.9
1026.0782	2989.7545	1166.9	281.55
1026.1906	2990.8219	1159.2	277.35
1026.3029	2991.8887	1149.6	267
1026.4152	2992.9548	1135.55	251.9
1026.5275	2994.0204	1123.05	243.05
1026.6397	2995.0852	1113.25	232.2
1026.7519	2996.1495	1104.75	220.6
1026.864	2997.2131	1093.3	211.85
1026.9761	2998.276	1088	206.4
1027.0882	2999.3383	1080.15	197.4
1027.2002	3000.4	1071.1	189.2
1027.3122	3001.4611	1062.1	180.7
1027.4241	3002.5215	1063.15	180.7
1027.536	3003.5812	1055	174.85
1027.6478	3004.6404	1050.25	168.25
1027.7596	3005.6989	1048.25	165.65
1027.8714	3006.7567	1042.7	161.15
1027.9831	3007.8139	1063.55	155.55
1028.0947	3008.8705	1034.95	153.45
1028.2064	3009.9264	1047.2	148.15
1028.3179	3010.9818	1029.3	148.2
1028.4295	3012.0364	1027.3	145
1028.541	3013.0905	1027.3	146.15
1028.6524	3014.1439	1025.35	144.2
1028.7638	3015.1966	1019.35	138.45
1028.8752	3016.2487	1019.7	139.45
1028.9865	3017.3002	1026.1	138.8
1029.0978	3018.3511	1016.35	137.5
1029.209	3019.4013	1013.65	131.45
1029.3202	3020.4509	1016.4	135.7
1029.4314	3021.4998	1015.95	132.5
1029.5425	3022.5481	1014.1	132.15
1029.6535	3023.5958	1011.4	129.25
1029.7645	3024.6428	1012.9	131.55
1029.8755	3025.6892	1010.75	130.1
1029.9864	3026.735	1009.4	129.85
1030.0973	3027.7802	1013.35	133.05
1030.2082	3028.8247	1013.55	131.5
1030.319	3029.8685	1014.2	131.9
1030.4297	3030.9118	1015.2	132.3
1030.5404	3031.9544	1014.05	134.65
1030.6511	3032.9963	1012.75	129.75
1030.7617	3034.0376	1016.85	134.45
1030.8723	3035.0783	1021.45	138.65
1030.9829	3036.1184	1019.75	137.6
1031.0934	3037.1578	1016.85	137.75
1031.2038	3038.1966	1020.65	135.65
1031.3142	3039.2348	1018.85	138.65
1031.4246	3040.2723	1029.7	138.55
1031.5349	3041.3092	1014.05	133.05
1031.6452	3042.3455	1016.85	135.55
1031.7554	3043.3811	1015.9	134.15
1031.8656	3044.4161	1013.6	129.7
1031.9758	3045.4505	1019.8	138.65
1032.0859	3046.4842	1017.15	134.4
1032.1959	3047.5173	1015.3	136.75
1032.3059	3048.5498	1013.3	132.1
1032.4159	3049.5816	1013.7	134.55
1032.5258	3050.6128	1012.35	128.6
1032.6357	3051.6434	1007.95	126
1032.7455	3052.6734	1011.8	129
1032.8553	3053.7027	1006.75	126.7
1032.9651	3054.7314	1009.05	127.2
1033.0748	3055.7594	1006.35	126
1033.1845	3056.7868	1005.2	120.8
1033.2941	3057.8136	1007.75	127.15
1033.4037	3058.8398	1003.05	123.05
1033.5132	3059.8653	1005.15	123.45
1033.6227	3060.8902	1006.2	125.75
1033.7321	3061.9145	1004.7	122.6
1033.8415	3062.9381	1002.85	120.3
1033.9509	3063.9612	1015.35	118.3
1034.0602	3064.9835	1001.4	120.2
1034.1694	3066.0053	1004.35	119.2
1034.2787	3067.0264	994.35	113.3
1034.3878	3068.0469	995.8	112.7
1034.497	3069.0668	999.25	113.25
1034.6061	3070.086	993.2	113.2
1034.7151	3071.1046	999.5	117.55
1034.8241	3072.1226	992.85	110.4
1034.9331	3073.1399	990.05	109.65
1035.042	3074.1567	984.8	103
1035.1508	3075.1727	985.9	100.7
1035.2597	3076.1882	980.2	96.65
1035.3684	3077.203	982.6	101.2
1035.4772	3078.2173	975.65	92.45
1035.5859	3079.2308	981.4	97.75
1035.6945	3080.2438	974.35	90.8
1035.8031	3081.2561	971.75	89.55
1035.9117	3082.2678	966.4	84.8
1036.0202	3083.2789	968.5	86.8
1036.1286	3084.2893	967.05	87.15
1036.2371	3085.2991	961.6	79.9
1036.3454	3086.3083	968.3	82.15
1036.4538	3087.3169	961.75	77.75
1036.562	3088.3248	959.65	75.85
1036.6703	3089.3321	962.5	79.4
1036.7785	3090.3388	955.6	74.8
1036.8866	3091.3449	954.55	72.35
1036.9948	3092.3503	953.7	70.6
1037.1028	3093.3551	952.85	70.45
1037.2108	3094.3593	951.1	70.8
1037.3188	3095.3629	949.7	69.1
1037.4267	3096.3658	951.7	70.25
1037.5346	3097.3681	948.3	66.6
1037.6425	3098.3698	946.5	62.9
1037.7503	3099.3708	953.65	64.8
1037.858	3100.3713	947.1	67.1
1037.9657	3101.3711	948.75	65.15
1038.0734	3102.3702	1083.7	63.75
1038.181	3103.3688	948.3	63.6
1038.2886	3104.3667	941.5	60.95
1038.3961	3105.364	940.15	58
1038.5036	3106.3607	943.55	57.45
1038.611	3107.3568	940.95	58.15
1038.7184	3108.3522	939.2	57.9
1038.8257	3109.347	938.95	57.6
1038.933	3110.3412	941.9	55.95
1039.0403	3111.3348	940	58.9
1039.1475	3112.3277	939.75	57.35
1039.2547	3113.32	934.45	54.75
1039.3618	3114.3117	938.95	55.3
1039.4689	3115.3028	935.35	53.9
1039.5759	3116.2932	939.95	56.75
1039.6829	3117.2831	937.4	51.85
1039.7898	3118.2723	936.9	55.85
1039.8967	3119.2608	933.9	50.9
1040.0035	3120.2488	930.4	48.75
1040.1103	3121.2361	931.8	50.05
1040.2171	3122.2229	930.8	49.5
1040.3238	3123.209	934.5	53.25
1040.4305	3124.1944	931.7	49.4
1040.5371	3125.1793	930.3	48.45
1040.6437	3126.1635	926.85	46.75
1040.7502	3127.1471	926.65	45.9
1040.8567	3128.1301	925.35	44.15
1040.9631	3129.1125	928.85	47
1041.0695	3130.0942	926.15	44.55
1041.1759	3131.0753	939.7	49.7
1041.2822	3132.0558	928.55	45.8
1041.3884	3133.0357	926.1	44.4
1041.4946	3134.015	931.6	49.25
1041.6008	3134.9936	928.9	46.75
1041.7069	3135.9716	946.4	43.65
1041.813	3136.949	923.15	41.85
1041.919	3137.9258	944.15	42.45
1042.025	3138.902	930.1	45
1042.1309	3139.8775	923.25	40.9
1042.2368	3140.8524	923.9	45.05
1042.3427	3141.8267	924.95	41.05
1042.4485	3142.8004	923.25	41.25
1042.5542	3143.7735	929	40.2
1042.6599	3144.7459	925.6	43.45
1042.7656	3145.7178	925.3	42.7
1042.8712	3146.689	922	42.25
1042.9768	3147.6596	924.25	40.8
1043.0823	3148.6295	921.35	40.3
1043.1878	3149.5989	919.95	37.95
1043.2932	3150.5676	917.6	37.75
1043.3986	3151.5357	919.35	37.7
1043.5039	3152.5032	920.35	40.7
1043.6092	3153.4701	922.05	40.95
1043.7145	3154.4364	921.95	37.3
1043.8197	3155.402	919.15	38.25
1043.9248	3156.367	921	36.2
1044.03	3157.3315	940.05	36.85
1044.135	3158.2952	920.25	38.55
1044.24	3159.2584	919	37.8
1044.345	3160.221	918.3	38
1044.4499	3161.1829	915.75	34.05
1044.5548	3162.1442	917	38.2
1044.6596	3163.105	917.4	36.4
1044.7644	3164.065	918.15	37.25
1044.8692	3165.0245	919.35	36.7
1044.9739	3165.9834	918.75	36.6
1045.0785	3166.9416	917.15	34.6
1045.1831	3167.8993	916.15	35.4
1045.2877	3168.8563	917.8	36.25
1045.3922	3169.8127	914.75	34
1045.4966	3170.7684	914.3	32.2
1045.6011	3171.7236	913.5	33.1
1045.7054	3172.6782	916.2	35.75
1045.8098	3173.6321	916.25	33.4
1045.914	3174.5854	922.4	34.65
1046.0183	3175.5381	914.65	33.95
1046.1224	3176.4902	912.55	30.55
1046.2266	3177.4417	912	32.75
1046.3307	3178.3926	916.6	35.25
1046.4347	3179.3428	911.85	28
1046.5387	3180.2924	915.5	35.9
1046.6427	3181.2415	913.15	30
1046.7466	3182.1899	916.8	34.35
1046.8504	3183.1377	913.75	32
1046.9542	3184.0848	915.7	31.4
1047.058	3185.0314	911.4	28.8
1047.1617	3185.9773	911.45	29.3
1047.2654	3186.9227	912.75	28.75
1047.369	3187.8674	913.45	31.6
1047.4726	3188.8115	915.85	29.4
1047.5761	3189.755	912.6	31.1
1047.6796	3190.6979	910.2	29.2
1047.783	3191.6402	910.5	30.3
1047.8864	3192.5818	912.8	30.3
1047.9898	3193.5229	929.15	26.4
1048.0931	3194.4633	910.95	29.35
1048.1963	3195.4031	913	29.45
1048.2995	3196.3423	909.1	28.65
1048.4027	3197.2809	908.7	28.3
1048.5058	3198.2189	909.4	27.75
1048.6089	3199.1563	919.15	30.85
1048.7119	3200.0931	906.4	24.8
1048.8148	3201.0292	907.6	26.3
1048.9178	3201.9648	907.85	25.95
1049.0206	3202.8997	910.05	26.15
1049.1235	3203.834	908.45	25.75
1049.2262	3204.7677	909.6	26.6
1049.329	3205.7008	909.45	26.15
1049.4317	3206.6333	906.35	27.35
1049.5343	3207.5652	908.4	24.95
1049.6369	3208.4964	907.75	26.2
1049.7394	3209.4271	907.65	26.6
1049.8419	3210.3571	907.35	26.3
1049.9444	3211.2865	908.6	25.1
1050.0468	3212.2154	906.4	23.15
1050.1491	3213.1436	908.55	23.15
1050.2514	3214.0712	914.25	26.95
1050.3537	3214.9982	907.95	25.65
1050.4559	3215.9246	908.05	25.6
1050.5581	3216.8503	903.2	23.75
1050.6602	3217.7755	908.65	27.2
1050.7623	3218.7001	905.25	24.15
1050.8643	3219.624	905.75	25
1050.9663	3220.5473	908.65	27.1
1051.0682	3221.4701	905.75	22.7
1051.1701	3222.3922	908.3	25.05
1051.2719	3223.3137	906.9	27.05
1051.3737	3224.2346	906.65	24.7
1051.4754	3225.1549	904.65	23.1
1051.5771	3226.0746	904.75	22
1051.6788	3226.9937	907.25	22.45
1051.7804	3227.9121	905.7	24.75
1051.8819	3228.83	905.45	24.05
1051.9834	3229.7473	905.1	21.5
1052.0849	3230.6639	906.05	25.15
1052.1863	3231.5799	903.45	21.85
1052.2876	3232.4954	904.7	23.65
1052.3889	3233.4102	904.5	22.35
1052.4902	3234.3244	904	23.2
1052.5914	3235.238	904.85	25.15
1052.6926	3236.151	930.15	26.45
1052.7937	3237.0634	903.25	23.35
1052.8948	3237.9752	900.95	20.1
1052.9958	3238.8864	906.8	25.15
1053.0968	3239.797	903.8	19.75
1053.1977	3240.7069	904.05	20.1
1053.2986	3241.6163	905.95	23.15
1053.3994	3242.5251	900.8	20.4
1053.5002	3243.4332	902.75	23.3
1053.6009	3244.3408	904.6	23.95
1053.7016	3245.2477	902.45	21
1053.8022	3246.154	903.45	21.15
1053.9028	3247.0598	903.7	21.25
1054.0034	3247.9649	902.45	21.55
1054.1039	3248.8694	901.65	20.2
1054.2043	3249.7733	899.75	17.7
1054.3047	3250.6766	902.7	20.6
1054.4051	3251.5793	901.15	20.1
1054.5054	3252.4814	901.7	21.35
1054.6056	3253.3829	899.5	17.6
1054.7058	3254.2838	900.3	19.35
1054.806	3255.1841	901.95	22.9
1054.9061	3256.0838	899.95	17.25
1055.0061	3256.9829	899.15	17.95
1055.1062	3257.8814	901.8	15.85
1055.2061	3258.7792	900.7	16.5
1055.306	3259.6765	901.35	18.6
1055.4059	3260.5731	899.15	17.85
1055.5057	3261.4692	899.2	18.25
1055.6055	3262.3647	898.55	17.1
1055.7052	3263.2595	898.8	17.35
1055.8049	3264.1538	897.05	16.3
1055.9045	3265.0474	899.4	19.25
1056.0041	3265.9404	895.05	14.65
1056.1036	3266.8329	896.15	13.7
1056.2031	3267.7247	908.25	17
1056.3025	3268.616	897.35	18.05
1056.4019	3269.5066	895.55	13.8
1056.5013	3270.3966	897.55	13.2
1056.6005	3271.286	895.55	13.1
