Software Version:	3.9.2.0
Unit SN:	10000200
Spectrometer SN:	6960
Date:	3/14/2024 1:25:14 PM
Data Line Index:	25
Spectral Points:	2048
Integration time (ms):	125
Averages:	20
Delay (ms):	30000
Sequence Number:	1
Processing:	dark subtract
Laser Power (mW):	300
Laser Current (mA):	825
Laser Diode Temp (C):	25
Laser Case Temp (C):	28.4
System Temp (C):	28.5
Spectrometer Temp (C):	26.3
CCD Temp (C):	0.012
Secondary Temp (C):	20.004
Heatsink Temp (C):	24.291
CCDPCB Temp (C):	37.852
SecondaryPCB Temp (C):	35.495

Wavelength	RamanShift	Raw Counts	Dark Subtracted
787.061	30.1047	459.35	45.95
787.2016	32.3739	462.95	53.15
787.3422	34.6426	466.95	54.95
787.4828	36.9109	474.2	59.65
787.6235	39.1787	484.4	65.35
787.7642	41.4461	492.6	71
787.9049	43.7131	502.85	77.7
788.0456	45.9796	512.15	82.65
788.1863	48.2456	520.3	86.5
788.3271	50.5112	531.7	94.1
788.4679	52.7764	538.55	101.1
788.6087	55.0411	549.65	107.1
788.7496	57.3054	566.25	118.7
788.8904	59.5692	573.7	124.75
789.0313	61.8326	588.95	137.3
789.1722	64.0955	604.8	147.45
789.3132	66.3579	619.05	156.2
789.4541	68.6199	637.15	171.6
789.5951	70.8815	672.55	204.35
789.7361	73.1426	756.15	282.9
789.8771	75.4032	964	487.9
790.0181	77.6634	1475.7	992.05
790.1592	79.9231	2692.1	2201.5
790.3003	82.1824	5358.15	4858.1
790.4414	84.4412	10215.35	9697.2
790.5825	86.6995	16991.95	16450.65
790.7237	88.9574	23721.55	23154.75
790.8648	91.2148	28401.75	27822.75
791.006	93.4717	30548.25	29957.4
791.1472	95.7282	31029.7	30433.45
791.2885	97.9842	30904.95	30304.7
791.4297	100.2398	30259.25	29659.2
791.571	102.4949	29535.85	28926.75
791.7123	104.7495	28673.5	28060.2
791.8536	107.0036	27841	27226.7
791.9949	109.2573	27065.55	26458.7
792.1363	111.5105	26434.2	25822.6
792.2777	113.7632	25793.45	25178.25
792.4191	116.0154	25350.75	24726
792.5605	118.2672	25006.25	24389.05
792.7019	120.5185	24637.55	24019.65
792.8434	122.7693	24395	23773.3
792.9849	125.0197	24161.6	23536.6
793.1264	127.2696	23943.45	23319.95
793.2679	129.519	23804.05	23175.5
793.4094	131.7679	23513.55	22879.7
793.551	134.0163	23316.65	22680.6
793.6926	136.2642	22997.45	22355.9
793.8342	138.5117	22685.2	22041.5
793.9758	140.7587	22346.05	21703.6
794.1175	143.0052	22029.9	21386.25
794.2591	145.2512	21684.2	21040.5
794.4008	147.4967	21435.2	20786.55
794.5425	149.7417	21192.65	20542.5
794.6842	151.9863	20990.45	20336.05
794.826	154.2304	20903.05	20250.95
794.9677	156.4739	20742.05	20079.15
795.1095	158.717	20639.85	19982.4
795.2513	160.9596	20503.2	19838.45
795.3931	163.2017	20261.45	19593.85
795.535	165.4433	19968	19301.85
795.6768	167.6844	19680.1	19010.1
795.8187	169.925	19445.95	18773
795.9606	172.1651	19073.85	18398.4
796.1025	174.4047	18817.25	18135.35
796.2445	176.6439	18599.4	17916.9
796.3864	178.8825	18390.85	17706.75
796.5284	181.1206	18281.25	17595.1
796.6704	183.3582	18142.4	17451.75
796.8124	185.5954	18055.45	17364.85
796.9544	187.832	17953.7	17258.65
797.0965	190.0681	17981.5	17285.4
797.2386	192.3037	17980.65	17281.8
797.3806	194.5388	17945.85	17245.6
797.5228	196.7734	17973.55	17268.3
797.6649	199.0075	18022.75	17314.1
797.807	201.2411	18169.95	17459.85
797.9492	203.4742	18206.1	17494.35
798.0914	205.7068	18364.05	17651.9
798.2336	207.9389	18471.75	17759
798.3758	210.1704	18611.75	17895.7
798.518	212.4015	18670.4	17952.7
798.6603	214.632	18816.95	18095.35
798.8025	216.862	18914.9	18205.6
798.9448	219.0915	19039.55	18335.1
799.0871	221.3205	19109.65	18408.6
799.2294	223.549	19183.2	18486.95
799.3718	225.777	19243.8	18547.1
799.5141	228.0044	19320.2	18622
799.6565	230.2314	19421.8	18725.45
799.7989	232.4578	19550.4	18853
799.9413	234.6837	19640.75	18930.95
800.0837	236.909	19672.1	18965.4
800.2262	239.1339	19673.8	18940.45
800.3687	241.3582	19606.85	18890.6
800.5111	243.582	19510.35	18767.45
800.6536	245.8053	19455.55	18718.4
800.7961	248.0281	19391.5	18660.45
800.9387	250.2503	19375.55	18638.7
801.0812	252.472	19429.2	18688.9
801.2238	254.6932	19555.8	18814.55
801.3664	256.9139	19615.8	18872.25
801.509	259.134	19806.55	19059.35
801.6516	261.3536	20012.4	19270.25
801.7942	263.5727	20306.9	19562.1
801.9369	265.7912	20517.7	19774.5
802.0795	268.0092	20814.8	20068.75
802.2222	270.2267	20983.05	20235.9
802.3649	272.4436	21118.85	20368.15
802.5076	274.6601	21145.35	20386.65
802.6504	276.8759	21017.8	20267.65
802.7931	279.0913	20965.5	20213.45
802.9359	281.3061	20818.9	20066.2
803.0787	283.5204	20795.1	20032.95
803.2215	285.7341	20755.3	19994.75
803.3643	287.9473	20759.85	19987.85
803.5071	290.16	20818.8	20051.35
803.6499	292.3721	20858.2	20096.95
803.7928	294.5837	21030.75	20267.8
803.9357	296.7947	21201.6	20438.55
804.0786	299.0052	21355.2	20590.5
804.2215	301.2152	21323.9	20557.7
804.3644	303.4246	21202.95	20443.9
804.5074	305.6334	20913.8	20152.2
804.6503	307.8418	20512.5	19746.7
804.7933	310.0495	20120.35	19352.7
804.9363	312.2568	19693.75	18928.25
805.0793	314.4635	19280.65	18512
805.2223	316.6696	18996.65	18227.6
805.3653	318.8752	18750.3	17974.65
805.5084	321.0802	18641.35	17873.05
805.6514	323.2847	18637	17867.15
805.7945	325.4887	18701.5	17931
805.9376	327.692	18675.85	17902.7
806.0807	329.8949	18641.2	17866.4
806.2238	332.0972	18453.4	17676.45
806.367	334.2989	18285.15	17504.25
806.5101	336.5001	18048.45	17268.15
806.6533	338.7007	17865.75	17089.7
806.7965	340.9008	17720.45	16940.6
806.9397	343.1003	17510.4	16725.45
807.0829	345.2992	17403.8	16622.9
807.2261	347.4976	17309.4	16528.7
807.3693	349.6955	17183.45	16396.95
807.5126	351.8927	17206.7	16418.8
807.6559	354.0895	17111.65	16314.45
807.7991	356.2856	17075.6	16287.6
807.9424	358.4812	17009.35	16220.05
808.0857	360.6763	17001.65	16212.5
808.2291	362.8707	16959.7	16168
808.3724	365.0646	16993.3	16201.5
808.5158	367.258	17001.7	16206.2
808.6591	369.4508	17036.6	16236.55
808.8025	371.643	17175	16377.6
808.9459	373.8346	17222.8	16424.55
809.0893	376.0257	17285.9	16480.45
809.2327	378.2162	17303.25	16499.65
809.3762	380.4062	17287.85	16482.4
809.5196	382.5956	17194.4	16388.15
809.6631	384.7844	17057.8	16248.5
809.8066	386.9726	16891.55	16080.6
809.9501	389.1603	16802.65	15996.4
810.0936	391.3474	16752.6	15911.8
810.2371	393.5339	16718.8	15910.85
810.3806	395.7199	16639.8	15838
810.5241	397.9052	16679.3	15882.4
810.6677	400.09	16744.8	15944.4
810.8113	402.2743	16841.9	16041.25
810.9548	404.4579	16960	16161.85
811.0984	406.641	17174.5	16375.55
811.2421	408.8235	17285.65	16485.8
811.3857	411.0054	17427.75	16622.9
811.5293	413.1868	17603.8	16800.95
811.673	415.3675	17593.7	16791.45
811.8166	417.5477	17596.3	16788.6
811.9603	419.7273	17547.95	16738.25
812.104	421.9064	17443.9	16630.2
812.2477	424.0848	17378.2	16566.5
812.3914	426.2627	17215	16400.7
812.5351	428.4399	17013.15	16195.05
812.6788	430.6166	16682.6	15862.35
812.8226	432.7928	16356.65	15536
812.9663	434.9683	16074	15254.1
813.1101	437.1432	15844.8	15023.85
813.2539	439.3176	15658.25	14836.3
813.3977	441.4914	15525.9	14703.6
813.5415	443.6645	15503.2	14675.4
813.6853	445.8371	15437.5	14612.05
813.8291	448.0091	15364.2	14543.05
813.973	450.1806	15324.6	14499.55
814.1168	452.3514	15279.6	14454.4
814.2607	454.5216	15322.15	14486.1
814.4046	456.6913	15288	14461.05
814.5485	458.8603	15307	14480.35
814.6924	461.0288	15350.4	14527.55
814.8363	463.1967	15327.45	14500.4
814.9802	465.3639	15327	14499.25
815.1241	467.5306	15314	14486.2
815.2681	469.6967	15278.4	14450
815.412	471.8622	15278.45	14451.75
815.556	474.0271	15334.6	14503.65
815.7	476.1914	15281.9	14452.4
815.844	478.3551	15304.4	14477.35
815.988	480.5182	15344.9	14511.5
816.132	482.6807	15427.5	14596.15
816.276	484.8426	15602.75	14772.5
816.4201	487.0039	15873.4	15043.3
816.5641	489.1647	16239.4	15407.55
816.7082	491.3248	16520.15	15688.8
816.8522	493.4843	16589	15757.35
816.9963	495.6432	16545.6	15713.2
817.1404	497.8015	16376.1	15538.3
817.2845	499.9592	16280	15445.4
817.4286	502.1163	16086.75	15251.75
817.5727	504.2728	15759.5	14922.5
817.7168	506.4287	15518.4	14683.05
817.861	508.5839	15193.6	14358.65
818.0051	510.7386	15002.55	14165.6
818.1493	512.8927	14933.7	14090.1
818.2935	515.0461	14891.85	14054.8
818.4377	517.199	14951.75	14114.4
818.5818	519.3512	15108.95	14272.1
818.726	521.5029	15369.6	14526.7
818.8703	523.6539	15600.65	14762.75
819.0145	525.8043	15706.1	14865.25
819.1587	527.9541	15620.1	14775.55
819.303	530.1033	15393.45	14553.7
819.4472	532.2519	15226.9	14388.4
819.5915	534.3999	15147	14305.25
819.7357	536.5472	15199.3	14356.95
819.88	538.694	15363.55	14520.65
820.0243	540.8401	15599.8	14754.3
820.1686	542.9856	15765.8	14919.35
820.3129	545.1305	15753.8	14909.15
820.4572	547.2748	15706.4	14862
820.6016	549.4185	15544.35	14698.95
820.7459	551.5615	15389.7	14546.4
820.8902	553.704	15381.45	14536.5
821.0346	555.8458	15406.8	14563.15
821.1789	557.987	15572.7	14728.4
821.3233	560.1276	15779.9	14932.45
821.4677	562.2675	16160.85	15316.4
821.6121	564.4069	16619.9	15771.5
821.7565	566.5456	17042.05	16195.55
821.9009	568.6837	17199.7	16356.05
822.0453	570.8212	16846.9	16003.65
822.1897	572.958	16182.85	15334.25
822.3342	575.0942	15537	14689.5
822.4786	577.2299	15092.15	14244.95
822.6231	579.3648	14872.25	14024
822.7675	581.4992	14782.45	13934.15
822.912	583.6329	14854.25	14006.95
823.0565	585.766	15009.1	14161.75
823.201	587.8985	15129.05	14282.1
823.3454	590.0304	15175.15	14304.15
823.4899	592.1616	15132.45	14282.75
823.6345	594.2922	14981.55	14131.85
823.779	596.4222	14748	13899.65
823.9235	598.5515	14618.6	13765.4
824.068	600.6802	14409.85	13560
824.2126	602.8083	14215.35	13364.95
824.3571	604.9358	14226.9	13375.85
824.5017	607.0626	14234.45	13383
824.6462	609.1888	14317.2	13464.1
824.7908	611.3144	14439.55	13587.5
824.9354	613.4393	14572	13721.45
825.08	615.5636	14680.6	13828.35
825.2246	617.6873	14669	13820.15
825.3692	619.8103	14632.05	13777.35
825.5138	621.9327	14451.15	13596.7
825.6584	624.0544	14226.6	13373.05
825.803	626.1756	14046.6	13195.25
825.9477	628.2961	13879.4	13025.4
826.0923	630.4159	13781.3	12927.95
826.237	632.5351	13754.35	12894.6
826.3816	634.6537	13718.25	12866.3
826.5263	636.7716	13742.5	12884.55
826.6709	638.8889	13741.45	12883.8
826.8156	641.0056	13756.75	12902.85
826.9603	643.1216	13749.85	12891.4
827.105	645.237	13675.95	12815.8
827.2497	647.3518	13587.7	12729.35
827.3944	649.4659	13511.05	12656.8
827.5391	651.5793	13427.6	12565.65
827.6838	653.6922	13377.9	12522.95
827.8285	655.8043	13359	12500.95
827.9733	657.9159	13364.35	12504.25
828.118	660.0268	13321.05	12461
828.2627	662.137	13333.95	12473
828.4075	664.2466	13341.5	12480.3
828.5522	666.3556	13333.55	12474.9
828.697	668.4639	13242.2	12380.25
828.8418	670.5716	13210.3	12349.9
828.9865	672.6786	13165.7	12304.05
829.1313	674.785	13109.35	12246.2
829.2761	676.8907	13032.15	12168.75
829.4209	678.9958	13051.7	12190.9
829.5657	681.1002	12986.45	12123.85
829.7105	683.204	12978.05	12112.85
829.8553	685.3072	12957.55	12091.75
830.0001	687.4097	12912.5	12048.2
830.1449	689.5115	12912.65	12047.45
830.2898	691.6127	12913.15	12049.3
830.4346	693.7132	12865.1	11999.1
830.5794	695.8131	12896.05	12017.2
830.7243	697.9123	12884.45	12021.3
830.8691	700.0109	12914.8	12051.65
831.014	702.1089	12938.6	12073.65
831.1588	704.2061	12971.1	12110.2
831.3037	706.3028	13036.05	12170.05
831.4486	708.3987	13054.7	12191.55
831.5935	710.4941	13058.45	12191.85
831.7383	712.5887	13067.95	12202.95
831.8832	714.6827	13152.55	12284.15
832.0281	716.7761	13247.7	12380.75
832.173	718.8688	13394.5	12525.8
832.3179	720.9608	13485.7	12615.4
832.4628	723.0522	13601.15	12732.5
832.6077	725.1429	13694.6	12829.35
832.7527	727.233	13741.05	12872
832.8976	729.3224	13813.75	12945.45
833.0425	731.4112	13744.2	12873.4
833.1874	733.4993	13598.25	12729.35
833.3324	735.5867	13366.9	12500.05
833.4773	737.6735	13147	12276.85
833.6222	739.7596	12937.95	12066.9
833.7672	741.845	12781.15	11912.95
833.9122	743.9298	12689.55	11818.9
834.0571	746.014	12658.85	11790.3
834.2021	748.0974	12628.7	11756.7
834.347	750.1802	12597.55	11729.1
834.492	752.2624	12594.7	11725.95
834.637	754.3439	12639.2	11769.7
834.782	756.4247	12727.75	11846.05
834.9269	758.5048	12870.6	12000.7
835.0719	760.5843	13110	12238.35
835.2169	762.6631	13465.5	12594.45
835.3619	764.7413	13961.4	13092.2
835.5069	766.8188	14612.95	13737.7
835.6519	768.8956	15146.7	14275.8
835.7969	770.9718	15521.8	14653.4
835.9419	773.0473	15502.5	14634.2
836.0869	775.1221	15249.05	14379.85
836.232	777.1962	15020.75	14151.05
836.377	779.2697	14934.55	14063.15
836.522	781.3426	14998.2	14114.4
836.667	783.4147	15069.3	14198.3
836.8121	785.4862	15113.85	14242.95
836.9571	787.557	14916.7	14043.95
837.1021	789.6271	14475	13601.65
837.2472	791.6966	13871.5	12998.7
837.3922	793.7654	13318.5	12446.4
837.5373	795.8335	12873.65	12002.3
837.6823	797.901	12583.6	11712.2
837.8274	799.9678	12370.05	11498.05
837.9724	802.0339	12279.95	11407.1
838.1175	804.0993	12234.5	11352.95
838.2626	806.1641	12142.85	11270.15
838.4076	808.2282	12086.7	11213.65
838.5527	810.2916	12028.65	11151.85
838.6978	812.3544	11931.2	11062.85
838.8428	814.4164	11875.15	11004.25
838.9879	816.4778	11933	11058.9
839.133	818.5385	11934.65	11063.1
839.2781	820.5986	12063.85	11189.35
839.4232	822.658	12260.9	11386.85
839.5682	824.7166	12559.7	11684.65
839.7133	826.7747	13052.85	12181.45
839.8584	828.832	13541.4	12669
840.0035	830.8886	13897.05	13022.95
840.1486	832.9446	14110.6	13236.05
840.2937	834.9999	14012.4	13139.75
840.4388	837.0545	13694.9	12815.5
840.5839	839.1085	13324.35	12451
840.729	841.1618	12982.85	12106.65
840.8741	843.2143	12732.75	11856.95
841.0192	845.2662	12517.95	11641.8
841.1643	847.3175	12388.7	11515
841.3095	849.368	12254.15	11380.2
841.4546	851.4179	12159.25	11285.7
841.5997	853.467	12079.9	11203.6
841.7448	855.5155	12011.75	11137.7
841.8899	857.5633	11945.95	11072.1
842.0351	859.6105	11799.05	10923.25
842.1802	861.6569	11750	10874.5
842.3253	863.7027	11655.45	10777.9
842.4704	865.7478	11591.7	10715.2
842.6156	867.7922	11525.85	10651.65
842.7607	869.8359	11512.55	10636.5
842.9058	871.8789	11508.1	10632.75
843.0509	873.9212	11596.65	10686.85
843.1961	875.9629	11602.1	10727.15
843.3412	878.0039	11732.15	10853.8
843.4863	880.0441	11781.9	10907.45
843.6315	882.0837	11848.4	10971
843.7766	884.1226	11865.95	10986.3
843.9218	886.1609	11943.7	11068.6
844.0669	888.1984	12022.2	11145.45
844.212	890.2352	12172.65	11296.35
844.3572	892.2714	12196.25	11313
844.5023	894.3069	12100.75	11223
844.6475	896.3416	11945.75	11067.9
844.7926	898.3757	11775.6	10897.6
844.9377	900.4091	11671.6	10794.9
845.0829	902.4418	11671.95	10791.3
845.228	904.4739	11688.8	10810.95
845.3732	906.5052	11744.3	10868.1
845.5183	908.5358	11717.7	10837.55
845.6635	910.5658	11578.9	10699.35
845.8086	912.595	11382.25	10504.85
845.9538	914.6236	11185.45	10306.25
846.0989	916.6515	11048.65	10171.3
846.2441	918.6786	10918.55	10041.35
846.3892	920.7051	10902.9	10024.35
846.5344	922.7309	10927.25	10047.05
846.6795	924.756	10916.7	10038.55
846.8246	926.7804	10983.75	10103
846.9698	928.8041	10964.5	10083.7
847.1149	930.8272	11001.75	10122.6
847.2601	932.8495	10961.35	10082.55
847.4052	934.8711	10974.4	10093.55
847.5504	936.892	10930.1	10051.55
847.6955	938.9123	10918.9	10037.8
847.8407	940.9318	10958.65	10080.6
847.9858	942.9506	10957.35	10075.4
848.131	944.9688	10890.35	10008.55
848.2761	946.9862	10783.3	9903.4
848.4213	949.003	10637.75	9757.75
848.5664	951.019	10549.75	9670.2
848.7115	953.0344	10435.65	9554.4
848.8567	955.0491	10431.8	9548.5
849.0018	957.063	10430.9	9553.65
849.147	959.0763	10488.9	9610.1
849.2921	961.0888	10506.1	9624
849.4373	963.1007	10586.55	9705.15
849.5824	965.1119	10559.3	9680.3
849.7275	967.1223	10559.85	9680.2
849.8727	969.1321	10516.9	9635.45
850.0178	971.1412	10495.9	9618.25
850.1629	973.1495	10478.1	9598.4
850.3081	975.1572	10502.55	9590.95
850.4532	977.1641	10477.1	9597.65
850.5983	979.1704	10448.25	9567.5
850.7435	981.1759	10402.9	9519.75
850.8886	983.1808	10405.1	9525.65
851.0337	985.1849	10406.2	9516.35
851.1788	987.1884	10440.45	9558
851.324	989.1911	10500.15	9618.25
851.4691	991.1932	10573	9691.95
851.6142	993.1945	10597.2	9716.65
851.7593	995.1951	10536.35	9654.5
851.9045	997.1951	10505	9618.45
852.0496	999.1943	10453.25	9573.15
852.1947	1001.1928	10458.1	9576.3
852.3398	1003.1906	10481.85	9600.75
852.4849	1005.1877	10595.7	9712.35
852.63	1007.1841	10656.85	9773.8
852.7751	1009.1798	10698.8	9818.2
852.9202	1011.1748	10641.7	9758.8
853.0653	1013.1691	10481.95	9599.25
853.2104	1015.1627	10277.3	9396.35
853.3555	1017.1556	10065.95	9186.5
853.5006	1019.1477	9952.9	9072.15
853.6457	1021.1392	9816.25	8937.5
853.7908	1023.1299	9774.8	8892.55
853.9359	1025.12	9776.95	8892.15
854.081	1027.1093	9833.7	8954.5
854.2261	1029.0979	9953	9071.1
854.3712	1031.0859	10015.7	9135.35
854.5163	1033.0731	10032.45	9149.3
854.6613	1035.0596	9972.1	9091.55
854.8064	1037.0454	9870	8989.35
854.9515	1039.0304	9786.75	8906.15
855.0965	1041.0148	9670.65	8789.6
855.2416	1042.9985	9578.25	8696.25
855.3867	1044.9814	9507.95	8628.55
855.5317	1046.9636	9441.15	8557.1
855.6768	1048.9452	9430.65	8550.45
855.8219	1050.926	9452.15	8572.3
855.9669	1052.9061	9475.9	8596.1
856.112	1054.8855	9501.15	8620.3
856.257	1056.8642	9523.8	8643.45
856.4021	1058.8421	9562.05	8677.05
856.5471	1060.8194	9581.05	8698.95
856.6921	1062.7959	9612.4	8731.35
856.8372	1064.7717	9642.15	8761.05
856.9822	1066.7469	9727.75	8844.05
857.1272	1068.7213	9788.75	8903.6
857.2723	1070.695	9848.65	8967.25
857.4173	1072.6679	9902.65	9021.25
857.5623	1074.6402	9913.1	9029.65
857.7073	1076.6117	9907.9	9021.35
857.8523	1078.5826	9818.75	8935.2
857.9973	1080.5527	9631.4	8747.65
858.1423	1082.5221	9528.9	8647.2
858.2873	1084.4908	9477.2	8595.1
858.4323	1086.4587	9487.1	8603.8
858.5773	1088.426	9504.3	8622.65
858.7223	1090.3925	9496.6	8610.1
858.8673	1092.3584	9525.65	8643.7
859.0123	1094.3235	9562.15	8681.35
859.1573	1096.2879	9582.8	8698.95
859.3022	1098.2515	9695	8814.25
859.4472	1100.2145	9852.75	8970.55
859.5922	1102.1767	10028.95	9144.3
859.7371	1104.1382	10245.5	9361.65
859.8821	1106.099	10485.85	9599.5
860.027	1108.0591	10685.85	9803.25
860.172	1110.0185	10854.75	9969.6
860.3169	1111.9771	10905.75	10023.05
860.4619	1113.9351	10830	9948.7
860.6068	1115.8923	10736.75	9852.6
860.7517	1117.8488	10619.55	9735.3
860.8967	1119.8045	10414.95	9533.55
861.0416	1121.7596	10281.7	9398.3
861.1865	1123.7139	10137.95	9255.25
861.3314	1125.6675	10062.75	9181.75
861.4763	1127.6204	10084.65	9204.25
861.6212	1129.5726	10049.9	9164.7
861.7661	1131.524	9956.25	9076.1
861.911	1133.4748	9810.25	8928.05
862.0559	1135.4248	9659.05	8774.55
862.2008	1137.3741	9483.25	8602.25
862.3457	1139.3226	9359.05	8475.05
862.4905	1141.2705	9318.7	8435.55
862.6354	1143.2176	9221.05	8332.5
862.7803	1145.164	9186.55	8302.2
862.9251	1147.1097	9086.35	8202.85
863.07	1149.0546	9009.5	8124.75
863.2148	1150.9989	8909.2	8025.15
863.3597	1152.9424	8816.15	7935.1
863.5045	1154.8852	8741	7856.2
863.6493	1156.8272	8706.95	7823.9
863.7942	1158.7686	8697.45	7805.55
863.939	1160.7092	8696.2	7811.6
864.0838	1162.6491	8730.45	7847.2
864.2286	1164.5883	8842.15	7961.25
864.3734	1166.5267	8927.3	8043.55
864.5182	1168.4644	9069.75	8185.9
864.663	1170.4014	9274.3	8390
864.8078	1172.3377	9472.4	8591.15
864.9526	1174.2732	9775.4	8891.5
865.0974	1176.2081	10159.65	9277
865.2421	1178.1421	10629.05	9744.45
865.3869	1180.0755	11176.75	10294.35
865.5317	1182.0082	11516.3	10633.65
865.6764	1183.9401	11685.95	10802
865.8212	1185.8713	11550.2	10669.45
865.9659	1187.8017	11216.8	10333
866.1106	1189.7315	10832.95	9947.25
866.2554	1191.6605	10423.4	9513.75
866.4001	1193.5888	10119.05	9233.1
866.5448	1195.5163	9962.65	9081.2
866.6895	1197.4432	9821.6	8937.95
866.8342	1199.3693	9781.4	8899.35
866.9789	1201.2947	9731.4	8843.9
867.1236	1203.2193	9697.6	8815.05
867.2683	1205.1432	9677.8	8794.65
867.413	1207.0664	9624.85	8739.7
867.5576	1208.9889	9626.6	8737
867.7023	1210.9106	9595.5	8712.75
867.847	1212.8316	9600.25	8718
867.9916	1214.7519	9637.75	8744.7
868.1363	1216.6715	9654.3	8771.95
868.2809	1218.5903	9721.05	8839.3
868.4255	1220.5084	9797.6	8915.55
868.5701	1222.4257	9905.45	9022.25
868.7148	1224.3424	9959.2	9075.75
868.8594	1226.2583	10103.6	9214.75
869.004	1228.1735	10223.65	9338.9
869.1486	1230.0879	10371.15	9487.85
869.2932	1232.0016	10558.65	9676.35
869.4377	1233.9146	10701.15	9816.6
869.5823	1235.8269	10730.2	9849.4
869.7269	1237.7384	10701.95	9818.05
869.8715	1239.6492	10583.9	9700.05
870.016	1241.5592	10528.1	9643.5
870.1606	1243.4686	10595.6	9710.75
870.3051	1245.3772	10770	9886.95
870.4496	1247.285	11015.15	10128.15
870.5941	1249.1922	11203.8	10319.8
870.7387	1251.0986	11390.25	10508.85
870.8832	1253.0042	11478.25	10593.25
871.0277	1254.9092	11601.7	10717.8
871.1722	1256.8134	11710.3	10827.85
871.3167	1258.7169	11827.9	10944.3
871.4611	1260.6196	11966.6	11084.95
871.6056	1262.5216	12190.75	11305.3
871.7501	1264.4229	12344.6	11464.2
871.8945	1266.3234	12557.8	11671.55
872.039	1268.2232	12679.55	11794.3
872.1834	1270.1223	12743.8	11858.1
872.3278	1272.0207	12771.55	11887.65
872.4723	1273.9183	12735.05	11846.7
872.6167	1275.8151	12640.45	11758.5
872.7611	1277.7113	12627.95	11741.6
872.9055	1279.6067	12721.7	11838.05
873.0499	1281.5014	12985.95	12098.15
873.1943	1283.3953	13379.05	12495.3
873.3386	1285.2885	13967.6	13084.7
873.483	1287.181	14550.9	13665.1
873.6274	1289.0727	15073.6	14191.95
873.7717	1290.9637	15485.1	14599.2
873.9161	1292.854	15723.55	14839.3
874.0604	1294.7435	15680.3	14795.3
874.2047	1296.6323	15550.35	14665.6
874.349	1298.5204	15295.95	14409
874.4933	1300.4077	15053.3	14169.55
874.6376	1302.2943	14732.15	13848.3
874.7819	1304.1802	14391.4	13509
874.9262	1306.0653	13893.15	13007
875.0705	1307.9497	13407.05	12523.7
875.2147	1309.8333	12960.35	12076.9
875.359	1311.7162	12647.35	11762.85
875.5032	1313.5984	12421.8	11536.85
875.6475	1315.4798	12289.85	11392.55
875.7917	1317.3605	12187.25	11285.3
875.9359	1319.2405	12025.15	11140.25
876.0801	1321.1197	11815.5	10929.3
876.2243	1322.9982	11472.6	10583.55
876.3685	1324.876	11197.5	10312.25
876.5127	1326.753	10881.85	9996.9
876.6569	1328.6293	10656.9	9770.95
876.801	1330.5048	10492.1	9603.05
876.9452	1332.3796	10269.05	9387.65
877.0893	1334.2537	10179.1	9267.95
877.2335	1336.127	10028.75	9145.5
877.3776	1337.9996	10015.2	9130.8
877.5217	1339.8714	10013.35	9127.2
877.6658	1341.7426	10019.85	9091.05
877.8099	1343.6129	10029.05	9145.75
877.954	1345.4826	9975.25	9091.15
878.0981	1347.3515	9982.95	9096.75
878.2422	1349.2196	9971.25	9085.1
878.3862	1351.087	9978.7	9095.85
878.5303	1352.9537	10034.1	9147.2
878.6743	1354.8197	10129.7	9244.05
878.8184	1356.6849	10257.25	9373.35
878.9624	1358.5493	10410.4	9526.25
879.1064	1360.4131	10644.95	9760.6
879.2504	1362.276	10761.45	9877.6
879.3944	1364.1383	10825.35	9942.55
879.5384	1365.9998	10705.9	9816.45
879.6823	1367.8606	10420.4	9535.3
879.8263	1369.7206	10069.2	9184.4
879.9702	1371.5799	9749.25	8860.9
880.1142	1373.4384	9489.3	8603.2
880.2581	1375.2962	9250.6	8366.8
880.402	1377.1533	8964.9	8080.85
880.5459	1379.0096	8619.85	7733.1
880.6898	1380.8652	8311.3	7427
880.8337	1382.7201	8015.85	7130.75
880.9776	1384.5742	7806.6	6919.6
881.1215	1386.4275	7615.6	6730.1
881.2653	1388.2802	7470	6587.7
881.4092	1390.132	7351.7	6467.7
881.553	1391.9832	7310.55	6424.3
881.6968	1393.8336	7228.1	6343.45
881.8406	1395.6832	7186.8	6299
881.9844	1397.5322	7130.35	6242.8
882.1282	1399.3803	7127.25	6237.05
882.272	1401.2278	7075.9	6190.3
882.4158	1403.0745	7068.9	6183.95
882.5595	1404.9204	7025.1	6141.35
882.7033	1406.7656	7050.9	6166.05
882.847	1408.6101	7058.75	6174.25
882.9908	1410.4538	7090.5	6206.5
883.1345	1412.2968	7104.75	6220.25
883.2782	1414.139	7141.35	6256
883.4219	1415.9805	7205.05	6321.85
883.5656	1417.8213	7282.55	6391.15
883.7092	1419.6613	7357	6472.2
883.8529	1421.5006	7497.9	6611.1
883.9965	1423.3391	7695.9	6811.85
884.1402	1425.1769	7924.95	7036.4
884.2838	1427.0139	8304.5	7421.1
884.4274	1428.8502	8793.85	7905.65
884.571	1430.6858	9290.7	8407.75
884.7146	1432.5206	9639.2	8754.3
884.8582	1434.3547	9849.75	8963.6
885.0018	1436.188	9847.65	8963.3
885.1453	1438.0206	9768.7	8885.45
885.2889	1439.8524	9618.7	8734.35
885.4324	1441.6835	9515.3	8631.15
885.5759	1443.5139	9423.75	8534.5
885.7194	1445.3435	9331.7	8448.2
885.8629	1447.1724	9302.55	8419.95
886.0064	1449.0005	9291.3	8403.7
886.1499	1450.8279	9227.1	8339.25
886.2933	1452.6545	9228.9	8343.7
886.4368	1454.4804	9257.7	8372.85
886.5802	1456.3056	9263.4	8369.9
886.7237	1458.13	9196.8	8311.65
886.8671	1459.9536	9077.4	8191.15
887.0105	1461.7766	8832.4	7949.3
887.1539	1463.5987	8520.1	7634.3
887.2972	1465.4202	8238.95	7355.75
887.4406	1467.2409	7955.45	7070.4
887.584	1469.0608	7708.25	6823
887.7273	1470.88	7450.9	6565.3
887.8706	1472.6984	7257.1	6371.4
888.0139	1474.5161	7063	6176.5
888.1572	1476.3331	6910.15	6027.1
888.3005	1478.1493	6803.4	5916.75
888.4438	1479.9648	6749.25	5865.55
888.5871	1481.7795	6671.25	5787.25
888.7303	1483.5935	6607.75	5723.1
888.8736	1485.4067	6561.9	5677.3
889.0168	1487.2192	6517.65	5632.55
889.16	1489.031	6494.45	5605.5
889.3032	1490.842	6444.25	5561.1
889.4464	1492.6522	6433.85	5550.1
889.5896	1494.4618	6388.4	5500.65
889.7327	1496.2705	6361	5478.65
889.8759	1498.0785	6325.4	5439.6
890.019	1499.8858	6291.2	5405.65
890.1622	1501.6924	6251.1	5369.3
890.3053	1503.4981	6228.2	5344
890.4484	1505.3032	6184.75	5299.75
890.5914	1507.1075	6130	5247.55
890.7345	1508.911	6094.45	5211.95
890.8776	1510.7138	6067.05	5182.85
891.0206	1512.5159	6007.8	5123.35
891.1637	1514.3172	5973.7	5089.95
891.3067	1516.1178	5929.75	5046.55
891.4497	1517.9176	5901.5	5012.2
891.5927	1519.7166	5890.3	5005.55
891.7357	1521.515	5854.8	4961.5
891.8786	1523.3126	5834.2	4949.95
892.0216	1525.1094	5794.7	4909.45
892.1645	1526.9055	5778.15	4895
892.3074	1528.7008	5753	4869.05
892.4503	1530.4954	5722.15	4837
892.5932	1532.2893	5715.3	4831.7
892.7361	1534.0824	5700.65	4811.85
892.879	1535.8747	5707.9	4822.25
893.0218	1537.6663	5701.25	4816.75
893.1647	1539.4572	5699.95	4814.85
893.3075	1541.2473	5701.1	4815.8
893.4503	1543.0367	5669.55	4786.35
893.5931	1544.8253	5694.3	4805.05
893.7359	1546.6132	5711.15	4824.55
893.8787	1548.4003	5756.5	4861.85
894.0214	1550.1867	5798.65	4906.3
894.1642	1551.9723	5866.55	4977.95
894.3069	1553.7572	5916.05	5030.2
894.4496	1555.5414	6036.75	5151.95
894.5923	1557.3247	6167.55	5282.5
894.735	1559.1074	6321.2	5438.25
894.8777	1560.8893	6494.95	5612.35
895.0204	1562.6705	6650.45	5765
895.163	1564.4509	6804.2	5921.75
895.3056	1566.2305	6858.85	5977
895.4482	1568.0094	6935.7	6051.95
895.5908	1569.7876	6937.35	6053.25
895.7334	1571.565	6914	6026.75
895.876	1573.3417	6888.1	6004.35
896.0186	1575.1176	6885.05	6000.25
896.1611	1576.8928	6888.15	6002.75
896.3036	1578.6672	6919.05	6036.5
896.4461	1580.4409	6950.25	6067.5
896.5886	1582.2138	7010.75	6123.95
896.7311	1583.986	7069.1	6187.55
896.8736	1585.7575	7168.15	6287.8
897.0161	1587.5282	7221.5	6338.7
897.1585	1589.2981	7363	6479.25
897.3009	1591.0673	7446.7	6564.3
897.4433	1592.8358	7564.5	6683.2
897.5857	1594.6035	7674	6788.35
897.7281	1596.3704	7746.15	6862.05
897.8705	1598.1366	7808.8	6923.75
898.0128	1599.9021	7888.4	7005.45
898.1551	1601.6668	7972.2	7085.4
898.2975	1603.4308	8068.95	7183.35
898.4398	1605.194	8205.35	7318.4
898.5821	1606.9564	8402.4	7519.9
898.7243	1608.7182	8635.9	7748.95
898.8666	1610.4791	8931.9	8047.8
899.0088	1612.2394	9238.45	8355.35
899.1511	1613.9988	9578.5	8695.45
899.2933	1615.7576	9876.55	8993.9
899.4355	1617.5156	10089.75	9201.35
899.5776	1619.2728	10165.65	9281.55
899.7198	1621.0293	10091.45	9210.35
899.862	1622.785	9855.95	8965.85
900.0041	1624.54	9512.05	8626.25
900.1462	1626.2942	9155.75	8269.25
900.2883	1628.0477	8728.95	7843.95
900.4304	1629.8005	8335	7447.75
900.5725	1631.5525	8012.6	7127.75
900.7145	1633.3037	7693.5	6809.8
900.8566	1635.0542	7480.3	6598.55
900.9986	1636.804	7276.5	6393.45
901.1406	1638.553	7195.35	6259.3
901.2826	1640.3013	7074.15	6189.45
901.4245	1642.0488	7012.45	6127.2
901.5665	1643.7955	7007.75	6124.35
901.7085	1645.5416	7040.7	6157.9
901.8504	1647.2868	7130.3	6248.8
901.9923	1649.0313	7185.55	6303.2
902.1342	1650.7751	7315.1	6428.45
902.2761	1652.5181	7457.9	6576.75
902.4179	1654.2604	7583.6	6701.2
902.5598	1656.0019	7750.7	6868.65
902.7016	1657.7427	7981.7	7098.65
902.8434	1659.4828	8237.9	7353.7
902.9852	1661.222	8367.05	7483.7
903.127	1662.9606	8391.2	7510.45
903.2687	1664.6984	8204	7321.3
903.4105	1666.4354	7836.15	6949.95
903.5522	1668.1717	7347.95	6464.05
903.6939	1669.9072	6844.9	5961.2
903.8356	1671.642	6411.6	5525.7
903.9773	1673.3761	6034.4	5154.05
904.119	1675.1094	5772.9	4889.2
904.2606	1676.8419	5546.45	4664.45
904.4022	1678.5737	5363.15	4481.45
904.5439	1680.3048	5210	4326.9
904.6855	1682.0351	5092.65	4209.45
904.827	1683.7646	4998.55	4111.05
904.9686	1685.4934	4918.05	4034.45
905.1101	1687.2215	4841.55	3959.15
905.2517	1688.9488	4764.4	3879.2
905.3932	1690.6754	4727.45	3845.95
905.5347	1692.4012	4682.05	3800.75
905.6761	1694.1263	4640.55	3758.5
905.8176	1695.8506	4598.95	3717.15
905.9591	1697.5742	4560.5	3680.15
906.1005	1699.297	4523.35	3639.5
906.2419	1701.0191	4480.25	3599.2
906.3833	1702.7404	4449.7	3566.45
906.5246	1704.461	4412.8	3529.6
906.666	1706.1808	4379.25	3494.55
906.8073	1707.8999	4361.55	3477.4
906.9487	1709.6182	4338.2	3457.05
907.09	1711.3358	4331.6	3447.3
907.2313	1713.0527	4293.3	3411.95
907.3725	1714.7688	4275.65	3387.1
907.5138	1716.4841	4252.05	3366.15
907.655	1718.1987	4258	3370.65
907.7962	1719.9126	4241.65	3358.2
907.9374	1721.6257	4202.65	3316.8
908.0786	1723.338	4184.65	3300.45
908.2198	1725.0496	4184.95	3300.35
908.3609	1726.7605	4169.4	3288.25
908.502	1728.4706	4155.2	3270.7
908.6431	1730.18	4135.3	3250.7
908.7842	1731.8886	4124	3241.15
908.9253	1733.5964	4113.25	3225.35
909.0664	1735.3036	4091.75	3207.2
909.2074	1737.0099	4075.55	3190.55
909.3484	1738.7156	4049.5	3167.7
909.4894	1740.4204	4033.1	3148.4
909.6304	1742.1246	4020.65	3137.35
909.7714	1743.8279	3991.85	3108.85
909.9123	1745.5306	3998.75	3113.75
910.0532	1747.2325	3956.55	3074.35
910.1941	1748.9336	3949.4	3066.8
910.335	1750.634	3925.5	3039.65
910.4759	1752.3336	3914.4	3033.65
910.6168	1754.0325	3923.05	3042.25
910.7576	1755.7307	3905.05	3022
910.8984	1757.4281	3908.8	3025.75
911.0392	1759.1247	3902.65	3013.1
911.18	1760.8206	3900.15	3013
911.3208	1762.5158	3876.2	2988
911.4615	1764.2102	3860.5	2978.05
911.6022	1765.9039	3835.55	2950.95
911.7429	1767.5968	3842.5	2959.75
911.8836	1769.289	3828.1	2946.25
912.0243	1770.9804	3821.15	2935.45
912.1649	1772.6711	3831.3	2951.4
912.3056	1774.361	3815.6	2934.55
912.4462	1776.0502	3806.95	2926
912.5868	1777.7386	3788.25	2901.25
912.7274	1779.4263	3788.5	2906.9
912.8679	1781.1132	3775.3	2891.45
913.0084	1782.7994	3764.7	2881.1
913.149	1784.4849	3763	2879.85
913.2895	1786.1696	3750.8	2848.85
913.4299	1787.8535	3753.45	2872.75
913.5704	1789.5367	3746.15	2863.9
913.7108	1791.2192	3743.45	2860.75
913.8513	1792.9009	3730.1	2830.95
913.9917	1794.5818	3713.15	2830
914.132	1796.2621	3683.9	2802.6
914.2724	1797.9415	3689.5	2806.95
914.4128	1799.6202	3678	2794.7
914.5531	1801.2982	3682.75	2798.65
914.6934	1802.9755	3669.5	2787.15
914.8337	1804.6519	3676	2793.25
914.9739	1806.3277	3642.1	2761.65
915.1142	1808.0027	3636.8	2754.35
915.2544	1809.6769	3645.8	2760.5
915.3946	1811.3504	3634.75	2751.05
915.5348	1813.0231	3645.15	2763.75
915.675	1814.6951	3619.8	2738.15
915.8151	1816.3664	3616.75	2730.1
915.9553	1818.0369	3615.15	2732.55
916.0954	1819.7067	3597.25	2713.9
916.2355	1821.3757	3598.65	2714.95
916.3755	1823.044	3589	2706.05
916.5156	1824.7115	3587.15	2704.7
916.6556	1826.3783	3571.9	2689.45
916.7956	1828.0443	3556.6	2676.6
916.9356	1829.7096	3547.8	2664.65
917.0756	1831.3741	3568.95	2682.5
917.2155	1833.0379	3557.65	2675.95
917.3555	1834.701	3536.75	2652.25
917.4954	1836.3633	3551.1	2669.35
917.6353	1838.0248	3540.35	2655.8
917.7751	1839.6856	3531.65	2649.1
917.915	1841.3457	3523.85	2642.45
918.0548	1843.005	3519.65	2636
918.1946	1844.6636	3520.8	2638.65
918.3344	1846.3214	3502.1	2618.5
918.4742	1847.9785	3511.85	2629.85
918.6139	1849.6349	3497.15	2613.5
918.7537	1851.2904	3509.95	2619.95
918.8934	1852.9453	3475	2593.65
919.0331	1854.5994	3470.85	2586.95
919.1727	1856.2528	3488.7	2603.25
919.3124	1857.9054	3478.4	2595.05
919.452	1859.5572	3464.9	2582.9
919.5916	1861.2083	3464.1	2579.95
919.7312	1862.8587	3469.7	2586.45
919.8708	1864.5084	3447	2563.35
920.0103	1866.1572	3422.7	2540.4
920.1498	1867.8054	3444.4	2563.05
920.2893	1869.4528	3425.75	2545.05
920.4288	1871.0994	3412.95	2528.7
920.5683	1872.7453	3426	2543.3
920.7077	1874.3905	3422.95	2524.25
920.8471	1876.0349	3398.1	2516.3
920.9865	1877.6786	3411.6	2528.95
921.1259	1879.3215	3397.3	2515.05
921.2653	1880.9637	3376.05	2491.85
921.4046	1882.6051	3387.3	2504.65
921.5439	1884.2458	3375.3	2491.1
921.6832	1885.8858	3367.3	2483.7
921.8225	1887.525	3361.05	2476.95
921.9617	1889.1634	3345.35	2462.6
922.101	1890.8011	3344.5	2461.5
922.2402	1892.4381	3332.15	2450.25
922.3794	1894.0743	3340.05	2459.55
922.5185	1895.7098	3318.4	2433.5
922.6577	1897.3446	3312.3	2429.35
922.7968	1898.9786	3323.05	2438.6
922.9359	1900.6118	3293.8	2413.7
923.075	1902.2443	3292.3	2408.55
923.214	1903.8761	3288.85	2408.8
923.3531	1905.5071	3263.25	2381.25
923.4921	1907.1374	3265.75	2382.75
923.6311	1908.7669	3270.75	2389.2
923.77	1910.3957	3284.7	2402
923.909	1912.0237	3254.6	2372.65
924.0479	1913.651	3243	2360.55
924.1868	1915.2776	3247.15	2365.6
924.3257	1916.9034	3230.65	2349.75
924.4646	1918.5285	3218.45	2337.2
924.6034	1920.1528	3202.9	2321.1
924.7422	1921.7764	3207.7	2327.3
924.881	1923.3992	3191.9	2309.75
925.0198	1925.0213	3179.45	2297.75
925.1586	1926.6427	3170.2	2289.65
925.2973	1928.2633	3251.25	2260.2
925.436	1929.8832	3180.75	2295.6
925.5747	1931.5023	3160.55	2277.75
925.7134	1933.1207	3152.1	2268.8
925.852	1934.7383	3156.05	2273.35
925.9906	1936.3552	3129.1	2248.25
926.1292	1937.9714	3128.9	2246.2
926.2678	1939.5868	3128.9	2244.6
926.4064	1941.2015	3116.75	2232.15
926.5449	1942.8154	3099.85	2220.2
926.6834	1944.4286	3095.95	2213.2
926.8219	1946.041	3095.4	2188.8
926.9604	1947.6528	3079.35	2193.45
927.0988	1949.2637	3075.85	2194.75
927.2372	1950.8739	3065.65	2181.25
927.3756	1952.4834	3056.3	2171.75
927.514	1954.0921	3066.15	2182.8
927.6523	1955.7001	3059.05	2172.1
927.7907	1957.3074	3042.05	2160.3
927.929	1958.9139	3039.1	2159.05
928.0673	1960.5197	3026.3	2141.05
928.2055	1962.1247	2998.8	2116.85
928.3438	1963.729	3007.05	2125.5
928.482	1965.3325	3020.7	2114.75
928.6202	1966.9353	3003.3	2122.8
928.7584	1968.5374	2988	2105.95
928.8965	1970.1387	2973.35	2090.8
929.0346	1971.7393	2981.9	2100.75
929.1727	1973.3392	2969.9	2086.7
929.3108	1974.9383	2955.3	2072.9
929.4489	1976.5366	2944.05	2061.5
929.5869	1978.1342	2953.4	2069.65
929.7249	1979.7311	2937.15	2056.45
929.8629	1981.3273	2935.1	2050.55
930.0009	1982.9227	2918.75	2034.95
930.1388	1984.5173	2916	2034.75
930.2767	1986.1112	2907.55	2025.8
930.4146	1987.7044	2910	2030.1
930.5525	1989.2968	2888.25	2005.15
930.6904	1990.8885	2889.15	2003.85
930.8282	1992.4795	2885.8	2000.55
930.966	1994.0697	2882.7	1997.85
931.1038	1995.6592	2877.3	1993.45
931.2415	1997.2479	2869.4	1986.8
931.3793	1998.8359	2866.2	1985.05
931.517	2000.4232	2863.95	1981.05
931.6547	2002.0097	2850.6	1969.6
931.7923	2003.5955	2834.4	1952.55
931.93	2005.1805	2846.45	1964.5
932.0676	2006.7648	2826.2	1944.35
932.2052	2008.3484	2837.25	1955
932.3427	2009.9312	2830.7	1946.35
932.4803	2011.5133	2824.1	1942.75
932.6178	2013.0946	2820.25	1937.45
932.7553	2014.6752	2807.35	1926.65
932.8928	2016.2551	2800.35	1917.55
933.0302	2017.8342	2805.6	1924.1
933.1676	2019.4126	2801.5	1918.95
933.305	2020.9902	2788.1	1905.9
933.4424	2022.5672	2789.75	1905.9
933.5798	2024.1433	2774.7	1885.75
933.7171	2025.7188	2768.2	1885.65
933.8544	2027.2935	2765.2	1882.15
933.9917	2028.8674	2763.95	1881.25
934.129	2030.4406	2755.2	1871.65
934.2662	2032.0131	2746.05	1864.6
934.4034	2033.5849	2752.2	1864.45
934.5406	2035.1559	2740.6	1858.5
934.6778	2036.7261	2737.45	1854.7
934.8149	2038.2957	2725.15	1841.4
934.952	2039.8645	2720.6	1839.05
935.0891	2041.4325	2727.8	1841.15
935.2262	2042.9998	2721.1	1839.95
935.3632	2044.5664	2717.4	1832.55
935.5002	2046.1323	2704.9	1820.75
935.6372	2047.6974	2696.9	1813.85
935.7742	2049.2617	2692.65	1810.15
935.9111	2050.8254	2720.9	1804.8
936.048	2052.3883	2697	1813.85
936.1849	2053.9504	2681.4	1797.6
936.3218	2055.5118	2689.85	1807.25
936.4586	2057.0725	2677.1	1790.5
936.5955	2058.6325	2669.6	1787.3
936.7323	2060.1917	2658.7	1777.15
936.869	2061.7502	2650	1762.95
937.0058	2063.3079	2650.3	1769.05
937.1425	2064.8649	2642.35	1756.35
937.2792	2066.4212	2643.55	1761.35
937.4159	2067.9767	2649.55	1765.8
937.5525	2069.5315	2622.45	1740.45
937.6891	2071.0856	2632.2	1750.6
937.8257	2072.6389	2615.95	1731.65
937.9623	2074.1915	2613.15	1731.8
938.0989	2075.7433	2609.15	1724.9
938.2354	2077.2945	2602.95	1722.05
938.3719	2078.8448	2592.1	1711.25
938.5084	2080.3945	2584.7	1702.15
938.6448	2081.9434	2584.55	1701.45
938.7812	2083.4916	2570.35	1687.7
938.9176	2085.039	2578.8	1695.25
939.054	2086.5857	2568.25	1685.95
939.1903	2088.1317	2565.8	1682.9
939.3267	2089.677	2552.25	1669.6
939.463	2091.2215	2556.3	1674.4
939.5992	2092.7652	2567.4	1683.45
939.7355	2094.3083	2546.6	1664.3
939.8717	2095.8506	2541.95	1658
940.0079	2097.3921	2544.55	1662.6
940.1441	2098.933	2539.45	1659.55
940.2802	2100.4731	2533.7	1650.05
940.4163	2102.0124	2555.05	1654.9
940.5524	2103.5511	2535.25	1654.35
940.6885	2105.089	2520.95	1637.25
940.8245	2106.6261	2523.85	1638.3
940.9606	2108.1626	2526.4	1643
941.0965	2109.6983	2525.75	1614.95
941.2325	2111.2332	2506.95	1625.55
941.3684	2112.7675	2497.65	1612.55
941.5044	2114.301	2498.15	1614.15
941.6403	2115.8337	2489.1	1606.8
941.7761	2117.3657	2494.5	1612.35
941.912	2118.897	2492.45	1607.95
942.0478	2120.4276	2480.15	1591.8
942.1835	2121.9575	2466.35	1583.1
942.3193	2123.4866	2482.75	1585.45
942.455	2125.0149	2470.1	1585.7
942.5907	2126.5426	2465.85	1584.9
942.7264	2128.0695	2462.55	1576.05
942.8621	2129.5956	2455.45	1573.45
942.9977	2131.1211	2454.9	1566.25
943.1333	2132.6458	2445.45	1562.4
943.2689	2134.1698	2449.95	1567.25
943.4044	2135.693	2444.05	1558.95
943.54	2137.2155	2439.05	1553.8
943.6755	2138.7373	2436.65	1554.85
943.8109	2140.2584	2427.65	1545
943.9464	2141.7787	2425.15	1536.75
944.0818	2143.2983	2421.25	1538.05
944.2172	2144.8171	2416.1	1535.55
944.3526	2146.3353	2408.3	1523.15
944.4879	2147.8527	2393.95	1512.25
944.6232	2149.3693	2401.95	1519.55
944.7585	2150.8853	2398	1514.7
944.8938	2152.4005	2390.1	1505.4
945.029	2153.9149	2390.6	1506.95
945.1642	2155.4287	2371.45	1490.6
945.2994	2156.9417	2380.6	1496.95
945.4346	2158.454	2375.75	1490.1
945.5697	2159.9655	2372.95	1491.9
945.7048	2161.4764	2364.5	1482.85
945.8399	2162.9865	2363.8	1480.65
945.9749	2164.4958	2359.65	1475.2
946.1099	2166.0045	2356.05	1469.75
946.2449	2167.5124	2354.45	1469.65
946.3799	2169.0195	2339.8	1456.85
946.5148	2170.526	2340.65	1457
946.6498	2172.0317	2333.45	1451.65
946.7846	2173.5367	2336.85	1452.7
946.9195	2175.0409	2334.9	1453.2
947.0543	2176.5445	2328.95	1449.3
947.1891	2178.0473	2327.5	1448.7
947.3239	2179.5494	2320.1	1433.8
947.4587	2181.0507	2312.8	1432.55
947.5934	2182.5513	2313.25	1430.9
947.7281	2184.0512	2318.65	1436.25
947.8628	2185.5504	2313.15	1430.3
947.9974	2187.0488	2296.3	1414.25
948.132	2188.5465	2306.9	1424.3
948.2666	2190.0435	2288.15	1405.1
948.4012	2191.5397	2289.25	1407.1
948.5357	2193.0353	2279.45	1396.7
948.6702	2194.5301	2282.5	1399.15
948.8047	2196.0241	2279	1397.6
948.9392	2197.5175	2264.95	1383.75
949.0736	2199.0101	2264.6	1378.5
949.208	2200.502	2257.45	1375.75
949.3424	2201.9931	2248.3	1365.7
949.4767	2203.4835	2253.15	1370.7
949.611	2204.9733	2255.55	1367.35
949.7453	2206.4622	2252.5	1369.35
949.8796	2207.9505	2236.05	1349.45
950.0138	2209.438	2232.65	1350.65
950.148	2210.9248	2227.45	1343.3
950.2822	2212.4109	2227.8	1345.55
950.4164	2213.8962	2221.5	1336.8
950.5505	2215.3809	2215	1331.85
950.6846	2216.8648	2213.6	1331.15
950.8186	2218.3479	2212.9	1327.3
950.9527	2219.8304	2203	1317.6
951.0867	2221.3121	2201.3	1319
951.2207	2222.7931	2191.55	1308.95
951.3546	2224.2733	2190.3	1308.05
951.4886	2225.7529	2187.1	1304.6
951.6225	2227.2317	2186.65	1299.35
951.7563	2228.7098	2173.7	1292.1
951.8902	2230.1872	2175	1292
952.024	2231.6638	2173.15	1290.35
952.1578	2233.1397	2175.35	1288.55
952.2916	2234.6149	2158	1274.45
952.4253	2236.0894	2162.15	1276.65
952.559	2237.5632	2164.6	1272.2
952.6927	2239.0362	2142.5	1259.65
952.8263	2240.5085	2144.95	1262.75
952.9599	2241.9801	2149.9	1266.7
953.0935	2243.4509	2136.45	1254.45
953.2271	2244.921	2131.7	1252.2
953.3606	2246.3904	2128.65	1244.85
953.4941	2247.8591	2106.6	1224.9
953.6276	2249.3271	2115.25	1233.5
953.7611	2250.7943	2117.95	1233.25
953.8945	2252.2608	2114.85	1232.4
954.0279	2253.7266	2107.4	1226.05
954.1612	2255.1917	2104.6	1221.65
954.2946	2256.656	2100.85	1217.9
954.4279	2258.1197	2093.4	1212.65
954.5612	2259.5826	2087.95	1202.85
954.6944	2261.0447	2092.35	1208.95
954.8276	2262.5062	2086.85	1201.6
954.9608	2263.9669	2088.3	1204.5
955.094	2265.4269	2067	1183.8
955.2271	2266.8862	2073.8	1190.25
955.3602	2268.3448	2075.05	1190.45
955.4933	2269.8026	2080.2	1198.7
955.6264	2271.2598	2061.35	1178.9
955.7594	2272.7162	2063.15	1181.6
955.8924	2274.1719	2063.2	1181.15
956.0253	2275.6268	2059.65	1179.05
956.1583	2277.0811	2060.05	1177.1
956.2912	2278.5346	2054.45	1172.95
956.4241	2279.9874	2049.35	1167.8
956.5569	2281.4395	2044.55	1161.6
956.6897	2282.8908	2050.75	1163
956.8225	2284.3414	2048.25	1165.6
956.9553	2285.7914	2041	1160.05
957.088	2287.2406	2042.7	1156.7
957.2207	2288.689	2037.05	1152.7
957.3534	2290.1368	2031.15	1149.15
957.486	2291.5838	2033.75	1150.35
957.6186	2293.0302	2033.1	1150.8
957.7512	2294.4758	2021	1138.8
957.8838	2295.9206	2018.05	1134.5
958.0163	2297.3648	2012.85	1130.5
958.1488	2298.8082	2018.55	1133.9
958.2813	2300.251	2015.5	1131.8
958.4137	2301.693	2013.65	1127.35
958.5461	2303.1343	2011.85	1129.65
958.6785	2304.5748	1998.7	1115.9
958.8108	2306.0147	1997.9	1115.9
958.9432	2307.4538	1995.25	1109.85
959.0754	2308.8922	1984.05	1104.45
959.2077	2310.3299	1990.1	1106.95
959.3399	2311.7669	1977.65	1098.1
959.4721	2313.2031	1979.35	1095.45
959.6043	2314.6387	1982.45	1100.05
959.7365	2316.0735	1964.55	1082.95
959.8686	2317.5076	1973.75	1091.25
960.0006	2318.941	1965.6	1083.6
960.1327	2320.3737	1963.55	1079.9
960.2647	2321.8056	1957.85	1074.3
960.3967	2323.2369	1959.45	1077.65
960.5287	2324.6674	1955.5	1070.15
960.6606	2326.0972	1954.65	1072.15
960.7925	2327.5263	1956.55	1074.6
960.9244	2328.9547	1948.15	1065.15
961.0562	2330.3823	1952.4	1068.7
961.1881	2331.8092	1937.4	1053.75
961.3198	2333.2355	1933.6	1051.45
961.4516	2334.661	1943.75	1058.3
961.5833	2336.0858	1931.85	1047.2
961.715	2337.5098	1923.5	1041.45
961.8467	2338.9332	1930.65	1045.5
961.9783	2340.3558	1929.95	1042.95
962.1099	2341.7778	1918.05	1037.55
962.2415	2343.199	1927.1	1042.75
962.373	2344.6195	1917.3	1034.9
962.5045	2346.0393	1912.6	1032.5
962.636	2347.4583	1925.5	1042.35
962.7675	2348.8767	1917.7	1033.75
962.8989	2350.2943	1908.45	1024.35
963.0303	2351.7113	1913.8	1030.1
963.1617	2353.1275	1907.65	1023.5
963.293	2354.543	1929.7	1023.25
963.4243	2355.9578	1903.1	1021.45
963.5556	2357.3718	1888.25	1006.3
963.6868	2358.7852	1894.95	1009.6
963.818	2360.1978	1891.7	1007.75
963.9492	2361.6098	1891.05	1009.1
964.0803	2363.021	1885	996.65
964.2114	2364.4315	1886.05	1003.25
964.3425	2365.8413	1888.75	1005.3
964.4736	2367.2504	1873.1	990.5
964.6046	2368.6587	1876	992.8
964.7356	2370.0664	1857.45	975.5
964.8666	2371.4733	1867.3	985
964.9975	2372.8795	1864.5	983.3
965.1284	2374.285	1863.45	980.4
965.2593	2375.6899	1846.35	963.3
965.3901	2377.0939	1858.45	977.3
965.5209	2378.4973	1853.95	972.8
965.6517	2379.9	1856.9	975.6
965.7825	2381.3019	1845.05	962.8
965.9132	2382.7032	1845.9	962.7
966.0439	2384.1037	1828.65	947.15
966.1745	2385.5035	1832.7	949.15
966.3051	2386.9027	1836.7	955.65
966.4357	2388.3011	1827	941.4
966.5663	2389.6987	1829.6	948.65
966.6968	2391.0957	1826.3	943.2
966.8273	2392.492	1816.7	936.3
966.9578	2393.8876	1816.05	931.5
967.0882	2395.2824	1807.35	924.2
967.2186	2396.6765	1803.05	920.05
967.349	2398.07	1795.4	914.1
967.4793	2399.4627	1790.15	908
967.6097	2400.8547	1794.05	911.8
967.7399	2402.246	1801.95	914.95
967.8702	2403.6366	1790.2	906.6
968.0004	2405.0265	1784.35	903.2
968.1306	2406.4156	1786.75	898
968.2607	2407.8041	1787.9	903
968.3909	2409.1918	1784.7	899.2
968.521	2410.5789	1777.4	894
968.651	2411.9652	1780.85	896.8
968.781	2413.3508	1771.25	887.7
968.911	2414.7358	1773.8	892.55
969.041	2416.12	1772.85	891.7
969.1709	2417.5035	1760.85	880.9
969.3008	2418.8863	1760.75	877.75
969.4307	2420.2684	1755.5	875.15
969.5606	2421.6497	1755.05	872.15
969.6904	2423.0304	1755.25	874.8
969.8201	2424.4104	1745.1	863.7
969.9499	2425.7896	1752.85	863.55
970.0796	2427.1682	1742.05	861.6
970.2093	2428.546	1744.25	860.35
970.3389	2429.9232	1736	851.85
970.4685	2431.2996	1743.65	861.9
970.5981	2432.6753	1734.4	853.25
970.7277	2434.0503	1738.7	856.6
970.8572	2435.4246	1737.45	856.25
970.9867	2436.7982	1725.25	841.35
971.1161	2438.1711	1732.45	853.3
971.2456	2439.5433	1725.35	842.25
971.375	2440.9148	1725.35	837.7
971.5043	2442.2856	1716	833.2
971.6336	2443.6557	1714.8	830
971.7629	2445.025	1713.9	833.25
971.8922	2446.3937	1705.95	823.4
972.0214	2447.7617	1704	821.8
972.1506	2449.1289	1710.55	828.75
972.2798	2450.4955	1703.4	818.7
972.4089	2451.8613	1701.25	820.6
972.538	2453.2265	1702.45	821.3
972.6671	2454.5909	1698	813.7
972.7961	2455.9546	1687.4	806.4
972.9251	2457.3177	1688	807.95
973.0541	2458.68	1683.8	800.1
973.1831	2460.0416	1690.6	809.05
973.312	2461.4025	1693.75	810.05
973.4408	2462.7627	1696.65	803.3
973.5697	2464.1222	1690.05	807.95
973.6985	2465.4811	1688.05	805.9
973.8273	2466.8392	1672.3	789.05
973.956	2468.1966	1682.55	798.6
974.0847	2469.5533	1687.75	801.45
974.2134	2470.9093	1679.85	798.3
974.3421	2472.2645	1677.1	794.55
974.4707	2473.6191	1675.1	794.1
974.5993	2474.973	1673.9	792
974.7278	2476.3262	1668.15	785
974.8563	2477.6787	1667.5	784.35
974.9848	2479.0305	1661.3	781.15
975.1132	2480.3816	1658.7	776.6
975.2417	2481.7319	1664.05	783.8
975.37	2483.0816	1663.55	779.15
975.4984	2484.4306	1654.25	771.15
975.6267	2485.7789	1649.4	768.2
975.755	2487.1264	1652.95	769.15
975.8833	2488.4733	1646.6	766.9
976.0115	2489.8195	1636.95	747.95
976.1397	2491.165	1647.85	762.4
976.2678	2492.5097	1641.7	758.9
976.3959	2493.8538	1637.2	754.3
976.524	2495.1972	1629.8	744.6
976.6521	2496.5398	1625.55	741.85
976.7801	2497.8818	1630.35	745.8
976.9081	2499.2231	1635.75	752.2
977.036	2500.5637	1629.6	746.85
977.164	2501.9035	1630.45	747.55
977.2918	2503.2427	1627.1	739.95
977.4197	2504.5812	1617.8	736.4
977.5475	2505.919	1622.1	737.55
977.6753	2507.256	1622.55	741.8
977.8031	2508.5924	1612.1	730.1
977.9308	2509.9281	1621.2	731.45
978.0585	2511.2631	1609.55	727.5
978.1861	2512.5974	1605.8	723.6
978.3137	2513.9309	1607.85	725.75
978.4413	2515.2638	1632.65	719.95
978.5689	2516.596	1609.7	727.2
978.6964	2517.9275	1596.25	713.75
978.8239	2519.2583	1598.15	715
978.9513	2520.5884	1599.3	715.15
979.0788	2521.9178	1595.25	714.8
979.2062	2523.2465	1584.55	703.75
979.3335	2524.5745	1578.45	697
979.4608	2525.9018	1585.3	702.65
979.5881	2527.2284	1586.05	705.35
979.7154	2528.5543	1580.05	697.45
979.8426	2529.8796	1580.6	698.25
979.9698	2531.2041	1578.5	694.9
980.0969	2532.5279	1581.6	700.7
980.224	2533.851	1594.1	710.65
980.3511	2535.1735	1585.5	704.3
980.4781	2536.4952	1582.5	701.95
980.6052	2537.8163	1570.95	687.45
980.7321	2539.1366	1568.95	688.15
980.8591	2540.4562	1576.95	695.2
980.986	2541.7752	1572.4	691.4
981.1129	2543.0935	1571	689.55
981.2397	2544.411	1576.45	692.9
981.3665	2545.7279	1566.4	683.9
981.4933	2547.0441	1572.6	692.05
981.62	2548.3596	1569.55	683.8
981.7467	2549.6744	1570.15	686.65
981.8734	2550.9885	1575.05	687.1
982.0001	2552.3019	1559.85	677.95
982.1267	2553.6146	1562.9	682.1
982.2532	2554.9266	1561.8	681.1
982.3798	2556.2379	1562	678.35
982.5063	2557.5485	1552.6	670.8
982.6327	2558.8585	1555.6	666.1
982.7592	2560.1677	1553.95	667.3
982.8856	2561.4762	1557.15	673.05
983.0119	2562.7841	1551.05	665.9
983.1383	2564.0913	1545.35	664.8
983.2646	2565.3977	1543.05	662.65
983.3908	2566.7035	1540.65	658.35
983.517	2568.0086	1545.45	664.65
983.6432	2569.313	1548.35	665.05
983.7694	2570.6167	1544.7	658.9
983.8955	2571.9197	1543.85	662.85
984.0216	2573.222	1547.5	661.75
984.1476	2574.5236	1540.65	656
984.2737	2575.8246	1537.9	652.7
984.3996	2577.1248	1541.2	657.35
984.5256	2578.4244	1539.4	660.4
984.6515	2579.7232	1548.8	665.3
984.7774	2581.0214	1560.4	643.5
984.9032	2582.3189	1537.1	654.85
985.029	2583.6157	1543.3	655.95
985.1548	2584.9118	1534.8	652.05
985.2806	2586.2072	1534.8	652.5
985.4063	2587.5019	1533.75	650.85
985.5319	2588.7959	1533.65	652.6
985.6576	2590.0893	1533.35	649.5
985.7832	2591.3819	1536.2	656.45
985.9087	2592.6739	1530.9	651.4
986.0343	2593.9652	1535.75	652.9
986.1597	2595.2557	1538.45	657.6
986.2852	2596.5456	1542.05	657.75
986.4106	2597.8348	1538.6	657.4
986.536	2599.1234	1525.9	645.25
986.6614	2600.4112	1535.85	652.75
986.7867	2601.6983	1534.4	650.2
986.912	2602.9848	1533.55	652.45
987.0372	2604.2705	1538.4	648.25
987.1624	2605.5556	1526.6	645.1
987.2876	2606.84	1527.1	646.4
987.4128	2608.1237	1529.6	646.15
987.5379	2609.4067	1521.3	638.85
987.6629	2610.689	1522.75	631.45
987.788	2611.9707	1521.6	637.95
987.913	2613.2516	1517.3	631.2
988.0379	2614.5319	1505.2	624.05
988.1629	2615.8115	1509.35	626.8
988.2878	2617.0903	1505.35	621.1
988.4126	2618.3685	1505.2	622.6
988.5375	2619.6461	1505.7	623.15
988.6622	2620.9229	1498.9	616.1
988.787	2622.199	1506.6	622
988.9117	2623.4745	1497.35	614.05
989.0364	2624.7493	1494.35	613.4
989.161	2626.0234	1491.8	611.6
989.2857	2627.2968	1490.75	609.95
989.4102	2628.5695	1490.15	606.8
989.5348	2629.8415	1490.75	611.05
989.6593	2631.1128	1487.65	603.55
989.7837	2632.3835	1480.8	601.85
989.9082	2633.6535	1485.1	603.65
990.0326	2634.9228	1481.85	601.45
990.1569	2636.1914	1485.85	603.95
990.2812	2637.4593	1487.2	604.4
990.4055	2638.7265	1482.25	600.7
990.5298	2639.9931	1466.25	585
990.654	2641.259	1482.75	599.65
990.7782	2642.5242	1474.15	590.7
990.9023	2643.7887	1475.05	592.75
991.0264	2645.0525	1469.4	586.05
991.1505	2646.3156	1468.6	585.25
991.2745	2647.5781	1467.7	587.5
991.3985	2648.8398	1460.4	579.4
991.5225	2650.1009	1500.75	582.2
991.6464	2651.3613	1462.45	579.5
991.7703	2652.6211	1455.35	573.15
991.8942	2653.8801	1458.4	576.5
992.018	2655.1385	1452.35	567.05
992.1418	2656.3961	1460.4	580.8
992.2655	2657.6531	1458.4	576.8
992.3892	2658.9094	1463.95	581.8
992.5129	2660.1651	1458.55	578.05
992.6366	2661.42	1461.2	578.95
992.7602	2662.6743	1459.75	576.15
992.8837	2663.9279	1461.15	578.35
993.0073	2665.1808	1460.05	577.4
993.1307	2666.433	1463.85	581.45
993.2542	2667.6846	1464.75	583.35
993.3776	2668.9354	1474.2	588.5
993.501	2670.1856	1472.05	589.95
993.6244	2671.4351	1467.75	586.05
993.7477	2672.6839	1472.95	589
993.8709	2673.9321	1467.65	585.7
993.9942	2675.1795	1472.95	590.25
994.1174	2676.4263	1470.9	588.8
994.2405	2677.6724	1473.65	592.9
994.3637	2678.9179	1472.95	592.3
994.4868	2680.1626	1476	593.9
994.6098	2681.4067	1474.25	590.7
994.7328	2682.6501	1466.65	584.55
994.8558	2683.8928	1467	585.5
994.9788	2685.1348	1464.05	584.85
995.1017	2686.3761	1459.45	577.2
995.2245	2687.6168	1458	576.45
995.3474	2688.8568	1454.2	573.4
995.4702	2690.0961	1450.35	568.55
995.5929	2691.3348	1450.6	567.55
995.7156	2692.5727	1443.1	562.1
995.8383	2693.81	1448	566.5
995.961	2695.0466	1443.25	564.05
996.0836	2696.2826	1443.25	559.7
996.2062	2697.5178	1444.85	560.95
996.3287	2698.7524	1446.75	563.5
996.4512	2699.9863	1444.3	558.7
996.5737	2701.2195	1441.1	560.45
996.6961	2702.452	1443.75	558.5
996.8185	2703.6839	1453.2	570.25
996.9408	2704.9151	1454.75	574.2
997.0631	2706.1456	1462.55	578.9
997.1854	2707.3755	1467.95	585.9
997.3077	2708.6046	1465.05	581.95
997.4299	2709.8331	1480.5	598.1
997.552	2711.0609	1472.15	589.65
997.6742	2712.2881	1480.35	597.6
997.7963	2713.5145	1494.55	611.5
997.9183	2714.7403	1501.2	620.45
998.0403	2715.9654	1503.05	620.25
998.1623	2717.1899	1525.95	629.35
998.2842	2718.4136	1524.85	642.8
998.4062	2719.6367	1532.25	649.9
998.528	2720.8591	1549.95	661.05
998.6498	2722.0809	1555.15	671.8
998.7716	2723.3019	1565.35	679.15
998.8934	2724.5223	1570.9	686.35
999.0151	2725.7421	1574.5	692.75
999.1368	2726.9611	1569.5	683.95
999.2584	2728.1795	1573.65	686.85
999.38	2729.3972	1559.25	675.9
999.5016	2730.6142	1567.7	672.35
999.6231	2731.8306	1549.25	665.3
999.7446	2733.0462	1531.15	648.35
999.8661	2734.2612	1518.55	630.85
999.9875	2735.4756	1496.55	614.25
1000.1089	2736.6892	1485.3	601.2
1000.2302	2737.9022	1469.2	586.9
1000.3515	2739.1145	1462.1	580.75
1000.4728	2740.3262	1459	568.05
1000.594	2741.5372	1444.35	562.45
1000.7152	2742.7475	1437.7	556.45
1000.8363	2743.9571	1426.95	543.6
1000.9575	2745.1661	1422	534.5
1001.0785	2746.3744	1408.45	525.75
1001.1996	2747.582	1399.5	516.9
1001.3206	2748.7889	1394.95	511.7
1001.4415	2749.9952	1388.8	507.05
1001.5625	2751.2008	1389	504.7
1001.6833	2752.4057	1390.3	505.2
1001.8042	2753.61	1379.85	497.5
1001.925	2754.8136	1377.2	492.8
1002.0458	2756.0165	1373.5	491.15
1002.1665	2757.2188	1368.85	485.7
1002.2872	2758.4204	1378	496.7
1002.4078	2759.6213	1372.95	488.9
1002.5285	2760.8215	1376.15	487.85
1002.649	2762.0211	1372.15	489.25
1002.7696	2763.22	1371.95	486.15
1002.8901	2764.4182	1366.65	484.35
1003.0106	2765.6158	1365.95	483.6
1003.131	2766.8127	1365.6	484.25
1003.2514	2768.009	1359.35	477.6
1003.3717	2769.2045	1357.9	473.95
1003.492	2770.3994	1357.2	472.65
1003.6123	2771.5936	1358	475.15
1003.7325	2772.7872	1343.1	463.35
1003.8527	2773.9801	1340.7	456.45
1003.9729	2775.1723	1359.95	464.85
1004.093	2776.3639	1340	459.55
1004.2131	2777.5548	1342	457.75
1004.3331	2778.745	1341.3	456.65
1004.4531	2779.9346	1340.6	459.9
1004.5731	2781.1235	1341.3	456.7
1004.693	2782.3117	1341.1	458.9
1004.8129	2783.4992	1345.6	461.2
1004.9328	2784.6861	1349.5	468.65
1005.0526	2785.8723	1356.75	473.35
1005.1723	2787.0579	1353.15	469.85
1005.2921	2788.2428	1355.35	471.6
1005.4118	2789.427	1359.75	477.35
1005.5314	2790.6106	1367.6	487.15
1005.651	2791.7935	1368.55	484.5
1005.7706	2792.9757	1373.9	491.95
1005.8902	2794.1573	1382.4	499
1006.0097	2795.3382	1388.1	507.4
1006.1291	2796.5184	1395.8	516.1
1006.2485	2797.698	1399.7	515.25
1006.3679	2798.8769	1414.2	532.05
1006.4873	2800.0551	1418	535.15
1006.6066	2801.2327	1433.05	549.7
1006.7258	2802.4096	1442.8	562.6
1006.8451	2803.5859	1447.75	565.8
1006.9642	2804.7615	1471.8	590.25
1007.0834	2805.9364	1480.05	598.25
1007.2025	2807.1106	1503.5	621.65
1007.3216	2808.2842	1515.8	633.5
1007.4406	2809.4572	1535.1	652.5
1007.5596	2810.6294	1568.5	684.25
1007.6785	2811.801	1592.4	710.7
1007.7975	2812.972	1629.9	748.2
1007.9163	2814.1423	1664.3	783.15
1008.0352	2815.3119	1692.05	809.35
1008.154	2816.4808	1742.05	859.6
1008.2727	2817.6491	1773.6	888.25
1008.3914	2818.8167	1818.1	937.55
1008.5101	2819.9837	1879.6	993.15
1008.6288	2821.15	1920.25	1039.05
1008.7474	2822.3157	1972.15	1091.85
1008.8659	2823.4807	2026.85	1144.3
1008.9844	2824.645	2081.2	1198.4
1009.1029	2825.8086	2126.7	1243.9
1009.2214	2826.9716	2187.4	1305.2
1009.3398	2828.134	2223.45	1341.6
1009.4581	2829.2957	2259.85	1376.95
1009.5764	2830.4567	2300.75	1419.95
1009.6947	2831.617	2322.6	1441.4
1009.813	2832.7767	2339.25	1456.75
1009.9312	2833.9358	2324.5	1444.6
1010.0493	2835.0941	2317.1	1431.8
1010.1675	2836.2519	2312.35	1430.95
1010.2855	2837.4089	2291.3	1408.85
1010.4036	2838.5653	2276.35	1395.15
1010.5216	2839.7211	2260.75	1380.9
1010.6396	2840.8761	2252.05	1369.95
1010.7575	2842.0306	2254.4	1373.95
1010.8754	2843.1843	2272.6	1390.9
1010.9932	2844.3374	2286.85	1402.9
1011.111	2845.4899	2331.2	1450.05
1011.2288	2846.6417	2374.6	1492
1011.3465	2847.7928	2423.75	1542.95
1011.4642	2848.9433	2468.15	1586.85
1011.5818	2850.0931	2540.7	1657.5
1011.6995	2851.2422	2572.8	1688.25
1011.817	2852.3907	2611.95	1729.2
1011.9345	2853.5385	2671.6	1786.25
1012.052	2854.6857	2742.5	1835.9
1012.1695	2855.8323	2767.1	1885.75
1012.2869	2856.9781	2793.55	1911.7
1012.4042	2858.1233	2845.55	1965.65
1012.5216	2859.2679	2886.9	2004.9
1012.6389	2860.4118	2940.6	2057.4
1012.7561	2861.555	2978.55	2093.15
1012.8733	2862.6976	3018.5	2133.15
1012.9905	2863.8395	3048.25	2167.4
1013.1076	2864.9808	3066.3	2183.3
1013.2247	2866.1214	3087.35	2207.35
1013.3417	2867.2614	3108.05	2223.85
1013.4587	2868.4007	3115.7	2234.15
1013.5757	2869.5393	3133.85	2249.5
1013.6926	2870.6773	3151.8	2265.7
1013.8095	2871.8146	3161.3	2275.5
1013.9263	2872.9513	3160.7	2277.05
1014.0431	2874.0874	3143.9	2262.75
1014.1599	2875.2227	3135.45	2251.3
1014.2766	2876.3574	3115.15	2233.5
1014.3933	2877.4915	3102.35	2222.85
1014.51	2878.6249	3086.6	2206.1
1014.6266	2879.7577	3052.4	2169.25
1014.7431	2880.8898	3058.25	2166.05
1014.8596	2882.0212	3022	2141.3
1014.9761	2883.152	3016.15	2133.05
1015.0925	2884.2821	2997.5	2117.9
1015.2089	2885.4116	3001.95	2118.95
1015.3253	2886.5405	2997.85	2115.9
1015.4416	2887.6686	3017.15	2131.6
1015.5579	2888.7962	3014.65	2132.65
1015.6741	2889.923	3025	2143.75
1015.7903	2891.0493	3026.7	2143.9
1015.9065	2892.1748	3040.4	2159.1
1016.0226	2893.2997	3037.1	2155.05
1016.1387	2894.424	3057.95	2178
1016.2547	2895.5476	3069.4	2189.45
1016.3707	2896.6706	3078.95	2197.1
1016.4866	2897.7929	3104.9	2222.65
1016.6025	2898.9145	3124.65	2242
1016.7184	2900.0355	3154.75	2271
1016.8342	2901.1559	3166.65	2283.55
1016.95	2902.2756	3194.05	2313.05
1017.0658	2903.3946	3219.4	2337.7
1017.1815	2904.513	3254.55	2369.25
1017.2971	2905.6308	3260.55	2378.7
1017.4127	2906.7479	3272.35	2389.7
1017.5283	2907.8643	3314.95	2432.85
1017.6439	2908.9801	3322.35	2441.45
1017.7594	2910.0953	3321.4	2440.2
1017.8748	2911.2098	3324.2	2438.9
1017.9902	2912.3236	3319.45	2428.9
1018.1056	2913.4368	3309.45	2426.7
1018.2209	2914.5494	3289.3	2406.3
1018.3362	2915.6613	3261.35	2373.35
1018.4515	2916.7725	3241.1	2357.6
1018.5667	2917.8831	3208.8	2325.95
1018.6819	2918.9931	3185.15	2299.9
1018.797	2920.1024	3148.5	2265.4
1018.9121	2921.211	3147.6	2266.3
1019.0271	2922.319	3128.05	2244.95
1019.1421	2923.4264	3113.6	2233.05
1019.2571	2924.5331	3099.25	2219.35
1019.372	2925.6391	3100.05	2219.7
1019.4869	2926.7445	3093.75	2213
1019.6017	2927.8493	3102	2220.4
1019.7165	2928.9534	3099.9	2218.4
1019.8313	2930.0569	3119.1	2234.15
1019.946	2931.1597	3119.95	2237.9
1020.0606	2932.2619	3116.7	2235.3
1020.1753	2933.3634	3112.45	2232.4
1020.2899	2934.4643	3141.8	2253.7
1020.4044	2935.5645	3119.85	2233.55
1020.5189	2936.6641	3101.45	2216.2
1020.6334	2937.763	3079.5	2198.2
1020.7478	2938.8613	3056.95	2175.05
1020.8622	2939.959	3015.5	2128.35
1020.9765	2941.056	2963.45	2082.7
1021.0908	2942.1523	2910.65	2027.2
1021.2051	2943.248	2852.6	1967.7
1021.3193	2944.3431	2769.25	1888.2
1021.4334	2945.4375	2682.45	1800.5
1021.5476	2946.5313	2608.3	1727.65
1021.6617	2947.6244	2523.6	1642.35
1021.7757	2948.7169	2438.55	1556.75
1021.8897	2949.8087	2355.5	1473.9
1022.0037	2950.8999	2282.25	1398.5
1022.1176	2951.9904	2210.7	1327.75
1022.2315	2953.0803	2152.2	1269.4
1022.3453	2954.1696	2099.3	1217.7
1022.4591	2955.2582	2058.55	1177.3
1022.5728	2956.3462	2020.55	1138.1
1022.6865	2957.4335	1987.15	1104.8
1022.8002	2958.5202	1944.1	1060.7
1022.9138	2959.6062	1926.85	1045.75
1023.0274	2960.6916	1905.55	1021.3
1023.141	2961.7764	1890.9	1008.4
1023.2545	2962.8605	1870.45	988.35
1023.3679	2963.9439	1859.45	977.6
1023.4813	2965.0267	1854.5	971.75
1023.5947	2966.1089	1872.05	966.8
1023.708	2967.1905	1842.95	960.45
1023.8213	2968.2714	1845.85	966.35
1023.9346	2969.3516	1838	956.65
1024.0478	2970.4312	1857.85	966.7
1024.1609	2971.5102	1851.25	970.2
1024.274	2972.5885	1853	973.05
1024.3871	2973.6662	1853.55	967.3
1024.5002	2974.7432	1844.75	965.05
1024.6132	2975.8196	1862.85	981.85
1024.7261	2976.8954	1853.25	971.65
1024.839	2977.9705	1850.75	967.45
1024.9519	2979.045	1831.95	949.15
1025.0647	2980.1188	1826.45	946.4
1025.1775	2981.192	1803.55	922.3
1025.2902	2982.2645	1788.95	903.9
1025.4029	2983.3364	1765.8	883.95
1025.5156	2984.4077	1743.3	862.3
1025.6282	2985.4783	1734.9	846.85
1025.7407	2986.5483	1703.6	823.15
1025.8532	2987.6177	1672.9	792.45
1025.9657	2988.6864	1645.6	761.65
1026.0782	2989.7545	1622.6	740.2
1026.1906	2990.8219	1602.05	720.25
1026.3029	2991.8887	1568.2	684.5
1026.4152	2992.9548	1536.15	655.2
1026.5275	2994.0204	1506.95	627.25
1026.6397	2995.0852	1470.35	587.3
1026.7519	2996.1495	1455.55	571.2
1026.864	2997.2131	1441.7	560.8
1026.9761	2998.276	1415.55	532.95
1027.0882	2999.3383	1396.9	514.85
1027.2002	3000.4	1373.2	488.95
1027.3122	3001.4611	1359.65	476.55
1027.4241	3002.5215	1347.9	467
1027.536	3003.5812	1334.25	451.55
1027.6478	3004.6404	1319.35	438.3
1027.7596	3005.6989	1312	426.55
1027.8714	3006.7567	1296.6	413.95
1027.9831	3007.8139	1319.05	411.85
1028.0947	3008.8705	1280.75	398.75
1028.2064	3009.9264	1283.5	383.3
1028.3179	3010.9818	1269.55	387.05
1028.4295	3012.0364	1260.65	377.85
1028.541	3013.0905	1249.85	367.6
1028.6524	3014.1439	1245.8	365.2
1028.7638	3015.1966	1247.1	366.25
1028.8752	3016.2487	1240.85	358.2
1028.9865	3017.3002	1238.45	352.4
1029.0978	3018.3511	1238.1	356.95
1029.209	3019.4013	1232.5	350.7
1029.3202	3020.4509	1226.85	344.55
1029.4314	3021.4998	1226.75	345.95
1029.5425	3022.5481	1235.7	354.15
1029.6535	3023.5958	1219.9	337
1029.7645	3024.6428	1218.15	335.55
1029.8755	3025.6892	1226.15	345.65
1029.9864	3026.735	1217.95	337
1030.0973	3027.7802	1220.75	337.6
1030.2082	3028.8247	1223.65	342.7
1030.319	3029.8685	1215.45	332.15
1030.4297	3030.9118	1219.9	335.35
1030.5404	3031.9544	1220.85	338
1030.6511	3032.9963	1224.15	342.3
1030.7617	3034.0376	1226.75	344.7
1030.8723	3035.0783	1233.1	348.85
1030.9829	3036.1184	1228.55	345.5
1031.0934	3037.1578	1230.8	350.75
1031.2038	3038.1966	1236.05	353.8
1031.3142	3039.2348	1230.45	349.85
1031.4246	3040.2723	1241.85	352.8
1031.5349	3041.3092	1231.75	351.1
1031.6452	3042.3455	1227.95	347.45
1031.7554	3043.3811	1232.2	348.45
1031.8656	3044.4161	1228.15	345
1031.9758	3045.4505	1231.9	351.65
1032.0859	3046.4842	1229.45	348.25
1032.1959	3047.5173	1228.9	348.8
1032.3059	3048.5498	1222.75	339.55
1032.4159	3049.5816	1218.7	337.05
1032.5258	3050.6128	1226.65	344.25
1032.6357	3051.6434	1216.95	333.9
1032.7455	3052.6734	1217.45	335.3
1032.8553	3053.7027	1212.7	329.15
1032.9651	3054.7314	1210.4	329.2
1033.0748	3055.7594	1206.7	325.55
1033.1845	3056.7868	1206.2	322.85
1033.2941	3057.8136	1205.35	324.05
1033.4037	3058.8398	1201.35	320.4
1033.5132	3059.8653	1201.75	318.95
1033.6227	3060.8902	1196.6	315.8
1033.7321	3061.9145	1194.35	311.85
1033.8415	3062.9381	1199.55	316.95
1033.9509	3063.9612	1212.5	314.1
1034.0602	3064.9835	1193.1	311
1034.1694	3066.0053	1191.75	308.1
1034.2787	3067.0264	1183.05	303.05
1034.3878	3068.0469	1184.35	300.4
1034.497	3069.0668	1178.55	293.85
1034.6061	3070.086	1177.2	296.65
1034.7151	3071.1046	1175	289.25
1034.8241	3072.1226	1167.3	284
1034.9331	3073.1399	1159.1	277.4
1035.042	3074.1567	1152.35	272.2
1035.1508	3075.1727	1152.6	269.65
1035.2597	3076.1882	1145.2	262.4
1035.3684	3077.203	1134.05	253.55
1035.4772	3078.2173	1128.75	245.3
1035.5859	3079.2308	1127.7	241.75
1035.6945	3080.2438	1127.5	244.7
1035.8031	3081.2561	1121.55	239.25
1035.9117	3082.2678	1110.05	228.4
1036.0202	3083.2789	1108.8	228.7
1036.1286	3084.2893	1096.25	211.95
1036.2371	3085.2991	1097.8	217.45
1036.3454	3086.3083	1098.45	212.4
1036.4538	3087.3169	1096.45	214.15
1036.562	3088.3248	1085.8	201.7
1036.6703	3089.3321	1082.4	199.3
1036.7785	3090.3388	1080.3	199.8
1036.8866	3091.3449	1072.55	191
1036.9948	3092.3503	1076.2	194.25
1037.1028	3093.3551	1070.25	190
1037.2108	3094.3593	1064.8	184.75
1037.3188	3095.3629	1062.55	183.1
1037.4267	3096.3658	1063.55	181.75
1037.5346	3097.3681	1059.25	178.95
1037.6425	3098.3698	1059.9	175.95
1037.7503	3099.3708	1060.95	172.4
1037.858	3100.3713	1049.8	169.65
1037.9657	3101.3711	1051.25	168.85
1038.0734	3102.3702	1191.65	168.45
1038.181	3103.3688	1051.25	169.15
1038.2886	3104.3667	1044.25	162.75
1038.3961	3105.364	1041.2	161.3
1038.5036	3106.3607	1041.4	159.45
1038.611	3107.3568	1042.8	160.25
1038.7184	3108.3522	1036.7	156.1
1038.8257	3109.347	1036	152.95
1038.933	3110.3412	1038.9	152.05
1039.0403	3111.3348	1031.1	147.95
1039.1475	3112.3277	1026.15	144.8
1039.2547	3113.32	1025.85	144.35
1039.3618	3114.3117	1027.85	144.4
1039.4689	3115.3028	1026.7	146.25
1039.5759	3116.2932	1021.85	138.85
1039.6829	3117.2831	1025.3	138.75
1039.7898	3118.2723	1020.4	141.1
1039.8967	3119.2608	1015.3	134.15
1040.0035	3120.2488	1014.65	132.85
1040.1103	3121.2361	1013.5	130.8
1040.2171	3122.2229	1014.35	132.45
1040.3238	3123.209	1012.7	131.15
1040.4305	3124.1944	1007.45	127.4
1040.5371	3125.1793	1009.9	126.95
1040.6437	3126.1635	1007.75	127.55
1040.7502	3127.1471	1006.25	127.1
1040.8567	3128.1301	1002.1	121.95
1040.9631	3129.1125	1005.25	124
1041.0695	3130.0942	1004.05	120.65
1041.1759	3131.0753	1010.15	119.05
1041.2822	3132.0558	1003.85	120.2
1041.3884	3133.0357	997.65	112.95
1041.4946	3134.015	997.05	116.3
1041.6008	3134.9936	1001.85	118.55
1041.7069	3135.9716	1020.3	116.9
1041.813	3136.949	998.45	117.95
1041.919	3137.9258	1018.05	119.35
1042.025	3138.902	1000.8	114.8
1042.1309	3139.8775	993.15	110.2
1042.2368	3140.8524	992.8	110.7
1042.3427	3141.8267	995.45	110.05
1042.4485	3142.8004	990.9	107.95
1042.5542	3143.7735	995.65	107.35
1042.6599	3144.7459	993.8	110
1042.7656	3145.7178	990.4	106.9
1042.8712	3146.689	984.35	103.15
1042.9768	3147.6596	992	108.6
1043.0823	3148.6295	986	105.95
1043.1878	3149.5989	986.95	105.55
1043.2932	3150.5676	982.95	104.25
1043.3986	3151.5357	985.75	104
1043.5039	3152.5032	984.55	101.8
1043.6092	3153.4701	984	100.55
1043.7145	3154.4364	984	100.15
1043.8197	3155.402	981.35	99.25
1043.9248	3156.367	982.1	98.45
1044.03	3157.3315	1008.7	96.15
1044.135	3158.2952	977.3	96.85
1044.24	3159.2584	979.8	98.4
1044.345	3160.221	976.5	93.9
1044.4499	3161.1829	977.45	96.85
1044.5548	3162.1442	977.1	94.45
1044.6596	3163.105	976.15	93.65
1044.7644	3164.065	973.8	91.3
1044.8692	3165.0245	975.8	91.65
1044.9739	3165.9834	973.3	93.15
1045.0785	3166.9416	972.85	89.6
1045.1831	3167.8993	974.65	92.65
1045.2877	3168.8563	973.7	92.7
1045.3922	3169.8127	971	90
1045.4966	3170.7684	971.6	91.3
1045.6011	3171.7236	970.9	88
1045.7054	3172.6782	974.45	94.15
1045.8098	3173.6321	971.15	86.85
1045.914	3174.5854	973.5	87.45
1046.0183	3175.5381	970.5	87.2
1046.1224	3176.4902	971.6	91.5
1046.2266	3177.4417	968.9	87.35
1046.3307	3178.3926	967.2	87.05
1046.4347	3179.3428	965.1	84.6
1046.5387	3180.2924	965.35	85.2
1046.6427	3181.2415	964.2	81.2
1046.7466	3182.1899	967.7	84.9
1046.8504	3183.1377	962.75	81.9
1046.9542	3184.0848	968.65	85.7
1047.058	3185.0314	966.95	84.8
1047.1617	3185.9773	962.4	80.35
1047.2654	3186.9227	962.75	79.7
1047.369	3187.8674	964.15	82.8
1047.4726	3188.8115	966.7	80.15
1047.5761	3189.755	962.2	81.7
1047.6796	3190.6979	960.65	78.4
1047.783	3191.6402	958.75	77.85
1047.8864	3192.5818	959.95	79.8
1047.9898	3193.5229	977.35	76.05
1048.0931	3194.4633	960.4	79.25
1048.1963	3195.4031	960.05	77.9
1048.2995	3196.3423	954.6	72.45
1048.4027	3197.2809	955.35	73.45
1048.5058	3198.2189	959.05	76.8
1048.6089	3199.1563	960.45	72.85
1048.7119	3200.0931	953.1	72.8
1048.8148	3201.0292	952.9	71.85
1048.9178	3201.9648	956.25	72.35
1049.0206	3202.8997	954.2	69.5
1049.1235	3203.834	955.65	73.7
1049.2262	3204.7677	952.95	70.4
1049.329	3205.7008	953.1	70.65
1049.4317	3206.6333	951.8	70.05
1049.5343	3207.5652	952.95	68.8
1049.6369	3208.4964	952.15	71.45
1049.7394	3209.4271	952.55	72.4
1049.8419	3210.3571	949.85	68.95
1049.9444	3211.2865	951.9	67.5
1050.0468	3212.2154	950.4	68.4
1050.1491	3213.1436	953.1	68.05
1050.2514	3214.0712	957.2	70.9
1050.3537	3214.9982	951.55	70.9
1050.4559	3215.9246	947.45	64.35
1050.5581	3216.8503	947.35	66.85
1050.6602	3217.7755	948.45	67.25
1050.7623	3218.7001	947.35	65.8
1050.8643	3219.624	947.9	67
1050.9663	3220.5473	946.15	65.5
1051.0682	3221.4701	948.4	65.25
1051.1701	3222.3922	950.5	66.85
1051.2719	3223.3137	943.9	62.65
1051.3737	3224.2346	946.25	65.65
1051.4754	3225.1549	943.6	62.3
1051.5771	3226.0746	944.8	61.4
1051.6788	3226.9937	945.05	65.25
1051.7804	3227.9121	942.95	61.4
1051.8819	3228.83	948.15	67.35
1051.9834	3229.7473	944.15	62.7
1052.0849	3230.6639	945.5	61.8
1052.1863	3231.5799	942.8	60.55
1052.2876	3232.4954	944.2	60.2
1052.3889	3233.4102	941.25	59.9
1052.4902	3234.3244	945.55	62.4
1052.5914	3235.238	940.75	60
1052.6926	3236.151	965.3	60.25
1052.7937	3237.0634	938.9	58.45
1052.8948	3237.9752	939	57.7
1052.9958	3238.8864	940.1	58.75
1053.0968	3239.797	939.5	58.7
1053.1977	3240.7069	938.35	56.35
1053.2986	3241.6163	941.05	58.95
1053.3994	3242.5251	940.9	59.75
1053.5002	3243.4332	936.1	55.65
1053.6009	3244.3408	937.3	55.1
1053.7016	3245.2477	936.4	56
1053.8022	3246.154	934.8	51.15
1053.9028	3247.0598	935	52.9
1054.0034	3247.9649	933.85	53.35
1054.1039	3248.8694	933.75	52.05
1054.2043	3249.7733	934.7	53.2
1054.3047	3250.6766	932.4	51.65
1054.4051	3251.5793	934.65	52.5
1054.5054	3252.4814	935.4	54.7
1054.6056	3253.3829	932.2	51.9
1054.7058	3254.2838	931.7	51.85
1054.806	3255.1841	933.1	51.25
1054.9061	3256.0838	928.75	46.2
1055.0061	3256.9829	931.05	50.55
1055.1062	3257.8814	931.9	46
1055.2061	3258.7792	932.3	51.1
1055.306	3259.6765	932.9	49.4
1055.4059	3260.5731	927.1	46.25
1055.5057	3261.4692	928.45	44.3
1055.6055	3262.3647	925.05	44.15
1055.7052	3263.2595	923.1	41.6
1055.8049	3264.1538	929.2	47.1
1055.9045	3265.0474	927	44.15
1056.0041	3265.9404	924.7	43.2
1056.1036	3266.8329	921.65	42.8
1056.2031	3267.7247	931.65	39.05
1056.3025	3268.616	924.95	43.05
1056.4019	3269.5066	919.95	37.9
1056.5013	3270.3966	924.85	42.3
1056.6005	3271.286	916.6	36.95
