Software Version:	3.9.2.0
Unit SN:	10000200
Spectrometer SN:	6960
Date:	3/14/2024 12:56:36 PM
Data Line Index:	25
Spectral Points:	2048
Integration time (ms):	125
Averages:	20
Delay (ms):	30000
Sequence Number:	1
Processing:	dark subtract
Laser Power (mW):	300
Laser Current (mA):	823
Laser Diode Temp (C):	25
Laser Case Temp (C):	27.8
System Temp (C):	27.9
Spectrometer Temp (C):	25.6
CCD Temp (C):	0.005
Secondary Temp (C):	20.004
Heatsink Temp (C):	23.727
CCDPCB Temp (C):	37.307
SecondaryPCB Temp (C):	34.851

Wavelength	RamanShift	Raw Counts	Dark Subtracted
787.061	30.1047	418.05	5.3
787.2016	32.3739	417.5	7.55
787.3422	34.6426	419.65	8.35
787.4828	36.9109	421.2	8.05
787.6235	39.1787	426.05	10.3
787.7642	41.4461	431.2	9.1
787.9049	43.7131	436.65	11.1
788.0456	45.9796	441.35	12.45
788.1863	48.2456	442.35	10.4
788.3271	50.5112	450.5	10.85
788.4679	52.7764	450.05	10.75
788.6087	55.0411	454.5	13.05
788.7496	57.3054	460.2	12.85
788.8904	59.5692	461.8	12.75
789.0313	61.8326	468.25	16.9
789.1722	64.0955	473.55	15.25
789.3132	66.3579	483.4	20.35
789.4541	68.6199	488.05	22
789.5951	70.8815	495.8	25.6
789.7361	73.1426	510.55	38.4
789.8771	75.4032	539.5	62.45
790.0181	77.6634	608.3	127.15
790.1592	79.9231	758.7	273.9
790.3003	82.1824	1077.35	583.4
790.4414	84.4412	1624.05	1120.75
790.5825	86.6995	2332.05	1817.45
790.7237	88.9574	3025.5	2499.8
790.8648	91.2148	3530.1	2995.95
791.006	93.4717	3779.95	3240
791.1472	95.7282	3845.9	3301.4
791.2885	97.9842	3872.75	3325.9
791.4297	100.2398	3858.8	3309.6
791.571	102.4949	3821.6	3267.45
791.7123	104.7495	3806.55	3248.25
791.8536	107.0036	3775.25	3216.5
791.9949	109.2573	3726.25	3170.75
792.1363	111.5105	3672.6	3115.2
792.2777	113.7632	3608.35	3047.6
792.4191	116.0154	3561.45	2991.25
792.5605	118.2672	3487.6	2924.8
792.7019	120.5185	3433.65	2869.3
792.8434	122.7693	3376.85	2809.1
792.9849	125.0197	3314	2739.8
793.1264	127.2696	3263.3	2691.1
793.2679	129.519	3246.3	2671.15
793.4094	131.7679	3234.25	2657
793.551	134.0163	3216.5	2635.65
793.6926	136.2642	3232.45	2647.6
793.8342	138.5117	3225.8	2635.3
793.9758	140.7587	3190.45	2598.95
794.1175	143.0052	3161.45	2568.3
794.2591	145.2512	3139.65	2543.2
794.4008	147.4967	3106.05	2511.9
794.5425	149.7417	3074.15	2475.4
794.6842	151.9863	3051.25	2449.6
794.826	154.2304	3045.5	2440.9
794.9677	156.4739	3042.75	2431.3
795.1095	158.717	3034.3	2427.15
795.2513	160.9596	3057.9	2443.25
795.3931	163.2017	3072	2458.1
795.535	165.4433	3073.8	2458.35
795.6768	167.6844	3057.75	2437.45
795.8187	169.925	3049.8	2425.95
795.9606	172.1651	2997.05	2369.15
796.1025	174.4047	2974.4	2344.1
796.2445	176.6439	2956.05	2323.75
796.3864	178.8825	2929.1	2294.25
796.5284	181.1206	2918.75	2282.8
796.6704	183.3582	2913.2	2270.9
796.8124	185.5954	2905.9	2264.6
796.9544	187.832	2886.1	2239.65
797.0965	190.0681	2895.8	2246.1
797.2386	192.3037	2921.05	2272.35
797.3806	194.5388	2901.8	2247.55
797.5228	196.7734	2916.15	2260.9
797.6649	199.0075	2916.25	2254.3
797.807	201.2411	2942.1	2277.55
797.9492	203.4742	2953.5	2288.15
798.0914	205.7068	2966.4	2302.5
798.2336	207.9389	2968.9	2302.65
798.3758	210.1704	2991.05	2324.55
798.518	212.4015	2980.35	2307.5
798.6603	214.632	2990	2317.15
798.8025	216.862	2978.6	2309.9
798.9448	219.0915	2979.5	2316.55
799.0871	221.3205	2974.6	2316.85
799.2294	223.549	2961	2311.05
799.3718	225.777	2975.6	2325.5
799.5141	228.0044	2968.2	2314.6
799.6565	230.2314	2962.2	2312.2
799.7989	232.4578	2938.65	2287.5
799.9413	234.6837	2940.55	2280.4
800.0837	236.909	2919.6	2258.2
800.2262	239.1339	2934.8	2249.4
800.3687	241.3582	2921.05	2250.3
800.5111	243.582	2940.85	2244.9
800.6536	245.8053	2927.9	2239.7
800.7961	248.0281	2918.65	2235.35
800.9387	250.2503	2916.75	2228.3
801.0812	252.472	2911.2	2219.35
801.2238	254.6932	2931.15	2237.9
801.3664	256.9139	2928.4	2229.5
801.509	259.134	2943.75	2241
801.6516	261.3536	2948.95	2251.7
801.7942	263.5727	2987.35	2283.65
801.9369	265.7912	2988.95	2285.75
802.0795	268.0092	3028.4	2325.15
802.2222	270.2267	3040.7	2336.85
802.3649	272.4436	3093.2	2390.2
802.5076	274.6601	3104.3	2389.5
802.6504	276.8759	3096.2	2388.7
802.7931	279.0913	3119.4	2410.75
802.9359	281.3061	3107.55	2395.2
803.0787	283.5204	3130.45	2418
803.2215	285.7341	3145.5	2427.7
803.3643	287.9473	3155.2	2432.8
803.5071	290.16	3155.05	2432
803.6499	292.3721	3136.15	2418.55
803.7928	294.5837	3107.95	2387.3
803.9357	296.7947	3081.75	2362.5
804.0786	299.0052	3068.9	2346.95
804.2215	301.2152	3051.95	2329.9
804.3644	303.4246	3040.8	2320.8
804.5074	305.6334	3015.05	2294.1
804.6503	307.8418	3017.65	2293.75
804.7933	310.0495	3005.7	2282.25
804.9363	312.2568	2970.95	2248.05
805.0793	314.4635	2917.3	2191.75
805.2223	316.6696	2898.95	2171.55
805.3653	318.8752	2862.2	2127.4
805.5084	321.0802	2839.05	2110.45
805.6514	323.2847	2827.1	2095.75
805.7945	325.4887	2832.95	2102.6
805.9376	327.692	2846.85	2114.75
806.0807	329.8949	2874	2142.2
806.2238	332.0972	2881.6	2146.8
806.367	334.2989	2902.95	2164.15
806.5101	336.5001	2890.15	2152.1
806.6533	338.7007	2872.55	2134.45
806.7965	340.9008	2839.55	2099.2
806.9397	343.1003	2794	2052.35
807.0829	345.2992	2767.95	2023.65
807.2261	347.4976	2746.95	2001.05
807.3693	349.6955	2732	1983.3
807.5126	351.8927	2724.3	1972.85
807.6559	354.0895	2713.3	1954.15
807.7991	356.2856	2689.2	1937.05
807.9424	358.4812	2673.1	1919.6
808.0857	360.6763	2671.2	1917.85
808.2291	362.8707	2670.75	1917.35
808.3724	365.0646	2672.1	1916.6
808.5158	367.258	2665	1908.6
808.6591	369.4508	2678.1	1914.55
808.8025	371.643	2691.2	1929.55
808.9459	373.8346	2698.7	1935.85
809.0893	376.0257	2716.45	1948.45
809.2327	378.2162	2720.25	1954.5
809.3762	380.4062	2733.15	1963.85
809.5196	382.5956	2716.55	1946.65
809.6631	384.7844	2685.15	1917.4
809.8066	386.9726	2654.4	1879.45
809.9501	389.1603	2634.7	1862.9
810.0936	391.3474	2655.8	1850.5
810.2371	393.5339	2623.15	1848.05
810.3806	395.7199	2614.4	1847.75
810.5241	397.9052	2623	1857.35
810.6677	400.09	2648.9	1884.05
810.8113	402.2743	2663.15	1899.15
810.9548	404.4579	2681.7	1917.7
811.0984	406.641	2711.85	1950.2
811.2421	408.8235	2744.8	1981.05
811.3857	411.0054	2778.65	2013.2
811.5293	413.1868	2829	2060.85
811.673	415.3675	2901.95	2132.45
811.8166	417.5477	2914.65	2145.15
811.9603	419.7273	2853.5	2080.45
812.104	421.9064	2764.8	1983.3
812.2477	424.0848	2711.05	1934.85
812.3914	426.2627	2665.6	1888.75
812.5351	428.4399	2633.3	1851
812.6788	430.6166	2591.95	1805.05
812.8226	432.7928	2552.1	1764.5
812.9663	434.9683	2512.35	1726.65
813.1101	437.1432	2501.85	1712.6
813.2539	439.3176	2483.15	1696.45
813.3977	441.4914	2466.4	1677.1
813.5415	443.6645	2469.65	1679.25
813.6853	445.8371	2463.5	1670.6
813.8291	448.0091	2457.1	1665.7
813.973	450.1806	2450.1	1658.55
814.1168	452.3514	2441	1648.25
814.2607	454.5216	2444.45	1644.7
814.4046	456.6913	2445	1650
814.5485	458.8603	2433.9	1636.95
814.6924	461.0288	2431.5	1636.3
814.8363	463.1967	2433.75	1638.95
814.9802	465.3639	2429	1630.75
815.1241	467.5306	2420.3	1622.65
815.2681	469.6967	2419.25	1620.3
815.412	471.8622	2400.35	1600.75
815.556	474.0271	2396.45	1599.85
815.7	476.1914	2394.15	1591.05
815.844	478.3551	2375.6	1576
815.988	480.5182	2384.4	1585.85
816.132	482.6807	2388.25	1587.05
816.276	484.8426	2404.05	1602.95
816.4201	487.0039	2433.8	1631.6
816.5641	489.1647	2453.15	1650.9
816.7082	491.3248	2474.95	1673.6
816.8522	493.4843	2483.95	1678.95
816.9963	495.6432	2471.7	1669.95
817.1404	497.8015	2462.35	1657.05
817.2845	499.9592	2431.3	1628.15
817.4286	502.1163	2403.6	1597.95
817.5727	504.2728	2365.55	1557.45
817.7168	506.4287	2355.7	1550.65
817.861	508.5839	2338.25	1529.75
818.0051	510.7386	2327.65	1521.15
818.1493	512.8927	2331.8	1517.7
818.2935	515.0461	2328.7	1520.4
818.4377	517.199	2334.1	1523.95
818.5818	519.3512	2353.8	1544.65
818.726	521.5029	2404.65	1589.1
818.8703	523.6539	2429.5	1618.7
819.0145	525.8043	2434.8	1621.85
819.1587	527.9541	2403	1587.9
819.303	530.1033	2363.75	1551
819.4472	532.2519	2319.05	1504.2
819.5915	534.3999	2322.6	1505.65
819.7357	536.5472	2307.45	1494.05
819.88	538.694	2315.1	1498.45
820.0243	540.8401	2319.55	1501.5
820.1686	542.9856	2324.5	1506.95
820.3129	545.1305	2327.1	1508.85
820.4572	547.2748	2339.2	1519.7
820.6016	549.4185	2346.3	1524.95
820.7459	551.5615	2337.3	1517.1
820.8902	553.704	2349.5	1529.55
821.0346	555.8458	2371.9	1551.45
821.1789	557.987	2379.05	1558.85
821.3233	560.1276	2377	1557
821.4677	562.2675	2412.3	1594.75
821.6121	564.4069	2446.6	1626.65
821.7565	566.5456	2465.4	1646.4
821.9009	568.6837	2462.9	1644.45
822.0453	570.8212	2421.15	1601.05
822.1897	572.958	2374.5	1552.7
822.3342	575.0942	2343.3	1524.55
822.4786	577.2299	2333.45	1511.5
822.6231	579.3648	2302.3	1480.95
822.7675	581.4992	2268.3	1444.05
822.912	583.6329	2279.2	1455.05
823.0565	585.766	2293.4	1470.85
823.201	587.8985	2309.7	1487.55
823.3454	590.0304	2341.55	1509.55
823.4899	592.1616	2353	1525.65
823.6345	594.2922	2355	1529.75
823.779	596.4222	2328.95	1503.25
823.9235	598.5515	2293.85	1466.55
824.068	600.6802	2246.8	1420.95
824.2126	602.8083	2224.85	1397.6
824.3571	604.9358	2216.25	1387.6
824.5017	607.0626	2214.55	1388.05
824.6462	609.1888	2209.55	1380
824.7908	611.3144	2225.85	1397.1
824.9354	613.4393	2246.05	1417.95
825.08	615.5636	2273.75	1444.6
825.2246	617.6873	2299.7	1471.5
825.3692	619.8103	2326.6	1494.55
825.5138	621.9327	2318.75	1485.8
825.6584	624.0544	2305.9	1473.9
825.803	626.1756	2264.7	1433.25
825.9477	628.2961	2236.2	1403.95
826.0923	630.4159	2208.5	1375.9
826.237	632.5351	2210.05	1377.95
826.3816	634.6537	2199.35	1369
826.5263	636.7716	2208.85	1373.55
826.6709	638.8889	2191.45	1359.05
826.8156	641.0056	2194.5	1359.95
826.9603	643.1216	2187.15	1354.25
827.105	645.237	2202.3	1366
827.2497	647.3518	2193.7	1354.9
827.3944	649.4659	2174.65	1338.15
827.5391	651.5793	2161.9	1323.7
827.6838	653.6922	2152.6	1316.05
827.8285	655.8043	2143.5	1307.7
827.9733	657.9159	2131.15	1291.85
828.118	660.0268	2117.25	1277.8
828.2627	662.137	2125.6	1287.7
828.4075	664.2466	2125.35	1284.75
828.5522	666.3556	2124.7	1285.25
828.697	668.4639	2120.15	1277.05
828.8418	670.5716	2105.15	1267
828.9865	672.6786	2103.65	1263.2
829.1313	674.785	2095.05	1251.35
829.2761	676.8907	2089.5	1248.25
829.4209	678.9958	2098.7	1257.05
829.5657	681.1002	2089.4	1249.15
829.7105	683.204	2085.55	1239.35
829.8553	685.3072	2086.8	1244.3
830.0001	687.4097	2089.25	1247
830.1449	689.5115	2095.4	1249.8
830.2898	691.6127	2081.3	1238.65
830.4346	693.7132	2079	1235.95
830.5794	695.8131	2097.45	1239.65
830.7243	697.9123	2077.95	1230.75
830.8691	700.0109	2081.8	1235.35
831.014	702.1089	2081.8	1237.25
831.1588	704.2061	2095.75	1250.75
831.3037	706.3028	2102.2	1257.45
831.4486	708.3987	2121.85	1276.9
831.5935	710.4941	2127.6	1280.4
831.7383	712.5887	2128.6	1282
831.8832	714.6827	2130.6	1280.85
832.0281	716.7761	2118.6	1269.45
832.173	718.8688	2114.85	1265.7
832.3179	720.9608	2123.95	1274
832.4628	723.0522	2131.35	1280.95
832.6077	725.1429	2133.1	1284.4
832.7527	727.233	2160.5	1309.75
832.8976	729.3224	2199.35	1348.95
833.0425	731.4112	2237.3	1385.9
833.1874	733.4993	2222.45	1370.3
833.3324	735.5867	2209	1357.55
833.4773	737.6735	2167	1315.2
833.6222	739.7596	2137.55	1289.55
833.7672	741.845	2127.8	1276.65
833.9122	743.9298	2131.25	1277.35
834.0571	746.014	2121	1269.45
834.2021	748.0974	2157.05	1306.1
834.347	750.1802	2139.95	1288
834.492	752.2624	2132.25	1282.85
834.637	754.3439	2110	1255.15
834.782	756.4247	2112.75	1253.75
834.9269	758.5048	2091.95	1238.25
835.0719	760.5843	2097.2	1244.55
835.2169	762.6631	2112.65	1258.75
835.3619	764.7413	2139.65	1287
835.5069	766.8188	2184.6	1331.9
835.6519	768.8956	2243.85	1388.6
835.7969	770.9718	2258.1	1404.4
835.9419	773.0473	2265.35	1412
836.0869	775.1221	2248.75	1393.9
836.232	777.1962	2238.4	1382.4
836.377	779.2697	2271.5	1415.3
836.522	781.3426	2325.6	1457.8
836.667	783.4147	2360.1	1504.9
836.8121	785.4862	2347.45	1492.25
836.9571	787.557	2287.2	1430.5
837.1021	789.6271	2221.9	1365.45
837.2472	791.6966	2145.45	1290.35
837.3922	793.7654	2086.8	1230.5
837.5373	795.8335	2046.75	1191.3
837.6823	797.901	2023.3	1167.7
837.8274	799.9678	2024.2	1164.5
837.9724	802.0339	2013.05	1158.2
838.1175	804.0993	2030.35	1164.65
838.2626	806.1641	2007.55	1149.55
838.4076	808.2282	2006.5	1150.35
838.5527	810.2916	1991.35	1129.45
838.6978	812.3544	1978.85	1123.85
838.8428	814.4164	1980.95	1125.2
838.9879	816.4778	1982.55	1123.05
839.133	818.5385	1977.4	1119.75
839.2781	820.5986	2000.5	1142.5
839.4232	822.658	2033.8	1173.15
839.5682	824.7166	2069.7	1211.75
839.7133	826.7747	2103.45	1246.65
839.8584	828.832	2161.6	1301.25
840.0035	830.8886	2205.9	1346.05
840.1486	832.9446	2215.55	1351.65
840.2937	834.9999	2194.4	1335.65
840.4388	837.0545	2164	1298.9
840.5839	839.1085	2101.75	1240.7
840.729	841.1618	2057.1	1192.7
840.8741	843.2143	2023.6	1163.55
841.0192	845.2662	1998.5	1138.95
841.1643	847.3175	1977.3	1117.45
841.3095	849.368	1968.75	1108
841.4546	851.4179	1971.1	1111.3
841.5997	853.467	1967.35	1106.4
841.7448	855.5155	1977.35	1115.7
841.8899	857.5633	1971.35	1110.7
842.0351	859.6105	1965.9	1105.65
842.1802	861.6569	1960.45	1098.45
842.3253	863.7027	1958.85	1095.05
842.4704	865.7478	1945.7	1083
842.6156	867.7922	1935.5	1076.25
842.7607	869.8359	1926.95	1065.2
842.9058	871.8789	1919.5	1055.9
843.0509	873.9212	1958.25	1061.65
843.1961	875.9629	1927.25	1065.55
843.3412	878.0039	1920.95	1056
843.4863	880.0441	1941.75	1079.7
843.6315	882.0837	1947.2	1082.35
843.7766	884.1226	1971.55	1107.3
843.9218	886.1609	1980.45	1116.8
844.0669	888.1984	2011.3	1149.2
844.212	890.2352	2036.25	1172.7
844.3572	892.2714	2041.25	1173.1
844.5023	894.3069	2029.8	1164.3
844.6475	896.3416	1991.5	1127.7
844.7926	898.3757	1963.95	1099.6
844.9377	900.4091	1957.65	1094.5
845.0829	902.4418	1964.85	1095.55
845.228	904.4739	1964.85	1097.9
845.3732	906.5052	1966.75	1100.75
845.5183	908.5358	1964	1098.8
845.6635	910.5658	1960.7	1093.45
845.8086	912.595	1928.3	1064.05
845.9538	914.6236	1908.95	1044.15
846.0989	916.6515	1890.6	1025.15
846.2441	918.6786	1878.65	1012.2
846.3892	920.7051	1865.35	999.35
846.5344	922.7309	1866.6	1001.45
846.6795	924.756	1849.35	984.45
846.8246	926.7804	1861.2	991.6
846.9698	928.8041	1871.6	1000.85
847.1149	930.8272	1883.15	1015.75
847.2601	932.8495	1873.65	1005
847.4052	934.8711	1880.55	1012.4
847.5504	936.892	1880.05	1012.05
847.6955	938.9123	1893.85	1026.75
847.8407	940.9318	1904.2	1036.65
847.9858	942.9506	1916.8	1047.1
848.131	944.9688	1908.05	1041.7
848.2761	946.9862	1883.35	1015.75
848.4213	949.003	1867.05	1000.1
848.5664	951.019	1845.8	977.95
848.7115	953.0344	1843.3	975.8
848.8567	955.0491	1827.75	957.85
849.0018	957.063	1821.85	953.45
849.147	959.0763	1818.75	952.65
849.2921	961.0888	1827.15	957.05
849.4373	963.1007	1822.1	953.4
849.5824	965.1119	1825.6	956.85
849.7275	967.1223	1810.7	940.35
849.8727	969.1321	1801.2	932
850.0178	971.1412	1803.75	935.05
850.1629	973.1495	1798.95	926.8
850.3081	975.1572	1833.2	924.3
850.4532	977.1641	1795.6	925.75
850.5983	979.1704	1796.45	926.3
850.7435	981.1759	1779.7	904.8
850.8886	983.1808	1784.7	913.1
851.0337	985.1849	1789	906.55
851.1788	987.1884	1782.9	911.55
851.324	989.1911	1779.6	904.55
851.4691	991.1932	1774.4	902.35
851.6142	993.1945	1778.9	908.2
851.7593	995.1951	1767.3	895.85
851.9045	997.1951	1769.95	894.7
852.0496	999.1943	1770.1	900.75
852.1947	1001.1928	1766.65	894.2
852.3398	1003.1906	1778.1	908.05
852.4849	1005.1877	1784.8	911.7
852.63	1007.1841	1790.35	919.65
852.7751	1009.1798	1793.65	923.05
852.9202	1011.1748	1797.95	927.15
853.0653	1013.1691	1774.25	898.8
853.2104	1015.1627	1755.85	886.15
853.3555	1017.1556	1732.8	859.6
853.5006	1019.1477	1725.3	853.2
853.6457	1021.1392	1710.85	838.95
853.7908	1023.1299	1709.15	836.75
853.9359	1025.12	1695.5	821.9
854.081	1027.1093	1707.45	836.95
854.2261	1029.0979	1709.05	837
854.3712	1031.0859	1719.95	847.65
854.5163	1033.0731	1722.45	849.85
854.6613	1035.0596	1721.55	851.15
854.8064	1037.0454	1715.05	843.2
854.9515	1039.0304	1708.15	838.3
855.0965	1041.0148	1699.55	827.25
855.2416	1042.9985	1688.9	814.8
855.3867	1044.9814	1677.65	805.5
855.5317	1046.9636	1671.65	797.55
855.6768	1048.9452	1671.55	798.35
855.8219	1050.926	1685.45	815.15
855.9669	1052.9061	1679.95	807.65
856.112	1054.8855	1687.3	813.5
856.257	1056.8642	1691	819.7
856.4021	1058.8421	1684.95	807.75
856.5471	1060.8194	1691.4	817.55
856.6921	1062.7959	1674.55	800.05
856.8372	1064.7717	1679.1	805
856.9822	1066.7469	1667.75	791.95
857.1272	1068.7213	1675.6	798.25
857.2723	1070.695	1678.55	804.55
857.4173	1072.6679	1698.75	823.95
857.5623	1074.6402	1698.95	824.1
857.7073	1076.6117	1712.75	832.75
857.8523	1078.5826	1688.65	813.75
857.9973	1080.5527	1673.95	796.25
858.1423	1082.5221	1652.3	776.75
858.2873	1084.4908	1628.55	753.75
858.4323	1086.4587	1623.15	748.45
858.5773	1088.426	1613.65	738.25
858.7223	1090.3925	1606.4	727.45
858.8673	1092.3584	1616.45	741.5
859.0123	1094.3235	1618.8	745.65
859.1573	1096.2879	1626.7	751.7
859.3022	1098.2515	1627.55	753.55
859.4472	1100.2145	1655.75	780.5
859.5922	1102.1767	1680.8	803.05
859.7371	1104.1382	1691.65	816.85
859.8821	1106.099	1716.1	837.85
860.027	1108.0591	1739.25	864.6
860.172	1110.0185	1764.5	887.55
860.3169	1111.9771	1794.5	919.65
860.4619	1113.9351	1816.3	940.5
860.6068	1115.8923	1846.8	970.35
860.7517	1117.8488	1859.95	983.1
860.8967	1119.8045	1833.5	957.9
861.0416	1121.7596	1773.95	896.85
861.1865	1123.7139	1714.1	839.45
861.3314	1125.6675	1689.85	815.9
861.4763	1127.6204	1687.55	813.15
861.6212	1129.5726	1691.5	814.1
861.7661	1131.524	1687	810.3
861.911	1133.4748	1670.95	793.4
862.0559	1135.4248	1637.4	760.25
862.2008	1137.3741	1600.1	722.65
862.3457	1139.3226	1584.6	708.05
862.4905	1141.2705	1583.9	705.9
862.6354	1143.2176	1583	701.75
862.7803	1145.164	1596	720.2
862.9251	1147.1097	1582.65	705.85
863.07	1149.0546	1577.1	700.2
863.2148	1150.9989	1556	678.95
863.3597	1152.9424	1540.95	663.2
863.5045	1154.8852	1538.9	660.8
863.6493	1156.8272	1537.9	662.85
863.7942	1158.7686	1532.65	650.2
863.939	1160.7092	1531.55	653.25
864.0838	1162.6491	1534.25	654.05
864.2286	1164.5883	1533.05	654.65
864.3734	1166.5267	1544.25	664.15
864.5182	1168.4644	1554.2	677.8
864.663	1170.4014	1578.15	694.7
864.8078	1172.3377	1589.15	716.25
864.9526	1174.2732	1624.25	746.45
865.0974	1176.2081	1673.6	797.55
865.2421	1178.1421	1737.05	854.9
865.3869	1180.0755	1790.6	914.1
865.5317	1182.0082	1830.45	952.25
865.6764	1183.9401	1820.2	939.4
865.8212	1185.8713	1765.75	887.35
865.9659	1187.8017	1682	803.05
866.1106	1189.7315	1634	754.3
866.2554	1191.6605	1624.25	715.95
866.4001	1193.5888	1566.95	688.6
866.5448	1195.5163	1548.05	671.1
866.6895	1197.4432	1533.9	654.25
866.8342	1199.3693	1513.5	634.4
866.9789	1201.2947	1521.45	635.15
867.1236	1203.2193	1503.4	624.45
867.2683	1205.1432	1504.55	625.15
867.413	1207.0664	1500.9	623.6
867.5576	1208.9889	1503.2	621.9
867.7023	1210.9106	1494.55	619.35
867.847	1212.8316	1485.75	607.05
867.9916	1214.7519	1511.6	624.65
868.1363	1216.6715	1519.2	642.55
868.2809	1218.5903	1508	628.1
868.4255	1220.5084	1516.65	638.05
868.5701	1222.4257	1530.25	651.65
868.7148	1224.3424	1533.4	656.2
868.8594	1226.2583	1545.65	663.35
869.004	1228.1735	1548.6	668.9
869.1486	1230.0879	1572.15	691.65
869.2932	1232.0016	1594.95	716.9
869.4377	1233.9146	1609.65	728.65
869.5823	1235.8269	1618.75	742
869.7269	1237.7384	1623.05	744.95
869.8715	1239.6492	1625.35	747.65
870.016	1241.5592	1635.7	755.35
870.1606	1243.4686	1661.25	780.4
870.3051	1245.3772	1700.5	821.85
870.4496	1247.285	1740.25	859.45
870.5941	1249.1922	1796.3	914.65
870.7387	1251.0986	1819.75	942.8
870.8832	1253.0042	1863.1	984.45
871.0277	1254.9092	1908.95	1030.7
871.1722	1256.8134	1953.35	1074.55
871.3167	1258.7169	1992.15	1110.9
871.4611	1260.6196	2011.65	1133
871.6056	1262.5216	2016.8	1135.15
871.7501	1264.4229	2001.95	1122.25
871.8945	1266.3234	1998.8	1119.4
872.039	1268.2232	1955.35	1074.15
872.1834	1270.1223	1937.1	1057
872.3278	1272.0207	1911.75	1031.3
872.4723	1273.9183	1899.75	1014
872.6167	1275.8151	1901.3	1020.65
872.7611	1277.7113	1925.2	1045
872.9055	1279.6067	1963.05	1080.35
873.0499	1281.5014	2044.65	1163.7
873.1943	1283.3953	2136.35	1253.8
873.3386	1285.2885	2243.4	1365.25
873.483	1287.181	2307.65	1426.6
873.6274	1289.0727	2343.9	1464.65
873.7717	1290.9637	2307.85	1425.7
873.9161	1292.854	2260.7	1378.15
874.0604	1294.7435	2194.4	1311.45
874.2047	1296.6323	2145.95	1265.1
874.349	1298.5204	2093.65	1207.5
874.4933	1300.4077	2053.8	1174.8
874.6376	1302.2943	2023	1141.1
874.7819	1304.1802	1999.1	1116.95
874.9262	1306.0653	1981.4	1098.15
875.0705	1307.9497	1965	1083.15
875.2147	1309.8333	1944.6	1063.15
875.359	1311.7162	1928.15	1047.25
875.5032	1313.5984	1915	1030.55
875.6475	1315.4798	1921.25	1023.1
875.7917	1317.3605	1889.8	1003.05
875.9359	1319.2405	1893.45	1011.35
876.0801	1321.1197	1870.7	986.2
876.2243	1322.9982	1846.45	961
876.3685	1324.876	1806.85	927.2
876.5127	1326.753	1756.15	873.4
876.6569	1328.6293	1707.25	825.5
876.801	1330.5048	1669.25	784.85
876.9452	1332.3796	1616.2	736.25
877.0893	1334.2537	1621.9	717.15
877.2335	1336.127	1568.35	684.85
877.3776	1337.9996	1550.9	669.75
877.5217	1339.8714	1543.5	662.45
877.6658	1341.7426	1565.35	641.6
877.8099	1343.6129	1525.35	643.15
877.954	1345.4826	1509.95	629.95
878.0981	1347.3515	1502.05	618.4
878.2422	1349.2196	1496.05	614.8
878.3862	1351.087	1491.65	609.85
878.5303	1352.9537	1482.55	601.1
878.6743	1354.8197	1488.1	607.8
878.8184	1356.6849	1497.1	614.15
878.9624	1358.5493	1499.05	618.2
879.1064	1360.4131	1514.9	632.9
879.2504	1362.276	1528.3	648.15
879.3944	1364.1383	1546.75	664.05
879.5384	1365.9998	1566.1	680.4
879.6823	1367.8606	1552.55	670.9
879.8263	1369.7206	1544	663.4
879.9702	1371.5799	1540.9	656.45
880.1142	1373.4384	1533.2	650.95
880.2581	1375.2962	1518.35	633.7
880.402	1377.1533	1486.55	604.15
880.5459	1379.0096	1471.65	590.85
880.6898	1380.8652	1447.65	565.2
880.8337	1382.7201	1430.6	547.1
880.9776	1384.5742	1413.35	531.7
881.1215	1386.4275	1408	525.9
881.2653	1388.2802	1388.55	507.9
881.4092	1390.132	1391.75	508.25
881.553	1391.9832	1384.7	503.25
881.6968	1393.8336	1373.3	490.25
881.8406	1395.6832	1379.75	493.65
881.9844	1397.5322	1364.05	484
882.1282	1399.3803	1363.15	476.95
882.272	1401.2278	1354.05	472.25
882.4158	1403.0745	1352	467.35
882.5595	1404.9204	1350.1	469.4
882.7033	1406.7656	1337.8	456.9
882.847	1408.6101	1335.8	453.8
882.9908	1410.4538	1333.2	452
883.1345	1412.2968	1337.1	453.5
883.2782	1414.139	1338.2	456.45
883.4219	1415.9805	1339.15	456.1
883.5656	1417.8213	1356.15	466.6
883.7092	1419.6613	1345.65	465.25
883.8529	1421.5006	1374.65	490.55
883.9965	1423.3391	1385.1	502.05
884.1402	1425.1769	1409.2	524
884.2838	1427.0139	1442.6	559.8
884.4274	1428.8502	1492.25	609
884.571	1430.6858	1528	646.75
884.7146	1432.5206	1541.9	658.2
884.8582	1434.3547	1541.7	657.65
885.0018	1436.188	1531.65	648.8
885.1453	1438.0206	1514	629.95
885.2889	1439.8524	1512.75	628.55
885.4324	1441.6835	1515	631.55
885.5759	1443.5139	1517.95	632.05
885.7194	1445.3435	1508.05	626.9
885.8629	1447.1724	1504.75	623.7
886.0064	1449.0005	1511.4	627.2
886.1499	1450.8279	1506.3	621.6
886.2933	1452.6545	1496.35	613.7
886.4368	1454.4804	1497.7	616
886.5802	1456.3056	1500.75	612.1
886.7237	1458.13	1484.75	601.3
886.8671	1459.9536	1473.1	588.9
887.0105	1461.7766	1446.4	565.95
887.1539	1463.5987	1438.75	553.2
887.2972	1465.4202	1403.55	520.25
887.4406	1467.2409	1384.55	500.75
887.584	1469.0608	1369.6	485.85
887.7273	1470.88	1364.5	480.65
887.8706	1472.6984	1338.8	456.85
888.0139	1474.5161	1326.55	441.8
888.1572	1476.3331	1321.95	439.15
888.3005	1478.1493	1312.8	429.05
888.4438	1479.9648	1312.85	430.2
888.5871	1481.7795	1309.9	428.15
888.7303	1483.5935	1312.2	429.75
888.8736	1485.4067	1315	430.75
889.0168	1487.2192	1306.9	423.55
889.16	1489.031	1309.45	425.8
889.3032	1490.842	1300.4	416.8
889.4464	1492.6522	1310.15	426.05
889.5896	1494.4618	1300.6	418.65
889.7327	1496.2705	1299.45	415.85
889.8759	1498.0785	1298.25	413.3
890.019	1499.8858	1289.25	403.7
890.1622	1501.6924	1287.65	403.75
890.3053	1503.4981	1286.85	404.05
890.4484	1505.3032	1281.95	397.4
890.5914	1507.1075	1278.1	393.1
890.7345	1508.911	1272.3	390
890.8776	1510.7138	1269.5	384.4
891.0206	1512.5159	1263	379.95
891.1637	1514.3172	1255.8	370.8
891.3067	1516.1178	1256.75	373.9
891.4497	1517.9176	1257.05	370.9
891.5927	1519.7166	1248.45	364.65
891.7357	1521.515	1252.5	361.85
891.8786	1523.3126	1249.25	363.7
892.0216	1525.1094	1243.6	358.2
892.1645	1526.9055	1237.2	354.6
892.3074	1528.7008	1232.05	347.15
892.4503	1530.4954	1240	351.4
892.5932	1532.2893	1228.65	346.4
892.7361	1534.0824	1230.4	341.2
892.879	1535.8747	1226.3	341.7
893.0218	1537.6663	1223.7	339
893.1647	1539.4572	1224.9	339.85
893.3075	1541.2473	1221.25	338.85
893.4503	1543.0367	1220.6	337.65
893.5931	1544.8253	1225.3	336.25
893.7359	1546.6132	1220.75	334.5
893.8787	1548.4003	1232.2	339.75
894.0214	1550.1867	1238.3	346.35
894.1642	1551.9723	1240.2	353.65
894.3069	1553.7572	1236.9	351.65
894.4496	1555.5414	1246.2	362.4
894.5923	1557.3247	1257.05	373.65
894.735	1559.1074	1266.5	383.65
894.8777	1560.8893	1292.65	409.5
895.0204	1562.6705	1308.95	425.7
895.163	1564.4509	1325.75	441.15
895.3056	1566.2305	1325.65	441.5
895.4482	1568.0094	1324.65	442.2
895.5908	1569.7876	1321.8	438.55
895.7334	1571.565	1323.45	438.15
895.876	1573.3417	1318.7	434.65
896.0186	1575.1176	1320.3	437.85
896.1611	1576.8928	1329	444.8
896.3036	1578.6672	1332.9	450.85
896.4461	1580.4409	1345.85	463.15
896.5886	1582.2138	1364.1	478.55
896.7311	1583.986	1383.7	500.5
896.8736	1585.7575	1395	509.2
897.0161	1587.5282	1410.95	529.35
897.1585	1589.2981	1421.4	537.7
897.3009	1591.0673	1433.6	548.8
897.4433	1592.8358	1433.8	550.25
897.5857	1594.6035	1435.05	549.05
897.7281	1596.3704	1427.2	543.25
897.8705	1598.1366	1416.95	533.45
898.0128	1599.9021	1406.5	522.55
898.1551	1601.6668	1391.55	504
898.2975	1603.4308	1380.5	494.45
898.4398	1605.194	1390.2	502.2
898.5821	1606.9564	1397.6	513.5
898.7243	1608.7182	1432.35	543.85
898.8666	1610.4791	1462.05	577.25
899.0088	1612.2394	1504.65	621.2
899.1511	1613.9988	1547.4	663.7
899.2933	1615.7576	1587.45	703.55
899.4355	1617.5156	1601.8	712.4
899.5776	1619.2728	1578.35	697.85
899.7198	1621.0293	1527.2	644.85
899.862	1622.785	1481.2	591.8
900.0041	1624.54	1430.25	544.75
900.1462	1626.2942	1370.85	485.45
900.2883	1628.0477	1322.7	433.75
900.4304	1629.8005	1292.8	406.35
900.5725	1631.5525	1258.7	374.2
900.7145	1633.3037	1235	349
900.8566	1635.0542	1213.25	327.2
900.9986	1636.804	1199.35	315.35
901.1406	1638.553	1246.7	299.45
901.2826	1640.3013	1177.45	295.55
901.4245	1642.0488	1173	288.15
901.5665	1643.7955	1155.95	273.55
901.7085	1645.5416	1150.55	266.15
901.8504	1647.2868	1142.45	260.6
901.9923	1649.0313	1142.65	259.15
902.1342	1650.7751	1143.45	256.15
902.2761	1652.5181	1137.75	253.85
902.4179	1654.2604	1137.3	252.1
902.5598	1656.0019	1136.35	254.7
902.7016	1657.7427	1141.6	258.9
902.8434	1659.4828	1153.25	268.6
902.9852	1661.222	1162.3	275.95
903.127	1662.9606	1179.8	296.35
903.2687	1664.6984	1189.15	305.15
903.4105	1666.4354	1191.85	307.6
903.5522	1668.1717	1183.4	298.3
903.6939	1669.9072	1169.55	286.15
903.8356	1671.642	1145.25	258.15
903.9773	1673.3761	1128.25	245.75
904.119	1675.1094	1112.95	230.4
904.2606	1676.8419	1105.25	222.1
904.4022	1678.5737	1099.55	215.55
904.5439	1680.3048	1096.2	211.9
904.6855	1682.0351	1086.9	203.2
904.827	1683.7646	1090.65	204.05
904.9686	1685.4934	1085.35	202.8
905.1101	1687.2215	1082.3	199.35
905.2517	1688.9488	1078	195.75
905.3932	1690.6754	1074.15	189.25
905.5347	1692.4012	1076.8	194
905.6761	1694.1263	1074.2	190.05
905.8176	1695.8506	1069.6	185.85
905.9591	1697.5742	1068.7	183.7
906.1005	1699.297	1071.15	186.7
906.2419	1701.0191	1063.1	179.05
906.3833	1702.7404	1067.35	184
906.5246	1704.461	1062.95	176.05
906.666	1706.1808	1059.95	173.7
906.8073	1707.8999	1065.3	180.4
906.9487	1709.6182	1064.75	179.05
907.09	1711.3358	1061.45	175.65
907.2313	1713.0527	1055.7	173.65
907.3725	1714.7688	1067.35	178.35
907.5138	1716.4841	1057.15	170.05
907.655	1718.1987	1064.05	174.4
907.7962	1719.9126	1054	171.7
907.9374	1721.6257	1055.85	168.1
908.0786	1723.338	1058.45	172.75
908.2198	1725.0496	1051.6	165.3
908.3609	1726.7605	1054.35	168.45
908.502	1728.4706	1053.45	167.45
908.6431	1730.18	1053.75	169.25
908.7842	1731.8886	1050.35	167.15
908.9253	1733.5964	1054.6	164.25
909.0664	1735.3036	1053.45	167.15
909.2074	1737.0099	1049.35	165.8
909.3484	1738.7156	1049.95	166.1
909.4894	1740.4204	1053.6	166.9
909.6304	1742.1246	1050.6	164.15
909.7714	1743.8279	1046.2	160
909.9123	1745.5306	1050.2	163.6
910.0532	1747.2325	1043.95	160.1
910.1941	1748.9336	1050.25	166.55
910.335	1750.634	1049.1	163.6
910.4759	1752.3336	1052.1	167.4
910.6168	1754.0325	1044.2	161.65
910.7576	1755.7307	1047.1	162.75
910.8984	1757.4281	1043.85	158.75
911.0392	1759.1247	1052.3	159.95
911.18	1760.8206	1049.8	161.2
911.3208	1762.5158	1044.85	158.35
911.4615	1764.2102	1044.85	159.75
911.6022	1765.9039	1043.9	157.85
911.7429	1767.5968	1045.7	162.2
911.8836	1769.289	1039.35	155.9
912.0243	1770.9804	1049.45	163.4
912.1649	1772.6711	1046.15	161.2
912.3056	1774.361	1043.1	158.7
912.4462	1776.0502	1043	160.4
912.5868	1777.7386	1041.25	151.85
912.7274	1779.4263	1040.15	155.25
912.8679	1781.1132	1037.35	152.5
913.0084	1782.7994	1040.8	156.25
913.149	1784.4849	1037	153.05
913.2895	1786.1696	1053.3	147.1
913.4299	1787.8535	1034.45	151.25
913.5704	1789.5367	1037.95	153.45
913.7108	1791.2192	1034.55	151.1
913.8513	1792.9009	1052.85	154.3
913.9917	1794.5818	1037.7	150.45
914.132	1796.2621	1034.5	150.1
914.2724	1797.9415	1033.85	148.55
914.4128	1799.6202	1035.9	150.85
914.5531	1801.2982	1036.1	151.4
914.6934	1802.9755	1034.2	147.45
914.8337	1804.6519	1030.15	143.7
914.9739	1806.3277	1033.05	149.05
915.1142	1808.0027	1031.35	147.4
915.2544	1809.6769	1031.55	146.6
915.3946	1811.3504	1031.25	145.35
915.5348	1813.0231	1031.4	146.3
915.675	1814.6951	1026.9	140.95
915.8151	1816.3664	1031.25	143.95
915.9553	1818.0369	1028.9	145.5
916.0954	1819.7067	1027.5	143.3
916.2355	1821.3757	1026.85	139.9
916.3755	1823.044	1026.1	143.95
916.5156	1824.7115	1025.4	140.1
916.6556	1826.3783	1023.85	140.6
916.7956	1828.0443	1022.85	138.85
916.9356	1829.7096	1028.75	141.8
917.0756	1831.3741	1027.7	139
917.2155	1833.0379	1020.7	136.45
917.3555	1834.701	1026.3	139.4
917.4954	1836.3633	1024.35	139.3
917.6353	1838.0248	1026.4	138.8
917.7751	1839.6856	1025.85	141.35
917.915	1841.3457	1022.45	137.5
918.0548	1843.005	1023.85	139.75
918.1946	1844.6636	1021	136.9
918.3344	1846.3214	1025.5	139.35
918.4742	1847.9785	1020.9	137.2
918.6139	1849.6349	1025.65	139.25
918.7537	1851.2904	1028.95	134.8
918.8934	1852.9453	1020.9	135.65
919.0331	1854.5994	1019.95	134.3
919.1727	1856.2528	1025.75	134.4
919.3124	1857.9054	1021.6	137.95
919.452	1859.5572	1021.75	139.45
919.5916	1861.2083	1023.3	137.2
919.7312	1862.8587	1017.3	133.1
919.8708	1864.5084	1019	133.5
920.0103	1866.1572	1015.8	131.75
920.1498	1867.8054	1017.95	134.2
920.2893	1869.4528	1015.4	132.1
920.4288	1871.0994	1017.85	133.35
920.5683	1872.7453	1018.35	134.65
920.7077	1874.3905	1032.95	129.65
920.8471	1876.0349	1017.9	133.1
920.9865	1877.6786	1015.95	130.75
921.1259	1879.3215	1015.25	131.85
921.2653	1880.9637	1012.4	125.75
921.4046	1882.6051	1014.2	129.55
921.5439	1884.2458	1016.9	130.95
921.6832	1885.8858	1011.7	127.1
921.8225	1887.525	1017.9	134.6
921.9617	1889.1634	1014.25	129.1
922.101	1890.8011	1010.75	124.95
922.2402	1892.4381	1009.65	126
922.3794	1894.0743	1014.7	130.5
922.5185	1895.7098	1013.65	131.2
922.6577	1897.3446	1011.35	125.3
922.7968	1898.9786	1014.85	126.65
922.9359	1900.6118	1011.75	129.05
923.075	1902.2443	1013.6	127.9
923.214	1903.8761	1010.45	126
923.3531	1905.5071	1010.95	124.4
923.4921	1907.1374	1013	128.1
923.6311	1908.7669	1009.35	125.3
923.77	1910.3957	1009	124
923.909	1912.0237	1007.5	122.65
924.0479	1913.651	1006.7	120.7
924.1868	1915.2776	1007.7	124.3
924.3257	1916.9034	1012.95	129.05
924.4646	1918.5285	1001.6	120.65
924.6034	1920.1528	1009.05	122.15
924.7422	1921.7764	1005.25	121.15
924.881	1923.3992	1003.8	121.5
925.0198	1925.0213	1005.2	119.4
925.1586	1926.6427	1002.75	117.8
925.2973	1928.2633	1112.6	119.25
925.436	1929.8832	1009.05	120.85
925.5747	1931.5023	1002.8	117.85
925.7134	1933.1207	1001.95	117.7
925.852	1934.7383	999.5	115.6
925.9906	1936.3552	1002.95	120.05
926.1292	1937.9714	999.05	113.65
926.2678	1939.5868	1007.75	122.95
926.4064	1941.2015	1001.5	116.35
926.5449	1942.8154	1003.7	119.65
926.6834	1944.4286	999.1	113.9
926.8219	1946.041	1026.3	116.45
926.9604	1947.6528	1006.65	118.65
927.0988	1949.2637	999.4	115.75
927.2372	1950.8739	999.8	114.7
927.3756	1952.4834	1001.1	116.35
927.514	1954.0921	1002.6	118.1
927.6523	1955.7001	1001.1	113.05
927.7907	1957.3074	999	112.5
927.929	1958.9139	999.55	115.35
928.0673	1960.5197	998.95	111.45
928.2055	1962.1247	999.8	115.1
928.3438	1963.729	995.95	112.6
928.482	1965.3325	1021.35	111.05
928.6202	1966.9353	998.45	114.55
928.7584	1968.5374	999.3	114.95
928.8965	1970.1387	1002.35	117.9
929.0346	1971.7393	999.4	115.05
929.1727	1973.3392	998.2	113.85
929.3108	1974.9383	996.5	112.05
929.4489	1976.5366	992.2	107.1
929.5869	1978.1342	996	111.1
929.7249	1979.7311	993.2	107.35
929.8629	1981.3273	994.1	107.6
930.0009	1982.9227	993.8	106.8
930.1388	1984.5173	996.05	111.7
930.2767	1986.1112	995.95	112.2
930.4146	1987.7044	993.35	108.35
930.5525	1989.2968	994.6	109.1
930.6904	1990.8885	997.25	109.15
930.8282	1992.4795	993.4	108.35
930.966	1994.0697	996.15	110.8
931.1038	1995.6592	992.25	106.1
931.2415	1997.2479	991.2	105.8
931.3793	1998.8359	991	106.3
931.517	2000.4232	991.3	107.75
931.6547	2002.0097	989.1	105
931.7923	2003.5955	992.85	105.1
931.93	2005.1805	990.9	104.2
932.0676	2006.7648	991.75	106.5
932.2052	2008.3484	993.35	107.5
932.3427	2009.9312	995.35	108.65
932.4803	2011.5133	993.2	107.95
932.6178	2013.0946	989.7	106
932.7553	2014.6752	989.5	106.75
932.8928	2016.2551	989.9	102.9
933.0302	2017.8342	989.95	104.65
933.1676	2019.4126	990.4	105.3
933.305	2020.9902	990.65	107.2
933.4424	2022.5672	991.55	105.45
933.5798	2024.1433	996.2	106.05
933.7171	2025.7188	988.4	103.25
933.8544	2027.2935	989.7	106.2
933.9917	2028.8674	987.55	103.1
934.129	2030.4406	989.7	105.3
934.2662	2032.0131	989.85	105.3
934.4034	2033.5849	992.05	102.85
934.5406	2035.1559	989.5	104.1
934.6778	2036.7261	986.4	103.5
934.8149	2038.2957	986.9	101.7
934.952	2039.8645	988.55	102.65
935.0891	2041.4325	991.9	105.45
935.2262	2042.9998	989.6	103.85
935.3632	2044.5664	989.05	101.9
935.5002	2046.1323	988.15	103.1
935.6372	2047.6974	988.75	104.35
935.7742	2049.2617	986.5	103.85
935.9111	2050.8254	1018.85	101.05
936.048	2052.3883	990.75	104.9
936.1849	2053.9504	987.45	102.65
936.3218	2055.5118	987.15	102.6
936.4586	2057.0725	990.25	100.7
936.5955	2058.6325	987.75	102.25
936.7323	2060.1917	987.65	102.15
936.869	2061.7502	990.4	100.85
937.0058	2063.3079	988.35	103
937.1425	2064.8649	989.15	100.9
937.2792	2066.4212	989.4	104.4
937.4159	2067.9767	985.4	101.5
937.5525	2069.5315	986.9	101.7
937.6891	2071.0856	989.6	104.5
937.8257	2072.6389	988.15	101.25
937.9623	2074.1915	984.75	99.55
938.0989	2075.7433	987.35	99.7
938.2354	2077.2945	982.55	99.45
938.3719	2078.8448	986.1	101.5
938.5084	2080.3945	985.55	101.7
938.6448	2081.9434	985.7	102.35
938.7812	2083.4916	985.15	99.35
938.9176	2085.039	983.75	97.35
939.054	2086.5857	987.85	102.4
939.1903	2088.1317	984.65	102.5
939.3267	2089.677	983.2	99.2
939.463	2091.2215	986.6	103.3
939.5992	2092.7652	984	98.4
939.7355	2094.3083	988.15	103.35
939.8717	2095.8506	986.25	103.25
940.0079	2097.3921	983.35	101.5
940.1441	2098.933	982.95	96.15
940.2802	2100.4731	983.65	98.65
940.4163	2102.0124	1002.7	99.6
940.5524	2103.5511	985.45	100.1
940.6885	2105.089	982.95	98.45
940.8245	2106.6261	989.3	103.45
940.9606	2108.1626	987.15	101.55
941.0965	2109.6983	1014.6	100.95
941.2325	2111.2332	985.7	100.25
941.3684	2112.7675	987.15	100.75
941.5044	2114.301	985.25	99.85
941.6403	2115.8337	985.2	101.35
941.7761	2117.3657	985.3	100.55
941.912	2118.897	983.65	99.05
942.0478	2120.4276	993.25	103.7
942.1835	2121.9575	989.25	105.05
942.3193	2123.4866	998.5	99.5
942.455	2125.0149	984.3	97.4
942.5907	2126.5426	980.45	95.55
942.7264	2128.0695	986.85	97.1
942.8621	2129.5956	983.85	98.9
942.9977	2131.1211	990.35	103.25
943.1333	2132.6458	982.8	97.15
943.2689	2134.1698	982.65	97.8
943.4044	2135.693	985.3	98.8
943.54	2137.2155	984.3	97.05
943.6755	2138.7373	985.65	100.9
943.8109	2140.2584	982.9	98.1
943.9464	2141.7787	982.7	91.45
944.0818	2143.2983	982.35	97.95
944.2172	2144.8171	982.05	98
944.3526	2146.3353	982.5	95.8
944.4879	2147.8527	981.6	96.2
944.6232	2149.3693	983.55	98.1
944.7585	2150.8853	979.4	93.25
944.8938	2152.4005	981.95	97.3
945.029	2153.9149	983.9	99.8
945.1642	2155.4287	983.05	98.75
945.2994	2156.9417	978.4	92.2
945.4346	2158.454	985.6	97.8
945.5697	2159.9655	978.9	94.9
945.7048	2161.4764	980.85	93.7
945.8399	2162.9865	985.35	99.3
945.9749	2164.4958	983.4	96.5
946.1099	2166.0045	984.15	96.8
946.2449	2167.5124	984.1	101.15
946.3799	2169.0195	978.8	93.15
946.5148	2170.526	982.5	96.35
946.6498	2172.0317	983.3	99.1
946.7846	2173.5367	982.7	99.8
946.9195	2175.0409	980.6	97.35
947.0543	2176.5445	982.15	98.15
947.1891	2178.0473	979.8	95.45
947.3239	2179.5494	982.65	94.05
947.4587	2181.0507	981.35	97.15
947.5934	2182.5513	977.05	92.1
947.7281	2184.0512	979.85	93.65
947.8628	2185.5504	978.65	94.5
947.9974	2187.0488	980	94.95
948.132	2188.5465	978.9	95.35
948.2666	2190.0435	982.75	98.15
948.4012	2191.5397	978.3	93.1
948.5357	2193.0353	983.65	100.45
948.6702	2194.5301	978.6	94.4
948.8047	2196.0241	977.2	90.3
948.9392	2197.5175	979.05	95.55
949.0736	2199.0101	981.45	92.8
949.208	2200.502	975.35	93.15
949.3424	2201.9931	975.05	89.35
949.4767	2203.4835	977.65	93.7
949.611	2204.9733	982.5	91.8
949.7453	2206.4622	981.9	98.85
949.8796	2207.9505	979.75	91.9
950.0138	2209.438	973.25	90.15
950.148	2210.9248	978.2	92.55
950.2822	2212.4109	973.45	88.8
950.4164	2213.8962	978	92.1
950.5505	2215.3809	975.7	88.65
950.6846	2216.8648	976.05	91.05
950.8186	2218.3479	977.7	90.85
950.9527	2219.8304	973.25	87.3
951.0867	2221.3121	976.1	89.8
951.2207	2222.7931	972.6	89.35
951.3546	2224.2733	974.8	90.45
951.4886	2225.7529	975.75	91.9
951.6225	2227.2317	974.6	85.9
951.7563	2228.7098	971.95	86.7
951.8902	2230.1872	978.55	93.25
952.024	2231.6638	973.8	89.85
952.1578	2233.1397	976.8	87.9
952.2916	2234.6149	970.9	87
952.4253	2236.0894	973.65	86.85
952.559	2237.5632	981.95	88.05
952.6927	2239.0362	971.85	86.55
952.8263	2240.5085	968.7	84.3
952.9599	2241.9801	970.9	85
953.0935	2243.4509	970.9	84.95
953.2271	2244.921	971.25	86.55
953.3606	2246.3904	969.75	81.85
953.4941	2247.8591	970.55	87.9
953.6276	2249.3271	968.05	82.7
953.7611	2250.7943	971.9	87.35
953.8945	2252.2608	967.6	82.8
954.0279	2253.7266	967.35	83.5
954.1612	2255.1917	967.7	83.5
954.2946	2256.656	970.05	81.95
954.4279	2258.1197	969.8	85.95
954.5612	2259.5826	971.45	83
954.6944	2261.0447	970.8	86.65
954.8276	2262.5062	969.2	80.45
954.9608	2263.9669	971.55	83.5
955.094	2265.4269	967.8	82.85
955.2271	2266.8862	964.9	80.05
955.3602	2268.3448	966.55	81.65
955.4933	2269.8026	966.35	80.3
955.6264	2271.2598	968.65	84.55
955.7594	2272.7162	965.45	82.4
955.8924	2274.1719	966.1	81.3
956.0253	2275.6268	966.15	82
956.1583	2277.0811	966.3	81.2
956.2912	2278.5346	962.8	77.75
956.4241	2279.9874	967.05	80.95
956.5569	2281.4395	966.8	81.55
956.6897	2282.8908	967.9	78.55
956.8225	2284.3414	966.1	80.6
956.9553	2285.7914	969.1	85.8
957.088	2287.2406	968.95	82.15
957.2207	2288.689	967.65	83.3
957.3534	2290.1368	964.95	80.9
957.486	2291.5838	966.15	77.45
957.6186	2293.0302	966.8	81.7
957.7512	2294.4758	962.05	79.1
957.8838	2295.9206	969.75	83.3
958.0163	2297.3648	962.5	77.35
958.1488	2298.8082	964.3	78.55
958.2813	2300.251	963.9	79.55
958.4137	2301.693	963.5	77.05
958.5461	2303.1343	961.45	76.8
958.6785	2304.5748	961.35	76.7
958.8108	2306.0147	965.9	81.8
958.9432	2307.4538	966.4	80.7
959.0754	2308.8922	959.85	74.9
959.2077	2310.3299	961.25	77.3
959.3399	2311.7669	962.05	75.75
959.4721	2313.2031	960.2	74.95
959.6043	2314.6387	964.4	78.7
959.7365	2316.0735	960.7	76.55
959.8686	2317.5076	960.1	73.95
960.0006	2318.941	962.45	77.9
960.1327	2320.3737	961.2	76.5
960.2647	2321.8056	960.85	73.95
960.3967	2323.2369	962.45	75.35
960.5287	2324.6674	965.75	78.8
960.6606	2326.0972	968.45	81.65
960.7925	2327.5263	969	83.3
960.9244	2328.9547	971.85	86.9
961.0562	2330.3823	967.75	82.25
961.1881	2331.8092	969.05	83
961.3198	2333.2355	958.5	72.8
961.4516	2334.661	960.5	74.9
961.5833	2336.0858	961.55	74.55
961.715	2337.5098	957.55	71.8
961.8467	2338.9332	960.95	73.35
961.9783	2340.3558	961.3	73.4
962.1099	2341.7778	959.7	74.9
962.2415	2343.199	960.35	72.45
962.373	2344.6195	960.55	76.8
962.5045	2346.0393	957.55	74.25
962.636	2347.4583	955.15	70.7
962.7675	2348.8767	957.7	72.55
962.8989	2350.2943	955.45	70.15
963.0303	2351.7113	957.65	70.65
963.1617	2353.1275	954.95	69.4
963.293	2354.543	964.85	70.65
963.4243	2355.9578	959.1	73.8
963.5556	2357.3718	956.5	70.7
963.6868	2358.7852	959.55	73.3
963.818	2360.1978	956.7	68.5
963.9492	2361.6098	955.55	71.2
964.0803	2363.021	960.25	70.5
964.2114	2364.4315	956.6	71.9
964.3425	2365.8413	956.2	69.85
964.4736	2367.2504	952.2	68.25
964.6046	2368.6587	953.95	66.35
964.7356	2370.0664	951.9	69
964.8666	2371.4733	954.1	68.5
964.9975	2372.8795	954.05	70.6
965.1284	2374.285	956.45	70.05
965.2593	2375.6899	955.85	71.7
965.3901	2377.0939	955.1	72.5
965.5209	2378.4973	947.8	62.85
965.6517	2379.9	956.25	71
965.7825	2381.3019	951.05	64.85
965.9132	2382.7032	949.5	63.55
966.0439	2384.1037	951.35	69.4
966.1745	2385.5035	954.2	67.6
966.3051	2386.9027	951.55	67.7
966.4357	2388.3011	957.3	67.05
966.5663	2389.6987	953	66.4
966.6968	2391.0957	949.7	64.8
966.8273	2392.492	951.6	67.2
966.9578	2393.8876	951.6	67.05
967.0882	2395.2824	950.65	65.2
967.2186	2396.6765	947.7	62.2
967.349	2398.07	948.75	64.5
967.4793	2399.4627	950.3	64.6
967.6097	2400.8547	947.95	63.25
967.7399	2402.246	954	63.4
967.8702	2403.6366	948.5	63.4
968.0004	2405.0265	950.75	67.95
968.1306	2406.4156	953.4	64
968.2607	2407.8041	953	65.65
968.3909	2409.1918	948.9	62.9
968.521	2410.5789	948.05	62.7
968.651	2411.9652	946.45	60.4
968.781	2413.3508	946.55	59.95
968.911	2414.7358	948.95	62.2
969.041	2416.12	946.05	60.6
969.1709	2417.5035	944.85	59.95
969.3008	2418.8863	946.4	61.55
969.4307	2420.2684	945	59.8
969.5606	2421.6497	946.55	61.75
969.6904	2423.0304	945.25	61.3
969.8201	2424.4104	947	61.1
969.9499	2425.7896	953.95	62.8
970.0796	2427.1682	941.9	56.65
970.2093	2428.546	946.7	59.7
970.3389	2429.9232	944.95	57.95
970.4685	2431.2996	944.45	59.1
970.5981	2432.6753	946	61.45
970.7277	2434.0503	945.7	60.5
970.8572	2435.4246	944.4	60.8
970.9867	2436.7982	946.85	58.4
971.1161	2438.1711	946.25	64.55
971.2456	2439.5433	944.4	59.55
971.375	2440.9148	950	60.65
971.5043	2442.2856	942.45	56.9
971.6336	2443.6557	947.2	61.9
971.7629	2445.025	942.45	57.5
971.8922	2446.3937	942.15	57.8
972.0214	2447.7617	943.05	58.55
972.1506	2449.1289	943.75	61.1
972.2798	2450.4955	944.05	54.8
972.4089	2451.8613	942.65	58
972.538	2453.2265	941.7	56.1
972.6671	2454.5909	943.2	58.8
972.7961	2455.9546	942.3	58.25
972.9251	2457.3177	941.2	55.75
973.0541	2458.68	944.1	57.2
973.1831	2460.0416	942.8	58.4
973.312	2461.4025	941.15	55.55
973.4408	2462.7627	953.7	56
973.5697	2464.1222	942.9	59
973.6985	2465.4811	938.7	51.75
973.8273	2466.8392	940.55	54.9
973.956	2468.1966	944.15	55.85
974.0847	2469.5533	941.1	52
974.2134	2470.9093	942.55	58
974.3421	2472.2645	940.75	52.85
974.4707	2473.6191	942	57
974.5993	2474.973	942.3	57.1
974.7278	2476.3262	943.65	56.75
974.8563	2477.6787	938.2	52.85
974.9848	2479.0305	937.1	52.05
975.1132	2480.3816	941.45	54.45
975.2417	2481.7319	939.7	56.4
975.37	2483.0816	938.9	52.05
975.4984	2484.4306	941.45	57.4
975.6267	2485.7789	940.65	54.85
975.755	2487.1264	943.35	56.45
975.8833	2488.4733	936.7	53.3
976.0115	2489.8195	956.3	54.25
976.1397	2491.165	940	51.9
976.2678	2492.5097	938.55	50.95
976.3959	2493.8538	939.6	57.1
976.524	2495.1972	939.1	53.55
976.6521	2496.5398	936.9	48.65
976.7801	2497.8818	941.85	53.85
976.9081	2499.2231	938.7	54.85
977.036	2500.5637	939.35	53.9
977.164	2501.9035	935	50.95
977.2918	2503.2427	940.45	51.4
977.4197	2504.5812	936	51.4
977.5475	2505.919	939.1	51.45
977.6753	2507.256	938.2	50.7
977.8031	2508.5924	936.55	52.1
977.9308	2509.9281	942.8	50.9
978.0585	2511.2631	938.95	53.25
978.1861	2512.5974	936.05	51.9
978.3137	2513.9309	934.9	49.05
978.4413	2515.2638	963.5	50.45
978.5689	2516.596	934.6	49.35
978.6964	2517.9275	935.85	49.9
978.8239	2519.2583	935.9	50.3
978.9513	2520.5884	935.3	46.6
979.0788	2521.9178	934.3	50.2
979.2062	2523.2465	935.3	51.25
979.3335	2524.5745	933.85	48.55
979.4608	2525.9018	932.95	48.2
979.5881	2527.2284	933.85	50.85
979.7154	2528.5543	933.25	49.45
979.8426	2529.8796	932.05	45.9
979.9698	2531.2041	933.55	46.45
980.0969	2532.5279	933.15	49.85
980.224	2533.851	931.6	46.4
980.3511	2535.1735	933.05	48.9
980.4781	2536.4952	930.95	45.65
980.6052	2537.8163	934.85	49.9
980.7321	2539.1366	932.25	48.9
980.8591	2540.4562	935	50.9
980.986	2541.7752	932.5	48.15
981.1129	2543.0935	928.7	44
981.2397	2544.411	931.25	46.45
981.3665	2545.7279	929.9	45.15
981.4933	2547.0441	930.8	46.3
981.62	2548.3596	936.2	49.25
981.7467	2549.6744	932.85	49.25
981.8734	2550.9885	932.05	45.7
982.0001	2552.3019	929.55	47.45
982.1267	2553.6146	931.9	47.15
982.2532	2554.9266	930.85	43.55
982.3798	2556.2379	932.75	46.6
982.5063	2557.5485	929.95	45.95
982.6327	2558.8585	938.7	44.95
982.7592	2560.1677	934.05	43.85
982.8856	2561.4762	930.9	47.45
983.0119	2562.7841	930.45	42.55
983.1383	2564.0913	930.3	46.75
983.2646	2565.3977	929.5	46.1
983.3908	2566.7035	933.55	47.5
983.517	2568.0086	935.25	47.5
983.6432	2569.313	931.15	46.9
983.7694	2570.6167	932.75	44.8
983.8955	2571.9197	931.35	47.1
984.0216	2573.222	934.3	47.6
984.1476	2574.5236	929.3	42.85
984.2737	2575.8246	932.9	43.2
984.3996	2577.1248	932.15	44.5
984.5256	2578.4244	926.7	41.45
984.6515	2579.7232	928.5	43.45
984.7774	2581.0214	955.6	44.4
984.9032	2582.3189	930.15	46.4
985.029	2583.6157	933.85	43.65
985.1548	2584.9118	931.25	46.45
985.2806	2586.2072	929.4	43.85
985.4063	2587.5019	928.55	44
985.5319	2588.7959	924.2	38.35
985.6576	2590.0893	932.35	45.7
985.7832	2591.3819	927.25	43
985.9087	2592.6739	929.85	43.8
986.0343	2593.9652	930.95	44.25
986.1597	2595.2557	928.65	43.8
986.2852	2596.5456	931.6	48.4
986.4106	2597.8348	929.2	46
986.536	2599.1234	927.3	44.85
986.6614	2600.4112	926.4	41.1
986.7867	2601.6983	934.05	47.25
986.912	2602.9848	929.6	44.7
987.0372	2604.2705	936.8	46.45
987.1624	2605.5556	927.2	42.8
987.2876	2606.84	927.3	41.2
987.4128	2608.1237	925.65	40.05
987.5379	2609.4067	927.75	44.6
987.6629	2610.689	936.4	44.25
987.788	2611.9707	932.3	45.95
987.913	2613.2516	931.35	43.7
988.0379	2614.5319	926.65	42.55
988.1629	2615.8115	923.75	37.25
988.2878	2617.0903	927.5	40.35
988.4126	2618.3685	926.6	42.4
988.5375	2619.6461	923.8	41.1
988.6622	2620.9229	926.9	40.95
988.787	2622.199	924.2	39.9
988.9117	2623.4745	927.15	41.35
989.0364	2624.7493	923.7	39.1
989.161	2626.0234	924.55	39.75
989.2857	2627.2968	926.45	40.05
989.4102	2628.5695	925.05	36.85
989.5348	2629.8415	924.75	40.1
989.6593	2631.1128	924.6	39.4
989.7837	2632.3835	922.2	39.65
989.9082	2633.6535	922.35	36.1
990.0326	2634.9228	922.8	39.9
990.1569	2636.1914	924.55	39.2
990.2812	2637.4593	929	39.8
990.4055	2638.7265	922.95	36.05
990.5298	2639.9931	926.75	41.9
990.654	2641.259	924.55	38.9
990.7782	2642.5242	925.2	39.15
990.9023	2643.7887	923.85	38.3
991.0264	2645.0525	919.85	34.45
991.1505	2646.3156	920.8	37.15
991.2745	2647.5781	919.2	33.95
991.3985	2648.8398	920.55	36.5
991.5225	2650.1009	959.8	39
991.6464	2651.3613	921.35	35.45
991.7703	2652.6211	924.75	41.55
991.8942	2653.8801	919.75	35.9
992.018	2655.1385	923.45	35.45
992.1418	2656.3961	918.9	34.2
992.2655	2657.6531	919.65	34.75
992.3892	2658.9094	922.1	35
992.5129	2660.1651	920.25	36.75
992.6366	2661.42	922.05	38.3
992.7602	2662.6743	921.5	36.35
992.8837	2663.9279	918.85	34.1
993.0073	2665.1808	924.95	39.05
993.1307	2666.433	921.55	34.65
993.2542	2667.6846	920.65	36.85
993.3776	2668.9354	921.25	31.45
993.501	2670.1856	918.65	32.7
993.6244	2671.4351	921.75	36.75
993.7477	2672.6839	921.6	37
993.8709	2673.9321	920.2	33.35
993.9942	2675.1795	919.75	34.7
994.1174	2676.4263	921.1	36.35
994.2405	2677.6724	921.1	36.75
994.3637	2678.9179	921	34.15
994.4868	2680.1626	919.75	36.25
994.6098	2681.4067	922.5	36.6
994.7328	2682.6501	918.6	35.15
994.8558	2683.8928	919.6	33.95
994.9788	2685.1348	916.8	35.2
995.1017	2686.3761	918.6	32.8
995.2245	2687.6168	921.9	37.4
995.3474	2688.8568	916.55	32
995.4702	2690.0961	918.2	35.1
995.5929	2691.3348	921.15	36.5
995.7156	2692.5727	919.65	34.05
995.8383	2693.81	917	32.45
995.961	2695.0466	914.1	28.95
996.0836	2696.2826	922.35	35.6
996.2062	2697.5178	920.95	32.3
996.3287	2698.7524	917.7	33.05
996.4512	2699.9863	920.05	33.95
996.5737	2701.2195	918.6	35.45
996.6961	2702.452	918.35	31.95
996.8185	2703.6839	922.05	35.65
996.9408	2704.9151	917.9	33.2
997.0631	2706.1456	919.5	33.25
997.1854	2707.3755	919.9	35.35
997.3077	2708.6046	920.3	33.35
997.4299	2709.8331	916.9	31.85
997.552	2711.0609	920.95	35.7
997.6742	2712.2881	920.05	33.75
997.7963	2713.5145	919.4	32.05
997.9183	2714.7403	918.9	34.5
998.0403	2715.9654	918.9	33.6
998.1623	2717.1899	932.4	32.7
998.2842	2718.4136	921.7	35.95
998.4062	2719.6367	919	33.3
998.528	2720.8591	927.9	35.35
998.6498	2722.0809	921.4	35.35
998.7716	2723.3019	925.85	36.85
998.8934	2724.5223	923.8	38.05
999.0151	2725.7421	922.55	36.6
999.1368	2726.9611	922.75	35.9
999.2584	2728.1795	927.25	37.4
999.38	2729.3972	919.95	36.7
999.5016	2730.6142	933.25	35.85
999.6231	2731.8306	920.55	35.1
999.7446	2733.0462	919.7	32.55
999.8661	2734.2612	923.15	33.45
999.9875	2735.4756	921.1	36.2
1000.1089	2736.6892	919.05	33.15
1000.2302	2737.9022	917	34.5
1000.3515	2739.1145	914.9	31
1000.4728	2740.3262	925.05	32.05
1000.594	2741.5372	916.1	33.1
1000.7152	2742.7475	914.1	27.75
1000.8363	2743.9571	915.3	30.5
1000.9575	2745.1661	918.5	30
1001.0785	2746.3744	916.45	31.2
1001.1996	2747.582	913.6	28.85
1001.3206	2748.7889	915.05	27.85
1001.4415	2749.9952	913.3	28.25
1001.5625	2751.2008	913.6	27.75
1001.6833	2752.4057	914.1	25.1
1001.8042	2753.61	914.6	26.45
1001.925	2754.8136	913.1	27.9
1002.0458	2756.0165	912.45	28.1
1002.1665	2757.2188	908.6	24.9
1002.2872	2758.4204	914.55	30.05
1002.4078	2759.6213	915.6	29.2
1002.5285	2760.8215	920.3	28.1
1002.649	2762.0211	914.8	26.7
1002.7696	2763.22	915.6	27.75
1002.8901	2764.4182	913.9	26.5
1003.0106	2765.6158	912.2	26.65
1003.131	2766.8127	913.6	28.5
1003.2514	2768.009	912.45	27.9
1003.3717	2769.2045	911.9	25.35
1003.492	2770.3994	913.9	26.75
1003.6123	2771.5936	910.85	26.55
1003.7325	2772.7872	908.85	22.45
1003.8527	2773.9801	913.8	27.15
1003.9729	2775.1723	926.65	25.2
1004.093	2776.3639	911.35	27.6
1004.2131	2777.5548	913.05	25.55
1004.3331	2778.745	911.25	24.25
1004.4531	2779.9346	909.3	25.65
1004.5731	2781.1235	910.4	23.95
1004.693	2782.3117	911.4	27
1004.8129	2783.4992	907.25	23.15
1004.9328	2784.6861	908.85	23.2
1005.0526	2785.8723	913.05	27.1
1005.1723	2787.0579	911.35	24.4
1005.2921	2788.2428	911.65	27.75
1005.4118	2789.427	908.45	22.8
1005.5314	2790.6106	909.35	24.6
1005.651	2791.7935	912.5	27.3
1005.7706	2792.9757	911.8	28.45
1005.8902	2794.1573	913.1	27.05
1006.0097	2795.3382	912.5	26.8
1006.1291	2796.5184	907	25.15
1006.2485	2797.698	912.3	26.75
1006.3679	2798.8769	909.65	24.95
1006.4873	2800.0551	910.55	25
1006.6066	2801.2327	916.05	29.4
1006.7258	2802.4096	910.2	26.5
1006.8451	2803.5859	912.75	26.25
1006.9642	2804.7615	910.3	25.05
1007.0834	2805.9364	909.9	26.6
1007.2025	2807.1106	911.4	28.05
1007.3216	2808.2842	910.4	22.95
1007.4406	2809.4572	912.85	29.3
1007.5596	2810.6294	913.75	27.4
1007.6785	2811.801	911.35	27
1007.7975	2812.972	913.75	29.5
1007.9163	2814.1423	916	30.15
1008.0352	2815.3119	918.35	32.15
1008.154	2816.4808	915.9	33.25
1008.2727	2817.6491	918.3	31.1
1008.3914	2818.8167	918.55	36.15
1008.5101	2819.9837	924.8	35.75
1008.6288	2821.15	923.4	38.55
1008.7474	2822.3157	923.2	39.85
1008.8659	2823.4807	926.95	41.4
1008.9844	2824.645	929.55	43
1009.1029	2825.8086	934.85	50.1
1009.2214	2826.9716	940.15	55.85
1009.3398	2828.134	944.3	58.85
1009.4581	2829.2957	948	64.15
1009.5764	2830.4567	946.75	63.8
1009.6947	2831.617	951.2	66.5
1009.813	2832.7767	948.8	64.75
1009.9312	2833.9358	951.15	67.65
1010.0493	2835.0941	950.1	64.55
1010.1675	2836.2519	949.5	64.35
1010.2855	2837.4089	948.35	64.2
1010.4036	2838.5653	945.35	59.9
1010.5216	2839.7211	945.35	61.6
1010.6396	2840.8761	944.5	58.15
1010.7575	2842.0306	941	56.6
1010.8754	2843.1843	941.5	57.2
1010.9932	2844.3374	941.8	55.5
1011.111	2845.4899	945.85	60.5
1011.2288	2846.6417	941.6	57.8
1011.3465	2847.7928	943.35	59.3
1011.4642	2848.9433	946.75	62.2
1011.5818	2850.0931	946.05	62.6
1011.6995	2851.2422	949.35	64.8
1011.817	2852.3907	946.05	60.65
1011.9345	2853.5385	948.9	63.5
1012.052	2854.6857	976.65	64.2
1012.1695	2855.8323	948	62.9
1012.2869	2856.9781	950.85	65.95
1012.4042	2858.1233	951.45	65.25
1012.5216	2859.2679	952	66.05
1012.6389	2860.4118	957	71.45
1012.7561	2861.555	958.75	67.85
1012.8733	2862.6976	959.15	73.3
1012.9905	2863.8395	956.65	74.4
1013.1076	2864.9808	959	73.25
1013.2247	2866.1214	959.8	77.15
1013.3417	2867.2614	959.85	75.2
1013.4587	2868.4007	959.4	72.2
1013.5757	2869.5393	962.65	76.7
1013.6926	2870.6773	963.95	76.4
1013.8095	2871.8146	965.5	80.25
1013.9263	2872.9513	965.5	79.1
1014.0431	2874.0874	964.5	80.05
1014.1599	2875.2227	966.55	78.9
1014.2766	2876.3574	966.6	80.8
1014.3933	2877.4915	966.45	84.2
1014.51	2878.6249	966.9	82.6
1014.6266	2879.7577	971.5	85
1014.7431	2880.8898	981.6	85.85
1014.8596	2882.0212	968.2	83.35
1014.9761	2883.152	970.7	84
1015.0925	2884.2821	969.7	86.05
1015.2089	2885.4116	973.4	88.65
1015.3253	2886.5405	972.6	90.3
1015.4416	2887.6686	977.6	88.45
1015.5579	2888.7962	971.85	88.65
1015.6741	2889.923	970.35	87.45
1015.7903	2891.0493	973.85	91.15
1015.9065	2892.1748	972.65	89.4
1016.0226	2893.2997	974.85	88.4
1016.1387	2894.424	976	89.85
1016.2547	2895.5476	978.3	91.65
1016.3707	2896.6706	976.25	92.05
1016.4866	2897.7929	974.95	87.3
1016.6025	2898.9145	974.8	90.45
1016.7184	2900.0355	978.8	93.2
1016.8342	2901.1559	976.1	90.1
1016.95	2902.2756	975.25	86.55
1017.0658	2903.3946	974.8	90.85
1017.1815	2904.513	973.85	86
1017.2971	2905.6308	973.1	88.15
1017.4127	2906.7479	973.8	88.45
1017.5283	2907.8643	976.2	90.45
1017.6439	2908.9801	972	88.25
1017.7594	2910.0953	971.7	88.45
1017.8748	2911.2098	976.15	89.95
1017.9902	2912.3236	981.5	87.55
1018.1056	2913.4368	973.55	85.65
1018.2209	2914.5494	974.05	90.85
1018.3362	2915.6613	976.55	85.65
1018.4515	2916.7725	973.25	85.05
1018.5667	2917.8831	967.45	81.25
1018.6819	2918.9931	969.15	80.9
1018.797	2920.1024	966.7	79.65
1018.9121	2921.211	964.45	81.4
1019.0271	2922.319	963.9	79.5
1019.1421	2923.4264	961.1	77.05
1019.2571	2924.5331	961.7	79.25
1019.372	2925.6391	964.9	79.95
1019.4869	2926.7445	961.4	78.4
1019.6017	2927.8493	963.2	77.15
1019.7165	2928.9534	961.65	75.8
1019.8313	2930.0569	966.4	78.05
1019.946	2931.1597	965.65	80.75
1020.0606	2932.2619	961.95	76.15
1020.1753	2933.3634	967.55	83.55
1020.2899	2934.4643	973.4	81.3
1020.4044	2935.5645	973.25	82.2
1020.5189	2936.6641	971.65	83.1
1020.6334	2937.763	965.2	81.6
1020.7478	2938.8613	966.9	83.15
1020.8622	2939.959	971.9	82.45
1020.9765	2941.056	968.55	84.9
1021.0908	2942.1523	963.55	77.95
1021.2051	2943.248	962.15	78.65
1021.3193	2944.3431	953.8	68.8
1021.4334	2945.4375	954.9	69.45
1021.5476	2946.5313	948.65	65.2
1021.6617	2947.6244	945.9	60.2
1021.7757	2948.7169	945.15	61.55
1021.8897	2949.8087	940.65	56.85
1022.0037	2950.8999	937.7	52.1
1022.1176	2951.9904	933.5	49.5
1022.2315	2953.0803	929.95	43.4
1022.3453	2954.1696	933.95	50.2
1022.4591	2955.2582	928.6	45.45
1022.5728	2956.3462	928.05	42.05
1022.6865	2957.4335	929.05	42.05
1022.8002	2958.5202	929.2	41.65
1022.9138	2959.6062	929.2	44.9
1023.0274	2960.6916	926.3	41.85
1023.141	2961.7764	927.55	42
1023.2545	2962.8605	929.1	41.8
1023.3679	2963.9439	927.25	43.6
1023.4813	2965.0267	925.8	39.5
1023.5947	2966.1089	948.55	42.45
1023.708	2967.1905	925.3	39.7
1023.8213	2968.2714	924.05	39.3
1023.9346	2969.3516	920.45	36.05
1024.0478	2970.4312	931.05	38.05
1024.1609	2971.5102	926.9	43.65
1024.274	2972.5885	924.95	39.9
1024.3871	2973.6662	930.2	39.8
1024.5002	2974.7432	923.15	39.7
1024.6132	2975.8196	924.7	40.9
1024.7261	2976.8954	919.95	36
1024.839	2977.9705	923.45	38.7
1024.9519	2979.045	924.25	40.95
1025.0647	2980.1188	922.85	39.4
1025.1775	2981.192	924.85	42.7
1025.2902	2982.2645	924.75	37.45
1025.4029	2983.3364	923.9	37.7
1025.5156	2984.4077	922.55	38.55
1025.6282	2985.4783	926.8	36.05
1025.7407	2986.5483	920.15	33.9
1025.8532	2987.6177	917.3	34.4
1025.9657	2988.6864	919.15	35.6
1026.0782	2989.7545	919.35	33.65
1026.1906	2990.8219	914.25	30.15
1026.3029	2991.8887	919.9	34.4
1026.4152	2992.9548	916.1	30.95
1026.5275	2994.0204	909.95	24.85
1026.6397	2995.0852	910.65	28.25
1026.7519	2996.1495	911.05	23.9
1026.864	2997.2131	909.9	26.2
1026.9761	2998.276	906.9	24
1027.0882	2999.3383	906.3	19.5
1027.2002	3000.4	907	21.85
1027.3122	3001.4611	905.45	21.85
1027.4241	3002.5215	906.55	21.5
1027.536	3003.5812	905.05	19.8
1027.6478	3004.6404	904.3	19.7
1027.7596	3005.6989	904.1	17.25
1027.8714	3006.7567	904.1	19.45
1027.9831	3007.8139	933.85	16.15
1028.0947	3008.8705	903.35	19.5
1028.2064	3009.9264	917.1	14.95
1028.3179	3010.9818	901.35	19.1
1028.4295	3012.0364	903.2	19.05
1028.541	3013.0905	903.4	19.2
1028.6524	3014.1439	903.05	18.4
1028.7638	3015.1966	900.35	17.45
1028.8752	3016.2487	899.1	15
1028.9865	3017.3002	907.05	14.4
1029.0978	3018.3511	900.65	17.1
1029.209	3019.4013	898.75	15.15
1029.3202	3020.4509	899.3	15.3
1029.4314	3021.4998	899.9	14.45
1029.5425	3022.5481	900.8	17.2
1029.6535	3023.5958	897.55	13.85
1029.7645	3024.6428	899.8	12.55
1029.8755	3025.6892	900.35	15.55
1029.9864	3026.735	900	14.75
1030.0973	3027.7802	899.1	14.2
1030.2082	3028.8247	897.05	10.65
1030.319	3029.8685	900.35	15.45
1030.4297	3030.9118	901.25	14.9
1030.5404	3031.9544	898.95	13.2
1030.6511	3032.9963	899.45	14
1030.7617	3034.0376	898.8	14.7
1030.8723	3035.0783	902.05	14.35
1030.9829	3036.1184	901.05	16.65
1031.0934	3037.1578	897.6	14.15
1031.2038	3038.1966	900.05	14.8
1031.3142	3039.2348	896.95	14.5
1031.4246	3040.2723	908.2	13.65
1031.5349	3041.3092	898.35	11.6
1031.6452	3042.3455	899.65	14.25
1031.7554	3043.3811	902.4	17.45
1031.8656	3044.4161	899.5	13.95
1031.9758	3045.4505	898.65	14.7
1032.0859	3046.4842	898.7	13.1
1032.1959	3047.5173	898.5	13.95
1032.3059	3048.5498	899.35	13.9
1032.4159	3049.5816	899.65	15.05
1032.5258	3050.6128	900.75	14.5
1032.6357	3051.6434	901.05	16.25
1032.7455	3052.6734	901.2	15.35
1032.8553	3053.7027	900.1	16.25
1032.9651	3054.7314	900.5	15.65
1033.0748	3055.7594	898.45	13.55
1033.1845	3056.7868	899.6	13.75
1033.2941	3057.8136	898.8	15.85
1033.4037	3058.8398	900.1	16.6
1033.5132	3059.8653	899.95	14
1033.6227	3060.8902	899.85	14.05
1033.7321	3061.9145	900.35	15
1033.8415	3062.9381	900.1	14.75
1033.9509	3063.9612	917.1	15.95
1034.0602	3064.9835	899.85	13.95
1034.1694	3066.0053	901.4	14.6
1034.2787	3067.0264	898.65	13.25
1034.3878	3068.0469	903.7	17.95
1034.497	3069.0668	902.6	14.25
1034.6061	3070.086	901	15.45
1034.7151	3071.1046	902	15.85
1034.8241	3072.1226	901.5	16.5
1034.9331	3073.1399	897.85	12.55
1035.042	3074.1567	900.2	16.5
1035.1508	3075.1727	902.05	14.6
1035.2597	3076.1882	899.65	15.9
1035.3684	3077.203	899.45	15.55
1035.4772	3078.2173	900.45	13.65
1035.5859	3079.2308	902.45	13.05
1035.6945	3080.2438	899.45	12.35
1035.8031	3081.2561	896.35	12.1
1035.9117	3082.2678	898	12.25
1036.0202	3083.2789	897.2	11.75
1036.1286	3084.2893	897.05	12.4
1036.2371	3085.2991	896.3	12
1036.3454	3086.3083	901.65	11.2
1036.4538	3087.3169	901.5	15.9
1036.562	3088.3248	900	11.35
1036.6703	3089.3321	896.7	8.7
1036.7785	3090.3388	893.25	9.65
1036.8866	3091.3449	894.65	10.5
1036.9948	3092.3503	898.4	12.05
1037.1028	3093.3551	893.8	11.4
1037.2108	3094.3593	893.75	9.9
1037.3188	3095.3629	892.9	8.6
1037.4267	3096.3658	897.3	11.55
1037.5346	3097.3681	895.55	11.75
1037.6425	3098.3698	897.25	11.85
1037.7503	3099.3708	896.55	11.8
1037.858	3100.3713	894.55	12.15
1037.9657	3101.3711	897.2	12.7
1038.0734	3102.3702	1033.75	11.55
1038.181	3103.3688	897.7	9.9
1038.2886	3104.3667	894.05	9.05
1038.3961	3105.364	892.2	9.2
1038.5036	3106.3607	896.05	7.3
1038.611	3107.3568	896.2	10.4
1038.7184	3108.3522	894.4	11.35
1038.8257	3109.347	894.7	7.9
1038.933	3110.3412	898.05	8.1
1039.0403	3111.3348	895.1	11.15
1039.1475	3112.3277	895.05	9.95
1039.2547	3113.32	894.15	9.85
1039.3618	3114.3117	892.7	8.4
1039.4689	3115.3028	893.45	9.45
1039.5759	3116.2932	897.9	10.4
1039.6829	3117.2831	899.6	8.5
1039.7898	3118.2723	892.65	7.85
1039.8967	3119.2608	894.35	10.85
1040.0035	3120.2488	892.8	7.4
1040.1103	3121.2361	893.45	7.65
1040.2171	3122.2229	891	7.55
1040.3238	3123.209	892.35	7.7
1040.4305	3124.1944	892.55	7.8
1040.5371	3125.1793	892.95	6.9
1040.6437	3126.1635	892.5	7.05
1040.7502	3127.1471	893.2	8.45
1040.8567	3128.1301	893.55	8.95
1040.9631	3129.1125	891.85	7.4
1041.0695	3130.0942	891.2	7.65
1041.1759	3131.0753	902.35	9.05
1041.2822	3132.0558	895.05	8.85
1041.3884	3133.0357	892.15	8.25
1041.4946	3134.015	892.15	6.5
1041.6008	3134.9936	893.85	6.15
1041.7069	3135.9716	913.55	7.25
1041.813	3136.949	893.05	7.25
1041.919	3137.9258	910.2	7.7
1042.025	3138.902	897.85	8.15
1042.1309	3139.8775	890.95	6.5
1042.2368	3140.8524	891.5	7.8
1042.3427	3141.8267	891.75	4.25
1042.4485	3142.8004	892.45	8.3
1042.5542	3143.7735	897.8	6.05
1042.6599	3144.7459	891.3	4.5
1042.7656	3145.7178	890.8	4.8
1042.8712	3146.689	890.8	6.6
1042.9768	3147.6596	894.2	9.15
1043.0823	3148.6295	893.25	6.85
1043.1878	3149.5989	891.65	6.05
1043.2932	3150.5676	890.2	5.65
1043.3986	3151.5357	890.45	8.1
1043.5039	3152.5032	889.4	5.1
1043.6092	3153.4701	890.8	4.6
1043.7145	3154.4364	893.05	6.3
1043.8197	3155.402	889.65	4.05
1043.9248	3156.367	894.15	6.7
1044.03	3157.3315	921.25	9.5
1044.135	3158.2952	892.35	5.35
1044.24	3159.2584	890.75	6.75
1044.345	3160.221	889.95	5.6
1044.4499	3161.1829	891.25	5.85
1044.5548	3162.1442	890.35	4.85
1044.6596	3163.105	891.15	6.25
1044.7644	3164.065	892.35	6.55
1044.8692	3165.0245	893.35	3.6
1044.9739	3165.9834	891.15	6.55
1045.0785	3166.9416	891.45	7.35
1045.1831	3167.8993	892.05	6.05
1045.2877	3168.8563	889.75	4.85
1045.3922	3169.8127	890.25	6.25
1045.4966	3170.7684	892.1	7.45
1045.6011	3171.7236	892.1	5.95
1045.7054	3172.6782	890.25	4.35
1045.8098	3173.6321	891.5	5.4
1045.914	3174.5854	892.9	3.4
1046.0183	3175.5381	892.25	8.65
1046.1224	3176.4902	890.4	4.6
1046.2266	3177.4417	890.25	5.25
1046.3307	3178.3926	890.1	6.2
1046.4347	3179.3428	887.05	2.35
1046.5387	3180.2924	889.6	4.25
1046.6427	3181.2415	890.8	4.5
1046.7466	3182.1899	890.3	4.95
1046.8504	3183.1377	890.85	6.35
1046.9542	3184.0848	890.9	2.6
1047.058	3185.0314	893.15	6.4
1047.1617	3185.9773	890.8	5.6
1047.2654	3186.9227	891.95	7.15
1047.369	3187.8674	891.8	8.5
1047.4726	3188.8115	893.8	4.55
1047.5761	3189.755	892.3	8.8
1047.6796	3190.6979	889.65	6.9
1047.783	3191.6402	888.75	4.3
1047.8864	3192.5818	888.55	3.9
1047.9898	3193.5229	903.85	5.75
1048.0931	3194.4633	890.25	4.8
1048.1963	3195.4031	891.05	5.7
1048.2995	3196.3423	889.45	5.1
1048.4027	3197.2809	890.4	5.35
1048.5058	3198.2189	888.65	4.25
1048.6089	3199.1563	907.45	6.65
1048.7119	3200.0931	889.2	4.1
1048.8148	3201.0292	888.6	5.5
1048.9178	3201.9648	890.4	5.75
1049.0206	3202.8997	892.8	4.75
1049.1235	3203.834	889.9	5.5
1049.2262	3204.7677	890.25	5.45
1049.329	3205.7008	891.4	5.85
1049.4317	3206.6333	887.95	4.2
1049.5343	3207.5652	888	0.3
1049.6369	3208.4964	888.7	3.6
1049.7394	3209.4271	889.35	4.1
1049.8419	3210.3571	887.8	5.05
1049.9444	3211.2865	890.45	5.1
1050.0468	3212.2154	890.75	4.15
1050.1491	3213.1436	892.05	3.2
1050.2514	3214.0712	897.05	5.45
1050.3537	3214.9982	887.25	2.2
1050.4559	3215.9246	890.3	4.75
1050.5581	3216.8503	890.15	6.35
1050.6602	3217.7755	889.6	4.55
1050.7623	3218.7001	890.9	6.6
1050.8643	3219.624	889.85	5.25
1050.9663	3220.5473	889.35	5.75
1051.0682	3221.4701	893.75	8.4
1051.1701	3222.3922	892.3	3.25
1051.2719	3223.3137	890.55	5.75
1051.3737	3224.2346	885.9	1
1051.4754	3225.1549	888.15	4.95
1051.5771	3226.0746	886.7	2.3
1051.6788	3226.9937	888.15	3.1
1051.7804	3227.9121	887.35	4.05
1051.8819	3228.83	888.75	5.6
1051.9834	3229.7473	888.9	4.55
1052.0849	3230.6639	890.8	5.85
1052.1863	3231.5799	888	3.6
1052.2876	3232.4954	890.5	3.3
1052.3889	3233.4102	887.35	1.1
1052.4902	3234.3244	889.3	2.2
1052.5914	3235.238	887.9	4.2
1052.6926	3236.151	910.85	3.75
1052.7937	3237.0634	888.05	2.6
1052.8948	3237.9752	888.55	2.45
1052.9958	3238.8864	888.3	3.5
1053.0968	3239.797	888.15	3.45
1053.1977	3240.7069	891	6.7
1053.2986	3241.6163	892.5	5.45
1053.3994	3242.5251	886.2	2.65
1053.5002	3243.4332	887.5	3.25
1053.6009	3244.3408	891.3	5.95
1053.7016	3245.2477	888.95	5.3
1053.8022	3246.154	889.1	3.4
1053.9028	3247.0598	887.2	2.1
1054.0034	3247.9649	887.6	2.95
1054.1039	3248.8694	888.9	5.75
1054.2043	3249.7733	888.55	3.8
1054.3047	3250.6766	889.7	4.85
1054.4051	3251.5793	891.15	4.6
1054.5054	3252.4814	888	1.9
1054.6056	3253.3829	889.4	4.5
1054.7058	3254.2838	887.2	3
1054.806	3255.1841	887.55	3.75
1054.9061	3256.0838	888.9	2.95
1055.0061	3256.9829	886.6	1.95
1055.1062	3257.8814	890.45	3.45
1055.2061	3258.7792	889.65	3.8
1055.306	3259.6765	888.95	1.65
1055.4059	3260.5731	887.5	2.35
1055.5057	3261.4692	888.55	2.3
1055.6055	3262.3647	888.3	0.75
1055.7052	3263.2595	887.45	3
1055.8049	3264.1538	888.75	5.45
1055.9045	3265.0474	886.6	0
1056.0041	3265.9404	887.6	3.1
1056.1036	3266.8329	886.5	0.75
1056.2031	3267.7247	897.6	3
1056.3025	3268.616	889.5	6.15
1056.4019	3269.5066	887.65	1.6
1056.5013	3270.3966	890.3	5.45
1056.6005	3271.286	888.2	4.05
