Software Version:	3.9.2.0
Unit SN:	10000200
Spectrometer SN:	6960
Date:	3/14/2024 1:22:51 PM
Data Line Index:	25
Spectral Points:	2048
Integration time (ms):	125
Averages:	20
Delay (ms):	30000
Sequence Number:	1
Processing:	dark subtract
Laser Power (mW):	300
Laser Current (mA):	825
Laser Diode Temp (C):	25
Laser Case Temp (C):	28.4
System Temp (C):	28.4
Spectrometer Temp (C):	26.2
CCD Temp (C):	0.001
Secondary Temp (C):	20.01
Heatsink Temp (C):	24.382
CCDPCB Temp (C):	37.73
SecondaryPCB Temp (C):	35.473

Wavelength	RamanShift	Raw Counts	Dark Subtracted
787.061	30.1047	427.8	15.9
787.2016	32.3739	429.95	18.9
787.3422	34.6426	432.15	19.55
787.4828	36.9109	434.85	21.6
787.6235	39.1787	441.1	23.45
787.7642	41.4461	445.4	23.65
787.9049	43.7131	449.2	23.6
788.0456	45.9796	455.4	28.6
788.1863	48.2456	461.1	27.1
788.3271	50.5112	467.45	29.75
788.4679	52.7764	468.45	29.8
788.6087	55.0411	477.2	35.8
788.7496	57.3054	482.75	36.45
788.8904	59.5692	489.05	41.5
789.0313	61.8326	496.3	42.6
789.1722	64.0955	503.5	46.85
789.3132	66.3579	512.75	49.5
789.4541	68.6199	520.25	55.25
789.5951	70.8815	538.1	68.55
789.7361	73.1426	569.45	97.25
789.8771	75.4032	645.1	168.75
790.0181	77.6634	825.8	344.5
790.1592	79.9231	1261	772.75
790.3003	82.1824	2161.2	1661.65
790.4414	84.4412	3728.55	3215.05
790.5825	86.6995	5903.9	5369.85
790.7237	88.9574	8044.15	7490.2
790.8648	91.2148	9592.35	9024.9
791.006	93.4717	10343.15	9766.05
791.1472	95.7282	10508.15	9927.65
791.2885	97.9842	10545.45	9959.55
791.4297	100.2398	10336.65	9748.95
791.571	102.4949	10142.6	9547.55
791.7123	104.7495	9889.75	9292.85
791.8536	107.0036	9631.2	9036.5
791.9949	109.2573	9399.05	8804.75
792.1363	111.5105	9157.5	8561.1
792.2777	113.7632	8934.45	8335.3
792.4191	116.0154	8771.8	8161.9
792.5605	118.2672	8621.8	8022
792.7019	120.5185	8441.55	7837.6
792.8434	122.7693	8367.35	7762.25
792.9849	125.0197	8231.85	7622
793.1264	127.2696	8145.7	7535.45
793.2679	129.519	8102.5	7489.9
793.4094	131.7679	8006.85	7394.2
793.551	134.0163	7932.05	7312
793.6926	136.2642	7847.75	7224.9
793.8342	138.5117	7767.85	7136.2
793.9758	140.7587	7659.45	7030.2
794.1175	143.0052	7541.35	6910.1
794.2591	145.2512	7456.45	6824.3
794.4008	147.4967	7346.75	6717.1
794.5425	149.7417	7267.65	6631.25
794.6842	151.9863	7227.7	6590.45
794.826	154.2304	7179.7	6537.15
794.9677	156.4739	7123.85	6477.2
795.1095	158.717	7102.8	6460.35
795.2513	160.9596	7083.9	6433.4
795.3931	163.2017	7046.4	6394.5
795.535	165.4433	6975.75	6319.9
795.6768	167.6844	6879.2	6223.5
795.8187	169.925	6790.65	6129.6
795.9606	172.1651	6703.7	6042.7
796.1025	174.4047	6607.45	5943.25
796.2445	176.6439	6527.5	5863.4
796.3864	178.8825	6467	5798.9
796.5284	181.1206	6459.3	5788
796.6704	183.3582	6429.55	5751.35
796.8124	185.5954	6375.45	5698.5
796.9544	187.832	6381.2	5700.1
797.0965	190.0681	6351.25	5669.75
797.2386	192.3037	6360.95	5678
797.3806	194.5388	6324.75	5634
797.5228	196.7734	6362.7	5670
797.6649	199.0075	6383.15	5688.7
797.807	201.2411	6422.1	5724.2
797.9492	203.4742	6462.85	5767.55
798.0914	205.7068	6503.25	5804.85
798.2336	207.9389	6521.25	5820.85
798.3758	210.1704	6583.55	5883.95
798.518	212.4015	6597.85	5892.9
798.6603	214.632	6651.85	5948.2
798.8025	216.862	6658.95	5958.3
798.9448	219.0915	6675.05	5982
799.0871	221.3205	6679.95	5990.75
799.2294	223.549	6699.3	6015.1
799.3718	225.777	6704.3	6019.25
799.5141	228.0044	6711.2	6025.5
799.6565	230.2314	6726.45	6039.45
799.7989	232.4578	6734.55	6046.1
799.9413	234.6837	6727.25	6035.55
800.0837	236.909	6754.8	6057.7
800.2262	239.1339	6716.85	5996.75
800.3687	241.3582	6706.3	6003.85
800.5111	243.582	6701.6	5974.05
800.6536	245.8053	6706.3	5983.05
800.7961	248.0281	6698.4	5979.15
800.9387	250.2503	6696.7	5975
801.0812	252.472	6725.9	6000.8
801.2238	254.6932	6740.55	6010.6
801.3664	256.9139	6786.05	6054
801.509	259.134	6840.55	6107.65
801.6516	261.3536	6895.95	6164.45
801.7942	263.5727	7000.5	6266.15
801.9369	265.7912	7088.2	6353.2
802.0795	268.0092	7176.4	6443.5
802.2222	270.2267	7266.35	6531.15
802.3649	272.4436	7320.9	6584
802.5076	274.6601	7363.2	6617.5
802.6504	276.8759	7329.5	6593.95
802.7931	279.0913	7332	6590.85
802.9359	281.3061	7321.05	6576.95
803.0787	283.5204	7333.8	6591.9
803.2215	285.7341	7358.95	6608.65
803.3643	287.9473	7380.4	6621.65
803.5071	290.16	7338.7	6581.65
803.6499	292.3721	7331.5	6581.65
803.7928	294.5837	7369	6620.85
803.9357	296.7947	7360.8	6609.75
804.0786	299.0052	7394.1	6645.1
804.2215	301.2152	7364.7	6611.9
804.3644	303.4246	7362.4	6613
804.5074	305.6334	7292.55	6541.05
804.6503	307.8418	7174.25	6418.25
804.7933	310.0495	7069	6314.1
804.9363	312.2568	6940	6187.35
805.0793	314.4635	6814	6057.35
805.2223	316.6696	6693.9	5937.9
805.3653	318.8752	6595.4	5829.35
805.5084	321.0802	6544	5786.35
805.6514	323.2847	6534.95	5775.05
805.7945	325.4887	6538.5	5778.3
805.9376	327.692	6564.85	5806.7
806.0807	329.8949	6563.2	5801.1
806.2238	332.0972	6541.35	5781.7
806.367	334.2989	6510	5746.5
806.5101	336.5001	6461.65	5696.8
806.6533	338.7007	6387.65	5620.2
806.7965	340.9008	6316.85	5546.8
806.9397	343.1003	6249.9	5479.3
807.0829	345.2992	6208.7	5438.15
807.2261	347.4976	6144.15	5369.2
807.3693	349.6955	6109.05	5333.85
807.5126	351.8927	6078.4	5301.9
807.6559	354.0895	6064.45	5277.3
807.7991	356.2856	6033.25	5255
807.9424	358.4812	5993.35	5216.25
808.0857	360.6763	5975.55	5198.75
808.2291	362.8707	5981.1	5197.5
808.3724	365.0646	5992.1	5208.8
808.5158	367.258	6002.9	5218.05
808.6591	369.4508	5998.95	5207.05
808.8025	371.643	6057.3	5270.4
808.9459	373.8346	6082.7	5290.05
809.0893	376.0257	6102.8	5311.3
809.2327	378.2162	6133.5	5342
809.3762	380.4062	6158.65	5364.25
809.5196	382.5956	6093.05	5297.55
809.6631	384.7844	6069.35	5272.15
809.8066	386.9726	5997.85	5199.25
809.9501	389.1603	5941.65	5142.25
810.0936	391.3474	5962.45	5129.7
810.2371	393.5339	5921.9	5123.05
810.3806	395.7199	5899.5	5108.15
810.5241	397.9052	5921.7	5132.8
810.6677	400.09	5937.35	5147.65
810.8113	402.2743	5990	5201.05
810.9548	404.4579	6054.3	5265.65
811.0984	406.641	6133.8	5344.8
811.2421	408.8235	6195.5	5405.25
811.3857	411.0054	6243.45	5452.05
811.5293	413.1868	6311.5	5517.05
811.673	415.3675	6326.5	5531.05
811.8166	417.5477	6298.8	5504.2
811.9603	419.7273	6238.25	5440.4
812.104	421.9064	6172.45	5366.4
812.2477	424.0848	6125.65	5326.3
812.3914	426.2627	6062	5254.45
812.5351	428.4399	5983.5	5178.3
812.6788	430.6166	5859.9	5053.1
812.8226	432.7928	5748.55	4937.5
812.9663	434.9683	5663.1	4853.05
813.1101	437.1432	5584.9	4772.3
813.2539	439.3176	5527.35	4716.5
813.3977	441.4914	5507.65	4697.1
813.5415	443.6645	5480.75	4666.65
813.6853	445.8371	5457.3	4642.1
813.8291	448.0091	5440.9	4625.35
813.973	450.1806	5422.3	4607.8
814.1168	452.3514	5414.9	4600.35
814.2607	454.5216	5438.75	4613.3
814.4046	456.6913	5417	4602.25
814.5485	458.8603	5414.75	4599.75
814.6924	461.0288	5428.8	4610.15
814.8363	463.1967	5409.5	4591
814.9802	465.3639	5418.45	4598.35
815.1241	467.5306	5400.95	4581.55
815.2681	469.6967	5381.95	4560.15
815.412	471.8622	5353.4	4535.05
815.556	474.0271	5369.9	4551.9
815.7	476.1914	5376.25	4554.05
815.844	478.3551	5363.8	4541.8
815.988	480.5182	5381.85	4558.4
816.132	482.6807	5390.05	4567.95
816.276	484.8426	5449.8	4628.1
816.4201	487.0039	5523.95	4701.25
816.5641	489.1647	5623.9	4803
816.7082	491.3248	5731.95	4905.65
816.8522	493.4843	5748.1	4923.8
816.9963	495.6432	5719.85	4894.4
817.1404	497.8015	5682.1	4854.8
817.2845	499.9592	5630.5	4803.95
817.4286	502.1163	5543.25	4716.75
817.5727	504.2728	5448.95	4621.85
817.7168	506.4287	5390.25	4563.25
817.861	508.5839	5321.7	4493.95
818.0051	510.7386	5286.65	4460.25
818.1493	512.8927	5233.95	4399.35
818.2935	515.0461	5238.3	4408.1
818.4377	517.199	5259.65	4430.95
818.5818	519.3512	5316.25	4487.05
818.726	521.5029	5402.95	4566.85
818.8703	523.6539	5473.9	4641.6
819.0145	525.8043	5522.4	4692.2
819.1587	527.9541	5477.85	4643.05
819.303	530.1033	5392.95	4563.2
819.4472	532.2519	5322.35	4489
819.5915	534.3999	5289.25	4452.35
819.7357	536.5472	5281.65	4450.85
819.88	538.694	5335.5	4502
820.0243	540.8401	5357.2	4522.3
820.1686	542.9856	5417.5	4580.3
820.3129	545.1305	5402.55	4563.9
820.4572	547.2748	5406.9	4568.1
820.6016	549.4185	5387.05	4545.6
820.7459	551.5615	5361.9	4522.9
820.8902	553.704	5359.75	4522.65
821.0346	555.8458	5372.6	4534.1
821.1789	557.987	5442.1	4603.65
821.3233	560.1276	5482.4	4645.05
821.4677	562.2675	5603.35	4766.25
821.6121	564.4069	5741.2	4902.1
821.7565	566.5456	5840.3	5001.65
821.9009	568.6837	5902	5062.15
822.0453	570.8212	5783.65	4948.75
822.1897	572.958	5597.9	4757.75
822.3342	575.0942	5420.05	4580.5
822.4786	577.2299	5293.25	4452.6
822.6231	579.3648	5230.1	4389.35
822.7675	581.4992	5198.35	4359.35
822.912	583.6329	5201	4361.4
823.0565	585.766	5256.8	4414.2
823.201	587.8985	5298.8	4457.5
823.3454	590.0304	5334.45	4469.1
823.4899	592.1616	5334.65	4491.9
823.6345	594.2922	5300.85	4458.4
823.779	596.4222	5236.7	4392.95
823.9235	598.5515	5137.85	4293.8
824.068	600.6802	5080	4236.4
824.2126	602.8083	5013.35	4169.5
824.3571	604.9358	5012.2	4167.4
824.5017	607.0626	5010.9	4164.75
824.6462	609.1888	5033.35	4187.1
824.7908	611.3144	5097.4	4251.65
824.9354	613.4393	5150.35	4304.95
825.08	615.5636	5184.8	4341
825.2246	617.6873	5232.75	4388
825.3692	619.8103	5241.25	4393.3
825.5138	621.9327	5170.75	4321.45
825.6584	624.0544	5099.55	4253.9
825.803	626.1756	5020.6	4175.65
825.9477	628.2961	4982.85	4138.15
826.0923	630.4159	4948.65	4098.9
826.237	632.5351	4931.4	4084.4
826.3816	634.6537	4910.1	4063
826.5263	636.7716	4905.35	4054.45
826.6709	638.8889	4889.35	4039.65
826.8156	641.0056	4914.7	4062.6
826.9603	643.1216	4890.2	4041.55
827.105	645.237	4873.55	4022.4
827.2497	647.3518	4843.9	3994.75
827.3944	649.4659	4816	3964.5
827.5391	651.5793	4784.95	3931.7
827.6838	653.6922	4755.2	3901.7
827.8285	655.8043	4763.6	3914.1
827.9733	657.9159	4744.75	3892.8
828.118	660.0268	4737.2	3881.9
828.2627	662.137	4738	3885.9
828.4075	664.2466	4734.85	3882.4
828.5522	666.3556	4752.7	3898.35
828.697	668.4639	4720.9	3866.2
828.8418	670.5716	4713.05	3856.9
828.9865	672.6786	4691.65	3836.7
829.1313	674.785	4654.25	3798.1
829.2761	676.8907	4638.1	3782.75
829.4209	678.9958	4638.1	3782.6
829.5657	681.1002	4625.2	3770.1
829.7105	683.204	4622.8	3763
829.8553	685.3072	4599.85	3743.55
830.0001	687.4097	4600.35	3745.75
830.1449	689.5115	4603.4	3746.85
830.2898	691.6127	4596	3739.9
830.4346	693.7132	4569.85	3710.25
830.5794	695.8131	4603.85	3730.8
830.7243	697.9123	4600.3	3742.35
830.8691	700.0109	4603	3744.4
831.014	702.1089	4602.75	3747.05
831.1588	704.2061	4627.75	3768.6
831.3037	706.3028	4655.5	3795.5
831.4486	708.3987	4666.55	3806.2
831.5935	710.4941	4673.9	3813.8
831.7383	712.5887	4679.7	3822.55
831.8832	714.6827	4694.55	3832.95
832.0281	716.7761	4699.35	3839.35
832.173	718.8688	4741.75	3879.2
832.3179	720.9608	4778.55	3915.9
832.4628	723.0522	4814.25	3951.55
832.6077	725.1429	4831.9	3971.5
832.7527	727.233	4885	4021.85
832.8976	729.3224	4941.85	4082.3
833.0425	731.4112	4981.85	4118.55
833.1874	733.4993	4926.55	4063.35
833.3324	735.5867	4829.25	3965.95
833.4773	737.6735	4751.5	3887.25
833.6222	739.7596	4671.8	3808.65
833.7672	741.845	4637.25	3776.1
833.9122	743.9298	4610.55	3744.75
834.0571	746.014	4565.45	3702.05
834.2021	748.0974	4560.4	3692.25
834.347	750.1802	4568.55	3706.2
834.492	752.2624	4559.6	3694.95
834.637	754.3439	4551.7	3683.8
834.782	756.4247	4576.1	3702.25
834.9269	758.5048	4605.5	3739.6
835.0719	760.5843	4679.65	3814.7
835.2169	762.6631	4762.55	3897.6
835.3619	764.7413	4901.7	4037.7
835.5069	766.8188	5119.45	4254.65
835.6519	768.8956	5274.85	4405.45
835.7969	770.9718	5399.65	4535.55
835.9419	773.0473	5393.55	4528.8
836.0869	775.1221	5348.55	4483.7
836.232	777.1962	5308.2	4441.35
836.377	779.2697	5310.6	4442.95
836.522	781.3426	5377.5	4502.65
836.667	783.4147	5408.7	4542.5
836.8121	785.4862	5404.15	4539.75
836.9571	787.557	5310.2	4444.15
837.1021	789.6271	5116.65	4247.95
837.2472	791.6966	4908.3	4041.1
837.3922	793.7654	4721.8	3851
837.5373	795.8335	4603.3	3737.25
837.6823	797.901	4506.05	3639.65
837.8274	799.9678	4454.4	3586.35
837.9724	802.0339	4429.05	3562.4
838.1175	804.0993	4415.3	3539.85
838.2626	806.1641	4381.85	3514.95
838.4076	808.2282	4351.05	3483.05
838.5527	810.2916	4320.75	3448.05
838.6978	812.3544	4298.2	3433.5
838.8428	814.4164	4285.45	3420.85
838.9879	816.4778	4306.7	3435.5
839.133	818.5385	4313.7	3445.05
839.2781	820.5986	4356.6	3489
839.4232	822.658	4436.5	3569.75
839.5682	824.7166	4551.6	3682.6
839.7133	826.7747	4716.9	3849.2
839.8584	828.832	4889.65	4021.05
840.0035	830.8886	5034.1	4166.2
840.1486	832.9446	5085.1	4215.9
840.2937	834.9999	5001.55	4134.1
840.4388	837.0545	4885.2	4013.95
840.5839	839.1085	4752.55	3883.05
840.729	841.1618	4631.95	3759.05
840.8741	843.2143	4538.05	3666.9
841.0192	845.2662	4431.85	3561.8
841.1643	847.3175	4414.65	3544.35
841.3095	849.368	4361	3492.95
841.4546	851.4179	4334.35	3464.05
841.5997	853.467	4301.65	3431.85
841.7448	855.5155	4310.55	3438.35
841.8899	857.5633	4291.6	3420
842.0351	859.6105	4271.9	3400.3
842.1802	861.6569	4239.85	3369.35
842.3253	863.7027	4212.35	3344.1
842.4704	865.7478	4190.7	3319.05
842.6156	867.7922	4186.2	3314.65
842.7607	869.8359	4156.65	3286.55
842.9058	871.8789	4161.65	3288.35
843.0509	873.9212	4200.6	3292.6
843.1961	875.9629	4192.8	3321.4
843.3412	878.0039	4219.15	3344.6
843.4863	880.0441	4243.25	3372.85
843.6315	882.0837	4258.55	3386.8
843.7766	884.1226	4305.1	3429.95
843.9218	886.1609	4327.8	3456.35
844.0669	888.1984	4382.45	3508.7
844.212	890.2352	4439.9	3569.05
844.3572	892.2714	4443.85	3567.6
844.5023	894.3069	4435.65	3564.15
844.6475	896.3416	4356.35	3482.75
844.7926	898.3757	4270.55	3397.2
844.9377	900.4091	4258.55	3382.4
845.0829	902.4418	4236.25	3357.2
845.228	904.4739	4244.5	3369.45
845.3732	906.5052	4265.95	3393.2
845.5183	908.5358	4251.15	3377.95
845.6635	910.5658	4216.05	3342
845.8086	912.595	4139	3266.4
845.9538	914.6236	4065.75	3194.05
846.0989	916.6515	4003.45	3129.1
846.2441	918.6786	3987.45	3111.85
846.3892	920.7051	3963.5	3088.1
846.5344	922.7309	3972	3099.5
846.6795	924.756	3967.55	3092.7
846.8246	926.7804	3998.1	3122.85
846.9698	928.8041	3983.3	3105
847.1149	930.8272	4010.65	3134.45
847.2601	932.8495	4010.75	3134.05
847.4052	934.8711	4003.6	3126.2
847.5504	936.892	3998.95	3124.8
847.6955	938.9123	4022.3	3145.8
847.8407	940.9318	4037.4	3162.25
847.9858	942.9506	4052.6	3175.85
848.131	944.9688	4038.6	3162.35
848.2761	946.9862	3987.75	3112.9
848.4213	949.003	3926.35	3051.35
848.5664	951.019	3888.65	3012.15
848.7115	953.0344	3852	2977.3
848.8567	955.0491	3844.9	2967.2
849.0018	957.063	3830.15	2954.7
849.147	959.0763	3841.85	2966.5
849.2921	961.0888	3855.05	2978.25
849.4373	963.1007	3854.75	2977.95
849.5824	965.1119	3852.8	2977.35
849.7275	967.1223	3861.2	2982.5
849.8727	969.1321	3847.65	2973.65
850.0178	971.1412	3829	2951.4
850.1629	973.1495	3804	2925.75
850.3081	975.1572	3829.25	2920.5
850.4532	977.1641	3814.5	2936.7
850.5983	979.1704	3801.85	2925.8
850.7435	981.1759	3789.45	2910.25
850.8886	983.1808	3790.25	2913.6
851.0337	985.1849	3790.75	2905.2
851.1788	987.1884	3788.4	2910.15
851.324	989.1911	3799.85	2922.05
851.4691	991.1932	3810.45	2932.8
851.6142	993.1945	3803.8	2925.3
851.7593	995.1951	3795.4	2916.1
851.9045	997.1951	3805.7	2920.35
852.0496	999.1943	3787.3	2911.75
852.1947	1001.1928	3785.95	2906
852.3398	1003.1906	3802.7	2925.55
852.4849	1005.1877	3818.75	2941.15
852.63	1007.1841	3852.35	2976.15
852.7751	1009.1798	3868.95	2991.75
852.9202	1011.1748	3845.15	2968.3
853.0653	1013.1691	3809.7	2932.05
853.2104	1015.1627	3744.3	2866.8
853.3555	1017.1556	3678.6	2800
853.5006	1019.1477	3648.6	2770.85
853.6457	1021.1392	3597.05	2719.8
853.7908	1023.1299	3593	2713.8
853.9359	1025.12	3591.65	2713.9
854.081	1027.1093	3607.15	2730.35
854.2261	1029.0979	3638.25	2762.25
854.3712	1031.0859	3665.5	2786
854.5163	1033.0731	3650.2	2771.45
854.6613	1035.0596	3663.05	2786.8
854.8064	1037.0454	3635	2756.95
854.9515	1039.0304	3596.2	2718.45
855.0965	1041.0148	3551.35	2673.75
855.2416	1042.9985	3531.75	2653.5
855.3867	1044.9814	3519.25	2641.5
855.5317	1046.9636	3515.8	2636.1
855.6768	1048.9452	3502.05	2626.05
855.8219	1050.926	3512	2635.6
855.9669	1052.9061	3517.4	2639.95
856.112	1054.8855	3526.8	2648.8
856.257	1056.8642	3511.25	2634.5
856.4021	1058.8421	3553.6	2671.25
856.5471	1060.8194	3549.4	2671.4
856.6921	1062.7959	3544.9	2666.3
856.8372	1064.7717	3549.05	2668
856.9822	1066.7469	3576	2696.55
857.1272	1068.7213	3585.45	2701.55
857.2723	1070.695	3622.05	2744.1
857.4173	1072.6679	3633.4	2753.35
857.5623	1074.6402	3662.3	2782.7
857.7073	1076.6117	3649	2766.6
857.8523	1078.5826	3607.5	2726.75
857.9973	1080.5527	3558.5	2676.2
858.1423	1082.5221	3519.15	2638.8
858.2873	1084.4908	3485.75	2608
858.4323	1086.4587	3465.2	2583.5
858.5773	1088.426	3475.8	2593.8
858.7223	1090.3925	3472.45	2589.1
858.8673	1092.3584	3473.35	2593
859.0123	1094.3235	3479.9	2600.9
859.1573	1096.2879	3511.25	2631.45
859.3022	1098.2515	3554.55	2675.6
859.4472	1100.2145	3617.9	2739.8
859.5922	1102.1767	3692.05	2809.6
859.7371	1104.1382	3754.15	2873.7
859.8821	1106.099	3833.7	2955.05
860.027	1108.0591	3897	3016.65
860.172	1110.0185	3978.35	3095.4
860.3169	1111.9771	4003.25	3123.55
860.4619	1113.9351	4053.8	3173.95
860.6068	1115.8923	4060.55	3180.75
860.7517	1117.8488	4054.05	3172.05
860.8967	1119.8045	3943.15	3065.25
861.0416	1121.7596	3861.35	2980.8
861.1865	1123.7139	3764.85	2885.45
861.3314	1125.6675	3738.9	2859.95
861.4763	1127.6204	3725.1	2844.9
861.6212	1129.5726	3719.05	2836.2
861.7661	1131.524	3705.05	2824
861.911	1133.4748	3645.3	2766.5
862.0559	1135.4248	3560	2680.85
862.2008	1137.3741	3485.55	2606.45
862.3457	1139.3226	3451.5	2569.05
862.4905	1141.2705	3440.05	2560.3
862.6354	1143.2176	3427.3	2540.75
862.7803	1145.164	3418.45	2538.3
862.9251	1147.1097	3372.7	2491.8
863.07	1149.0546	3343.55	2463.25
863.2148	1150.9989	3320.7	2441.4
863.3597	1152.9424	3287.25	2407.1
863.5045	1154.8852	3248.8	2369.95
863.6493	1156.8272	3253.05	2372.7
863.7942	1158.7686	3249.05	2363.15
863.939	1160.7092	3255.15	2373.4
864.0838	1162.6491	3257.4	2374.3
864.2286	1164.5883	3301.5	2422.55
864.3734	1166.5267	3329.4	2448.15
864.5182	1168.4644	3364.05	2484.2
864.663	1170.4014	3433.6	2548.85
864.8078	1172.3377	3505.85	2626.3
864.9526	1174.2732	3617.65	2737.8
865.0974	1176.2081	3789.65	2910
865.2421	1178.1421	3971.3	3086.8
865.3869	1180.0755	4156.05	3276.2
865.5317	1182.0082	4262.1	3381.75
865.6764	1183.9401	4266.75	3384.95
865.8212	1185.8713	4163.8	3283.1
865.9659	1187.8017	4023.75	3142.35
866.1106	1189.7315	3866.55	2987.15
866.2554	1191.6605	3741.35	2831.8
866.4001	1193.5888	3623.4	2743.95
866.5448	1195.5163	3563.6	2683.35
866.6895	1197.4432	3516.7	2633.6
866.8342	1199.3693	3505.05	2623.4
866.9789	1201.2947	3475.45	2587.35
867.1236	1203.2193	3478.2	2597.7
867.2683	1205.1432	3457.7	2578.85
867.413	1207.0664	3452.3	2570.65
867.5576	1208.9889	3452.2	2569.2
867.7023	1210.9106	3428.6	2550.5
867.847	1212.8316	3446.55	2568.05
867.9916	1214.7519	3458.75	2567.7
868.1363	1216.6715	3478.9	2598.5
868.2809	1218.5903	3513.3	2633
868.4255	1220.5084	3525.65	2643
868.5701	1222.4257	3564.75	2684.85
868.7148	1224.3424	3592.9	2714.55
868.8594	1226.2583	3645.7	2761.1
869.004	1228.1735	3705.6	2825.6
869.1486	1230.0879	3757.9	2873.85
869.2932	1232.0016	3833.25	2954.45
869.4377	1233.9146	3902.35	3018.8
869.5823	1235.8269	3928.9	3045.95
869.7269	1237.7384	3924.1	3042.45
869.8715	1239.6492	3903.6	3023.4
870.016	1241.5592	3923.05	3040.2
870.1606	1243.4686	3977	3096.2
870.3051	1245.3772	4081.05	3200.15
870.4496	1247.285	4185.05	3304.15
870.5941	1249.1922	4298	3415.3
870.7387	1251.0986	4393	3514.6
870.8832	1253.0042	4481	3597.6
871.0277	1254.9092	4576.15	3693.35
871.1722	1256.8134	4627.05	3746.8
871.3167	1258.7169	4681.55	3801.1
871.4611	1260.6196	4703.7	3822.5
871.6056	1262.5216	4726.5	3843.95
871.7501	1264.4229	4752.75	3871.8
871.8945	1266.3234	4769.85	3889.05
872.039	1268.2232	4771.45	3889
872.1834	1270.1223	4767.4	3885
872.3278	1272.0207	4768.9	3887.1
872.4723	1273.9183	4763.35	3877
872.6167	1275.8151	4744.2	3862.9
872.7611	1277.7113	4776.1	3893.55
872.9055	1279.6067	4866.65	3986.4
873.0499	1281.5014	5031.4	4147.7
873.1943	1283.3953	5240.95	4355.65
873.3386	1285.2885	5477.55	4595.4
873.483	1287.181	5680.7	4797.85
873.6274	1289.0727	5859.4	4977.35
873.7717	1290.9637	5924.45	5040.65
873.9161	1292.854	5944.95	5063.85
874.0604	1294.7435	5877.2	4993.7
874.2047	1296.6323	5790.05	4909.3
874.349	1298.5204	5679.1	4793.9
874.4933	1300.4077	5549.55	4664.2
874.6376	1302.2943	5441.25	4558.7
874.7819	1304.1802	5300.8	4418.9
874.9262	1306.0653	5168.45	4284.6
875.0705	1307.9497	4995.1	4114.3
875.2147	1309.8333	4853.3	3971.55
875.359	1311.7162	4741.85	3860.8
875.5032	1313.5984	4671.9	3787.15
875.6475	1315.4798	4628.95	3735.75
875.7917	1317.3605	4583.45	3683.75
875.9359	1319.2405	4510.4	3627.95
876.0801	1321.1197	4428.1	3543.3
876.2243	1322.9982	4303.35	3417.55
876.3685	1324.876	4169.8	3286.25
876.5127	1326.753	4054.5	3173.05
876.6569	1328.6293	3936.6	3053.95
876.801	1330.5048	3862.35	2978.5
876.9452	1332.3796	3762.1	2881.3
877.0893	1334.2537	3726.45	2818.45
877.2335	1336.127	3647.35	2765.9
877.3776	1337.9996	3614.4	2730.35
877.5217	1339.8714	3589.45	2708.25
877.6658	1341.7426	3609.9	2682.9
877.8099	1343.6129	3579.8	2696.75
877.954	1345.4826	3567.55	2685.4
878.0981	1347.3515	3568.3	2684.8
878.2422	1349.2196	3541	2658.5
878.3862	1351.087	3538.85	2656.45
878.5303	1352.9537	3550.3	2666.85
878.6743	1354.8197	3578.35	2696.6
878.8184	1356.6849	3609	2726.35
878.9624	1358.5493	3652.8	2767.05
879.1064	1360.4131	3712.05	2829.05
879.2504	1362.276	3766.25	2884.75
879.3944	1364.1383	3806.1	2925.45
879.5384	1365.9998	3784.55	2896.25
879.6823	1367.8606	3732	2849.35
879.8263	1369.7206	3634.45	2750
879.9702	1371.5799	3561.55	2677.2
880.1142	1373.4384	3504.3	2620.55
880.2581	1375.2962	3429.8	2544.85
880.402	1377.1533	3329.1	2447.35
880.5459	1379.0096	3215.05	2330.95
880.6898	1380.8652	3125.3	2242.9
880.8337	1382.7201	3042.85	2162.1
880.9776	1384.5742	2980.6	2097.05
881.1215	1386.4275	2932.75	2051.2
881.2653	1388.2802	2880	1998.6
881.4092	1390.132	2854	1970.6
881.553	1391.9832	2834.15	1951.65
881.6968	1393.8336	2810.85	1926.6
881.8406	1395.6832	2789.05	1903
881.9844	1397.5322	2777.3	1895.2
882.1282	1399.3803	2773.8	1885.4
882.272	1401.2278	2749.75	1866.3
882.4158	1403.0745	2745.3	1863.3
882.5595	1404.9204	2719.55	1836.65
882.7033	1406.7656	2719.3	1836.8
882.847	1408.6101	2720.5	1836.45
882.9908	1410.4538	2723.35	1842.3
883.1345	1412.2968	2732.45	1849.55
883.2782	1414.139	2731.45	1848.5
883.4219	1415.9805	2767	1883.05
883.5656	1417.8213	2785.65	1895.25
883.7092	1419.6613	2797.05	1913.55
883.8529	1421.5006	2857.2	1971.25
883.9965	1423.3391	2917.45	2035.45
884.1402	1425.1769	2998.6	2115.4
884.2838	1427.0139	3123.55	2241
884.4274	1428.8502	3278.05	2393.85
884.571	1430.6858	3429.5	2547.45
884.7146	1432.5206	3521.15	2637.95
884.8582	1434.3547	3561.65	2677.9
885.0018	1436.188	3559.9	2677.45
885.1453	1438.0206	3525.15	2639.95
885.2889	1439.8524	3484.9	2599.55
885.4324	1441.6835	3448.4	2564.35
885.5759	1443.5139	3454.25	2566.3
885.7194	1445.3435	3420.2	2536.1
885.8629	1447.1724	3422.5	2541.55
886.0064	1449.0005	3402.45	2518.9
886.1499	1450.8279	3400	2514.2
886.2933	1452.6545	3386.65	2504.65
886.4368	1454.4804	3406.3	2523.4
886.5802	1456.3056	3404.15	2514.3
886.7237	1458.13	3384.4	2501.35
886.8671	1459.9536	3330.3	2447.4
887.0105	1461.7766	3257.55	2375.75
887.1539	1463.5987	3179.75	2294.2
887.2972	1465.4202	3079	2194.6
887.4406	1467.2409	2988.9	2106.5
887.584	1469.0608	2920.05	2037.9
887.7273	1470.88	2856.05	1969.75
887.8706	1472.6984	2789.3	1907.4
888.0139	1474.5161	2754.15	1866.7
888.1572	1476.3331	2700.15	1818.65
888.3005	1478.1493	2687.25	1804.05
888.4438	1479.9648	2649.45	1766
888.5871	1481.7795	2633.9	1751.8
888.7303	1483.5935	2624.75	1744.2
888.8736	1485.4067	2618.65	1735.35
889.0168	1487.2192	2614.1	1729.05
889.16	1489.031	2600.5	1715.65
889.3032	1490.842	2595.35	1714.3
889.4464	1492.6522	2592.35	1710.1
889.5896	1494.4618	2577.5	1693.95
889.7327	1496.2705	2562.35	1679.1
889.8759	1498.0785	2562.85	1681.85
890.019	1499.8858	2544.25	1662.7
890.1622	1501.6924	2529.6	1645.45
890.3053	1503.4981	2509.95	1627.8
890.4484	1505.3032	2506.45	1623.95
890.5914	1507.1075	2509.25	1625.55
890.7345	1508.911	2478.55	1596.25
890.8776	1510.7138	2473	1589.8
891.0206	1512.5159	2447.55	1562.75
891.1637	1514.3172	2430.25	1547.7
891.3067	1516.1178	2428.5	1546.8
891.4497	1517.9176	2420.25	1535.15
891.5927	1519.7166	2408.6	1526.75
891.7357	1521.515	2418.9	1529.6
891.8786	1523.3126	2397.7	1515
892.0216	1525.1094	2382.7	1499.85
892.1645	1526.9055	2362.55	1481.2
892.3074	1528.7008	2367.45	1483.35
892.4503	1530.4954	2360.6	1477.25
892.5932	1532.2893	2354.85	1473.05
892.7361	1534.0824	2352.2	1464
892.879	1535.8747	2348.55	1466.35
893.0218	1537.6663	2348.45	1465.5
893.1647	1539.4572	2353.9	1469.8
893.3075	1541.2473	2356.9	1472.4
893.4503	1543.0367	2343.7	1460.7
893.5931	1544.8253	2361.9	1475.65
893.7359	1546.6132	2372.5	1488.35
893.8787	1548.4003	2379.9	1488.1
894.0214	1550.1867	2402.8	1511.8
894.1642	1551.9723	2422.4	1532.9
894.3069	1553.7572	2457.55	1574.05
894.4496	1555.5414	2494.4	1611.4
894.5923	1557.3247	2550.55	1666.05
894.735	1559.1074	2600.25	1719.2
894.8777	1560.8893	2660.3	1777.5
895.0204	1562.6705	2746.15	1863.8
895.163	1564.4509	2783.75	1899.7
895.3056	1566.2305	2817.5	1936.75
895.4482	1568.0094	2812.9	1931.65
895.5908	1569.7876	2809.55	1926.65
895.7334	1571.565	2817.15	1935.1
895.876	1573.3417	2814.35	1931.35
896.0186	1575.1176	2822.4	1939.6
896.1611	1576.8928	2843.9	1960.05
896.3036	1578.6672	2869.6	1988.15
896.4461	1580.4409	2883.1	2001.5
896.5886	1582.2138	2932.05	2046.65
896.7311	1583.986	2978.05	2096.05
896.8736	1585.7575	3033.2	2151.3
897.0161	1587.5282	3073.1	2193.05
897.1585	1589.2981	3126.85	2243.75
897.3009	1591.0673	3178.9	2297.8
897.4433	1592.8358	3211.85	2328
897.5857	1594.6035	3225.9	2341.3
897.7281	1596.3704	3243.9	2360.85
897.8705	1598.1366	3249.65	2367.65
898.0128	1599.9021	3268	2385
898.1551	1601.6668	3261.35	2375.75
898.2975	1603.4308	3277.4	2393.6
898.4398	1605.194	3324.5	2438.2
898.5821	1606.9564	3380	2498.2
898.7243	1608.7182	3490.45	2603.5
898.8666	1610.4791	3613.2	2732.25
899.0088	1612.2394	3737.65	2855.35
899.1511	1613.9988	3883.15	2999.5
899.2933	1615.7576	4003.3	3123.35
899.4355	1617.5156	4054.25	3165.8
899.5776	1619.2728	4030.6	3147.05
899.7198	1621.0293	3921.7	3040
899.862	1622.785	3803.75	2918.55
900.0041	1624.54	3624.5	2739.95
900.1462	1626.2942	3474.25	2590.25
900.2883	1628.0477	3294	2409.05
900.4304	1629.8005	3155.05	2271.1
900.5725	1631.5525	3029.15	2147.15
900.7145	1633.3037	2924.9	2042.9
900.8566	1635.0542	2838.85	1957.2
900.9986	1636.804	2756.25	1873.2
901.1406	1638.553	2753.35	1818.55
901.2826	1640.3013	2670.25	1787.05
901.4245	1642.0488	2636.95	1754.55
901.5665	1643.7955	2634.45	1753.8
901.7085	1645.5416	2631.4	1748
901.8504	1647.2868	2618.65	1735.35
901.9923	1649.0313	2632.4	1751.5
902.1342	1650.7751	2659.85	1774.7
902.2761	1652.5181	2678.3	1798.5
902.4179	1654.2604	2709.65	1826.25
902.5598	1656.0019	2765.7	1884.2
902.7016	1657.7427	2820.85	1938.35
902.8434	1659.4828	2895.55	2014.45
902.9852	1661.222	2947.95	2062.7
903.127	1662.9606	2970.15	2089.65
903.2687	1664.6984	2932.85	2052.5
903.4105	1666.4354	2847.2	1966.5
903.5522	1668.1717	2715.75	1835.35
903.6939	1669.9072	2582.85	1701.25
903.8356	1671.642	2452.6	1569.6
903.9773	1673.3761	2350.65	1469.5
904.119	1675.1094	2276.3	1396.2
904.2606	1676.8419	2222.55	1340.15
904.4022	1678.5737	2173.25	1290.9
904.5439	1680.3048	2131.85	1251.1
904.6855	1682.0351	2095.85	1214.75
904.827	1683.7646	2079.95	1194.7
904.9686	1685.4934	2056	1174.85
905.1101	1687.2215	2037.25	1158.3
905.2517	1688.9488	2024.95	1145
905.3932	1690.6754	2000.15	1120.25
905.5347	1692.4012	2003.85	1123.8
905.6761	1694.1263	1970.65	1089.7
905.8176	1695.8506	1972	1090
905.9591	1697.5742	1963.4	1082.25
906.1005	1699.297	1956.4	1071.6
906.2419	1701.0191	1936.95	1055.75
906.3833	1702.7404	1933.4	1052.9
906.5246	1704.461	1922.9	1040.75
906.666	1706.1808	1923.65	1042.85
906.8073	1707.8999	1917.5	1035.65
906.9487	1709.6182	1892.95	1011.8
907.09	1711.3358	1892.25	1012.7
907.2313	1713.0527	1884	1002.9
907.3725	1714.7688	1887.7	1000.25
907.5138	1716.4841	1869.45	985.55
907.655	1718.1987	1875.1	988.15
907.7962	1719.9126	1872.55	990.65
907.9374	1721.6257	1851.6	965.15
908.0786	1723.338	1856	973.6
908.2198	1725.0496	1850.2	968.55
908.3609	1726.7605	1853.8	972
908.502	1728.4706	1851.1	967.55
908.6431	1730.18	1849.75	965.45
908.7842	1731.8886	1840.95	960.05
908.9253	1733.5964	1835.2	948.35
909.0664	1735.3036	1828.05	942.95
909.2074	1737.0099	1824.55	944.2
909.3484	1738.7156	1813.95	932.15
909.4894	1740.4204	1820.5	936.55
909.6304	1742.1246	1812.3	928.9
909.7714	1743.8279	1803.1	921.9
909.9123	1745.5306	1800	917.1
910.0532	1747.2325	1794.6	912.9
910.1941	1748.9336	1790.55	908.55
910.335	1750.634	1786.6	904.25
910.4759	1752.3336	1784.5	902.75
910.6168	1754.0325	1771.15	891.2
910.7576	1755.7307	1775.3	893.65
910.8984	1757.4281	1789.7	907.5
911.0392	1759.1247	1785.45	893.65
911.18	1760.8206	1768.9	882.05
911.3208	1762.5158	1778.15	891.35
911.4615	1764.2102	1763.95	885.25
911.6022	1765.9039	1757.15	875.85
911.7429	1767.5968	1756	874.95
911.8836	1769.289	1764.7	882.9
912.0243	1770.9804	1751.35	869
912.1649	1772.6711	1760.15	879.2
912.3056	1774.361	1760.45	877.7
912.4462	1776.0502	1745.25	862.3
912.5868	1777.7386	1746.85	862.55
912.7274	1779.4263	1749.25	865.55
912.8679	1781.1132	1749.2	866.5
913.0084	1782.7994	1738.9	854
913.149	1784.4849	1730.95	849.5
913.2895	1786.1696	1752.75	852.4
913.4299	1787.8535	1738.2	856.95
913.5704	1789.5367	1726.1	843.95
913.7108	1791.2192	1727.7	846.1
913.8513	1792.9009	1734.55	837.9
913.9917	1794.5818	1732.45	850.05
914.132	1796.2621	1721	841.35
914.2724	1797.9415	1712.5	830.4
914.4128	1799.6202	1710.9	831.35
914.5531	1801.2982	1704.5	822.25
914.6934	1802.9755	1714.25	833
914.8337	1804.6519	1713.1	830.5
914.9739	1806.3277	1709.2	828.3
915.1142	1808.0027	1711.65	832.1
915.2544	1809.6769	1710.6	828.35
915.3946	1811.3504	1693	811
915.5348	1813.0231	1690.6	807.55
915.675	1814.6951	1698.75	817.95
915.8151	1816.3664	1700.25	816.3
915.9553	1818.0369	1697.35	815.95
916.0954	1819.7067	1683.15	802.05
916.2355	1821.3757	1692.8	808.75
916.3755	1823.044	1686.25	805.25
916.5156	1824.7115	1675.25	794.3
916.6556	1826.3783	1679.5	796.6
916.7956	1828.0443	1678.2	798.45
916.9356	1829.7096	1675.15	791.9
917.0756	1831.3741	1680.75	797.3
917.2155	1833.0379	1679.1	800.45
917.3555	1834.701	1673.3	786.85
917.4954	1836.3633	1677.25	794.25
917.6353	1838.0248	1669.25	784.9
917.7751	1839.6856	1664.4	784.25
917.915	1841.3457	1670.1	788.4
918.0548	1843.005	1667.9	787.3
918.1946	1844.6636	1674.05	793.95
918.3344	1846.3214	1666.15	785.15
918.4742	1847.9785	1658.3	778
918.6139	1849.6349	1658.95	775.35
918.7537	1851.2904	1668.35	780.2
918.8934	1852.9453	1654.55	773.8
919.0331	1854.5994	1653.05	768.65
919.1727	1856.2528	1659.25	770.85
919.3124	1857.9054	1651	768.85
919.452	1859.5572	1650.1	767.4
919.5916	1861.2083	1643.8	763.9
919.7312	1862.8587	1645.55	762.6
919.8708	1864.5084	1646.3	764.2
920.0103	1866.1572	1638.25	757.2
920.1498	1867.8054	1635.05	754.1
920.2893	1869.4528	1639	757.8
920.4288	1871.0994	1630.7	748.45
920.5683	1872.7453	1630.65	749.95
920.7077	1874.3905	1651.35	752.45
920.8471	1876.0349	1635.8	751.35
920.9865	1877.6786	1634.2	749.8
921.1259	1879.3215	1623.2	743.3
921.2653	1880.9637	1623.55	737.85
921.4046	1882.6051	1625.2	746.15
921.5439	1884.2458	1613.9	729.35
921.6832	1885.8858	1622.15	738.4
921.8225	1887.525	1615.45	734
921.9617	1889.1634	1617.7	736.25
922.101	1890.8011	1613.95	731.6
922.2402	1892.4381	1606.25	726.35
922.3794	1894.0743	1611.65	730
922.5185	1895.7098	1612.05	732.45
922.6577	1897.3446	1605.1	722.9
922.7968	1898.9786	1607.15	724.4
922.9359	1900.6118	1599.55	720.95
923.075	1902.2443	1595.55	711.9
923.214	1903.8761	1598.65	716.45
923.3531	1905.5071	1599	716.25
923.4921	1907.1374	1589.05	708.05
923.6311	1908.7669	1587.5	705.25
923.77	1910.3957	1585.3	704
923.909	1912.0237	1583.35	702
924.0479	1913.651	1584.75	702.3
924.1868	1915.2776	1578.85	698.8
924.3257	1916.9034	1577.85	698.65
924.4646	1918.5285	1573.25	694
924.6034	1920.1528	1567.55	685.4
924.7422	1921.7764	1579.05	699.5
924.881	1923.3992	1566.75	686
925.0198	1925.0213	1559.3	678.05
925.1586	1926.6427	1561.15	679.15
925.2973	1928.2633	1664.7	678.65
925.436	1929.8832	1558.2	676
925.5747	1931.5023	1549.9	668.75
925.7134	1933.1207	1549.05	667.6
925.852	1934.7383	1550.35	667.85
925.9906	1936.3552	1548.6	669.45
926.1292	1937.9714	1551.55	668.9
926.2678	1939.5868	1547.35	663.4
926.4064	1941.2015	1546.55	666.8
926.5449	1942.8154	1537.8	656.95
926.6834	1944.4286	1539.25	656.35
926.8219	1946.041	1553.4	648.15
926.9604	1947.6528	1540.9	654.5
927.0988	1949.2637	1530.65	651.1
927.2372	1950.8739	1530.45	647.95
927.3756	1952.4834	1524.45	642.6
927.514	1954.0921	1535.25	652.3
927.6523	1955.7001	1533.9	648.15
927.7907	1957.3074	1524.5	643.4
927.929	1958.9139	1515.3	633.9
928.0673	1960.5197	1519.3	636.9
928.2055	1962.1247	1506.75	626.55
928.3438	1963.729	1514.85	633.75
928.482	1965.3325	1531.15	626.45
928.6202	1966.9353	1511.3	631.2
928.7584	1968.5374	1512.65	630.75
928.8965	1970.1387	1507.75	626.2
929.0346	1971.7393	1510.15	629.5
929.1727	1973.3392	1498.8	617.05
929.3108	1974.9383	1496.05	615.1
929.4489	1976.5366	1488.95	605.6
929.5869	1978.1342	1496.4	615.55
929.7249	1979.7311	1493.1	610.2
929.8629	1981.3273	1490.1	606.75
930.0009	1982.9227	1492.85	610.7
930.1388	1984.5173	1488.95	608
930.2767	1986.1112	1486.45	602.95
930.4146	1987.7044	1481.05	599.65
930.5525	1989.2968	1479.75	595.95
930.6904	1990.8885	1489.45	605.8
930.8282	1992.4795	1483.45	599.85
930.966	1994.0697	1475.85	595.15
931.1038	1995.6592	1471.4	590.8
931.2415	1997.2479	1482.4	600.2
931.3793	1998.8359	1467.5	584.25
931.517	2000.4232	1470.4	588.7
931.6547	2002.0097	1466.55	586.05
931.7923	2003.5955	1460.85	577.5
931.93	2005.1805	1468.5	584
932.0676	2006.7648	1460.95	580.25
932.2052	2008.3484	1461.4	578.95
932.3427	2009.9312	1466.1	582.5
932.4803	2011.5133	1463.2	581.4
932.6178	2013.0946	1460.8	580.85
932.7553	2014.6752	1462.15	582.9
932.8928	2016.2551	1445.75	562.15
933.0302	2017.8342	1449.8	568.05
933.1676	2019.4126	1443.7	562.6
933.305	2020.9902	1442	562.85
933.4424	2022.5672	1449.7	564.85
933.5798	2024.1433	1448.15	561.5
933.7171	2025.7188	1445.55	565.75
933.8544	2027.2935	1439.8	554.95
933.9917	2028.8674	1437.15	555.35
934.129	2030.4406	1446.05	564.9
934.2662	2032.0131	1436.6	554.55
934.4034	2033.5849	1444.65	558.2
934.5406	2035.1559	1435.35	553.4
934.6778	2036.7261	1432.55	551.8
934.8149	2038.2957	1429.95	547.2
934.952	2039.8645	1439.4	558.9
935.0891	2041.4325	1426.6	544.15
935.2262	2042.9998	1425.3	545
935.3632	2044.5664	1428.6	544.1
935.5002	2046.1323	1424.95	542.9
935.6372	2047.6974	1414.4	532.6
935.7742	2049.2617	1420.05	538.4
935.9111	2050.8254	1453.45	538.75
936.048	2052.3883	1421.2	538.55
936.1849	2053.9504	1415.8	533.15
936.3218	2055.5118	1414.4	530.4
936.4586	2057.0725	1421.2	534.95
936.5955	2058.6325	1407.3	525.45
936.7323	2060.1917	1414.2	533.7
936.869	2061.7502	1412.45	527.65
937.0058	2063.3079	1405.7	522.8
937.1425	2064.8649	1407.3	521.55
937.2792	2066.4212	1399.9	517.65
937.4159	2067.9767	1403.55	522.95
937.5525	2069.5315	1399.6	518.05
937.6891	2071.0856	1402.25	518.7
937.8257	2072.6389	1397.2	514.35
937.9623	2074.1915	1397.5	517.7
938.0989	2075.7433	1387.4	503.9
938.2354	2077.2945	1391.1	512.25
938.3719	2078.8448	1388.55	507.05
938.5084	2080.3945	1389.9	508.15
938.6448	2081.9434	1392.55	510.55
938.7812	2083.4916	1391.65	508.8
938.9176	2085.039	1385.35	504.4
939.054	2086.5857	1388.65	506.9
939.1903	2088.1317	1390.25	508.05
939.3267	2089.677	1387.1	506.75
939.463	2091.2215	1379.45	498.6
939.5992	2092.7652	1373.6	491.9
939.7355	2094.3083	1376.75	496.2
939.8717	2095.8506	1368.5	486.7
940.0079	2097.3921	1376.65	494.9
940.1441	2098.933	1374.05	492.6
940.2802	2100.4731	1370.8	489.15
940.4163	2102.0124	1387.3	487.8
940.5524	2103.5511	1368.9	489.85
940.6885	2105.089	1372.35	490.7
940.8245	2106.6261	1375.15	491.6
940.9606	2108.1626	1377.5	495.05
941.0965	2109.6983	1388.55	477.75
941.2325	2111.2332	1366.35	483.3
941.3684	2112.7675	1363.6	481.1
941.5044	2114.301	1362.65	478.5
941.6403	2115.8337	1365.5	484.65
941.7761	2117.3657	1359.65	477.05
941.912	2118.897	1360.3	477.1
942.0478	2120.4276	1363.95	477.7
942.1835	2121.9575	1358.3	477.65
942.3193	2123.4866	1368.65	470.65
942.455	2125.0149	1357.5	473.25
942.5907	2126.5426	1355.7	474.9
942.7264	2128.0695	1354.25	468.3
942.8621	2129.5956	1345	463.55
942.9977	2131.1211	1354.15	466.1
943.1333	2132.6458	1345.2	463.65
943.2689	2134.1698	1345.2	459.35
943.4044	2135.693	1346.25	465.35
943.54	2137.2155	1349	465.05
943.6755	2138.7373	1345.75	463.1
943.8109	2140.2584	1338.2	458.35
943.9464	2141.7787	1343.8	457.05
944.0818	2143.2983	1340.5	458.25
944.2172	2144.8171	1335.1	454.55
944.3526	2146.3353	1341.7	459
944.4879	2147.8527	1331.55	449.1
944.6232	2149.3693	1332.7	450.7
944.7585	2150.8853	1331.35	450.3
944.8938	2152.4005	1326.55	443.45
945.029	2153.9149	1334.1	453
945.1642	2155.4287	1333.15	452.2
945.2994	2156.9417	1334.15	451.25
945.4346	2158.454	1330.85	447
945.5697	2159.9655	1329.45	446.45
945.7048	2161.4764	1325.05	443.8
945.8399	2162.9865	1321.25	437.15
945.9749	2164.4958	1327.65	443.75
946.1099	2166.0045	1320.1	434.6
946.2449	2167.5124	1321.5	438.85
946.3799	2169.0195	1318.8	437.65
946.5148	2170.526	1313.4	431.35
946.6498	2172.0317	1317	435.75
946.7846	2173.5367	1313.3	431.5
946.9195	2175.0409	1314.6	434.05
947.0543	2176.5445	1311.9	430.85
947.1891	2178.0473	1313.15	433.1
947.3239	2179.5494	1322	437.15
947.4587	2181.0507	1309.55	426.7
947.5934	2182.5513	1308.8	427.8
947.7281	2184.0512	1311.3	429.05
947.8628	2185.5504	1308.05	427.05
947.9974	2187.0488	1299.15	417.35
948.132	2188.5465	1298.25	414.95
948.2666	2190.0435	1306.6	424.4
948.4012	2191.5397	1308.5	427.05
948.5357	2193.0353	1298.35	415.3
948.6702	2194.5301	1300.35	418.7
948.8047	2196.0241	1298.85	417.55
948.9392	2197.5175	1297.15	416.95
949.0736	2199.0101	1294.3	408.9
949.208	2200.502	1290	409.85
949.3424	2201.9931	1295.8	414.65
949.4767	2203.4835	1292.6	409.25
949.611	2204.9733	1293.6	404.55
949.7453	2206.4622	1282.6	399.8
949.8796	2207.9505	1293.25	407.15
950.0138	2209.438	1282.7	399.85
950.148	2210.9248	1280.05	395
950.2822	2212.4109	1276.65	396.15
950.4164	2213.8962	1280	395.35
950.5505	2215.3809	1277.7	396.15
950.6846	2216.8648	1277.3	396.5
950.8186	2218.3479	1278.65	392.25
950.9527	2219.8304	1278.3	395.45
951.0867	2221.3121	1277.85	392.8
951.2207	2222.7931	1270.7	390
951.3546	2224.2733	1268.65	385.8
951.4886	2225.7529	1271.15	388.2
951.6225	2227.2317	1271.65	384
951.7563	2228.7098	1270.1	387.15
951.8902	2230.1872	1259.25	378.05
952.024	2231.6638	1271.95	390.95
952.1578	2233.1397	1267.9	382.65
952.2916	2234.6149	1266.45	386.35
952.4253	2236.0894	1260.3	378.55
952.559	2237.5632	1269.75	377.8
952.6927	2239.0362	1255.95	374.7
952.8263	2240.5085	1257	376.4
952.9599	2241.9801	1259.15	375.8
953.0935	2243.4509	1249.2	367.25
953.2271	2244.921	1253.35	370
953.3606	2246.3904	1249.25	363
953.4941	2247.8591	1252.9	371.85
953.6276	2249.3271	1252.45	370.95
953.7611	2250.7943	1246.7	363.15
953.8945	2252.2608	1248	365.2
954.0279	2253.7266	1250.15	368
954.1612	2255.1917	1247.65	365.05
954.2946	2256.656	1245.25	361.2
954.4279	2258.1197	1241.75	358.95
954.5612	2259.5826	1237.65	353.1
954.6944	2261.0447	1243.9	361.5
954.8276	2262.5062	1237.55	355.25
954.9608	2263.9669	1244.15	360.15
955.094	2265.4269	1238.95	356.95
955.2271	2266.8862	1241	357.75
955.3602	2268.3448	1239.3	355.05
955.4933	2269.8026	1234.2	351.85
955.6264	2271.2598	1235.3	352.1
955.7594	2272.7162	1228.7	349.3
955.8924	2274.1719	1236.35	353.8
956.0253	2275.6268	1228	346.1
956.1583	2277.0811	1231.15	349.3
956.2912	2278.5346	1229.5	347.55
956.4241	2279.9874	1233.4	350.85
956.5569	2281.4395	1232.95	350.45
956.6897	2282.8908	1233.6	346.2
956.8225	2284.3414	1231.25	346.55
956.9553	2285.7914	1224.55	343.15
957.088	2287.2406	1231	346.55
957.2207	2288.689	1227.4	344.5
957.3534	2290.1368	1222	339.7
957.486	2291.5838	1228.45	345.65
957.6186	2293.0302	1220.8	337.5
957.7512	2294.4758	1215.5	333.9
957.8838	2295.9206	1227.25	343.55
958.0163	2297.3648	1221.45	337.9
958.1488	2298.8082	1217.1	332.2
958.2813	2300.251	1216.95	335.15
958.4137	2301.693	1217.1	333.05
958.5461	2303.1343	1216.85	333.3
958.6785	2304.5748	1214.9	331.55
958.8108	2306.0147	1213.3	331.9
958.9432	2307.4538	1216.8	331.55
959.0754	2308.8922	1211.4	330.95
959.2077	2310.3299	1211.85	330.05
959.3399	2311.7669	1210.75	328
959.4721	2313.2031	1210.15	327.1
959.6043	2314.6387	1207.5	326
959.7365	2316.0735	1203.7	322.5
959.8686	2317.5076	1211.65	328
960.0006	2318.941	1211.3	328.8
960.1327	2320.3737	1209.5	327.05
960.2647	2321.8056	1206.9	322.25
960.3967	2323.2369	1206.9	323.1
960.5287	2324.6674	1209.9	326.55
960.6606	2326.0972	1207.85	324.05
960.7925	2327.5263	1204	321.85
960.9244	2328.9547	1209.1	327.2
961.0562	2330.3823	1206	324.65
961.1881	2331.8092	1202.6	317.4
961.3198	2333.2355	1195.9	313.1
961.4516	2334.661	1196.3	316.6
961.5833	2336.0858	1198.95	313.85
961.715	2337.5098	1197.6	315
961.8467	2338.9332	1191.75	309.3
961.9783	2340.3558	1195.3	308.95
962.1099	2341.7778	1189.25	306.9
962.2415	2343.199	1195.8	313.1
962.373	2344.6195	1188.35	308.1
962.5045	2346.0393	1187.2	305.45
962.636	2347.4583	1190.25	307.5
962.7675	2348.8767	1189.05	305.3
962.8989	2350.2943	1180.9	297.9
963.0303	2351.7113	1187.15	304.15
963.1617	2353.1275	1185.8	304.85
963.293	2354.543	1206.8	300.95
963.4243	2355.9578	1187.95	305.55
963.5556	2357.3718	1185.95	304.3
963.6868	2358.7852	1191.6	306.65
963.818	2360.1978	1183.1	300.35
963.9492	2361.6098	1187.05	306.55
964.0803	2363.021	1189.3	302.25
964.2114	2364.4315	1181.45	300.25
964.3425	2365.8413	1181.3	297.55
964.4736	2367.2504	1173.5	292.95
964.6046	2368.6587	1176.35	293.4
964.7356	2370.0664	1169.5	289.8
964.8666	2371.4733	1171.75	289.2
964.9975	2372.8795	1175.35	294
965.1284	2374.285	1168.35	288.2
965.2593	2375.6899	1175.3	297.2
965.3901	2377.0939	1176.1	294.45
965.5209	2378.4973	1165.9	286
965.6517	2379.9	1168.75	287.05
965.7825	2381.3019	1166.1	284.7
965.9132	2382.7032	1171.8	289.25
966.0439	2384.1037	1167.95	286.1
966.1745	2385.5035	1165.95	284.55
966.3051	2386.9027	1162	279.85
966.4357	2388.3011	1168.3	283.65
966.5663	2389.6987	1161.75	281.25
966.6968	2391.0957	1164.25	283.5
966.8273	2392.492	1157.55	275.3
966.9578	2393.8876	1159.7	277.35
967.0882	2395.2824	1155.05	272.5
967.2186	2396.6765	1158.4	279.2
967.349	2398.07	1153.65	272.2
967.4793	2399.4627	1152.45	271.65
967.6097	2400.8547	1154.8	271.8
967.7399	2402.246	1161.35	273.6
967.8702	2403.6366	1149.35	266.7
968.0004	2405.0265	1149.65	268.1
968.1306	2406.4156	1152.95	266.45
968.2607	2407.8041	1147.6	262.45
968.3909	2409.1918	1155.35	272.5
968.521	2410.5789	1149.05	269.8
968.651	2411.9652	1150.15	266.7
968.781	2413.3508	1145.1	263.8
968.911	2414.7358	1143.9	261.45
969.041	2416.12	1144.45	261.3
969.1709	2417.5035	1149.6	267.75
969.3008	2418.8863	1149.85	268.6
969.4307	2420.2684	1148.3	267.1
969.5606	2421.6497	1142.65	260.6
969.6904	2423.0304	1137.1	257.95
969.8201	2424.4104	1141.1	259.6
969.9499	2425.7896	1146.95	258.85
970.0796	2427.1682	1138.2	256.05
970.2093	2428.546	1136.8	253.25
970.3389	2429.9232	1136.45	252.3
970.4685	2431.2996	1138.55	258.45
970.5981	2432.6753	1135.45	255.05
970.7277	2434.0503	1137.95	257.25
970.8572	2435.4246	1136.5	255.15
970.9867	2436.7982	1136.55	252.3
971.1161	2438.1711	1130.7	250.8
971.2456	2439.5433	1136.6	253.55
971.375	2440.9148	1140.15	252.95
971.5043	2442.2856	1127.35	246
971.6336	2443.6557	1127.2	245.8
971.7629	2445.025	1130.95	246.75
971.8922	2446.3937	1126.85	244.95
972.0214	2447.7617	1127.65	244.55
972.1506	2449.1289	1125.5	242.9
972.2798	2450.4955	1131.8	247.25
972.4089	2451.8613	1124.45	246.25
972.538	2453.2265	1122.4	241.35
972.6671	2454.5909	1122.45	239.6
972.7961	2455.9546	1122.75	242.4
972.9251	2457.3177	1121.95	240.45
973.0541	2458.68	1121.45	237.8
973.1831	2460.0416	1119.2	237.05
973.312	2461.4025	1119.75	235.8
973.4408	2462.7627	1132.65	239.8
973.5697	2464.1222	1121.05	239.6
973.6985	2465.4811	1119.4	237.35
973.8273	2466.8392	1122.3	240.1
973.956	2468.1966	1125.15	239.85
974.0847	2469.5533	1125.95	242
974.2134	2470.9093	1124.4	241.15
974.3421	2472.2645	1119.6	236.45
974.4707	2473.6191	1122.35	239.6
974.5993	2474.973	1115.25	233.05
974.7278	2476.3262	1121.5	235.55
974.8563	2477.6787	1113.7	231.2
974.9848	2479.0305	1114	233.65
975.1132	2480.3816	1114.4	229.35
975.2417	2481.7319	1115.3	234.7
975.37	2483.0816	1113.25	229.1
975.4984	2484.4306	1109.65	226.55
975.6267	2485.7789	1111	231.15
975.755	2487.1264	1117.45	234.1
975.8833	2488.4733	1111.5	231.7
976.0115	2489.8195	1128.2	228.8
976.1397	2491.165	1114.8	229.5
976.2678	2492.5097	1106.35	220.45
976.3959	2493.8538	1109.8	228.85
976.524	2495.1972	1110.95	227.4
976.6521	2496.5398	1106.9	226.2
976.7801	2497.8818	1106.05	224.2
976.9081	2499.2231	1104.45	222.05
977.036	2500.5637	1104.2	221.65
977.164	2501.9035	1106.9	223.9
977.2918	2503.2427	1109	221.95
977.4197	2504.5812	1101.7	219.55
977.5475	2505.919	1107.8	223.05
977.6753	2507.256	1102.45	221.45
977.8031	2508.5924	1099.95	217.65
977.9308	2509.9281	1101.85	214
978.0585	2511.2631	1099.95	218.6
978.1861	2512.5974	1098.3	216.2
978.3137	2513.9309	1096	213.75
978.4413	2515.2638	1126	213.7
978.5689	2516.596	1097.85	216.8
978.6964	2517.9275	1102.4	218.85
978.8239	2519.2583	1095.65	212.55
978.9513	2520.5884	1098.6	215.1
979.0788	2521.9178	1093.2	209.05
979.2062	2523.2465	1097.4	216
979.3335	2524.5745	1091.45	211.4
979.4608	2525.9018	1093.45	212
979.5881	2527.2284	1087.65	207.5
979.7154	2528.5543	1085.6	204.7
979.8426	2529.8796	1089.2	205.95
979.9698	2531.2041	1087.35	207.55
980.0969	2532.5279	1089.55	208.1
980.224	2533.851	1089.95	209
980.3511	2535.1735	1089.55	207.5
980.4781	2536.4952	1089.05	207.25
980.6052	2537.8163	1088.45	206.4
980.7321	2539.1366	1086.85	205.35
980.8591	2540.4562	1090.9	207.6
980.986	2541.7752	1088.5	207.7
981.1129	2543.0935	1089.25	207.45
981.2397	2544.411	1084.9	201.35
981.3665	2545.7279	1092.85	211.45
981.4933	2547.0441	1081.6	200.4
981.62	2548.3596	1082.4	199.25
981.7467	2549.6744	1086.7	206.3
981.8734	2550.9885	1091.3	200.45
982.0001	2552.3019	1083.35	203.5
982.1267	2553.6146	1090.8	207.65
982.2532	2554.9266	1086.3	204.85
982.3798	2556.2379	1082.85	200.05
982.5063	2557.5485	1082.45	202.25
982.6327	2558.8585	1092.15	202.25
982.7592	2560.1677	1084.2	197.6
982.8856	2561.4762	1083.1	200.75
983.0119	2562.7841	1084.6	198
983.1383	2564.0913	1076.2	195.9
983.2646	2565.3977	1081.35	197.05
983.3908	2566.7035	1080.55	198.05
983.517	2568.0086	1082.4	198.25
983.6432	2569.313	1076.65	195.15
983.7694	2570.6167	1083.25	200.85
983.8955	2571.9197	1078.65	197.15
984.0216	2573.222	1079.2	195.5
984.1476	2574.5236	1080.9	198.75
984.2737	2575.8246	1080.85	196
984.3996	2577.1248	1083.25	200.7
984.5256	2578.4244	1079.95	199.15
984.6515	2579.7232	1079.4	199
984.7774	2581.0214	1113.8	200.75
984.9032	2582.3189	1073.85	191.75
985.029	2583.6157	1080.85	194.8
985.1548	2584.9118	1076.7	193.5
985.2806	2586.2072	1079.5	198.3
985.4063	2587.5019	1078.45	198.15
985.5319	2588.7959	1080.2	197.8
985.6576	2590.0893	1085.15	202.8
985.7832	2591.3819	1074.1	191.75
985.9087	2592.6739	1073.3	192.65
986.0343	2593.9652	1082.25	198.4
986.1597	2595.2557	1074.05	192.2
986.2852	2596.5456	1079.45	196.2
986.4106	2597.8348	1076.6	195.55
986.536	2599.1234	1076.6	196.5
986.6614	2600.4112	1076	193.5
986.7867	2601.6983	1079.65	194.8
986.912	2602.9848	1076.95	196.4
987.0372	2604.2705	1086.2	197.45
987.1624	2605.5556	1078.55	198.6
987.2876	2606.84	1076.1	193.55
987.4128	2608.1237	1079.6	197.1
987.5379	2609.4067	1075.85	197.55
987.6629	2610.689	1081.25	189.65
987.788	2611.9707	1076.3	191.5
987.913	2613.2516	1073.1	186.15
988.0379	2614.5319	1066	185.7
988.1629	2615.8115	1065.15	184.3
988.2878	2617.0903	1073.55	189.25
988.4126	2618.3685	1066.65	185.05
988.5375	2619.6461	1067.25	185.45
988.6622	2620.9229	1061.5	183.7
988.787	2622.199	1065.45	182.65
988.9117	2623.4745	1068.25	185.5
989.0364	2624.7493	1068.5	186.7
989.161	2626.0234	1063.3	181.85
989.2857	2627.2968	1066.8	184.6
989.4102	2628.5695	1060.45	177.6
989.5348	2629.8415	1061.35	180.35
989.6593	2631.1128	1058.25	176.4
989.7837	2632.3835	1060.5	180.05
989.9082	2633.6535	1060.15	179
990.0326	2634.9228	1056.35	175.5
990.1569	2636.1914	1060.45	179.3
990.2812	2637.4593	1060.5	176.65
990.4055	2638.7265	1059.65	176.7
990.5298	2639.9931	1055.85	175.5
990.654	2641.259	1054.75	172.75
990.7782	2642.5242	1058.7	177.25
990.9023	2643.7887	1054.05	172.15
991.0264	2645.0525	1059.45	177.9
991.1505	2646.3156	1055.1	172.85
991.2745	2647.5781	1057.1	175.65
991.3985	2648.8398	1053.35	172
991.5225	2650.1009	1091.8	172.05
991.6464	2651.3613	1052.55	170.05
991.7703	2652.6211	1054.3	172.1
991.8942	2653.8801	1050.05	168.65
992.018	2655.1385	1057	172.65
992.1418	2656.3961	1046.55	165.5
992.2655	2657.6531	1052.7	171.05
992.3892	2658.9094	1054.9	172.2
992.5129	2660.1651	1051.75	171.25
992.6366	2661.42	1049.4	168.6
992.7602	2662.6743	1052.7	167.3
992.8837	2663.9279	1050.85	171.2
993.0073	2665.1808	1052.35	170.5
993.1307	2666.433	1055.4	171.75
993.2542	2667.6846	1052.5	172.2
993.3776	2668.9354	1058.95	172.2
993.501	2670.1856	1050.5	169.6
993.6244	2671.4351	1055.3	174.3
993.7477	2672.6839	1058.95	174
993.8709	2673.9321	1054.75	173.55
993.9942	2675.1795	1056.55	174.15
994.1174	2676.4263	1060.25	179.95
994.2405	2677.6724	1056	175
994.3637	2678.9179	1058.3	175
994.4868	2680.1626	1057.85	177.95
994.6098	2681.4067	1057.9	176.45
994.7328	2682.6501	1055.3	173.8
994.8558	2683.8928	1054.3	172.85
994.9788	2685.1348	1053.55	172.2
995.1017	2686.3761	1048.65	168
995.2245	2687.6168	1049.7	167.7
995.3474	2688.8568	1048.25	167.35
995.4702	2690.0961	1050.6	170.55
995.5929	2691.3348	1047.95	165.7
995.7156	2692.5727	1047.25	164.55
995.8383	2693.81	1047.95	165
995.961	2695.0466	1047.4	167.75
996.0836	2696.2826	1050.25	167.3
996.2062	2697.5178	1049.25	163.15
996.3287	2698.7524	1047.4	166.9
996.4512	2699.9863	1047.1	162.7
996.5737	2701.2195	1044	165.75
996.6961	2702.452	1050.25	166.95
996.8185	2703.6839	1050.1	166.5
996.9408	2704.9151	1053.2	172.75
997.0631	2706.1456	1047.55	165.5
997.1854	2707.3755	1051.6	170.3
997.3077	2708.6046	1052.8	168.75
997.4299	2709.8331	1059	177.35
997.552	2711.0609	1057.6	174.3
997.6742	2712.2881	1058.35	176.85
997.7963	2713.5145	1060.1	176.9
997.9183	2714.7403	1061.1	180.15
998.0403	2715.9654	1064.35	181.6
998.1623	2717.1899	1082.65	187.55
998.2842	2718.4136	1071.5	189.45
998.4062	2719.6367	1070.05	188.5
998.528	2720.8591	1079.4	190.15
998.6498	2722.0809	1074.8	192.45
998.7716	2723.3019	1079.35	193.9
998.8934	2724.5223	1085.1	202
999.0151	2725.7421	1084.25	200.45
999.1368	2726.9611	1088.4	206.25
999.2584	2728.1795	1084.2	197.45
999.38	2729.3972	1078.35	196.8
999.5016	2730.6142	1088.25	194.95
999.6231	2731.8306	1074.45	190.1
999.7446	2733.0462	1072.4	188.65
999.8661	2734.2612	1069.35	181
999.9875	2735.4756	1061.75	179.8
1000.1089	2736.6892	1058.7	177.7
1000.2302	2737.9022	1051.45	173.4
1000.3515	2739.1145	1054.85	173.2
1000.4728	2740.3262	1059.1	169.1
1000.594	2741.5372	1048.6	168.1
1000.7152	2742.7475	1043.85	164.4
1000.8363	2743.9571	1043.25	159.6
1000.9575	2745.1661	1041.85	157.05
1001.0785	2746.3744	1038.95	156.95
1001.1996	2747.582	1032.7	151.45
1001.3206	2748.7889	1037.5	154.95
1001.4415	2749.9952	1035.55	153.55
1001.5625	2751.2008	1030.65	149.05
1001.6833	2752.4057	1027.55	143.2
1001.8042	2753.61	1027.35	145.45
1001.925	2754.8136	1027	143.95
1002.0458	2756.0165	1027.05	144.5
1002.1665	2757.2188	1026	145.35
1002.2872	2758.4204	1026.3	144.55
1002.4078	2759.6213	1027.5	143.55
1002.5285	2760.8215	1036.05	147.85
1002.649	2762.0211	1029.1	146.3
1002.7696	2763.22	1031.05	147.5
1002.8901	2764.4182	1027.65	143.75
1003.0106	2765.6158	1026.85	144.3
1003.131	2766.8127	1022.9	140.8
1003.2514	2768.009	1022.75	141.9
1003.3717	2769.2045	1022.75	140.55
1003.492	2770.3994	1024.75	140.5
1003.6123	2771.5936	1024.5	141.9
1003.7325	2772.7872	1021	142.7
1003.8527	2773.9801	1017.55	132.7
1003.9729	2775.1723	1037.55	139.05
1004.093	2776.3639	1015.95	134.65
1004.2131	2777.5548	1021.25	137.15
1004.3331	2778.745	1021.2	138.2
1004.4531	2779.9346	1016	132.9
1004.5731	2781.1235	1016.25	132.15
1004.693	2782.3117	1020.65	137.7
1004.8129	2783.4992	1018.3	136.15
1004.9328	2784.6861	1016.45	135.5
1005.0526	2785.8723	1018.85	134.8
1005.1723	2787.0579	1019.55	138.25
1005.2921	2788.2428	1021.2	137.55
1005.4118	2789.427	1020.8	140.75
1005.5314	2790.6106	1016.2	134
1005.651	2791.7935	1025.35	142.45
1005.7706	2792.9757	1020.6	140.7
1005.8902	2794.1573	1029.1	145.2
1006.0097	2795.3382	1027.7	148.25
1006.1291	2796.5184	1026.8	147
1006.2485	2797.698	1032.45	147.2
1006.3679	2798.8769	1033.05	153.15
1006.4873	2800.0551	1034.05	150.6
1006.6066	2801.2327	1038.75	156.15
1006.7258	2802.4096	1041.05	160.25
1006.8451	2803.5859	1040.1	157.5
1006.9642	2804.7615	1043.8	161.35
1007.0834	2805.9364	1050.05	168.55
1007.2025	2807.1106	1049.05	166.35
1007.3216	2808.2842	1050.7	169
1007.4406	2809.4572	1063.3	180.35
1007.5596	2810.6294	1071.25	188.55
1007.6785	2811.801	1077.2	196.6
1007.7975	2812.972	1089.7	206.95
1007.9163	2814.1423	1093.7	210.85
1008.0352	2815.3119	1101.4	220.9
1008.154	2816.4808	1106.35	225.9
1008.2727	2817.6491	1122.2	239.1
1008.3914	2818.8167	1130.7	249.75
1008.5101	2819.9837	1158.3	274.2
1008.6288	2821.15	1164.85	281.65
1008.7474	2822.3157	1178.45	299.25
1008.8659	2823.4807	1195.65	314.9
1008.9844	2824.645	1213.55	329.95
1009.1029	2825.8086	1228.05	346.4
1009.2214	2826.9716	1243.35	362.2
1009.3398	2828.134	1264.1	382.45
1009.4581	2829.2957	1277.95	395.85
1009.5764	2830.4567	1282.1	400.65
1009.6947	2831.617	1294.95	412
1009.813	2832.7767	1297.25	417.15
1009.9312	2833.9358	1298.2	419.2
1010.0493	2835.0941	1293.3	410.7
1010.1675	2836.2519	1283.9	402.2
1010.2855	2837.4089	1285.9	405.3
1010.4036	2838.5653	1281.35	399.7
1010.5216	2839.7211	1274.4	393.65
1010.6396	2840.8761	1262.2	380.8
1010.7575	2842.0306	1269.25	387.15
1010.8754	2843.1843	1270.45	388.4
1010.9932	2844.3374	1278.05	396.05
1011.111	2845.4899	1287.4	405.9
1011.2288	2846.6417	1291	409.3
1011.3465	2847.7928	1309.2	428.1
1011.4642	2848.9433	1316.9	435.9
1011.5818	2850.0931	1331.85	449.45
1011.6995	2851.2422	1348.35	466.1
1011.817	2852.3907	1354.55	472.5
1011.9345	2853.5385	1365.2	480.85
1012.052	2854.6857	1403.15	494.7
1012.1695	2855.8323	1382.45	504
1012.2869	2856.9781	1405.55	522.5
1012.4042	2858.1233	1399.8	517.9
1012.5216	2859.2679	1416.9	533.05
1012.6389	2860.4118	1433.95	551.9
1012.7561	2861.555	1445.75	559
1012.8733	2862.6976	1458.25	574.7
1012.9905	2863.8395	1466.8	585.75
1013.1076	2864.9808	1467.15	587.7
1013.2247	2866.1214	1471.95	590.5
1013.3417	2867.2614	1475.3	595.25
1013.4587	2868.4007	1480.7	597
1013.5757	2869.5393	1488.55	606.75
1013.6926	2870.6773	1492.5	608.8
1013.8095	2871.8146	1497.5	615
1013.9263	2872.9513	1502.9	618.1
1014.0431	2874.0874	1490.95	609.25
1014.1599	2875.2227	1488.2	605
1014.2766	2876.3574	1487.35	605.45
1014.3933	2877.4915	1479.75	598.25
1014.51	2878.6249	1488.85	607.1
1014.6266	2879.7577	1493.25	611.15
1014.7431	2880.8898	1486.6	591.8
1014.8596	2882.0212	1475.8	596
1014.9761	2883.152	1475.75	592.45
1015.0925	2884.2821	1473.8	593.15
1015.2089	2885.4116	1472.9	591.65
1015.3253	2886.5405	1472.45	591.15
1015.4416	2887.6686	1481.4	595.15
1015.5579	2888.7962	1477.95	598.9
1015.6741	2889.923	1479.75	600.8
1015.7903	2891.0493	1480.8	600.85
1015.9065	2892.1748	1482.05	599.95
1016.0226	2893.2997	1491.45	609.55
1016.1387	2894.424	1493.15	613.4
1016.2547	2895.5476	1496.25	614.85
1016.3707	2896.6706	1496.45	616.75
1016.4866	2897.7929	1498.7	617.95
1016.6025	2898.9145	1502.75	621.5
1016.7184	2900.0355	1513.6	630.9
1016.8342	2901.1559	1513.55	630.85
1016.95	2902.2756	1523.2	641.15
1017.0658	2903.3946	1515.65	635.15
1017.1815	2904.513	1529.9	645.4
1017.2971	2905.6308	1538.75	658.4
1017.4127	2906.7479	1536.5	655.45
1017.5283	2907.8643	1551.45	668.6
1017.6439	2908.9801	1544.65	663.7
1017.7594	2910.0953	1543.8	663.3
1017.8748	2911.2098	1550.65	662.5
1017.9902	2912.3236	1553.9	664.2
1018.1056	2913.4368	1548.6	663.2
1018.2209	2914.5494	1538.55	657.4
1018.3362	2915.6613	1535.5	646.35
1018.4515	2916.7725	1525.25	640.8
1018.5667	2917.8831	1514.75	631.25
1018.6819	2918.9931	1507.1	622.3
1018.797	2920.1024	1499.3	615.2
1018.9121	2921.211	1494.6	612.75
1019.0271	2922.319	1491	608.4
1019.1421	2923.4264	1484.35	602.65
1019.2571	2924.5331	1484.6	601.65
1019.372	2925.6391	1474.45	595.1
1019.4869	2926.7445	1479.35	600.5
1019.6017	2927.8493	1485.4	604.5
1019.7165	2928.9534	1486.25	603.45
1019.8313	2930.0569	1493.35	609.05
1019.946	2931.1597	1490.8	607.1
1020.0606	2932.2619	1490.05	608.25
1020.1753	2933.3634	1489.35	608.4
1020.2899	2934.4643	1498.4	609.45
1020.4044	2935.5645	1500.75	613.4
1020.5189	2936.6641	1497.45	613
1020.6334	2937.763	1490.45	607.5
1020.7478	2938.8613	1486.6	604.2
1020.8622	2939.959	1479.4	592.75
1020.9765	2941.056	1464.2	583.25
1021.0908	2942.1523	1447.5	562.95
1021.2051	2943.248	1427.35	545.3
1021.3193	2944.3431	1399.35	517.95
1021.4334	2945.4375	1380.05	496.65
1021.5476	2946.5313	1347	467.3
1021.6617	2947.6244	1325.6	441.75
1021.7757	2948.7169	1312.35	429.1
1021.8897	2949.8087	1286.8	403.95
1022.0037	2950.8999	1260.95	378.15
1022.1176	2951.9904	1249.3	368.65
1022.2315	2953.0803	1229.5	346.25
1022.3453	2954.1696	1212.1	330.7
1022.4591	2955.2582	1207	326.55
1022.5728	2956.3462	1197.15	316
1022.6865	2957.4335	1183.2	303.25
1022.8002	2958.5202	1172.65	287.55
1022.9138	2959.6062	1170.25	290.2
1023.0274	2960.6916	1166.8	287.85
1023.141	2961.7764	1165.8	283.65
1023.2545	2962.8605	1160.8	276.95
1023.3679	2963.9439	1152.8	272.55
1023.4813	2965.0267	1152.3	268
1023.5947	2966.1089	1176	271
1023.708	2967.1905	1148.8	266.55
1023.8213	2968.2714	1145.7	268.15
1023.9346	2969.3516	1148.05	265.9
1024.0478	2970.4312	1162.05	272.75
1024.1609	2971.5102	1145.45	263.95
1024.274	2972.5885	1148.5	266.6
1024.3871	2973.6662	1158.8	273.85
1024.5002	2974.7432	1152.3	269.6
1024.6132	2975.8196	1151.05	268.8
1024.7261	2976.8954	1140.8	258.85
1024.839	2977.9705	1148.7	265.2
1024.9519	2979.045	1149.15	267.95
1025.0647	2980.1188	1145.15	264.1
1025.1775	2981.192	1143.7	261.95
1025.2902	2982.2645	1137.3	255.85
1025.4029	2983.3364	1129.5	248
1025.5156	2984.4077	1125.35	243.65
1025.6282	2985.4783	1129.65	242.5
1025.7407	2986.5483	1110.45	229.25
1025.8532	2987.6177	1107.15	227.8
1025.9657	2988.6864	1103.3	219.15
1026.0782	2989.7545	1093.55	211.05
1026.1906	2990.8219	1081.8	200.65
1026.3029	2991.8887	1078.2	194.3
1026.4152	2992.9548	1066.05	182.15
1026.5275	2994.0204	1059.7	179.05
1026.6397	2995.0852	1049.55	170.35
1026.7519	2996.1495	1043.75	162.1
1026.864	2997.2131	1038	157.55
1026.9761	2998.276	1029.95	148.4
1027.0882	2999.3383	1026.55	144.35
1027.2002	3000.4	1021.6	140.3
1027.3122	3001.4611	1018.75	137.2
1027.4241	3002.5215	1012.45	129.6
1027.536	3003.5812	1011.45	130.1
1027.6478	3004.6404	1009.15	127.35
1027.7596	3005.6989	1002.4	119.95
1027.8714	3006.7567	998.75	114.75
1027.9831	3007.8139	1024.8	116.65
1028.0947	3008.8705	994.15	113.95
1028.2064	3009.9264	1009.65	111.95
1028.3179	3010.9818	987.55	109.2
1028.4295	3012.0364	988.1	105.35
1028.541	3013.0905	985.7	103.8
1028.6524	3014.1439	983.55	102.2
1028.7638	3015.1966	983.05	101.75
1028.8752	3016.2487	982.5	101.1
1028.9865	3017.3002	987.8	98.85
1029.0978	3018.3511	978.1	98.05
1029.209	3019.4013	977	94.3
1029.3202	3020.4509	979.9	99.85
1029.4314	3021.4998	978.2	95.9
1029.5425	3022.5481	977.75	97.05
1029.6535	3023.5958	974.4	93.05
1029.7645	3024.6428	978.25	96.8
1029.8755	3025.6892	977.05	95.6
1029.9864	3026.735	977.35	95.15
1030.0973	3027.7802	978	96.15
1030.2082	3028.8247	976	94
1030.319	3029.8685	976.3	95.45
1030.4297	3030.9118	975.55	92.4
1030.5404	3031.9544	974.4	94.65
1030.6511	3032.9963	975	94.8
1030.7617	3034.0376	976.05	95.05
1030.8723	3035.0783	979.95	96
1030.9829	3036.1184	976.9	94.55
1031.0934	3037.1578	974.65	95.8
1031.2038	3038.1966	980.4	96.75
1031.3142	3039.2348	977.95	98.8
1031.4246	3040.2723	989.35	100.85
1031.5349	3041.3092	976.9	96
1031.6452	3042.3455	977.9	95.45
1031.7554	3043.3811	977.4	96.3
1031.8656	3044.4161	977	94.3
1031.9758	3045.4505	978.15	98.45
1032.0859	3046.4842	977.25	93.7
1032.1959	3047.5173	977.5	97.6
1032.3059	3048.5498	975.55	94.55
1032.4159	3049.5816	975	94.15
1032.5258	3050.6128	974.6	94.3
1032.6357	3051.6434	975.45	92.9
1032.7455	3052.6734	973.8	90.9
1032.8553	3053.7027	972.5	91.35
1032.9651	3054.7314	971.35	92.1
1033.0748	3055.7594	974.55	94.05
1033.1845	3056.7868	973.75	91.65
1033.2941	3057.8136	972.55	91.85
1033.4037	3058.8398	972.35	90.7
1033.5132	3059.8653	970.3	88.8
1033.6227	3060.8902	972.9	90.2
1033.7321	3061.9145	975.65	94.8
1033.8415	3062.9381	971.65	89.75
1033.9509	3063.9612	988.7	90.8
1034.0602	3064.9835	972.7	90.85
1034.1694	3066.0053	972.15	85.45
1034.2787	3067.0264	971.55	90.55
1034.3878	3068.0469	971.85	90.1
1034.497	3069.0668	970.3	87.05
1034.6061	3070.086	967.5	86.55
1034.7151	3071.1046	968.9	84.65
1034.8241	3072.1226	968.7	86.65
1034.9331	3073.1399	960.6	79.1
1035.042	3074.1567	964.85	84.3
1035.1508	3075.1727	963.35	78.8
1035.2597	3076.1882	957.5	77.2
1035.3684	3077.203	957.85	76.4
1035.4772	3078.2173	956.85	75.05
1035.5859	3079.2308	956.35	71.55
1035.6945	3080.2438	955.15	71.6
1035.8031	3081.2561	951.6	68.5
1035.9117	3082.2678	948.4	66.9
1036.0202	3083.2789	950.2	67.85
1036.1286	3084.2893	946.6	65.8
1036.2371	3085.2991	945.05	61.7
1036.3454	3086.3083	947.6	62.4
1036.4538	3087.3169	944.8	61.6
1036.562	3088.3248	947.45	64.85
1036.6703	3089.3321	943.5	59.55
1036.7785	3090.3388	940.75	60.1
1036.8866	3091.3449	939.2	56.55
1036.9948	3092.3503	942.1	59.15
1037.1028	3093.3551	937.05	57.1
1037.2108	3094.3593	936	55.8
1037.3188	3095.3629	932.65	53.2
1037.4267	3096.3658	937.95	56.8
1037.5346	3097.3681	936.25	55.6
1037.6425	3098.3698	938.2	55.15
1037.7503	3099.3708	940.65	53.45
1037.858	3100.3713	933.2	53.4
1037.9657	3101.3711	932.65	50.45
1038.0734	3102.3702	1072.55	48.85
1038.181	3103.3688	934.4	49.9
1038.2886	3104.3667	929.35	49.35
1038.3961	3105.364	930	48.15
1038.5036	3106.3607	932.55	50
1038.611	3107.3568	933.4	49
1038.7184	3108.3522	929.25	48.75
1038.8257	3109.347	929.75	47.95
1038.933	3110.3412	932.8	46.25
1039.0403	3111.3348	925.65	43.5
1039.1475	3112.3277	924.55	42.85
1039.2547	3113.32	924.85	42.6
1039.3618	3114.3117	924.8	43.2
1039.4689	3115.3028	925.95	46.65
1039.5759	3116.2932	926.35	44.85
1039.6829	3117.2831	929.6	42.65
1039.7898	3118.2723	924.35	43.45
1039.8967	3119.2608	922.85	41.65
1040.0035	3120.2488	924.85	42.35
1040.1103	3121.2361	921.5	40.3
1040.2171	3122.2229	920.8	38.9
1040.3238	3123.209	919.85	37.7
1040.4305	3124.1944	921.9	42.2
1040.5371	3125.1793	923	41.65
1040.6437	3126.1635	922.6	41.5
1040.7502	3127.1471	921.05	40.5
1040.8567	3128.1301	921.55	41.85
1040.9631	3129.1125	919.8	37.2
1041.0695	3130.0942	916.55	33.6
1041.1759	3131.0753	927.7	36.7
1041.2822	3132.0558	920.1	35.7
1041.3884	3133.0357	918.55	35.55
1041.4946	3134.015	918.7	36.75
1041.6008	3134.9936	921.45	39.85
1041.7069	3135.9716	938.25	32.7
1041.813	3136.949	915.35	33.15
1041.919	3137.9258	936.15	36.95
1042.025	3138.902	921.55	35.1
1042.1309	3139.8775	916.1	34.9
1042.2368	3140.8524	916.95	33.85
1042.3427	3141.8267	915.45	33.7
1042.4485	3142.8004	914.9	31.65
1042.5542	3143.7735	919.1	31.15
1042.6599	3144.7459	918.25	36.6
1042.7656	3145.7178	916.65	35.6
1042.8712	3146.689	917.15	38.6
1042.9768	3147.6596	913.75	29.85
1043.0823	3148.6295	914.35	32.4
1043.1878	3149.5989	914	31.45
1043.2932	3150.5676	912.65	31.55
1043.3986	3151.5357	913.7	35.55
1043.5039	3152.5032	912.6	32.55
1043.6092	3153.4701	911.75	30.05
1043.7145	3154.4364	916.7	34.05
1043.8197	3155.402	912.35	32.85
1043.9248	3156.367	914.7	32.05
1044.03	3157.3315	930.95	28.85
1044.135	3158.2952	911.8	29.15
1044.24	3159.2584	910	29.65
1044.345	3160.221	911.2	30.45
1044.4499	3161.1829	909.65	27.45
1044.5548	3162.1442	909.1	28.5
1044.6596	3163.105	910.35	29.05
1044.7644	3164.065	911.3	29.7
1044.8692	3165.0245	914.5	31.45
1044.9739	3165.9834	910.1	30.75
1045.0785	3166.9416	908.2	25.7
1045.1831	3167.8993	912.95	30.5
1045.2877	3168.8563	911.55	31.15
1045.3922	3169.8127	905.3	23.9
1045.4966	3170.7684	909.55	27.5
1045.6011	3171.7236	910.25	28.4
1045.7054	3172.6782	908	27.4
1045.8098	3173.6321	908.9	26.25
1045.914	3174.5854	913.3	26.8
1046.0183	3175.5381	910	29.1
1046.1224	3176.4902	909.2	27.65
1046.2266	3177.4417	908.1	26.4
1046.3307	3178.3926	908.1	27.5
1046.4347	3179.3428	906.45	25.1
1046.5387	3180.2924	906.75	25.55
1046.6427	3181.2415	907.15	26.7
1046.7466	3182.1899	907.35	23.6
1046.8504	3183.1377	906.15	26.1
1046.9542	3184.0848	909	24.2
1047.058	3185.0314	906.35	26.7
1047.1617	3185.9773	909.75	27.95
1047.2654	3186.9227	907.95	24.25
1047.369	3187.8674	907.25	27
1047.4726	3188.8115	909.8	23.45
1047.5761	3189.755	906.3	23.9
1047.6796	3190.6979	907.2	25.3
1047.783	3191.6402	905.45	24.95
1047.8864	3192.5818	905.15	23.8
1047.9898	3193.5229	925.75	24
1048.0931	3194.4633	904.25	23.25
1048.1963	3195.4031	905.8	23.9
1048.2995	3196.3423	904.45	24.95
1048.4027	3197.2809	905	23.15
1048.5058	3198.2189	906.45	27.1
1048.6089	3199.1563	913.9	24.8
1048.7119	3200.0931	906.2	24.9
1048.8148	3201.0292	901.55	19.45
1048.9178	3201.9648	904.8	22
1049.0206	3202.8997	905.45	20.35
1049.1235	3203.834	904.25	23.35
1049.2262	3204.7677	906.75	25.95
1049.329	3205.7008	903.65	19.55
1049.4317	3206.6333	900.7	20.95
1049.5343	3207.5652	907.3	24.8
1049.6369	3208.4964	904	22.95
1049.7394	3209.4271	901.6	20.8
1049.8419	3210.3571	901.15	21.65
1049.9444	3211.2865	904.85	21.2
1050.0468	3212.2154	901.8	20.9
1050.1491	3213.1436	905.3	19.4
1050.2514	3214.0712	908.85	22.3
1050.3537	3214.9982	902.4	21.6
1050.4559	3215.9246	903.8	20.35
1050.5581	3216.8503	901.85	21.7
1050.6602	3217.7755	901.9	18.85
1050.7623	3218.7001	898.85	19.15
1050.8643	3219.624	902.2	20.8
1050.9663	3220.5473	901.95	20.3
1051.0682	3221.4701	901.3	18.95
1051.1701	3222.3922	902.4	19.6
1051.2719	3223.3137	901.45	19.35
1051.3737	3224.2346	901.75	20.8
1051.4754	3225.1549	900.3	21
1051.5771	3226.0746	900.6	18.15
1051.6788	3226.9937	901.75	20.55
1051.7804	3227.9121	902.3	21.25
1051.8819	3228.83	900.55	19.6
1051.9834	3229.7473	900.85	20.15
1052.0849	3230.6639	899.65	18.6
1052.1863	3231.5799	901.15	19.6
1052.2876	3232.4954	898.35	16.35
1052.3889	3233.4102	900.15	19.65
1052.4902	3234.3244	899.45	18.9
1052.5914	3235.238	900.35	20.65
1052.6926	3236.151	925.65	20.7
1052.7937	3237.0634	900.75	20.7
1052.8948	3237.9752	899.4	18.4
1052.9958	3238.8864	898.2	16.1
1053.0968	3239.797	897.2	16.7
1053.1977	3240.7069	899.3	16.6
1053.2986	3241.6163	902.4	19.7
1053.3994	3242.5251	898.15	18.7
1053.5002	3243.4332	899.4	20.7
1053.6009	3244.3408	898.95	15.55
1053.7016	3245.2477	896	15.2
1053.8022	3246.154	899.35	15.7
1053.9028	3247.0598	899.85	17.15
1054.0034	3247.9649	896.95	12.2
1054.1039	3248.8694	898.75	16.8
1054.2043	3249.7733	898.15	16.9
1054.3047	3250.6766	896.45	14.3
1054.4051	3251.5793	899.7	17.7
1054.5054	3252.4814	898.25	18.7
1054.6056	3253.3829	897	16.95
1054.7058	3254.2838	896.3	15.6
1054.806	3255.1841	895.1	15.4
1054.9061	3256.0838	896.15	13.35
1055.0061	3256.9829	896.8	15.7
1055.1062	3257.8814	898.75	13.8
1055.2061	3258.7792	897.15	15.7
1055.306	3259.6765	896.95	13.9
1055.4059	3260.5731	897	17.35
1055.5057	3261.4692	894.3	15.05
1055.6055	3262.3647	894.7	11.15
1055.7052	3263.2595	893.3	12.35
1055.8049	3264.1538	896.1	13.65
1055.9045	3265.0474	895.2	13.35
1056.0041	3265.9404	896.95	15.75
1056.1036	3266.8329	894.55	12.2
1056.2031	3267.7247	904	13.6
1056.3025	3268.616	892	11.5
1056.4019	3269.5066	894.05	13.75
1056.5013	3270.3966	895.65	11.6
1056.6005	3271.286	892.4	11.7
