Software Version:	3.9.2.0
Unit SN:	10000200
Spectrometer SN:	6960
Date:	3/14/2024 1:58:22 PM
Data Line Index:	25
Spectral Points:	2048
Integration time (ms):	125
Averages:	20
Delay (ms):	30000
Sequence Number:	1
Processing:	dark subtract
Laser Power (mW):	300
Laser Current (mA):	824
Laser Diode Temp (C):	25
Laser Case Temp (C):	29
System Temp (C):	29
Spectrometer Temp (C):	26.8
CCD Temp (C):	0.009
Secondary Temp (C):	20.007
Heatsink Temp (C):	24.817
CCDPCB Temp (C):	38.074
SecondaryPCB Temp (C):	35.918

Wavelength	RamanShift	Raw Counts	Dark Subtracted
787.061	30.1047	456.75	45.9
787.2016	32.3739	460.9	50.6
787.3422	34.6426	463.85	55.45
787.4828	36.9109	468.95	56.4
787.6235	39.1787	479.85	63.45
787.7642	41.4461	487.65	66
787.9049	43.7131	497.4	73.05
788.0456	45.9796	505.9	76.75
788.1863	48.2456	515.25	82.5
788.3271	50.5112	522.75	86.65
788.4679	52.7764	534.65	95.6
788.6087	55.0411	540.45	99.95
788.7496	57.3054	556.1	109.6
788.8904	59.5692	564.25	114.8
789.0313	61.8326	578.45	126.6
789.1722	64.0955	588.7	130.2
789.3132	66.3579	602.3	139.1
789.4541	68.6199	625.6	159.8
789.5951	70.8815	655.45	187.3
789.7361	73.1426	725	253.85
789.8771	75.4032	908.3	430.35
790.0181	77.6634	1359.2	875.2
790.1592	79.9231	2427.35	1938.3
790.3003	82.1824	4780.25	4281.15
790.4414	84.4412	9136.05	8619.75
790.5825	86.6995	15273.1	14731.7
790.7237	88.9574	21472.25	20909.5
790.8648	91.2148	25954.45	25379.75
791.006	93.4717	28193.2	27602.65
791.1472	95.7282	28754.35	28165
791.2885	97.9842	28844.85	28250.4
791.4297	100.2398	28425.5	27829.95
791.571	102.4949	27913.6	27310.5
791.7123	104.7495	27242.1	26636.05
791.8536	107.0036	26519.9	25911.2
791.9949	109.2573	25783.8	25176.5
792.1363	111.5105	25084.45	24474.6
792.2777	113.7632	24365	23757.7
792.4191	116.0154	23725.25	23107.45
792.5605	118.2672	23276.95	22665.25
792.7019	120.5185	22787.3	22175.35
792.8434	122.7693	22412.6	21796.45
792.9849	125.0197	22141.85	21522.75
793.1264	127.2696	21873.85	21249.8
793.2679	129.519	21743.9	21118.9
793.4094	131.7679	21547.2	20920.55
793.551	134.0163	21461.9	20831.5
793.6926	136.2642	21310.5	20675.7
793.8342	138.5117	21173.4	20527.7
793.9758	140.7587	20959.8	20320.55
794.1175	143.0052	20798.2	20157.5
794.2591	145.2512	20595.7	19954.15
794.4008	147.4967	20396.1	19752.7
794.5425	149.7417	20305.3	19657.55
794.6842	151.9863	20168.75	19518.45
794.826	154.2304	20107.75	19456.65
794.9677	156.4739	19984.3	19322.9
795.1095	158.717	19906.1	19251.15
795.2513	160.9596	19744.1	19082.95
795.3931	163.2017	19482.15	18821.25
795.535	165.4433	19267.25	18601.9
795.6768	167.6844	18908.9	18240.55
795.8187	169.925	18613.35	17945.7
795.9606	172.1651	18222.9	17548.85
796.1025	174.4047	17921.95	17244.65
796.2445	176.6439	17638.25	16964.9
796.3864	178.8825	17409.25	16728.65
796.5284	181.1206	17234.8	16548.8
796.6704	183.3582	17053.25	16364.2
796.8124	185.5954	16961.45	16273.3
796.9544	187.832	16857.95	16169.05
797.0965	190.0681	16778.8	16084.05
797.2386	192.3037	16777.25	16083.8
797.3806	194.5388	16766.15	16066.1
797.5228	196.7734	16795.2	16096.95
797.6649	199.0075	16830.7	16124.6
797.807	201.2411	17015.1	16308.3
797.9492	203.4742	16991.2	16284.9
798.0914	205.7068	17135.4	16426.25
798.2336	207.9389	17208.2	16498.95
798.3758	210.1704	17320.25	16611.7
798.518	212.4015	17439.25	16721.85
798.6603	214.632	17598.3	16887.25
798.8025	216.862	17754.7	17045.7
798.9448	219.0915	17919.4	17219.4
799.0871	221.3205	18124.7	17427.05
799.2294	223.549	18405.1	17711.15
799.3718	225.777	18729.95	18036.8
799.5141	228.0044	19116.25	18422.75
799.6565	230.2314	19604.4	18906.25
799.7989	232.4578	20077.55	19380.35
799.9413	234.6837	20433.25	19727.6
800.0837	236.909	20664.1	19958.8
800.2262	239.1339	20601.85	19874.5
800.3687	241.3582	20342.2	19627.95
800.5111	243.582	19945.85	19207.7
800.6536	245.8053	19573.95	18841.85
800.7961	248.0281	19147.75	18420.15
800.9387	250.2503	18868.9	18137
801.0812	252.472	18678.4	17942
801.2238	254.6932	18594.8	17854.9
801.3664	256.9139	18425.65	17684.1
801.509	259.134	18386	17640.9
801.6516	261.3536	18305.85	17566
801.7942	263.5727	18289.05	17544.55
801.9369	265.7912	18166.5	17425.55
802.0795	268.0092	18100.2	17356.4
802.2222	270.2267	18011.2	17269.3
802.3649	272.4436	17936.15	17190.9
802.5076	274.6601	17848.45	17097
802.6504	276.8759	17785.25	17038.2
802.7931	279.0913	17809.85	17062.4
802.9359	281.3061	17790.05	17037.75
803.0787	283.5204	17903.1	17148.85
803.2215	285.7341	17982.85	17226.5
803.3643	287.9473	18157.6	17391.55
803.5071	290.16	18415.65	17653.05
803.6499	292.3721	18738.15	17981.05
803.7928	294.5837	19165.6	18405.8
803.9357	296.7947	19517.6	18757.1
804.0786	299.0052	19699.75	18941.05
804.2215	301.2152	19508.55	18742.95
804.3644	303.4246	19109.45	18350.65
804.5074	305.6334	18535.75	17777.85
804.6503	307.8418	18035.85	17272.85
804.7933	310.0495	17622.05	16862.35
804.9363	312.2568	17317.05	16559.45
805.0793	314.4635	17126.9	16362.75
805.2223	316.6696	17053.35	16286.7
805.3653	318.8752	17044.65	16268.95
805.5084	321.0802	17102.05	16333.6
805.6514	323.2847	17198.05	16430.7
805.7945	325.4887	17249.35	16482.15
805.9376	327.692	17163.15	16394.6
806.0807	329.8949	17057.95	16288.75
806.2238	332.0972	16793.4	16022.45
806.367	334.2989	16465.95	15692.6
806.5101	336.5001	16212.35	15437.85
806.6533	338.7007	15982.45	15209.8
806.7965	340.9008	15870.95	15094.55
806.9397	343.1003	15750.7	14973.55
807.0829	345.2992	15724.45	14945.55
807.2261	347.4976	15705.1	14926.9
807.3693	349.6955	15652.8	14867.15
807.5126	351.8927	15732.35	14950.25
807.6559	354.0895	15745.9	14952.15
807.7991	356.2856	15771.7	14986.4
807.9424	358.4812	15732.5	14948.55
808.0857	360.6763	15758.9	14971.85
808.2291	362.8707	15738.8	14950.15
808.3724	365.0646	15748.15	14958.1
808.5158	367.258	15700.95	14908.85
808.6591	369.4508	15685.4	14890.55
808.8025	371.643	15763.25	14969.35
808.9459	373.8346	15729.45	14931.9
809.0893	376.0257	15672.35	14871.3
809.2327	378.2162	15587.55	14786.5
809.3762	380.4062	15462.3	14658.85
809.5196	382.5956	15301.55	14496.45
809.6631	384.7844	15219.75	14418.4
809.8066	386.9726	15095.55	14289.5
809.9501	389.1603	15006.95	14204.4
810.0936	391.3474	14992	14156.95
810.2371	393.5339	14985.5	14183.55
810.3806	395.7199	14876.15	14076.55
810.5241	397.9052	14901.75	14102.45
810.6677	400.09	14904.75	14110.5
810.8113	402.2743	14920	14121.55
810.9548	404.4579	14971.75	14175.35
811.0984	406.641	15119.35	14326.1
811.2421	408.8235	15298.95	14499.9
811.3857	411.0054	15660.4	14863.1
811.5293	413.1868	16093.65	15294.6
811.673	415.3675	16472.35	15672.35
811.8166	417.5477	16643.5	15844.15
811.9603	419.7273	16671.5	15864.85
812.104	421.9064	16532.05	15719
812.2477	424.0848	16372.75	15565.9
812.3914	426.2627	16171.05	15360.95
812.5351	428.4399	15869.2	15056.2
812.6788	430.6166	15486.45	14670
812.8226	432.7928	15117.15	14304.3
812.9663	434.9683	14828.9	14014
813.1101	437.1432	14571.35	13754.65
813.2539	439.3176	14409.8	13589.5
813.3977	441.4914	14312.8	13493.1
813.5415	443.6645	14286.35	13467.15
813.6853	445.8371	14186.05	13366.85
813.8291	448.0091	14093	13275.45
813.973	450.1806	14078.75	13258.35
814.1168	452.3514	13999.5	13177.95
814.2607	454.5216	13973.55	13141.4
814.4046	456.6913	13903.55	13080.1
814.5485	458.8603	13877	13055.35
814.6924	461.0288	13917.1	13095.4
814.8363	463.1967	13953.25	13131.75
814.9802	465.3639	14110.95	13286.45
815.1241	467.5306	14201.1	13379.95
815.2681	469.6967	14359.4	13533
815.412	471.8622	14523	13697.9
815.556	474.0271	14640.9	13816.2
815.7	476.1914	14700.75	13875
815.844	478.3551	14697.5	13874.8
815.988	480.5182	14623.75	13797.25
816.132	482.6807	14583.4	13756.55
816.276	484.8426	14668.15	13841.9
816.4201	487.0039	14899.1	14069.55
816.5641	489.1647	15261.15	14433.85
816.7082	491.3248	15672.35	14844.8
816.8522	493.4843	15850.9	15023.25
816.9963	495.6432	15849.25	15021.2
817.1404	497.8015	15749.05	14918.05
817.2845	499.9592	15748.9	14919.85
817.4286	502.1163	15742.55	14911.65
817.5727	504.2728	15510.25	14676.65
817.7168	506.4287	15229	14396.7
817.861	508.5839	14773	13938.2
818.0051	510.7386	14462.7	13628.85
818.1493	512.8927	14245.95	13402.5
818.2935	515.0461	14074.35	13242.6
818.4377	517.199	13993	13162.45
818.5818	519.3512	13922.45	13086.45
818.726	521.5029	13947.05	13106.2
818.8703	523.6539	13931.95	13097.4
819.0145	525.8043	13962.5	13127.3
819.1587	527.9541	13982.5	13146.35
819.303	530.1033	13970.7	13131.95
819.4472	532.2519	14053.2	13216.3
819.5915	534.3999	14194.5	13355.15
819.7357	536.5472	14510.25	13672.7
819.88	538.694	14973.45	14133.55
820.0243	540.8401	15584.75	14746.55
820.1686	542.9856	16099.15	15257.6
820.3129	545.1305	16261.75	15420.4
820.4572	547.2748	16104.8	15264.2
820.6016	549.4185	15675.5	14833
820.7459	551.5615	15278.3	14437.55
820.8902	553.704	15097.25	14255.25
821.0346	555.8458	14986	14143.2
821.1789	557.987	14925.05	14083.25
821.3233	560.1276	14829	13987.4
821.4677	562.2675	14745.65	13907.15
821.6121	564.4069	14651.95	13812.95
821.7565	566.5456	14532.15	13692.6
821.9009	568.6837	14409.2	13568.7
822.0453	570.8212	14167	13329.25
822.1897	572.958	13921.15	13076.8
822.3342	575.0942	13726.05	12884.6
822.4786	577.2299	13590.95	12747.3
822.6231	579.3648	13599.6	12755.55
822.7675	581.4992	13708.25	12863.95
822.912	583.6329	13889.6	13044.85
823.0565	585.766	14112.6	13270.55
823.201	587.8985	14233.9	13391.65
823.3454	590.0304	14215.9	13360.45
823.4899	592.1616	14158.9	13307.15
823.6345	594.2922	14042.3	13194.25
823.779	596.4222	13876.9	13029.6
823.9235	598.5515	13733.75	12886.2
824.068	600.6802	13571	12726.5
824.2126	602.8083	13380.85	12534
824.3571	604.9358	13308	12457.85
824.5017	607.0626	13212.35	12367.4
824.6462	609.1888	13123.9	12276.35
824.7908	611.3144	13018.8	12169.9
824.9354	613.4393	12849.85	11999.2
825.08	615.5636	12726.85	11879.25
825.2246	617.6873	12596.15	11749.2
825.3692	619.8103	12547.6	11698.1
825.5138	621.9327	12443.85	11589
825.6584	624.0544	12423.3	11572.2
825.803	626.1756	12426.85	11575.75
825.9477	628.2961	12417.8	11569.6
826.0923	630.4159	12324.4	11472.8
826.237	632.5351	12285.05	11437.1
826.3816	634.6537	12203.55	11354.55
826.5263	636.7716	12158.4	11305.2
826.6709	638.8889	12161.5	11310.3
826.8156	641.0056	12186.75	11335.3
826.9603	643.1216	12184.5	11330.2
827.105	645.237	12196.9	11342.05
827.2497	647.3518	12200.05	11345.75
827.3944	649.4659	12177.35	11325.3
827.5391	651.5793	12198.3	11342.55
827.6838	653.6922	12158.55	11303.7
827.8285	655.8043	12121.75	11266.8
827.9733	657.9159	12088.8	11232.35
828.118	660.0268	12016.95	11161.85
828.2627	662.137	11927.7	11072.65
828.4075	664.2466	11887	11028.1
828.5522	666.3556	11857.8	11005.1
828.697	668.4639	11844.7	10985.4
828.8418	670.5716	11880.5	11024.45
828.9865	672.6786	11933.55	11076
829.1313	674.785	12003.6	11144.85
829.2761	676.8907	12081.2	11226.15
829.4209	678.9958	12169.25	11309.65
829.5657	681.1002	12127.1	11269.1
829.7105	683.204	12065.6	11204
829.8553	685.3072	12019.9	11160.75
830.0001	687.4097	11929.8	11071.25
830.1449	689.5115	11854.15	10993
830.2898	691.6127	11802.35	10945
830.4346	693.7132	11697.45	10838.15
830.5794	695.8131	11644.85	10764.3
830.7243	697.9123	11578.95	10720.15
830.8691	700.0109	11553.6	10691.6
831.014	702.1089	11514.7	10652.55
831.1588	704.2061	11472.05	10611.6
831.3037	706.3028	11496.1	10632.75
831.4486	708.3987	11555.4	10695.15
831.5935	710.4941	11632.05	10773.95
831.7383	712.5887	11813.9	10953.75
831.8832	714.6827	12123.35	11257.7
832.0281	716.7761	12476.5	11614.45
832.173	718.8688	12827.85	11965.35
832.3179	720.9608	12998.8	12133.2
832.4628	723.0522	13011.45	12147.65
832.6077	725.1429	12761.1	11898.9
832.7527	727.233	12412.7	11548
832.8976	729.3224	12084.85	11221.7
833.0425	731.4112	11775.7	10912.1
833.1874	733.4993	11569.05	10702.75
833.3324	735.5867	11387.95	10527
833.4773	737.6735	11327.7	10464.55
833.6222	739.7596	11254	10389.15
833.7672	741.845	11244.85	10382.3
833.9122	743.9298	11239.2	10369.7
834.0571	746.014	11221.65	10360.8
834.2021	748.0974	11214.85	10350.8
834.347	750.1802	11193.2	10329.15
834.492	752.2624	11203.05	10336.85
834.637	754.3439	11204.9	10338
834.782	756.4247	11258.85	10384.1
834.9269	758.5048	11333.45	10469.25
835.0719	760.5843	11512.55	10648.45
835.2169	762.6631	11761.05	10894.65
835.3619	764.7413	12134.4	11270.25
835.5069	766.8188	12686.2	11820.4
835.6519	768.8956	13080.25	12212.6
835.7969	770.9718	13345.05	12477.95
835.9419	773.0473	13196.05	12331
836.0869	775.1221	12908.15	12041.6
836.232	777.1962	12506.4	11640.2
836.377	779.2697	12317.7	11451.15
836.522	781.3426	12390.7	11505.1
836.667	783.4147	12663.75	11797.9
836.8121	785.4862	12985.9	12116.8
836.9571	787.557	12997	12128.8
837.1021	789.6271	12618.25	11749.3
837.2472	791.6966	12067.55	11197.6
837.3922	793.7654	11584.1	10715.45
837.5373	795.8335	11267.65	10398.25
837.6823	797.901	11125.2	10259.3
837.8274	799.9678	11046.1	10176
837.9724	802.0339	11063.65	10194.75
838.1175	804.0993	11133.15	10254.35
838.2626	806.1641	11068.2	10198.85
838.4076	808.2282	11022.75	10156
838.5527	810.2916	10928.9	10056.25
838.6978	812.3544	10828.3	9959.05
838.8428	814.4164	10722.2	9853.6
838.9879	816.4778	10692.2	9822.15
839.133	818.5385	10669.4	9802.4
839.2781	820.5986	10729.05	9859.6
839.4232	822.658	10752.7	9882.45
839.5682	824.7166	10794.3	9927.7
839.7133	826.7747	10923.15	10053.7
839.8584	828.832	11033.05	10164.05
840.0035	830.8886	11143.55	10269.8
840.1486	832.9446	11249.65	10377.15
840.2937	834.9999	11314	10444.6
840.4388	837.0545	11372.7	10497.65
840.5839	839.1085	11447.4	10576.95
840.729	841.1618	11410.05	10538
840.8741	843.2143	11398.7	10525.15
841.0192	845.2662	11326.95	10456.3
841.1643	847.3175	11223.5	10355.3
841.3095	849.368	11113.55	10242.25
841.4546	851.4179	11001.15	10131.65
841.5997	853.467	10841.7	9968.35
841.7448	855.5155	10756.5	9886
841.8899	857.5633	10608.15	9737.15
842.0351	859.6105	10517.55	9646.65
842.1802	861.6569	10445.5	9574.25
842.3253	863.7027	10379.2	9507.55
842.4704	865.7478	10349.35	9475.95
842.6156	867.7922	10351.85	9482.95
842.7607	869.8359	10385.05	9509.95
842.9058	871.8789	10487.75	9613.95
843.0509	873.9212	10682.3	9775.85
843.1961	875.9629	10811.2	9940.3
843.3412	878.0039	10996.75	10125.3
843.4863	880.0441	11040.55	10167.95
843.6315	882.0837	11038.7	10166.9
843.7766	884.1226	10915.15	10039.5
843.9218	886.1609	10772	9901.75
844.0669	888.1984	10644.3	9771.9
844.212	890.2352	10580.6	9707.1
844.3572	892.2714	10524.95	9648.25
844.5023	894.3069	10482.3	9606.4
844.6475	896.3416	10417	9542.2
844.7926	898.3757	10375.45	9500.75
844.9377	900.4091	10379.35	9505
845.0829	902.4418	10388.05	9510.2
845.228	904.4739	10380.95	9505.75
845.3732	906.5052	10355.35	9478.45
845.5183	908.5358	10238.1	9365.35
845.6635	910.5658	10093.05	9214.25
845.8086	912.595	9911.45	9037.05
845.9538	914.6236	9806.6	8931.35
846.0989	916.6515	9750.75	8876.3
846.2441	918.6786	9753.15	8875.7
846.3892	920.7051	9817.85	8941
846.5344	922.7309	9909.55	9033.75
846.6795	924.756	9983.5	9109.1
846.8246	926.7804	10066.1	9188.6
846.9698	928.8041	10003.95	9128.05
847.1149	930.8272	10006.95	9131.1
847.2601	932.8495	9956.65	9079.65
847.4052	934.8711	9866.6	8988.8
847.5504	936.892	9705.35	8829.2
847.6955	938.9123	9553.65	8678.2
847.8407	940.9318	9394.4	8519.15
847.9858	942.9506	9296.35	8419.75
848.131	944.9688	9178.1	8303.4
848.2761	946.9862	9150.2	8275.95
848.4213	949.003	9115.05	8240.05
848.5664	951.019	9111.75	8237.9
848.7115	953.0344	9107.7	8230.9
848.8567	955.0491	9129.65	8252.65
849.0018	957.063	9230.9	8355.05
849.147	959.0763	9296.3	8421.35
849.2921	961.0888	9337.9	8458
849.4373	963.1007	9421.05	8543.7
849.5824	965.1119	9446.8	8570.55
849.7275	967.1223	9460.65	8582
849.8727	969.1321	9461.45	8586.4
850.0178	971.1412	9498.85	8621.6
850.1629	973.1495	9524.9	8648.6
850.3081	975.1572	9581.65	8672.05
850.4532	977.1641	9545.4	8668.9
850.5983	979.1704	9531.6	8654.75
850.7435	981.1759	9533	8652.95
850.8886	983.1808	9579.25	8702
851.0337	985.1849	9671.7	8782.35
851.1788	987.1884	9829.85	8948.25
851.324	989.1911	10011.5	9131.8
851.4691	991.1932	10121.2	9239.9
851.6142	993.1945	10167.65	9289.95
851.7593	995.1951	10122.55	9244.85
851.9045	997.1951	10070.6	9187.85
852.0496	999.1943	10004.2	9126.5
852.1947	1001.1928	9936.7	9057.4
852.3398	1003.1906	9920.75	9044.9
852.4849	1005.1877	9950.05	9069.45
852.63	1007.1841	9891.45	9012.2
852.7751	1009.1798	9810.5	8931.75
852.9202	1011.1748	9598.95	8720.4
853.0653	1013.1691	9419.8	8540.9
853.2104	1015.1627	9213.2	8334.45
853.3555	1017.1556	9031.95	8151.75
853.5006	1019.1477	8947.25	8069.7
853.6457	1021.1392	8883.95	8008.65
853.7908	1023.1299	8875.35	7995.75
853.9359	1025.12	8891.4	8011
854.081	1027.1093	8926.85	8048.35
854.2261	1029.0979	9014.4	8137.7
854.3712	1031.0859	9087.45	8210.15
854.5163	1033.0731	9044.9	8164.25
854.6613	1035.0596	8973.25	8095.4
854.8064	1037.0454	8826.95	7946.4
854.9515	1039.0304	8719.75	7842.3
855.0965	1041.0148	8569.25	7690.4
855.2416	1042.9985	8502.4	7624.3
855.3867	1044.9814	8449.7	7571.95
855.5317	1046.9636	8403.6	7521.7
855.6768	1048.9452	8372.45	7495.4
855.8219	1050.926	8350.25	7472.15
855.9669	1052.9061	8364.7	7485.4
856.112	1054.8855	8340.7	7461.35
856.257	1056.8642	8353.5	7473.4
856.4021	1058.8421	8401.8	7522.35
856.5471	1060.8194	8440.8	7563.45
856.6921	1062.7959	8468.05	7589.05
856.8372	1064.7717	8453.3	7573.25
856.9822	1066.7469	8460.6	7580.85
857.1272	1068.7213	8425.75	7543.85
857.2723	1070.695	8395.4	7519.85
857.4173	1072.6679	8305.9	7426.6
857.5623	1074.6402	8277.65	7398.15
857.7073	1076.6117	8273.6	7388.5
857.8523	1078.5826	8267.85	7388.2
857.9973	1080.5527	8342.75	7462.5
858.1423	1082.5221	8442.55	7562.2
858.2873	1084.4908	8643.85	7763.35
858.4323	1086.4587	8842.95	7962.65
858.5773	1088.426	8976	8096.2
858.7223	1090.3925	8960.7	8077.1
858.8673	1092.3584	8894.15	8013.8
859.0123	1094.3235	8746.65	7868.25
859.1573	1096.2879	8613.25	7731.65
859.3022	1098.2515	8596.15	7716.3
859.4472	1100.2145	8627.3	7746.5
859.5922	1102.1767	8700.05	7818.4
859.7371	1104.1382	8822.1	7944.25
859.8821	1106.099	8987.2	8105.05
860.027	1108.0591	9183.9	8304.6
860.172	1110.0185	9334.8	8454.1
860.3169	1111.9771	9325.55	8444
860.4619	1113.9351	9100.85	8220.25
860.6068	1115.8923	8775.55	7895.9
860.7517	1117.8488	8458.9	7576.05
860.8967	1119.8045	8193.2	7315.6
861.0416	1121.7596	8054.15	7173.7
861.1865	1123.7139	8002.6	7123.75
861.3314	1125.6675	8001.65	7121.3
861.4763	1127.6204	8071.55	7191.25
861.6212	1129.5726	8066.4	7185.9
861.7661	1131.524	8082.4	7202.3
861.911	1133.4748	8113.5	7231.45
862.0559	1135.4248	8158.45	7278.6
862.2008	1137.3741	8171.15	7289.95
862.3457	1139.3226	8126	7244.95
862.4905	1141.2705	8071.75	7191.65
862.6354	1143.2176	8003.8	7118.65
862.7803	1145.164	8049.3	7168.5
862.9251	1147.1097	8045.7	7165.8
863.07	1149.0546	8010.05	7128.6
863.2148	1150.9989	7912.7	7030.5
863.3597	1152.9424	7735.7	6853.5
863.5045	1154.8852	7579.35	6698.5
863.6493	1156.8272	7453.5	6574.05
863.7942	1158.7686	7404.65	6516.7
863.939	1160.7092	7357.75	6474.75
864.0838	1162.6491	7342.05	6457.3
864.2286	1164.5883	7398.8	6516.95
864.3734	1166.5267	7480.95	6597.3
864.5182	1168.4644	7604.05	6723.05
864.663	1170.4014	7787.35	6900.55
864.8078	1172.3377	7981.35	7100.65
864.9526	1174.2732	8161.95	7284.4
865.0974	1176.2081	8341.55	7458.6
865.2421	1178.1421	8531.9	7646.7
865.3869	1180.0755	8675.3	7797.15
865.5317	1182.0082	8673.5	7794.2
865.6764	1183.9401	8628.7	7745.9
865.8212	1185.8713	8428.4	7546.05
865.9659	1187.8017	8219.55	7339.15
866.1106	1189.7315	7986.6	7107.2
866.2554	1191.6605	7733.9	6823
866.4001	1193.5888	7560.65	6678.9
866.5448	1195.5163	7445.95	6564.4
866.6895	1197.4432	7356.05	6473.75
866.8342	1199.3693	7298.9	6417.85
866.9789	1201.2947	7250.25	6368.2
867.1236	1203.2193	7243	6360
867.2683	1205.1432	7262.8	6379.6
867.413	1207.0664	7293.6	6411.95
867.5576	1208.9889	7353.35	6468.4
867.7023	1210.9106	7417.65	6534.95
867.847	1212.8316	7494.4	6614.25
867.9916	1214.7519	7556.2	6666.7
868.1363	1216.6715	7569.25	6690
868.2809	1218.5903	7557.95	6676.35
868.4255	1220.5084	7503.05	6622.8
868.5701	1222.4257	7465.2	6582.95
868.7148	1224.3424	7428.45	6548.4
868.8594	1226.2583	7484.15	6600.15
869.004	1228.1735	7556.5	6673.55
869.1486	1230.0879	7662.6	6780.95
869.2932	1232.0016	7787.9	6905.55
869.4377	1233.9146	7814.5	6931.75
869.5823	1235.8269	7724.15	6843.05
869.7269	1237.7384	7606.05	6725.1
869.8715	1239.6492	7431.15	6550.4
870.016	1241.5592	7316.25	6435.1
870.1606	1243.4686	7226.6	6345
870.3051	1245.3772	7182.9	6302.15
870.4496	1247.285	7135.05	6253.85
870.5941	1249.1922	7070.4	6188.55
870.7387	1251.0986	7060.25	6179.4
870.8832	1253.0042	7063.5	6180.85
871.0277	1254.9092	7121.55	6238.55
871.1722	1256.8134	7199.85	6319.3
871.3167	1258.7169	7351.3	6468.15
871.4611	1260.6196	7494.45	6613.85
871.6056	1262.5216	7655	6773.75
871.7501	1264.4229	7790.85	6909
871.8945	1266.3234	7883	7002.85
872.039	1268.2232	7955.25	7073.05
872.1834	1270.1223	7907.7	7025
872.3278	1272.0207	7888.4	7005.3
872.4723	1273.9183	7839.5	6952.05
872.6167	1275.8151	7769.95	6889.15
872.7611	1277.7113	7682.75	6798.1
872.9055	1279.6067	7542.9	6663.65
873.0499	1281.5014	7412.45	6528.05
873.1943	1283.3953	7295.65	6408.8
873.3386	1285.2885	7220.3	6339.35
873.483	1287.181	7154.65	6274.6
873.6274	1289.0727	7174.25	6294.3
873.7717	1290.9637	7217.2	6335.15
873.9161	1292.854	7312	6430.1
874.0604	1294.7435	7461.65	6581.9
874.2047	1296.6323	7652.35	6768.5
874.349	1298.5204	7855.55	6966.55
874.4933	1300.4077	8084.9	7201.65
874.6376	1302.2943	8274.1	7393.2
874.7819	1304.1802	8332.1	7451.2
874.9262	1306.0653	8269.55	7383.9
875.0705	1307.9497	8150.65	7266.9
875.2147	1309.8333	8054.55	7171.7
875.359	1311.7162	8026.05	7143.15
875.5032	1313.5984	8108.65	7224.5
875.6475	1315.4798	8232.7	7340.2
875.7917	1317.3605	8385.2	7485.25
875.9359	1319.2405	8508.25	7624.1
876.0801	1321.1197	8550.7	7666.3
876.2243	1322.9982	8480.85	7594.2
876.3685	1324.876	8448.2	7563.85
876.5127	1326.753	8415.6	7533.95
876.6569	1328.6293	8435.95	7552.7
876.801	1330.5048	8454.4	7570.55
876.9452	1332.3796	8415.05	7534.3
877.0893	1334.2537	8414.7	7505.7
877.2335	1336.127	8356.1	7475.95
877.3776	1337.9996	8303.95	7420.65
877.5217	1339.8714	8267.15	7384.25
877.6658	1341.7426	8236.25	7311.25
877.8099	1343.6129	8183.85	7301.35
877.954	1345.4826	8110.25	7225.8
878.0981	1347.3515	8059.95	7172.35
878.2422	1349.2196	8012.55	7128.6
878.3862	1351.087	8012.8	7129.65
878.5303	1352.9537	8054.65	7171.25
878.6743	1354.8197	8184.1	7301.3
878.8184	1356.6849	8315.1	7431.6
878.9624	1358.5493	8377.3	7493.65
879.1064	1360.4131	8388.85	7506.15
879.2504	1362.276	8333	7450.2
879.3944	1364.1383	8204.3	7319.65
879.5384	1365.9998	7973.5	7086.05
879.6823	1367.8606	7700.4	6817.75
879.8263	1369.7206	7467.75	6584.65
879.9702	1371.5799	7299.7	6413.85
880.1142	1373.4384	7198.7	6316.05
880.2581	1375.2962	7081.85	6197.3
880.402	1377.1533	6877.05	5993.25
880.5459	1379.0096	6610.6	5728.45
880.6898	1380.8652	6373.15	5491.45
880.8337	1382.7201	6150.8	5268.2
880.9776	1384.5742	5950.25	5068
881.1215	1386.4275	5819.85	4936
881.2653	1388.2802	5716.95	4835.25
881.4092	1390.132	5635.1	4750.55
881.553	1391.9832	5576.8	4689.55
881.6968	1393.8336	5525.2	4645.1
881.8406	1395.6832	5498.35	4614.05
881.9844	1397.5322	5470.35	4587.2
882.1282	1399.3803	5462.1	4577.25
882.272	1401.2278	5443.5	4560.5
882.4158	1403.0745	5421.5	4538.95
882.5595	1404.9204	5418.1	4535.55
882.7033	1406.7656	5434.9	4552.75
882.847	1408.6101	5462.6	4578.6
882.9908	1410.4538	5478.6	4593.75
883.1345	1412.2968	5512.25	4629.8
883.2782	1414.139	5567.45	4686.2
883.4219	1415.9805	5644.25	4762.85
883.5656	1417.8213	5733.8	4842.8
883.7092	1419.6613	5848.4	4966.5
883.8529	1421.5006	6012.3	5128.6
883.9965	1423.3391	6267.35	5382.9
884.1402	1425.1769	6601.6	5715.4
884.2838	1427.0139	7074.8	6191.1
884.4274	1428.8502	7638.15	6753.75
884.571	1430.6858	8192.4	7310.35
884.7146	1432.5206	8600.35	7715.8
884.8582	1434.3547	8826.3	7941.05
885.0018	1436.188	8853.25	7968.6
885.1453	1438.0206	8790.5	7908.7
885.2889	1439.8524	8644.15	7761.95
885.4324	1441.6835	8554.15	7670.35
885.5759	1443.5139	8490.1	7603.85
885.7194	1445.3435	8424.4	7543.25
885.8629	1447.1724	8349.1	7464.1
886.0064	1449.0005	8287.8	7404.35
886.1499	1450.8279	8189.6	7303.8
886.2933	1452.6545	8148.95	7263.8
886.4368	1454.4804	8185.65	7302.6
886.5802	1456.3056	8178.3	7288.8
886.7237	1458.13	8097.55	7213.7
886.8671	1459.9536	7887	7004.5
887.0105	1461.7766	7541.15	6657.8
887.1539	1463.5987	7158.7	6274.4
887.2972	1465.4202	6796.2	5912.25
887.4406	1467.2409	6465.8	5581.65
887.584	1469.0608	6213.85	5331.1
887.7273	1470.88	5971.35	5086
887.8706	1472.6984	5762.7	4880.6
888.0139	1474.5161	5585.85	4698.45
888.1572	1476.3331	5452.3	4570.4
888.3005	1478.1493	5329.05	4443
888.4438	1479.9648	5243.75	4358.7
888.5871	1481.7795	5157.55	4273.55
888.7303	1483.5935	5091.45	4210.25
888.8736	1485.4067	5035.1	4152.85
889.0168	1487.2192	4998.9	4118.05
889.16	1489.031	4953.35	4067.35
889.3032	1490.842	4916.55	4033.2
889.4464	1492.6522	4900.5	4016.3
889.5896	1494.4618	4871.1	3985.8
889.7327	1496.2705	4848.55	3965.95
889.8759	1498.0785	4836.55	3950.9
890.019	1499.8858	4779.15	3895.4
890.1622	1501.6924	4775.05	3892.4
890.3053	1503.4981	4753.1	3868.05
890.4484	1505.3032	4744.55	3861.35
890.5914	1507.1075	4731.5	3848.85
890.7345	1508.911	4691.65	3810.5
890.8776	1510.7138	4663.2	3781.25
891.0206	1512.5159	4638.8	3754.1
891.1637	1514.3172	4605.7	3724.35
891.3067	1516.1178	4558.15	3673.8
891.4497	1517.9176	4564.85	3677.7
891.5927	1519.7166	4531.7	3651.15
891.7357	1521.515	4504.1	3613.5
891.8786	1523.3126	4494.55	3609.1
892.0216	1525.1094	4469.15	3585.45
892.1645	1526.9055	4457.65	3576
892.3074	1528.7008	4454.4	3569.35
892.4503	1530.4954	4416.15	3529.5
892.5932	1532.2893	4405.15	3523.6
892.7361	1534.0824	4394.6	3506.3
892.879	1535.8747	4377.95	3492.4
893.0218	1537.6663	4382.45	3498.65
893.1647	1539.4572	4378.6	3494.6
893.3075	1541.2473	4366	3483.25
893.4503	1543.0367	4352.65	3471.5
893.5931	1544.8253	4362.2	3476.15
893.7359	1546.6132	4373.55	3488.95
893.8787	1548.4003	4363	3468.3
894.0214	1550.1867	4382.95	3489.25
894.1642	1551.9723	4386.3	3498.4
894.3069	1553.7572	4415	3530.75
894.4496	1555.5414	4429.05	3543.95
894.5923	1557.3247	4459.15	3575.15
894.735	1559.1074	4515.45	3632.7
894.8777	1560.8893	4555.75	3673.9
895.0204	1562.6705	4617.6	3735.6
895.163	1564.4509	4677.95	3794.2
895.3056	1566.2305	4739.85	3857.15
895.4482	1568.0094	4831.55	3950.4
895.5908	1569.7876	4898.8	4017.05
895.7334	1571.565	4939.6	4055.4
895.876	1573.3417	4979.35	4096.6
896.0186	1575.1176	4988.55	4105.15
896.1611	1576.8928	4969.5	4086
896.3036	1578.6672	4884.1	4001.5
896.4461	1580.4409	4785.55	3901.95
896.5886	1582.2138	4678.9	3794.1
896.7311	1583.986	4585.4	3700.15
896.8736	1585.7575	4491.85	3609.9
897.0161	1587.5282	4425.35	3544.8
897.1585	1589.2981	4385.05	3502.65
897.3009	1591.0673	4339.1	3456.95
897.4433	1592.8358	4324.35	3440.3
897.5857	1594.6035	4331.7	3444.7
897.7281	1596.3704	4323.5	3441.5
897.8705	1598.1366	4335.8	3453.35
898.0128	1599.9021	4367.65	3486.85
898.1551	1601.6668	4384.8	3499.75
898.2975	1603.4308	4430.15	3546.15
898.4398	1605.194	4501.1	3615.05
898.5821	1606.9564	4588.8	3704.7
898.7243	1608.7182	4689.4	3802.7
898.8666	1610.4791	4807.3	3924.55
899.0088	1612.2394	4961.55	4079.6
899.1511	1613.9988	5145.8	4263.5
899.2933	1615.7576	5333.65	4451
899.4355	1617.5156	5539.35	4650.3
899.5776	1619.2728	5748.65	4866.55
899.7198	1621.0293	5903.5	5021.55
899.862	1622.785	5962.3	5077.4
900.0041	1624.54	5912.5	5027.15
900.1462	1626.2942	5789.45	4905.25
900.2883	1628.0477	5570.1	4685.8
900.4304	1629.8005	5369.5	4483.65
900.5725	1631.5525	5166.15	4284.35
900.7145	1633.3037	4980.1	4096.95
900.8566	1635.0542	4830.7	3947.45
900.9986	1636.804	4732.1	3850.1
901.1406	1638.553	4728.6	3771.5
901.2826	1640.3013	4628.3	3744.95
901.4245	1642.0488	4590.25	3704.95
901.5665	1643.7955	4604.45	3721.75
901.7085	1645.5416	4619.8	3739.5
901.8504	1647.2868	4688.7	3806.35
901.9923	1649.0313	4772.35	3890.95
902.1342	1650.7751	4901.05	4016.25
902.2761	1652.5181	5061.5	4180.8
902.4179	1654.2604	5301	4418.25
902.5598	1656.0019	5571.9	4689.05
902.7016	1657.7427	5869.3	4986.65
902.8434	1659.4828	6180.1	5298.65
902.9852	1661.222	6389.9	5507.85
903.127	1662.9606	6421.05	5541.8
903.2687	1664.6984	6267.65	5386.25
903.4105	1666.4354	5915.75	5035.45
903.5522	1668.1717	5501.3	4622.95
903.6939	1669.9072	5102.7	4221.35
903.8356	1671.642	4744.95	3862.75
903.9773	1673.3761	4459.8	3577.1
904.119	1675.1094	4251.8	3369.8
904.2606	1676.8419	4099.65	3219.25
904.4022	1678.5737	3963.3	3080.5
904.5439	1680.3048	3884.15	3002.5
904.6855	1682.0351	3798.2	2915.4
904.827	1683.7646	3752.9	2867.8
904.9686	1685.4934	3703	2822.2
905.1101	1687.2215	3675.7	2792.45
905.2517	1688.9488	3641.1	2761.35
905.3932	1690.6754	3598.75	2717.35
905.5347	1692.4012	3591.85	2710.45
905.6761	1694.1263	3568.7	2687.7
905.8176	1695.8506	3543.85	2661.3
905.9591	1697.5742	3528.05	2647.7
906.1005	1699.297	3512.2	2630.25
906.2419	1701.0191	3493.45	2611.3
906.3833	1702.7404	3469.45	2587.6
906.5246	1704.461	3436.85	2553.25
906.666	1706.1808	3428.4	2545
906.8073	1707.8999	3418.85	2535.5
906.9487	1709.6182	3411.2	2528.95
907.09	1711.3358	3385.65	2503.2
907.2313	1713.0527	3387	2508.45
907.3725	1714.7688	3363.8	2477.25
907.5138	1716.4841	3341.1	2457.4
907.655	1718.1987	3337.85	2451.25
907.7962	1719.9126	3331.3	2451.85
907.9374	1721.6257	3312.05	2427
908.0786	1723.338	3304.4	2420.95
908.2198	1725.0496	3283.5	2400.9
908.3609	1726.7605	3279.2	2396.2
908.502	1728.4706	3270.75	2389.35
908.6431	1730.18	3260.7	2377.5
908.7842	1731.8886	3256.9	2375.45
908.9253	1733.5964	3249.15	2362.75
909.0664	1735.3036	3229.25	2344.35
909.2074	1737.0099	3231.4	2349.55
909.3484	1738.7156	3212.15	2331.95
909.4894	1740.4204	3203.8	2318.6
909.6304	1742.1246	3203.6	2319
909.7714	1743.8279	3186.85	2306.1
909.9123	1745.5306	3190.1	2306.45
910.0532	1747.2325	3159.45	2278.45
910.1941	1748.9336	3160.25	2279.05
910.335	1750.634	3152.65	2270.75
910.4759	1752.3336	3148.65	2265.65
910.6168	1754.0325	3137.35	2257.35
910.7576	1755.7307	3135.85	2255.15
910.8984	1757.4281	3134.6	2252.1
911.0392	1759.1247	3132.3	2242.8
911.18	1760.8206	3119.75	2233.2
911.3208	1762.5158	3105.4	2219.8
911.4615	1764.2102	3095.05	2213.1
911.6022	1765.9039	3110.2	2226.4
911.7429	1767.5968	3078.65	2196.9
911.8836	1769.289	3082.95	2198.15
912.0243	1770.9804	3067.7	2185.5
912.1649	1772.6711	3066.3	2185.25
912.3056	1774.361	3076.05	2193.65
912.4462	1776.0502	3055.8	2174.85
912.5868	1777.7386	3047.65	2163.5
912.7274	1779.4263	3046.85	2164.3
912.8679	1781.1132	3030.8	2148.55
913.0084	1782.7994	3031.7	2145.25
913.149	1784.4849	3019.5	2139.5
913.2895	1786.1696	3024.05	2123.8
913.4299	1787.8535	3018.15	2136.4
913.5704	1789.5367	3001.4	2119.15
913.7108	1791.2192	3010.55	2129.55
913.8513	1792.9009	3009.3	2101.95
913.9917	1794.5818	2980.25	2098.5
914.132	1796.2621	2972.35	2092.75
914.2724	1797.9415	2979.75	2097.75
914.4128	1799.6202	2980.25	2098
914.5531	1801.2982	2970.65	2088.4
914.6934	1802.9755	2959.55	2076.95
914.8337	1804.6519	2949.1	2067.8
914.9739	1806.3277	2938.2	2057.9
915.1142	1808.0027	2940.45	2059.8
915.2544	1809.6769	2946.65	2066.7
915.3946	1811.3504	2924.2	2040.8
915.5348	1813.0231	2931	2049.65
915.675	1814.6951	2928.85	2048.15
915.8151	1816.3664	2927.4	2043.5
915.9553	1818.0369	2928.45	2047.65
916.0954	1819.7067	2904.6	2022.2
916.2355	1821.3757	2903.2	2021.35
916.3755	1823.044	2896.8	2014
916.5156	1824.7115	2909.75	2028.2
916.6556	1826.3783	2878.2	1998.95
916.7956	1828.0443	2873.7	1991.3
916.9356	1829.7096	2872.9	1990.05
917.0756	1831.3741	2881.25	1997.5
917.2155	1833.0379	2865.75	1983.5
917.3555	1834.701	2875	1991.35
917.4954	1836.3633	2864.85	1981.2
917.6353	1838.0248	2859.7	1975.4
917.7751	1839.6856	2846.95	1965.25
917.915	1841.3457	2853.4	1974.9
918.0548	1843.005	2850.05	1968.5
918.1946	1844.6636	2836.35	1955.45
918.3344	1846.3214	2827.7	1945.8
918.4742	1847.9785	2832.4	1951.75
918.6139	1849.6349	2846.8	1964.65
918.7537	1851.2904	2835.45	1945
918.8934	1852.9453	2810.1	1927.4
919.0331	1854.5994	2817.75	1933
919.1727	1856.2528	2820.5	1934.85
919.3124	1857.9054	2806	1923.8
919.452	1859.5572	2799.55	1917.2
919.5916	1861.2083	2795.7	1914.45
919.7312	1862.8587	2805.4	1922.6
919.8708	1864.5084	2790.5	1908.35
920.0103	1866.1572	2783.9	1904.65
920.1498	1867.8054	2781.4	1899.35
920.2893	1869.4528	2770.15	1889.5
920.4288	1871.0994	2760.95	1880.05
920.5683	1872.7453	2764.7	1882.75
920.7077	1874.3905	2776.75	1878.35
920.8471	1876.0349	2758.7	1876.4
920.9865	1877.6786	2743.35	1859.5
921.1259	1879.3215	2745.25	1864.25
921.2653	1880.9637	2726.75	1845.25
921.4046	1882.6051	2738.55	1857
921.5439	1884.2458	2727.95	1842.9
921.6832	1885.8858	2721.4	1840.15
921.8225	1887.525	2721	1838.75
921.9617	1889.1634	2712.05	1830.45
922.101	1890.8011	2702.65	1820
922.2402	1892.4381	2694.85	1814.1
922.3794	1894.0743	2691.55	1811.9
922.5185	1895.7098	2689.55	1807.9
922.6577	1897.3446	2684.6	1803.65
922.7968	1898.9786	2688.45	1800.35
922.9359	1900.6118	2675	1794.45
923.075	1902.2443	2675.75	1792.05
923.214	1903.8761	2658.3	1777.7
923.3531	1905.5071	2653.45	1770.05
923.4921	1907.1374	2646.65	1764.6
923.6311	1908.7669	2642.95	1760.65
923.77	1910.3957	2648.7	1766.75
923.909	1912.0237	2619.6	1737.75
924.0479	1913.651	2642.15	1759.85
924.1868	1915.2776	2623.5	1743.55
924.3257	1916.9034	2624.35	1744.85
924.4646	1918.5285	2611	1730.2
924.6034	1920.1528	2602.75	1718.85
924.7422	1921.7764	2612.85	1733.45
924.881	1923.3992	2610.1	1729.4
925.0198	1925.0213	2591.1	1708.8
925.1586	1926.6427	2585.25	1704.75
925.2973	1928.2633	2780.25	1662.7
925.436	1929.8832	2608.6	1723.05
925.5747	1931.5023	2566.8	1683.65
925.7134	1933.1207	2558.65	1676.6
925.852	1934.7383	2562.9	1681.95
925.9906	1936.3552	2544.85	1665.05
926.1292	1937.9714	2545.3	1662.85
926.2678	1939.5868	2550.75	1667.4
926.4064	1941.2015	2539.05	1657.65
926.5449	1942.8154	2524.1	1641.6
926.6834	1944.4286	2520.35	1638.6
926.8219	1946.041	2542.8	1638.5
926.9604	1947.6528	2518.7	1633.45
927.0988	1949.2637	2495	1614.25
927.2372	1950.8739	2499.45	1616.6
927.3756	1952.4834	2494.5	1613.55
927.514	1954.0921	2497.75	1616.3
927.6523	1955.7001	2481.75	1598.1
927.7907	1957.3074	2487.7	1605.8
927.929	1958.9139	2468.75	1587.35
928.0673	1960.5197	2468.85	1586.55
928.2055	1962.1247	2461.85	1580.6
928.3438	1963.729	2442.55	1563.5
928.482	1965.3325	2454.25	1548.7
928.6202	1966.9353	2428.1	1545.85
928.7584	1968.5374	2437.55	1555.7
928.8965	1970.1387	2424.7	1541.6
929.0346	1971.7393	2421.3	1539.3
929.1727	1973.3392	2419.25	1537.7
929.3108	1974.9383	2420.65	1541.3
929.4489	1976.5366	2403	1521.75
929.5869	1978.1342	2403.55	1521.5
929.7249	1979.7311	2404.35	1521.35
929.8629	1981.3273	2393.3	1512.8
930.0009	1982.9227	2383.65	1500.15
930.1388	1984.5173	2391.75	1510
930.2767	1986.1112	2378.6	1497.35
930.4146	1987.7044	2376.3	1495.55
930.5525	1989.2968	2369.65	1486.9
930.6904	1990.8885	2380.6	1496.45
930.8282	1992.4795	2365.7	1483.3
930.966	1994.0697	2363	1479.9
931.1038	1995.6592	2351.4	1470.15
931.2415	1997.2479	2344.9	1463.05
931.3793	1998.8359	2342.8	1461.15
931.517	2000.4232	2340.65	1458.6
931.6547	2002.0097	2339.1	1458.55
931.7923	2003.5955	2319.2	1436.9
931.93	2005.1805	2324.45	1441.7
932.0676	2006.7648	2326.1	1444.7
932.2052	2008.3484	2320.25	1438.25
932.3427	2009.9312	2329.15	1444.95
932.4803	2011.5133	2304.35	1422.75
932.6178	2013.0946	2306.05	1423.1
932.7553	2014.6752	2308.7	1425.55
932.8928	2016.2551	2305.95	1424.6
933.0302	2017.8342	2295.35	1413.85
933.1676	2019.4126	2285.35	1405.8
933.305	2020.9902	2291.2	1410.3
933.4424	2022.5672	2295.45	1412.8
933.5798	2024.1433	2287.1	1398.8
933.7171	2025.7188	2283.45	1404.05
933.8544	2027.2935	2271.55	1387.7
933.9917	2028.8674	2269.6	1387.6
934.129	2030.4406	2259.75	1379.25
934.2662	2032.0131	2254.6	1372.45
934.4034	2033.5849	2254.75	1368.15
934.5406	2035.1559	2251.4	1369.1
934.6778	2036.7261	2243.5	1361.9
934.8149	2038.2957	2242	1361.65
934.952	2039.8645	2249.55	1367.65
935.0891	2041.4325	2249.15	1364.5
935.2262	2042.9998	2232.15	1350.5
935.3632	2044.5664	2230.8	1346.5
935.5002	2046.1323	2223.3	1341.1
935.6372	2047.6974	2221.75	1340.25
935.7742	2049.2617	2226.75	1345.8
935.9111	2050.8254	2247	1332.5
936.048	2052.3883	2215.05	1332.65
936.1849	2053.9504	2207.4	1322.8
936.3218	2055.5118	2214.25	1331.8
936.4586	2057.0725	2195.5	1311.3
936.5955	2058.6325	2199.2	1317
936.7323	2060.1917	2192.35	1311.25
936.869	2061.7502	2181.3	1295.3
937.0058	2063.3079	2188.8	1307.55
937.1425	2064.8649	2189.05	1302.85
937.2792	2066.4212	2185.45	1301.75
937.4159	2067.9767	2178.9	1298.5
937.5525	2069.5315	2165.95	1285.35
937.6891	2071.0856	2164.2	1281.5
937.8257	2072.6389	2153.45	1271.85
937.9623	2074.1915	2154.75	1274
938.0989	2075.7433	2158.95	1276.1
938.2354	2077.2945	2142.25	1264.1
938.3719	2078.8448	2142	1260.7
938.5084	2080.3945	2135.15	1254.3
938.6448	2081.9434	2142.1	1262.25
938.7812	2083.4916	2135.75	1255.75
938.9176	2085.039	2123.5	1241.6
939.054	2086.5857	2127	1243
939.1903	2088.1317	2122.4	1242
939.3267	2089.677	2105.35	1222.9
939.463	2091.2215	2111.85	1230.25
939.5992	2092.7652	2120.4	1237.2
939.7355	2094.3083	2096.25	1215
939.8717	2095.8506	2102.55	1223.35
940.0079	2097.3921	2109.55	1228.8
940.1441	2098.933	2095.9	1216.1
940.2802	2100.4731	2090.55	1206.95
940.4163	2102.0124	2097.55	1209.5
940.5524	2103.5511	2090.5	1209.95
940.6885	2105.089	2096.5	1214.35
940.8245	2106.6261	2087.5	1205.9
940.9606	2108.1626	2089.85	1206.95
941.0965	2109.6983	2113.1	1201.45
941.2325	2111.2332	2073.2	1190.5
941.3684	2112.7675	2074.2	1191.95
941.5044	2114.301	2072.5	1189.2
941.6403	2115.8337	2072.65	1190.55
941.7761	2117.3657	2065.2	1182.65
941.912	2118.897	2062.05	1178.4
942.0478	2120.4276	2068.25	1180.25
942.1835	2121.9575	2057.5	1175.35
942.3193	2123.4866	2065.15	1168.5
942.455	2125.0149	2061	1176.7
942.5907	2126.5426	2043.7	1160.95
942.7264	2128.0695	2052.55	1166.1
942.8621	2129.5956	2046.5	1165.4
942.9977	2131.1211	2045.4	1158.55
943.1333	2132.6458	2029.7	1148.3
943.2689	2134.1698	2026.95	1144.95
943.4044	2135.693	2032.7	1146.2
943.54	2137.2155	2032.85	1148.45
943.6755	2138.7373	2019.85	1137.2
943.8109	2140.2584	2017.9	1136.05
943.9464	2141.7787	2017.85	1129.7
944.0818	2143.2983	2018.05	1137.1
944.2172	2144.8171	2006.4	1124.95
944.3526	2146.3353	2001.6	1117.8
944.4879	2147.8527	1992.7	1111.5
944.6232	2149.3693	2002.35	1120.4
944.7585	2150.8853	2000.2	1117.2
944.8938	2152.4005	1986.15	1103.85
945.029	2153.9149	1985.3	1104.9
945.1642	2155.4287	1983.65	1101.65
945.2994	2156.9417	1977.4	1095.85
945.4346	2158.454	1980.7	1096.35
945.5697	2159.9655	1981.9	1100
945.7048	2161.4764	1965.65	1083.6
945.8399	2162.9865	1974.95	1092.6
945.9749	2164.4958	1971.35	1087.7
946.1099	2166.0045	1967.85	1082.9
946.2449	2167.5124	1958.85	1076.25
946.3799	2169.0195	1950.3	1069.25
946.5148	2170.526	1953.7	1069.8
946.6498	2172.0317	1948.7	1066.9
946.7846	2173.5367	1951.6	1068.2
946.9195	2175.0409	1944.55	1063.65
947.0543	2176.5445	1948.45	1069.2
947.1891	2178.0473	1954	1073.45
947.3239	2179.5494	1948.5	1062.9
947.4587	2181.0507	1933.4	1050.9
947.5934	2182.5513	1940.7	1058.95
947.7281	2184.0512	1933.4	1051.2
947.8628	2185.5504	1930.55	1049.25
947.9974	2187.0488	1919.15	1034.65
948.132	2188.5465	1930.55	1050.65
948.2666	2190.0435	1916.85	1034.1
948.4012	2191.5397	1922.4	1041.7
948.5357	2193.0353	1916.4	1033.85
948.6702	2194.5301	1906.9	1024.3
948.8047	2196.0241	1921.8	1039.2
948.9392	2197.5175	1906.4	1024.25
949.0736	2199.0101	1908.2	1023.95
949.208	2200.502	1897.35	1014.85
949.3424	2201.9931	1886.4	1002.9
949.4767	2203.4835	1885.8	1004.25
949.611	2204.9733	1889.75	1003.65
949.7453	2206.4622	1879.95	998.45
949.8796	2207.9505	1881.2	995.9
950.0138	2209.438	1869.85	986.8
950.148	2210.9248	1865.8	981.55
950.2822	2212.4109	1872.85	991.45
950.4164	2213.8962	1868.15	983.75
950.5505	2215.3809	1867.05	985.7
950.6846	2216.8648	1865.5	982.65
950.8186	2218.3479	1864.15	978.65
950.9527	2219.8304	1858.1	974.75
951.0867	2221.3121	1848.85	963.8
951.2207	2222.7931	1844.6	964.65
951.3546	2224.2733	1843.35	959.55
951.4886	2225.7529	1836.8	955
951.6225	2227.2317	1839.5	954.2
951.7563	2228.7098	1832.85	952.7
951.8902	2230.1872	1837.05	954.7
952.024	2231.6638	1837.1	954.35
952.1578	2233.1397	1832.45	943.65
952.2916	2234.6149	1829.65	948.6
952.4253	2236.0894	1819.9	937.4
952.559	2237.5632	1824.75	931.45
952.6927	2239.0362	1819.7	937.8
952.8263	2240.5085	1805	922.95
952.9599	2241.9801	1804.05	922.3
953.0935	2243.4509	1806.25	923.25
953.2271	2244.921	1804.6	923.9
953.3606	2246.3904	1798.05	913.5
953.4941	2247.8591	1789.8	908.95
953.6276	2249.3271	1797.15	915.7
953.7611	2250.7943	1785.6	900.75
953.8945	2252.2608	1787.15	907.2
954.0279	2253.7266	1782.75	899.85
954.1612	2255.1917	1781.65	899.2
954.2946	2256.656	1789.1	905.65
954.4279	2258.1197	1770.9	888.25
954.5612	2259.5826	1770.35	886.7
954.6944	2261.0447	1768.2	884.6
954.8276	2262.5062	1768.1	884.05
954.9608	2263.9669	1771.3	886.9
955.094	2265.4269	1760.65	880.55
955.2271	2266.8862	1767.45	885.2
955.3602	2268.3448	1750.6	867.4
955.4933	2269.8026	1763	880.85
955.6264	2271.2598	1747.7	867.95
955.7594	2272.7162	1751.25	869.2
955.8924	2274.1719	1750.75	869.25
956.0253	2275.6268	1752.1	868.7
956.1583	2277.0811	1745.8	863.65
956.2912	2278.5346	1743.9	861.95
956.4241	2279.9874	1748.6	866.8
956.5569	2281.4395	1744.15	863.8
956.6897	2282.8908	1747.75	859.7
956.8225	2284.3414	1740.1	855
956.9553	2285.7914	1735.25	854
957.088	2287.2406	1733.4	849.55
957.2207	2288.689	1728.25	847.3
957.3534	2290.1368	1732.05	850.3
957.486	2291.5838	1728.55	846.45
957.6186	2293.0302	1729.1	847.45
957.7512	2294.4758	1710.6	829.7
957.8838	2295.9206	1719.75	836.1
958.0163	2297.3648	1720.7	841.05
958.1488	2298.8082	1715.1	831.3
958.2813	2300.251	1720.6	838.25
958.4137	2301.693	1704.8	821.4
958.5461	2303.1343	1699.9	816.1
958.6785	2304.5748	1695.15	811.7
958.8108	2306.0147	1699.35	814.65
958.9432	2307.4538	1704.15	820.05
959.0754	2308.8922	1691.25	810.25
959.2077	2310.3299	1699.1	819.7
959.3399	2311.7669	1692	809.1
959.4721	2313.2031	1684.9	802.45
959.6043	2314.6387	1679.35	797.65
959.7365	2316.0735	1673.5	791.15
959.8686	2317.5076	1683.15	800.55
960.0006	2318.941	1675.65	795.55
960.1327	2320.3737	1670.35	788.2
960.2647	2321.8056	1676.65	792.55
960.3967	2323.2369	1671.55	788.65
960.5287	2324.6674	1672.25	787.35
960.6606	2326.0972	1672.75	787.75
960.7925	2327.5263	1661.8	780.85
960.9244	2328.9547	1667.3	784.1
961.0562	2330.3823	1667.65	784.55
961.1881	2331.8092	1664.4	779.6
961.3198	2333.2355	1660.95	780.55
961.4516	2334.661	1654.2	771.6
961.5833	2336.0858	1659.55	776.45
961.715	2337.5098	1650.3	769.4
961.8467	2338.9332	1646.9	764.35
961.9783	2340.3558	1651.85	766.85
962.1099	2341.7778	1644.55	760.15
962.2415	2343.199	1647.65	762.45
962.373	2344.6195	1637.4	755.35
962.5045	2346.0393	1646.05	766.4
962.636	2347.4583	1648.2	764.55
962.7675	2348.8767	1642.85	760.65
962.8989	2350.2943	1642.9	758.3
963.0303	2351.7113	1636.2	752.65
963.1617	2353.1275	1633.2	752.25
963.293	2354.543	1658.5	751.2
963.4243	2355.9578	1639.25	756.55
963.5556	2357.3718	1627.6	744.4
963.6868	2358.7852	1628.9	744.9
963.818	2360.1978	1622.35	740.9
963.9492	2361.6098	1621.4	741.8
964.0803	2363.021	1626.5	741.85
964.2114	2364.4315	1612	731.55
964.3425	2365.8413	1618.3	735.4
964.4736	2367.2504	1608.2	728.85
964.6046	2368.6587	1601.5	720
964.7356	2370.0664	1599.55	717.25
964.8666	2371.4733	1607.6	727.25
964.9975	2372.8795	1600.7	719
965.1284	2374.285	1592.15	709.45
965.2593	2375.6899	1592.4	710.7
965.3901	2377.0939	1590.5	708.9
965.5209	2378.4973	1590.95	710.4
965.6517	2379.9	1592.25	709.75
965.7825	2381.3019	1586.55	704.75
965.9132	2382.7032	1585.4	705.2
966.0439	2384.1037	1586.5	707.75
966.1745	2385.5035	1576.5	696.8
966.3051	2386.9027	1579.8	701.6
966.4357	2388.3011	1582.45	697.75
966.5663	2389.6987	1575.65	693.85
966.6968	2391.0957	1572.8	692.2
966.8273	2392.492	1561.1	679.6
966.9578	2393.8876	1558	676.25
967.0882	2395.2824	1563.75	682.7
967.2186	2396.6765	1552.8	673.2
967.349	2398.07	1546.7	667.8
967.4793	2399.4627	1556.8	673.8
967.6097	2400.8547	1556.1	676.6
967.7399	2402.246	1559.3	672.8
967.8702	2403.6366	1546.95	666.3
968.0004	2405.0265	1547.7	665.8
968.1306	2406.4156	1547.9	661.8
968.2607	2407.8041	1550.4	664.85
968.3909	2409.1918	1545.3	660.75
968.521	2410.5789	1541.85	662.1
968.651	2411.9652	1535.2	651.35
968.781	2413.3508	1531.7	651.75
968.911	2414.7358	1535.45	652.85
969.041	2416.12	1533.5	651.85
969.1709	2417.5035	1527.95	647.25
969.3008	2418.8863	1526.55	645.95
969.4307	2420.2684	1526.9	645.7
969.5606	2421.6497	1528.05	646.15
969.6904	2423.0304	1514.75	635
969.8201	2424.4104	1519.55	637.85
969.9499	2425.7896	1530.9	642.75
970.0796	2427.1682	1517.15	637.05
970.2093	2428.546	1515.45	632
970.3389	2429.9232	1516.6	632.6
970.4685	2431.2996	1512	630.8
970.5981	2432.6753	1507.55	626.5
970.7277	2434.0503	1503.45	620.85
970.8572	2435.4246	1504.4	625.4
970.9867	2436.7982	1503.65	621.45
971.1161	2438.1711	1507.7	627.35
971.2456	2439.5433	1501.05	617.9
971.375	2440.9148	1504.75	618.85
971.5043	2442.2856	1490.1	608.9
971.6336	2443.6557	1493.8	609.8
971.7629	2445.025	1494.4	612.35
971.8922	2446.3937	1499.25	618.1
972.0214	2447.7617	1487.5	605.65
972.1506	2449.1289	1488.75	609.05
972.2798	2450.4955	1491.1	608.75
972.4089	2451.8613	1489.05	608.65
972.538	2453.2265	1486.15	603.8
972.6671	2454.5909	1486.65	604.15
972.7961	2455.9546	1484.05	604.4
972.9251	2457.3177	1483.9	602.75
973.0541	2458.68	1485.9	603.4
973.1831	2460.0416	1480.9	597.4
973.312	2461.4025	1484.35	601.15
973.4408	2462.7627	1483.75	590.95
973.5697	2464.1222	1473.6	592.1
973.6985	2465.4811	1478.95	597.95
973.8273	2466.8392	1477.5	596.45
973.956	2468.1966	1476.3	590.95
974.0847	2469.5533	1471	587.95
974.2134	2470.9093	1471.7	589.75
974.3421	2472.2645	1471	586.65
974.4707	2473.6191	1465.25	584.15
974.5993	2474.973	1471.1	588.8
974.7278	2476.3262	1470.8	587.25
974.8563	2477.6787	1465.5	582.1
974.9848	2479.0305	1461.25	579.4
975.1132	2480.3816	1463.35	579.65
975.2417	2481.7319	1464.55	582.65
975.37	2483.0816	1458.4	577.5
975.4984	2484.4306	1459.45	576.25
975.6267	2485.7789	1451.05	569.5
975.755	2487.1264	1451.05	567.95
975.8833	2488.4733	1443	564.35
976.0115	2489.8195	1469.6	570.2
976.1397	2491.165	1448.15	562.95
976.2678	2492.5097	1441.95	557.45
976.3959	2493.8538	1437.45	555.2
976.524	2495.1972	1441.2	556.4
976.6521	2496.5398	1439.55	557.1
976.7801	2497.8818	1436.65	552.35
976.9081	2499.2231	1432.5	551.65
977.036	2500.5637	1426.35	543.35
977.164	2501.9035	1428.15	546.75
977.2918	2503.2427	1429.35	543.8
977.4197	2504.5812	1427.65	544.85
977.5475	2505.919	1428.9	545.5
977.6753	2507.256	1429.2	547.35
977.8031	2508.5924	1421.55	538.3
977.9308	2509.9281	1429.05	541.4
978.0585	2511.2631	1425.65	545.05
978.1861	2512.5974	1421.3	538.05
978.3137	2513.9309	1422.75	542.2
978.4413	2515.2638	1440.45	531.35
978.5689	2516.596	1410.5	530
978.6964	2517.9275	1414.15	529.55
978.8239	2519.2583	1411.5	529.15
978.9513	2520.5884	1414.95	533.4
979.0788	2521.9178	1406.95	526.95
979.2062	2523.2465	1400.8	519.95
979.3335	2524.5745	1403.8	522.15
979.4608	2525.9018	1413.85	531.75
979.5881	2527.2284	1403.35	522.5
979.7154	2528.5543	1403.9	523.25
979.8426	2529.8796	1401.65	518.85
979.9698	2531.2041	1403.65	521
980.0969	2532.5279	1402.45	520.75
980.224	2533.851	1392.4	510.95
980.3511	2535.1735	1393.65	513.6
980.4781	2536.4952	1395.3	512.2
980.6052	2537.8163	1393.3	513.75
980.7321	2539.1366	1402.85	522.5
980.8591	2540.4562	1387.5	505.75
980.986	2541.7752	1387.15	507.35
981.1129	2543.0935	1389.1	506.55
981.2397	2544.411	1393.35	510.85
981.3665	2545.7279	1395.25	515.25
981.4933	2547.0441	1388.05	504.85
981.62	2548.3596	1386.25	501.4
981.7467	2549.6744	1382.3	500.7
981.8734	2550.9885	1384.75	493.85
982.0001	2552.3019	1384.1	502.1
982.1267	2553.6146	1383.55	501.8
982.2532	2554.9266	1381.4	499.15
982.3798	2556.2379	1372	487.3
982.5063	2557.5485	1376.9	497.5
982.6327	2558.8585	1382.9	493.55
982.7592	2560.1677	1375.15	489.75
982.8856	2561.4762	1372.35	489
983.0119	2562.7841	1375.55	491.1
983.1383	2564.0913	1362.6	482.15
983.2646	2565.3977	1369.1	485.75
983.3908	2566.7035	1367.4	485.1
983.517	2568.0086	1366.1	485.4
983.6432	2569.313	1366.45	482.4
983.7694	2570.6167	1368.95	485.45
983.8955	2571.9197	1363.7	482.5
984.0216	2573.222	1361.3	478.2
984.1476	2574.5236	1371.65	489.65
984.2737	2575.8246	1371.05	485.35
984.3996	2577.1248	1367.45	482.45
984.5256	2578.4244	1365.15	484.55
984.6515	2579.7232	1361.05	478.35
984.7774	2581.0214	1393.65	476.15
984.9032	2582.3189	1368.5	485.6
985.029	2583.6157	1373.1	487.45
985.1548	2584.9118	1370.55	487.5
985.2806	2586.2072	1366.35	486.8
985.4063	2587.5019	1368	486
985.5319	2588.7959	1370.65	489.55
985.6576	2590.0893	1375.25	490.85
985.7832	2591.3819	1366.3	484.3
985.9087	2592.6739	1369.1	488.35
986.0343	2593.9652	1372.2	488.25
986.1597	2595.2557	1376.75	495
986.2852	2596.5456	1375.2	492.6
986.4106	2597.8348	1371.4	490.7
986.536	2599.1234	1371.6	490.6
986.6614	2600.4112	1377.2	494.95
986.7867	2601.6983	1378.75	493
986.912	2602.9848	1374.3	492.05
987.0372	2604.2705	1382.55	494.9
987.1624	2605.5556	1382.55	500.25
987.2876	2606.84	1370.15	487.45
987.4128	2608.1237	1373.25	488.1
987.5379	2609.4067	1367.75	484.75
987.6629	2610.689	1377.9	486.15
987.788	2611.9707	1373.15	487.45
987.913	2613.2516	1371	485.8
988.0379	2614.5319	1364.15	481.6
988.1629	2615.8115	1362	481.7
988.2878	2617.0903	1364.95	479.2
988.4126	2618.3685	1365.65	482.45
988.5375	2619.6461	1355.3	473.25
988.6622	2620.9229	1357.25	475.2
988.787	2622.199	1355.95	470.9
988.9117	2623.4745	1360.35	476.85
989.0364	2624.7493	1358.1	476.15
989.161	2626.0234	1359.55	481.4
989.2857	2627.2968	1361.05	478.9
989.4102	2628.5695	1359.95	476.35
989.5348	2629.8415	1355.45	473.35
989.6593	2631.1128	1360.85	478.15
989.7837	2632.3835	1356.75	475.8
989.9082	2633.6535	1353.7	471.7
990.0326	2634.9228	1354.15	472.3
990.1569	2636.1914	1356.8	476.35
990.2812	2637.4593	1357.9	471.4
990.4055	2638.7265	1353.5	470.7
990.5298	2639.9931	1355.9	472.8
990.654	2641.259	1355.45	471.65
990.7782	2642.5242	1353.05	471.35
990.9023	2643.7887	1354.1	471.9
991.0264	2645.0525	1353.35	469.5
991.1505	2646.3156	1347.6	463.1
991.2745	2647.5781	1350.5	468.05
991.3985	2648.8398	1340.25	458.1
991.5225	2650.1009	1381.75	461.45
991.6464	2651.3613	1343.85	461.6
991.7703	2652.6211	1338.75	457.8
991.8942	2653.8801	1342.35	460.75
992.018	2655.1385	1347	463
992.1418	2656.3961	1342.8	461.45
992.2655	2657.6531	1341.45	459.25
992.3892	2658.9094	1343.55	462.95
992.5129	2660.1651	1343.2	461.7
992.6366	2661.42	1342.55	461
992.7602	2662.6743	1345	460.7
992.8837	2663.9279	1349.55	466.85
993.0073	2665.1808	1345.35	463.05
993.1307	2666.433	1342.3	460.45
993.2542	2667.6846	1348.45	468.25
993.3776	2668.9354	1350.8	466.9
993.501	2670.1856	1356.6	475.65
993.6244	2671.4351	1355.95	473.8
993.7477	2672.6839	1357.9	475.15
993.8709	2673.9321	1357.4	475.2
993.9942	2675.1795	1360.9	478.45
994.1174	2676.4263	1365.7	483.1
994.2405	2677.6724	1364.2	481.65
994.3637	2678.9179	1365.2	484.15
994.4868	2680.1626	1360.45	479.5
994.6098	2681.4067	1367.65	485.25
994.7328	2682.6501	1361.45	478.55
994.8558	2683.8928	1368.85	486.9
994.9788	2685.1348	1359	474.9
995.1017	2686.3761	1359.7	476
995.2245	2687.6168	1357.8	474.75
995.3474	2688.8568	1354	472.4
995.4702	2690.0961	1349.75	469.4
995.5929	2691.3348	1347.8	465.9
995.7156	2692.5727	1342.6	462.45
995.8383	2693.81	1340.55	461.65
995.961	2695.0466	1337.55	458.7
996.0836	2696.2826	1340.65	457.1
996.2062	2697.5178	1343.85	458.8
996.3287	2698.7524	1337.1	457.5
996.4512	2699.9863	1344.75	460.7
996.5737	2701.2195	1344.15	462.5
996.6961	2702.452	1350.55	467.7
996.8185	2703.6839	1343.3	461.05
996.9408	2704.9151	1356.4	474.7
997.0631	2706.1456	1357.55	476.1
997.1854	2707.3755	1364.35	482.2
997.3077	2708.6046	1371.9	486.75
997.4299	2709.8331	1372.1	488.1
997.552	2711.0609	1380.35	499.55
997.6742	2712.2881	1384.65	502.65
997.7963	2713.5145	1405.8	520.2
997.9183	2714.7403	1406.55	526.75
998.0403	2715.9654	1415.05	533.25
998.1623	2717.1899	1440.65	542.45
998.2842	2718.4136	1446.5	565.1
998.4062	2719.6367	1445.95	564.8
998.528	2720.8591	1469.95	581.75
998.6498	2722.0809	1470.1	589
998.7716	2723.3019	1489.8	605.35
998.8934	2724.5223	1485.75	603.2
999.0151	2725.7421	1493.4	611.1
999.1368	2726.9611	1490.3	606.5
999.2584	2728.1795	1489.5	604.85
999.38	2729.3972	1488.3	606.45
999.5016	2730.6142	1486.7	592.7
999.6231	2731.8306	1468.5	584.6
999.7446	2733.0462	1452.3	568.8
999.8661	2734.2612	1434.1	546.9
999.9875	2735.4756	1414.85	530.15
1000.1089	2736.6892	1411.2	528.35
1000.2302	2737.9022	1391.05	510.05
1000.3515	2739.1145	1377.9	495.35
1000.4728	2740.3262	1375.75	487.15
1000.594	2741.5372	1359.3	478.55
1000.7152	2742.7475	1346.3	463.5
1000.8363	2743.9571	1335.1	451.5
1000.9575	2745.1661	1334.75	448.05
1001.0785	2746.3744	1328.45	445.2
1001.1996	2747.582	1315.65	434.75
1001.3206	2748.7889	1307.1	424.65
1001.4415	2749.9952	1308.9	428
1001.5625	2751.2008	1304.7	420.6
1001.6833	2752.4057	1297.75	413.1
1001.8042	2753.61	1293.9	410.15
1001.925	2754.8136	1293.05	409.55
1002.0458	2756.0165	1293.25	410.35
1002.1665	2757.2188	1291.7	410.15
1002.2872	2758.4204	1291.15	407.6
1002.4078	2759.6213	1287.75	403.2
1002.5285	2760.8215	1299.6	411.15
1002.649	2762.0211	1292.75	409.2
1002.7696	2763.22	1294.6	409.25
1002.8901	2764.4182	1287.4	404.95
1003.0106	2765.6158	1283.45	400.65
1003.131	2766.8127	1281.1	399.05
1003.2514	2768.009	1279.25	396.4
1003.3717	2769.2045	1273.4	390.75
1003.492	2770.3994	1279.85	396.7
1003.6123	2771.5936	1277.4	394.4
1003.7325	2772.7872	1266.45	385.7
1003.8527	2773.9801	1267.9	382.45
1003.9729	2775.1723	1279.35	381.5
1004.093	2776.3639	1267.6	385.7
1004.2131	2777.5548	1268.75	381.85
1004.3331	2778.745	1284.15	399.9
1004.4531	2779.9346	1273.8	390.65
1004.5731	2781.1235	1277.9	395.55
1004.693	2782.3117	1281.9	400.4
1004.8129	2783.4992	1286	403.5
1004.9328	2784.6861	1290.1	408.15
1005.0526	2785.8723	1297.9	413.4
1005.1723	2787.0579	1305	423.5
1005.2921	2788.2428	1305.95	423.7
1005.4118	2789.427	1312.45	429.55
1005.5314	2790.6106	1331.2	450.25
1005.651	2791.7935	1336.3	453.85
1005.7706	2792.9757	1347.8	466.45
1005.8902	2794.1573	1370.05	488.5
1006.0097	2795.3382	1371.3	489.05
1006.1291	2796.5184	1388.3	509
1006.2485	2797.698	1409.25	523.75
1006.3679	2798.8769	1418.45	536.25
1006.4873	2800.0551	1438.1	555.75
1006.6066	2801.2327	1449.2	564.3
1006.7258	2802.4096	1472.05	590.2
1006.8451	2803.5859	1481.8	598.4
1006.9642	2804.7615	1506	625.3
1007.0834	2805.9364	1531.3	650.05
1007.2025	2807.1106	1558.7	676.6
1007.3216	2808.2842	1582.3	699.35
1007.4406	2809.4572	1609.4	726.55
1007.5596	2810.6294	1650.15	767.25
1007.6785	2811.801	1687.9	806.9
1007.7975	2812.972	1721.3	839.45
1007.9163	2814.1423	1765.85	884.8
1008.0352	2815.3119	1813	930.4
1008.154	2816.4808	1854.1	975.55
1008.2727	2817.6491	1892.7	1008.9
1008.3914	2818.8167	1947.5	1066.5
1008.5101	2819.9837	1991.9	1102.95
1008.6288	2821.15	2023.85	1140.45
1008.7474	2822.3157	2071.7	1190.3
1008.8659	2823.4807	2115.7	1231
1008.9844	2824.645	2156.05	1271.9
1009.1029	2825.8086	2197.55	1316.45
1009.2214	2826.9716	2231.9	1352.1
1009.3398	2828.134	2252.55	1371.05
1009.4581	2829.2957	2297.1	1416
1009.5764	2830.4567	2318.45	1436.95
1009.6947	2831.617	2348.75	1468.55
1009.813	2832.7767	2357	1475.9
1009.9312	2833.9358	2349.45	1467.65
1010.0493	2835.0941	2353	1468.9
1010.1675	2836.2519	2346.85	1465.4
1010.2855	2837.4089	2322.45	1437.95
1010.4036	2838.5653	2306.8	1425.3
1010.5216	2839.7211	2314.7	1435.3
1010.6396	2840.8761	2320.7	1436.85
1010.7575	2842.0306	2346.05	1465.2
1010.8754	2843.1843	2374.15	1494.5
1010.9932	2844.3374	2421.5	1538.2
1011.111	2845.4899	2480.2	1598.4
1011.2288	2846.6417	2548.1	1666.95
1011.3465	2847.7928	2622.55	1742.35
1011.4642	2848.9433	2693.55	1810.7
1011.5818	2850.0931	2753.4	1872.65
1011.6995	2851.2422	2830.2	1946.5
1011.817	2852.3907	2892.15	2008.65
1011.9345	2853.5385	2967.55	2085.65
1012.052	2854.6857	3028.65	2116.7
1012.1695	2855.8323	3056.65	2174.6
1012.2869	2856.9781	3108.65	2224.8
1012.4042	2858.1233	3149.55	2268.5
1012.5216	2859.2679	3199.2	2318.05
1012.6389	2860.4118	3233.6	2351.6
1012.7561	2861.555	3287.55	2403.85
1012.8733	2862.6976	3299.75	2415.45
1012.9905	2863.8395	3316.2	2434.4
1013.1076	2864.9808	3365	2483.8
1013.2247	2866.1214	3376.9	2496.1
1013.3417	2867.2614	3385.05	2501.6
1013.4587	2868.4007	3386.3	2503.6
1013.5757	2869.5393	3402.2	2519.3
1013.6926	2870.6773	3410.2	2524.8
1013.8095	2871.8146	3431.2	2546.85
1013.9263	2872.9513	3447.7	2563.35
1014.0431	2874.0874	3442.8	2560.15
1014.1599	2875.2227	3430.45	2550.15
1014.2766	2876.3574	3390.45	2509.05
1014.3933	2877.4915	3382.6	2502
1014.51	2878.6249	3365.2	2484.5
1014.6266	2879.7577	3342.15	2459.25
1014.7431	2880.8898	3319.5	2423.85
1014.8596	2882.0212	3314.65	2434.7
1014.9761	2883.152	3293.8	2409.75
1015.0925	2884.2821	3290.25	2408.25
1015.2089	2885.4116	3285.1	2402.85
1015.3253	2886.5405	3279.8	2397.45
1015.4416	2887.6686	3303.55	2417.5
1015.5579	2888.7962	3292.7	2411.65
1015.6741	2889.923	3298.9	2417.1
1015.7903	2891.0493	3322.7	2442.95
1015.9065	2892.1748	3314.1	2430.75
1016.0226	2893.2997	3337.2	2452.7
1016.1387	2894.424	3363.2	2482.55
1016.2547	2895.5476	3366.05	2485.9
1016.3707	2896.6706	3395.25	2515.55
1016.4866	2897.7929	3401.55	2518.75
1016.6025	2898.9145	3440.1	2560.7
1016.7184	2900.0355	3473.55	2592.25
1016.8342	2901.1559	3499.05	2618.95
1016.95	2902.2756	3523.45	2641.5
1017.0658	2903.3946	3563.65	2681.5
1017.1815	2904.513	3584.4	2698.85
1017.2971	2905.6308	3618.05	2738.3
1017.4127	2906.7479	3632.75	2748.4
1017.5283	2907.8643	3660.7	2778.2
1017.6439	2908.9801	3692.35	2810.4
1017.7594	2910.0953	3676.1	2795.3
1017.8748	2911.2098	3679.8	2793.65
1017.9902	2912.3236	3686.6	2795.4
1018.1056	2913.4368	3669.05	2785.55
1018.2209	2914.5494	3641.95	2759.85
1018.3362	2915.6613	3626.45	2738.6
1018.4515	2916.7725	3587.55	2701.7
1018.5667	2917.8831	3569.35	2686.3
1018.6819	2918.9931	3538.55	2652.9
1018.797	2920.1024	3521.55	2638.5
1018.9121	2921.211	3489.4	2607.1
1019.0271	2922.319	3469.35	2587.3
1019.1421	2923.4264	3460.75	2577.65
1019.2571	2924.5331	3446.05	2565.15
1019.372	2925.6391	3440.45	2559.35
1019.4869	2926.7445	3424.95	2545.25
1019.6017	2927.8493	3414.9	2531.9
1019.7165	2928.9534	3418.4	2536.75
1019.8313	2930.0569	3414.95	2529.9
1019.946	2931.1597	3400.3	2516.1
1020.0606	2932.2619	3405.3	2523.75
1020.1753	2933.3634	3389.05	2506.8
1020.2899	2934.4643	3386	2496.85
1020.4044	2935.5645	3374.45	2485.85
1020.5189	2936.6641	3338.1	2450.75
1020.6334	2937.763	3302.8	2420.8
1020.7478	2938.8613	3235	2353.75
1020.8622	2939.959	3191.05	2302.95
1020.9765	2941.056	3123.45	2242.95
1021.0908	2942.1523	3047.25	2161.85
1021.2051	2943.248	2970.5	2087.3
1021.3193	2944.3431	2875.05	1993.45
1021.4334	2945.4375	2794.75	1911.75
1021.5476	2946.5313	2692.85	1812.6
1021.6617	2947.6244	2594.75	1713.3
1021.7757	2948.7169	2498	1614.85
1021.8897	2949.8087	2421.6	1540.65
1022.0037	2950.8999	2332.9	1450.6
1022.1176	2951.9904	2255.3	1373.6
1022.2315	2953.0803	2193	1309.8
1022.3453	2954.1696	2142.45	1261.55
1022.4591	2955.2582	2096.1	1213.05
1022.5728	2956.3462	2051.6	1169.85
1022.6865	2957.4335	2023.55	1140.45
1022.8002	2958.5202	1990.25	1107.5
1022.9138	2959.6062	1957.95	1074.2
1023.0274	2960.6916	1947.3	1065.55
1023.141	2961.7764	1927	1042.45
1023.2545	2962.8605	1907.65	1024.8
1023.3679	2963.9439	1899.3	1018.3
1023.4813	2965.0267	1897.05	1012.85
1023.5947	2966.1089	1909.7	1005.8
1023.708	2967.1905	1877.75	996.7
1023.8213	2968.2714	1880	998.2
1023.9346	2969.3516	1880.4	999.4
1024.0478	2970.4312	1882.7	993.75
1024.1609	2971.5102	1873.7	993.25
1024.274	2972.5885	1881.75	1000.3
1024.3871	2973.6662	1885.65	998.55
1024.5002	2974.7432	1882.7	1001.8
1024.6132	2975.8196	1863.7	982.55
1024.7261	2976.8954	1861.7	979.45
1024.839	2977.9705	1848.45	967.85
1024.9519	2979.045	1842.1	960.65
1025.0647	2980.1188	1828.9	947.75
1025.1775	2981.192	1810.35	930.15
1025.2902	2982.2645	1790.85	908.85
1025.4029	2983.3364	1764.05	883.6
1025.5156	2984.4077	1733.55	852.65
1025.6282	2985.4783	1713.7	824.3
1025.7407	2986.5483	1683.2	803.1
1025.8532	2987.6177	1656.85	775.25
1025.9657	2988.6864	1610.5	730
1026.0782	2989.7545	1593.25	709.9
1026.1906	2990.8219	1555.85	674.25
1026.3029	2991.8887	1530.5	647.35
1026.4152	2992.9548	1496.15	614.45
1026.5275	2994.0204	1474.6	594.1
1026.6397	2995.0852	1447.65	568.55
1026.7519	2996.1495	1429.6	546
1026.864	2997.2131	1400.85	519.85
1026.9761	2998.276	1386.75	504.15
1027.0882	2999.3383	1367.35	484.9
1027.2002	3000.4	1353.25	470.65
1027.3122	3001.4611	1340.55	460.3
1027.4241	3002.5215	1328.5	446.3
1027.536	3003.5812	1312.4	431.45
1027.6478	3004.6404	1306.8	424.45
1027.7596	3005.6989	1295.75	413.4
1027.8714	3006.7567	1290.2	409.65
1027.9831	3007.8139	1303.45	392.7
1028.0947	3008.8705	1275.1	394.1
1028.2064	3009.9264	1272.95	387.15
1028.3179	3010.9818	1268.8	390.05
1028.4295	3012.0364	1265.2	382.75
1028.541	3013.0905	1269.1	387.65
1028.6524	3014.1439	1256.35	372.95
1028.7638	3015.1966	1262.2	380.55
1028.8752	3016.2487	1255.35	375.6
1028.9865	3017.3002	1255.95	370.7
1029.0978	3018.3511	1258.4	377.05
1029.209	3019.4013	1258.55	375.4
1029.3202	3020.4509	1257.35	375.75
1029.4314	3021.4998	1262.25	377.9
1029.5425	3022.5481	1262.1	381.65
1029.6535	3023.5958	1258.1	375.2
1029.7645	3024.6428	1263.25	380.9
1029.8755	3025.6892	1264.95	383.5
1029.9864	3026.735	1270.2	390.5
1030.0973	3027.7802	1264.3	385.2
1030.2082	3028.8247	1275	393.05
1030.319	3029.8685	1274.8	391.1
1030.4297	3030.9118	1277.3	395.75
1030.5404	3031.9544	1278.95	397.45
1030.6511	3032.9963	1289.6	407.25
1030.7617	3034.0376	1297.6	418.25
1030.8723	3035.0783	1295.35	409.55
1030.9829	3036.1184	1293.9	411.85
1031.0934	3037.1578	1298.65	418.35
1031.2038	3038.1966	1304.4	423.8
1031.3142	3039.2348	1297.75	417.6
1031.4246	3040.2723	1310.45	420.55
1031.5349	3041.3092	1296.35	417.55
1031.6452	3042.3455	1298.45	416.4
1031.7554	3043.3811	1294.75	413.4
1031.8656	3044.4161	1296	414
1031.9758	3045.4505	1291.75	411.3
1032.0859	3046.4842	1285.65	403.4
1032.1959	3047.5173	1276.6	396
1032.3059	3048.5498	1268.65	387.1
1032.4159	3049.5816	1267.65	386
1032.5258	3050.6128	1263.7	378.9
1032.6357	3051.6434	1257.8	373.95
1032.7455	3052.6734	1252.95	370.45
1032.8553	3053.7027	1244.55	363.25
1032.9651	3054.7314	1236.6	353.6
1033.0748	3055.7594	1230.85	350.7
1033.1845	3056.7868	1233.3	350.6
1033.2941	3057.8136	1219.6	338.35
1033.4037	3058.8398	1215.8	333.3
1033.5132	3059.8653	1211.95	331.55
1033.6227	3060.8902	1210.55	328.3
1033.7321	3061.9145	1208	327.5
1033.8415	3062.9381	1207.15	323.05
1033.9509	3063.9612	1213.7	317.4
1034.0602	3064.9835	1195.2	314.25
1034.1694	3066.0053	1193.1	308
1034.2787	3067.0264	1181.9	301.9
1034.3878	3068.0469	1173.5	289.85
1034.497	3069.0668	1170.35	287.1
1034.6061	3070.086	1157.45	276.15
1034.7151	3071.1046	1161.25	277.3
1034.8241	3072.1226	1142.4	261.1
1034.9331	3073.1399	1133.25	250.1
1035.042	3074.1567	1125.85	244.75
1035.1508	3075.1727	1120.9	236.95
1035.2597	3076.1882	1113.1	233.2
1035.3684	3077.203	1105.3	224.45
1035.4772	3078.2173	1103	220.85
1035.5859	3079.2308	1088.5	205.05
1035.6945	3080.2438	1082.25	198.4
1035.8031	3081.2561	1073.75	192.45
1035.9117	3082.2678	1072.9	191.2
1036.0202	3083.2789	1063.3	181.05
1036.1286	3084.2893	1058.4	177.85
1036.2371	3085.2991	1055.65	174.55
1036.3454	3086.3083	1052.4	167.65
1036.4538	3087.3169	1049.6	167.9
1036.562	3088.3248	1045	160.8
1036.6703	3089.3321	1040.1	157.4
1036.7785	3090.3388	1030	150.45
1036.8866	3091.3449	1026.2	143.1
1036.9948	3092.3503	1026.8	142.9
1037.1028	3093.3551	1024.35	144.8
1037.2108	3094.3593	1018.65	139.9
1037.3188	3095.3629	1017.75	138.05
1037.4267	3096.3658	1012.4	128.1
1037.5346	3097.3681	1013.75	132.75
1037.6425	3098.3698	1014.65	130.4
1037.7503	3099.3708	1013.1	125.45
1037.858	3100.3713	1005.3	125.15
1037.9657	3101.3711	1005.85	123.65
1038.0734	3102.3702	1145.4	122.3
1038.181	3103.3688	1006.8	123.95
1038.2886	3104.3667	1002.4	121.8
1038.3961	3105.364	995.95	113.55
1038.5036	3106.3607	1000.7	118.4
1038.611	3107.3568	997.3	116.55
1038.7184	3108.3522	991.05	112.35
1038.8257	3109.347	997.55	115.65
1038.933	3110.3412	995.5	109.5
1039.0403	3111.3348	991.8	110.65
1039.1475	3112.3277	990.05	109.7
1039.2547	3113.32	983.65	104.45
1039.3618	3114.3117	990.4	106
1039.4689	3115.3028	986.25	105.7
1039.5759	3116.2932	983.45	99.7
1039.6829	3117.2831	990.2	104.35
1039.7898	3118.2723	985.9	102.45
1039.8967	3119.2608	984.75	103.5
1040.0035	3120.2488	981.1	98.95
1040.1103	3121.2361	981.15	98.35
1040.2171	3122.2229	979.7	98
1040.3238	3123.209	982.15	101.25
1040.4305	3124.1944	979.35	99.3
1040.5371	3125.1793	977.75	95.2
1040.6437	3126.1635	977.7	97.05
1040.7502	3127.1471	974.3	92.3
1040.8567	3128.1301	974	94.95
1040.9631	3129.1125	971.05	91.5
1041.0695	3130.0942	976.45	95.6
1041.1759	3131.0753	980.1	90.05
1041.2822	3132.0558	971.5	90.35
1041.3884	3133.0357	971.4	90
1041.4946	3134.015	971.55	87.2
1041.6008	3134.9936	970.55	88.6
1041.7069	3135.9716	992.1	89
1041.813	3136.949	965.45	83.85
1041.919	3137.9258	981.5	81.65
1042.025	3138.902	971.15	84.85
1042.1309	3139.8775	966.55	87.85
1042.2368	3140.8524	964.7	84.8
1042.3427	3141.8267	962.75	80.4
1042.4485	3142.8004	962.1	81.05
1042.5542	3143.7735	972.8	84.55
1042.6599	3144.7459	965.1	80.95
1042.7656	3145.7178	956	76.05
1042.8712	3146.689	958.9	78.05
1042.9768	3147.6596	959	76.1
1043.0823	3148.6295	957.95	77.35
1043.1878	3149.5989	956.75	76.15
1043.2932	3150.5676	956.7	75.65
1043.3986	3151.5357	953.25	71.5
1043.5039	3152.5032	952.75	73.25
1043.6092	3153.4701	950.1	69
1043.7145	3154.4364	953.75	69.55
1043.8197	3155.402	952.35	71.25
1043.9248	3156.367	954.9	70.6
1044.03	3157.3315	983.95	64.05
1044.135	3158.2952	948.4	69
1044.24	3159.2584	949.25	68.8
1044.345	3160.221	950	67.8
1044.4499	3161.1829	947.05	65.65
1044.5548	3162.1442	948.1	66.3
1044.6596	3163.105	949.05	67.6
1044.7644	3164.065	946.75	64.7
1044.8692	3165.0245	949.6	66.5
1044.9739	3165.9834	945.95	64.9
1045.0785	3166.9416	944.85	65.05
1045.1831	3167.8993	944.65	62.35
1045.2877	3168.8563	942.8	58.95
1045.3922	3169.8127	939.5	58.65
1045.4966	3170.7684	945.4	63.65
1045.6011	3171.7236	943	60.95
1045.7054	3172.6782	945.1	64.5
1045.8098	3173.6321	945	63.7
1045.914	3174.5854	948.05	63.3
1046.0183	3175.5381	944.55	64.25
1046.1224	3176.4902	941.9	61.95
1046.2266	3177.4417	939.1	58.1
1046.3307	3178.3926	937.15	55.25
1046.4347	3179.3428	938.7	57.25
1046.5387	3180.2924	942.9	61.6
1046.6427	3181.2415	942.05	62
1046.7466	3182.1899	939.8	58.9
1046.8504	3183.1377	936.9	55.65
1046.9542	3184.0848	943.15	59.75
1047.058	3185.0314	938.55	56.95
1047.1617	3185.9773	937.5	56.65
1047.2654	3186.9227	937.75	53.95
1047.369	3187.8674	935.3	53.3
1047.4726	3188.8115	938.2	54
1047.5761	3189.755	935.95	54.05
1047.6796	3190.6979	935.25	54.25
1047.783	3191.6402	935.55	55.05
1047.8864	3192.5818	934.7	53.65
1047.9898	3193.5229	958.9	51.45
1048.0931	3194.4633	936.45	55.8
1048.1963	3195.4031	936.2	55.75
1048.2995	3196.3423	935.85	54.55
1048.4027	3197.2809	931.85	50.95
1048.5058	3198.2189	930.1	49.4
1048.6089	3199.1563	950.65	52.4
1048.7119	3200.0931	931.95	51.4
1048.8148	3201.0292	932.85	52.7
1048.9178	3201.9648	931.2	49.25
1049.0206	3202.8997	937.45	54.15
1049.1235	3203.834	930.5	48.7
1049.2262	3204.7677	930	49.25
1049.329	3205.7008	934.25	52.25
1049.4317	3206.6333	928.85	49.05
1049.5343	3207.5652	933.4	50.35
1049.6369	3208.4964	931.85	51.7
1049.7394	3209.4271	929.35	49.3
1049.8419	3210.3571	929.5	50.15
1049.9444	3211.2865	930.5	46.15
1050.0468	3212.2154	931.95	51.1
1050.1491	3213.1436	930.8	45.05
1050.2514	3214.0712	935.9	49.3
1050.3537	3214.9982	930.55	50.55
1050.4559	3215.9246	928.4	46.5
1050.5581	3216.8503	925.95	46.2
1050.6602	3217.7755	926.8	44.65
1050.7623	3218.7001	927.75	46.15
1050.8643	3219.624	924.6	45.2
1050.9663	3220.5473	925.05	42.15
1051.0682	3221.4701	925.9	45.25
1051.1701	3222.3922	929.5	46.8
1051.2719	3223.3137	926.1	44.6
1051.3737	3224.2346	928.75	47.2
1051.4754	3225.1549	926.75	45.45
1051.5771	3226.0746	925.2	45.2
1051.6788	3226.9937	925.25	42.9
1051.7804	3227.9121	924.8	46.4
1051.8819	3228.83	925.15	47.25
1051.9834	3229.7473	924.4	44.45
1052.0849	3230.6639	924	41.9
1052.1863	3231.5799	924.65	44.1
1052.2876	3232.4954	924.95	43.05
1052.3889	3233.4102	925.35	45.6
1052.4902	3234.3244	923.05	41.25
1052.5914	3235.238	922.1	42.05
1052.6926	3236.151	947.55	42.05
1052.7937	3237.0634	921.85	42.05
1052.8948	3237.9752	920.8	40.15
1052.9958	3238.8864	922.35	41.6
1053.0968	3239.797	922.45	41
1053.1977	3240.7069	923.65	41.7
1053.2986	3241.6163	922.6	39.25
1053.3994	3242.5251	916.65	37.6
1053.5002	3243.4332	920.15	40.35
1053.6009	3244.3408	917.1	35.35
1053.7016	3245.2477	919.8	40.7
1053.8022	3246.154	922.3	38.4
1053.9028	3247.0598	923.2	41.3
1054.0034	3247.9649	919.3	37.05
1054.1039	3248.8694	920.3	37.65
1054.2043	3249.7733	919.4	38.7
1054.3047	3250.6766	920.4	39.1
1054.4051	3251.5793	916.85	34.5
1054.5054	3252.4814	916.2	35.55
1054.6056	3253.3829	915.1	35.25
1054.7058	3254.2838	916.65	37.15
1054.806	3255.1841	916.2	34.25
1054.9061	3256.0838	916.85	35
1055.0061	3256.9829	915.85	37
1055.1062	3257.8814	917.05	32.65
1055.2061	3258.7792	917.3	35.45
1055.306	3259.6765	915.95	34.95
1055.4059	3260.5731	910	31.2
1055.5057	3261.4692	915.1	34.85
1055.6055	3262.3647	915.6	34.8
1055.7052	3263.2595	909.5	27.8
1055.8049	3264.1538	910.95	29.2
1055.9045	3265.0474	914.45	33.65
1056.0041	3265.9404	910.8	31.65
1056.1036	3266.8329	910.75	31.2
1056.2031	3267.7247	917.5	28.85
1056.3025	3268.616	908.65	31.2
1056.4019	3269.5066	907.5	26.5
1056.5013	3270.3966	909.05	27.5
1056.6005	3271.286	904.45	23.75
