Software Version:	3.9.2.0
Unit SN:	10000200
Spectrometer SN:	6960
Date:	3/14/2024 1:47:20 PM
Data Line Index:	25
Spectral Points:	2048
Integration time (ms):	125
Averages:	20
Delay (ms):	30000
Sequence Number:	1
Processing:	dark subtract
Laser Power (mW):	300
Laser Current (mA):	824
Laser Diode Temp (C):	25
Laser Case Temp (C):	28.8
System Temp (C):	28.8
Spectrometer Temp (C):	26.7
CCD Temp (C):	0.009
Secondary Temp (C):	20.006
Heatsink Temp (C):	24.724
CCDPCB Temp (C):	37.974
SecondaryPCB Temp (C):	35.862

Wavelength	RamanShift	Raw Counts	Dark Subtracted
787.061	30.1047	465.35	55.75
787.2016	32.3739	465.4	57.9
787.3422	34.6426	471	62.95
787.4828	36.9109	477.25	65.25
787.6235	39.1787	487.45	73
787.7642	41.4461	495.55	76.1
787.9049	43.7131	509.9	84.4
788.0456	45.9796	516.75	89.3
788.1863	48.2456	526.5	94.8
788.3271	50.5112	539.1	101.1
788.4679	52.7764	544.95	107.6
788.6087	55.0411	560.45	120.25
788.7496	57.3054	570	123.95
788.8904	59.5692	583.65	134.25
789.0313	61.8326	595.3	140.95
789.1722	64.0955	610.3	150.45
789.3132	66.3579	628.95	165.6
789.4541	68.6199	647.1	180.85
789.5951	70.8815	688	220.45
789.7361	73.1426	765.1	291.65
789.8771	75.4032	972.15	494.95
790.0181	77.6634	1493	1009
790.1592	79.9231	2726.05	2238.15
790.3003	82.1824	5451.95	4954.5
790.4414	84.4412	10475.4	9960.75
790.5825	86.6995	17558.5	17021.5
790.7237	88.9574	24630.95	24073.25
790.8648	91.2148	29631.15	29058.4
791.006	93.4717	32027.55	31443.1
791.1472	95.7282	32623.95	32034.85
791.2885	97.9842	32602.4	32008.5
791.4297	100.2398	32106.5	31510.4
791.571	102.4949	31518.95	30918.95
791.7123	104.7495	30710.6	30107.1
791.8536	107.0036	29920.45	29317.9
791.9949	109.2573	29151.75	28547.85
792.1363	111.5105	28395.7	27791.65
792.2777	113.7632	27631.4	27025.6
792.4191	116.0154	27054.5	26437.8
792.5605	118.2672	26579.1	25969.35
792.7019	120.5185	26132.85	25520.75
792.8434	122.7693	25759.4	25148.8
792.9849	125.0197	25444.4	24827.1
793.1264	127.2696	25169.55	24551.5
793.2679	129.519	25004.45	24382.8
793.4094	131.7679	24847.1	24226.5
793.551	134.0163	24635.15	24008.85
793.6926	136.2642	24413.2	23783.4
793.8342	138.5117	24166.05	23525.85
793.9758	140.7587	23880.4	23242.95
794.1175	143.0052	23684.25	23043.55
794.2591	145.2512	23387.5	22750.5
794.4008	147.4967	23173.9	22534.35
794.5425	149.7417	23013.1	22372.3
794.6842	151.9863	22863.85	22219.6
794.826	154.2304	22773	22123.75
794.9677	156.4739	22622.3	21970.1
795.1095	158.717	22571.25	21918.25
795.2513	160.9596	22347.8	21692
795.3931	163.2017	22078.95	21419.95
795.535	165.4433	21778.85	21118.65
795.6768	167.6844	21427.1	20763.1
795.8187	169.925	21133.4	20467.3
795.9606	172.1651	20696.85	20030.45
796.1025	174.4047	20416.4	19744
796.2445	176.6439	20138.3	19465.7
796.3864	178.8825	19908.3	19228.6
796.5284	181.1206	19756.05	19076.7
796.6704	183.3582	19535.25	18849.55
796.8124	185.5954	19394.75	18709.3
796.9544	187.832	19357.75	18668.9
797.0965	190.0681	19266.65	18576.75
797.2386	192.3037	19262.25	18567.4
797.3806	194.5388	19239	18543.2
797.5228	196.7734	19267.8	18570.1
797.6649	199.0075	19349.2	18647.15
797.807	201.2411	19482.35	18774.85
797.9492	203.4742	19553.95	18848.4
798.0914	205.7068	19679.95	18974.6
798.2336	207.9389	19785.5	19077.05
798.3758	210.1704	19913.8	19207.35
798.518	212.4015	20059.45	19345.45
798.6603	214.632	20202.1	19489.7
798.8025	216.862	20381.35	19673
798.9448	219.0915	20510.1	19808.2
799.0871	221.3205	20719.75	20021.35
799.2294	223.549	20923.45	20230.75
799.3718	225.777	21213.05	20523.5
799.5141	228.0044	21530.2	20837.95
799.6565	230.2314	21920.6	21230.3
799.7989	232.4578	22315.35	21622.65
799.9413	234.6837	22633.6	21934.75
800.0837	236.909	22859.75	22160.75
800.2262	239.1339	22826.75	22104.7
800.3687	241.3582	22567.45	21862.5
800.5111	243.582	22296.3	21560
800.6536	245.8053	21980.4	21250.35
800.7961	248.0281	21649.45	20925.45
800.9387	250.2503	21434.25	20707.2
801.0812	252.472	21322.9	20588.55
801.2238	254.6932	21270.1	20535.15
801.3664	256.9139	21211.7	20474.55
801.509	259.134	21243.5	20503.95
801.6516	261.3536	21265.15	20527.75
801.7942	263.5727	21334.9	20596.95
801.9369	265.7912	21306.9	20567.5
802.0795	268.0092	21387.45	20645.95
802.2222	270.2267	21355.7	20617.8
802.3649	272.4436	21336.25	20592.2
802.5076	274.6601	21257.95	20506.15
802.6504	276.8759	21149.2	20402.2
802.7931	279.0913	21061.7	20314.05
802.9359	281.3061	20997.45	20248.6
803.0787	283.5204	21009.5	20258.25
803.2215	285.7341	21106.7	20349.85
803.3643	287.9473	21279.9	20511
803.5071	290.16	21420.75	20660.35
803.6499	292.3721	21718.65	20965.35
803.7928	294.5837	22100.75	21345.45
803.9357	296.7947	22400.8	21648.2
804.0786	299.0052	22617.35	21860.6
804.2215	301.2152	22450.05	21689.25
804.3644	303.4246	22123.65	21364.6
804.5074	305.6334	21567.9	20809.85
804.6503	307.8418	21008.1	20251.4
804.7933	310.0495	20561.3	19801.65
804.9363	312.2568	20207.5	19451.55
805.0793	314.4635	19939.55	19177.4
805.2223	316.6696	19791.65	19028.1
805.3653	318.8752	19698.35	18926.3
805.5084	321.0802	19731.9	18968.9
805.6514	323.2847	19822.45	19059.2
805.7945	325.4887	19836.9	19072.5
805.9376	327.692	19801.35	19035.45
806.0807	329.8949	19703.5	18935.2
806.2238	332.0972	19431.35	18666.35
806.367	334.2989	19143	18368.75
806.5101	336.5001	18808.4	18037.85
806.6533	338.7007	18644.2	17873.05
806.7965	340.9008	18486.9	17712.85
806.9397	343.1003	18369.25	17591.95
807.0829	345.2992	18312.35	17535.65
807.2261	347.4976	18260.3	17483.05
807.3693	349.6955	18216.95	17434
807.5126	351.8927	18274.05	17491.05
807.6559	354.0895	18212.95	17423
807.7991	356.2856	18257.65	17473.4
807.9424	358.4812	18200.5	17419.5
808.0857	360.6763	18228.3	17443.35
808.2291	362.8707	18214.4	17431.55
808.3724	365.0646	18218.5	17430.4
808.5158	367.258	18228.25	17437.5
808.6591	369.4508	18240.35	17445.35
808.8025	371.643	18315.15	17521.35
808.9459	373.8346	18291.15	17495.85
809.0893	376.0257	18260.55	17463.85
809.2327	378.2162	18173.45	17377.8
809.3762	380.4062	18069.35	17270.85
809.5196	382.5956	17911.7	17108.65
809.6631	384.7844	17772.75	16971.55
809.8066	386.9726	17636.9	16834.7
809.9501	389.1603	17562.7	16759.25
810.0936	391.3474	17531.35	16697.75
810.2371	393.5339	17490.1	16687.55
810.3806	395.7199	17418.2	16622.4
810.5241	397.9052	17418.05	16624.1
810.6677	400.09	17413.4	16617
810.8113	402.2743	17482.4	16689.7
810.9548	404.4579	17554.25	16761.35
811.0984	406.641	17756.5	16965.35
811.2421	408.8235	17933.2	17140.5
811.3857	411.0054	18195	17402.7
811.5293	413.1868	18605.65	17809.5
811.673	415.3675	18882.8	18083.75
811.8166	417.5477	19082.55	18279.7
811.9603	419.7273	19115.65	18313.2
812.104	421.9064	18967.55	18161.55
812.2477	424.0848	18866.75	18060.35
812.3914	426.2627	18609	17800.8
812.5351	428.4399	18330.3	17520.7
812.6788	430.6166	17904.1	17088.3
812.8226	432.7928	17531.25	16716.8
812.9663	434.9683	17200.9	16385.25
813.1101	437.1432	16941	16125.45
813.2539	439.3176	16766.95	15952.3
813.3977	441.4914	16648.75	15829.65
813.5415	443.6645	16613	15792.1
813.6853	445.8371	16502	15681.95
813.8291	448.0091	16447.6	15630.9
813.973	450.1806	16410.2	15594.65
814.1168	452.3514	16312.2	15490.6
814.2607	454.5216	16311.45	15476.9
814.4046	456.6913	16198.15	15378.2
814.5485	458.8603	16231.6	15412.4
814.6924	461.0288	16309.3	15489.5
814.8363	463.1967	16295.25	15473.2
814.9802	465.3639	16393.85	15568.75
815.1241	467.5306	16454.9	15631.15
815.2681	469.6967	16595.15	15772.75
815.412	471.8622	16717.25	15895.7
815.556	474.0271	16800.9	15979.7
815.7	476.1914	16866.7	16040.2
815.844	478.3551	16881.4	16055.45
815.988	480.5182	16814.55	15988.85
816.132	482.6807	16833.75	16007.45
816.276	484.8426	16961.25	16134.4
816.4201	487.0039	17225.25	16395.15
816.5641	489.1647	17630.3	16801.85
816.7082	491.3248	18024.4	17195.3
816.8522	493.4843	18216.05	17388.25
816.9963	495.6432	18196.15	17369.8
817.1404	497.8015	18055.5	17224.45
817.2845	499.9592	18000.7	17171.35
817.4286	502.1163	17933.5	17102.6
817.5727	504.2728	17635.05	16805.1
817.7168	506.4287	17340.05	16513.2
817.861	508.5839	16904.7	16073.35
818.0051	510.7386	16553	15724.05
818.1493	512.8927	16399.05	15557
818.2935	515.0461	16274	15441.05
818.4377	517.199	16229.65	15399.5
818.5818	519.3512	16223.4	15392.7
818.726	521.5029	16327.4	15490.9
818.8703	523.6539	16395.5	15562.95
819.0145	525.8043	16439.7	15605.75
819.1587	527.9541	16431.65	15595.05
819.303	530.1033	16360.85	15524.55
819.4472	532.2519	16362.75	15527.25
819.5915	534.3999	16439.85	15601.2
819.7357	536.5472	16674.55	15836.55
819.88	538.694	17141.15	16303.2
820.0243	540.8401	17653.55	16816.05
820.1686	542.9856	18108.5	17266.5
820.3129	545.1305	18260.95	17423.9
820.4572	547.2748	18085.15	17245.2
820.6016	549.4185	17708.25	16866.7
820.7459	551.5615	17351.95	16509.1
820.8902	553.704	17238.2	16398.55
821.0346	555.8458	17121	16283.7
821.1789	557.987	17142.2	16299.65
821.3233	560.1276	17172.6	16329.95
821.4677	562.2675	17242.65	16401.4
821.6121	564.4069	17339.3	16500.95
821.7565	566.5456	17411.05	16574.2
821.9009	568.6837	17305.4	16466
822.0453	570.8212	17005.6	16167.2
822.1897	572.958	16585.55	15744.35
822.3342	575.0942	16231.3	15391.45
822.4786	577.2299	15996.15	15153.35
822.6231	579.3648	15893.55	15050.05
822.7675	581.4992	15933.15	15090.9
822.912	583.6329	16167.55	15324
823.0565	585.766	16363.65	15520.9
823.201	587.8985	16463.8	15619.35
823.3454	590.0304	16466.3	15598
823.4899	592.1616	16327.5	15480.75
823.6345	594.2922	16236.9	15392.95
823.779	596.4222	16059.95	15214.1
823.9235	598.5515	15858.2	15012.95
824.068	600.6802	15705.9	14858.15
824.2126	602.8083	15480.55	14633.8
824.3571	604.9358	15437.6	14589.7
824.5017	607.0626	15337.2	14489.1
824.6462	609.1888	15336.75	14488.5
824.7908	611.3144	15267.35	14420.85
824.9354	613.4393	15199.15	14351.15
825.08	615.5636	15123.85	14279.25
825.2246	617.6873	15041.7	14195.05
825.3692	619.8103	14959.85	14108.75
825.5138	621.9327	14792.65	13940.7
825.6584	624.0544	14745.45	13896.6
825.803	626.1756	14675.85	13828.75
825.9477	628.2961	14585.9	13736.8
826.0923	630.4159	14513.15	13663.3
826.237	632.5351	14481.5	13632.3
826.3816	634.6537	14382.25	13530.9
826.5263	636.7716	14380.25	13530.65
826.6709	638.8889	14352.3	13499.55
826.8156	641.0056	14384.05	13532.65
826.9603	643.1216	14362.55	13510.1
827.105	645.237	14384.55	13528.9
827.2497	647.3518	14316	13464.2
827.3944	649.4659	14328.85	13477.85
827.5391	651.5793	14307.55	13453.05
827.6838	653.6922	14263.05	13410.35
827.8285	655.8043	14227.65	13374.25
827.9733	657.9159	14190.6	13337.35
828.118	660.0268	14104.7	13249.1
828.2627	662.137	14040.1	13185.2
828.4075	664.2466	14050.95	13192.85
828.5522	666.3556	14000.6	13147.9
828.697	668.4639	13988.95	13129.4
828.8418	670.5716	14018.2	13162.35
828.9865	672.6786	14058.35	13202.1
829.1313	674.785	14060.5	13202.35
829.2761	676.8907	14085.8	13228.1
829.4209	678.9958	14162.95	13307.35
829.5657	681.1002	14115.35	13257.7
829.7105	683.204	14100.7	13237.95
829.8553	685.3072	14033.3	13173.85
830.0001	687.4097	13925.6	13069.25
830.1449	689.5115	13877.7	13017.45
830.2898	691.6127	13847.85	12989.75
830.4346	693.7132	13752.9	12893.9
830.5794	695.8131	13739.45	12865.6
830.7243	697.9123	13680.1	12819.95
830.8691	700.0109	13660.1	12801.95
831.014	702.1089	13578.75	12717
831.1588	704.2061	13597.45	12736.3
831.3037	706.3028	13617.1	12756.15
831.4486	708.3987	13662.3	12799.05
831.5935	710.4941	13704.5	12842.45
831.7383	712.5887	13870.1	13006.85
831.8832	714.6827	14101.3	13236.15
832.0281	716.7761	14433.15	13572.55
832.173	718.8688	14756.9	13894.35
832.3179	720.9608	14952.9	14086.75
832.4628	723.0522	14982.9	14118.35
832.6077	725.1429	14785.1	13922.6
832.7527	727.233	14549.95	13686.95
832.8976	729.3224	14304.5	13440.85
833.0425	731.4112	14063	13199.45
833.1874	733.4993	13830.25	12963.05
833.3324	735.5867	13647.2	12782.55
833.4773	737.6735	13539.85	12672.6
833.6222	739.7596	13418.6	12552
833.7672	741.845	13336.55	12470.2
833.9122	743.9298	13274.15	12407.45
834.0571	746.014	13255.8	12390.5
834.2021	748.0974	13247.65	12383.1
834.347	750.1802	13262.35	12394.65
834.492	752.2624	13221.4	12353.8
834.637	754.3439	13278.95	12412.9
834.782	756.4247	13367.85	12491.8
834.9269	758.5048	13455.5	12589.65
835.0719	760.5843	13702.1	12836.1
835.2169	762.6631	14000.2	13132.45
835.3619	764.7413	14464.65	13597.95
835.5069	766.8188	15072.3	14202.8
835.6519	768.8956	15576.15	14709.85
835.7969	770.9718	15851.05	14985.15
835.9419	773.0473	15713.4	14848.25
836.0869	775.1221	15369.5	14502.6
836.232	777.1962	15010	14142.45
836.377	779.2697	14779.05	13912.25
836.522	781.3426	14845.35	13959.45
836.667	783.4147	15064.35	14197.55
836.8121	785.4862	15311.35	14446.75
836.9571	787.557	15285.95	14418.8
837.1021	789.6271	14892.3	14023.2
837.2472	791.6966	14261.05	13391.9
837.3922	793.7654	13705.95	12838.25
837.5373	795.8335	13363.6	12497.15
837.6823	797.901	13114.15	12245.75
837.8274	799.9678	13030.25	12160.2
837.9724	802.0339	12984.75	12117.9
838.1175	804.0993	13025.8	12147.7
838.2626	806.1641	12976.05	12106.5
838.4076	808.2282	12862.15	11994
838.5527	810.2916	12791.55	11921.05
838.6978	812.3544	12696.85	11828.5
838.8428	814.4164	12592.9	11726.65
838.9879	816.4778	12616.25	11745.1
839.133	818.5385	12577.1	11709.35
839.2781	820.5986	12653.6	11784.5
839.4232	822.658	12760.75	11891.55
839.5682	824.7166	12927.95	12059.5
839.7133	826.7747	13169.45	12303
839.8584	828.832	13423.75	12552
840.0035	830.8886	13574.75	12702.1
840.1486	832.9446	13691.6	12819.3
840.2937	834.9999	13686.3	12819.35
840.4388	837.0545	13646.95	12771.9
840.5839	839.1085	13545.45	12675.75
840.729	841.1618	13452.85	12577.8
840.8741	843.2143	13364.3	12493.85
841.0192	845.2662	13218.55	12347.55
841.1643	847.3175	13174.5	12304.8
841.3095	849.368	13041.1	12170.8
841.4546	851.4179	12916.1	12043.65
841.5997	853.467	12735.75	11864.35
841.7448	855.5155	12647.95	11777.25
841.8899	857.5633	12556.2	11684.7
842.0351	859.6105	12400.45	11529.9
842.1802	861.6569	12307.95	11437.55
842.3253	863.7027	12240.9	11367.7
842.4704	865.7478	12220.4	11348
842.6156	867.7922	12206.6	11334.9
842.7607	869.8359	12214.15	11340.75
842.9058	871.8789	12310.45	11438.15
843.0509	873.9212	12480.6	11577.85
843.1961	875.9629	12594.3	11723.95
843.3412	878.0039	12776.95	11903.55
843.4863	880.0441	12803.05	11929.85
843.6315	882.0837	12814.7	11942.45
843.7766	884.1226	12714.35	11840
843.9218	886.1609	12638.6	11767.35
844.0669	888.1984	12551.4	11679.95
844.212	890.2352	12552.65	11678.85
844.3572	892.2714	12485.85	11608.25
844.5023	894.3069	12443.55	11570.8
844.6475	896.3416	12323.65	11448.9
844.7926	898.3757	12267.2	11390.85
844.9377	900.4091	12240.35	11366.6
845.0829	902.4418	12237.5	11361.1
845.228	904.4739	12251.85	11376.2
845.3732	906.5052	12259.5	11383.8
845.5183	908.5358	12146.45	11271.2
845.6635	910.5658	11978.2	11101.9
845.8086	912.595	11812.6	10938.75
845.9538	914.6236	11651.75	10776.8
846.0989	916.6515	11574.65	10700.15
846.2441	918.6786	11527.05	10648.8
846.3892	920.7051	11573.1	10698.25
846.5344	922.7309	11645.4	10771.85
846.6795	924.756	11680.85	10806.35
846.8246	926.7804	11733.2	10857.5
846.9698	928.8041	11718.7	10840.2
847.1149	930.8272	11726.3	10852.6
847.2601	932.8495	11653.8	10776.3
847.4052	934.8711	11641.75	10765.35
847.5504	936.892	11481.85	10604.9
847.6955	938.9123	11332.95	10456.1
847.8407	940.9318	11236.95	10362.1
847.9858	942.9506	11113.7	10236.6
848.131	944.9688	11034.25	10158.35
848.2761	946.9862	10967.05	10089.8
848.4213	949.003	10847.5	9970.4
848.5664	951.019	10856.55	9979.5
848.7115	953.0344	10826.3	9949.1
848.8567	955.0491	10832.65	9953.35
849.0018	957.063	10908.3	10033.15
849.147	959.0763	10979.95	10104.95
849.2921	961.0888	11037.95	10158.1
849.4373	963.1007	11128	10253.05
849.5824	965.1119	11163.25	10286.4
849.7275	967.1223	11140.9	10262.5
849.8727	969.1321	11159.95	10285.4
850.0178	971.1412	11156.6	10280.3
850.1629	973.1495	11152.85	10273.05
850.3081	975.1572	11193.55	10284.15
850.4532	977.1641	11193.75	10316.25
850.5983	979.1704	11171.15	10293.05
850.7435	981.1759	11147.5	10267.85
850.8886	983.1808	11213.15	10334.75
851.0337	985.1849	11269.55	10382.25
851.1788	987.1884	11390.25	10509.65
851.324	989.1911	11532.3	10652.9
851.4691	991.1932	11676.1	10798.2
851.6142	993.1945	11698.7	10820.3
851.7593	995.1951	11666	10788.15
851.9045	997.1951	11608.05	10724.55
852.0496	999.1943	11505.35	10626.25
852.1947	1001.1928	11488.7	10611.85
852.3398	1003.1906	11493.3	10612.3
852.4849	1005.1877	11539.65	10659.6
852.63	1007.1841	11512.65	10634.35
852.7751	1009.1798	11433.95	10555.55
852.9202	1011.1748	11269.6	10392.2
853.0653	1013.1691	11070.85	10191.2
853.2104	1015.1627	10855.8	9977.4
853.3555	1017.1556	10637.9	9756.85
853.5006	1019.1477	10519.45	9641.75
853.6457	1021.1392	10424.2	9548.6
853.7908	1023.1299	10427	9548.55
853.9359	1025.12	10450.35	9570.9
854.081	1027.1093	10493.05	9616.45
854.2261	1029.0979	10569.55	9691.95
854.3712	1031.0859	10597.75	9719.95
854.5163	1033.0731	10622.45	9742.8
854.6613	1035.0596	10556.4	9677.35
854.8064	1037.0454	10397.4	9519.3
854.9515	1039.0304	10256.25	9377.15
855.0965	1041.0148	10152.05	9275.05
855.2416	1042.9985	10042	9162.3
855.3867	1044.9814	9993.4	9114
855.5317	1046.9636	9918.55	9036.65
855.6768	1048.9452	9884.75	9004.45
855.8219	1050.926	9901.55	9024
855.9669	1052.9061	9896.15	9017.9
856.112	1054.8855	9899.05	9020.25
856.257	1056.8642	9913.25	9034.35
856.4021	1058.8421	9967.95	9086.55
856.5471	1060.8194	10009.7	9130.35
856.6921	1062.7959	10025.25	9144.3
856.8372	1064.7717	10059.2	9179.55
856.9822	1066.7469	10063.85	9183.7
857.1272	1068.7213	10055.25	9172.65
857.2723	1070.695	10067.65	9188.9
857.4173	1072.6679	10025	9145.9
857.5623	1074.6402	9982.75	9104
857.7073	1076.6117	9965.5	9082.65
857.8523	1078.5826	9942.35	9061.25
857.9973	1080.5527	9899.1	9018.95
858.1423	1082.5221	9975.05	9094.8
858.2873	1084.4908	10122	9242.75
858.4323	1086.4587	10268.8	9389.55
858.5773	1088.426	10390.75	9511.55
858.7223	1090.3925	10375.15	9491.95
858.8673	1092.3584	10348.6	9468.55
859.0123	1094.3235	10215.4	9336.05
859.1573	1096.2879	10163.7	9281.35
859.3022	1098.2515	10147.05	9266.75
859.4472	1100.2145	10240.9	9362.15
859.5922	1102.1767	10318.55	9435.2
859.7371	1104.1382	10513.65	9633.3
859.8821	1106.099	10721.55	9841.3
860.027	1108.0591	10928	10047.8
860.172	1110.0185	11048.1	10165.7
860.3169	1111.9771	11102.5	10223.7
860.4619	1113.9351	10898.1	10015.5
860.6068	1115.8923	10632.8	9753.05
860.7517	1117.8488	10333.8	9450.3
860.8967	1119.8045	10070.75	9189
861.0416	1121.7596	9948.75	9067.2
861.1865	1123.7139	9876.15	8997.8
861.3314	1125.6675	9865.35	8984.95
861.4763	1127.6204	9899.1	9020.25
861.6212	1129.5726	9878.45	8996.7
861.7661	1131.524	9840.95	8962.65
861.911	1133.4748	9791.1	8910.4
862.0559	1135.4248	9750.7	8871
862.2008	1137.3741	9681.55	8801.85
862.3457	1139.3226	9633.6	8750.8
862.4905	1141.2705	9608	8728.1
862.6354	1143.2176	9503.05	8614.6
862.7803	1145.164	9493.2	8609.95
862.9251	1147.1097	9473.4	8591.6
863.07	1149.0546	9450.35	8567.6
863.2148	1150.9989	9330.1	8449.7
863.3597	1152.9424	9195	8314.25
863.5045	1154.8852	9013.95	8133.6
863.6493	1156.8272	8941.35	8061.25
863.7942	1158.7686	8898.85	8012.05
863.939	1160.7092	8822.95	7941
864.0838	1162.6491	8863	7976.85
864.2286	1164.5883	8947.2	8065.8
864.3734	1166.5267	9018.05	8134.4
864.5182	1168.4644	9153.35	8271.5
864.663	1170.4014	9348.35	8461.9
864.8078	1172.3377	9585.6	8704.65
864.9526	1174.2732	9828.5	8946.85
865.0974	1176.2081	10098.1	9217.85
865.2421	1178.1421	10379.3	9495.05
865.3869	1180.0755	10657.15	9775
865.5317	1182.0082	10803.75	9922.7
865.6764	1183.9401	10833.45	9950.45
865.8212	1185.8713	10676.9	9795.4
865.9659	1187.8017	10438.3	9557.1
866.1106	1189.7315	10149.5	9266.4
866.2554	1191.6605	9864.65	8955.05
866.4001	1193.5888	9612.25	8729.7
866.5448	1195.5163	9477.1	8597
866.6895	1197.4432	9400.25	8519.7
866.8342	1199.3693	9365.7	8485.7
866.9789	1201.2947	9341.2	8450.35
867.1236	1203.2193	9304.05	8424.25
867.2683	1205.1432	9324.5	8441
867.413	1207.0664	9346.95	8465.4
867.5576	1208.9889	9351	8466.95
867.7023	1210.9106	9387.7	8506.95
867.847	1212.8316	9418.45	8538.65
867.9916	1214.7519	9483.05	8592.4
868.1363	1216.6715	9459.1	8577.2
868.2809	1218.5903	9475.65	8594.15
868.4255	1220.5084	9489.4	8608.65
868.5701	1222.4257	9511.3	8631.45
868.7148	1224.3424	9488.6	8608.15
868.8594	1226.2583	9532.75	8644.05
869.004	1228.1735	9629.05	8746.4
869.1486	1230.0879	9716.45	8834.95
869.2932	1232.0016	9833.15	8952.65
869.4377	1233.9146	9873	8989.2
869.5823	1235.8269	9776.6	8895.3
869.7269	1237.7384	9674.05	8792.4
869.8715	1239.6492	9488.45	8606.9
870.016	1241.5592	9359.85	8478.5
870.1606	1243.4686	9304.65	8422.05
870.3051	1245.3772	9277.8	8397.9
870.4496	1247.285	9294.45	8411.45
870.5941	1249.1922	9279.65	8398.95
870.7387	1251.0986	9311.15	8429.1
870.8832	1253.0042	9327.6	8445.75
871.0277	1254.9092	9332.3	8450.5
871.1722	1256.8134	9445	8563.6
871.3167	1258.7169	9598.55	8713.75
871.4611	1260.6196	9753.85	8872.05
871.6056	1262.5216	9985.6	9101.9
871.7501	1264.4229	10164.65	9283.75
871.8945	1266.3234	10328.85	9447.95
872.039	1268.2232	10377.75	9493.9
872.1834	1270.1223	10385.15	9500.45
872.3278	1272.0207	10358.2	9474.15
872.4723	1273.9183	10333.1	9445.1
872.6167	1275.8151	10265.4	9381.75
872.7611	1277.7113	10183.3	9300.45
872.9055	1279.6067	10090.1	9208.6
873.0499	1281.5014	10037.75	9152.05
873.1943	1283.3953	10049.9	9167.55
873.3386	1285.2885	10114.1	9231.05
873.483	1287.181	10227.35	9344.6
873.6274	1289.0727	10370.5	9489.2
873.7717	1290.9637	10437.45	9555.4
873.9161	1292.854	10575.7	9693.35
874.0604	1294.7435	10678.9	9795.95
874.2047	1296.6323	10807.65	9925.25
874.349	1298.5204	10935.45	10047.05
874.4933	1300.4077	11065.05	10180.3
874.6376	1302.2943	11120.2	10239.35
874.7819	1304.1802	11108.35	10225.6
874.9262	1306.0653	10937.05	10053.3
875.0705	1307.9497	10730.1	9845.65
875.2147	1309.8333	10533.55	9652.1
875.359	1311.7162	10426.75	9543.6
875.5032	1313.5984	10418	9533.15
875.6475	1315.4798	10466.25	9566.7
875.7917	1317.3605	10553	9655.75
875.9359	1319.2405	10620.65	9734.8
876.0801	1321.1197	10542.25	9657.4
876.2243	1322.9982	10406.9	9518.4
876.3685	1324.876	10315.6	9432.4
876.5127	1326.753	10199	9316.3
876.6569	1328.6293	10164.7	9278.6
876.801	1330.5048	10147	9262.55
876.9452	1332.3796	10065	9184
877.0893	1334.2537	10073.25	9163.05
877.2335	1336.127	10026.1	9142.05
877.3776	1337.9996	9986	9101.85
877.5217	1339.8714	9967.7	9084.25
877.6658	1341.7426	9976.5	9048.5
877.8099	1343.6129	9927.9	9043.7
877.954	1345.4826	9867.1	8983.95
878.0981	1347.3515	9850.5	8962.75
878.2422	1349.2196	9820.1	8937
878.3862	1351.087	9827.5	8943.5
878.5303	1352.9537	9906.55	9021.55
878.6743	1354.8197	10001.55	9120.25
878.8184	1356.6849	10158.9	9273.75
878.9624	1358.5493	10283.7	9399.15
879.1064	1360.4131	10360	9477.7
879.2504	1362.276	10360.35	9476.4
879.3944	1364.1383	10250.3	9367.5
879.5384	1365.9998	10007.2	9118.05
879.6823	1367.8606	9690.95	8806.8
879.8263	1369.7206	9343.45	8459.2
879.9702	1371.5799	9109.1	8223.55
880.1142	1373.4384	8903.4	8018.55
880.2581	1375.2962	8753.55	7867.9
880.402	1377.1533	8483.8	7600
880.5459	1379.0096	8175.85	7292.15
880.6898	1380.8652	7878	6994.05
880.8337	1382.7201	7612.15	6728.55
880.9776	1384.5742	7352.1	6468.95
881.1215	1386.4275	7209.25	6324.15
881.2653	1388.2802	7080.55	6197.3
881.4092	1390.132	6965.35	6082.1
881.553	1391.9832	6908.05	6023.25
881.6968	1393.8336	6821.9	5937.45
881.8406	1395.6832	6790.9	5906.6
881.9844	1397.5322	6781.6	5897.4
882.1282	1399.3803	6757.35	5870.75
882.272	1401.2278	6751.6	5868.1
882.4158	1403.0745	6732.45	5847.4
882.5595	1404.9204	6721.85	5838.55
882.7033	1406.7656	6743.45	5857.05
882.847	1408.6101	6776.7	5892.25
882.9908	1410.4538	6796.15	5912.9
883.1345	1412.2968	6857.25	5972.2
883.2782	1414.139	6908.7	6026.95
883.4219	1415.9805	6987.65	6104
883.5656	1417.8213	7088.8	6197.45
883.7092	1419.6613	7203.4	6319.25
883.8529	1421.5006	7357.85	6473.35
883.9965	1423.3391	7616.7	6731
884.1402	1425.1769	7950.4	7066.1
884.2838	1427.0139	8432.5	7548.95
884.4274	1428.8502	9030.15	8145.35
884.571	1430.6858	9594.85	8710.8
884.7146	1432.5206	10033.1	9149.55
884.8582	1434.3547	10239	9354.55
885.0018	1436.188	10293.55	9410.45
885.1453	1438.0206	10187.15	9301.55
885.2889	1439.8524	10027.85	9143.25
885.4324	1441.6835	9923	9038.6
885.5759	1443.5139	9822.05	8935.45
885.7194	1445.3435	9724.3	8839.5
885.8629	1447.1724	9681.9	8798.45
886.0064	1449.0005	9605.25	8720.45
886.1499	1450.8279	9561.65	8674.3
886.2933	1452.6545	9519.75	8634.85
886.4368	1454.4804	9535.5	8653.6
886.5802	1456.3056	9534.35	8642.4
886.7237	1458.13	9433.25	8549.55
886.8671	1459.9536	9221.9	8337.75
887.0105	1461.7766	8888.1	8004.85
887.1539	1463.5987	8487.85	7603.1
887.2972	1465.4202	8122.85	7239.35
887.4406	1467.2409	7764.25	6879.25
887.584	1469.0608	7470.25	6585.45
887.7273	1470.88	7206.9	6323.4
887.8706	1472.6984	6981.05	6099
888.0139	1474.5161	6789.6	5903.3
888.1572	1476.3331	6631.7	5750.2
888.3005	1478.1493	6507.9	5622.45
888.4438	1479.9648	6420.55	5535.05
888.5871	1481.7795	6330.45	5446.65
888.7303	1483.5935	6263.15	5379.4
888.8736	1485.4067	6206.15	5322.15
889.0168	1487.2192	6165	5280.1
889.16	1489.031	6099.05	5211.95
889.3032	1490.842	6045.7	5162.05
889.4464	1492.6522	6034.15	5149.75
889.5896	1494.4618	5984.2	5099.85
889.7327	1496.2705	5938.2	5055.4
889.8759	1498.0785	5925.2	5040.75
890.019	1499.8858	5895	5010.3
890.1622	1501.6924	5879.8	4996.7
890.3053	1503.4981	5847.2	4962.8
890.4484	1505.3032	5816.15	4931.35
890.5914	1507.1075	5786.15	4901.8
890.7345	1508.911	5746.2	4861.8
890.8776	1510.7138	5739.5	4854.95
891.0206	1512.5159	5682.65	4800.95
891.1637	1514.3172	5641.7	4756.8
891.3067	1516.1178	5611.45	4728.6
891.4497	1517.9176	5585.75	4699.05
891.5927	1519.7166	5555.65	4673
891.7357	1521.515	5536.9	4647.35
891.8786	1523.3126	5524.2	4642.75
892.0216	1525.1094	5493.55	4608.35
892.1645	1526.9055	5462.15	4577.45
892.3074	1528.7008	5443.1	4559.15
892.4503	1530.4954	5404	4519.2
892.5932	1532.2893	5404.25	4520.9
892.7361	1534.0824	5393.6	4506
892.879	1535.8747	5389.2	4505.15
893.0218	1537.6663	5368.55	4483.55
893.1647	1539.4572	5353.75	4467.95
893.3075	1541.2473	5366.3	4482.05
893.4503	1543.0367	5349	4465.25
893.5931	1544.8253	5346.65	4459
893.7359	1546.6132	5373.55	4487.5
893.8787	1548.4003	5385.8	4492.35
894.0214	1550.1867	5428.9	4538.45
894.1642	1551.9723	5423.3	4535.3
894.3069	1553.7572	5484.15	4599
894.4496	1555.5414	5529.05	4645.05
894.5923	1557.3247	5587.75	4702.9
894.735	1559.1074	5682.25	4797.9
894.8777	1560.8893	5773.75	4889.9
895.0204	1562.6705	5864.4	4981
895.163	1564.4509	5951.55	5067.8
895.3056	1566.2305	6026.15	5140.9
895.4482	1568.0094	6083.55	5202.45
895.5908	1569.7876	6135.55	5252.2
895.7334	1571.565	6131.15	5247.8
895.876	1573.3417	6156.55	5271.65
896.0186	1575.1176	6144.4	5260.4
896.1611	1576.8928	6095.65	5211.65
896.3036	1578.6672	6038.85	5154.55
896.4461	1580.4409	5959.9	5077.5
896.5886	1582.2138	5877.65	4994.45
896.7311	1583.986	5804.9	4922.05
896.8736	1585.7575	5749.6	4867.45
897.0161	1587.5282	5715.7	4834.45
897.1585	1589.2981	5708.9	4826.2
897.3009	1591.0673	5702.85	4818.05
897.4433	1592.8358	5738.3	4855.5
897.5857	1594.6035	5745.55	4860.7
897.7281	1596.3704	5777.65	4894.2
897.8705	1598.1366	5817.1	4933.4
898.0128	1599.9021	5882.8	4999.9
898.1551	1601.6668	5940.35	5053.5
898.2975	1603.4308	6033.75	5149.05
898.4398	1605.194	6136.4	5247.6
898.5821	1606.9564	6272.85	5390.8
898.7243	1608.7182	6432.4	5547.15
898.8666	1610.4791	6632.7	5748.4
899.0088	1612.2394	6817.75	5933.95
899.1511	1613.9988	7039.05	6155.05
899.2933	1615.7576	7276.15	6392.6
899.4355	1617.5156	7460.95	6573.1
899.5776	1619.2728	7644.95	6760.8
899.7198	1621.0293	7740.3	6857.9
899.862	1622.785	7724.4	6836.1
900.0041	1624.54	7636.6	6750.2
900.1462	1626.2942	7469.5	6585.1
900.2883	1628.0477	7212.8	6326.4
900.4304	1629.8005	6990.75	6102.7
900.5725	1631.5525	6777.95	5896.55
900.7145	1633.3037	6581.3	5698.2
900.8566	1635.0542	6454.2	5572.6
900.9986	1636.804	6309.7	5426.45
901.1406	1638.553	6310.1	5348.25
901.2826	1640.3013	6236.25	5352.1
901.4245	1642.0488	6214.25	5328.55
901.5665	1643.7955	6245.9	5363.95
901.7085	1645.5416	6325.9	5442.3
901.8504	1647.2868	6401.5	5519.95
901.9923	1649.0313	6512.9	5630.05
902.1342	1650.7751	6685.15	5798.6
902.2761	1652.5181	6830	5947.7
902.4179	1654.2604	7029.2	6146.05
902.5598	1656.0019	7305.95	6424.45
902.7016	1657.7427	7623	6740.8
902.8434	1659.4828	7893.25	7011.45
902.9852	1661.222	8112.85	7229.15
903.127	1662.9606	8103.5	7220.65
903.2687	1664.6984	7870.65	6986.9
903.4105	1666.4354	7449.75	6567.5
903.5522	1668.1717	6929.65	6044.7
903.6939	1669.9072	6430.4	5549.1
903.8356	1671.642	5998.55	5114.85
903.9773	1673.3761	5629.7	4748.2
904.119	1675.1094	5352.05	4470.1
904.2606	1676.8419	5142.35	4263.85
904.4022	1678.5737	4983.15	4102.75
904.5439	1680.3048	4845.95	3963.6
904.6855	1682.0351	4750.8	3865.35
904.827	1683.7646	4682.8	3798
904.9686	1685.4934	4604.6	3722.65
905.1101	1687.2215	4560.65	3677.55
905.2517	1688.9488	4511	3630.1
905.3932	1690.6754	4461.1	3578.05
905.5347	1692.4012	4436.6	3557.1
905.6761	1694.1263	4412.7	3531.7
905.8176	1695.8506	4375.4	3491.7
905.9591	1697.5742	4337.45	3456.45
906.1005	1699.297	4305.55	3423.35
906.2419	1701.0191	4270.7	3389.65
906.3833	1702.7404	4251.15	3367.7
906.5246	1704.461	4233.05	3351.65
906.666	1706.1808	4207.5	3322.8
906.8073	1707.8999	4192.45	3309.75
906.9487	1709.6182	4169.45	3289.7
907.09	1711.3358	4137.05	3251.9
907.2313	1713.0527	4121.8	3241.6
907.3725	1714.7688	4112.5	3223.7
907.5138	1716.4841	4074.85	3193.1
907.655	1718.1987	4077.05	3190.2
907.7962	1719.9126	4059.75	3178.6
907.9374	1721.6257	4037.85	3153.1
908.0786	1723.338	4028.1	3143.05
908.2198	1725.0496	4030	3147.55
908.3609	1726.7605	4001.2	3118.4
908.502	1728.4706	3981.8	3099.3
908.6431	1730.18	3965.2	3079.8
908.7842	1731.8886	3960.2	3078
908.9253	1733.5964	3967.2	3079.35
909.0664	1735.3036	3941	3057.5
909.2074	1737.0099	3924.5	3043.55
909.3484	1738.7156	3915.6	3034.2
909.4894	1740.4204	3880.7	2994.55
909.6304	1742.1246	3861.65	2977.4
909.7714	1743.8279	3849.35	2967.15
909.9123	1745.5306	3852.75	2968.25
910.0532	1747.2325	3835.25	2954.75
910.1941	1748.9336	3803.65	2920.45
910.335	1750.634	3799.05	2916.15
910.4759	1752.3336	3798.35	2915.85
910.6168	1754.0325	3787.3	2907.25
910.7576	1755.7307	3770.7	2888.55
910.8984	1757.4281	3787.6	2906.85
911.0392	1759.1247	3768.7	2880.05
911.18	1760.8206	3758.65	2872.45
911.3208	1762.5158	3757.05	2871.05
911.4615	1764.2102	3737.35	2856.1
911.6022	1765.9039	3726.3	2842.05
911.7429	1767.5968	3701.25	2818.25
911.8836	1769.289	3688.8	2806.4
912.0243	1770.9804	3688.5	2805.75
912.1649	1772.6711	3696.85	2816.05
912.3056	1774.361	3676.4	2794.15
912.4462	1776.0502	3666.65	2783.85
912.5868	1777.7386	3675.35	2790.2
912.7274	1779.4263	3654.4	2770.5
912.8679	1781.1132	3650.15	2767.45
913.0084	1782.7994	3639.4	2755.2
913.149	1784.4849	3643.15	2761.35
913.2895	1786.1696	3640.5	2737.85
913.4299	1787.8535	3625.2	2744
913.5704	1789.5367	3618.15	2734.45
913.7108	1791.2192	3633.55	2749.9
913.8513	1792.9009	3601.85	2704.1
913.9917	1794.5818	3594.55	2711.8
914.132	1796.2621	3591.75	2709.95
914.2724	1797.9415	3573	2690.35
914.4128	1799.6202	3565.75	2683.85
914.5531	1801.2982	3561.05	2679.2
914.6934	1802.9755	3546.25	2663.05
914.8337	1804.6519	3551.45	2667.95
914.9739	1806.3277	3547.45	2665.95
915.1142	1808.0027	3534.2	2654.5
915.2544	1809.6769	3520.25	2637.4
915.3946	1811.3504	3523.9	2640.75
915.5348	1813.0231	3522.25	2639.7
915.675	1814.6951	3516.8	2636.3
915.8151	1816.3664	3510.15	2626.05
915.9553	1818.0369	3507.25	2623.6
916.0954	1819.7067	3483.55	2602.6
916.2355	1821.3757	3490.45	2605.2
916.3755	1823.044	3488.15	2607.45
916.5156	1824.7115	3464.35	2580.6
916.6556	1826.3783	3465.85	2585.55
916.7956	1828.0443	3445.2	2563.9
916.9356	1829.7096	3442.25	2558.45
917.0756	1831.3741	3448.85	2561.85
917.2155	1833.0379	3437.65	2556.6
917.3555	1834.701	3426.35	2542.45
917.4954	1836.3633	3436.35	2554.5
917.6353	1838.0248	3427.3	2543.75
917.7751	1839.6856	3403.7	2521.15
917.915	1841.3457	3402.35	2521.15
918.0548	1843.005	3411.25	2528.75
918.1946	1844.6636	3399.3	2517.35
918.3344	1846.3214	3401.2	2517.95
918.4742	1847.9785	3387.85	2505.05
918.6139	1849.6349	3388.95	2505.15
918.7537	1851.2904	3397.45	2505.85
918.8934	1852.9453	3384	2504.55
919.0331	1854.5994	3365.15	2481.3
919.1727	1856.2528	3379.9	2494.7
919.3124	1857.9054	3361.65	2479.7
919.452	1859.5572	3352.15	2470.85
919.5916	1861.2083	3354.05	2470.85
919.7312	1862.8587	3340.45	2460.15
919.8708	1864.5084	3350.35	2465.8
920.0103	1866.1572	3329.95	2450
920.1498	1867.8054	3315.2	2430.45
920.2893	1869.4528	3318.25	2437.7
920.4288	1871.0994	3308.3	2427.45
920.5683	1872.7453	3296.1	2412.9
920.7077	1874.3905	3322	2422.05
920.8471	1876.0349	3283.15	2402.4
920.9865	1877.6786	3291.75	2408.35
921.1259	1879.3215	3281.75	2400.85
921.2653	1880.9637	3269.95	2387.1
921.4046	1882.6051	3255.7	2373.2
921.5439	1884.2458	3258.9	2376.15
921.6832	1885.8858	3253.25	2370.1
921.8225	1887.525	3242.1	2358.4
921.9617	1889.1634	3231.2	2348.3
922.101	1890.8011	3220.7	2339.05
922.2402	1892.4381	3219.45	2337.75
922.3794	1894.0743	3227.4	2344.45
922.5185	1895.7098	3216.25	2334.75
922.6577	1897.3446	3211.55	2329.1
922.7968	1898.9786	3198.15	2312.75
922.9359	1900.6118	3196.75	2318.35
923.075	1902.2443	3179.8	2295.2
923.214	1903.8761	3186.15	2305.5
923.3531	1905.5071	3172.1	2288.1
923.4921	1907.1374	3163.8	2281.45
923.6311	1908.7669	3162.8	2283.1
923.77	1910.3957	3146.2	2262.75
923.909	1912.0237	3149.5	2266.15
924.0479	1913.651	3133.8	2250
924.1868	1915.2776	3118.55	2239.5
924.3257	1916.9034	3122.05	2240.5
924.4646	1918.5285	3118.45	2237.3
924.6034	1920.1528	3103.3	2221.45
924.7422	1921.7764	3109.1	2227.1
924.881	1923.3992	3102.05	2221.75
925.0198	1925.0213	3076.2	2192.4
925.1586	1926.6427	3058.35	2176.5
925.2973	1928.2633	3178.4	2172.95
925.436	1929.8832	3082.65	2198.95
925.5747	1931.5023	3068.75	2187.35
925.7134	1933.1207	3043.45	2160.6
925.852	1934.7383	3049.1	2166.95
925.9906	1936.3552	3037.9	2156.7
926.1292	1937.9714	3041.25	2159.55
926.2678	1939.5868	3030.5	2145.3
926.4064	1941.2015	3008.95	2126.5
926.5449	1942.8154	3007.65	2124.8
926.6834	1944.4286	2992.4	2109.45
926.8219	1946.041	2999.6	2095.25
926.9604	1947.6528	2987.35	2100.4
927.0988	1949.2637	2971.8	2089.8
927.2372	1950.8739	2959.4	2076.8
927.3756	1952.4834	2950.6	2067.75
927.514	1954.0921	2946.45	2062.65
927.6523	1955.7001	2951.15	2064.3
927.7907	1957.3074	2949.85	2067.75
927.929	1958.9139	2920.45	2036.9
928.0673	1960.5197	2931.6	2048.65
928.2055	1962.1247	2910	2028.05
928.3438	1963.729	2907.85	2028.85
928.482	1965.3325	2913.05	2006.9
928.6202	1966.9353	2893.4	2014.25
928.7584	1968.5374	2881.25	1997.5
928.8965	1970.1387	2876.95	1994.7
929.0346	1971.7393	2866.9	1983.8
929.1727	1973.3392	2867.4	1982.85
929.3108	1974.9383	2856.05	1973.8
929.4489	1976.5366	2845.7	1965.05
929.5869	1978.1342	2834.5	1952.15
929.7249	1979.7311	2845.9	1959.5
929.8629	1981.3273	2850.8	1967.4
930.0009	1982.9227	2839.55	1956.35
930.1388	1984.5173	2836.95	1955.35
930.2767	1986.1112	2805.1	1923.9
930.4146	1987.7044	2794.7	1914.55
930.5525	1989.2968	2809.6	1927.6
930.6904	1990.8885	2804.85	1920.7
930.8282	1992.4795	2791.4	1906.3
930.966	1994.0697	2779.55	1894.55
931.1038	1995.6592	2783.65	1900.55
931.2415	1997.2479	2775.7	1892.5
931.3793	1998.8359	2768.8	1886.7
931.517	2000.4232	2759.65	1876.75
931.6547	2002.0097	2756	1874.05
931.7923	2003.5955	2748.15	1864.6
931.93	2005.1805	2741.85	1857.05
932.0676	2006.7648	2745.2	1861.95
932.2052	2008.3484	2739.1	1855.05
932.3427	2009.9312	2742.2	1855.95
932.4803	2011.5133	2739.65	1859.4
932.6178	2013.0946	2732.65	1850.8
932.7553	2014.6752	2722.3	1841.15
932.8928	2016.2551	2730.7	1846.25
933.0302	2017.8342	2700.65	1818.95
933.1676	2019.4126	2699.6	1817.25
933.305	2020.9902	2692.2	1810.85
933.4424	2022.5672	2695.75	1809.75
933.5798	2024.1433	2706.5	1816.4
933.7171	2025.7188	2685.8	1805.65
933.8544	2027.2935	2672.1	1785.25
933.9917	2028.8674	2675.2	1793.75
934.129	2030.4406	2662.2	1778.8
934.2662	2032.0131	2648.15	1764.95
934.4034	2033.5849	2662.75	1776.8
934.5406	2035.1559	2650.65	1770.15
934.6778	2036.7261	2653.4	1771.95
934.8149	2038.2957	2641.4	1758.75
934.952	2039.8645	2638.15	1756
935.0891	2041.4325	2644.3	1761.2
935.2262	2042.9998	2626.65	1743.65
935.3632	2044.5664	2615.85	1729.85
935.5002	2046.1323	2621.75	1738.7
935.6372	2047.6974	2611.95	1726.65
935.7742	2049.2617	2602.65	1722.85
935.9111	2050.8254	2631.65	1715.8
936.048	2052.3883	2604.95	1720.8
936.1849	2053.9504	2599.75	1715.95
936.3218	2055.5118	2595	1712.95
936.4586	2057.0725	2602.35	1717.5
936.5955	2058.6325	2578.05	1695.8
936.7323	2060.1917	2582.6	1699.1
936.869	2061.7502	2575.95	1690.5
937.0058	2063.3079	2556.35	1672.5
937.1425	2064.8649	2553.25	1666.15
937.2792	2066.4212	2569.1	1684.9
937.4159	2067.9767	2559.85	1678.35
937.5525	2069.5315	2538.65	1656.85
937.6891	2071.0856	2525.05	1642.2
937.8257	2072.6389	2528.95	1645.95
937.9623	2074.1915	2515.2	1631.9
938.0989	2075.7433	2513	1626.2
938.2354	2077.2945	2510.8	1629.2
938.3719	2078.8448	2517.9	1633.95
938.5084	2080.3945	2506.65	1625.35
938.6448	2081.9434	2500.55	1616.5
938.7812	2083.4916	2483.15	1597.55
938.9176	2085.039	2491.75	1607.35
939.054	2086.5857	2479.35	1592.9
939.1903	2088.1317	2480.2	1594.9
939.3267	2089.677	2478.55	1591.65
939.463	2091.2215	2471.35	1585.85
939.5992	2092.7652	2477.9	1590.8
939.7355	2094.3083	2459.45	1571.15
939.8717	2095.8506	2446.15	1560.3
940.0079	2097.3921	2456.4	1567.05
940.1441	2098.933	2449.5	1559.85
940.2802	2100.4731	2450.95	1561.05
940.4163	2102.0124	2468.75	1558.6
940.5524	2103.5511	2452	1559.85
940.6885	2105.089	2445.7	1555.15
940.8245	2106.6261	2431.9	1541.6
940.9606	2108.1626	2427.8	1537.3
941.0965	2109.6983	2465.1	1547.7
941.2325	2111.2332	2431.35	1543.6
941.3684	2112.7675	2420.45	1533.9
941.5044	2114.301	2420.75	1532.45
941.6403	2115.8337	2414.5	1529.75
941.7761	2117.3657	2417.4	1531.9
941.912	2118.897	2407.1	1522.55
942.0478	2120.4276	2406.15	1517.25
942.1835	2121.9575	2397.05	1513.55
942.3193	2123.4866	2414.3	1516.85
942.455	2125.0149	2390.65	1505.7
942.5907	2126.5426	2381.4	1498.6
942.7264	2128.0695	2383.25	1497.5
942.8621	2129.5956	2378.85	1495.75
942.9977	2131.1211	2380.9	1495.45
943.1333	2132.6458	2372.6	1490.25
943.2689	2134.1698	2366.6	1484.2
943.4044	2135.693	2372.2	1487.3
943.54	2137.2155	2375.95	1490.8
943.6755	2138.7373	2353.3	1471.15
943.8109	2140.2584	2359.5	1477.05
943.9464	2141.7787	2344.25	1454.5
944.0818	2143.2983	2339.9	1458.15
944.2172	2144.8171	2326.25	1445.05
944.3526	2146.3353	2327.3	1441.15
944.4879	2147.8527	2318.75	1439.35
944.6232	2149.3693	2316.15	1433.25
944.7585	2150.8853	2309.9	1426.55
944.8938	2152.4005	2307.95	1426.3
945.029	2153.9149	2316.55	1432.3
945.1642	2155.4287	2299.55	1417.15
945.2994	2156.9417	2297.5	1411.85
945.4346	2158.454	2303.65	1419.2
945.5697	2159.9655	2307.3	1423.75
945.7048	2161.4764	2297.5	1414.1
945.8399	2162.9865	2278	1394.95
945.9749	2164.4958	2291.05	1406.45
946.1099	2166.0045	2289.95	1403.9
946.2449	2167.5124	2286	1404.7
946.3799	2169.0195	2279.85	1394.4
946.5148	2170.526	2266.85	1383.55
946.6498	2172.0317	2272.5	1389.55
946.7846	2173.5367	2263.5	1380.95
946.9195	2175.0409	2272.75	1392.85
947.0543	2176.5445	2265.4	1382.55
947.1891	2178.0473	2258.35	1376.55
947.3239	2179.5494	2252.2	1364.1
947.4587	2181.0507	2247.4	1363.55
947.5934	2182.5513	2236.6	1353.65
947.7281	2184.0512	2245.75	1362.7
947.8628	2185.5504	2246.6	1364.2
947.9974	2187.0488	2235.3	1352.95
948.132	2188.5465	2230.05	1345.7
948.2666	2190.0435	2234.75	1351.7
948.4012	2191.5397	2216.2	1332.65
948.5357	2193.0353	2215.35	1332.7
948.6702	2194.5301	2216.4	1332.65
948.8047	2196.0241	2208.65	1325.35
948.9392	2197.5175	2203.4	1321.95
949.0736	2199.0101	2196.3	1310.05
949.208	2200.502	2187.55	1305.5
949.3424	2201.9931	2175.6	1292.9
949.4767	2203.4835	2188.35	1302.55
949.611	2204.9733	2189.6	1297.9
949.7453	2206.4622	2173.7	1289
949.8796	2207.9505	2180.65	1293.1
950.0138	2209.438	2177.1	1295.2
950.148	2210.9248	2164.65	1281.45
950.2822	2212.4109	2153.85	1270.55
950.4164	2213.8962	2153.65	1268.4
950.5505	2215.3809	2154.1	1270.25
950.6846	2216.8648	2147.35	1263.25
950.8186	2218.3479	2149.7	1262.5
950.9527	2219.8304	2140.3	1254.55
951.0867	2221.3121	2143.75	1259.3
951.2207	2222.7931	2124.85	1243.3
951.3546	2224.2733	2117.55	1235.5
951.4886	2225.7529	2126.8	1242.65
951.6225	2227.2317	2125.2	1240.05
951.7563	2228.7098	2112.25	1229.85
951.8902	2230.1872	2107.65	1226.1
952.024	2231.6638	2099.75	1217.15
952.1578	2233.1397	2103.6	1214.45
952.2916	2234.6149	2087	1203.45
952.4253	2236.0894	2095.7	1212.5
952.559	2237.5632	2099.15	1205.65
952.6927	2239.0362	2086.7	1202.65
952.8263	2240.5085	2086.15	1204.2
952.9599	2241.9801	2080.85	1196.35
953.0935	2243.4509	2074.1	1192.45
953.2271	2244.921	2058	1175.45
953.3606	2246.3904	2065.05	1181.6
953.4941	2247.8591	2050.35	1168.9
953.6276	2249.3271	2057.45	1174.8
953.7611	2250.7943	2050.6	1167.1
953.8945	2252.2608	2049	1166.35
954.0279	2253.7266	2045	1160.15
954.1612	2255.1917	2039.5	1155.85
954.2946	2256.656	2032.7	1146.8
954.4279	2258.1197	2042.7	1158.85
954.5612	2259.5826	2033.15	1148.1
954.6944	2261.0447	2041.1	1156.4
954.8276	2262.5062	2020	1136.5
954.9608	2263.9669	2028.65	1142.75
955.094	2265.4269	2028.9	1144.95
955.2271	2266.8862	2023.7	1140.9
955.3602	2268.3448	2021.1	1137.15
955.4933	2269.8026	2015.35	1131.65
955.6264	2271.2598	2012.6	1129.75
955.7594	2272.7162	2001.15	1120.05
955.8924	2274.1719	2008.8	1124.35
956.0253	2275.6268	1995.5	1115.05
956.1583	2277.0811	1988.4	1104.1
956.2912	2278.5346	1999.45	1116.3
956.4241	2279.9874	1987.8	1103.9
956.5569	2281.4395	1997.3	1113.5
956.6897	2282.8908	1992.4	1104.8
956.8225	2284.3414	1991.95	1106
956.9553	2285.7914	1990.1	1107.6
957.088	2287.2406	1986.75	1102.1
957.2207	2288.689	1965.65	1081.45
957.3534	2290.1368	1981.55	1097.85
957.486	2291.5838	1972.3	1088.05
957.6186	2293.0302	1974.9	1090.85
957.7512	2294.4758	1957.65	1075.8
957.8838	2295.9206	1962.05	1075.3
958.0163	2297.3648	1963	1078.2
958.1488	2298.8082	1954.8	1070.3
958.2813	2300.251	1953.75	1073.35
958.4137	2301.693	1964.7	1075.85
958.5461	2303.1343	1945.8	1063.2
958.6785	2304.5748	1938.05	1055.35
958.8108	2306.0147	1943.95	1061.65
958.9432	2307.4538	1935.8	1051.1
959.0754	2308.8922	1926.7	1045.7
959.2077	2310.3299	1930.6	1044.85
959.3399	2311.7669	1925.5	1044.15
959.4721	2313.2031	1929.45	1045
959.6043	2314.6387	1914.2	1031.1
959.7365	2316.0735	1915.65	1030.9
959.8686	2317.5076	1916.3	1030.2
960.0006	2318.941	1914.65	1031.75
960.1327	2320.3737	1907.55	1023.85
960.2647	2321.8056	1908.45	1023.35
960.3967	2323.2369	1901.6	1016.25
960.5287	2324.6674	1903.7	1020.2
960.6606	2326.0972	1906.55	1020.65
960.7925	2327.5263	1882.45	1000.05
960.9244	2328.9547	1882.9	998.55
961.0562	2330.3823	1888.65	1004.35
961.1881	2331.8092	1899.65	1014.3
961.3198	2333.2355	1882.2	1000.2
961.4516	2334.661	1886.5	1004.55
961.5833	2336.0858	1884.2	997.75
961.715	2337.5098	1879.5	996.45
961.8467	2338.9332	1876.05	991.45
961.9783	2340.3558	1873.35	985.65
962.1099	2341.7778	1864.7	981.15
962.2415	2343.199	1864.9	980.15
962.373	2344.6195	1871.7	990.2
962.5045	2346.0393	1862.4	981.45
962.636	2347.4583	1860.75	975.55
962.7675	2348.8767	1865.5	980.8
962.8989	2350.2943	1862.75	980.3
963.0303	2351.7113	1857.05	972.5
963.1617	2353.1275	1856.15	974.85
963.293	2354.543	1867.2	959.95
963.4243	2355.9578	1849.45	966.15
963.5556	2357.3718	1856.1	973.3
963.6868	2358.7852	1848.05	962.35
963.818	2360.1978	1841.6	956.6
963.9492	2361.6098	1847.35	965.8
964.0803	2363.021	1835.6	946.15
964.2114	2364.4315	1825	942.85
964.3425	2365.8413	1828.05	942.4
964.4736	2367.2504	1824.6	941.45
964.6046	2368.6587	1817.65	935.25
964.7356	2370.0664	1806.5	923.4
964.8666	2371.4733	1809.55	925.25
964.9975	2372.8795	1813.35	931.9
965.1284	2374.285	1803	918.15
965.2593	2375.6899	1798.1	916.3
965.3901	2377.0939	1804.7	922.2
965.5209	2378.4973	1800.8	917.5
965.6517	2379.9	1796.6	913.1
965.7825	2381.3019	1794.15	911.4
965.9132	2382.7032	1786.3	904.05
966.0439	2384.1037	1781.8	899.85
966.1745	2385.5035	1788.1	905.9
966.3051	2386.9027	1778.7	898.95
966.4357	2388.3011	1777.95	891.45
966.5663	2389.6987	1777.05	895.05
966.6968	2391.0957	1774.3	893.05
966.8273	2392.492	1761.35	879.35
966.9578	2393.8876	1761.25	878.65
967.0882	2395.2824	1763.6	880.95
967.2186	2396.6765	1751.3	870
967.349	2398.07	1751.55	869.7
967.4793	2399.4627	1757.7	875.2
967.6097	2400.8547	1743.25	860.6
967.7399	2402.246	1746.9	859.85
967.8702	2403.6366	1754.95	871.1
968.0004	2405.0265	1747.05	865.25
968.1306	2406.4156	1749.5	862.35
968.2607	2407.8041	1732.9	847.95
968.3909	2409.1918	1733.15	849.45
968.521	2410.5789	1733.9	850.2
968.651	2411.9652	1723.55	837.9
968.781	2413.3508	1727.45	845.95
968.911	2414.7358	1724.35	841.95
969.041	2416.12	1721.75	840.55
969.1709	2417.5035	1721.95	841.2
969.3008	2418.8863	1714.7	832.7
969.4307	2420.2684	1711.3	829.4
969.5606	2421.6497	1704.5	821.15
969.6904	2423.0304	1703.8	821.35
969.8201	2424.4104	1705.2	823.35
969.9499	2425.7896	1707.3	823.85
970.0796	2427.1682	1695.9	812.55
970.2093	2428.546	1702.35	817.65
970.3389	2429.9232	1682.4	799.8
970.4685	2431.2996	1695.65	813.55
970.5981	2432.6753	1689.25	807.4
970.7277	2434.0503	1690.75	809.45
970.8572	2435.4246	1674.6	793.7
970.9867	2436.7982	1679.05	794.9
971.1161	2438.1711	1669.6	788.85
971.2456	2439.5433	1676.7	792.1
971.375	2440.9148	1676.9	788.95
971.5043	2442.2856	1675.75	795.55
971.6336	2443.6557	1675.3	790.85
971.7629	2445.025	1672.25	791.7
971.8922	2446.3937	1660.9	778.1
972.0214	2447.7617	1665.85	782.35
972.1506	2449.1289	1655.6	774.45
972.2798	2450.4955	1670.5	785.35
972.4089	2451.8613	1659.55	777.3
972.538	2453.2265	1660.9	777
972.6671	2454.5909	1660.7	776.55
972.7961	2455.9546	1657.15	775.6
972.9251	2457.3177	1652.45	769.7
973.0541	2458.68	1653	767.95
973.1831	2460.0416	1649.95	768.3
973.312	2461.4025	1646.75	761.7
973.4408	2462.7627	1663.1	768.95
973.5697	2464.1222	1649.1	767.05
973.6985	2465.4811	1641.9	756.3
973.8273	2466.8392	1635.9	753.25
973.956	2468.1966	1642.6	757.25
974.0847	2469.5533	1647.35	761
974.2134	2470.9093	1642.25	758.05
974.3421	2472.2645	1644.85	760.85
974.4707	2473.6191	1632.3	749.9
974.5993	2474.973	1629.1	744.7
974.7278	2476.3262	1631.05	746.55
974.8563	2477.6787	1628.8	746.8
974.9848	2479.0305	1620.85	737.85
975.1132	2480.3816	1621.15	736.75
975.2417	2481.7319	1616.7	733.15
975.37	2483.0816	1620.35	735.75
975.4984	2484.4306	1617.7	733.1
975.6267	2485.7789	1609.65	725.7
975.755	2487.1264	1615.35	731.1
975.8833	2488.4733	1604.45	722.25
976.0115	2489.8195	1624.15	724.75
976.1397	2491.165	1608.75	722.85
976.2678	2492.5097	1604.05	718.7
976.3959	2493.8538	1589.5	707.2
976.524	2495.1972	1594.75	711.8
976.6521	2496.5398	1591.2	705.05
976.7801	2497.8818	1592.95	708.15
976.9081	2499.2231	1595.2	711.45
977.036	2500.5637	1593.35	710.1
977.164	2501.9035	1576.95	693.25
977.2918	2503.2427	1581.75	694.55
977.4197	2504.5812	1582.45	701.15
977.5475	2505.919	1581.15	695.85
977.6753	2507.256	1591.15	710.6
977.8031	2508.5924	1574.85	692.6
977.9308	2509.9281	1581.85	692.7
978.0585	2511.2631	1577.2	693.7
978.1861	2512.5974	1570.4	688.65
978.3137	2513.9309	1563.9	682.15
978.4413	2515.2638	1583.8	673.1
978.5689	2516.596	1565.25	682.75
978.6964	2517.9275	1575.15	692
978.8239	2519.2583	1557.9	674.95
978.9513	2520.5884	1563.9	678.15
979.0788	2521.9178	1560.35	676.65
979.2062	2523.2465	1554.3	671.15
979.3335	2524.5745	1547.8	663.5
979.4608	2525.9018	1553.7	671.25
979.5881	2527.2284	1542.25	662.25
979.7154	2528.5543	1544.5	663.35
979.8426	2529.8796	1554.4	670.25
979.9698	2531.2041	1547.05	663.3
980.0969	2532.5279	1544.65	663.45
980.224	2533.851	1549.25	665.9
980.3511	2535.1735	1544.35	661.45
980.4781	2536.4952	1537.1	652.85
980.6052	2537.8163	1537.3	653.75
980.7321	2539.1366	1536.4	655.25
980.8591	2540.4562	1535.9	650.9
980.986	2541.7752	1543.05	659.45
981.1129	2543.0935	1542.45	659.35
981.2397	2544.411	1529.6	645.4
981.3665	2545.7279	1533.9	652.4
981.4933	2547.0441	1531.4	647.75
981.62	2548.3596	1535.6	650.55
981.7467	2549.6744	1527.65	643.75
981.8734	2550.9885	1526.25	642.45
982.0001	2552.3019	1524.7	641.1
982.1267	2553.6146	1523.9	640.9
982.2532	2554.9266	1522.6	639.85
982.3798	2556.2379	1523.55	641.9
982.5063	2557.5485	1521.35	640.1
982.6327	2558.8585	1519.05	629.75
982.7592	2560.1677	1519.9	632.9
982.8856	2561.4762	1507.15	624.6
983.0119	2562.7841	1513.6	627
983.1383	2564.0913	1501.8	620.5
983.2646	2565.3977	1507.5	623.9
983.3908	2566.7035	1502.9	617.9
983.517	2568.0086	1508.05	624.3
983.6432	2569.313	1501.45	618.7
983.7694	2570.6167	1507.15	622.2
983.8955	2571.9197	1504.5	622.75
984.0216	2573.222	1504.25	617.9
984.1476	2574.5236	1501.95	619.85
984.2737	2575.8246	1500.85	614.75
984.3996	2577.1248	1497.55	610.8
984.5256	2578.4244	1498.45	615.8
984.6515	2579.7232	1500.65	616.3
984.7774	2581.0214	1539.25	625.3
984.9032	2582.3189	1499.05	615.75
985.029	2583.6157	1503.55	616.05
985.1548	2584.9118	1503.8	621.45
985.2806	2586.2072	1501.1	618.8
985.4063	2587.5019	1500.1	617.2
985.5319	2588.7959	1503.9	620.05
985.6576	2590.0893	1506.8	621.4
985.7832	2591.3819	1497.1	615.95
985.9087	2592.6739	1500.6	617.8
986.0343	2593.9652	1508.1	624.5
986.1597	2595.2557	1509.3	628.8
986.2852	2596.5456	1512.65	628.3
986.4106	2597.8348	1505.05	622.65
986.536	2599.1234	1508.6	625.4
986.6614	2600.4112	1505.15	623.4
986.7867	2601.6983	1505.7	619.85
986.912	2602.9848	1504.75	621.15
987.0372	2604.2705	1513.4	622.85
987.1624	2605.5556	1516.25	633.1
987.2876	2606.84	1498.05	614.4
987.4128	2608.1237	1507.25	623.75
987.5379	2609.4067	1500.75	616.3
987.6629	2610.689	1498.35	606.85
987.788	2611.9707	1494.1	606.15
987.913	2613.2516	1490.05	603.65
988.0379	2614.5319	1486.8	603.3
988.1629	2615.8115	1491.55	607.55
988.2878	2617.0903	1489	606.25
988.4126	2618.3685	1479.75	595.55
988.5375	2619.6461	1485.75	602.6
988.6622	2620.9229	1483.8	601.2
988.787	2622.199	1482.15	599
988.9117	2623.4745	1481.65	598.35
989.0364	2624.7493	1472.3	590.7
989.161	2626.0234	1476.4	594.7
989.2857	2627.2968	1474.65	594.2
989.4102	2628.5695	1478.4	593.75
989.5348	2629.8415	1477.85	595
989.6593	2631.1128	1475.55	590.75
989.7837	2632.3835	1481.65	598.05
989.9082	2633.6535	1468.9	586.7
990.0326	2634.9228	1470.8	588.45
990.1569	2636.1914	1466.7	584.85
990.2812	2637.4593	1468.8	583.2
990.4055	2638.7265	1471.7	589.35
990.5298	2639.9931	1465.75	585.6
990.654	2641.259	1467.35	582.25
990.7782	2642.5242	1457.65	573.1
990.9023	2643.7887	1466.85	582.4
991.0264	2645.0525	1463.95	580.75
991.1505	2646.3156	1458.2	573.75
991.2745	2647.5781	1458.15	573.6
991.3985	2648.8398	1452.3	570.5
991.5225	2650.1009	1497.9	575.85
991.6464	2651.3613	1455.5	574.65
991.7703	2652.6211	1452.15	571.05
991.8942	2653.8801	1444.7	561.7
992.018	2655.1385	1446.15	558.65
992.1418	2656.3961	1450.15	567.65
992.2655	2657.6531	1453.1	568.7
992.3892	2658.9094	1450.35	565.25
992.5129	2660.1651	1450.9	567.15
992.6366	2661.42	1450.5	568.55
992.7602	2662.6743	1459.85	575.4
992.8837	2663.9279	1451.05	569.05
993.0073	2665.1808	1464.95	579.5
993.1307	2666.433	1456.7	572.5
993.2542	2667.6846	1460.1	577.05
993.3776	2668.9354	1470.45	584.45
993.501	2670.1856	1461.3	577.7
993.6244	2671.4351	1470.15	587.15
993.7477	2672.6839	1467	581.7
993.8709	2673.9321	1467.1	586.25
993.9942	2675.1795	1475.6	592.05
994.1174	2676.4263	1466.65	583.8
994.2405	2677.6724	1465.25	581.75
994.3637	2678.9179	1473.45	588.9
994.4868	2680.1626	1473.25	589.5
994.6098	2681.4067	1475.2	590.85
994.7328	2682.6501	1472.85	588.25
994.8558	2683.8928	1476.3	593.5
994.9788	2685.1348	1459.95	577.9
995.1017	2686.3761	1460.9	578.6
995.2245	2687.6168	1460.6	577.65
995.3474	2688.8568	1455.65	572.4
995.4702	2690.0961	1451.7	571.75
995.5929	2691.3348	1456.45	572.6
995.7156	2692.5727	1452.2	569
995.8383	2693.81	1450.85	568.35
995.961	2695.0466	1444	561.4
996.0836	2696.2826	1443.75	560.65
996.2062	2697.5178	1445.4	556.85
996.3287	2698.7524	1438.25	555.15
996.4512	2699.9863	1447.9	562.2
996.5737	2701.2195	1443.05	562.35
996.6961	2702.452	1450.25	564.4
996.8185	2703.6839	1451.8	567.05
996.9408	2704.9151	1454.8	573.75
997.0631	2706.1456	1463.65	580
997.1854	2707.3755	1470.05	587.5
997.3077	2708.6046	1478.35	593.15
997.4299	2709.8331	1478.85	595.85
997.552	2711.0609	1487.3	604.45
997.6742	2712.2881	1495.2	610
997.7963	2713.5145	1503.65	618.05
997.9183	2714.7403	1509.05	628.9
998.0403	2715.9654	1533.3	650.95
998.1623	2717.1899	1546.5	648.75
998.2842	2718.4136	1540.95	658
998.4062	2719.6367	1557.45	673.9
998.528	2720.8591	1565.1	675.7
998.6498	2722.0809	1578	694.95
998.7716	2723.3019	1596.6	707.85
998.8934	2724.5223	1593.2	707.85
999.0151	2725.7421	1609.35	724.45
999.1368	2726.9611	1600.75	715.1
999.2584	2728.1795	1602.05	712.15
999.38	2729.3972	1597.8	713.45
999.5016	2730.6142	1592.85	698.25
999.6231	2731.8306	1573.2	689.25
999.7446	2733.0462	1554.7	672.2
999.8661	2734.2612	1549.35	661.3
999.9875	2735.4756	1529.35	643.9
1000.1089	2736.6892	1506.35	622.85
1000.2302	2737.9022	1498.25	617.85
1000.3515	2739.1145	1482.45	597.9
1000.4728	2740.3262	1475.5	584
1000.594	2741.5372	1449.15	568.5
1000.7152	2742.7475	1444.9	561.8
1000.8363	2743.9571	1433.7	548.3
1000.9575	2745.1661	1431.3	542.2
1001.0785	2746.3744	1417.8	534.25
1001.1996	2747.582	1409.7	526.95
1001.3206	2748.7889	1404.35	517.65
1001.4415	2749.9952	1398.45	514.7
1001.5625	2751.2008	1389	505.05
1001.6833	2752.4057	1383.65	498.8
1001.8042	2753.61	1386.4	499.8
1001.925	2754.8136	1380.8	496.65
1002.0458	2756.0165	1387.05	505.2
1002.1665	2757.2188	1383.45	500.15
1002.2872	2758.4204	1374.6	492.9
1002.4078	2759.6213	1376.25	490.85
1002.5285	2760.8215	1382.75	494.35
1002.649	2762.0211	1380.95	495.7
1002.7696	2763.22	1375.95	489
1002.8901	2764.4182	1373.95	492.1
1003.0106	2765.6158	1371.2	487.6
1003.131	2766.8127	1365.55	483.2
1003.2514	2768.009	1368.85	486.5
1003.3717	2769.2045	1360.75	475.8
1003.492	2770.3994	1361.65	474.75
1003.6123	2771.5936	1364.45	480.75
1003.7325	2772.7872	1352.2	467.45
1003.8527	2773.9801	1358.35	474.6
1003.9729	2775.1723	1367.15	467.05
1004.093	2776.3639	1355.75	473.85
1004.2131	2777.5548	1354.3	467.75
1004.3331	2778.745	1353.2	467.9
1004.4531	2779.9346	1357.5	476.65
1004.5731	2781.1235	1357.55	474.7
1004.693	2782.3117	1360.75	477.25
1004.8129	2783.4992	1367	484.25
1004.9328	2784.6861	1369.15	484
1005.0526	2785.8723	1377.8	493.25
1005.1723	2787.0579	1380.1	495.6
1005.2921	2788.2428	1386.3	502.45
1005.4118	2789.427	1394.4	512.55
1005.5314	2790.6106	1403.85	521.2
1005.651	2791.7935	1407.4	524.1
1005.7706	2792.9757	1415.05	532.9
1005.8902	2794.1573	1435.2	549.1
1006.0097	2795.3382	1450.3	568.45
1006.1291	2796.5184	1461.55	581.3
1006.2485	2797.698	1476.75	589.35
1006.3679	2798.8769	1489.5	607.5
1006.4873	2800.0551	1509.6	626.3
1006.6066	2801.2327	1521.7	635.85
1006.7258	2802.4096	1539.5	656.85
1006.8451	2803.5859	1553.75	669.65
1006.9642	2804.7615	1574.7	690.75
1007.0834	2805.9364	1598.1	717.95
1007.2025	2807.1106	1622.5	738.95
1007.3216	2808.2842	1652.1	767.3
1007.4406	2809.4572	1682.05	798.65
1007.5596	2810.6294	1718.45	835.65
1007.6785	2811.801	1755.75	874.45
1007.7975	2812.972	1798.9	915.65
1007.9163	2814.1423	1837.25	954.75
1008.0352	2815.3119	1890.95	1008.45
1008.154	2816.4808	1934.9	1051.75
1008.2727	2817.6491	1984.35	1100.85
1008.3914	2818.8167	2032.35	1149.25
1008.5101	2819.9837	2092.3	1205.15
1008.6288	2821.15	2132.2	1249.75
1008.7474	2822.3157	2182.45	1300.3
1008.8659	2823.4807	2231.75	1349.45
1008.9844	2824.645	2284.15	1397.15
1009.1029	2825.8086	2333.35	1452.2
1009.2214	2826.9716	2373.9	1490.95
1009.3398	2828.134	2414.1	1531.1
1009.4581	2829.2957	2465	1580.05
1009.5764	2830.4567	2492.95	1613.05
1009.6947	2831.617	2514.45	1628.6
1009.813	2832.7767	2512.4	1629.4
1009.9312	2833.9358	2521.65	1638.9
1010.0493	2835.0941	2512.4	1627
1010.1675	2836.2519	2488.35	1605.35
1010.2855	2837.4089	2485.7	1602.05
1010.4036	2838.5653	2474.3	1590.35
1010.5216	2839.7211	2471.3	1588.75
1010.6396	2840.8761	2473.15	1589.65
1010.7575	2842.0306	2488.6	1607.1
1010.8754	2843.1843	2521.5	1639.55
1010.9932	2844.3374	2570.4	1688.3
1011.111	2845.4899	2608.55	1727.2
1011.2288	2846.6417	2682.25	1799.25
1011.3465	2847.7928	2751.65	1869.8
1011.4642	2848.9433	2815.6	1931
1011.5818	2850.0931	2894.35	2012.7
1011.6995	2851.2422	2981.35	2095.3
1011.817	2852.3907	3044.55	2159.1
1011.9345	2853.5385	3100.75	2217.2
1012.052	2854.6857	3188.15	2277.45
1012.1695	2855.8323	3220.7	2340
1012.2869	2856.9781	3255.05	2370.85
1012.4042	2858.1233	3317.95	2434.75
1012.5216	2859.2679	3365.1	2480.8
1012.6389	2860.4118	3407.1	2523.25
1012.7561	2861.555	3440.4	2552.5
1012.8733	2862.6976	3496.15	2613.15
1012.9905	2863.8395	3520.85	2639.1
1013.1076	2864.9808	3551.2	2669.55
1013.2247	2866.1214	3564.95	2682.95
1013.3417	2867.2614	3585.15	2699.3
1013.4587	2868.4007	3600.1	2715.35
1013.5757	2869.5393	3607.75	2720.45
1013.6926	2870.6773	3626.3	2740.85
1013.8095	2871.8146	3629.4	2745.25
1013.9263	2872.9513	3651.15	2766.2
1014.0431	2874.0874	3630.7	2747.65
1014.1599	2875.2227	3630.85	2747.75
1014.2766	2876.3574	3598.95	2716.7
1014.3933	2877.4915	3565.1	2683.2
1014.51	2878.6249	3543.95	2661.65
1014.6266	2879.7577	3535.15	2649.55
1014.7431	2880.8898	3529.6	2637.55
1014.8596	2882.0212	3500.9	2617.15
1014.9761	2883.152	3486.35	2603.1
1015.0925	2884.2821	3478.7	2596.8
1015.2089	2885.4116	3459.2	2578.2
1015.3253	2886.5405	3466.2	2584.7
1015.4416	2887.6686	3489.4	2603.8
1015.5579	2888.7962	3474	2592.3
1015.6741	2889.923	3486.7	2603.9
1015.7903	2891.0493	3500.2	2618.8
1015.9065	2892.1748	3495.95	2614.3
1016.0226	2893.2997	3515.5	2632.5
1016.1387	2894.424	3538.05	2655.75
1016.2547	2895.5476	3551.35	2669.4
1016.3707	2896.6706	3575.3	2694.3
1016.4866	2897.7929	3582.35	2698.6
1016.6025	2898.9145	3628.9	2746.9
1016.7184	2900.0355	3656.05	2772.45
1016.8342	2901.1559	3680.95	2796.7
1016.95	2902.2756	3731.2	2849.35
1017.0658	2903.3946	3766.9	2882.75
1017.1815	2904.513	3799.35	2913.6
1017.2971	2905.6308	3815.5	2934.6
1017.4127	2906.7479	3833.1	2950.25
1017.5283	2907.8643	3875.9	2991.4
1017.6439	2908.9801	3867.85	2983.3
1017.7594	2910.0953	3896.9	3014.15
1017.8748	2911.2098	3895.25	3008.95
1017.9902	2912.3236	3877.2	2986.85
1018.1056	2913.4368	3873.4	2984.1
1018.2209	2914.5494	3841.25	2959.1
1018.3362	2915.6613	3827.7	2938.3
1018.4515	2916.7725	3785.2	2901.6
1018.5667	2917.8831	3756.6	2872.2
1018.6819	2918.9931	3742.5	2855.95
1018.797	2920.1024	3701.95	2817.8
1018.9121	2921.211	3669.5	2787.4
1019.0271	2922.319	3660.5	2776.7
1019.1421	2923.4264	3648.2	2765.5
1019.2571	2924.5331	3631.55	2748.15
1019.372	2925.6391	3628.05	2746.45
1019.4869	2926.7445	3625.7	2744.75
1019.6017	2927.8493	3610.1	2728.65
1019.7165	2928.9534	3601.65	2720.15
1019.8313	2930.0569	3614.85	2729.15
1019.946	2931.1597	3594.65	2710.25
1020.0606	2932.2619	3613.75	2729.7
1020.1753	2933.3634	3593.6	2712.35
1020.2899	2934.4643	3595.15	2705.1
1020.4044	2935.5645	3569.6	2677.95
1020.5189	2936.6641	3539.9	2653.15
1020.6334	2937.763	3505.8	2623.2
1020.7478	2938.8613	3459.45	2576.9
1020.8622	2939.959	3417.2	2528.5
1020.9765	2941.056	3332.45	2451.15
1021.0908	2942.1523	3244.95	2362.85
1021.2051	2943.248	3171.45	2288.85
1021.3193	2944.3431	3076.85	2194.8
1021.4334	2945.4375	2982.35	2096.55
1021.5476	2946.5313	2883.45	2001.3
1021.6617	2947.6244	2776.45	1893.5
1021.7757	2948.7169	2672.3	1788.05
1021.8897	2949.8087	2579.7	1695.5
1022.0037	2950.8999	2495.35	1612.2
1022.1176	2951.9904	2419.1	1535.85
1022.2315	2953.0803	2334.7	1450.4
1022.3453	2954.1696	2282.05	1398.85
1022.4591	2955.2582	2226.6	1346.1
1022.5728	2956.3462	2182.45	1299.65
1022.6865	2957.4335	2138.7	1255.65
1022.8002	2958.5202	2108.75	1220.75
1022.9138	2959.6062	2078.85	1196.05
1023.0274	2960.6916	2052.9	1169.7
1023.141	2961.7764	2035.85	1151.85
1023.2545	2962.8605	2020.25	1137.8
1023.3679	2963.9439	2000.7	1118.45
1023.4813	2965.0267	1997.75	1112.65
1023.5947	2966.1089	2010.65	1104.7
1023.708	2967.1905	1983.9	1102.6
1023.8213	2968.2714	1981.4	1099.1
1023.9346	2969.3516	1983.95	1105
1024.0478	2970.4312	1988.85	1098.6
1024.1609	2971.5102	1987.35	1104.2
1024.274	2972.5885	1989.15	1107.1
1024.3871	2973.6662	1987.85	1098.85
1024.5002	2974.7432	1980.35	1097.8
1024.6132	2975.8196	1976.65	1093.45
1024.7261	2976.8954	1968.9	1087.25
1024.839	2977.9705	1957.65	1074.1
1024.9519	2979.045	1940.85	1059.5
1025.0647	2980.1188	1937.2	1054.4
1025.1775	2981.192	1916.3	1034.25
1025.2902	2982.2645	1902.2	1018.35
1025.4029	2983.3364	1871	989.6
1025.5156	2984.4077	1836.7	955.3
1025.6282	2985.4783	1817.35	928.7
1025.7407	2986.5483	1792.1	909.55
1025.8532	2987.6177	1757.65	876.4
1025.9657	2988.6864	1718.15	832.75
1026.0782	2989.7545	1686.2	804.05
1026.1906	2990.8219	1654.05	771.3
1026.3029	2991.8887	1622.05	735.9
1026.4152	2992.9548	1592	708.05
1026.5275	2994.0204	1554.75	672.65
1026.6397	2995.0852	1526.45	645.65
1026.7519	2996.1495	1505.45	621.3
1026.864	2997.2131	1476.55	593.6
1026.9761	2998.276	1457.35	577.35
1027.0882	2999.3383	1432	547.35
1027.2002	3000.4	1420.8	536.55
1027.3122	3001.4611	1398.6	515.35
1027.4241	3002.5215	1391.25	510.15
1027.536	3003.5812	1376.15	492.85
1027.6478	3004.6404	1363.15	479.45
1027.7596	3005.6989	1350.5	465.3
1027.8714	3006.7567	1343	460.55
1027.9831	3007.8139	1359.4	453.4
1028.0947	3008.8705	1326.4	443.9
1028.2064	3009.9264	1333.35	434.4
1028.3179	3010.9818	1307.8	426.15
1028.4295	3012.0364	1316.35	435.6
1028.541	3013.0905	1309.5	425.55
1028.6524	3014.1439	1301.45	417.7
1028.7638	3015.1966	1303.15	418.7
1028.8752	3016.2487	1296.05	412.5
1028.9865	3017.3002	1297.25	411.1
1029.0978	3018.3511	1297.5	415.5
1029.209	3019.4013	1291.45	409.45
1029.3202	3020.4509	1287.95	404.7
1029.4314	3021.4998	1296.5	412.5
1029.5425	3022.5481	1289.25	406.25
1029.6535	3023.5958	1297.65	416.45
1029.7645	3024.6428	1292.85	408.85
1029.8755	3025.6892	1295.1	414.55
1029.9864	3026.735	1296.85	412.65
1030.0973	3027.7802	1298.65	416.45
1030.2082	3028.8247	1300.25	417.35
1030.319	3029.8685	1302.4	419.9
1030.4297	3030.9118	1305.25	420.85
1030.5404	3031.9544	1312.8	431.35
1030.6511	3032.9963	1307.7	426.2
1030.7617	3034.0376	1309.1	428.55
1030.8723	3035.0783	1318.95	433.9
1030.9829	3036.1184	1317.9	433.65
1031.0934	3037.1578	1325.1	443.75
1031.2038	3038.1966	1330.5	447.6
1031.3142	3039.2348	1335.5	453.3
1031.4246	3040.2723	1340.45	449.6
1031.5349	3041.3092	1331.5	451.8
1031.6452	3042.3455	1325.15	441.4
1031.7554	3043.3811	1325.25	441.45
1031.8656	3044.4161	1321.15	439.1
1031.9758	3045.4505	1322.8	440.25
1032.0859	3046.4842	1316.95	434.05
1032.1959	3047.5173	1316.15	435.2
1032.3059	3048.5498	1304.95	423.15
1032.4159	3049.5816	1298.9	417.9
1032.5258	3050.6128	1295.75	412.25
1032.6357	3051.6434	1290.75	408.05
1032.7455	3052.6734	1286.15	401.7
1032.8553	3053.7027	1280.3	397.3
1032.9651	3054.7314	1271.75	389.75
1033.0748	3055.7594	1265.1	383.95
1033.1845	3056.7868	1262.65	380.35
1033.2941	3057.8136	1259.3	375.55
1033.4037	3058.8398	1259.5	379.5
1033.5132	3059.8653	1250.2	367
1033.6227	3060.8902	1249.65	368.3
1033.7321	3061.9145	1243.3	362.65
1033.8415	3062.9381	1240.5	357.25
1033.9509	3063.9612	1248.15	350.75
1034.0602	3064.9835	1226.75	345.7
1034.1694	3066.0053	1226.45	342.15
1034.2787	3067.0264	1218.7	338.25
1034.3878	3068.0469	1217.95	333.8
1034.497	3069.0668	1204.4	317.95
1034.6061	3070.086	1193.55	311.1
1034.7151	3071.1046	1189.9	305.75
1034.8241	3072.1226	1182.65	298.95
1034.9331	3073.1399	1177.65	297.35
1035.042	3074.1567	1168.2	284.9
1035.1508	3075.1727	1157.2	274.3
1035.2597	3076.1882	1153.95	268.7
1035.3684	3077.203	1140	258.8
1035.4772	3078.2173	1141.2	257.25
1035.5859	3079.2308	1130.3	245.1
1035.6945	3080.2438	1124.25	239.5
1035.8031	3081.2561	1117.5	233.95
1035.9117	3082.2678	1106.3	224.4
1036.0202	3083.2789	1102.85	220.65
1036.1286	3084.2893	1094.15	214.15
1036.2371	3085.2991	1090.3	207.85
1036.3454	3086.3083	1092.55	206.3
1036.4538	3087.3169	1084.6	200.2
1036.562	3088.3248	1078.65	195.1
1036.6703	3089.3321	1071.4	186.45
1036.7785	3090.3388	1068.1	186.4
1036.8866	3091.3449	1065.45	181.95
1036.9948	3092.3503	1067.5	181.8
1037.1028	3093.3551	1059.3	179.7
1037.2108	3094.3593	1057.5	175
1037.3188	3095.3629	1051.35	170.95
1037.4267	3096.3658	1053.85	171.75
1037.5346	3097.3681	1053.3	172.75
1037.6425	3098.3698	1041.05	157.35
1037.7503	3099.3708	1050.15	164.4
1037.858	3100.3713	1041.55	158.65
1037.9657	3101.3711	1039.8	155.65
1038.0734	3102.3702	1176.85	151.05
1038.181	3103.3688	1032.85	148.25
1038.2886	3104.3667	1027.3	146.4
1038.3961	3105.364	1026.05	145.25
1038.5036	3106.3607	1028.45	144.4
1038.611	3107.3568	1024.7	142.95
1038.7184	3108.3522	1028.5	149
1038.8257	3109.347	1019.35	136.1
1038.933	3110.3412	1025.8	138
1039.0403	3111.3348	1020.35	137.4
1039.1475	3112.3277	1018.15	133.25
1039.2547	3113.32	1017.65	136.8
1039.3618	3114.3117	1017.15	134.5
1039.4689	3115.3028	1014.65	132.6
1039.5759	3116.2932	1015.5	129.4
1039.6829	3117.2831	1016.1	129.45
1039.7898	3118.2723	1009.5	128.1
1039.8967	3119.2608	1009	126.8
1040.0035	3120.2488	1009.55	127.35
1040.1103	3121.2361	1008.2	124.5
1040.2171	3122.2229	1005.3	123.25
1040.3238	3123.209	1007.1	122.45
1040.4305	3124.1944	1000.1	119.35
1040.5371	3125.1793	1002.85	117.85
1040.6437	3126.1635	1000.35	119.15
1040.7502	3127.1471	999.75	116.7
1040.8567	3128.1301	1001.15	119.7
1040.9631	3129.1125	998.7	117.8
1041.0695	3130.0942	1000.25	118.2
1041.1759	3131.0753	1001.85	112.55
1041.2822	3132.0558	1001.2	115.6
1041.3884	3133.0357	988.8	106.6
1041.4946	3134.015	995.5	112
1041.6008	3134.9936	987.35	103.55
1041.7069	3135.9716	1011.8	108.25
1041.813	3136.949	990	108.25
1041.919	3137.9258	1005.95	106.35
1042.025	3138.902	992.4	105.75
1042.1309	3139.8775	986.85	105.15
1042.2368	3140.8524	988.45	105.6
1042.3427	3141.8267	986.75	103
1042.4485	3142.8004	983.35	100.8
1042.5542	3143.7735	989.15	102.9
1042.6599	3144.7459	983.2	98.25
1042.7656	3145.7178	981.8	96.85
1042.8712	3146.689	982	102
1042.9768	3147.6596	978.7	96.05
1043.0823	3148.6295	980.1	97.1
1043.1878	3149.5989	978.05	94.15
1043.2932	3150.5676	976.3	95.2
1043.3986	3151.5357	975.3	94.6
1043.5039	3152.5032	974.15	93.45
1043.6092	3153.4701	974.15	91.5
1043.7145	3154.4364	976.45	90.85
1043.8197	3155.402	969.15	88.4
1043.9248	3156.367	974.45	89.6
1044.03	3157.3315	1008.75	90.15
1044.135	3158.2952	972.95	90.05
1044.24	3159.2584	971.25	89.65
1044.345	3160.221	971.95	89.25
1044.4499	3161.1829	970.2	89
1044.5548	3162.1442	968.95	87.1
1044.6596	3163.105	968.25	84.4
1044.7644	3164.065	967.05	85.5
1044.8692	3165.0245	968.25	81.85
1044.9739	3165.9834	967.15	86.9
1045.0785	3166.9416	963.05	80.1
1045.1831	3167.8993	965.75	83.9
1045.2877	3168.8563	966.35	82.75
1045.3922	3169.8127	963.9	82.75
1045.4966	3170.7684	963.1	81.65
1045.6011	3171.7236	965.1	81.2
1045.7054	3172.6782	960.8	76.95
1045.8098	3173.6321	961.35	78.75
1045.914	3174.5854	962.85	75.9
1046.0183	3175.5381	957.5	76.2
1046.1224	3176.4902	961.15	79.6
1046.2266	3177.4417	956.3	74.05
1046.3307	3178.3926	956.35	73.9
1046.4347	3179.3428	955.95	75.55
1046.5387	3180.2924	960.05	79
1046.6427	3181.2415	956.15	75.3
1046.7466	3182.1899	959.55	78.2
1046.8504	3183.1377	954.55	72.85
1046.9542	3184.0848	960.8	73.05
1047.058	3185.0314	957.85	75.95
1047.1617	3185.9773	957	75.15
1047.2654	3186.9227	958.5	75.8
1047.369	3187.8674	953.3	69.8
1047.4726	3188.8115	957.05	72.2
1047.5761	3189.755	950.1	68
1047.6796	3190.6979	955.55	74.95
1047.783	3191.6402	951.1	70.8
1047.8864	3192.5818	951.7	69.5
1047.9898	3193.5229	975.35	73.9
1048.0931	3194.4633	951.55	68.85
1048.1963	3195.4031	951.75	68.3
1048.2995	3196.3423	951.35	70.5
1048.4027	3197.2809	951.4	68.95
1048.5058	3198.2189	949.15	65.35
1048.6089	3199.1563	969.9	68.2
1048.7119	3200.0931	947.9	66
1048.8148	3201.0292	947.3	66.5
1048.9178	3201.9648	943.95	63.35
1049.0206	3202.8997	946.75	60.8
1049.1235	3203.834	948.5	65.25
1049.2262	3204.7677	945.4	63.65
1049.329	3205.7008	949.6	65.9
1049.4317	3206.6333	945.7	64.3
1049.5343	3207.5652	948.4	63.45
1049.6369	3208.4964	946	65
1049.7394	3209.4271	942.2	60.55
1049.8419	3210.3571	942.75	61.4
1049.9444	3211.2865	945.35	63.7
1050.0468	3212.2154	943.45	60.45
1050.1491	3213.1436	947.95	63.3
1050.2514	3214.0712	950.9	62
1050.3537	3214.9982	944.75	60.55
1050.4559	3215.9246	945.5	63.7
1050.5581	3216.8503	940.2	59.55
1050.6602	3217.7755	943.8	61.95
1050.7623	3218.7001	942.5	60.65
1050.8643	3219.624	939.8	58.7
1050.9663	3220.5473	940.1	58.3
1051.0682	3221.4701	943.25	60.2
1051.1701	3222.3922	943.3	61.05
1051.2719	3223.3137	941.7	60.75
1051.3737	3224.2346	940.95	58.6
1051.4754	3225.1549	940.9	60.55
1051.5771	3226.0746	938.85	56.2
1051.6788	3226.9937	935.45	54.7
1051.7804	3227.9121	938.85	58.55
1051.8819	3228.83	940.6	58.6
1051.9834	3229.7473	940.6	57.55
1052.0849	3230.6639	940.1	57.6
1052.1863	3231.5799	939.4	58.3
1052.2876	3232.4954	937.3	56.6
1052.3889	3233.4102	936.5	55.1
1052.4902	3234.3244	936.1	55.15
1052.5914	3235.238	936.45	56.65
1052.6926	3236.151	957.95	52
1052.7937	3237.0634	934.2	53.65
1052.8948	3237.9752	932.65	51.8
1052.9958	3238.8864	936.05	53.4
1053.0968	3239.797	933.8	52.8
1053.1977	3240.7069	933.9	51
1053.2986	3241.6163	936.1	52.4
1053.3994	3242.5251	931.8	51.8
1053.5002	3243.4332	932.65	51.45
1053.6009	3244.3408	934.9	50.65
1053.7016	3245.2477	930.6	48.7
1053.8022	3246.154	933.3	48.05
1053.9028	3247.0598	932.95	49.2
1054.0034	3247.9649	930.1	48.1
1054.1039	3248.8694	930.65	48.15
1054.2043	3249.7733	931.05	48.85
1054.3047	3250.6766	931.6	50.3
1054.4051	3251.5793	931.8	48.7
1054.5054	3252.4814	929.4	47.8
1054.6056	3253.3829	927.4	46.75
1054.7058	3254.2838	928.3	46.95
1054.806	3255.1841	926.7	46.2
1054.9061	3256.0838	925.5	43.7
1055.0061	3256.9829	924.2	43.4
1055.1062	3257.8814	930.2	46
1055.2061	3258.7792	928.9	46.25
1055.306	3259.6765	927.75	43.2
1055.4059	3260.5731	923.75	42.45
1055.5057	3261.4692	926.8	45.2
1055.6055	3262.3647	923.5	41.6
1055.7052	3263.2595	922	40.35
1055.8049	3264.1538	922.5	41.8
1055.9045	3265.0474	920.5	38.35
1056.0041	3265.9404	917.75	39.95
1056.1036	3266.8329	920.85	38.7
1056.2031	3267.7247	929.9	39
1056.3025	3268.616	918	35.05
1056.4019	3269.5066	918.15	38.35
1056.5013	3270.3966	918.85	34.7
1056.6005	3271.286	912.85	34.35
