Software Version:	3.9.2.0
Unit SN:	10000200
Spectrometer SN:	6960
Date:	3/14/2024 1:23:38 PM
Data Line Index:	25
Spectral Points:	2048
Integration time (ms):	125
Averages:	20
Delay (ms):	30000
Sequence Number:	1
Processing:	dark subtract
Laser Power (mW):	305
Laser Current (mA):	825
Laser Diode Temp (C):	25
Laser Case Temp (C):	28.4
System Temp (C):	28.4
Spectrometer Temp (C):	26.2
CCD Temp (C):	0.001
Secondary Temp (C):	20.013
Heatsink Temp (C):	24.33
CCDPCB Temp (C):	37.696
SecondaryPCB Temp (C):	35.395

Wavelength	RamanShift	Raw Counts	Dark Subtracted
787.061	30.1047	461.6	50.35
787.2016	32.3739	467.2	59.3
787.3422	34.6426	467.75	58.25
787.4828	36.9109	476.3	63.9
787.6235	39.1787	485.9	69.55
787.7642	41.4461	494.75	74
787.9049	43.7131	504.1	81.05
788.0456	45.9796	513.4	87.05
788.1863	48.2456	521.85	90
788.3271	50.5112	530.5	95.55
788.4679	52.7764	538.75	100.55
788.6087	55.0411	550.35	109.85
788.7496	57.3054	560.4	116.3
788.8904	59.5692	574.6	125.5
789.0313	61.8326	585.4	133.2
789.1722	64.0955	597.35	137.55
789.3132	66.3579	615.8	153.35
789.4541	68.6199	638.95	171.95
789.5951	70.8815	672.1	203.4
789.7361	73.1426	746.4	274.8
789.8771	75.4032	952.2	473.95
790.0181	77.6634	1468.6	985.45
790.1592	79.9231	2677.2	2188.25
790.3003	82.1824	5318.7	4820.3
790.4414	84.4412	10121.4	9605.7
790.5825	86.6995	16862.6	16323.6
790.7237	88.9574	23473.4	22914.2
790.8648	91.2148	28151.95	27579.05
791.006	93.4717	30318.65	29737.3
791.1472	95.7282	30787.9	30200.7
791.2885	97.9842	30678.8	30089.45
791.4297	100.2398	30023.85	29430.6
791.571	102.4949	29322.75	28725.4
791.7123	104.7495	28461.45	27859.15
791.8536	107.0036	27672.5	27069
791.9949	109.2573	26944.8	26345.85
792.1363	111.5105	26277.5	25675.25
792.2777	113.7632	25659.35	25056.4
792.4191	116.0154	25168.65	24557.9
792.5605	118.2672	24819.7	24213.25
792.7019	120.5185	24453	23844.95
792.8434	122.7693	24227.15	23617.45
792.9849	125.0197	23969.95	23356.3
793.1264	127.2696	23772.15	23156.3
793.2679	129.519	23626.9	23008.45
793.4094	131.7679	23362.1	22739
793.551	134.0163	23135.1	22510.05
793.6926	136.2642	22854.75	22226.15
793.8342	138.5117	22524.75	21895.3
793.9758	140.7587	22141.5	21505.45
794.1175	143.0052	21846.55	21209.95
794.2591	145.2512	21555.8	20917.75
794.4008	147.4967	21241.75	20605.5
794.5425	149.7417	21012.8	20374.6
794.6842	151.9863	20849.6	20205.95
794.826	154.2304	20763.6	20118.85
794.9677	156.4739	20569.4	19917.05
795.1095	158.717	20498.6	19851.6
795.2513	160.9596	20348.05	19695.15
795.3931	163.2017	20135.8	19478.8
795.535	165.4433	19864.7	19204.7
795.6768	167.6844	19591.85	18928.7
795.8187	169.925	19295.7	18634.65
795.9606	172.1651	18965.85	18299.3
796.1025	174.4047	18703.4	18034.25
796.2445	176.6439	18480.05	17807.7
796.3864	178.8825	18280.95	17610.4
796.5284	181.1206	18169.75	17491.5
796.6704	183.3582	18050.4	17366.35
796.8124	185.5954	17975.6	17291.3
796.9544	187.832	17915.1	17229.55
797.0965	190.0681	17857.25	17170.8
797.2386	192.3037	17888.8	17199.8
797.3806	194.5388	17841.8	17148.9
797.5228	196.7734	17892.15	17196.9
797.6649	199.0075	17935.1	17232.4
797.807	201.2411	18064.9	17358
797.9492	203.4742	18106.2	17406.05
798.0914	205.7068	18274.05	17569.45
798.2336	207.9389	18370.2	17666.4
798.3758	210.1704	18493.15	17787.2
798.518	212.4015	18590.35	17879.45
798.6603	214.632	18713.85	18003.45
798.8025	216.862	18839.15	18133.95
798.9448	219.0915	18923.8	18227.5
799.0871	221.3205	18975.05	18278.35
799.2294	223.549	19037.15	18350.6
799.3718	225.777	19079.7	18391.05
799.5141	228.0044	19191.1	18500.7
799.6565	230.2314	19304.15	18616.55
799.7989	232.4578	19376.45	18688.55
799.9413	234.6837	19459.85	18762.75
800.0837	236.909	19467.6	18767.6
800.2262	239.1339	19459.05	18737.1
800.3687	241.3582	19392.75	18685.3
800.5111	243.582	19324.1	18592.2
800.6536	245.8053	19288.45	18564.25
800.7961	248.0281	19257	18537.4
800.9387	250.2503	19244.2	18518.6
801.0812	252.472	19307.45	18576.65
801.2238	254.6932	19408.25	18676.3
801.3664	256.9139	19461.55	18726.45
801.509	259.134	19700.65	18960
801.6516	261.3536	19893.7	19162.45
801.7942	263.5727	20179.05	19438.8
801.9369	265.7912	20360.05	19621.05
802.0795	268.0092	20663.2	19926.35
802.2222	270.2267	20908.7	20169.95
802.3649	272.4436	20997.7	20255.1
802.5076	274.6601	21049.55	20298.05
802.6504	276.8759	20980.9	20234.35
802.7931	279.0913	20870.85	20129
802.9359	281.3061	20786.6	20043
803.0787	283.5204	20741.1	19992.25
803.2215	285.7341	20698.1	19945
803.3643	287.9473	20753.95	19988.5
803.5071	290.16	20757.75	19999.9
803.6499	292.3721	20788.7	20039.1
803.7928	294.5837	20974.3	20219.95
803.9357	296.7947	21109.65	20356.55
804.0786	299.0052	21245.25	20493.35
804.2215	301.2152	21235.95	20475.45
804.3644	303.4246	21115.45	20359.85
804.5074	305.6334	20796.55	20043.55
804.6503	307.8418	20456	19697
804.7933	310.0495	20062.2	19305.8
804.9363	312.2568	19609.6	18851.4
805.0793	314.4635	19238.05	18478
805.2223	316.6696	18912.25	18148.3
805.3653	318.8752	18639.35	17868.3
805.5084	321.0802	18534.95	17773.45
805.6514	323.2847	18567	17803.8
805.7945	325.4887	18581.2	17819.3
805.9376	327.692	18552.6	17787
806.0807	329.8949	18545.6	17781.8
806.2238	332.0972	18395.15	17629.75
806.367	334.2989	18252.85	17481.1
806.5101	336.5001	17979.65	17211
806.6533	338.7007	17812	17040.65
806.7965	340.9008	17638	16863.55
806.9397	343.1003	17467	16689.85
807.0829	345.2992	17308.15	16534.6
807.2261	347.4976	17236.85	16459.45
807.3693	349.6955	17121.9	16342.45
807.5126	351.8927	17095.75	16313.95
807.6559	354.0895	16999.45	16210.3
807.7991	356.2856	16970.7	16187.5
807.9424	358.4812	16878.5	16095.95
808.0857	360.6763	16874.65	16092.15
808.2291	362.8707	16829.2	16043.55
808.3724	365.0646	16858	16073.8
808.5158	367.258	16898.3	16111.6
808.6591	369.4508	16938.65	16144.35
808.8025	371.643	17070.2	16278.55
808.9459	373.8346	17123.7	16327.9
809.0893	376.0257	17225.75	16429.7
809.2327	378.2162	17227.65	16434.6
809.3762	380.4062	17208.45	16410.6
809.5196	382.5956	17094.2	16295.05
809.6631	384.7844	16965.7	16163.7
809.8066	386.9726	16838.15	16037.65
809.9501	389.1603	16738.75	15938.45
810.0936	391.3474	16696.8	15866.85
810.2371	393.5339	16624.15	15824.2
810.3806	395.7199	16528.7	15734.15
810.5241	397.9052	16598.45	15804.6
810.6677	400.09	16643.1	15852.9
810.8113	402.2743	16810.9	16019.35
810.9548	404.4579	16939.2	16147.35
811.0984	406.641	17116	16322.25
811.2421	408.8235	17217.1	16425.95
811.3857	411.0054	17393.15	16598.95
811.5293	413.1868	17508.85	16712.2
811.673	415.3675	17517.45	16717.7
811.8166	417.5477	17496.9	16698.85
811.9603	419.7273	17485.65	16683.85
812.104	421.9064	17342.45	16531.8
812.2477	424.0848	17259.65	16450.6
812.3914	426.2627	17121.75	16317.85
812.5351	428.4399	16883.75	16074.2
812.6788	430.6166	16552	15740.45
812.8226	432.7928	16269.4	15456.8
812.9663	434.9683	15942.85	15128.65
813.1101	437.1432	15735.3	14920.75
813.2539	439.3176	15571.6	14752.8
813.3977	441.4914	15426.2	14609.25
813.5415	443.6645	15393.15	14573.75
813.6853	445.8371	15329.5	14514.05
813.8291	448.0091	15248.85	14430.55
813.973	450.1806	15223.15	14408.35
814.1168	452.3514	15199.6	14379.5
814.2607	454.5216	15215.4	14390.05
814.4046	456.6913	15174.55	14353.4
814.5485	458.8603	15194.3	14370.35
814.6924	461.0288	15238.75	14420.6
814.8363	463.1967	15233.85	14414.1
814.9802	465.3639	15250.4	14428.1
815.1241	467.5306	15168.5	14347.85
815.2681	469.6967	15170.65	14347.8
815.412	471.8622	15160.85	14340.7
815.556	474.0271	15184.7	14361.25
815.7	476.1914	15192.1	14367.9
815.844	478.3551	15157.6	14332.6
815.988	480.5182	15236.75	14411.15
816.132	482.6807	15278.95	14450.95
816.276	484.8426	15465.65	14641.15
816.4201	487.0039	15753.25	14929.05
816.5641	489.1647	16107	15278.6
816.7082	491.3248	16406.9	15580.35
816.8522	493.4843	16477.95	15652.55
816.9963	495.6432	16395.3	15569.4
817.1404	497.8015	16233	15403
817.2845	499.9592	16112.8	15285.35
817.4286	502.1163	15926.5	15098.85
817.5727	504.2728	15629.4	14799.3
817.7168	506.4287	15374.9	14545.85
817.861	508.5839	15107.45	14276.2
818.0051	510.7386	14899.1	14067.25
818.1493	512.8927	14832.9	13995.5
818.2935	515.0461	14781.85	13949.1
818.4377	517.199	14864.25	14033.35
818.5818	519.3512	15029.35	14196.85
818.726	521.5029	15268.85	14427.3
818.8703	523.6539	15509.65	14677.25
819.0145	525.8043	15582.1	14746.45
819.1587	527.9541	15541.6	14703.5
819.303	530.1033	15303.95	14470.5
819.4472	532.2519	15128.65	14294.2
819.5915	534.3999	15043.05	14207.25
819.7357	536.5472	15053.55	14216.85
819.88	538.694	15203.55	14365.55
820.0243	540.8401	15423.8	14583.95
820.1686	542.9856	15607	14767.4
820.3129	545.1305	15615.3	14773.75
820.4572	547.2748	15535.5	14695.1
820.6016	549.4185	15365.7	14525.55
820.7459	551.5615	15249.95	14410.15
820.8902	553.704	15247.85	14405.65
821.0346	555.8458	15324.1	14485.7
821.1789	557.987	15458.6	14616.4
821.3233	560.1276	15689.6	14847.95
821.4677	562.2675	16069.6	15227.2
821.6121	564.4069	16549.7	15707.4
821.7565	566.5456	16974.2	16132
821.9009	568.6837	17115.35	16275.2
822.0453	570.8212	16734.3	15892.9
822.1897	572.958	16084.6	15239.35
822.3342	575.0942	15412.25	14569.9
822.4786	577.2299	14976.95	14135.1
822.6231	579.3648	14761.95	13921.9
822.7675	581.4992	14669.2	13825.75
822.912	583.6329	14741.2	13898.7
823.0565	585.766	14924.5	14082.85
823.201	587.8985	15030.45	14188.4
823.3454	590.0304	15119.55	14253.5
823.4899	592.1616	15045.05	14199.45
823.6345	594.2922	14907.9	14063.7
823.779	596.4222	14697.8	13852.95
823.9235	598.5515	14505.75	13658.7
824.068	600.6802	14321.75	13475.9
824.2126	602.8083	14124.4	13279.4
824.3571	604.9358	14121.95	13275.5
824.5017	607.0626	14091.2	13244.7
824.6462	609.1888	14193.95	13345.4
824.7908	611.3144	14344.85	13498.35
824.9354	613.4393	14473.4	13627.65
825.08	615.5636	14604.85	13756.55
825.2246	617.6873	14654.1	13805.15
825.3692	619.8103	14564.95	13714.25
825.5138	621.9327	14355.05	13503.3
825.6584	624.0544	14146.65	13297.5
825.803	626.1756	13953.15	13104.1
825.9477	628.2961	13782.75	12933.65
826.0923	630.4159	13696.1	12845.35
826.237	632.5351	13688.2	12837.3
826.3816	634.6537	13661.05	12807.25
826.5263	636.7716	13663.45	12810.7
826.6709	638.8889	13668.9	12817.95
826.8156	641.0056	13688.25	12834.55
826.9603	643.1216	13661.35	12808
827.105	645.237	13625.05	12768.45
827.2497	647.3518	13553.65	12700.25
827.3944	649.4659	13451.3	12598
827.5391	651.5793	13365.35	12512.15
827.6838	653.6922	13310.8	12458.6
827.8285	655.8043	13268.7	12416.6
827.9733	657.9159	13281.9	12427.15
828.118	660.0268	13249.1	12391.75
828.2627	662.137	13241.05	12384.25
828.4075	664.2466	13257.85	12401.05
828.5522	666.3556	13221.2	12366.55
828.697	668.4639	13162.35	12302.7
828.8418	670.5716	13127.2	12271.75
828.9865	672.6786	13093.3	12234.6
829.1313	674.785	13001.75	12143.05
829.2761	676.8907	12947.2	12089.35
829.4209	678.9958	12962.4	12106.5
829.5657	681.1002	12890.9	12035.25
829.7105	683.204	12889.8	12025.95
829.8553	685.3072	12843.5	11984.65
830.0001	687.4097	12833	11973.5
830.1449	689.5115	12837.45	11976.9
830.2898	691.6127	12801.1	11943.5
830.4346	693.7132	12784.25	11925.7
830.5794	695.8131	12802.6	11927.9
830.7243	697.9123	12811.4	11950.5
830.8691	700.0109	12826.55	11968.05
831.014	702.1089	12852.5	11994.6
831.1588	704.2061	12882.15	12020.25
831.3037	706.3028	12970.65	12109.5
831.4486	708.3987	13015.05	12156.1
831.5935	710.4941	13008.15	12147.7
831.7383	712.5887	13021.1	12159.55
831.8832	714.6827	13064.1	12195.65
832.0281	716.7761	13158.7	12296.5
832.173	718.8688	13295.2	12432.45
832.3179	720.9608	13383.3	12517.25
832.4628	723.0522	13531.6	12667.55
832.6077	725.1429	13576.1	12712.55
832.7527	727.233	13656.15	12792.55
832.8976	729.3224	13771.95	12909.95
833.0425	731.4112	13688.35	12823.5
833.1874	733.4993	13557.3	12690.95
833.3324	735.5867	13329.35	12463.75
833.4773	737.6735	13104.45	12237.95
833.6222	739.7596	12869.1	12002.8
833.7672	741.845	12725.5	11860.8
833.9122	743.9298	12626.75	11760.75
834.0571	746.014	12562.35	11698.6
834.2021	748.0974	12558.95	11691.5
834.347	750.1802	12527.6	11662.75
834.492	752.2624	12509.25	11642.65
834.637	754.3439	12550.2	11683.05
834.782	756.4247	12649.3	11772.1
834.9269	758.5048	12768.6	11903.8
835.0719	760.5843	13005.9	12140.45
835.2169	762.6631	13349.45	12481.9
835.3619	764.7413	13868.1	13002.25
835.5069	766.8188	14526.1	13658.8
835.6519	768.8956	15069.7	14199.6
835.7969	770.9718	15456.35	14591.15
835.9419	773.0473	15428.8	14561
836.0869	775.1221	15194.5	14329.6
836.232	777.1962	14958.2	14090.55
836.377	779.2697	14876.2	14005.35
836.522	781.3426	14959.6	14078.3
836.667	783.4147	15089.45	14222.85
836.8121	785.4862	15118.4	14251.25
836.9571	787.557	14921.4	14051.4
837.1021	789.6271	14445.45	13576.4
837.2472	791.6966	13802.8	12932.95
837.3922	793.7654	13229.2	12360.2
837.5373	795.8335	12798.8	11929.85
837.6823	797.901	12523.05	11655.55
837.8274	799.9678	12333.5	11463.45
837.9724	802.0339	12238.95	11372.45
838.1175	804.0993	12183.05	11306.05
838.2626	806.1641	12087.9	11220.8
838.4076	808.2282	12014.35	11146.05
838.5527	810.2916	11924.8	11052.75
838.6978	812.3544	11873.85	11006.3
838.8428	814.4164	11813.45	10944.25
838.9879	816.4778	11819.45	10948.95
839.133	818.5385	11849	10980.7
839.2781	820.5986	11983.25	11115.3
839.4232	822.658	12212.6	11340.95
839.5682	824.7166	12497.9	11630.05
839.7133	826.7747	13028.15	12157.8
839.8584	828.832	13559.4	12688.75
840.0035	830.8886	13924.3	13053.15
840.1486	832.9446	14143.5	13274.4
840.2937	834.9999	13974.95	13106.45
840.4388	837.0545	13669.6	12793.5
840.5839	839.1085	13292.15	12420.05
840.729	841.1618	12934.65	12059.9
840.8741	843.2143	12663.4	11791.65
841.0192	845.2662	12452.55	11581.35
841.1643	847.3175	12309.85	11437.65
841.3095	849.368	12169	11298
841.4546	851.4179	12091.65	11221.3
841.5997	853.467	11980.65	11111.45
841.7448	855.5155	11935	11064.55
841.8899	857.5633	11848.35	10979.5
842.0351	859.6105	11773.45	10901.95
842.1802	861.6569	11695.55	10823.8
842.3253	863.7027	11602.7	10730.7
842.4704	865.7478	11534.65	10660.7
842.6156	867.7922	11495.9	10624.7
842.7607	869.8359	11462.9	10589.4
842.9058	871.8789	11448.35	10575.4
843.0509	873.9212	11547.3	10641.45
843.1961	875.9629	11536.1	10664.6
843.3412	878.0039	11623.3	10747.55
843.4863	880.0441	11732.3	10862.85
843.6315	882.0837	11763.35	10890.65
843.7766	884.1226	11816.3	10942.25
843.9218	886.1609	11888.85	11016.4
844.0669	888.1984	11950.1	11077.55
844.212	890.2352	12106.9	11234.7
844.3572	892.2714	12100	11221.15
844.5023	894.3069	12089.3	11215.1
844.6475	896.3416	11921.7	11048.05
844.7926	898.3757	11751.75	10878.05
844.9377	900.4091	11651.9	10778.35
845.0829	902.4418	11610.5	10733.35
845.228	904.4739	11617.35	10739.5
845.3732	906.5052	11694.4	10820.5
845.5183	908.5358	11626.8	10751.9
845.6635	910.5658	11535.1	10660
845.8086	912.595	11327.35	10453.3
845.9538	914.6236	11097.1	10222
846.0989	916.6515	10940.9	10065.15
846.2441	918.6786	10867.9	9989.55
846.3892	920.7051	10853.75	9979
846.5344	922.7309	10848.4	9971.55
846.6795	924.756	10880.1	10002.2
846.8246	926.7804	10917.2	10038.25
846.9698	928.8041	10891.25	10013.05
847.1149	930.8272	10979.25	10104.4
847.2601	932.8495	10938	10060.75
847.4052	934.8711	10918.95	10042.4
847.5504	936.892	10856	9980.35
847.6955	938.9123	10876.1	9999.25
847.8407	940.9318	10888.6	10010.45
847.9858	942.9506	10894.9	10017.2
848.131	944.9688	10876.8	10000.15
848.2761	946.9862	10741.5	9863.55
848.4213	949.003	10584.25	9707.15
848.5664	951.019	10436.35	9558.85
848.7115	953.0344	10390.45	9513.6
848.8567	955.0491	10339.45	9462.55
849.0018	957.063	10368.15	9491.55
849.147	959.0763	10417.5	9541.2
849.2921	961.0888	10430.75	9551.75
849.4373	963.1007	10489.35	9615.05
849.5824	965.1119	10495.7	9618.85
849.7275	967.1223	10471.1	9592.3
849.8727	969.1321	10452.15	9575.75
850.0178	971.1412	10440.85	9563.7
850.1629	973.1495	10410.05	9535.15
850.3081	975.1572	10426.4	9514
850.4532	977.1641	10416.75	9536.45
850.5983	979.1704	10378.6	9498.35
850.7435	981.1759	10339	9458.85
850.8886	983.1808	10347.35	9468.95
851.0337	985.1849	10333.75	9442.6
851.1788	987.1884	10367.85	9489.35
851.324	989.1911	10442.85	9561.45
851.4691	991.1932	10482.2	9602.65
851.6142	993.1945	10503.95	9623.95
851.7593	995.1951	10467.1	9587.05
851.9045	997.1951	10449.05	9565.4
852.0496	999.1943	10382.3	9505.25
852.1947	1001.1928	10387.05	9507.7
852.3398	1003.1906	10431.1	9553.7
852.4849	1005.1877	10516.2	9635.9
852.63	1007.1841	10608.25	9730.05
852.7751	1009.1798	10632.7	9755.25
852.9202	1011.1748	10569	9691.25
853.0653	1013.1691	10406.95	9527.05
853.2104	1015.1627	10249.35	9369.25
853.3555	1017.1556	9998.65	9120.35
853.5006	1019.1477	9880	9002.6
853.6457	1021.1392	9773.25	8895.35
853.7908	1023.1299	9716.7	8838.65
853.9359	1025.12	9713.75	8833.3
854.081	1027.1093	9760.4	8882.9
854.2261	1029.0979	9866.05	8989.55
854.3712	1031.0859	9955.35	9077.3
854.5163	1033.0731	9976.6	9096.25
854.6613	1035.0596	9924.05	9045.9
854.8064	1037.0454	9826.65	8947.5
854.9515	1039.0304	9736.25	8857.05
855.0965	1041.0148	9624.75	8744.5
855.2416	1042.9985	9534.05	8652.4
855.3867	1044.9814	9460.5	8581.55
855.5317	1046.9636	9412.4	8532.7
855.6768	1048.9452	9379.95	8500.15
855.8219	1050.926	9415.5	8535.65
855.9669	1052.9061	9435.4	8556.25
856.112	1054.8855	9427.75	8548.3
856.257	1056.8642	9475.75	8596.5
856.4021	1058.8421	9527.45	8644.95
856.5471	1060.8194	9551.5	8671.1
856.6921	1062.7959	9574.35	8696.25
856.8372	1064.7717	9620.7	8739.8
856.9822	1066.7469	9677	8795.6
857.1272	1068.7213	9746.7	8865.3
857.2723	1070.695	9844.5	8965.2
857.4173	1072.6679	9860.5	8980.6
857.5623	1074.6402	9903	9020.8
857.7073	1076.6117	9885.2	9000.9
857.8523	1078.5826	9756.1	8877.75
857.9973	1080.5527	9583.6	8701.1
858.1423	1082.5221	9475.35	8596.1
858.2873	1084.4908	9432.75	8550.65
858.4323	1086.4587	9406.6	8525.05
858.5773	1088.426	9412.95	8531.55
858.7223	1090.3925	9418.25	8533.1
858.8673	1092.3584	9465.55	8586.4
859.0123	1094.3235	9456.15	8577.55
859.1573	1096.2879	9522.35	8642.45
859.3022	1098.2515	9647.6	8767.15
859.4472	1100.2145	9818.5	8938.85
859.5922	1102.1767	10021.9	9137.85
859.7371	1104.1382	10209.2	9328.6
859.8821	1106.099	10466.35	9584.1
860.027	1108.0591	10664.3	9784.95
860.172	1110.0185	10826.9	9944
860.3169	1111.9771	10906.1	10028.2
860.4619	1113.9351	10836.65	9955.4
860.6068	1115.8923	10728.1	9847.2
860.7517	1117.8488	10612.85	9730.65
860.8967	1119.8045	10409.5	9529.7
861.0416	1121.7596	10274.3	9393
861.1865	1123.7139	10101.9	9220.15
861.3314	1125.6675	10025.1	9145.55
861.4763	1127.6204	10042.25	9160.45
861.6212	1129.5726	10006.05	9125.45
861.7661	1131.524	9927.2	9047.35
861.911	1133.4748	9771.85	8891.2
862.0559	1135.4248	9597.5	8715.15
862.2008	1137.3741	9429.05	8548.2
862.3457	1139.3226	9307.9	8427.3
862.4905	1141.2705	9240.7	8359.8
862.6354	1143.2176	9167.9	8281.7
862.7803	1145.164	9145.35	8261.05
862.9251	1147.1097	9061.65	8180.15
863.07	1149.0546	8981.05	8100.25
863.2148	1150.9989	8861.4	7978.6
863.3597	1152.9424	8752.15	7870.15
863.5045	1154.8852	8656.7	7772.25
863.6493	1156.8272	8629.05	7750.15
863.7942	1158.7686	8634.4	7745.9
863.939	1160.7092	8663.15	7780.85
864.0838	1162.6491	8682.05	7798.3
864.2286	1164.5883	8777.65	7897.55
864.3734	1166.5267	8871.65	7988
864.5182	1168.4644	9036.25	8152.25
864.663	1170.4014	9213.5	8327.7
864.8078	1172.3377	9441.4	8560.95
864.9526	1174.2732	9743.55	8863.55
865.0974	1176.2081	10112.2	9229.7
865.2421	1178.1421	10612.75	9728.4
865.3869	1180.0755	11161.45	10281.3
865.5317	1182.0082	11523.55	10641.65
865.6764	1183.9401	11678.9	10795.4
865.8212	1185.8713	11541.6	10657.75
865.9659	1187.8017	11177.15	10296.4
866.1106	1189.7315	10787.6	9905.95
866.2554	1191.6605	10365.75	9454.25
866.4001	1193.5888	10031.05	9149.3
866.5448	1195.5163	9854.4	8974.8
866.6895	1197.4432	9766.3	8882.35
866.8342	1199.3693	9694.05	8813.75
866.9789	1201.2947	9657.1	8770.35
867.1236	1203.2193	9614.65	8733.9
867.2683	1205.1432	9599.85	8716.2
867.413	1207.0664	9571.75	8688.5
867.5576	1208.9889	9553.9	8667.65
867.7023	1210.9106	9516.05	8632.25
867.847	1212.8316	9515.95	8634.5
867.9916	1214.7519	9560.25	8667.3
868.1363	1216.6715	9558.1	8675.05
868.2809	1218.5903	9639.1	8757
868.4255	1220.5084	9706.55	8824.75
868.5701	1222.4257	9839.15	8957.2
868.7148	1224.3424	9903.85	9022.8
868.8594	1226.2583	10034.25	9148.9
869.004	1228.1735	10173.1	9291.4
869.1486	1230.0879	10321.95	9441.45
869.2932	1232.0016	10537.55	9655.85
869.4377	1233.9146	10689.1	9806.3
869.5823	1235.8269	10711.85	9832.05
869.7269	1237.7384	10678.85	9797.4
869.8715	1239.6492	10571.1	9690.15
870.016	1241.5592	10562.3	9676.75
870.1606	1243.4686	10604.95	9723.4
870.3051	1245.3772	10814.65	9934.45
870.4496	1247.285	11057.3	10173.7
870.5941	1249.1922	11290.05	10407.75
870.7387	1251.0986	11486.45	10606.8
870.8832	1253.0042	11613.8	10730.15
871.0277	1254.9092	11757.8	10875.3
871.1722	1256.8134	11847.3	10965.05
871.3167	1258.7169	11993.85	11107.55
871.4611	1260.6196	12119.15	11236.5
871.6056	1262.5216	12308	11426.65
871.7501	1264.4229	12466.85	11582.2
871.8945	1266.3234	12648.35	11766.7
872.039	1268.2232	12785.25	11902.45
872.1834	1270.1223	12833.9	11951.2
872.3278	1272.0207	12854.8	11972.3
872.4723	1273.9183	12828.3	11939.3
872.6167	1275.8151	12752.05	11870.55
872.7611	1277.7113	12753.35	11871.3
872.9055	1279.6067	12884.75	12002.65
873.0499	1281.5014	13158.5	12272.8
873.1943	1283.3953	13610.25	12725.2
873.3386	1285.2885	14206.5	13324.85
873.483	1287.181	14814.2	13931.8
873.6274	1289.0727	15395.55	14515.65
873.7717	1290.9637	15776.5	14892.65
873.9161	1292.854	16023.6	15139.7
874.0604	1294.7435	15960.4	15076.7
874.2047	1296.6323	15798.55	14917.2
874.349	1298.5204	15536.15	14651.7
874.4933	1300.4077	15250.6	14366.35
874.6376	1302.2943	14905.4	14022.5
874.7819	1304.1802	14553	13670.4
874.9262	1306.0653	14008.35	13124.4
875.0705	1307.9497	13518.35	12636.75
875.2147	1309.8333	13085.6	12202.75
875.359	1311.7162	12738.05	11854.8
875.5032	1313.5984	12550.3	11667.8
875.6475	1315.4798	12392.4	11490.15
875.7917	1317.3605	12289.75	11391
875.9359	1319.2405	12123.85	11238.55
876.0801	1321.1197	11867.85	10982
876.2243	1322.9982	11566.15	10678.5
876.3685	1324.876	11280.05	10396.2
876.5127	1326.753	10919.45	10036.45
876.6569	1328.6293	10682.25	9798.05
876.801	1330.5048	10467	9581.85
876.9452	1332.3796	10256	9373.5
877.0893	1334.2537	10165.85	9254.9
877.2335	1336.127	10011.3	9129.75
877.3776	1337.9996	9971.9	9090.55
877.5217	1339.8714	9939.2	9055.4
877.6658	1341.7426	9956.35	9028.75
877.8099	1343.6129	9952.3	9068.75
877.954	1345.4826	9931.65	9048.75
878.0981	1347.3515	9946.3	9059
878.2422	1349.2196	9914.85	9028.35
878.3862	1351.087	9937.05	9052.75
878.5303	1352.9537	9952.7	9069.45
878.6743	1354.8197	10044.95	9162.1
878.8184	1356.6849	10190.15	9307.6
878.9624	1358.5493	10369	9485.8
879.1064	1360.4131	10561.45	9678.15
879.2504	1362.276	10724.15	9842.15
879.3944	1364.1383	10776.7	9892.35
879.5384	1365.9998	10679.55	9789.95
879.6823	1367.8606	10412.4	9529.65
879.8263	1369.7206	10039.8	9156.15
879.9702	1371.5799	9758.55	8873.4
880.1142	1373.4384	9496.9	8611.7
880.2581	1375.2962	9259.85	8373.45
880.402	1377.1533	8949.45	8063.5
880.5459	1379.0096	8584.5	7699.8
880.6898	1380.8652	8257.55	7371.35
880.8337	1382.7201	8003.45	7117.55
880.9776	1384.5742	7792.65	6909.15
881.1215	1386.4275	7636.5	6750.8
881.2653	1388.2802	7476.95	6595.75
881.4092	1390.132	7354.65	6471.1
881.553	1391.9832	7303.5	6420.7
881.6968	1393.8336	7211.8	6326.7
881.8406	1395.6832	7182.45	6296.4
881.9844	1397.5322	7134.55	6249.15
882.1282	1399.3803	7124.9	6234.65
882.272	1401.2278	7057	6173.1
882.4158	1403.0745	7044.25	6160.7
882.5595	1404.9204	7012.35	6130.9
882.7033	1406.7656	7007.8	6124.95
882.847	1408.6101	7025.1	6138.95
882.9908	1410.4538	7032.6	6148.55
883.1345	1412.2968	7071.2	6186.95
883.2782	1414.139	7120.9	6241.25
883.4219	1415.9805	7171.5	6286.55
883.5656	1417.8213	7239.5	6348.2
883.7092	1419.6613	7322.2	6440.2
883.8529	1421.5006	7464.15	6579.45
883.9965	1423.3391	7634.5	6750.95
884.1402	1425.1769	7892.4	7007.05
884.2838	1427.0139	8265.85	7382.15
884.4274	1428.8502	8773.85	7886.7
884.571	1430.6858	9248.95	8366.95
884.7146	1432.5206	9590.05	8706.75
884.8582	1434.3547	9810.55	8926.4
885.0018	1436.188	9820.15	8935.45
885.1453	1438.0206	9727.55	8843.95
885.2889	1439.8524	9582.8	8699.75
885.4324	1441.6835	9467.25	8582.6
885.5759	1443.5139	9360.6	8474.45
885.7194	1445.3435	9329.15	8444.35
885.8629	1447.1724	9272.7	8388.9
886.0064	1449.0005	9252.55	8369.55
886.1499	1450.8279	9229	8343
886.2933	1452.6545	9217.9	8335.15
886.4368	1454.4804	9229.05	8345.35
886.5802	1456.3056	9195.8	8304.9
886.7237	1458.13	9151.5	8267.1
886.8671	1459.9536	9003.35	8119.95
887.0105	1461.7766	8787.85	7905.3
887.1539	1463.5987	8504.7	7620.35
887.2972	1465.4202	8206	7320.6
887.4406	1467.2409	7932.55	7049.6
887.584	1469.0608	7646.15	6763.05
887.7273	1470.88	7403.55	6519.45
887.8706	1472.6984	7213.7	6330.2
888.0139	1474.5161	7031.2	6145.35
888.1572	1476.3331	6893.95	6010.7
888.3005	1478.1493	6792.3	5908.8
888.4438	1479.9648	6720.75	5837.3
888.5871	1481.7795	6652.45	5770.35
888.7303	1483.5935	6614.7	5732.3
888.8736	1485.4067	6552.8	5668.95
889.0168	1487.2192	6515.6	5634.25
889.16	1489.031	6487.3	5600.6
889.3032	1490.842	6473	5592
889.4464	1492.6522	6416.75	5534
889.5896	1494.4618	6387.65	5503.85
889.7327	1496.2705	6347.3	5464
889.8759	1498.0785	6305.85	5420.95
890.019	1499.8858	6276.5	5392.9
890.1622	1501.6924	6245.4	5361.75
890.3053	1503.4981	6200	5317.05
890.4484	1505.3032	6174.35	5291.45
890.5914	1507.1075	6135	5248.35
890.7345	1508.911	6101.2	5218.85
890.8776	1510.7138	6055.75	5172.45
891.0206	1512.5159	6026.3	5142.15
891.1637	1514.3172	5976.95	5094.2
891.3067	1516.1178	5937.65	5056.75
891.4497	1517.9176	5906.2	5020
891.5927	1519.7166	5860.45	4978.9
891.7357	1521.515	5855.95	4965.55
891.8786	1523.3126	5825.15	4939.5
892.0216	1525.1094	5814.5	4928.3
892.1645	1526.9055	5750.95	4867.7
892.3074	1528.7008	5745.1	4859.85
892.4503	1530.4954	5724.7	4840.5
892.5932	1532.2893	5713.9	4830.95
892.7361	1534.0824	5700.15	4812.05
892.879	1535.8747	5715.05	4832.7
893.0218	1537.6663	5694.55	4808.95
893.1647	1539.4572	5673.6	4788.55
893.3075	1541.2473	5683.15	4800
893.4503	1543.0367	5691.85	4810.8
893.5931	1544.8253	5707.8	4822.6
893.7359	1546.6132	5737	4851.9
893.8787	1548.4003	5753.85	4860.65
894.0214	1550.1867	5799.35	4907.35
894.1642	1551.9723	5858.2	4969.3
894.3069	1553.7572	5953.15	5068.5
894.4496	1555.5414	6031.85	5147.55
894.5923	1557.3247	6177.55	5294.55
894.735	1559.1074	6339.5	5456.25
894.8777	1560.8893	6529.85	5650.1
895.0204	1562.6705	6692.2	5809.05
895.163	1564.4509	6827.2	5945.4
895.3056	1566.2305	6891.85	6009.4
895.4482	1568.0094	6957.1	6075.6
895.5908	1569.7876	6952.2	6069.4
895.7334	1571.565	6931.75	6049.8
895.876	1573.3417	6949.15	6066.3
896.0186	1575.1176	6919.15	6037.2
896.1611	1576.8928	6940.35	6054.65
896.3036	1578.6672	6972.65	6091.8
896.4461	1580.4409	7001.3	6117.25
896.5886	1582.2138	7063.95	6179.35
896.7311	1583.986	7135.35	6249.8
896.8736	1585.7575	7256.6	6373.95
897.0161	1587.5282	7391.45	6509.3
897.1585	1589.2981	7492.6	6610.3
897.3009	1591.0673	7582.6	6700.05
897.4433	1592.8358	7691.25	6810.2
897.5857	1594.6035	7812.95	6928.2
897.7281	1596.3704	7878.1	6995.4
897.8705	1598.1366	7934.8	7053.5
898.0128	1599.9021	8000.8	7119.5
898.1551	1601.6668	8093.35	7210
898.2975	1603.4308	8178.05	7294.95
898.4398	1605.194	8326.8	7438.55
898.5821	1606.9564	8523.05	7639.7
898.7243	1608.7182	8746.4	7859.05
898.8666	1610.4791	9067.65	8185.25
899.0088	1612.2394	9379.4	8496.8
899.1511	1613.9988	9704.15	8821.1
899.2933	1615.7576	10039.85	9157.2
899.4355	1617.5156	10218.1	9330.4
899.5776	1619.2728	10303.7	9420.95
899.7198	1621.0293	10212.75	9330.95
899.862	1622.785	9971.8	9087.55
900.0041	1624.54	9587.3	8702.3
900.1462	1626.2942	9187.4	8304.8
900.2883	1628.0477	8761.6	7876.5
900.4304	1629.8005	8375	7487.15
900.5725	1631.5525	8008	7125.55
900.7145	1633.3037	7706.8	6823.55
900.8566	1635.0542	7470.55	6588.45
900.9986	1636.804	7263.55	6380.4
901.1406	1638.553	7156.2	6220.25
901.2826	1640.3013	7023.95	6142.75
901.4245	1642.0488	6970.5	6087.6
901.5665	1643.7955	6955.5	6074.4
901.7085	1645.5416	6978.05	6094.4
901.8504	1647.2868	7049	6165.4
901.9923	1649.0313	7140	6257.4
902.1342	1650.7751	7255.25	6368.15
902.2761	1652.5181	7365.05	6484.65
902.4179	1654.2604	7490.35	6606.9
902.5598	1656.0019	7663.75	6781.1
902.7016	1657.7427	7874.25	6990.6
902.8434	1659.4828	8125.5	7242.1
902.9852	1661.222	8280.1	7397.5
903.127	1662.9606	8290.6	7408.7
903.2687	1664.6984	8118.9	7235.05
903.4105	1666.4354	7767.35	6882.8
903.5522	1668.1717	7292.5	6411.6
903.6939	1669.9072	6789.7	5907.55
903.8356	1671.642	6356.35	5472.95
903.9773	1673.3761	5998.8	5118.1
904.119	1675.1094	5717.95	4836.95
904.2606	1676.8419	5497.5	4616.15
904.4022	1678.5737	5314.45	4431.95
904.5439	1680.3048	5179	4295.65
904.6855	1682.0351	5051.85	4171
904.827	1683.7646	4963.3	4079.15
904.9686	1685.4934	4889.1	4007.05
905.1101	1687.2215	4822.7	3941.4
905.2517	1688.9488	4759.5	3879.15
905.3932	1690.6754	4717.25	3836.4
905.5347	1692.4012	4667	3784.6
905.6761	1694.1263	4622.9	3741.9
905.8176	1695.8506	4604.8	3723.95
905.9591	1697.5742	4562.5	3679.45
906.1005	1699.297	4505.85	3624.05
906.2419	1701.0191	4462.45	3582.4
906.3833	1702.7404	4445.4	3563.95
906.5246	1704.461	4398.2	3516.45
906.666	1706.1808	4378.8	3497
906.8073	1707.8999	4347.85	3467.25
906.9487	1709.6182	4317.05	3434
907.09	1711.3358	4311.3	3431.05
907.2313	1713.0527	4275.45	3393.1
907.3725	1714.7688	4265.9	3379.1
907.5138	1716.4841	4249.35	3362.85
907.655	1718.1987	4225.25	3337.35
907.7962	1719.9126	4211.3	3330.8
907.9374	1721.6257	4200.35	3313.95
908.0786	1723.338	4181.5	3298.5
908.2198	1725.0496	4161.8	3277.9
908.3609	1726.7605	4157.55	3276.25
908.502	1728.4706	4130.7	3248.25
908.6431	1730.18	4144.45	3260.4
908.7842	1731.8886	4110.8	3229.45
908.9253	1733.5964	4100.85	3212.65
909.0664	1735.3036	4074.2	3190.15
909.2074	1737.0099	4061.5	3176.6
909.3484	1738.7156	4043.5	3163.4
909.4894	1740.4204	4028.85	3143.9
909.6304	1742.1246	4013.15	3129.65
909.7714	1743.8279	3980.7	3099.55
909.9123	1745.5306	3975.95	3093.3
910.0532	1747.2325	3953.25	3071.5
910.1941	1748.9336	3929.8	3048.4
910.335	1750.634	3928.2	3045.55
910.4759	1752.3336	3904.1	3021.7
910.6168	1754.0325	3902.9	3020.75
910.7576	1755.7307	3900.55	3018.6
910.8984	1757.4281	3901	3016.6
911.0392	1759.1247	3898.05	3008.15
911.18	1760.8206	3858.45	2973
911.3208	1762.5158	3865.9	2982.35
911.4615	1764.2102	3854.55	2974.5
911.6022	1765.9039	3833.85	2951.3
911.7429	1767.5968	3819.65	2938.3
911.8836	1769.289	3816.85	2934.8
912.0243	1770.9804	3814.1	2932.1
912.1649	1772.6711	3811.75	2930.9
912.3056	1774.361	3793.7	2909.35
912.4462	1776.0502	3799	2916.7
912.5868	1777.7386	3793.1	2909.65
912.7274	1779.4263	3772	2887.25
912.8679	1781.1132	3770.7	2889.45
913.0084	1782.7994	3766	2879.65
913.149	1784.4849	3749.75	2867.15
913.2895	1786.1696	3765.6	2864.35
913.4299	1787.8535	3737.8	2856.45
913.5704	1789.5367	3734.05	2852
913.7108	1791.2192	3721.5	2840.35
913.8513	1792.9009	3716.8	2822.95
913.9917	1794.5818	3696.55	2813.95
914.132	1796.2621	3706.45	2827.3
914.2724	1797.9415	3687.1	2805.65
914.4128	1799.6202	3679.5	2797.5
914.5531	1801.2982	3667.55	2785.4
914.6934	1802.9755	3654.1	2771.75
914.8337	1804.6519	3662.6	2780.9
914.9739	1806.3277	3646.95	2766.1
915.1142	1808.0027	3626.9	2744.4
915.2544	1809.6769	3639	2756.5
915.3946	1811.3504	3620.1	2736.7
915.5348	1813.0231	3616.15	2732.65
915.675	1814.6951	3614.65	2731.75
915.8151	1816.3664	3608.65	2725.4
915.9553	1818.0369	3595.55	2712.25
916.0954	1819.7067	3588.05	2707.6
916.2355	1821.3757	3583.95	2700.35
916.3755	1823.044	3588.3	2708.35
916.5156	1824.7115	3580.55	2698.55
916.6556	1826.3783	3573.8	2694.5
916.7956	1828.0443	3561.25	2681.65
916.9356	1829.7096	3542.35	2658.4
917.0756	1831.3741	3555.9	2669.8
917.2155	1833.0379	3548.05	2664.7
917.3555	1834.701	3545.7	2660.2
917.4954	1836.3633	3530.55	2647
917.6353	1838.0248	3525.7	2642.05
917.7751	1839.6856	3527.7	2646.25
917.915	1841.3457	3513.3	2633.6
918.0548	1843.005	3511.55	2629
918.1946	1844.6636	3510.8	2630.85
918.3344	1846.3214	3496.1	2612.95
918.4742	1847.9785	3490.2	2608.5
918.6139	1849.6349	3496.95	2613.25
918.7537	1851.2904	3489.3	2598
918.8934	1852.9453	3488.35	2608
919.0331	1854.5994	3487.05	2600.3
919.1727	1856.2528	3472.8	2586.2
919.3124	1857.9054	3464.55	2582.2
919.452	1859.5572	3462.05	2580.45
919.5916	1861.2083	3450.5	2565.55
919.7312	1862.8587	3443.15	2560.8
919.8708	1864.5084	3447.55	2565
920.0103	1866.1572	3433.1	2553.6
920.1498	1867.8054	3419.7	2536.7
920.2893	1869.4528	3419.55	2537.85
920.4288	1871.0994	3411.8	2527.95
920.5683	1872.7453	3410.35	2526.55
920.7077	1874.3905	3413.1	2513
920.8471	1876.0349	3393.15	2508.4
920.9865	1877.6786	3394	2510.7
921.1259	1879.3215	3385.05	2504.8
921.2653	1880.9637	3382.05	2499.45
921.4046	1882.6051	3380.25	2498.9
921.5439	1884.2458	3381.65	2498.7
921.6832	1885.8858	3349.55	2467.05
921.8225	1887.525	3358.05	2476.1
921.9617	1889.1634	3343.25	2461.3
922.101	1890.8011	3334.25	2450.5
922.2402	1892.4381	3323.6	2444.3
922.3794	1894.0743	3315.9	2435.25
922.5185	1895.7098	3315.5	2433.5
922.6577	1897.3446	3311.95	2429.3
922.7968	1898.9786	3298.55	2414.1
922.9359	1900.6118	3305.55	2424.5
923.075	1902.2443	3286.15	2399.75
923.214	1903.8761	3293.35	2411.5
923.3531	1905.5071	3266.2	2381.35
923.4921	1907.1374	3271.25	2389.45
923.6311	1908.7669	3260.4	2378.35
923.77	1910.3957	3251.15	2369
923.909	1912.0237	3235.55	2354.6
924.0479	1913.651	3244.05	2361.2
924.1868	1915.2776	3238.85	2357.65
924.3257	1916.9034	3210.8	2331.95
924.4646	1918.5285	3201.4	2320.8
924.6034	1920.1528	3209.45	2328.25
924.7422	1921.7764	3207.2	2325.75
924.881	1923.3992	3199	2318.2
925.0198	1925.0213	3168.6	2286.2
925.1586	1926.6427	3166.3	2285
925.2973	1928.2633	3259.4	2270
925.436	1929.8832	3181.35	2300.8
925.5747	1931.5023	3156.9	2274.25
925.7134	1933.1207	3151.75	2272
925.852	1934.7383	3150.3	2269.15
925.9906	1936.3552	3132.2	2249.25
926.1292	1937.9714	3131.25	2247.6
926.2678	1939.5868	3117.9	2235.3
926.4064	1941.2015	3113.2	2230
926.5449	1942.8154	3107.7	2225.4
926.6834	1944.4286	3079.05	2198.1
926.8219	1946.041	3090.9	2184.05
926.9604	1947.6528	3071.75	2183.95
927.0988	1949.2637	3076.4	2195.55
927.2372	1950.8739	3054.5	2171.05
927.3756	1952.4834	3053.4	2170.55
927.514	1954.0921	3062.5	2179.4
927.6523	1955.7001	3050.85	2165.25
927.7907	1957.3074	3038.4	2157.45
927.929	1958.9139	3024.6	2142.7
928.0673	1960.5197	3014.95	2131.85
928.2055	1962.1247	2998.2	2116.7
928.3438	1963.729	2993.55	2113.6
928.482	1965.3325	3013	2106.9
928.6202	1966.9353	2995.5	2114.1
928.7584	1968.5374	2983.05	2098.1
928.8965	1970.1387	2965.95	2082.85
929.0346	1971.7393	2960.05	2079.8
929.1727	1973.3392	2961.65	2080
929.3108	1974.9383	2959.7	2077.7
929.4489	1976.5366	2928	2045.7
929.5869	1978.1342	2938.15	2057.05
929.7249	1979.7311	2936.15	2052.05
929.8629	1981.3273	2925.05	2044.55
930.0009	1982.9227	2928.85	2043.05
930.1388	1984.5173	2910.6	2029.35
930.2767	1986.1112	2908.55	2025.75
930.4146	1987.7044	2908.85	2026.5
930.5525	1989.2968	2894.4	2011.35
930.6904	1990.8885	2903.7	2018.15
930.8282	1992.4795	2881.45	1997.95
930.966	1994.0697	2863.8	1981.05
931.1038	1995.6592	2869.35	1987
931.2415	1997.2479	2861	1978.45
931.3793	1998.8359	2857	1974.9
931.517	2000.4232	2854.45	1974.1
931.6547	2002.0097	2848.3	1967.55
931.7923	2003.5955	2842.9	1960.65
931.93	2005.1805	2841.05	1957.9
932.0676	2006.7648	2828.75	1947.2
932.2052	2008.3484	2822.9	1938.9
932.3427	2009.9312	2829.05	1944.2
932.4803	2011.5133	2814.65	1933.5
932.6178	2013.0946	2810.9	1928.15
932.7553	2014.6752	2812.8	1930.7
932.8928	2016.2551	2798.65	1914.05
933.0302	2017.8342	2797.3	1916.75
933.1676	2019.4126	2795.75	1914.8
933.305	2020.9902	2771.75	1890.85
933.4424	2022.5672	2790.1	1906.85
933.5798	2024.1433	2785.8	1897.7
933.7171	2025.7188	2759.1	1878.75
933.8544	2027.2935	2763.75	1880
933.9917	2028.8674	2755.95	1873
934.129	2030.4406	2742.25	1859.65
934.2662	2032.0131	2747.5	1865.95
934.4034	2033.5849	2734.45	1847.6
934.5406	2035.1559	2731.75	1849.2
934.6778	2036.7261	2730.25	1847.35
934.8149	2038.2957	2729.8	1850.6
934.952	2039.8645	2726.7	1844.05
935.0891	2041.4325	2719.35	1834.25
935.2262	2042.9998	2705.3	1823.9
935.3632	2044.5664	2716.9	1832
935.5002	2046.1323	2700.75	1817.85
935.6372	2047.6974	2695.45	1811.3
935.7742	2049.2617	2695.65	1812.95
935.9111	2050.8254	2717.25	1799.9
936.048	2052.3883	2691.95	1807.8
936.1849	2053.9504	2682.4	1799.3
936.3218	2055.5118	2677.8	1794.05
936.4586	2057.0725	2669.5	1784.45
936.5955	2058.6325	2659.05	1776.1
936.7323	2060.1917	2659.7	1778.6
936.869	2061.7502	2663.25	1776.95
937.0058	2063.3079	2641.15	1759.05
937.1425	2064.8649	2648.5	1763.45
937.2792	2066.4212	2640.35	1756.75
937.4159	2067.9767	2645.9	1763.9
937.5525	2069.5315	2629.25	1748.15
937.6891	2071.0856	2616.3	1732.45
937.8257	2072.6389	2620.1	1736.4
937.9623	2074.1915	2595.35	1715.75
938.0989	2075.7433	2597.35	1711.85
938.2354	2077.2945	2591.7	1711.5
938.3719	2078.8448	2577.9	1697.2
938.5084	2080.3945	2585.05	1703
938.6448	2081.9434	2580.5	1697.6
938.7812	2083.4916	2569.25	1686.2
938.9176	2085.039	2557.35	1672.8
939.054	2086.5857	2568.7	1685.55
939.1903	2088.1317	2552.95	1670
939.3267	2089.677	2553.35	1669.6
939.463	2091.2215	2564.65	1682.95
939.5992	2092.7652	2538.3	1654.2
939.7355	2094.3083	2547	1664.3
939.8717	2095.8506	2534.8	1651.7
940.0079	2097.3921	2536.4	1654.3
940.1441	2098.933	2541	1658.8
940.2802	2100.4731	2529.7	1647.95
940.4163	2102.0124	2540.45	1641.4
940.5524	2103.5511	2519.3	1636.3
940.6885	2105.089	2524.75	1643.55
940.8245	2106.6261	2520.65	1639.6
940.9606	2108.1626	2512.25	1629.25
941.0965	2109.6983	2539.9	1628.1
941.2325	2111.2332	2506.75	1623.25
941.3684	2112.7675	2500.25	1616.35
941.5044	2114.301	2496.5	1611.8
941.6403	2115.8337	2496.65	1613.65
941.7761	2117.3657	2497.85	1615.8
941.912	2118.897	2482.1	1599.6
942.0478	2120.4276	2495.45	1608.2
942.1835	2121.9575	2473.85	1591.8
942.3193	2123.4866	2487.25	1590.3
942.455	2125.0149	2456.7	1573.55
942.5907	2126.5426	2451.35	1568.45
942.7264	2128.0695	2461.15	1572.55
942.8621	2129.5956	2454.65	1573.85
942.9977	2131.1211	2455.65	1567.9
943.1333	2132.6458	2447.15	1563.4
943.2689	2134.1698	2442.35	1558.2
943.4044	2135.693	2433.2	1548.65
943.54	2137.2155	2437.45	1551.4
943.6755	2138.7373	2428.85	1547.8
943.8109	2140.2584	2415.35	1533.45
943.9464	2141.7787	2414.7	1526.6
944.0818	2143.2983	2405.2	1523
944.2172	2144.8171	2395.9	1513.7
944.3526	2146.3353	2408.3	1522.25
944.4879	2147.8527	2398.6	1516.35
944.6232	2149.3693	2388.45	1503.85
944.7585	2150.8853	2393.75	1511.4
944.8938	2152.4005	2387.05	1504.6
945.029	2153.9149	2387.95	1504.7
945.1642	2155.4287	2365.9	1485.75
945.2994	2156.9417	2373.05	1488.9
945.4346	2158.454	2381.3	1496.6
945.5697	2159.9655	2361.4	1479.25
945.7048	2161.4764	2364.25	1482.6
945.8399	2162.9865	2363.1	1479.35
945.9749	2164.4958	2345.9	1460.45
946.1099	2166.0045	2354.45	1468
946.2449	2167.5124	2349.35	1464.65
946.3799	2169.0195	2345.1	1464.9
946.5148	2170.526	2342.75	1460.85
946.6498	2172.0317	2343.75	1462.85
946.7846	2173.5367	2338.65	1456.1
946.9195	2175.0409	2334.15	1451.5
947.0543	2176.5445	2337.1	1456.65
947.1891	2178.0473	2320.5	1437.35
947.3239	2179.5494	2321.15	1437.45
947.4587	2181.0507	2321	1439
947.5934	2182.5513	2305.85	1423.95
947.7281	2184.0512	2309.95	1429.45
947.8628	2185.5504	2308.95	1427.65
947.9974	2187.0488	2294.45	1411.8
948.132	2188.5465	2290.05	1407.1
948.2666	2190.0435	2294.55	1410.85
948.4012	2191.5397	2277.1	1394.4
948.5357	2193.0353	2288	1408.75
948.6702	2194.5301	2266.5	1382.7
948.8047	2196.0241	2268.25	1386.1
948.9392	2197.5175	2274.95	1392.9
949.0736	2199.0101	2269.85	1384.3
949.208	2200.502	2253.7	1372.3
949.3424	2201.9931	2244.55	1362.65
949.4767	2203.4835	2250.65	1366.05
949.611	2204.9733	2248.1	1358.4
949.7453	2206.4622	2240.95	1359.6
949.8796	2207.9505	2234.65	1349.7
950.0138	2209.438	2224.25	1341.8
950.148	2210.9248	2225.55	1341.8
950.2822	2212.4109	2225.95	1343.4
950.4164	2213.8962	2218.85	1334.25
950.5505	2215.3809	2211	1327.65
950.6846	2216.8648	2209	1325.05
950.8186	2218.3479	2212.95	1325.8
950.9527	2219.8304	2202.15	1318.1
951.0867	2221.3121	2188.25	1304.15
951.2207	2222.7931	2189.25	1307.75
951.3546	2224.2733	2174.5	1291.65
951.4886	2225.7529	2174.3	1292
951.6225	2227.2317	2178.3	1292.6
951.7563	2228.7098	2164	1282.45
951.8902	2230.1872	2179.65	1298.1
952.024	2231.6638	2164.85	1281.15
952.1578	2233.1397	2162.9	1277.2
952.2916	2234.6149	2165.2	1282.1
952.4253	2236.0894	2158.75	1273.65
952.559	2237.5632	2160.55	1269.6
952.6927	2239.0362	2134.7	1253
952.8263	2240.5085	2141.35	1258.15
952.9599	2241.9801	2145.05	1262.05
953.0935	2243.4509	2132.6	1248.75
953.2271	2244.921	2130.35	1248.75
953.3606	2246.3904	2129.9	1246.5
953.4941	2247.8591	2116.25	1235.8
953.6276	2249.3271	2103.95	1223.45
953.7611	2250.7943	2104	1223
953.8945	2252.2608	2106.25	1225.85
954.0279	2253.7266	2108	1225.7
954.1612	2255.1917	2089.1	1207.9
954.2946	2256.656	2095.65	1214.15
954.4279	2258.1197	2090.95	1208.65
954.5612	2259.5826	2089.9	1205.85
954.6944	2261.0447	2091.65	1209.1
954.8276	2262.5062	2077.1	1193.85
954.9608	2263.9669	2085.35	1201.9
955.094	2265.4269	2071.6	1189.75
955.2271	2266.8862	2063.55	1181.55
955.3602	2268.3448	2066.25	1185.6
955.4933	2269.8026	2075.65	1191.75
955.6264	2271.2598	2061	1179.45
955.7594	2272.7162	2063.5	1180.3
955.8924	2274.1719	2064.55	1181.65
956.0253	2275.6268	2051.4	1169.1
956.1583	2277.0811	2060.2	1176.95
956.2912	2278.5346	2046.25	1163.3
956.4241	2279.9874	2044.75	1162.45
956.5569	2281.4395	2044.15	1161.65
956.6897	2282.8908	2046.45	1160.1
956.8225	2284.3414	2046.95	1163.15
956.9553	2285.7914	2037.55	1157.55
957.088	2287.2406	2033	1147.9
957.2207	2288.689	2028.35	1145.5
957.3534	2290.1368	2035.25	1152.8
957.486	2291.5838	2026.2	1142.2
957.6186	2293.0302	2025.75	1143.3
957.7512	2294.4758	2015.8	1133.55
957.8838	2295.9206	2019.05	1135.35
958.0163	2297.3648	2018.7	1138.45
958.1488	2298.8082	2011.25	1127
958.2813	2300.251	2016.1	1134.8
958.4137	2301.693	2002.15	1116
958.5461	2303.1343	2005.7	1121.4
958.6785	2304.5748	1993.2	1111.3
958.8108	2306.0147	2000.5	1115.5
958.9432	2307.4538	1998.05	1114.05
959.0754	2308.8922	1984.7	1102.35
959.2077	2310.3299	1979.05	1096.4
959.3399	2311.7669	1983	1100.8
959.4721	2313.2031	1970.45	1085.9
959.6043	2314.6387	1975.8	1093.75
959.7365	2316.0735	1962.35	1080.1
959.8686	2317.5076	1974.1	1089.6
960.0006	2318.941	1974.85	1093.9
960.1327	2320.3737	1958.85	1076.1
960.2647	2321.8056	1956.95	1073.8
960.3967	2323.2369	1954.15	1072.5
960.5287	2324.6674	1956.4	1071.4
960.6606	2326.0972	1949.1	1066
960.7925	2327.5263	1950.3	1070.2
960.9244	2328.9547	1951.65	1067.8
961.0562	2330.3823	1938.8	1057.45
961.1881	2331.8092	1941.7	1055.05
961.3198	2333.2355	1938.05	1058.75
961.4516	2334.661	1935.7	1053.05
961.5833	2336.0858	1934.35	1050.2
961.715	2337.5098	1935.85	1052.8
961.8467	2338.9332	1928.85	1045.6
961.9783	2340.3558	1924.85	1040.2
962.1099	2341.7778	1917.3	1033.75
962.2415	2343.199	1924.2	1041.6
962.373	2344.6195	1922.8	1040.75
962.5045	2346.0393	1912.7	1030.25
962.636	2347.4583	1915.05	1031.5
962.7675	2348.8767	1915.65	1031.65
962.8989	2350.2943	1907.95	1025.4
963.0303	2351.7113	1906.05	1022.8
963.1617	2353.1275	1895.1	1013.45
963.293	2354.543	1926.2	1020.85
963.4243	2355.9578	1898.5	1016.25
963.5556	2357.3718	1886.65	1004.95
963.6868	2358.7852	1886.95	1002.2
963.818	2360.1978	1893.7	1009.1
963.9492	2361.6098	1888.9	1008.9
964.0803	2363.021	1878.5	992.25
964.2114	2364.4315	1881.35	1001.4
964.3425	2365.8413	1870.5	984.85
964.4736	2367.2504	1866.6	985.45
964.6046	2368.6587	1865.85	980.8
964.7356	2370.0664	1867	986.5
964.8666	2371.4733	1863.55	979.05
964.9975	2372.8795	1860.2	979
965.1284	2374.285	1847.95	965.65
965.2593	2375.6899	1849.8	969.4
965.3901	2377.0939	1853.15	971.85
965.5209	2378.4973	1852.5	970.7
965.6517	2379.9	1842.8	959.45
965.7825	2381.3019	1841.3	958.95
965.9132	2382.7032	1840.8	959.6
966.0439	2384.1037	1840.95	959.75
966.1745	2385.5035	1836.45	952.75
966.3051	2386.9027	1825.55	945.5
966.4357	2388.3011	1829.75	942.5
966.5663	2389.6987	1835.65	954.2
966.6968	2391.0957	1826.25	944.65
966.8273	2392.492	1821.55	940
966.9578	2393.8876	1806.55	923.1
967.0882	2395.2824	1809.4	927.75
967.2186	2396.6765	1803.3	922.5
967.349	2398.07	1800.85	920
967.4793	2399.4627	1797.7	916.05
967.6097	2400.8547	1796.25	914.1
967.7399	2402.246	1795.5	909.05
967.8702	2403.6366	1788.4	905
968.0004	2405.0265	1784.65	903.45
968.1306	2406.4156	1785.5	900.25
968.2607	2407.8041	1789.8	905.6
968.3909	2409.1918	1783.85	899.85
968.521	2410.5789	1775.1	894.95
968.651	2411.9652	1768.65	884.8
968.781	2413.3508	1766.85	884.5
968.911	2414.7358	1766	883.85
969.041	2416.12	1761.45	877.6
969.1709	2417.5035	1765.1	882.95
969.3008	2418.8863	1765.65	881.7
969.4307	2420.2684	1758.45	875.95
969.5606	2421.6497	1754.7	870.85
969.6904	2423.0304	1745.8	864.95
969.8201	2424.4104	1744.2	861.7
969.9499	2425.7896	1754.85	867.5
970.0796	2427.1682	1746.95	864.65
970.2093	2428.546	1748.65	865.8
970.3389	2429.9232	1737.9	854.2
970.4685	2431.2996	1741.9	860.55
970.5981	2432.6753	1728.95	848.9
970.7277	2434.0503	1730.6	849.15
970.8572	2435.4246	1727.5	846.65
970.9867	2436.7982	1724.7	842.6
971.1161	2438.1711	1723.8	843.05
971.2456	2439.5433	1718.05	835.75
971.375	2440.9148	1720.85	832.8
971.5043	2442.2856	1720.5	838.6
971.6336	2443.6557	1714.55	830.05
971.7629	2445.025	1708.7	826.75
971.8922	2446.3937	1706.55	823.85
972.0214	2447.7617	1701.9	818.1
972.1506	2449.1289	1705.6	822.45
972.2798	2450.4955	1716.55	832.8
972.4089	2451.8613	1706.5	824.65
972.538	2453.2265	1698.15	816.65
972.6671	2454.5909	1690.3	805.65
972.7961	2455.9546	1691	809.5
972.9251	2457.3177	1692.85	812.9
973.0541	2458.68	1688.95	804.6
973.1831	2460.0416	1685.95	803.7
973.312	2461.4025	1694.65	812.05
973.4408	2462.7627	1699.6	807.35
973.5697	2464.1222	1676.2	795.75
973.6985	2465.4811	1679.35	797.35
973.8273	2466.8392	1682.2	799.45
973.956	2468.1966	1683.3	798.85
974.0847	2469.5533	1681.85	795.95
974.2134	2470.9093	1677.1	796
974.3421	2472.2645	1667.15	783.7
974.4707	2473.6191	1676.3	795.55
974.5993	2474.973	1668.3	786.65
974.7278	2476.3262	1672.45	788.15
974.8563	2477.6787	1657.5	776.05
974.9848	2479.0305	1658.2	776.55
975.1132	2480.3816	1665.25	780.55
975.2417	2481.7319	1659.35	777.7
975.37	2483.0816	1656.2	771
975.4984	2484.4306	1652.15	768.15
975.6267	2485.7789	1648.05	764.7
975.755	2487.1264	1658.75	774.25
975.8833	2488.4733	1649.6	770.05
976.0115	2489.8195	1658.15	758.55
976.1397	2491.165	1640.95	754.9
976.2678	2492.5097	1638.35	754.1
976.3959	2493.8538	1633.35	753.85
976.524	2495.1972	1625.55	743.1
976.6521	2496.5398	1634.9	751.3
976.7801	2497.8818	1630.5	747.15
976.9081	2499.2231	1627.7	745.65
977.036	2500.5637	1626.4	743
977.164	2501.9035	1619.1	734.45
977.2918	2503.2427	1618.15	731.35
977.4197	2504.5812	1615.85	733.2
977.5475	2505.919	1618.3	733.25
977.6753	2507.256	1612.3	731.7
977.8031	2508.5924	1621.55	740
977.9308	2509.9281	1611.45	722.45
978.0585	2511.2631	1604.05	723
978.1861	2512.5974	1608.8	726.45
978.3137	2513.9309	1598.65	715.7
978.4413	2515.2638	1630	717.2
978.5689	2516.596	1605.45	723.05
978.6964	2517.9275	1597.65	711.35
978.8239	2519.2583	1599.25	714.45
978.9513	2520.5884	1591.5	709
979.0788	2521.9178	1597.05	713.35
979.2062	2523.2465	1585.2	702.3
979.3335	2524.5745	1585.35	702.6
979.4608	2525.9018	1580	698.1
979.5881	2527.2284	1583.75	702.15
979.7154	2528.5543	1579.95	700.95
979.8426	2529.8796	1585.95	704.55
979.9698	2531.2041	1577.6	695.65
980.0969	2532.5279	1580.6	700
980.224	2533.851	1577.9	693.85
980.3511	2535.1735	1578.7	697.95
980.4781	2536.4952	1573.45	691.85
980.6052	2537.8163	1580.65	696.75
980.7321	2539.1366	1571.4	687.65
980.8591	2540.4562	1567.9	684.8
980.986	2541.7752	1570.95	690.5
981.1129	2543.0935	1568	684.6
981.2397	2544.411	1567.95	687.25
981.3665	2545.7279	1566.55	685.1
981.4933	2547.0441	1559.85	678.35
981.62	2548.3596	1569.4	684.35
981.7467	2549.6744	1561.6	679.7
981.8734	2550.9885	1563.15	672.2
982.0001	2552.3019	1560.5	679.35
982.1267	2553.6146	1555.55	674.55
982.2532	2554.9266	1557.1	676.7
982.3798	2556.2379	1550.8	667.65
982.5063	2557.5485	1553.1	672.5
982.6327	2558.8585	1557.1	667.55
982.7592	2560.1677	1556.25	670.35
982.8856	2561.4762	1551.2	668.2
983.0119	2562.7841	1550.4	665.05
983.1383	2564.0913	1550.95	671.4
983.2646	2565.3977	1555.25	674.25
983.3908	2566.7035	1542.3	661.25
983.517	2568.0086	1547.95	666.05
983.6432	2569.313	1550.7	666.9
983.7694	2570.6167	1550.55	666.35
983.8955	2571.9197	1544.7	664.7
984.0216	2573.222	1542.8	657.4
984.1476	2574.5236	1538.55	657.1
984.2737	2575.8246	1541.4	656.65
984.3996	2577.1248	1542.05	656.9
984.5256	2578.4244	1533.15	649.35
984.6515	2579.7232	1537.4	655.15
984.7774	2581.0214	1577.8	659.6
984.9032	2582.3189	1537	654.4
985.029	2583.6157	1538.2	653.4
985.1548	2584.9118	1532.35	651.3
985.2806	2586.2072	1535.15	653.35
985.4063	2587.5019	1533.65	653.4
985.5319	2588.7959	1529.1	646.2
985.6576	2590.0893	1536.15	655.35
985.7832	2591.3819	1539	658.8
985.9087	2592.6739	1531.3	649.85
986.0343	2593.9652	1536.5	655.45
986.1597	2595.2557	1523.6	642.65
986.2852	2596.5456	1526.7	643.5
986.4106	2597.8348	1535.55	656.1
986.536	2599.1234	1530.55	646.95
986.6614	2600.4112	1534.6	654.1
986.7867	2601.6983	1533.65	647.5
986.912	2602.9848	1529.1	645.75
987.0372	2604.2705	1531	645.1
987.1624	2605.5556	1527.25	643.45
987.2876	2606.84	1527.55	645.95
987.4128	2608.1237	1520.7	638.05
987.5379	2609.4067	1515.95	634.1
987.6629	2610.689	1522.6	631.75
987.788	2611.9707	1508.7	623.35
987.913	2613.2516	1515.3	627.45
988.0379	2614.5319	1508.45	627.85
988.1629	2615.8115	1504.8	623.25
988.2878	2617.0903	1506	621.15
988.4126	2618.3685	1498.3	615.65
988.5375	2619.6461	1501.45	621.15
988.6622	2620.9229	1505	624.3
988.787	2622.199	1500.75	618.4
988.9117	2623.4745	1494.8	611.35
989.0364	2624.7493	1501.55	619.55
989.161	2626.0234	1498	617.6
989.2857	2627.2968	1493.3	610.75
989.4102	2628.5695	1495.8	613.2
989.5348	2629.8415	1484.85	604.6
989.6593	2631.1128	1498.4	614.75
989.7837	2632.3835	1481.55	599.45
989.9082	2633.6535	1477.65	596.6
990.0326	2634.9228	1476.55	593.95
990.1569	2636.1914	1481.8	601.1
990.2812	2637.4593	1484.7	601.8
990.4055	2638.7265	1483.5	600.9
990.5298	2639.9931	1475.15	593.15
990.654	2641.259	1479.05	594.5
990.7782	2642.5242	1468.9	587.35
990.9023	2643.7887	1471.8	588.95
991.0264	2645.0525	1463.25	580.25
991.1505	2646.3156	1461.55	578.85
991.2745	2647.5781	1463.7	582.5
991.3985	2648.8398	1458.75	577.55
991.5225	2650.1009	1497.4	578.15
991.6464	2651.3613	1462.45	579.8
991.7703	2652.6211	1460.9	578.9
991.8942	2653.8801	1455.1	571.6
992.018	2655.1385	1459.05	574.25
992.1418	2656.3961	1448.8	566.85
992.2655	2657.6531	1454.55	574.7
992.3892	2658.9094	1457.2	574.5
992.5129	2660.1651	1465.05	584.8
992.6366	2661.42	1457.75	577.3
992.7602	2662.6743	1457.55	574.8
992.8837	2663.9279	1460.5	577.95
993.0073	2665.1808	1467.25	585.7
993.1307	2666.433	1462.65	579.35
993.2542	2667.6846	1457.35	575.85
993.3776	2668.9354	1465.8	581.6
993.501	2670.1856	1471.7	589.95
993.6244	2671.4351	1473.15	593.9
993.7477	2672.6839	1469.75	585.45
993.8709	2673.9321	1471.45	591.45
993.9942	2675.1795	1466.75	586.65
994.1174	2676.4263	1464.7	581.25
994.2405	2677.6724	1469.25	589.1
994.3637	2678.9179	1476.5	594
994.4868	2680.1626	1474.1	593.95
994.6098	2681.4067	1474.2	590.05
994.7328	2682.6501	1469.4	586.9
994.8558	2683.8928	1466.5	586.2
994.9788	2685.1348	1467.2	585.3
995.1017	2686.3761	1455.75	573.55
995.2245	2687.6168	1453	570.15
995.3474	2688.8568	1447.9	564.5
995.4702	2690.0961	1446.55	566.55
995.5929	2691.3348	1448.9	566.95
995.7156	2692.5727	1438.75	557.5
995.8383	2693.81	1439.25	557.5
995.961	2695.0466	1436.65	556.4
996.0836	2696.2826	1438.4	554.85
996.2062	2697.5178	1448.5	561.15
996.3287	2698.7524	1438.9	557.75
996.4512	2699.9863	1442.7	560.1
996.5737	2701.2195	1446.95	566.55
996.6961	2702.452	1445.8	561.9
996.8185	2703.6839	1446.4	565.7
996.9408	2704.9151	1446.15	563.6
997.0631	2706.1456	1455.4	575.2
997.1854	2707.3755	1460	577
997.3077	2708.6046	1462.65	578.95
997.4299	2709.8331	1469.9	587.9
997.552	2711.0609	1472	587.65
997.6742	2712.2881	1483.8	601.3
997.7963	2713.5145	1491.5	607.65
997.9183	2714.7403	1493.25	612.8
998.0403	2715.9654	1497.95	613.9
998.1623	2717.1899	1528.85	632.55
998.2842	2718.4136	1520.65	639.7
998.4062	2719.6367	1527.35	645.85
998.528	2720.8591	1538.45	648.5
998.6498	2722.0809	1545.7	665.75
998.7716	2723.3019	1550.05	660.95
998.8934	2724.5223	1568.1	686.85
999.0151	2725.7421	1576.45	691.6
999.1368	2726.9611	1570.1	686.15
999.2584	2728.1795	1567.55	681.9
999.38	2729.3972	1557	673.6
999.5016	2730.6142	1555.2	659.95
999.6231	2731.8306	1533.45	651.2
999.7446	2733.0462	1517.45	632.25
999.8661	2734.2612	1513.2	627.7
999.9875	2735.4756	1493	609.8
1000.1089	2736.6892	1485.75	602.2
1000.2302	2737.9022	1471.15	591.5
1000.3515	2739.1145	1459.7	575.15
1000.4728	2740.3262	1458	568.25
1000.594	2741.5372	1437.15	555.7
1000.7152	2742.7475	1433.55	551.65
1000.8363	2743.9571	1427.35	542.75
1000.9575	2745.1661	1426.7	540.55
1001.0785	2746.3744	1404.45	521.7
1001.1996	2747.582	1396.1	515.9
1001.3206	2748.7889	1391	507.2
1001.4415	2749.9952	1388	506.15
1001.5625	2751.2008	1384.3	501.25
1001.6833	2752.4057	1381.9	498.65
1001.8042	2753.61	1381.75	498.35
1001.925	2754.8136	1380.85	496.15
1002.0458	2756.0165	1371.85	490.45
1002.1665	2757.2188	1365.7	485.1
1002.2872	2758.4204	1368	486.75
1002.4078	2759.6213	1373.15	488.2
1002.5285	2760.8215	1374.5	487.5
1002.649	2762.0211	1373.5	493.1
1002.7696	2763.22	1368.1	481.85
1002.8901	2764.4182	1366.3	482.35
1003.0106	2765.6158	1361	478.6
1003.131	2766.8127	1361.6	479.1
1003.2514	2768.009	1352.75	470.75
1003.3717	2769.2045	1358.75	474.2
1003.492	2770.3994	1349.95	467.8
1003.6123	2771.5936	1349.25	464.25
1003.7325	2772.7872	1342.95	460.4
1003.8527	2773.9801	1338.9	454.7
1003.9729	2775.1723	1362.3	462.8
1004.093	2776.3639	1338.9	457.2
1004.2131	2777.5548	1340.05	456.75
1004.3331	2778.745	1343.05	461.15
1004.4531	2779.9346	1349.95	468.95
1004.5731	2781.1235	1345.5	462.35
1004.693	2782.3117	1342.95	462.05
1004.8129	2783.4992	1341.6	459.2
1004.9328	2784.6861	1347.3	463.65
1005.0526	2785.8723	1351.4	468.05
1005.1723	2787.0579	1349.7	467.3
1005.2921	2788.2428	1353.15	471.9
1005.4118	2789.427	1354.5	471.55
1005.5314	2790.6106	1349.5	467.45
1005.651	2791.7935	1369.2	486
1005.7706	2792.9757	1370.55	489.45
1005.8902	2794.1573	1382.25	500.25
1006.0097	2795.3382	1378.45	495.45
1006.1291	2796.5184	1386	504.05
1006.2485	2797.698	1390.6	507.85
1006.3679	2798.8769	1402.3	518.75
1006.4873	2800.0551	1418.5	535.85
1006.6066	2801.2327	1424.4	539.55
1006.7258	2802.4096	1430	549.15
1006.8451	2803.5859	1446.55	564.75
1006.9642	2804.7615	1461.55	578.65
1007.0834	2805.9364	1475.05	593.15
1007.2025	2807.1106	1496.05	614.85
1007.3216	2808.2842	1508.05	624.3
1007.4406	2809.4572	1537.7	656.5
1007.5596	2810.6294	1559.2	676.35
1007.6785	2811.801	1586.2	705.55
1007.7975	2812.972	1610.45	726.95
1007.9163	2814.1423	1647.15	765.15
1008.0352	2815.3119	1689.05	806.05
1008.154	2816.4808	1725.45	844.75
1008.2727	2817.6491	1771.75	887.4
1008.3914	2818.8167	1816.3	936
1008.5101	2819.9837	1857	971.95
1008.6288	2821.15	1911.95	1030.5
1008.7474	2822.3157	1959	1078.65
1008.8659	2823.4807	2008.9	1127.5
1008.9844	2824.645	2061.45	1177.6
1009.1029	2825.8086	2119.15	1237.25
1009.2214	2826.9716	2157.75	1275.55
1009.3398	2828.134	2207.95	1326.55
1009.4581	2829.2957	2254.35	1372.25
1009.5764	2830.4567	2289.25	1409
1009.6947	2831.617	2312.15	1428.9
1009.813	2832.7767	2310.65	1431.15
1009.9312	2833.9358	2324.45	1443.8
1010.0493	2835.0941	2300.55	1416.45
1010.1675	2836.2519	2289.6	1410.85
1010.2855	2837.4089	2284.4	1401.75
1010.4036	2838.5653	2258.4	1377.4
1010.5216	2839.7211	2245.15	1364.55
1010.6396	2840.8761	2242.35	1358.55
1010.7575	2842.0306	2240.8	1359.75
1010.8754	2843.1843	2265.5	1385
1010.9932	2844.3374	2278.2	1396.8
1011.111	2845.4899	2322.1	1438.8
1011.2288	2846.6417	2356.5	1475
1011.3465	2847.7928	2404.05	1523.25
1011.4642	2848.9433	2450.5	1567.55
1011.5818	2850.0931	2500.15	1618.4
1011.6995	2851.2422	2552.55	1668.8
1011.817	2852.3907	2614.75	1733.25
1011.9345	2853.5385	2653.5	1771.45
1012.052	2854.6857	2714.05	1806.4
1012.1695	2855.8323	2734.95	1855.4
1012.2869	2856.9781	2768.55	1886.9
1012.4042	2858.1233	2821.5	1937.95
1012.5216	2859.2679	2856.5	1974.6
1012.6389	2860.4118	2913.35	2030.45
1012.7561	2861.555	2952.35	2065.85
1012.8733	2862.6976	2986.05	2102.05
1012.9905	2863.8395	3029.7	2147.75
1013.1076	2864.9808	3039.65	2159.25
1013.2247	2866.1214	3058.2	2177.35
1013.3417	2867.2614	3083.2	2201.1
1013.4587	2868.4007	3092.95	2209.3
1013.5757	2869.5393	3097.2	2213.6
1013.6926	2870.6773	3115.05	2231.1
1013.8095	2871.8146	3121.05	2236.75
1013.9263	2872.9513	3132.05	2249.2
1014.0431	2874.0874	3113.2	2233.1
1014.1599	2875.2227	3109.35	2225.25
1014.2766	2876.3574	3096.2	2213.6
1014.3933	2877.4915	3076.1	2195.25
1014.51	2878.6249	3039.5	2157.85
1014.6266	2879.7577	3036.15	2154.05
1014.7431	2880.8898	3012.45	2118.55
1014.8596	2882.0212	2990.45	2110.65
1014.9761	2883.152	2992	2109.55
1015.0925	2884.2821	2979.45	2097
1015.2089	2885.4116	2982.7	2103.4
1015.3253	2886.5405	2991.7	2109.9
1015.4416	2887.6686	2994.25	2109.75
1015.5579	2888.7962	2992.2	2112.65
1015.6741	2889.923	2997.65	2115.75
1015.7903	2891.0493	3014.2	2132.65
1015.9065	2892.1748	3013.4	2130.5
1016.0226	2893.2997	3028.25	2146.1
1016.1387	2894.424	3036.7	2156.7
1016.2547	2895.5476	3041.65	2159.95
1016.3707	2896.6706	3063.7	2184.25
1016.4866	2897.7929	3075.1	2191.55
1016.6025	2898.9145	3097.55	2216.6
1016.7184	2900.0355	3120.75	2238.45
1016.8342	2901.1559	3153.05	2270
1016.95	2902.2756	3179.2	2298.2
1017.0658	2903.3946	3199.6	2316.2
1017.1815	2904.513	3216.9	2332.65
1017.2971	2905.6308	3234.9	2354.1
1017.4127	2906.7479	3243.85	2360.5
1017.5283	2907.8643	3271.2	2389.2
1017.6439	2908.9801	3275.5	2392.65
1017.7594	2910.0953	3295.45	2415
1017.8748	2911.2098	3288.5	2403
1017.9902	2912.3236	3282.8	2392.4
1018.1056	2913.4368	3274.05	2390.05
1018.2209	2914.5494	3252.25	2370.75
1018.3362	2915.6613	3226.7	2339.05
1018.4515	2916.7725	3197	2313
1018.5667	2917.8831	3165	2280.9
1018.6819	2918.9931	3140.1	2255.35
1018.797	2920.1024	3119.3	2234.7
1018.9121	2921.211	3099.9	2219.85
1019.0271	2922.319	3093.85	2211.55
1019.1421	2923.4264	3080.45	2198
1019.2571	2924.5331	3076.65	2195.7
1019.372	2925.6391	3072.9	2191.35
1019.4869	2926.7445	3064	2183.45
1019.6017	2927.8493	3065.6	2185.15
1019.7165	2928.9534	3068.65	2186.2
1019.8313	2930.0569	3079.9	2197.25
1019.946	2931.1597	3086.1	2202.95
1020.0606	2932.2619	3085.15	2204.75
1020.1753	2933.3634	3092.4	2209.95
1020.2899	2934.4643	3112.15	2222.6
1020.4044	2935.5645	3097.75	2209.25
1020.5189	2936.6641	3069.3	2183.45
1020.6334	2937.763	3053.25	2170.9
1020.7478	2938.8613	3025.85	2143.85
1020.8622	2939.959	2997.65	2111.1
1020.9765	2941.056	2943.95	2063.15
1021.0908	2942.1523	2876.1	1994.1
1021.2051	2943.248	2832.3	1949.4
1021.3193	2944.3431	2739.95	1858.25
1021.4334	2945.4375	2666.4	1783.65
1021.5476	2946.5313	2585.65	1706.6
1021.6617	2947.6244	2493.4	1612.1
1021.7757	2948.7169	2410.95	1528.4
1021.8897	2949.8087	2339.9	1458.7
1022.0037	2950.8999	2265.85	1382.8
1022.1176	2951.9904	2200.1	1319.4
1022.2315	2953.0803	2135.05	1253
1022.3453	2954.1696	2080.05	1196.95
1022.4591	2955.2582	2043.75	1161.55
1022.5728	2956.3462	2001.55	1119.4
1022.6865	2957.4335	1972.6	1089.35
1022.8002	2958.5202	1938.15	1054.55
1022.9138	2959.6062	1923.7	1040.7
1023.0274	2960.6916	1891.4	1010.05
1023.141	2961.7764	1875.6	994.3
1023.2545	2962.8605	1867.95	986.8
1023.3679	2963.9439	1855.75	976.05
1023.4813	2965.0267	1848.8	964.05
1023.5947	2966.1089	1853.7	947.5
1023.708	2967.1905	1829.1	948
1023.8213	2968.2714	1827.75	945.8
1023.9346	2969.3516	1831.25	950.05
1024.0478	2970.4312	1844.7	954.75
1024.1609	2971.5102	1840.05	959.15
1024.274	2972.5885	1830.2	949
1024.3871	2973.6662	1851.9	967.5
1024.5002	2974.7432	1845.45	965
1024.6132	2975.8196	1839.5	957.1
1024.7261	2976.8954	1831.9	949.05
1024.839	2977.9705	1833.8	951.95
1024.9519	2979.045	1825.35	944.25
1025.0647	2980.1188	1805.75	924
1025.1775	2981.192	1798.05	916.9
1025.2902	2982.2645	1783.45	901.55
1025.4029	2983.3364	1757.05	876.9
1025.5156	2984.4077	1742.95	859.8
1025.6282	2985.4783	1722.25	836.4
1025.7407	2986.5483	1695.45	813.5
1025.8532	2987.6177	1662.2	781.3
1025.9657	2988.6864	1643.6	762.9
1026.0782	2989.7545	1612.15	728.5
1026.1906	2990.8219	1593.45	712.8
1026.3029	2991.8887	1553.5	669.5
1026.4152	2992.9548	1533.65	653.15
1026.5275	2994.0204	1494.55	614.65
1026.6397	2995.0852	1465.4	584.45
1026.7519	2996.1495	1457.35	574.6
1026.864	2997.2131	1428.05	545.5
1026.9761	2998.276	1405.5	524.8
1027.0882	2999.3383	1391.5	509.85
1027.2002	3000.4	1377.8	496.55
1027.3122	3001.4611	1353.5	469.85
1027.4241	3002.5215	1343.2	463.3
1027.536	3003.5812	1318.45	436.65
1027.6478	3004.6404	1316.9	435.05
1027.7596	3005.6989	1302.75	418.05
1027.8714	3006.7567	1290.35	408.7
1027.9831	3007.8139	1307.75	398.9
1028.0947	3008.8705	1273.4	392.25
1028.2064	3009.9264	1283.85	385.45
1028.3179	3010.9818	1265.8	383.75
1028.4295	3012.0364	1262	379.45
1028.541	3013.0905	1248.1	367.55
1028.6524	3014.1439	1240.8	358
1028.7638	3015.1966	1238.55	357.95
1028.8752	3016.2487	1236.5	354.4
1028.9865	3017.3002	1243.25	356.45
1029.0978	3018.3511	1229.8	350
1029.209	3019.4013	1223.75	339.45
1029.3202	3020.4509	1219.1	336.75
1029.4314	3021.4998	1225.15	344.9
1029.5425	3022.5481	1224.05	341.35
1029.6535	3023.5958	1217.95	336
1029.7645	3024.6428	1213.3	327.2
1029.8755	3025.6892	1216.6	335.15
1029.9864	3026.735	1219	336.95
1030.0973	3027.7802	1214.3	332.15
1030.2082	3028.8247	1215.25	334.6
1030.319	3029.8685	1211.95	328.75
1030.4297	3030.9118	1218.15	335
1030.5404	3031.9544	1216.15	333.8
1030.6511	3032.9963	1220.6	339.15
1030.7617	3034.0376	1218.05	337.5
1030.8723	3035.0783	1219.35	333.95
1030.9829	3036.1184	1223.5	341.6
1031.0934	3037.1578	1230.6	349.95
1031.2038	3038.1966	1227.45	342.85
1031.3142	3039.2348	1227.35	346.55
1031.4246	3040.2723	1235.45	345.3
1031.5349	3041.3092	1227.7	347.3
1031.6452	3042.3455	1227.25	345.4
1031.7554	3043.3811	1225.95	343.35
1031.8656	3044.4161	1224.1	342.65
1031.9758	3045.4505	1222.7	343.55
1032.0859	3046.4842	1223.45	343.05
1032.1959	3047.5173	1216.15	336.6
1032.3059	3048.5498	1221.9	340.55
1032.4159	3049.5816	1220.6	338.65
1032.5258	3050.6128	1218.3	337.35
1032.6357	3051.6434	1213.6	330.95
1032.7455	3052.6734	1216.9	334.5
1032.8553	3053.7027	1206.55	324.85
1032.9651	3054.7314	1204.25	324
1033.0748	3055.7594	1205.7	323.2
1033.1845	3056.7868	1205	322.3
1033.2941	3057.8136	1206.4	324.55
1033.4037	3058.8398	1200.15	320.65
1033.5132	3059.8653	1199.15	317.4
1033.6227	3060.8902	1193.45	310.75
1033.7321	3061.9145	1195.2	313.45
1033.8415	3062.9381	1192.65	312.25
1033.9509	3063.9612	1207.65	309.75
1034.0602	3064.9835	1184.95	303.45
1034.1694	3066.0053	1185.75	302.55
1034.2787	3067.0264	1178.5	296.35
1034.3878	3068.0469	1180.45	297.45
1034.497	3069.0668	1184.25	299.3
1034.6061	3070.086	1173	294.3
1034.7151	3071.1046	1172.65	289.15
1034.8241	3072.1226	1167.95	285.3
1034.9331	3073.1399	1161.9	281.65
1035.042	3074.1567	1151.65	269
1035.1508	3075.1727	1152.1	267.75
1035.2597	3076.1882	1141.4	259.5
1035.3684	3077.203	1134.45	251.1
1035.4772	3078.2173	1136.45	253.85
1035.5859	3079.2308	1130.7	244.85
1035.6945	3080.2438	1120.7	237.25
1035.8031	3081.2561	1115.55	233.85
1035.9117	3082.2678	1113.6	231.95
1036.0202	3083.2789	1108.75	228
1036.1286	3084.2893	1101.3	222.05
1036.2371	3085.2991	1097.55	215.75
1036.3454	3086.3083	1094.15	206.7
1036.4538	3087.3169	1088.85	205.55
1036.562	3088.3248	1090.45	206.65
1036.6703	3089.3321	1082.85	196.6
1036.7785	3090.3388	1076.9	197.7
1036.8866	3091.3449	1074.75	193.05
1036.9948	3092.3503	1080.05	197.95
1037.1028	3093.3551	1067.5	187.55
1037.2108	3094.3593	1069.1	189.4
1037.3188	3095.3629	1059.35	179.5
1037.4267	3096.3658	1066.45	182.15
1037.5346	3097.3681	1058.9	177.75
1037.6425	3098.3698	1060.95	178.8
1037.7503	3099.3708	1063	175.1
1037.858	3100.3713	1054.25	175.6
1037.9657	3101.3711	1049.45	166.95
1038.0734	3102.3702	1188.85	166.55
1038.181	3103.3688	1050.8	166.3
1038.2886	3104.3667	1041.1	160.2
1038.3961	3105.364	1046.1	165.25
1038.5036	3106.3607	1042	159.35
1038.611	3107.3568	1043.7	161.95
1038.7184	3108.3522	1035.55	154.65
1038.8257	3109.347	1031.95	148.65
1038.933	3110.3412	1038.5	151.95
1039.0403	3111.3348	1031.05	149.9
1039.1475	3112.3277	1028.85	146.75
1039.2547	3113.32	1028.1	148.4
1039.3618	3114.3117	1025.7	144.1
1039.4689	3115.3028	1019.65	139
1039.5759	3116.2932	1023.65	140.6
1039.6829	3117.2831	1028.6	141.55
1039.7898	3118.2723	1023.35	140.2
1039.8967	3119.2608	1022.15	141.7
1040.0035	3120.2488	1017.4	134.3
1040.1103	3121.2361	1015.35	132.6
1040.2171	3122.2229	1015.45	133.2
1040.3238	3123.209	1014.85	133.1
1040.4305	3124.1944	1010.65	128.95
1040.5371	3125.1793	1012.4	129.75
1040.6437	3126.1635	1010.85	129.8
1040.7502	3127.1471	1007.35	126.25
1040.8567	3128.1301	1007.9	126.4
1040.9631	3129.1125	1002.9	122.2
1041.0695	3130.0942	1010.15	127.9
1041.1759	3131.0753	1013.55	122.2
1041.2822	3132.0558	1003	117.65
1041.3884	3133.0357	1003.8	123.35
1041.4946	3134.015	1005.15	122.5
1041.6008	3134.9936	1002.6	117.95
1041.7069	3135.9716	1022.85	120.15
1041.813	3136.949	1001.75	120.9
1041.919	3137.9258	1017.45	118.5
1042.025	3138.902	1001.65	113.95
1042.1309	3139.8775	994.65	114.2
1042.2368	3140.8524	993.3	110.7
1042.3427	3141.8267	995.6	114.55
1042.4485	3142.8004	992.2	108.55
1042.5542	3143.7735	997.85	111.6
1042.6599	3144.7459	992.05	107.65
1042.7656	3145.7178	990.75	109.9
1042.8712	3146.689	992.55	110.9
1042.9768	3147.6596	989.95	105
1043.0823	3148.6295	987.7	106.5
1043.1878	3149.5989	988.1	105.75
1043.2932	3150.5676	983.15	104.25
1043.3986	3151.5357	987.85	107.25
1043.5039	3152.5032	985.85	104.2
1043.6092	3153.4701	981.4	98.5
1043.7145	3154.4364	986.35	101.55
1043.8197	3155.402	980.35	101.1
1043.9248	3156.367	982.9	98.85
1044.03	3157.3315	1008	107.85
1044.135	3158.2952	981.55	100.15
1044.24	3159.2584	978.55	97.7
1044.345	3160.221	977.45	95.85
1044.4499	3161.1829	975.55	93.3
1044.5548	3162.1442	976.45	95.05
1044.6596	3163.105	980.7	99.15
1044.7644	3164.065	976.9	93.6
1044.8692	3165.0245	978.45	93.9
1044.9739	3165.9834	970.75	91.05
1045.0785	3166.9416	976.05	95.65
1045.1831	3167.8993	976.1	95.15
1045.2877	3168.8563	974.75	91.75
1045.3922	3169.8127	972.1	92.15
1045.4966	3170.7684	973.3	90.85
1045.6011	3171.7236	971.5	88.5
1045.7054	3172.6782	970.15	89.3
1045.8098	3173.6321	968.2	85.85
1045.914	3174.5854	974.9	88.85
1046.0183	3175.5381	969.25	87.7
1046.1224	3176.4902	964.7	81.9
1046.2266	3177.4417	967.6	86.45
1046.3307	3178.3926	966.55	84.35
1046.4347	3179.3428	967.65	86.55
1046.5387	3180.2924	961.55	82.2
1046.6427	3181.2415	965	83.05
1046.7466	3182.1899	965.45	84.55
1046.8504	3183.1377	964.35	83.45
1046.9542	3184.0848	966.7	81.25
1047.058	3185.0314	965.75	84.85
1047.1617	3185.9773	965.65	83.35
1047.2654	3186.9227	965.4	84.8
1047.369	3187.8674	960.65	80.05
1047.4726	3188.8115	966	78.55
1047.5761	3189.755	965.35	84.95
1047.6796	3190.6979	962.95	81.8
1047.783	3191.6402	957.85	79.2
1047.8864	3192.5818	958.2	75.15
1047.9898	3193.5229	978.9	75.55
1048.0931	3194.4633	960.75	78.75
1048.1963	3195.4031	959.3	75.65
1048.2995	3196.3423	960	80.5
1048.4027	3197.2809	956.75	75.5
1048.5058	3198.2189	958	75.5
1048.6089	3199.1563	965.8	76.6
1048.7119	3200.0931	956.35	75.75
1048.8148	3201.0292	956.9	76.55
1048.9178	3201.9648	954.95	72.4
1049.0206	3202.8997	959.05	74.25
1049.1235	3203.834	954.15	72.95
1049.2262	3204.7677	953.35	70.85
1049.329	3205.7008	954.3	71.85
1049.4317	3206.6333	950.8	70.95
1049.5343	3207.5652	952.45	69.5
1049.6369	3208.4964	955.15	73.8
1049.7394	3209.4271	950.9	71.55
1049.8419	3210.3571	949.85	70
1049.9444	3211.2865	951.5	68.25
1050.0468	3212.2154	952.15	69.75
1050.1491	3213.1436	954.1	72
1050.2514	3214.0712	957	67.8
1050.3537	3214.9982	951.8	69.5
1050.4559	3215.9246	948	66
1050.5581	3216.8503	945.7	65.35
1050.6602	3217.7755	948.35	66
1050.7623	3218.7001	947.85	65.65
1050.8643	3219.624	951.1	69
1050.9663	3220.5473	948.5	67
1051.0682	3221.4701	947.3	64.05
1051.1701	3222.3922	945.8	63.2
1051.2719	3223.3137	948	67.35
1051.3737	3224.2346	942.95	62.35
1051.4754	3225.1549	946.65	65.35
1051.5771	3226.0746	946.95	64.95
1051.6788	3226.9937	944.45	63.1
1051.7804	3227.9121	944.2	61.85
1051.8819	3228.83	940.9	60.8
1051.9834	3229.7473	942.95	62.35
1052.0849	3230.6639	946	63.95
1052.1863	3231.5799	941.8	62.1
1052.2876	3232.4954	943.7	59.4
1052.3889	3233.4102	942.2	62.7
1052.4902	3234.3244	942.05	60.25
1052.5914	3235.238	938.75	56.4
1052.6926	3236.151	962.05	55.5
1052.7937	3237.0634	939.35	60.05
1052.8948	3237.9752	938.15	57.35
1052.9958	3238.8864	942.25	61.85
1053.0968	3239.797	938.6	55.55
1053.1977	3240.7069	939.15	57.7
1053.2986	3241.6163	939	57.65
1053.3994	3242.5251	938.1	55.9
1053.5002	3243.4332	936.95	57.75
1053.6009	3244.3408	938.45	55.35
1053.7016	3245.2477	937.55	55.95
1053.8022	3246.154	934.95	53.05
1053.9028	3247.0598	938.1	55.45
1054.0034	3247.9649	933.1	52.9
1054.1039	3248.8694	935.5	53.05
1054.2043	3249.7733	934.55	53.35
1054.3047	3250.6766	936.3	54.7
1054.4051	3251.5793	936.25	54.15
1054.5054	3252.4814	933.25	55.55
1054.6056	3253.3829	932.1	52.3
1054.7058	3254.2838	930.3	48.35
1054.806	3255.1841	932.6	51.7
1054.9061	3256.0838	930.8	47.6
1055.0061	3256.9829	929.55	50.55
1055.1062	3257.8814	932.05	47.1
1055.2061	3258.7792	930.2	46.85
1055.306	3259.6765	930.8	47.05
1055.4059	3260.5731	927.85	48.6
1055.5057	3261.4692	928.15	45.2
1055.6055	3262.3647	927.35	43.75
1055.7052	3263.2595	924.4	43
1055.8049	3264.1538	924.85	43.7
1055.9045	3265.0474	924.25	41
1056.0041	3265.9404	922.45	41.45
1056.1036	3266.8329	924.95	45.05
1056.2031	3267.7247	932.3	38.9
1056.3025	3268.616	922.6	42.95
1056.4019	3269.5066	923.5	42.5
1056.5013	3270.3966	920.65	37.35
1056.6005	3271.286	918.05	39.55
