Software Version:	3.9.2.0
Unit SN:	10000200
Spectrometer SN:	6960
Date:	3/14/2024 2:29:51 PM
Data Line Index:	25
Spectral Points:	2048
Integration time (ms):	125
Averages:	20
Delay (ms):	30000
Sequence Number:	1
Processing:	dark subtract
Laser Power (mW):	305
Laser Current (mA):	824
Laser Diode Temp (C):	25.1
Laser Case Temp (C):	29.3
System Temp (C):	29.3
Spectrometer Temp (C):	27
CCD Temp (C):	0.013
Secondary Temp (C):	20.011
Heatsink Temp (C):	25.126
CCDPCB Temp (C):	38.563
SecondaryPCB Temp (C):	36.196

Wavelength	RamanShift	Raw Counts	Dark Subtracted
787.061	30.1047	458.4	50.75
787.2016	32.3739	456.8	49.2
787.3422	34.6426	463.6	57.5
787.4828	36.9109	471.55	62.6
787.6235	39.1787	478.95	66.25
787.7642	41.4461	489.35	73.15
787.9049	43.7131	498.95	78.4
788.0456	45.9796	504.7	79.3
788.1863	48.2456	513.2	83.5
788.3271	50.5112	524.6	89.15
788.4679	52.7764	534.45	98.6
788.6087	55.0411	545.25	104.9
788.7496	57.3054	556.35	110.2
788.8904	59.5692	564.6	114.2
789.0313	61.8326	579.85	125.65
789.1722	64.0955	591.8	134.35
789.3132	66.3579	607.05	144.5
789.4541	68.6199	621.3	156.05
789.5951	70.8815	656.8	189.45
789.7361	73.1426	728.05	256.05
789.8771	75.4032	918.05	441.1
790.0181	77.6634	1382.55	898.65
790.1592	79.9231	2472.65	1987.05
790.3003	82.1824	4882.6	4388.1
790.4414	84.4412	9320.25	8809
790.5825	86.6995	15650	15122.85
790.7237	88.9574	22035.9	21490.7
790.8648	91.2148	26602.45	26044.7
791.006	93.4717	28834.95	28270.7
791.1472	95.7282	29471.5	28902.6
791.2885	97.9842	29489.15	28919.9
791.4297	100.2398	29042.1	28465.65
791.571	102.4949	28461.1	27882
791.7123	104.7495	27737.15	27151.7
791.8536	107.0036	26924.6	26342.65
791.9949	109.2573	26104.45	25524.75
792.1363	111.5105	25242.65	24659.95
792.2777	113.7632	24446.65	23860.85
792.4191	116.0154	23791.4	23195.1
792.5605	118.2672	23187.45	22596.5
792.7019	120.5185	22667.95	22076.75
792.8434	122.7693	22236.6	21644.45
792.9849	125.0197	21872.15	21275.85
793.1264	127.2696	21634.1	21035.7
793.2679	129.519	21486.9	20883.15
793.4094	131.7679	21280.35	20678.85
793.551	134.0163	21185.7	20576.25
793.6926	136.2642	21024.55	20410.95
793.8342	138.5117	20863.45	20242.3
793.9758	140.7587	20665.65	20050.05
794.1175	143.0052	20506.55	19886.9
794.2591	145.2512	20255.6	19638.95
794.4008	147.4967	20069.55	19449.95
794.5425	149.7417	19947.7	19327.1
794.6842	151.9863	19785.8	19163.85
794.826	154.2304	19743.1	19115.85
794.9677	156.4739	19613.3	18980.3
795.1095	158.717	19525.3	18890.15
795.2513	160.9596	19392.05	18753.25
795.3931	163.2017	19089.8	18450.2
795.535	165.4433	18824.4	18182.1
795.6768	167.6844	18446.75	17801.3
795.8187	169.925	18096.2	17446.85
795.9606	172.1651	17677.4	17026.6
796.1025	174.4047	17317.8	16665.8
796.2445	176.6439	17008.2	16355.6
796.3864	178.8825	16762.1	16103.1
796.5284	181.1206	16622.8	15960.45
796.6704	183.3582	16421.45	15751.95
796.8124	185.5954	16302.1	15630.4
796.9544	187.832	16168.8	15499.65
797.0965	190.0681	16125.35	15451.8
797.2386	192.3037	16076.7	15399.1
797.3806	194.5388	16087.75	15410.55
797.5228	196.7734	16082.25	15401.05
797.6649	199.0075	16157.75	15471.1
797.807	201.2411	16274.05	15585.15
797.9492	203.4742	16348.5	15660.65
798.0914	205.7068	16479.75	15792.05
798.2336	207.9389	16552.85	15862.35
798.3758	210.1704	16697.2	16004.15
798.518	212.4015	16832.25	16134.3
798.6603	214.632	17042.05	16345.3
798.8025	216.862	17204.35	16514.6
798.9448	219.0915	17384.55	16703.7
799.0871	221.3205	17637.25	16957.35
799.2294	223.549	17981.2	17307
799.3718	225.777	18334.05	17657.75
799.5141	228.0044	18798.1	18120.4
799.6565	230.2314	19355.65	18683.55
799.7989	232.4578	19901.9	19225.3
799.9413	234.6837	20368.2	19688
800.0837	236.909	20591.05	19907.5
800.2262	239.1339	20517.9	19811.5
800.3687	241.3582	20187.9	19495.15
800.5111	243.582	19747.3	19029
800.6536	245.8053	19297.25	18587.8
800.7961	248.0281	18819.45	18112.75
800.9387	250.2503	18485.7	17774.9
801.0812	252.472	18255.85	17540.4
801.2238	254.6932	18102.25	17382.4
801.3664	256.9139	17945	17222.85
801.509	259.134	17860.05	17134.35
801.6516	261.3536	17728.95	17010.25
801.7942	263.5727	17674.8	16950.5
801.9369	265.7912	17524.55	16800.3
802.0795	268.0092	17418.75	16695.25
802.2222	270.2267	17352.3	16626.1
802.3649	272.4436	17267.45	16543.25
802.5076	274.6601	17160.5	16427.45
802.6504	276.8759	17129.05	16398.9
802.7931	279.0913	17112.15	16383.7
802.9359	281.3061	17111.6	16380.05
803.0787	283.5204	17251.9	16514.4
803.2215	285.7341	17411.75	16675.7
803.3643	287.9473	17632.35	16884.3
803.5071	290.16	17903.2	17159.75
803.6499	292.3721	18281.3	17543.7
803.7928	294.5837	18791.05	18051.85
803.9357	296.7947	19199.7	18460.65
804.0786	299.0052	19380.95	18641.75
804.2215	301.2152	19220.55	18478.8
804.3644	303.4246	18731.55	17993.55
804.5074	305.6334	18108.4	17371.45
804.6503	307.8418	17487.2	16743.2
804.7933	310.0495	17043	16299.3
804.9363	312.2568	16716.55	15974.9
805.0793	314.4635	16527.85	15782.8
805.2223	316.6696	16469.15	15719.6
805.3653	318.8752	16429.65	15672.3
805.5084	321.0802	16532.05	15785.2
805.6514	323.2847	16630.35	15880.65
805.7945	325.4887	16665.85	15914.65
805.9376	327.692	16649.75	15897.6
806.0807	329.8949	16486.05	15732.7
806.2238	332.0972	16167.95	15413
806.367	334.2989	15864.2	15107.1
806.5101	336.5001	15572.1	14813.55
806.6533	338.7007	15339.8	14582.65
806.7965	340.9008	15226.75	14466.15
806.9397	343.1003	15098.6	14336.6
807.0829	345.2992	15011.5	14250.45
807.2261	347.4976	14992.95	14229.95
807.3693	349.6955	14966.75	14198.3
807.5126	351.8927	15052.65	14283
807.6559	354.0895	15032.1	14251.35
807.7991	356.2856	15056.4	14287.55
807.9424	358.4812	15034.35	14264.4
808.0857	360.6763	15026.1	14257
808.2291	362.8707	15032.8	14261.9
808.3724	365.0646	15026.5	14252.95
808.5158	367.258	15023.15	14247.9
808.6591	369.4508	15016.25	14235.65
808.8025	371.643	15107.9	14328.2
808.9459	373.8346	15041.45	14259.1
809.0893	376.0257	14996.3	14212.25
809.2327	378.2162	14877.85	14091.6
809.3762	380.4062	14745.6	13956.5
809.5196	382.5956	14574.1	13785.4
809.6631	384.7844	14466.8	13678.85
809.8066	386.9726	14353.15	13561.45
809.9501	389.1603	14261.75	13476.9
810.0936	391.3474	14285	13447.95
810.2371	393.5339	14222.3	13433.3
810.3806	395.7199	14150.9	13373.25
810.5241	397.9052	14127.6	13349.35
810.6677	400.09	14130.3	13352.15
810.8113	402.2743	14162.75	13385.65
810.9548	404.4579	14237.45	13461.2
811.0984	406.641	14390.55	13612.5
811.2421	408.8235	14615.45	13834.75
811.3857	411.0054	14969	14187.4
811.5293	413.1868	15497.45	14714.4
811.673	415.3675	15899.7	15114.1
811.8166	417.5477	16127.2	15342.65
811.9603	419.7273	16167.4	15378.95
812.104	421.9064	16047.4	15248.9
812.2477	424.0848	15901.4	15107.9
812.3914	426.2627	15630.1	14834.65
812.5351	428.4399	15310.35	14511.9
812.6788	430.6166	14905.9	14107.1
812.8226	432.7928	14483.5	13682.35
812.9663	434.9683	14133.2	13334.4
813.1101	437.1432	13856.55	13052.45
813.2539	439.3176	13709.55	12906.45
813.3977	441.4914	13595.75	12790.35
813.5415	443.6645	13557	12748.55
813.6853	445.8371	13463	12656.5
813.8291	448.0091	13378.1	12572.3
813.973	450.1806	13343.7	12539.75
814.1168	452.3514	13256.45	12450.6
814.2607	454.5216	13238.4	12419.9
814.4046	456.6913	13170.65	12360.9
814.5485	458.8603	13187.2	12378.95
814.6924	461.0288	13243.8	12438.05
814.8363	463.1967	13260.9	12455.1
814.9802	465.3639	13404.4	12590.55
815.1241	467.5306	13548.65	12738.35
815.2681	469.6967	13724.95	12915.45
815.412	471.8622	13948.95	13138.45
815.556	474.0271	14089.85	13281
815.7	476.1914	14149.75	13336.9
815.844	478.3551	14116.75	13308.5
815.988	480.5182	14036.5	13224.5
816.132	482.6807	14004.45	13189.35
816.276	484.8426	14042.45	13230.75
816.4201	487.0039	14290.55	13474.05
816.5641	489.1647	14719.8	13904.7
816.7082	491.3248	15178.05	14364.7
816.8522	493.4843	15405.85	14591.55
816.9963	495.6432	15444.65	14631.45
817.1404	497.8015	15328.65	14510.2
817.2845	499.9592	15346.3	14531.8
817.4286	502.1163	15336.95	14519.8
817.5727	504.2728	15127.8	14308.1
817.7168	506.4287	14788.05	13970.4
817.861	508.5839	14298.7	13478.9
818.0051	510.7386	13906.7	13088.55
818.1493	512.8927	13642.45	12818.8
818.2935	515.0461	13443.45	12623.65
818.4377	517.199	13324.05	12505
818.5818	519.3512	13258.55	12438.9
818.726	521.5029	13210.1	12382.3
818.8703	523.6539	13223.55	12400.7
819.0145	525.8043	13234.4	12409.75
819.1587	527.9541	13272.05	12445.2
819.303	530.1033	13308.35	12483.05
819.4472	532.2519	13403.85	12580.3
819.5915	534.3999	13578.75	12751.45
819.7357	536.5472	13929.85	13101.6
819.88	538.694	14497	13670.2
820.0243	540.8401	15193	14364.75
820.1686	542.9856	15791.3	14964.1
820.3129	545.1305	15982	15154.9
820.4572	547.2748	15813.6	14982.95
820.6016	549.4185	15340.05	14509.45
820.7459	551.5615	14894.55	14062.85
820.8902	553.704	14621.65	13790.45
821.0346	555.8458	14506.3	13675.9
821.1789	557.987	14449.9	13620.9
821.3233	560.1276	14293.25	13461
821.4677	562.2675	14153.1	13323.75
821.6121	564.4069	14026.1	13196.45
821.7565	566.5456	13867.9	13039.45
821.9009	568.6837	13708.9	12878.85
822.0453	570.8212	13431.65	12605.25
822.1897	572.958	13198	12367.65
822.3342	575.0942	13016.1	12186.05
822.4786	577.2299	12934.25	12102.45
822.6231	579.3648	12924.65	12092.6
822.7675	581.4992	13036.2	12206.4
822.912	583.6329	13270.85	12442.15
823.0565	585.766	13543.5	12709.6
823.201	587.8985	13682.15	12850.4
823.3454	590.0304	13695.05	12838.1
823.4899	592.1616	13635	12800.4
823.6345	594.2922	13470.95	12636.1
823.779	596.4222	13331.3	12496.85
823.9235	598.5515	13117.35	12281.55
824.068	600.6802	12962.5	12128.9
824.2126	602.8083	12778.35	11942.6
824.3571	604.9358	12686.65	11849.75
824.5017	607.0626	12548.8	11712.15
824.6462	609.1888	12445	11606.25
824.7908	611.3144	12290.3	11451.4
824.9354	613.4393	12120.75	11282
825.08	615.5636	11942	11104.8
825.2246	617.6873	11835.9	10995.4
825.3692	619.8103	11748.75	10908.1
825.5138	621.9327	11684.35	10840.5
825.6584	624.0544	11665.05	10825.2
825.803	626.1756	11646.2	10805.9
825.9477	628.2961	11654.8	10814.15
826.0923	630.4159	11596.4	10755.8
826.237	632.5351	11565.1	10726.8
826.3816	634.6537	11450.75	10609.35
826.5263	636.7716	11421.8	10583
826.6709	638.8889	11391.2	10549.35
826.8156	641.0056	11412.7	10568.3
826.9603	643.1216	11356.3	10514.3
827.105	645.237	11400.65	10553.95
827.2497	647.3518	11390.75	10549.15
827.3944	649.4659	11408.05	10565.45
827.5391	651.5793	11433.25	10589.85
827.6838	653.6922	11393.9	10551.6
827.8285	655.8043	11363.5	10520.25
827.9733	657.9159	11319.85	10475.1
828.118	660.0268	11233	10385.3
828.2627	662.137	11139.3	10291.05
828.4075	664.2466	11107.3	10260.6
828.5522	666.3556	11062.3	10215.15
828.697	668.4639	11060.7	10212.15
828.8418	670.5716	11088.25	10240.75
828.9865	672.6786	11195.45	10349.15
829.1313	674.785	11254.4	10406.5
829.2761	676.8907	11343	10492.95
829.4209	678.9958	11409.85	10562.7
829.5657	681.1002	11398.05	10548.7
829.7105	683.204	11373.8	10523.65
829.8553	685.3072	11281.5	10431.35
830.0001	687.4097	11194.3	10344.25
830.1449	689.5115	11108.6	10258.25
830.2898	691.6127	11040.65	10191.2
830.4346	693.7132	10925.2	10075.3
830.5794	695.8131	10872.3	9998.7
830.7243	697.9123	10788.9	9936.3
830.8691	700.0109	10730.15	9879.55
831.014	702.1089	10714.45	9864.9
831.1588	704.2061	10714.6	9866.6
831.3037	706.3028	10719.3	9866.15
831.4486	708.3987	10772.1	9920.05
831.5935	710.4941	10854.75	10003.7
831.7383	712.5887	11094.65	10242.65
831.8832	714.6827	11420	10567.55
832.0281	716.7761	11822.9	10970.05
832.173	718.8688	12236.7	11385.15
832.3179	720.9608	12451.55	11595.05
832.4628	723.0522	12444.45	11588
832.6077	725.1429	12164.2	11311.15
832.7527	727.233	11727.45	10873.65
832.8976	729.3224	11337.5	10485.1
833.0425	731.4112	10962.15	10105.25
833.1874	733.4993	10731.75	9876.9
833.3324	735.5867	10556.15	9699.65
833.4773	737.6735	10499.55	9643.25
833.6222	739.7596	10443.05	9583.35
833.7672	741.845	10389.55	9532.6
833.9122	743.9298	10396.25	9538.6
834.0571	746.014	10410.35	9555.25
834.2021	748.0974	10393.95	9538.25
834.347	750.1802	10382.9	9527.4
834.492	752.2624	10399.3	9545.1
834.637	754.3439	10379.8	9524.3
834.782	756.4247	10448.7	9580.2
834.9269	758.5048	10525.7	9669
835.0719	760.5843	10711.05	9854.25
835.2169	762.6631	10983.1	10126.35
835.3619	764.7413	11429.1	10571.45
835.5069	766.8188	12002.7	11144.5
835.6519	768.8956	12465.5	11604.6
835.7969	770.9718	12793.55	11933.55
835.9419	773.0473	12641.1	11781.85
836.0869	775.1221	12300.1	11442
836.232	777.1962	11907.5	11049.15
836.377	779.2697	11686.65	10825.2
836.522	781.3426	11794	10918.4
836.667	783.4147	12069.25	11209.8
836.8121	785.4862	12425.3	11566.6
836.9571	787.557	12446	11586.85
837.1021	789.6271	12068.05	11206.75
837.2472	791.6966	11453.5	10593.1
837.3922	793.7654	10910.25	10049.45
837.5373	795.8335	10561.8	9701.9
837.6823	797.901	10373.65	9514.75
837.8274	799.9678	10314.15	9450.85
837.9724	802.0339	10327.65	9468.15
838.1175	804.0993	10380.55	9509.7
838.2626	806.1641	10371.85	9510
838.4076	808.2282	10323.8	9463.5
838.5527	810.2916	10207.6	9341.5
838.6978	812.3544	10081.05	9220.8
838.8428	814.4164	9976.55	9115.3
838.9879	816.4778	9969.7	9109.35
839.133	818.5385	9907.55	9046.7
839.2781	820.5986	9955.55	9093.2
839.4232	822.658	9985.2	9122
839.5682	824.7166	10014.45	9153.25
839.7133	826.7747	10130.6	9270.1
839.8584	828.832	10268.3	9407.6
840.0035	830.8886	10374.35	9509.3
840.1486	832.9446	10511.5	9647.1
840.2937	834.9999	10606.35	9745.4
840.4388	837.0545	10658.3	9791.4
840.5839	839.1085	10737.6	9872.35
840.729	841.1618	10757.75	9888.75
840.8741	843.2143	10733	9871.95
841.0192	845.2662	10664.85	9801
841.1643	847.3175	10606.55	9742.65
841.3095	849.368	10503.35	9640.25
841.4546	851.4179	10364.2	9502.4
841.5997	853.467	10207.75	9343.55
841.7448	855.5155	10071.35	9206.5
841.8899	857.5633	9944.75	9080.1
842.0351	859.6105	9804.35	8940.95
842.1802	861.6569	9709.15	8845.7
842.3253	863.7027	9640.3	8775.4
842.4704	865.7478	9636.8	8770.6
842.6156	867.7922	9640.1	8775.35
842.7607	869.8359	9706.95	8842.85
842.9058	871.8789	9814.5	8948.5
843.0509	873.9212	10021.95	9122.15
843.1961	875.9629	10210.75	9345.7
843.3412	878.0039	10384.85	9515.7
843.4863	880.0441	10472.9	9608.7
843.6315	882.0837	10454.4	9588.2
843.7766	884.1226	10321.35	9454.3
843.9218	886.1609	10119.1	9253.4
844.0669	888.1984	9973.5	9109.2
844.212	890.2352	9879.8	9016.05
844.3572	892.2714	9819	8947.75
844.5023	894.3069	9769.4	8902.3
844.6475	896.3416	9705.15	8837.55
844.7926	898.3757	9667.7	8800.5
844.9377	900.4091	9670.4	8802.25
845.0829	902.4418	9700.25	8829.7
845.228	904.4739	9693.55	8825.85
845.3732	906.5052	9644.15	8776.3
845.5183	908.5358	9519.55	8652.1
845.6635	910.5658	9370.85	8504.35
845.8086	912.595	9208.6	8342.8
845.9538	914.6236	9053.4	8184.9
846.0989	916.6515	9019.7	8151.85
846.2441	918.6786	9040.55	8170.85
846.3892	920.7051	9096.7	8226.9
846.5344	922.7309	9230.65	8365.3
846.6795	924.756	9277.85	8407.05
846.8246	926.7804	9382.3	8511.9
846.9698	928.8041	9345.3	8474.4
847.1149	930.8272	9353	8486.1
847.2601	932.8495	9275.5	8402.45
847.4052	934.8711	9189.7	8319.9
847.5504	936.892	9023.3	8155.15
847.6955	938.9123	8824.7	7951.8
847.8407	940.9318	8659.8	7790.5
847.9858	942.9506	8529.2	7658.6
848.131	944.9688	8440.2	7570.95
848.2761	946.9862	8390.65	7520.6
848.4213	949.003	8352.95	7482
848.5664	951.019	8347.7	7478.85
848.7115	953.0344	8384	7515.05
848.8567	955.0491	8433.65	7561.9
849.0018	957.063	8508.2	7636.3
849.147	959.0763	8600.45	7729.55
849.2921	961.0888	8635.7	7763.55
849.4373	963.1007	8716.3	7846
849.5824	965.1119	8766.05	7896.45
849.7275	967.1223	8785.1	7916.05
849.8727	969.1321	8813.25	7943.15
850.0178	971.1412	8846.2	7975.45
850.1629	973.1495	8867.1	7998.2
850.3081	975.1572	8932.35	8025.6
850.4532	977.1641	8917.6	8047.5
850.5983	979.1704	8915.95	8044.2
850.7435	981.1759	8889.3	8016.2
850.8886	983.1808	8959.8	8087.6
851.0337	985.1849	9091.95	8210.6
851.1788	987.1884	9267.2	8393.45
851.324	989.1911	9467.95	8593.35
851.4691	991.1932	9612.45	8738.85
851.6142	993.1945	9662.65	8790.9
851.7593	995.1951	9615.25	8743.7
851.9045	997.1951	9580.45	8703.3
852.0496	999.1943	9468.45	8593.55
852.1947	1001.1928	9425.2	8554.1
852.3398	1003.1906	9392.25	8520.9
852.4849	1005.1877	9420.65	8546.2
852.63	1007.1841	9379.4	8507.55
852.7751	1009.1798	9285.7	8414.6
852.9202	1011.1748	9065.4	8194.8
853.0653	1013.1691	8845.55	7971.35
853.2104	1015.1627	8615.35	7742.35
853.3555	1017.1556	8443.7	7571.7
853.5006	1019.1477	8346.05	7470.8
853.6457	1021.1392	8284.45	7414.95
853.7908	1023.1299	8292.6	7418.25
853.9359	1025.12	8315.05	7440.3
854.081	1027.1093	8370.8	7498.4
854.2261	1029.0979	8435.65	7563.3
854.3712	1031.0859	8496.1	7624.35
854.5163	1033.0731	8487.9	7614.15
854.6613	1035.0596	8396.95	7522.7
854.8064	1037.0454	8220.7	7348.55
854.9515	1039.0304	8116.45	7241.3
855.0965	1041.0148	8018.9	7145.8
855.2416	1042.9985	7905.25	7031.1
855.3867	1044.9814	7876.7	7005.05
855.5317	1046.9636	7808.6	6933.6
855.6768	1048.9452	7795.45	6922.55
855.8219	1050.926	7787.05	6915.5
855.9669	1052.9061	7778.8	6905.6
856.112	1054.8855	7760.2	6886.7
856.257	1056.8642	7797.5	6924.95
856.4021	1058.8421	7829.05	6952.6
856.5471	1060.8194	7853.35	6980.4
856.6921	1062.7959	7862.4	6988.45
856.8372	1064.7717	7881.3	7006.9
856.9822	1066.7469	7868.65	6993.75
857.1272	1068.7213	7834.8	6959.05
857.2723	1070.695	7793.55	6920.4
857.4173	1072.6679	7726.7	6852.85
857.5623	1074.6402	7664.7	6791.25
857.7073	1076.6117	7665.5	6786.25
857.8523	1078.5826	7679.95	6802.8
857.9973	1080.5527	7751.1	6873.6
858.1423	1082.5221	7915.9	7043.9
858.2873	1084.4908	8168.8	7292.65
858.4323	1086.4587	8405.95	7530.05
858.5773	1088.426	8553	7678.45
858.7223	1090.3925	8543.75	7665.1
858.8673	1092.3584	8450.3	7576.95
859.0123	1094.3235	8282.75	7407.3
859.1573	1096.2879	8183.85	7308.2
859.3022	1098.2515	8126.8	7251.55
859.4472	1100.2145	8131.45	7256.95
859.5922	1102.1767	8208.65	7331.75
859.7371	1104.1382	8345.5	7470.9
859.8821	1106.099	8531.35	7652.75
860.027	1108.0591	8773.8	7898.8
860.172	1110.0185	8917.1	8040.5
860.3169	1111.9771	8915.8	8041.65
860.4619	1113.9351	8671.2	7796.05
860.6068	1115.8923	8301	7425.9
860.7517	1117.8488	7958.45	7080.9
860.8967	1119.8045	7640.45	6763.5
861.0416	1121.7596	7494.8	6619.7
861.1865	1123.7139	7430.95	6556.75
861.3314	1125.6675	7456.95	6581.5
861.4763	1127.6204	7465.2	6588.6
861.6212	1129.5726	7508.8	6631.6
861.7661	1131.524	7575.35	6701
861.911	1133.4748	7606.4	6730.85
862.0559	1135.4248	7667.5	6790.9
862.2008	1137.3741	7689.95	6814.4
862.3457	1139.3226	7659.5	6781.25
862.4905	1141.2705	7620.9	6744.9
862.6354	1143.2176	7556	6675.5
862.7803	1145.164	7594.4	6715.9
862.9251	1147.1097	7618.85	6742.65
863.07	1149.0546	7575.45	6699.1
863.2148	1150.9989	7479.35	6600.75
863.3597	1152.9424	7290.85	6414.95
863.5045	1154.8852	7082.3	6205.65
863.6493	1156.8272	6924.35	6049.35
863.7942	1158.7686	6858.75	5976.1
863.939	1160.7092	6823.4	5946.2
864.0838	1162.6491	6810.4	5931.5
864.2286	1164.5883	6868.95	5994.55
864.3734	1166.5267	6970.9	6094.05
864.5182	1168.4644	7100.75	6223.2
864.663	1170.4014	7286.55	6407.15
864.8078	1172.3377	7541.6	6667.85
864.9526	1174.2732	7724.35	6848.7
865.0974	1176.2081	7920.3	7046.15
865.2421	1178.1421	8088.85	7209.7
865.3869	1180.0755	8228.25	7352.95
865.5317	1182.0082	8241.3	7364.95
865.6764	1183.9401	8153.85	7275.25
865.8212	1185.8713	7934	7057.25
865.9659	1187.8017	7661.9	6786
866.1106	1189.7315	7407.05	6529.25
866.2554	1191.6605	7170.65	6266.1
866.4001	1193.5888	6956.5	6077.75
866.5448	1195.5163	6808.5	5932
866.6895	1197.4432	6710.65	5834.55
866.8342	1199.3693	6645.05	5768.65
866.9789	1201.2947	6637.65	5756.7
867.1236	1203.2193	6608.5	5730.3
867.2683	1205.1432	6631	5751
867.413	1207.0664	6677.65	5800.15
867.5576	1208.9889	6775.05	5895.65
867.7023	1210.9106	6853.05	5974.6
867.847	1212.8316	6939.7	6063.9
867.9916	1214.7519	7030.75	6144.9
868.1363	1216.6715	7028.3	6150
868.2809	1218.5903	7028.75	6150.75
868.4255	1220.5084	6969.75	6092.3
868.5701	1222.4257	6934.25	6058.55
868.7148	1224.3424	6898.65	6022.8
868.8594	1226.2583	6951.2	6066.6
869.004	1228.1735	7028.65	6147.85
869.1486	1230.0879	7190.8	6313.35
869.2932	1232.0016	7318.55	6442.05
869.4377	1233.9146	7341.85	6462.45
869.5823	1235.8269	7243.25	6364.85
869.7269	1237.7384	7114.8	6236.7
869.8715	1239.6492	6924.55	6048.3
870.016	1241.5592	6813.55	5933.75
870.1606	1243.4686	6742.65	5865.05
870.3051	1245.3772	6653.55	5775.6
870.4496	1247.285	6595.6	5717.95
870.5941	1249.1922	6537.15	5658.85
870.7387	1251.0986	6550.15	5675
870.8832	1253.0042	6567.95	5689.1
871.0277	1254.9092	6624	5747.5
871.1722	1256.8134	6735.85	5859
871.3167	1258.7169	6880.5	6001.45
871.4611	1260.6196	7039.15	6162.5
871.6056	1262.5216	7200.6	6320.35
871.7501	1264.4229	7358.75	6482.9
871.8945	1266.3234	7439.9	6562.9
872.039	1268.2232	7504.55	6625.6
872.1834	1270.1223	7478.3	6598.5
872.3278	1272.0207	7426.1	6546.05
872.4723	1273.9183	7404.05	6521.3
872.6167	1275.8151	7333.65	6458.35
872.7611	1277.7113	7224.15	6343
872.9055	1279.6067	7064.35	6185.15
873.0499	1281.5014	6899.9	6018.4
873.1943	1283.3953	6747.95	5867.1
873.3386	1285.2885	6639.4	5761.15
873.483	1287.181	6592.95	5713.05
873.6274	1289.0727	6574.1	5696.25
873.7717	1290.9637	6616.2	5738.6
873.9161	1292.854	6745.8	5869.4
874.0604	1294.7435	6901.1	6022
874.2047	1296.6323	7134.7	6255.35
874.349	1298.5204	7395.9	6516
874.4933	1300.4077	7659.85	6779.05
874.6376	1302.2943	7858.3	6978.3
874.7819	1304.1802	7946.1	7069.75
874.9262	1306.0653	7904.1	7023.05
875.0705	1307.9497	7771.95	6893.55
875.2147	1309.8333	7687.75	6810.65
875.359	1311.7162	7674.55	6794.8
875.5032	1313.5984	7785.95	6904.25
875.6475	1315.4798	7949.45	7058.4
875.7917	1317.3605	8134.25	7239.15
875.9359	1319.2405	8287.75	7407.35
876.0801	1321.1197	8319.2	7437.25
876.2243	1322.9982	8287.8	7403.6
876.3685	1324.876	8276.55	7397.3
876.5127	1326.753	8256.4	7378.1
876.6569	1328.6293	8287.8	7407.65
876.801	1330.5048	8290.2	7408.35
876.9452	1332.3796	8266.95	7387.75
877.0893	1334.2537	8248.5	7340.95
877.2335	1336.127	8196	7315
877.3776	1337.9996	8124.6	7246.85
877.5217	1339.8714	8081.4	7202.95
877.6658	1341.7426	8035.45	7112.25
877.8099	1343.6129	7957.45	7078.35
877.954	1345.4826	7881.8	7000.5
878.0981	1347.3515	7825.8	6942.65
878.2422	1349.2196	7781.55	6904.05
878.3862	1351.087	7790.45	6910.6
878.5303	1352.9537	7823.95	6943.75
878.6743	1354.8197	7929.45	7050.95
878.8184	1356.6849	8100.4	7221.35
878.9624	1358.5493	8173.65	7290.8
879.1064	1360.4131	8167.85	7289.5
879.2504	1362.276	8094.05	7212.1
879.3944	1364.1383	7893.95	7016.9
879.5384	1365.9998	7678.5	6792.5
879.6823	1367.8606	7406.55	6527.7
879.8263	1369.7206	7180.45	6299
879.9702	1371.5799	7002	6119.6
880.1142	1373.4384	6889.25	6009.4
880.2581	1375.2962	6772.05	5891.85
880.402	1377.1533	6537.2	5656.35
880.5459	1379.0096	6247.75	5366.2
880.6898	1380.8652	5977.5	5097.6
880.8337	1382.7201	5756.4	4876.5
880.9776	1384.5742	5577	4697.35
881.1215	1386.4275	5446.85	4566.55
881.2653	1388.2802	5344.2	4464.8
881.4092	1390.132	5253.8	4374.05
881.553	1391.9832	5188.05	4305.85
881.6968	1393.8336	5116.7	4238.55
881.8406	1395.6832	5090.3	4207.6
881.9844	1397.5322	5057.55	4179.35
882.1282	1399.3803	5060.6	4175.3
882.272	1401.2278	5030.95	4150.75
882.4158	1403.0745	5024.9	4144.85
882.5595	1404.9204	5022.1	4140
882.7033	1406.7656	5045.35	4166.15
882.847	1408.6101	5043.25	4165.1
882.9908	1410.4538	5078.65	4200
883.1345	1412.2968	5138.5	4259.2
883.2782	1414.139	5180.85	4301.85
883.4219	1415.9805	5264.85	4383.75
883.5656	1417.8213	5358.45	4472.25
883.7092	1419.6613	5494.55	4614.65
883.8529	1421.5006	5704.4	4822.3
883.9965	1423.3391	6001.5	5119.85
884.1402	1425.1769	6387.05	5506.65
884.2838	1427.0139	6893.05	6010.3
884.4274	1428.8502	7549.65	6670.35
884.571	1430.6858	8174.15	7293.65
884.7146	1432.5206	8625.35	7744.65
884.8582	1434.3547	8861	7981.4
885.0018	1436.188	8917.45	8036.95
885.1453	1438.0206	8831.55	7949.15
885.2889	1439.8524	8693.4	7814.25
885.4324	1441.6835	8600.5	7718.25
885.5759	1443.5139	8500.4	7617.75
885.7194	1445.3435	8430.7	7549.75
885.8629	1447.1724	8378.3	7498.85
886.0064	1449.0005	8330.8	7452.25
886.1499	1450.8279	8240.2	7358.05
886.2933	1452.6545	8187.15	7308.45
886.4368	1454.4804	8216.95	7336.9
886.5802	1456.3056	8204.8	7318.75
886.7237	1458.13	8096.8	7217.85
886.8671	1459.9536	7840.9	6960.85
887.0105	1461.7766	7457.25	6577.25
887.1539	1463.5987	7054.7	6174.25
887.2972	1465.4202	6649.25	5767.4
887.4406	1467.2409	6289.6	5411.05
887.584	1469.0608	5989.5	5108.5
887.7273	1470.88	5732.9	4851.2
887.8706	1472.6984	5528.65	4648.85
888.0139	1474.5161	5324.05	4441.75
888.1572	1476.3331	5174	4296.85
888.3005	1478.1493	5036.35	4154.7
888.4438	1479.9648	4950.3	4068.7
888.5871	1481.7795	4859.8	3980.15
888.7303	1483.5935	4773.35	3892.15
888.8736	1485.4067	4722.4	3844.65
889.0168	1487.2192	4678.25	3798.35
889.16	1489.031	4627.3	3745
889.3032	1490.842	4589.35	3711.55
889.4464	1492.6522	4568.25	3686.55
889.5896	1494.4618	4524.55	3642.1
889.7327	1496.2705	4504.6	3624.35
889.8759	1498.0785	4470.05	3589.35
890.019	1499.8858	4458.75	3578.95
890.1622	1501.6924	4448.15	3568.45
890.3053	1503.4981	4441.95	3560.3
890.4484	1505.3032	4428.55	3548.15
890.5914	1507.1075	4390.65	3510.35
890.7345	1508.911	4369.4	3491.7
890.8776	1510.7138	4336.05	3454.95
891.0206	1512.5159	4315.6	3437.25
891.1637	1514.3172	4274.45	3394.9
891.3067	1516.1178	4258	3377.85
891.4497	1517.9176	4229.95	3347
891.5927	1519.7166	4200.95	3321.2
891.7357	1521.515	4187.05	3299.6
891.8786	1523.3126	4169.5	3288.05
892.0216	1525.1094	4152.45	3269.4
892.1645	1526.9055	4125.15	3247.6
892.3074	1528.7008	4108.5	3228.7
892.4503	1530.4954	4094.1	3209.3
892.5932	1532.2893	4096.5	3219.2
892.7361	1534.0824	4072	3189.05
892.879	1535.8747	4067.6	3186.9
893.0218	1537.6663	4044	3161.5
893.1647	1539.4572	4039.55	3157.1
893.3075	1541.2473	4059.75	3178.35
893.4503	1543.0367	4034.85	3154.15
893.5931	1544.8253	4048	3162.05
893.7359	1546.6132	4041.85	3158.6
893.8787	1548.4003	4048.75	3157.25
894.0214	1550.1867	4071.45	3178.7
894.1642	1551.9723	4077	3191.7
894.3069	1553.7572	4112.65	3230
894.4496	1555.5414	4128.45	3247.15
894.5923	1557.3247	4156.75	3275.75
894.735	1559.1074	4195.95	3318.85
894.8777	1560.8893	4248.2	3368.8
895.0204	1562.6705	4300.25	3419.4
895.163	1564.4509	4375.4	3494.9
895.3056	1566.2305	4451.25	3571.9
895.4482	1568.0094	4563.05	3683.3
895.5908	1569.7876	4643.25	3763.15
895.7334	1571.565	4708.35	3828.3
895.876	1573.3417	4766.75	3888.6
896.0186	1575.1176	4773.5	3893.45
896.1611	1576.8928	4734.35	3854.45
896.3036	1578.6672	4664.6	3783.95
896.4461	1580.4409	4557	3678.55
896.5886	1582.2138	4442.1	3559.85
896.7311	1583.986	4306.1	3423.5
896.8736	1585.7575	4218.05	3337.7
897.0161	1587.5282	4141.45	3262.65
897.1585	1589.2981	4087.4	3206
897.3009	1591.0673	4034.1	3151.05
897.4433	1592.8358	4013.85	3133.3
897.5857	1594.6035	4005.8	3122.9
897.7281	1596.3704	3996.5	3115.55
897.8705	1598.1366	4020.9	3139.05
898.0128	1599.9021	4037.9	3157.9
898.1551	1601.6668	4063.75	3180.9
898.2975	1603.4308	4124.85	3245.15
898.4398	1605.194	4180.95	3295.8
898.5821	1606.9564	4274.45	3394.75
898.7243	1608.7182	4368.15	3484.6
898.8666	1610.4791	4506.65	3625.25
899.0088	1612.2394	4659.75	3778.45
899.1511	1613.9988	4842.05	3960.6
899.2933	1615.7576	5082.45	4201.5
899.4355	1617.5156	5322.95	4437.55
899.5776	1619.2728	5565.8	4684.55
899.7198	1621.0293	5745.1	4865.65
899.862	1622.785	5826.75	4940.55
900.0041	1624.54	5766.9	4884.85
900.1462	1626.2942	5621.15	4741.2
900.2883	1628.0477	5375.65	4493
900.4304	1629.8005	5146.25	4262.25
900.5725	1631.5525	4885.4	4003.05
900.7145	1633.3037	4706.35	3826.1
900.8566	1635.0542	4519.9	3641.15
900.9986	1636.804	4386	3505.5
901.1406	1638.553	4369.75	3411.05
901.2826	1640.3013	4258.4	3379.05
901.4245	1642.0488	4217.6	3336
901.5665	1643.7955	4212.45	3332.65
901.7085	1645.5416	4234.35	3352.7
901.8504	1647.2868	4270.15	3392.75
901.9923	1649.0313	4365.2	3484.8
902.1342	1650.7751	4493.45	3610.55
902.2761	1652.5181	4706.95	3827.25
902.4179	1654.2604	4948.7	4068
902.5598	1656.0019	5279.85	4401.1
902.7016	1657.7427	5647.15	4768.45
902.8434	1659.4828	5990.4	5110.2
902.9852	1661.222	6235.55	5356.5
903.127	1662.9606	6275.55	5394.3
903.2687	1664.6984	6109.9	5229.45
903.4105	1666.4354	5756.9	4877.35
903.5522	1668.1717	5301.7	4421.6
903.6939	1669.9072	4865.8	3986.85
903.8356	1671.642	4510.2	3628.55
903.9773	1673.3761	4209.85	3332.2
904.119	1675.1094	3984.85	3106.1
904.2606	1676.8419	3827.2	2947.7
904.4022	1678.5737	3692.25	2812.6
904.5439	1680.3048	3594.8	2714.65
904.6855	1682.0351	3530.8	2651.7
904.827	1683.7646	3471.1	2588.3
904.9686	1685.4934	3432.45	2554.65
905.1101	1687.2215	3398.5	2518.7
905.2517	1688.9488	3361.9	2480.05
905.3932	1690.6754	3337.6	2459.3
905.5347	1692.4012	3322.45	2443.15
905.6761	1694.1263	3293.15	2411.65
905.8176	1695.8506	3273.4	2393.85
905.9591	1697.5742	3275.4	2395.45
906.1005	1699.297	3237.4	2357.6
906.2419	1701.0191	3227.7	2347.85
906.3833	1702.7404	3198.55	2321.25
906.5246	1704.461	3178.15	2298.7
906.666	1706.1808	3169.85	2288.9
906.8073	1707.8999	3147.1	2265.9
906.9487	1709.6182	3134.5	2253.6
907.09	1711.3358	3118.85	2238.3
907.2313	1713.0527	3118.4	2239.75
907.3725	1714.7688	3100.45	2214.2
907.5138	1716.4841	3094.75	2213.55
907.655	1718.1987	3076.25	2191.55
907.7962	1719.9126	3068.2	2189.1
907.9374	1721.6257	3048.65	2165.6
908.0786	1723.338	3049.25	2166.95
908.2198	1725.0496	3031.5	2152.25
908.3609	1726.7605	3025.35	2145.7
908.502	1728.4706	3005.9	2124.75
908.6431	1730.18	3000.75	2118.3
908.7842	1731.8886	2978.45	2098.95
908.9253	1733.5964	2992.9	2108.85
909.0664	1735.3036	2993.2	2110.55
909.2074	1737.0099	2971.8	2090.55
909.3484	1738.7156	2968.85	2089.7
909.4894	1740.4204	2950.8	2068.1
909.6304	1742.1246	2948.95	2068
909.7714	1743.8279	2952.55	2072.05
909.9123	1745.5306	2939.2	2057.65
910.0532	1747.2325	2927.05	2046.55
910.1941	1748.9336	2904.6	2023.2
910.335	1750.634	2902.45	2018.85
910.4759	1752.3336	2903	2024.05
910.6168	1754.0325	2893.75	2013.1
910.7576	1755.7307	2884.8	2006.45
910.8984	1757.4281	2879.25	1999.05
911.0392	1759.1247	2898.35	2010.25
911.18	1760.8206	2891.75	2007.3
911.3208	1762.5158	2861.75	1978.7
911.4615	1764.2102	2862.3	1983.4
911.6022	1765.9039	2847.2	1966.05
911.7429	1767.5968	2853.5	1972.65
911.8836	1769.289	2840.55	1962.35
912.0243	1770.9804	2828.8	1948.45
912.1649	1772.6711	2833.4	1953.2
912.3056	1774.361	2825.05	1944.55
912.4462	1776.0502	2832.8	1952.65
912.5868	1777.7386	2817.35	1935.35
912.7274	1779.4263	2812.5	1932.65
912.8679	1781.1132	2799.25	1920.55
913.0084	1782.7994	2799.15	1915.65
913.149	1784.4849	2784.8	1904.3
913.2895	1786.1696	2797.4	1898.8
913.4299	1787.8535	2775.55	1896.5
913.5704	1789.5367	2771.1	1889.5
913.7108	1791.2192	2767.1	1888.2
913.8513	1792.9009	2791	1881.6
913.9917	1794.5818	2767.3	1887.55
914.132	1796.2621	2767.4	1885.6
914.2724	1797.9415	2751.1	1871.75
914.4128	1799.6202	2748.45	1869.3
914.5531	1801.2982	2752.25	1874
914.6934	1802.9755	2749.95	1871.4
914.8337	1804.6519	2731.95	1851.95
914.9739	1806.3277	2726.05	1848
915.1142	1808.0027	2713.05	1833.05
915.2544	1809.6769	2714	1833.35
915.3946	1811.3504	2709.55	1828.15
915.5348	1813.0231	2713.95	1833.6
915.675	1814.6951	2706.2	1827
915.8151	1816.3664	2704.95	1822.95
915.9553	1818.0369	2697.4	1815.9
916.0954	1819.7067	2689.25	1811.55
916.2355	1821.3757	2688.95	1807.25
916.3755	1823.044	2678.6	1800.8
916.5156	1824.7115	2676.25	1795.35
916.6556	1826.3783	2668.65	1790.35
916.7956	1828.0443	2666.95	1788.2
916.9356	1829.7096	2663.25	1783.65
917.0756	1831.3741	2663	1778.95
917.2155	1833.0379	2651.2	1771.05
917.3555	1834.701	2656.25	1774.75
917.4954	1836.3633	2653.35	1773.75
917.6353	1838.0248	2640.8	1758
917.7751	1839.6856	2650.05	1769.35
917.915	1841.3457	2629.25	1752.65
918.0548	1843.005	2627.25	1748.25
918.1946	1844.6636	2639.95	1762.75
918.3344	1846.3214	2629.5	1747.4
918.4742	1847.9785	2636.35	1757.05
918.6139	1849.6349	2618.45	1739.45
918.7537	1851.2904	2635.65	1748.2
918.8934	1852.9453	2622.8	1744.3
919.0331	1854.5994	2616	1734.85
919.1727	1856.2528	2603.6	1719.55
919.3124	1857.9054	2614.9	1733.7
919.452	1859.5572	2589.5	1711.4
919.5916	1861.2083	2596.9	1714.95
919.7312	1862.8587	2599.5	1720.45
919.8708	1864.5084	2584.6	1703.2
920.0103	1866.1572	2579.35	1700.95
920.1498	1867.8054	2568.45	1688.4
920.2893	1869.4528	2571.25	1692.65
920.4288	1871.0994	2553	1673.05
920.5683	1872.7453	2558.75	1680.4
920.7077	1874.3905	2564.3	1666.1
920.8471	1876.0349	2542.4	1661.4
920.9865	1877.6786	2538.15	1657.3
921.1259	1879.3215	2533.9	1656.15
921.2653	1880.9637	2538.3	1656.95
921.4046	1882.6051	2528.45	1650.2
921.5439	1884.2458	2534.35	1654.25
921.6832	1885.8858	2509.5	1630.6
921.8225	1887.525	2512.8	1633.45
921.9617	1889.1634	2510	1632
922.101	1890.8011	2500.4	1621.25
922.2402	1892.4381	2502.85	1624.6
922.3794	1894.0743	2497.65	1619.6
922.5185	1895.7098	2487.95	1608.65
922.6577	1897.3446	2494.75	1615.15
922.7968	1898.9786	2490.1	1606.75
922.9359	1900.6118	2481.15	1603.75
923.075	1902.2443	2465.3	1583.85
923.214	1903.8761	2471.05	1592.4
923.3531	1905.5071	2466.45	1585.65
923.4921	1907.1374	2460.9	1579.4
923.6311	1908.7669	2461.95	1581.9
923.77	1910.3957	2439.5	1559.2
923.909	1912.0237	2444.45	1565.9
924.0479	1913.651	2447.6	1567.05
924.1868	1915.2776	2443.05	1565.95
924.3257	1916.9034	2427.25	1549.35
924.4646	1918.5285	2424.45	1543.2
924.6034	1920.1528	2424.8	1546.1
924.7422	1921.7764	2423.6	1543.8
924.881	1923.3992	2419.25	1539
925.0198	1925.0213	2413.55	1533.95
925.1586	1926.6427	2401.05	1522.35
925.2973	1928.2633	2454.65	1494.95
925.436	1929.8832	2402	1520.05
925.5747	1931.5023	2379.2	1500.65
925.7134	1933.1207	2373.55	1496.3
925.852	1934.7383	2366.5	1485.25
925.9906	1936.3552	2365.85	1486.65
926.1292	1937.9714	2364.95	1483.75
926.2678	1939.5868	2352.95	1471.8
926.4064	1941.2015	2348.4	1469.6
926.5449	1942.8154	2348.5	1469.1
926.6834	1944.4286	2343.15	1462.3
926.8219	1946.041	2345.9	1442.55
926.9604	1947.6528	2328.3	1445.85
927.0988	1949.2637	2321.6	1443.9
927.2372	1950.8739	2321.45	1439.25
927.3756	1952.4834	2315.5	1436.1
927.514	1954.0921	2312.1	1434.1
927.6523	1955.7001	2304.15	1418.3
927.7907	1957.3074	2302.75	1423.25
927.929	1958.9139	2291.95	1412.2
928.0673	1960.5197	2293.05	1413
928.2055	1962.1247	2284.4	1403.4
928.3438	1963.729	2279.1	1399.8
928.482	1965.3325	2288.9	1384.05
928.6202	1966.9353	2261.15	1383
928.7584	1968.5374	2268.9	1387.15
928.8965	1970.1387	2258.8	1379.3
929.0346	1971.7393	2253	1374.1
929.1727	1973.3392	2238.5	1358.85
929.3108	1974.9383	2231.95	1354.2
929.4489	1976.5366	2237.2	1355.55
929.5869	1978.1342	2234.35	1354.95
929.7249	1979.7311	2220.4	1338.95
929.8629	1981.3273	2219	1339.1
930.0009	1982.9227	2216.95	1335.75
930.1388	1984.5173	2213.1	1333.8
930.2767	1986.1112	2212.9	1334.45
930.4146	1987.7044	2194.75	1316.15
930.5525	1989.2968	2206.1	1325.1
930.6904	1990.8885	2206.65	1322.6
930.8282	1992.4795	2193.8	1311.35
930.966	1994.0697	2194.35	1314
931.1038	1995.6592	2189.15	1310.15
931.2415	1997.2479	2188.05	1307.3
931.3793	1998.8359	2191.2	1310
931.517	2000.4232	2174.7	1294.3
931.6547	2002.0097	2173.4	1296.75
931.7923	2003.5955	2171.15	1291.45
931.93	2005.1805	2169.8	1288.05
932.0676	2006.7648	2156.8	1276.55
932.2052	2008.3484	2156.2	1274.95
932.3427	2009.9312	2165.25	1284.3
932.4803	2011.5133	2160.1	1280.95
932.6178	2013.0946	2152.15	1270.95
932.7553	2014.6752	2151.6	1274.25
932.8928	2016.2551	2150.65	1271.5
933.0302	2017.8342	2145.55	1265.9
933.1676	2019.4126	2138.4	1260.9
933.305	2020.9902	2127.4	1247.75
933.4424	2022.5672	2127.6	1246.2
933.5798	2024.1433	2137.2	1251.7
933.7171	2025.7188	2124.2	1245.7
933.8544	2027.2935	2125.4	1244.5
933.9917	2028.8674	2114.2	1232.15
934.129	2030.4406	2113.8	1234.9
934.2662	2032.0131	2104.75	1223.35
934.4034	2033.5849	2109.9	1222
934.5406	2035.1559	2109.65	1230.8
934.6778	2036.7261	2104.2	1226.7
934.8149	2038.2957	2089.75	1209.65
934.952	2039.8645	2084.9	1206.85
935.0891	2041.4325	2086.1	1203.4
935.2262	2042.9998	2086.5	1209.95
935.3632	2044.5664	2079.25	1197.6
935.5002	2046.1323	2083.15	1202.95
935.6372	2047.6974	2078.65	1198.55
935.7742	2049.2617	2063.75	1182.7
935.9111	2050.8254	2072.15	1188.1
936.048	2052.3883	2070.5	1186.9
936.1849	2053.9504	2071.85	1192.1
936.3218	2055.5118	2066.5	1186.85
936.4586	2057.0725	2053.75	1172.8
936.5955	2058.6325	2060.05	1178.05
936.7323	2060.1917	2047.55	1168.95
936.869	2061.7502	2054.15	1173.05
937.0058	2063.3079	2045.75	1166.3
937.1425	2064.8649	2036.9	1154.15
937.2792	2066.4212	2034.8	1155.7
937.4159	2067.9767	2037.35	1157.7
937.5525	2069.5315	2036	1157.4
937.6891	2071.0856	2025.2	1144.05
937.8257	2072.6389	2023.45	1142.75
937.9623	2074.1915	2009.5	1130.35
938.0989	2075.7433	2004.3	1122.2
938.2354	2077.2945	2003.6	1127.2
938.3719	2078.8448	1998.45	1118.2
938.5084	2080.3945	1988.3	1109.35
938.6448	2081.9434	1996.05	1116.9
938.7812	2083.4916	1995.1	1115.95
938.9176	2085.039	1988.65	1109.1
939.054	2086.5857	1987.2	1105
939.1903	2088.1317	1977.4	1096.9
939.3267	2089.677	1979.75	1098
939.463	2091.2215	1968.4	1089.9
939.5992	2092.7652	1973.25	1092.35
939.7355	2094.3083	1976.65	1097.35
939.8717	2095.8506	1964	1085.05
940.0079	2097.3921	1969.3	1090.3
940.1441	2098.933	1971.35	1092.1
940.2802	2100.4731	1970.05	1092.65
940.4163	2102.0124	1957.95	1070.25
940.5524	2103.5511	1957.6	1079.7
940.6885	2105.089	1951.15	1072
940.8245	2106.6261	1958.55	1079.4
940.9606	2108.1626	1948.35	1067.3
941.0965	2109.6983	1974.4	1066
941.2325	2111.2332	1943.2	1064.7
941.3684	2112.7675	1944.7	1062.45
941.5044	2114.301	1945.4	1064.85
941.6403	2115.8337	1932	1052.85
941.7761	2117.3657	1933.15	1053.25
941.912	2118.897	1925.3	1046
942.0478	2120.4276	1937.95	1052.5
942.1835	2121.9575	1922.1	1041.8
942.3193	2123.4866	1941	1047.35
942.455	2125.0149	1925.7	1042.95
942.5907	2126.5426	1902.05	1021.75
942.7264	2128.0695	1914.55	1031.05
942.8621	2129.5956	1916.2	1037
942.9977	2131.1211	1915.25	1030.8
943.1333	2132.6458	1903.05	1022.75
943.2689	2134.1698	1899.25	1020.65
943.4044	2135.693	1892.45	1008.65
943.54	2137.2155	1899.8	1019.45
943.6755	2138.7373	1898.75	1019.6
943.8109	2140.2584	1891.35	1010.45
943.9464	2141.7787	1885.4	1000.75
944.0818	2143.2983	1885.95	1004.95
944.2172	2144.8171	1886.95	1008.95
944.3526	2146.3353	1875.15	994.65
944.4879	2147.8527	1871.4	991.15
944.6232	2149.3693	1880	1000.7
944.7585	2150.8853	1868.5	989.65
944.8938	2152.4005	1867.8	987.35
945.029	2153.9149	1871.35	992.1
945.1642	2155.4287	1858.4	978.4
945.2994	2156.9417	1865.6	984.4
945.4346	2158.454	1863.55	981.8
945.5697	2159.9655	1858.95	978.5
945.7048	2161.4764	1863.85	983.75
945.8399	2162.9865	1856.1	975.25
945.9749	2164.4958	1850.4	968.85
946.1099	2166.0045	1843.1	961.7
946.2449	2167.5124	1844.5	963.7
946.3799	2169.0195	1835.35	956.3
946.5148	2170.526	1841.9	962.7
946.6498	2172.0317	1846.15	966.1
946.7846	2173.5367	1836.7	956.25
946.9195	2175.0409	1834.65	953.75
947.0543	2176.5445	1824.35	947.85
947.1891	2178.0473	1830.75	950.35
947.3239	2179.5494	1830.85	947.05
947.4587	2181.0507	1828.35	950.2
947.5934	2182.5513	1824.4	945.1
947.7281	2184.0512	1823	942.6
947.8628	2185.5504	1820.8	941.85
947.9974	2187.0488	1814.65	934.5
948.132	2188.5465	1812.9	932.3
948.2666	2190.0435	1809.85	930.6
948.4012	2191.5397	1805.1	926.2
948.5357	2193.0353	1800.75	921.55
948.6702	2194.5301	1801.25	921.05
948.8047	2196.0241	1797.7	917.3
948.9392	2197.5175	1798.25	917.35
949.0736	2199.0101	1792.4	910.2
949.208	2200.502	1782.7	904.9
949.3424	2201.9931	1782.6	904.1
949.4767	2203.4835	1778.4	894.45
949.611	2204.9733	1786	898.3
949.7453	2206.4622	1778.7	900.55
949.8796	2207.9505	1768.5	884.15
950.0138	2209.438	1752.3	874.2
950.148	2210.9248	1756.25	875.8
950.2822	2212.4109	1758.65	878.55
950.4164	2213.8962	1757.45	873.95
950.5505	2215.3809	1758.95	877.85
950.6846	2216.8648	1754.75	874.6
950.8186	2218.3479	1748.45	864.75
950.9527	2219.8304	1755	871.55
951.0867	2221.3121	1750.95	869.75
951.2207	2222.7931	1748.8	868.5
951.3546	2224.2733	1745.2	865.05
951.4886	2225.7529	1734	853.35
951.6225	2227.2317	1737	853.1
951.7563	2228.7098	1723.7	844.3
951.8902	2230.1872	1728.9	848.7
952.024	2231.6638	1720.15	839.6
952.1578	2233.1397	1730.05	845.8
952.2916	2234.6149	1724.25	846.55
952.4253	2236.0894	1719.85	839
952.559	2237.5632	1712.9	831.4
952.6927	2239.0362	1715.7	834.65
952.8263	2240.5085	1706.25	826.35
952.9599	2241.9801	1710.55	830.45
953.0935	2243.4509	1708.35	830.2
953.2271	2244.921	1693.1	813.8
953.3606	2246.3904	1700.55	817.15
953.4941	2247.8591	1698.15	820.45
953.6276	2249.3271	1694.2	814.5
953.7611	2250.7943	1687.85	807
953.8945	2252.2608	1685.7	806.2
954.0279	2253.7266	1686.55	807.75
954.1612	2255.1917	1680.2	799.65
954.2946	2256.656	1685.85	803.25
954.4279	2258.1197	1679.35	799.75
954.5612	2259.5826	1676.15	793.9
954.6944	2261.0447	1675.5	794.15
954.8276	2262.5062	1669.25	788.8
954.9608	2263.9669	1676.5	794.95
955.094	2265.4269	1668.4	791.4
955.2271	2266.8862	1664.95	784.7
955.3602	2268.3448	1669.5	787.75
955.4933	2269.8026	1663.6	781.6
955.6264	2271.2598	1656.85	776.85
955.7594	2272.7162	1657.5	780.1
955.8924	2274.1719	1656.7	779.5
956.0253	2275.6268	1660.65	780.95
956.1583	2277.0811	1649.25	769.95
956.2912	2278.5346	1657.6	779.35
956.4241	2279.9874	1651.95	771.35
956.5569	2281.4395	1649.15	769.85
956.6897	2282.8908	1657.7	770.85
956.8225	2284.3414	1649.25	767.55
956.9553	2285.7914	1645.25	765.05
957.088	2287.2406	1640.9	758.35
957.2207	2288.689	1640.35	761.4
957.3534	2290.1368	1636.5	758.05
957.486	2291.5838	1640.05	759.9
957.6186	2293.0302	1624.2	744.1
957.7512	2294.4758	1631.4	750.85
957.8838	2295.9206	1640.6	758.7
958.0163	2297.3648	1625.25	745.1
958.1488	2298.8082	1631.3	750.65
958.2813	2300.251	1627.75	748.95
958.4137	2301.693	1628.35	745.25
958.5461	2303.1343	1617.15	738.05
958.6785	2304.5748	1625.2	746.4
958.8108	2306.0147	1621.25	740.8
958.9432	2307.4538	1611.55	730.5
959.0754	2308.8922	1612.65	732.55
959.2077	2310.3299	1615.1	736.7
959.3399	2311.7669	1610.3	730.3
959.4721	2313.2031	1606.2	724.5
959.6043	2314.6387	1595.8	714.1
959.7365	2316.0735	1592.2	711.55
959.8686	2317.5076	1596.45	714.55
960.0006	2318.941	1594.95	714.25
960.1327	2320.3737	1596.2	715.85
960.2647	2321.8056	1583.7	703.15
960.3967	2323.2369	1589.3	709.85
960.5287	2324.6674	1585.05	701.8
960.6606	2326.0972	1588.2	707
960.7925	2327.5263	1586.3	706.9
960.9244	2328.9547	1584.95	705.25
961.0562	2330.3823	1579.45	698.25
961.1881	2331.8092	1586.05	706.15
961.3198	2333.2355	1574.2	695.15
961.4516	2334.661	1582.65	700.8
961.5833	2336.0858	1577.85	696.15
961.715	2337.5098	1572.75	692.95
961.8467	2338.9332	1562.05	682.3
961.9783	2340.3558	1572.4	689.8
962.1099	2341.7778	1564.4	686.45
962.2415	2343.199	1567.15	685.35
962.373	2344.6195	1568.15	687.55
962.5045	2346.0393	1564.35	685.9
962.636	2347.4583	1562.55	681.2
962.7675	2348.8767	1551.3	668.3
962.8989	2350.2943	1557.1	677.6
963.0303	2351.7113	1557.6	676.45
963.1617	2353.1275	1556.85	677.4
963.293	2354.543	1581.9	678.3
963.4243	2355.9578	1558.15	678.45
963.5556	2357.3718	1546.2	666.15
963.6868	2358.7852	1558.3	675.1
963.818	2360.1978	1547.3	665.6
963.9492	2361.6098	1546.75	667.7
964.0803	2363.021	1549.2	664.7
964.2114	2364.4315	1547.3	669.1
964.3425	2365.8413	1550.6	665.3
964.4736	2367.2504	1533.5	655.25
964.6046	2368.6587	1541.8	661.35
964.7356	2370.0664	1540.6	662.25
964.8666	2371.4733	1525.15	645.25
964.9975	2372.8795	1530.35	651.25
965.1284	2374.285	1531	652
965.2593	2375.6899	1519.1	639.3
965.3901	2377.0939	1524.15	645.6
965.5209	2378.4973	1519	640.8
965.6517	2379.9	1519.95	641.55
965.7825	2381.3019	1521.75	642.15
965.9132	2382.7032	1505.55	626.5
966.0439	2384.1037	1503.95	627.5
966.1745	2385.5035	1517.35	638.15
966.3051	2386.9027	1513.2	634.2
966.4357	2388.3011	1509.5	625.95
966.5663	2389.6987	1503.5	625.15
966.6968	2391.0957	1497.15	616.05
966.8273	2392.492	1500.25	621.3
966.9578	2393.8876	1495.65	614.25
967.0882	2395.2824	1493.75	612.65
967.2186	2396.6765	1484.65	608.25
967.349	2398.07	1484.05	607.55
967.4793	2399.4627	1488.5	607.3
967.6097	2400.8547	1484.3	606.1
967.7399	2402.246	1487.6	603.15
967.8702	2403.6366	1489.05	607.55
968.0004	2405.0265	1481.55	602.3
968.1306	2406.4156	1496	611.9
968.2607	2407.8041	1478.25	596.1
968.3909	2409.1918	1475.9	594.4
968.521	2410.5789	1470.05	591.15
968.651	2411.9652	1476.95	594.85
968.781	2413.3508	1477.15	598.9
968.911	2414.7358	1472.55	593.3
969.041	2416.12	1467.85	587.45
969.1709	2417.5035	1464.3	586
969.3008	2418.8863	1468.1	587.9
969.4307	2420.2684	1465.4	585.85
969.5606	2421.6497	1462.25	582.6
969.6904	2423.0304	1458.8	579.1
969.8201	2424.4104	1460.55	582.65
969.9499	2425.7896	1466.55	578.8
970.0796	2427.1682	1459.35	580.9
970.2093	2428.546	1460.85	579.2
970.3389	2429.9232	1459.15	577.95
970.4685	2431.2996	1451.95	572.75
970.5981	2432.6753	1450.1	569.75
970.7277	2434.0503	1445.85	566.8
970.8572	2435.4246	1447.8	569.7
970.9867	2436.7982	1446.75	563.9
971.1161	2438.1711	1444.75	566.2
971.2456	2439.5433	1444.3	564.25
971.375	2440.9148	1440.95	556.35
971.5043	2442.2856	1440.05	560.2
971.6336	2443.6557	1440	560
971.7629	2445.025	1435.6	556.95
971.8922	2446.3937	1434.25	553.8
972.0214	2447.7617	1423.8	544.95
972.1506	2449.1289	1436.3	557.55
972.2798	2450.4955	1442.95	559.1
972.4089	2451.8613	1428.1	549.95
972.538	2453.2265	1426.75	546.65
972.6671	2454.5909	1431.9	550.9
972.7961	2455.9546	1423.2	544.7
972.9251	2457.3177	1425.05	544.6
973.0541	2458.68	1428.9	549.85
973.1831	2460.0416	1422.35	541.45
973.312	2461.4025	1427.95	548.15
973.4408	2462.7627	1431.15	541
973.5697	2464.1222	1419.9	541.05
973.6985	2465.4811	1424.75	545.25
973.8273	2466.8392	1420.75	539.65
973.956	2468.1966	1424.85	540.95
974.0847	2469.5533	1425.5	546.55
974.2134	2470.9093	1417.4	535.95
974.3421	2472.2645	1426.9	546.95
974.4707	2473.6191	1417.2	538.9
974.5993	2474.973	1418	538.1
974.7278	2476.3262	1415.4	536.25
974.8563	2477.6787	1406.8	527.9
974.9848	2479.0305	1410.45	532.25
975.1132	2480.3816	1416.55	534.3
975.2417	2481.7319	1400.7	520.65
975.37	2483.0816	1404.9	524.6
975.4984	2484.4306	1410.4	528
975.6267	2485.7789	1400.1	521.15
975.755	2487.1264	1400.8	518.6
975.8833	2488.4733	1396.2	517.7
976.0115	2489.8195	1414.9	515.95
976.1397	2491.165	1398.45	515
976.2678	2492.5097	1391.5	510.3
976.3959	2493.8538	1393.45	514.05
976.524	2495.1972	1388.95	510.35
976.6521	2496.5398	1386.15	509.85
976.7801	2497.8818	1384.05	502.6
976.9081	2499.2231	1389.75	510.85
977.036	2500.5637	1386.05	507.35
977.164	2501.9035	1384.65	502.6
977.2918	2503.2427	1386.85	503.55
977.4197	2504.5812	1373.45	492.95
977.5475	2505.919	1386.85	503.3
977.6753	2507.256	1381.05	502.6
977.8031	2508.5924	1379.45	499.8
977.9308	2509.9281	1384.15	498.9
978.0585	2511.2631	1370.5	490.45
978.1861	2512.5974	1379.75	500.3
978.3137	2513.9309	1372.65	492
978.4413	2515.2638	1398.1	491.55
978.5689	2516.596	1371.45	491.55
978.6964	2517.9275	1372.85	491.6
978.8239	2519.2583	1369.5	489.4
978.9513	2520.5884	1370.25	492.05
979.0788	2521.9178	1368.45	487.9
979.2062	2523.2465	1361.5	483.85
979.3335	2524.5745	1365.7	488.55
979.4608	2525.9018	1367.9	487.25
979.5881	2527.2284	1358.65	481.4
979.7154	2528.5543	1362.45	483.7
979.8426	2529.8796	1355.65	477.5
979.9698	2531.2041	1367.2	486.9
980.0969	2532.5279	1358.35	479.85
980.224	2533.851	1358.65	479.25
980.3511	2535.1735	1353.25	473.45
980.4781	2536.4952	1355.45	476.3
980.6052	2537.8163	1357.05	478.4
980.7321	2539.1366	1356.15	477.1
980.8591	2540.4562	1347.35	469.25
980.986	2541.7752	1352.55	474.55
981.1129	2543.0935	1348.05	469.85
981.2397	2544.411	1350.95	469.45
981.3665	2545.7279	1354.6	476.35
981.4933	2547.0441	1345.85	465.95
981.62	2548.3596	1343.05	460.4
981.7467	2549.6744	1344.35	465.5
981.8734	2550.9885	1344.5	463.2
982.0001	2552.3019	1337	459.5
982.1267	2553.6146	1339.1	460.75
982.2532	2554.9266	1338.95	459.05
982.3798	2556.2379	1342.35	461.1
982.5063	2557.5485	1338.55	461.65
982.6327	2558.8585	1346.6	459.35
982.7592	2560.1677	1339.85	455
982.8856	2561.4762	1332.7	453.35
983.0119	2562.7841	1334.55	451.35
983.1383	2564.0913	1325.35	447.2
983.2646	2565.3977	1326.15	445.6
983.3908	2566.7035	1326.2	446.95
983.517	2568.0086	1329.55	449.55
983.6432	2569.313	1330.2	450.85
983.7694	2570.6167	1329.6	447.15
983.8955	2571.9197	1328.75	450.2
984.0216	2573.222	1327.6	447.55
984.1476	2574.5236	1323.15	442.6
984.2737	2575.8246	1330.3	447.1
984.3996	2577.1248	1324.45	443.7
984.5256	2578.4244	1321.4	439.45
984.6515	2579.7232	1330.05	452.35
984.7774	2581.0214	1360	450.25
984.9032	2582.3189	1334.85	455.3
985.029	2583.6157	1330.65	447.1
985.1548	2584.9118	1328.85	449.2
985.2806	2586.2072	1328.8	449.55
985.4063	2587.5019	1328.6	448.7
985.5319	2588.7959	1333.6	452.6
985.6576	2590.0893	1341.15	459.95
985.7832	2591.3819	1339.85	459.45
985.9087	2592.6739	1337.05	458.7
986.0343	2593.9652	1340.5	459.8
986.1597	2595.2557	1348.85	469.6
986.2852	2596.5456	1340.5	462.4
986.4106	2597.8348	1343.85	462.2
986.536	2599.1234	1342.1	464.4
986.6614	2600.4112	1340.25	461.85
986.7867	2601.6983	1345.7	461.35
986.912	2602.9848	1346.2	467.45
987.0372	2604.2705	1355.85	469.45
987.1624	2605.5556	1344.4	462.5
987.2876	2606.84	1335.8	455.7
987.4128	2608.1237	1349.3	467.8
987.5379	2609.4067	1336.25	456.85
987.6629	2610.689	1347.8	458.6
987.788	2611.9707	1344.45	461.4
987.913	2613.2516	1343.6	461
988.0379	2614.5319	1335.55	455.35
988.1629	2615.8115	1337.8	456.7
988.2878	2617.0903	1331.85	450.75
988.4126	2618.3685	1331	448.95
988.5375	2619.6461	1335.25	456.35
988.6622	2620.9229	1335.95	456.95
988.787	2622.199	1341.5	462.4
988.9117	2623.4745	1342.6	462.85
989.0364	2624.7493	1331.15	450.8
989.161	2626.0234	1332.45	453.1
989.2857	2627.2968	1338.2	458.9
989.4102	2628.5695	1332.55	451.8
989.5348	2629.8415	1330.75	451.7
989.6593	2631.1128	1338.95	458.25
989.7837	2632.3835	1338.2	458.35
989.9082	2633.6535	1335.45	455.05
990.0326	2634.9228	1335.15	456.7
990.1569	2636.1914	1335.55	456.6
990.2812	2637.4593	1334.75	452.85
990.4055	2638.7265	1337.6	457.5
990.5298	2639.9931	1332.95	454.05
990.654	2641.259	1335.6	455
990.7782	2642.5242	1330.6	451.2
990.9023	2643.7887	1323.5	444.6
991.0264	2645.0525	1329	451.65
991.1505	2646.3156	1323.85	443.15
991.2745	2647.5781	1323.65	443.6
991.3985	2648.8398	1326.3	449.35
991.5225	2650.1009	1334.25	445.9
991.6464	2651.3613	1313.9	434.65
991.7703	2652.6211	1323.9	444.3
991.8942	2653.8801	1319.45	439.65
992.018	2655.1385	1319.25	437
992.1418	2656.3961	1313.75	433.25
992.2655	2657.6531	1327.45	447.35
992.3892	2658.9094	1322.8	441.6
992.5129	2660.1651	1326.65	447.85
992.6366	2661.42	1324.55	445.45
992.7602	2662.6743	1327.3	444.95
992.8837	2663.9279	1327.9	451.7
993.0073	2665.1808	1330.05	448.25
993.1307	2666.433	1326.65	446
993.2542	2667.6846	1327.2	448.05
993.3776	2668.9354	1332.9	450.1
993.501	2670.1856	1341.6	461.6
993.6244	2671.4351	1342.95	462.6
993.7477	2672.6839	1341.4	460.1
993.8709	2673.9321	1343.55	464.1
993.9942	2675.1795	1346.1	464.8
994.1174	2676.4263	1349.55	472.4
994.2405	2677.6724	1352.1	473.85
994.3637	2678.9179	1349.85	468.8
994.4868	2680.1626	1352.35	474.45
994.6098	2681.4067	1351.6	470.2
994.7328	2682.6501	1355.4	475.35
994.8558	2683.8928	1348.1	469.4
994.9788	2685.1348	1353.05	474.1
995.1017	2686.3761	1348.8	471.65
995.2245	2687.6168	1341.55	461.15
995.3474	2688.8568	1341.05	461.75
995.4702	2690.0961	1335.45	456.55
995.5929	2691.3348	1336.65	456.4
995.7156	2692.5727	1330.5	451.75
995.8383	2693.81	1329.35	449.4
995.961	2695.0466	1325.5	446.75
996.0836	2696.2826	1327.35	446.85
996.2062	2697.5178	1328.85	444.05
996.3287	2698.7524	1332.5	454
996.4512	2699.9863	1334.6	452.65
996.5737	2701.2195	1332.3	455.15
996.6961	2702.452	1334.7	452.85
996.8185	2703.6839	1339.7	458.75
996.9408	2704.9151	1340.45	462
997.0631	2706.1456	1359.45	479.15
997.1854	2707.3755	1351.7	468.15
997.3077	2708.6046	1364.7	482.3
997.4299	2709.8331	1371.55	491.8
997.552	2711.0609	1381.25	501.8
997.6742	2712.2881	1389.7	509.3
997.7963	2713.5145	1401.65	519.5
997.9183	2714.7403	1404.9	526.8
998.0403	2715.9654	1421.15	539.8
998.1623	2717.1899	1452.95	560.2
998.2842	2718.4136	1450.2	569.5
998.4062	2719.6367	1460.1	580.7
998.528	2720.8591	1475.7	589.9
998.6498	2722.0809	1480.3	600.55
998.7716	2723.3019	1499.05	614.5
998.8934	2724.5223	1503.15	623.5
999.0151	2725.7421	1512.15	630.75
999.1368	2726.9611	1512.2	631.95
999.2584	2728.1795	1506.85	621.05
999.38	2729.3972	1494.45	615.1
999.5016	2730.6142	1492.5	602.3
999.6231	2731.8306	1475.15	595.3
999.7446	2733.0462	1459.35	579.05
999.8661	2734.2612	1446.7	561.1
999.9875	2735.4756	1434.8	551.5
1000.1089	2736.6892	1413.35	532
1000.2302	2737.9022	1397.05	517.95
1000.3515	2739.1145	1381.25	501.5
1000.4728	2740.3262	1377.35	489.05
1000.594	2741.5372	1357.8	478.65
1000.7152	2742.7475	1347.1	467.45
1000.8363	2743.9571	1336.25	453.15
1000.9575	2745.1661	1332.9	448.25
1001.0785	2746.3744	1316.3	436.5
1001.1996	2747.582	1311.4	431.05
1001.3206	2748.7889	1308.5	427.2
1001.4415	2749.9952	1300.55	421.9
1001.5625	2751.2008	1294.35	413.45
1001.6833	2752.4057	1300.5	418.5
1001.8042	2753.61	1285.85	405.4
1001.925	2754.8136	1291.1	410.25
1002.0458	2756.0165	1281.6	401.05
1002.1665	2757.2188	1288.7	411.65
1002.2872	2758.4204	1285	406
1002.4078	2759.6213	1285.8	403.6
1002.5285	2760.8215	1289.35	402.45
1002.649	2762.0211	1283.85	402.3
1002.7696	2763.22	1290.2	408.1
1002.8901	2764.4182	1279.5	398.7
1003.0106	2765.6158	1282.35	402.95
1003.131	2766.8127	1267.45	387.05
1003.2514	2768.009	1268.65	388.9
1003.3717	2769.2045	1270.65	389.95
1003.492	2770.3994	1277.9	396.6
1003.6123	2771.5936	1272.75	391.1
1003.7325	2772.7872	1266	387.25
1003.8527	2773.9801	1267.2	385.15
1003.9729	2775.1723	1281.3	384
1004.093	2776.3639	1269.15	389.7
1004.2131	2777.5548	1265.15	382.1
1004.3331	2778.745	1270	388.4
1004.4531	2779.9346	1276.05	396.95
1004.5731	2781.1235	1282.65	401
1004.693	2782.3117	1282.7	403.3
1004.8129	2783.4992	1289.6	410.75
1004.9328	2784.6861	1294.7	415.2
1005.0526	2785.8723	1302.4	421.6
1005.1723	2787.0579	1305.35	426.2
1005.2921	2788.2428	1313.05	433.15
1005.4118	2789.427	1321.25	443
1005.5314	2790.6106	1333.9	454.25
1005.651	2791.7935	1345.8	463
1005.7706	2792.9757	1349.55	471.65
1005.8902	2794.1573	1377.2	494.2
1006.0097	2795.3382	1388	507.55
1006.1291	2796.5184	1398.55	519.95
1006.2485	2797.698	1430.7	548.85
1006.3679	2798.8769	1433.85	554.05
1006.4873	2800.0551	1461.5	581
1006.6066	2801.2327	1480.75	597.15
1006.7258	2802.4096	1501.35	622.7
1006.8451	2803.5859	1518.15	636.35
1006.9642	2804.7615	1541.65	660.7
1007.0834	2805.9364	1574.35	695.3
1007.2025	2807.1106	1597.85	718.35
1007.3216	2808.2842	1628.1	748.6
1007.4406	2809.4572	1672.5	792.45
1007.5596	2810.6294	1704.95	824.5
1007.6785	2811.801	1745.35	867.4
1007.7975	2812.972	1788.7	907.8
1007.9163	2814.1423	1831.25	951.8
1008.0352	2815.3119	1888.5	1008.5
1008.154	2816.4808	1929.8	1049.9
1008.2727	2817.6491	1989.25	1108.4
1008.3914	2818.8167	2038.4	1158.55
1008.5101	2819.9837	2096.1	1212.7
1008.6288	2821.15	2131.95	1250.75
1008.7474	2822.3157	2169.45	1291.85
1008.8659	2823.4807	2223.55	1343.15
1008.9844	2824.645	2268.7	1387.65
1009.1029	2825.8086	2302.3	1423.35
1009.2214	2826.9716	2358.2	1478.7
1009.3398	2828.134	2382.05	1505.7
1009.4581	2829.2957	2425.65	1544.3
1009.5764	2830.4567	2451.45	1576.3
1009.6947	2831.617	2469.95	1588.7
1009.813	2832.7767	2471.8	1591.8
1009.9312	2833.9358	2474.4	1593.05
1010.0493	2835.0941	2472.7	1592.65
1010.1675	2836.2519	2464.8	1586.8
1010.2855	2837.4089	2454.05	1574.1
1010.4036	2838.5653	2441.1	1560.1
1010.5216	2839.7211	2449.95	1573.1
1010.6396	2840.8761	2455.65	1574
1010.7575	2842.0306	2478.2	1598.85
1010.8754	2843.1843	2520.75	1640.35
1010.9932	2844.3374	2563.05	1683.1
1011.111	2845.4899	2631.45	1749.95
1011.2288	2846.6417	2710.35	1831.15
1011.3465	2847.7928	2784.9	1905.8
1011.4642	2848.9433	2871.75	1993.3
1011.5818	2850.0931	2962.6	2082.4
1011.6995	2851.2422	3038.2	2157
1011.817	2852.3907	3109.3	2230.1
1011.9345	2853.5385	3187.85	2305.8
1012.052	2854.6857	3253.8	2346.15
1012.1695	2855.8323	3295.55	2417.6
1012.2869	2856.9781	3347.7	2468.75
1012.4042	2858.1233	3393.05	2514.15
1012.5216	2859.2679	3436.2	2555.3
1012.6389	2860.4118	3474.3	2594.7
1012.7561	2861.555	3537.5	2652.35
1012.8733	2862.6976	3571.45	2689.85
1012.9905	2863.8395	3591.85	2711.6
1013.1076	2864.9808	3638.85	2759.1
1013.2247	2866.1214	3631.7	2753.2
1013.3417	2867.2614	3649.75	2771.35
1013.4587	2868.4007	3670.3	2788.3
1013.5757	2869.5393	3677.55	2796.7
1013.6926	2870.6773	3709.2	2825.55
1013.8095	2871.8146	3722.65	2839.55
1013.9263	2872.9513	3727.3	2843.9
1014.0431	2874.0874	3707.8	2826.9
1014.1599	2875.2227	3705.8	2824.6
1014.2766	2876.3574	3682.75	2801.4
1014.3933	2877.4915	3652.1	2773.75
1014.51	2878.6249	3634.2	2755.25
1014.6266	2879.7577	3619.35	2737.7
1014.7431	2880.8898	3606.4	2717.6
1014.8596	2882.0212	3562.6	2682.8
1014.9761	2883.152	3567	2685.8
1015.0925	2884.2821	3549.65	2672.45
1015.2089	2885.4116	3552.95	2675.15
1015.3253	2886.5405	3524.85	2644.15
1015.4416	2887.6686	3557.55	2674.9
1015.5579	2888.7962	3553.6	2675.5
1015.6741	2889.923	3561.9	2684.4
1015.7903	2891.0493	3592.95	2711.65
1015.9065	2892.1748	3602.4	2722.4
1016.0226	2893.2997	3608.15	2728.55
1016.1387	2894.424	3621	2741.25
1016.2547	2895.5476	3651.15	2772.25
1016.3707	2896.6706	3678.8	2798.25
1016.4866	2897.7929	3694.3	2812.9
1016.6025	2898.9145	3727.05	2846.3
1016.7184	2900.0355	3762.65	2883.75
1016.8342	2901.1559	3801.7	2920.55
1016.95	2902.2756	3822.05	2941.9
1017.0658	2903.3946	3865.8	2986.95
1017.1815	2904.513	3888.05	3007.45
1017.2971	2905.6308	3922.65	3043.8
1017.4127	2906.7479	3940.7	3059.9
1017.5283	2907.8643	3950.8	3072.65
1017.6439	2908.9801	3993.05	3114.2
1017.7594	2910.0953	3999.65	3121.35
1017.8748	2911.2098	3999.4	3115.6
1017.9902	2912.3236	4000.7	3113.55
1018.1056	2913.4368	3981.7	3099.65
1018.2209	2914.5494	3957	3079.25
1018.3362	2915.6613	3934.45	3048.2
1018.4515	2916.7725	3902.4	3020.05
1018.5667	2917.8831	3874.1	2993.5
1018.6819	2918.9931	3846.1	2964.7
1018.797	2920.1024	3815.45	2932.55
1018.9121	2921.211	3780.75	2903.05
1019.0271	2922.319	3755.35	2875.25
1019.1421	2923.4264	3753.65	2875.1
1019.2571	2924.5331	3747.4	2870.2
1019.372	2925.6391	3732.75	2854.2
1019.4869	2926.7445	3730.65	2850.7
1019.6017	2927.8493	3725.5	2844.9
1019.7165	2928.9534	3696.15	2814.6
1019.8313	2930.0569	3706.55	2823.55
1019.946	2931.1597	3694.05	2813.65
1020.0606	2932.2619	3690.25	2812
1020.1753	2933.3634	3675.2	2794
1020.2899	2934.4643	3692.65	2806.6
1020.4044	2935.5645	3643.35	2757.25
1020.5189	2936.6641	3610.15	2725.5
1020.6334	2937.763	3560.75	2681.75
1020.7478	2938.8613	3502.05	2620.25
1020.8622	2939.959	3444	2558
1020.9765	2941.056	3365.1	2486.85
1021.0908	2942.1523	3280.85	2399.1
1021.2051	2943.248	3197.2	2317.4
1021.3193	2944.3431	3100.1	2222.45
1021.4334	2945.4375	2991.6	2112.55
1021.5476	2946.5313	2888.4	2009.95
1021.6617	2947.6244	2779.95	1899.2
1021.7757	2948.7169	2677.4	1797.5
1021.8897	2949.8087	2582.15	1701.05
1022.0037	2950.8999	2482.8	1600.9
1022.1176	2951.9904	2413.25	1534.6
1022.2315	2953.0803	2333.65	1450.7
1022.3453	2954.1696	2255.85	1375.55
1022.4591	2955.2582	2216.6	1337.65
1022.5728	2956.3462	2161.5	1282.75
1022.6865	2957.4335	2124.4	1244.1
1022.8002	2958.5202	2090.55	1207.45
1022.9138	2959.6062	2066.3	1186.6
1023.0274	2960.6916	2042.45	1161.5
1023.141	2961.7764	2023.95	1142.1
1023.2545	2962.8605	2003.9	1126.35
1023.3679	2963.9439	1989.55	1110.1
1023.4813	2965.0267	1984.15	1102.35
1023.5947	2966.1089	1994.45	1089.75
1023.708	2967.1905	1966.55	1085.75
1023.8213	2968.2714	1966.9	1087.8
1023.9346	2969.3516	1962.05	1079.75
1024.0478	2970.4312	1980	1091.5
1024.1609	2971.5102	1977.9	1100.85
1024.274	2972.5885	1976.2	1095.8
1024.3871	2973.6662	1966.7	1084.05
1024.5002	2974.7432	1966.05	1086.9
1024.6132	2975.8196	1959.75	1080.25
1024.7261	2976.8954	1961.35	1081.75
1024.839	2977.9705	1946.85	1067.85
1024.9519	2979.045	1915.95	1038.9
1025.0647	2980.1188	1906.15	1026.75
1025.1775	2981.192	1890.8	1012.8
1025.2902	2982.2645	1861.6	981.7
1025.4029	2983.3364	1849.05	967.6
1025.5156	2984.4077	1802.7	922.35
1025.6282	2985.4783	1783.15	896.65
1025.7407	2986.5483	1746.5	867.5
1025.8532	2987.6177	1713.5	834.35
1025.9657	2988.6864	1684	801.9
1026.0782	2989.7545	1650.2	770.35
1026.1906	2990.8219	1606.4	725.45
1026.3029	2991.8887	1582.85	699.65
1026.4152	2992.9548	1546.65	667.45
1026.5275	2994.0204	1520.5	641.15
1026.6397	2995.0852	1483.05	605.4
1026.7519	2996.1495	1466.5	584.4
1026.864	2997.2131	1444.05	564.8
1026.9761	2998.276	1418.6	539.35
1027.0882	2999.3383	1402.8	520.85
1027.2002	3000.4	1393.7	513.25
1027.3122	3001.4611	1372	490.55
1027.4241	3002.5215	1357.35	478.45
1027.536	3003.5812	1343.75	464.15
1027.6478	3004.6404	1329.35	449.75
1027.7596	3005.6989	1327.2	446.25
1027.8714	3006.7567	1312.4	431.25
1027.9831	3007.8139	1314.35	415.2
1028.0947	3008.8705	1300.85	419.95
1028.2064	3009.9264	1300.9	419.75
1028.3179	3010.9818	1294.05	413.45
1028.4295	3012.0364	1287.75	407.05
1028.541	3013.0905	1293.5	414.1
1028.6524	3014.1439	1284.4	405.95
1028.7638	3015.1966	1290.7	411.25
1028.8752	3016.2487	1292.15	412.6
1028.9865	3017.3002	1284.9	401.25
1029.0978	3018.3511	1284	404.1
1029.209	3019.4013	1283.2	405.7
1029.3202	3020.4509	1283.85	403.85
1029.4314	3021.4998	1284.95	405.3
1029.5425	3022.5481	1286.8	407
1029.6535	3023.5958	1287.7	408.45
1029.7645	3024.6428	1288.95	409.6
1029.8755	3025.6892	1298.4	417.2
1029.9864	3026.735	1297.4	418
1030.0973	3027.7802	1297.5	417.6
1030.2082	3028.8247	1302.85	424.65
1030.319	3029.8685	1308.5	429.8
1030.4297	3030.9118	1311	432.1
1030.5404	3031.9544	1309.7	430.75
1030.6511	3032.9963	1318.75	437.9
1030.7617	3034.0376	1327.05	448.4
1030.8723	3035.0783	1329.45	446.6
1030.9829	3036.1184	1336.35	454.65
1031.0934	3037.1578	1339.9	463.75
1031.2038	3038.1966	1336.9	457.45
1031.3142	3039.2348	1338.1	460.05
1031.4246	3040.2723	1340.85	453.95
1031.5349	3041.3092	1337.75	459.65
1031.6452	3042.3455	1344	464.5
1031.7554	3043.3811	1341.4	460.65
1031.8656	3044.4161	1335.5	455.35
1031.9758	3045.4505	1329.85	450.4
1032.0859	3046.4842	1326.35	446.7
1032.1959	3047.5173	1308.85	429.6
1032.3059	3048.5498	1308.7	428.35
1032.4159	3049.5816	1299.25	420.3
1032.5258	3050.6128	1294	411.95
1032.6357	3051.6434	1283.4	402.95
1032.7455	3052.6734	1282.75	401.75
1032.8553	3053.7027	1272.2	394.2
1032.9651	3054.7314	1265.45	386
1033.0748	3055.7594	1262.85	383.3
1033.1845	3056.7868	1263.85	383.05
1033.2941	3057.8136	1246.05	367.2
1033.4037	3058.8398	1244.55	366.8
1033.5132	3059.8653	1242.2	363.7
1033.6227	3060.8902	1233.95	353.7
1033.7321	3061.9145	1230.35	351.2
1033.8415	3062.9381	1227.5	348.1
1033.9509	3063.9612	1232.7	337.7
1034.0602	3064.9835	1213.45	334.75
1034.1694	3066.0053	1208.2	324.2
1034.2787	3067.0264	1199.75	323.5
1034.3878	3068.0469	1193.85	311.85
1034.497	3069.0668	1188.45	306.5
1034.6061	3070.086	1176.5	296.3
1034.7151	3071.1046	1170.6	288.75
1034.8241	3072.1226	1158.55	277.75
1034.9331	3073.1399	1148.45	269.35
1035.042	3074.1567	1139.15	260.45
1035.1508	3075.1727	1136.3	257.5
1035.2597	3076.1882	1117.3	237.75
1035.3684	3077.203	1109.1	227.55
1035.4772	3078.2173	1104.2	224
1035.5859	3079.2308	1098.15	215.25
1035.6945	3080.2438	1094.4	213.7
1035.8031	3081.2561	1079.6	201.75
1035.9117	3082.2678	1074.5	194.8
1036.0202	3083.2789	1068.4	186.5
1036.1286	3084.2893	1058.4	179.4
1036.2371	3085.2991	1060.95	181.85
1036.3454	3086.3083	1055.9	171.85
1036.4538	3087.3169	1051.85	172
1036.562	3088.3248	1043.35	162.75
1036.6703	3089.3321	1040.15	157.45
1036.7785	3090.3388	1032.7	154.75
1036.8866	3091.3449	1029.15	148.4
1036.9948	3092.3503	1030.75	149.65
1037.1028	3093.3551	1025.55	145.65
1037.2108	3094.3593	1021.15	142.85
1037.3188	3095.3629	1017.6	138.5
1037.4267	3096.3658	1018.05	137.3
1037.5346	3097.3681	1012.05	134.15
1037.6425	3098.3698	1014.75	132.95
1037.7503	3099.3708	1009.2	129.55
1037.858	3100.3713	1008.4	129.9
1037.9657	3101.3711	1004.75	125.2
1038.0734	3102.3702	1118.35	118.5
1038.181	3103.3688	1002.4	123.95
1038.2886	3104.3667	999.4	122.6
1038.3961	3105.364	993.95	116.4
1038.5036	3106.3607	993.05	111.65
1038.611	3107.3568	997.6	118.15
1038.7184	3108.3522	989.85	110.3
1038.8257	3109.347	993.3	115
1038.933	3110.3412	995.7	112.65
1039.0403	3111.3348	987.35	110.1
1039.1475	3112.3277	986.75	108.1
1039.2547	3113.32	985.85	106.85
1039.3618	3114.3117	987.75	106.65
1039.4689	3115.3028	987.15	107.85
1039.5759	3116.2932	988.25	105.65
1039.6829	3117.2831	990.05	104.9
1039.7898	3118.2723	981.65	102.65
1039.8967	3119.2608	984.15	104.6
1040.0035	3120.2488	980.05	102.75
1040.1103	3121.2361	976.15	96.6
1040.2171	3122.2229	979.45	99.45
1040.3238	3123.209	975.85	94.05
1040.4305	3124.1944	975.15	96.15
1040.5371	3125.1793	979.1	98.7
1040.6437	3126.1635	971.2	91.2
1040.7502	3127.1471	971.75	94.2
1040.8567	3128.1301	969.85	91.45
1040.9631	3129.1125	970.15	91.6
1041.0695	3130.0942	968.7	90.4
1041.1759	3131.0753	980.05	92.3
1041.2822	3132.0558	970.65	89.8
1041.3884	3133.0357	967.95	89.05
1041.4946	3134.015	966.85	86.6
1041.6008	3134.9936	969.65	88.6
1041.7069	3135.9716	983.95	85.15
1041.813	3136.949	965.9	87.65
1041.919	3137.9258	982.65	82.15
1042.025	3138.902	968.4	83
1042.1309	3139.8775	959.05	79.35
1042.2368	3140.8524	959.25	80.7
1042.3427	3141.8267	962.85	80.15
1042.4485	3142.8004	958.85	80.3
1042.5542	3143.7735	966.35	81.35
1042.6599	3144.7459	960	79.75
1042.7656	3145.7178	956.35	75.1
1042.8712	3146.689	957.05	78.7
1042.9768	3147.6596	955.8	72.45
1043.0823	3148.6295	955.65	76.95
1043.1878	3149.5989	952.5	72.05
1043.2932	3150.5676	951.05	71.7
1043.3986	3151.5357	949.5	71.95
1043.5039	3152.5032	952.15	74.8
1043.6092	3153.4701	948.9	68.9
1043.7145	3154.4364	953.2	71.35
1043.8197	3155.402	947.25	69.55
1043.9248	3156.367	948.1	67.35
1044.03	3157.3315	992.6	70.45
1044.135	3158.2952	951.8	72.15
1044.24	3159.2584	944.55	66.5
1044.345	3160.221	944.5	64.25
1044.4499	3161.1829	948.7	67.75
1044.5548	3162.1442	943.7	63.85
1044.6596	3163.105	941.8	62.9
1044.7644	3164.065	942.75	63.9
1044.8692	3165.0245	944.15	60.4
1044.9739	3165.9834	936.95	58.4
1045.0785	3166.9416	943.6	64.45
1045.1831	3167.8993	942.45	61.7
1045.2877	3168.8563	945.15	63.65
1045.3922	3169.8127	937.95	58.8
1045.4966	3170.7684	938.9	59.85
1045.6011	3171.7236	941.1	61.85
1045.7054	3172.6782	937.95	57.9
1045.8098	3173.6321	940.8	59.05
1045.914	3174.5854	945.35	61.5
1046.0183	3175.5381	936.75	58.6
1046.1224	3176.4902	934.1	54.4
1046.2266	3177.4417	938.1	59.05
1046.3307	3178.3926	937.65	59.2
1046.4347	3179.3428	936.55	57.55
1046.5387	3180.2924	937.05	58.85
1046.6427	3181.2415	936.2	55.55
1046.7466	3182.1899	934.6	53.75
1046.8504	3183.1377	933.05	54.35
1046.9542	3184.0848	936.3	53.3
1047.058	3185.0314	935.2	55.8
1047.1617	3185.9773	931.5	49.9
1047.2654	3186.9227	934.55	53.95
1047.369	3187.8674	935.6	58.3
1047.4726	3188.8115	938.45	55.75
1047.5761	3189.755	932.95	53.8
1047.6796	3190.6979	932.65	53.6
1047.783	3191.6402	931.35	54.15
1047.8864	3192.5818	932	53.25
1047.9898	3193.5229	956.1	55.05
1048.0931	3194.4633	933.2	53.5
1048.1963	3195.4031	931.6	50.25
1048.2995	3196.3423	928.9	50.85
1048.4027	3197.2809	931	52
1048.5058	3198.2189	931.2	50.8
1048.6089	3199.1563	947.6	50.4
1048.7119	3200.0931	927.4	50.65
1048.8148	3201.0292	928.15	50.65
1048.9178	3201.9648	928	47.85
1049.0206	3202.8997	930.9	49.05
1049.1235	3203.834	929.45	50.2
1049.2262	3204.7677	925.65	46.85
1049.329	3205.7008	927	47.2
1049.4317	3206.6333	924.95	46.7
1049.5343	3207.5652	930.4	51.1
1049.6369	3208.4964	927.65	48.25
1049.7394	3209.4271	925.6	46.9
1049.8419	3210.3571	924.4	47.1
1049.9444	3211.2865	925.6	45.05
1050.0468	3212.2154	927.25	48.3
1050.1491	3213.1436	927.75	45.5
1050.2514	3214.0712	931.6	44.1
1050.3537	3214.9982	926.55	47.9
1050.4559	3215.9246	924.85	44.35
1050.5581	3216.8503	924.25	44.9
1050.6602	3217.7755	924.45	45.05
1050.7623	3218.7001	923.75	44.9
1050.8643	3219.624	925.25	47.75
1050.9663	3220.5473	921.9	42.95
1051.0682	3221.4701	923.5	43.75
1051.1701	3222.3922	922.8	43.5
1051.2719	3223.3137	919.95	40.85
1051.3737	3224.2346	922.45	40.6
1051.4754	3225.1549	920.9	43
1051.5771	3226.0746	921.8	42.4
1051.6788	3226.9937	921.7	42.9
1051.7804	3227.9121	921.05	42.75
1051.8819	3228.83	922.6	42.3
1051.9834	3229.7473	920.6	40.95
1052.0849	3230.6639	922.15	43.8
1052.1863	3231.5799	924.1	44.1
1052.2876	3232.4954	923.85	41.95
1052.3889	3233.4102	921.35	41.8
1052.4902	3234.3244	921.05	41.85
1052.5914	3235.238	919.55	40.5
1052.6926	3236.151	944.7	41.65
1052.7937	3237.0634	919.95	41.9
1052.8948	3237.9752	919.65	40.55
1052.9958	3238.8864	919.3	39.85
1053.0968	3239.797	917.25	37.85
1053.1977	3240.7069	919.15	39.7
1053.2986	3241.6163	919.3	38.55
1053.3994	3242.5251	915.9	38.9
1053.5002	3243.4332	918.2	39.95
1053.6009	3244.3408	916.55	36.05
1053.7016	3245.2477	915.3	35.85
1053.8022	3246.154	918	37.4
1053.9028	3247.0598	916.7	36.7
1054.0034	3247.9649	914.25	35.3
1054.1039	3248.8694	915	34.05
1054.2043	3249.7733	915.05	34.85
1054.3047	3250.6766	916.1	36.8
1054.4051	3251.5793	912.5	32.65
1054.5054	3252.4814	913.9	33.8
1054.6056	3253.3829	913.6	37.05
1054.7058	3254.2838	913.7	35.55
1054.806	3255.1841	914.6	36.6
1054.9061	3256.0838	911.55	30.5
1055.0061	3256.9829	913.65	34.95
1055.1062	3257.8814	913.9	32.35
1055.2061	3258.7792	912	30.7
1055.306	3259.6765	912.75	33.5
1055.4059	3260.5731	910.4	32
1055.5057	3261.4692	911.15	31.7
1055.6055	3262.3647	911.3	32.3
1055.7052	3263.2595	912.2	33.1
1055.8049	3264.1538	907.95	27.95
1055.9045	3265.0474	910.1	29.7
1056.0041	3265.9404	906.75	28.75
1056.1036	3266.8329	903.7	26.25
1056.2031	3267.7247	917	27.15
1056.3025	3268.616	905	28.25
1056.4019	3269.5066	903.25	23.3
1056.5013	3270.3966	903.5	21.55
1056.6005	3271.286	901.75	23.15
