Software Version:	3.9.2.0
Unit SN:	10000200
Spectrometer SN:	6960
Date:	3/14/2024 1:10:53 PM
Data Line Index:	25
Spectral Points:	2048
Integration time (ms):	125
Averages:	20
Delay (ms):	30000
Sequence Number:	1
Processing:	dark subtract
Laser Power (mW):	300
Laser Current (mA):	824
Laser Diode Temp (C):	25
Laser Case Temp (C):	28.1
System Temp (C):	28.1
Spectrometer Temp (C):	26.1
CCD Temp (C):	0
Secondary Temp (C):	20.006
Heatsink Temp (C):	24.04
CCDPCB Temp (C):	37.541
SecondaryPCB Temp (C):	35.306

Wavelength	RamanShift	Raw Counts	Dark Subtracted
787.061	30.1047	430.9	21.35
787.2016	32.3739	431.6	26
787.3422	34.6426	430.45	21
787.4828	36.9109	433	21.6
787.6235	39.1787	439.2	24.5
787.7642	41.4461	447	26
787.9049	43.7131	454.35	30.2
788.0456	45.9796	459.65	31.6
788.1863	48.2456	465.25	34.3
788.3271	50.5112	470.95	35.15
788.4679	52.7764	476.2	39.05
788.6087	55.0411	483.25	41.15
788.7496	57.3054	489.35	45.5
788.8904	59.5692	495.6	45.3
789.0313	61.8326	503.35	50.6
789.1722	64.0955	510.35	52.35
789.3132	66.3579	523.05	61.55
789.4541	68.6199	534.25	68.15
789.5951	70.8815	548.85	80.4
789.7361	73.1426	587.6	115.5
789.8771	75.4032	674.65	194.8
790.0181	77.6634	887.4	406.15
790.1592	79.9231	1384.4	896.95
790.3003	82.1824	2464.45	1969.6
790.4414	84.4412	4358.1	3847.85
790.5825	86.6995	6954.05	6430.85
790.7237	88.9574	9535.3	8997.7
790.8648	91.2148	11367.55	10817.95
791.006	93.4717	12216.25	11660.35
791.1472	95.7282	12417.7	11859.45
791.2885	97.9842	12327.7	11765.35
791.4297	100.2398	12046.05	11483
791.571	102.4949	11755.25	11187.35
791.7123	104.7495	11393.75	10824.05
791.8536	107.0036	11061.4	10491.1
791.9949	109.2573	10744.25	10172.1
792.1363	111.5105	10449.2	9871.8
792.2777	113.7632	10180.9	9608.3
792.4191	116.0154	9960.65	9371.1
792.5605	118.2672	9805.65	9227
792.7019	120.5185	9619.9	9038.55
792.8434	122.7693	9525.7	8946.5
792.9849	125.0197	9429.25	8845.05
793.1264	127.2696	9330.35	8743.5
793.2679	129.519	9240.25	8651.05
793.4094	131.7679	9148.7	8558.85
793.551	134.0163	9051.05	8456.65
793.6926	136.2642	8916.55	8318.85
793.8342	138.5117	8779.15	8174.95
793.9758	140.7587	8627.1	8023.7
794.1175	143.0052	8520.65	7914.65
794.2591	145.2512	8380.7	7774.3
794.4008	147.4967	8267.1	7658.75
794.5425	149.7417	8165.15	7553.1
794.6842	151.9863	8100.7	7485.7
794.826	154.2304	8056.5	7440.8
794.9677	156.4739	7984.1	7360.75
795.1095	158.717	7950.05	7328.55
795.2513	160.9596	7902.3	7275.6
795.3931	163.2017	7794.5	7164.95
795.535	165.4433	7703.5	7071.55
795.6768	167.6844	7561.5	6927.2
795.8187	169.925	7450.65	6814.1
795.9606	172.1651	7321.45	6683.25
796.1025	174.4047	7216.2	6572.4
796.2445	176.6439	7118.35	6472.85
796.3864	178.8825	7019.1	6371.9
796.5284	181.1206	6970.65	6319.8
796.6704	183.3582	6904.45	6251.1
796.8124	185.5954	6893.05	6235.8
796.9544	187.832	6862.3	6205.2
797.0965	190.0681	6842.3	6180.45
797.2386	192.3037	6834.6	6170.95
797.3806	194.5388	6831.45	6164.1
797.5228	196.7734	6857.95	6189.65
797.6649	199.0075	6856.65	6184.25
797.807	201.2411	6914.65	6237.1
797.9492	203.4742	6922.2	6243.35
798.0914	205.7068	6978	6298.65
798.2336	207.9389	7047.9	6370.7
798.3758	210.1704	7112.55	6432.7
798.518	212.4015	7122.25	6434.05
798.6603	214.632	7191.85	6504.3
798.8025	216.862	7223.3	6542.75
798.9448	219.0915	7239.7	6567.5
799.0871	221.3205	7263.7	6596.25
799.2294	223.549	7314.6	6649.9
799.3718	225.777	7337.2	6674.9
799.5141	228.0044	7344.65	6679.4
799.6565	230.2314	7429.45	6765.15
799.7989	232.4578	7474.7	6810.6
799.9413	234.6837	7483.15	6809.8
800.0837	236.909	7519.2	6845.9
800.2262	239.1339	7529.85	6835.1
800.3687	241.3582	7466.45	6782.4
800.5111	243.582	7446.35	6737.35
800.6536	245.8053	7418.05	6715.85
800.7961	248.0281	7385.3	6688.2
800.9387	250.2503	7375.2	6675.95
801.0812	252.472	7402.5	6695.7
801.2238	254.6932	7420.4	6711.8
801.3664	256.9139	7453.85	6744.7
801.509	259.134	7522.3	6808.3
801.6516	261.3536	7610.6	6899.9
801.7942	263.5727	7711.3	6994.15
801.9369	265.7912	7793.2	7080.9
802.0795	268.0092	7911.85	7197.55
802.2222	270.2267	8011.75	7297.4
802.3649	272.4436	8055.7	7340.6
802.5076	274.6601	8067.3	7340.7
802.6504	276.8759	8027.05	7306.4
802.7931	279.0913	8010.8	7292.9
802.9359	281.3061	7980.05	7256.05
803.0787	283.5204	7950.75	7222.95
803.2215	285.7341	7925.8	7197.5
803.3643	287.9473	7959.75	7230.2
803.5071	290.16	7955.05	7220.25
803.6499	292.3721	7975.05	7246.8
803.7928	294.5837	7992.95	7262.1
803.9357	296.7947	8074.95	7345.95
804.0786	299.0052	8146.4	7419.5
804.2215	301.2152	8146.05	7411.2
804.3644	303.4246	8071.55	7342.2
804.5074	305.6334	7963.9	7233.1
804.6503	307.8418	7849.05	7112
804.7933	310.0495	7677.7	6941.5
804.9363	312.2568	7509.35	6773.9
805.0793	314.4635	7336.1	6597.1
805.2223	316.6696	7232.4	6492.95
805.3653	318.8752	7117.35	6368.45
805.5084	321.0802	7078.05	6341
805.6514	323.2847	7097.6	6359.6
805.7945	325.4887	7089.85	6351
805.9376	327.692	7089.35	6345.45
806.0807	329.8949	7102.35	6359.55
806.2238	332.0972	7050.2	6304.35
806.367	334.2989	6964.65	6215.25
806.5101	336.5001	6861.65	6112.65
806.6533	338.7007	6789.35	6039.45
806.7965	340.9008	6728.85	5976.05
806.9397	343.1003	6645.95	5890.35
807.0829	345.2992	6611.1	5855.65
807.2261	347.4976	6562	5806.45
807.3693	349.6955	6514.55	5754.55
807.5126	351.8927	6490.2	5730.2
807.6559	354.0895	6475.2	5703.2
807.7991	356.2856	6442.55	5681.7
807.9424	358.4812	6393.35	5631.9
808.0857	360.6763	6418.3	5656
808.2291	362.8707	6393	5628.75
808.3724	365.0646	6418	5652
808.5158	367.258	6426.65	5658.95
808.6591	369.4508	6415.5	5643.75
808.8025	371.643	6487.15	5715.55
808.9459	373.8346	6496.6	5723.85
809.0893	376.0257	6558.05	5779.7
809.2327	378.2162	6586.05	5810
809.3762	380.4062	6573.7	5794.95
809.5196	382.5956	6487.75	5708.2
809.6631	384.7844	6439.5	5663.35
809.8066	386.9726	6400.9	5621
809.9501	389.1603	6352.7	5574.8
810.0936	391.3474	6348.85	5536.55
810.2371	393.5339	6316.5	5537.3
810.3806	395.7199	6265.55	5491.3
810.5241	397.9052	6309.7	5539
810.6677	400.09	6332.7	5563
810.8113	402.2743	6389.05	5617
810.9548	404.4579	6448.9	5676.95
811.0984	406.641	6530.9	5759.55
811.2421	408.8235	6608.95	5836.2
811.3857	411.0054	6658.85	5884.35
811.5293	413.1868	6762.55	5983.3
811.673	415.3675	6813.3	6032.35
811.8166	417.5477	6814.75	6032.85
811.9603	419.7273	6761.8	5975.65
812.104	421.9064	6697.6	5906.7
812.2477	424.0848	6650.95	5864.3
812.3914	426.2627	6558.55	5769.2
812.5351	428.4399	6475.8	5684.05
812.6788	430.6166	6346.3	5551.25
812.8226	432.7928	6206.15	5412.2
812.9663	434.9683	6077.05	5281.4
813.1101	437.1432	5997.95	5201.7
813.2539	439.3176	5906	5108.05
813.3977	441.4914	5860	5062.9
813.5415	443.6645	5864.2	5064.35
813.6853	445.8371	5831.65	5032.1
813.8291	448.0091	5826.55	5026.15
813.973	450.1806	5818.4	5020.35
814.1168	452.3514	5770.8	4966.55
814.2607	454.5216	5807.2	4995.9
814.4046	456.6913	5770.1	4967.45
814.5485	458.8603	5791.3	4988.8
814.6924	461.0288	5825.4	5022.65
814.8363	463.1967	5807.2	5001.65
814.9802	465.3639	5817.8	5012.15
815.1241	467.5306	5783.15	4978.65
815.2681	469.6967	5776.35	4970.25
815.412	471.8622	5788.25	4981.85
815.556	474.0271	5794.05	4988.3
815.7	476.1914	5798.5	4989.3
815.844	478.3551	5805.35	4997.35
815.988	480.5182	5823.15	5015.7
816.132	482.6807	5845.95	5038.35
816.276	484.8426	5897.35	5088.95
816.4201	487.0039	6032.3	5222.95
816.5641	489.1647	6172.45	5362.35
816.7082	491.3248	6296.45	5486.2
816.8522	493.4843	6324.65	5513.2
816.9963	495.6432	6309.9	5499.05
817.1404	497.8015	6233.75	5420.05
817.2845	499.9592	6183.95	5373.25
817.4286	502.1163	6075.5	5260.15
817.5727	504.2728	5970.65	5156.75
817.7168	506.4287	5888.5	5073.7
817.861	508.5839	5769.2	4955.45
818.0051	510.7386	5666.2	4853.1
818.1493	512.8927	5639.3	4815.25
818.2935	515.0461	5644.4	4831.25
818.4377	517.199	5652.3	4835.75
818.5818	519.3512	5720.7	4904.9
818.726	521.5029	5845.55	5022.65
818.8703	523.6539	5922.35	5104.35
819.0145	525.8043	5970.65	5151.95
819.1587	527.9541	5947.5	5126.95
819.303	530.1033	5872.1	5052.7
819.4472	532.2519	5776.05	4955.5
819.5915	534.3999	5730.95	4907.3
819.7357	536.5472	5767.35	4946.95
819.88	538.694	5837.2	5013.45
820.0243	540.8401	5927.25	5106.05
820.1686	542.9856	6007.35	5183.45
820.3129	545.1305	5999.05	5173.4
820.4572	547.2748	5967.45	5142.15
820.6016	549.4185	5909.95	5080.4
820.7459	551.5615	5861.05	5036.1
820.8902	553.704	5860.8	5034.35
821.0346	555.8458	5869.95	5041.75
821.1789	557.987	5925.55	5099.45
821.3233	560.1276	6011.65	5183.45
821.4677	562.2675	6145.55	5318.4
821.6121	564.4069	6329.6	5502.3
821.7565	566.5456	6510.4	5683.35
821.9009	568.6837	6534.9	5705.35
822.0453	570.8212	6415.55	5588.6
822.1897	572.958	6152.95	5325.75
822.3342	575.0942	5932.4	5105.85
822.4786	577.2299	5745.95	4918.6
822.6231	579.3648	5656.5	4828.8
822.7675	581.4992	5615.35	4789.1
822.912	583.6329	5646.95	4818
823.0565	585.766	5715.9	4890.5
823.201	587.8985	5751.45	4922.4
823.3454	590.0304	5804.2	4952.05
823.4899	592.1616	5782.6	4950.1
823.6345	594.2922	5736.35	4906.05
823.779	596.4222	5654.1	4822.1
823.9235	598.5515	5573	4741.15
824.068	600.6802	5501.4	4668.1
824.2126	602.8083	5439.2	4606.9
824.3571	604.9358	5414.05	4579.35
824.5017	607.0626	5407.5	4573.1
824.6462	609.1888	5445.4	4610.55
824.7908	611.3144	5513.55	4677.35
824.9354	613.4393	5568.1	4731.1
825.08	615.5636	5616.2	4779.95
825.2246	617.6873	5607.05	4773.35
825.3692	619.8103	5607.05	4770.2
825.5138	621.9327	5534.1	4696
825.6584	624.0544	5424.45	4592.1
825.803	626.1756	5373.1	4539.3
825.9477	628.2961	5302.4	4466.9
826.0923	630.4159	5280.7	4444.5
826.237	632.5351	5263.2	4427.25
826.3816	634.6537	5254.9	4416.4
826.5263	636.7716	5254.95	4416.2
826.6709	638.8889	5254.25	4416.45
826.8156	641.0056	5259.85	4422.5
826.9603	643.1216	5238.75	4396.1
827.105	645.237	5237.6	4396.05
827.2497	647.3518	5202.15	4361.7
827.3944	649.4659	5181.2	4339.3
827.5391	651.5793	5137.4	4294.3
827.6838	653.6922	5114.4	4273.35
827.8285	655.8043	5107.4	4266.1
827.9733	657.9159	5110.2	4267.75
828.118	660.0268	5092.3	4247.5
828.2627	662.137	5109.3	4268.15
828.4075	664.2466	5092.1	4245.85
828.5522	666.3556	5085.3	4241.65
828.697	668.4639	5069.75	4220.45
828.8418	670.5716	5056.75	4212.75
828.9865	672.6786	5039.4	4193.95
829.1313	674.785	4998.05	4151.25
829.2761	676.8907	4991.45	4146.85
829.4209	678.9958	4993.05	4147.65
829.5657	681.1002	4988.7	4142.6
829.7105	683.204	4987.95	4137.2
829.8553	685.3072	4965.55	4116.05
830.0001	687.4097	4950.95	4104
830.1449	689.5115	4938.6	4088.55
830.2898	691.6127	4932.3	4088.4
830.4346	693.7132	4924.3	4075.35
830.5794	695.8131	4957.95	4103.7
830.7243	697.9123	4938.15	4088.8
830.8691	700.0109	4947.15	4099.45
831.014	702.1089	4948.05	4101.8
831.1588	704.2061	4963.85	4114.8
831.3037	706.3028	4992.05	4141.5
831.4486	708.3987	5024.9	4176.45
831.5935	710.4941	5039	4191.1
831.7383	712.5887	5044.3	4194.8
831.8832	714.6827	5052.35	4195.5
832.0281	716.7761	5085.4	4233.25
832.173	718.8688	5142.4	4292.1
832.3179	720.9608	5201.95	4348.85
832.4628	723.0522	5272.3	4415.05
832.6077	725.1429	5273.9	4422.8
832.7527	727.233	5299.15	4446.05
832.8976	729.3224	5309	4456.45
833.0425	731.4112	5310	4455.35
833.1874	733.4993	5261.8	4406.15
833.3324	735.5867	5161.05	4305.1
833.4773	737.6735	5076.3	4219.35
833.6222	739.7596	4991.8	4134.15
833.7672	741.845	4955.2	4102.1
833.9122	743.9298	4924.45	4065.4
834.0571	746.014	4894.6	4041.5
834.2021	748.0974	4903.85	4048.35
834.347	750.1802	4900.2	4045.3
834.492	752.2624	4902.7	4046.75
834.637	754.3439	4896.85	4039.25
834.782	756.4247	4930.5	4066.1
834.9269	758.5048	4976.45	4122
835.0719	760.5843	5066.95	4210.4
835.2169	762.6631	5191.2	4333.6
835.3619	764.7413	5382.7	4525.5
835.5069	766.8188	5664.55	4805.5
835.6519	768.8956	5879.35	5018.3
835.7969	770.9718	6033.25	5177
835.9419	773.0473	6012.6	5156
836.0869	775.1221	5919.1	5061.7
836.232	777.1962	5822.95	4965.75
836.377	779.2697	5793.45	4936
836.522	781.3426	5859.55	4990.65
836.667	783.4147	5884.65	5024.8
836.8121	785.4862	5904.1	5048.05
836.9571	787.557	5835	4974.6
837.1021	789.6271	5656.85	4797.55
837.2472	791.6966	5400.75	4542.65
837.3922	793.7654	5149.5	4291.95
837.5373	795.8335	4989.6	4130.65
837.6823	797.901	4865.95	4008.3
837.8274	799.9678	4781.35	3920.4
837.9724	802.0339	4773.95	3915.55
838.1175	804.0993	4785.15	3916.65
838.2626	806.1641	4729.6	3869.2
838.4076	808.2282	4708.75	3845.3
838.5527	810.2916	4681.65	3819.6
838.6978	812.3544	4634.5	3775.55
838.8428	814.4164	4599.35	3740.9
838.9879	816.4778	4618.3	3758.1
839.133	818.5385	4630.9	3769.9
839.2781	820.5986	4688.45	3828.3
839.4232	822.658	4770.4	3905.45
839.5682	824.7166	4878.85	4018.9
839.7133	826.7747	5079.55	4218.65
839.8584	828.832	5276.55	4414.1
840.0035	830.8886	5403.8	4541.15
840.1486	832.9446	5489.55	4627.85
840.2937	834.9999	5437.15	4576.9
840.4388	837.0545	5338.25	4474.05
840.5839	839.1085	5197.4	4334.75
840.729	841.1618	5064.6	4197.75
840.8741	843.2143	4969.65	4105.7
841.0192	845.2662	4879.25	4016.5
841.1643	847.3175	4829.9	3969.65
841.3095	849.368	4785.05	3922.25
841.4546	851.4179	4744.9	3882
841.5997	853.467	4714.1	3850.35
841.7448	855.5155	4701.35	3836.8
841.8899	857.5633	4668.7	3806
842.0351	859.6105	4609.85	3747.65
842.1802	861.6569	4577.05	3713.9
842.3253	863.7027	4554.7	3690
842.4704	865.7478	4529.65	3665.9
842.6156	867.7922	4507.1	3641.8
842.7607	869.8359	4504.9	3639.2
842.9058	871.8789	4519	3652.05
843.0509	873.9212	4563.5	3665.8
843.1961	875.9629	4550.65	3686.1
843.3412	878.0039	4596.1	3729
843.4863	880.0441	4628.3	3763.4
843.6315	882.0837	4654.1	3787
843.7766	884.1226	4661.8	3796.1
843.9218	886.1609	4691.2	3826.35
844.0669	888.1984	4725.1	3859.8
844.212	890.2352	4786.55	3922.65
844.3572	892.2714	4807.3	3938.85
844.5023	894.3069	4781.75	3914.3
844.6475	896.3416	4707.7	3839.85
844.7926	898.3757	4638	3773.3
844.9377	900.4091	4602.6	3734.7
845.0829	902.4418	4590.7	3721
845.228	904.4739	4609.55	3738.8
845.3732	906.5052	4632.65	3765.8
845.5183	908.5358	4600.7	3734.95
845.6635	910.5658	4550.8	3680.45
845.8086	912.595	4475.05	3606.6
845.9538	914.6236	4388.65	3522.6
846.0989	916.6515	4335.95	3469.65
846.2441	918.6786	4296.55	3429.55
846.3892	920.7051	4300.65	3431.25
846.5344	922.7309	4308.25	3441.85
846.6795	924.756	4306.1	3436.45
846.8246	926.7804	4348.8	3478.25
846.9698	928.8041	4336.3	3466.6
847.1149	930.8272	4356.5	3488.4
847.2601	932.8495	4336.5	3464.45
847.4052	934.8711	4346.95	3477.55
847.5504	936.892	4329	3459.45
847.6955	938.9123	4308	3438.25
847.8407	940.9318	4331.2	3462.1
847.9858	942.9506	4325.3	3454.1
848.131	944.9688	4298.6	3429.2
848.2761	946.9862	4263.25	3394.2
848.4213	949.003	4210.75	3340.65
848.5664	951.019	4159.15	3288.8
848.7115	953.0344	4125.35	3253.15
848.8567	955.0491	4110.15	3240.05
849.0018	957.063	4124.5	3252.15
849.147	959.0763	4147.5	3279.25
849.2921	961.0888	4172.55	3299.1
849.4373	963.1007	4168.4	3299.2
849.5824	965.1119	4183.45	3312.8
849.7275	967.1223	4182.3	3313.55
849.8727	969.1321	4172.05	3302.55
850.0178	971.1412	4155.8	3283.3
850.1629	973.1495	4152.95	3282.25
850.3081	975.1572	4172.6	3268.8
850.4532	977.1641	4157.3	3287.65
850.5983	979.1704	4131.35	3258.75
850.7435	981.1759	4134.55	3260.1
850.8886	983.1808	4125.1	3252.1
851.0337	985.1849	4134.25	3251.8
851.1788	987.1884	4141.9	3266.8
851.324	989.1911	4177.7	3304.4
851.4691	991.1932	4204.4	3331
851.6142	993.1945	4211.3	3338.6
851.7593	995.1951	4204.55	3332.2
851.9045	997.1951	4204.3	3325.95
852.0496	999.1943	4171.15	3300.75
852.1947	1001.1928	4175.75	3301.4
852.3398	1003.1906	4202.4	3329.6
852.4849	1005.1877	4237.4	3364.85
852.63	1007.1841	4270.35	3396.55
852.7751	1009.1798	4278.95	3406.4
852.9202	1011.1748	4253.9	3381.85
853.0653	1013.1691	4186.45	3312.65
853.2104	1015.1627	4094.4	3221.1
853.3555	1017.1556	4015.65	3141.4
853.5006	1019.1477	3966.9	3091.95
853.6457	1021.1392	3933.85	3061.3
853.7908	1023.1299	3927.5	3053.2
853.9359	1025.12	3930.3	3053.9
854.081	1027.1093	3940.6	3068.9
854.2261	1029.0979	3984.15	3111.1
854.3712	1031.0859	4032.15	3159.7
854.5163	1033.0731	4042.4	3168.35
854.6613	1035.0596	4014	3143.85
854.8064	1037.0454	3960.3	3087.25
854.9515	1039.0304	3926.05	3051.1
855.0965	1041.0148	3888.35	3015.6
855.2416	1042.9985	3842.3	2966.1
855.3867	1044.9814	3820.4	2948.1
855.5317	1046.9636	3810.85	2933.4
855.6768	1048.9452	3808.35	2935.65
855.8219	1050.926	3815	2941.5
855.9669	1052.9061	3827.55	2953.9
856.112	1054.8855	3816.75	2941.4
856.257	1056.8642	3835.85	2960.2
856.4021	1058.8421	3850.75	2974.1
856.5471	1060.8194	3863.55	2989.75
856.6921	1062.7959	3874.2	3000.05
856.8372	1064.7717	3900.1	3024.4
856.9822	1066.7469	3926.45	3050.9
857.1272	1068.7213	3934.6	3057.1
857.2723	1070.695	3971	3097.6
857.4173	1072.6679	3990.4	3115.2
857.5623	1074.6402	3995.6	3120.15
857.7073	1076.6117	3993	3112.45
857.8523	1078.5826	3962.25	3087.8
857.9973	1080.5527	3889.15	3010.4
858.1423	1082.5221	3849.7	2973.1
858.2873	1084.4908	3835.7	2960
858.4323	1086.4587	3822.3	2945.95
858.5773	1088.426	3837.75	2962.1
858.7223	1090.3925	3839.1	2960.05
858.8673	1092.3584	3860.2	2983.55
859.0123	1094.3235	3851.7	2977.85
859.1573	1096.2879	3881.4	3004.55
859.3022	1098.2515	3926.6	3051.45
859.4472	1100.2145	3986.55	3109.25
859.5922	1102.1767	4054.5	3177.75
859.7371	1104.1382	4137.1	3260.25
859.8821	1106.099	4233.1	3356.35
860.027	1108.0591	4326.65	3450.6
860.172	1110.0185	4387.9	3510.8
860.3169	1111.9771	4417.45	3541.15
860.4619	1113.9351	4393.35	3518.15
860.6068	1115.8923	4363.05	3488.05
860.7517	1117.8488	4297.1	3417.7
860.8967	1119.8045	4244.25	3368.85
861.0416	1121.7596	4158.85	3281.85
861.1865	1123.7139	4099.35	3224.6
861.3314	1125.6675	4071.4	3196.3
861.4763	1127.6204	4075.5	3198.5
861.6212	1129.5726	4067.6	3187.35
861.7661	1131.524	4064.8	3188.5
861.911	1133.4748	3992.35	3113.1
862.0559	1135.4248	3911.7	3033.9
862.2008	1137.3741	3822.3	2943.95
862.3457	1139.3226	3801.9	2922.1
862.4905	1141.2705	3775.2	2897.7
862.6354	1143.2176	3737.3	2856.25
862.7803	1145.164	3726.8	2848.9
862.9251	1147.1097	3701.95	2824.7
863.07	1149.0546	3658.55	2779.6
863.2148	1150.9989	3633.2	2756.25
863.3597	1152.9424	3589.55	2711.7
863.5045	1154.8852	3557.3	2680.7
863.6493	1156.8272	3523.55	2646.45
863.7942	1158.7686	3534.4	2649.3
863.939	1160.7092	3526.15	2650.75
864.0838	1162.6491	3549.35	2670.55
864.2286	1164.5883	3581.95	2704.85
864.3734	1166.5267	3628.2	2748.8
864.5182	1168.4644	3685.25	2807.6
864.663	1170.4014	3775.4	2893.75
864.8078	1172.3377	3854.05	2978.05
864.9526	1174.2732	3957.15	3080.95
865.0974	1176.2081	4118.9	3240.75
865.2421	1178.1421	4327.25	3444.1
865.3869	1180.0755	4511.95	3637.2
865.5317	1182.0082	4674	3798.2
865.6764	1183.9401	4724.25	3846.2
865.8212	1185.8713	4650.15	3773.75
865.9659	1187.8017	4514.6	3637.25
866.1106	1189.7315	4356.9	3479.7
866.2554	1191.6605	4214.6	3306.6
866.4001	1193.5888	4083	3207.75
866.5448	1195.5163	4005.4	3126.1
866.6895	1197.4432	3954.95	3077.55
866.8342	1199.3693	3929.15	3050.85
866.9789	1201.2947	3930.55	3045.8
867.1236	1203.2193	3905.75	3026.45
867.2683	1205.1432	3894.25	3014.75
867.413	1207.0664	3879.55	3000.3
867.5576	1208.9889	3882.55	3002.15
867.7023	1210.9106	3885.5	3006.45
867.847	1212.8316	3886.75	3010.85
867.9916	1214.7519	3912.05	3025.1
868.1363	1216.6715	3910.55	3035.7
868.2809	1218.5903	3949.25	3072.25
868.4255	1220.5084	3972.75	3094.25
868.5701	1222.4257	4018.3	3139.85
868.7148	1224.3424	4037.8	3161.55
868.8594	1226.2583	4085.1	3200.9
869.004	1228.1735	4142.7	3264.55
869.1486	1230.0879	4209.45	3331
869.2932	1232.0016	4278.8	3401.8
869.4377	1233.9146	4352.5	3473.65
869.5823	1235.8269	4342.95	3464.7
869.7269	1237.7384	4337.25	3461.4
869.8715	1239.6492	4283.25	3404.65
870.016	1241.5592	4285.2	3407.3
870.1606	1243.4686	4303.9	3424.3
870.3051	1245.3772	4372.05	3493.85
870.4496	1247.285	4477.7	3598.65
870.5941	1249.1922	4585	3705
870.7387	1251.0986	4648.1	3771.05
870.8832	1253.0042	4687.85	3809.3
871.0277	1254.9092	4752.15	3871.45
871.1722	1256.8134	4787.6	3908.3
871.3167	1258.7169	4857	3975.1
871.4611	1260.6196	4907.6	4030.45
871.6056	1262.5216	5000	4119.15
871.7501	1264.4229	5044.95	4167.4
871.8945	1266.3234	5120.1	4240.25
872.039	1268.2232	5155.8	4274.75
872.1834	1270.1223	5180.9	4299.75
872.3278	1272.0207	5187.15	4306.15
872.4723	1273.9183	5192.7	4306
872.6167	1275.8151	5159.7	4279.05
872.7611	1277.7113	5138.9	4257.8
872.9055	1279.6067	5193.15	4314.05
873.0499	1281.5014	5296.3	4414.65
873.1943	1283.3953	5492	4611.8
873.3386	1285.2885	5719.35	4841.85
873.483	1287.181	5946.85	5065.8
873.6274	1289.0727	6170	5290.8
873.7717	1290.9637	6310.95	5432
873.9161	1292.854	6395.75	5515.8
874.0604	1294.7435	6394.1	5515
874.2047	1296.6323	6344.2	5464.95
874.349	1298.5204	6261.25	5376.25
874.4933	1300.4077	6127.6	5245.4
874.6376	1302.2943	6004.6	5126.4
874.7819	1304.1802	5880.95	5001.6
874.9262	1306.0653	5661.3	4780.15
875.0705	1307.9497	5467.75	4588.35
875.2147	1309.8333	5300.4	4420.4
875.359	1311.7162	5170.95	4292.8
875.5032	1313.5984	5105.05	4222.65
875.6475	1315.4798	5045.65	4148.4
875.7917	1317.3605	5002.5	4105.3
875.9359	1319.2405	4973.5	4091.4
876.0801	1321.1197	4857.35	3975.35
876.2243	1322.9982	4738.85	3854.85
876.3685	1324.876	4613.75	3735.15
876.5127	1326.753	4484.65	3603.75
876.6569	1328.6293	4384.45	3502.25
876.801	1330.5048	4301.6	3419.85
876.9452	1332.3796	4213.55	3333.75
877.0893	1334.2537	4191.9	3284.6
877.2335	1336.127	4134	3252.4
877.3776	1337.9996	4092.95	3212.55
877.5217	1339.8714	4098.15	3217.35
877.6658	1341.7426	4137.95	3216.45
877.8099	1343.6129	4110.15	3231.55
877.954	1345.4826	4101.05	3222.3
878.0981	1347.3515	4089.4	3206.55
878.2422	1349.2196	4088.65	3205.25
878.3862	1351.087	4090.35	3208.5
878.5303	1352.9537	4090.4	3210
878.6743	1354.8197	4118.5	3237.45
878.8184	1356.6849	4208.4	3327.15
878.9624	1358.5493	4258.75	3378.45
879.1064	1360.4131	4332.3	3452.15
879.2504	1362.276	4397.35	3517.3
879.3944	1364.1383	4421.8	3539.9
879.5384	1365.9998	4377.5	3491.8
879.6823	1367.8606	4260.35	3380.15
879.8263	1369.7206	4128.65	3246.9
879.9702	1371.5799	4018.2	3135.45
880.1142	1373.4384	3924.3	3042.95
880.2581	1375.2962	3843.75	2962.2
880.402	1377.1533	3714.75	2833.15
880.5459	1379.0096	3565.3	2682.55
880.6898	1380.8652	3455.45	2574.1
880.8337	1382.7201	3335.05	2453.45
880.9776	1384.5742	3250.35	2368.95
881.1215	1386.4275	3182.5	2297
881.2653	1388.2802	3144.8	2263.85
881.4092	1390.132	3101	2219.8
881.553	1391.9832	3086.15	2205.4
881.6968	1393.8336	3046.7	2164.75
881.8406	1395.6832	3031.2	2148.3
881.9844	1397.5322	3023.95	2140.55
882.1282	1399.3803	3021.4	2135.7
882.272	1401.2278	2998.9	2116.25
882.4158	1403.0745	2987.9	2107.35
882.5595	1404.9204	2980.25	2097.65
882.7033	1406.7656	2980.15	2097.25
882.847	1408.6101	2984.7	2104.2
882.9908	1410.4538	3000.25	2117.8
883.1345	1412.2968	3018.55	2138
883.2782	1414.139	3017.4	2136.4
883.4219	1415.9805	3042.9	2163.05
883.5656	1417.8213	3089	2200.05
883.7092	1419.6613	3121.95	2239.8
883.8529	1421.5006	3182.2	2301.35
883.9965	1423.3391	3259.65	2378.3
884.1402	1425.1769	3380.15	2494.4
884.2838	1427.0139	3541.6	2659.95
884.4274	1428.8502	3730.35	2847.3
884.571	1430.6858	3939.95	3060.3
884.7146	1432.5206	4062.45	3180
884.8582	1434.3547	4136.2	3256.05
885.0018	1436.188	4149.35	3267.3
885.1453	1438.0206	4120.75	3239.25
885.2889	1439.8524	4045.85	3163.4
885.4324	1441.6835	4021.05	3138.15
885.5759	1443.5139	4001.2	3115.75
885.7194	1445.3435	3967.65	3085.9
885.8629	1447.1724	3945.65	3064.4
886.0064	1449.0005	3928.4	3047.05
886.1499	1450.8279	3899.35	3016.25
886.2933	1452.6545	3900.75	3017.95
886.4368	1454.4804	3921.95	3040.8
886.5802	1456.3056	3927.7	3038.05
886.7237	1458.13	3889.4	3006.85
886.8671	1459.9536	3825.35	2944.9
887.0105	1461.7766	3739.4	2857.15
887.1539	1463.5987	3605.55	2722.8
887.2972	1465.4202	3492.95	2610.1
887.4406	1467.2409	3372.2	2490.35
887.584	1469.0608	3268.5	2387.5
887.7273	1470.88	3181.55	2298.25
887.8706	1472.6984	3091.95	2211.2
888.0139	1474.5161	3012.6	2128.1
888.1572	1476.3331	2963.2	2081.95
888.3005	1478.1493	2918.65	2036
888.4438	1479.9648	2890.15	2006.95
888.5871	1481.7795	2860.45	1979.15
888.7303	1483.5935	2838.4	1957.75
888.8736	1485.4067	2821.35	1940.25
889.0168	1487.2192	2806.65	1924.2
889.16	1489.031	2812.65	1930.2
889.3032	1490.842	2788.45	1906.85
889.4464	1492.6522	2761.95	1879.05
889.5896	1494.4618	2767	1883.35
889.7327	1496.2705	2748	1866.45
889.8759	1498.0785	2739.8	1856.7
890.019	1499.8858	2719.95	1837.4
890.1622	1501.6924	2707.7	1825.6
890.3053	1503.4981	2700.3	1818.15
890.4484	1505.3032	2683.4	1803.1
890.5914	1507.1075	2670.55	1787.85
890.7345	1508.911	2641.1	1761.35
890.8776	1510.7138	2643.55	1760.9
891.0206	1512.5159	2610.8	1728.35
891.1637	1514.3172	2602.9	1722.55
891.3067	1516.1178	2573.65	1693.15
891.4497	1517.9176	2577.6	1693.25
891.5927	1519.7166	2572.95	1691.95
891.7357	1521.515	2564.7	1676.65
891.8786	1523.3126	2550.85	1669.65
892.0216	1525.1094	2540.8	1657.35
892.1645	1526.9055	2526.2	1645.6
892.3074	1528.7008	2525.6	1642.8
892.4503	1530.4954	2504.65	1617.35
892.5932	1532.2893	2499.4	1619
892.7361	1534.0824	2504.4	1617.7
892.879	1535.8747	2498.9	1616.75
893.0218	1537.6663	2501.2	1616.7
893.1647	1539.4572	2495.9	1613
893.3075	1541.2473	2499.3	1615.3
893.4503	1543.0367	2504.2	1620.65
893.5931	1544.8253	2500.85	1616.25
893.7359	1546.6132	2519.3	1635.95
893.8787	1548.4003	2529.9	1637.3
894.0214	1550.1867	2542.65	1651.75
894.1642	1551.9723	2556.9	1669.4
894.3069	1553.7572	2588.45	1704.75
894.4496	1555.5414	2625.85	1744.15
894.5923	1557.3247	2694.6	1810.8
894.735	1559.1074	2742.9	1861.1
894.8777	1560.8893	2816.9	1935.7
895.0204	1562.6705	2885.2	2005.8
895.163	1564.4509	2941.9	2061
895.3056	1566.2305	2982.95	2101.2
895.4482	1568.0094	2998.5	2119.6
895.5908	1569.7876	2987.85	2106.5
895.7334	1571.565	2983.55	2100.8
895.876	1573.3417	2979.95	2100.1
896.0186	1575.1176	2988.7	2106.25
896.1611	1576.8928	3001.3	2120.55
896.3036	1578.6672	3002.1	2121.55
896.4461	1580.4409	3002.3	2121.3
896.5886	1582.2138	3025.05	2139.8
896.7311	1583.986	3059.65	2178.45
896.8736	1585.7575	3106.45	2227.1
897.0161	1587.5282	3131.55	2250.25
897.1585	1589.2981	3166.4	2283.75
897.3009	1591.0673	3220.45	2339.85
897.4433	1592.8358	3253.4	2373.7
897.5857	1594.6035	3293.95	2408.9
897.7281	1596.3704	3313.5	2430.55
897.8705	1598.1366	3332.5	2449.85
898.0128	1599.9021	3367.1	2488.35
898.1551	1601.6668	3383.7	2499.4
898.2975	1603.4308	3433.8	2551.35
898.4398	1605.194	3496.55	2609.35
898.5821	1606.9564	3562.5	2680.15
898.7243	1608.7182	3677.7	2792.35
898.8666	1610.4791	3786.25	2903.9
899.0088	1612.2394	3908.3	3027.7
899.1511	1613.9988	4056.5	3176.15
899.2933	1615.7576	4169.05	3287.7
899.4355	1617.5156	4271.85	3387.8
899.5776	1619.2728	4289.4	3407.4
899.7198	1621.0293	4257.75	3377.45
899.862	1622.785	4163.35	3276.5
900.0041	1624.54	4031.55	3146.6
900.1462	1626.2942	3871.2	2988.6
900.2883	1628.0477	3700.5	2814.9
900.4304	1629.8005	3545.85	2660.75
900.5725	1631.5525	3407.55	2526.7
900.7145	1633.3037	3279	2394.5
900.8566	1635.0542	3190.75	2311.5
900.9986	1636.804	3109.8	2225.65
901.1406	1638.553	3117.3	2170.45
901.2826	1640.3013	3016.05	2133.45
901.4245	1642.0488	3000.6	2115.95
901.5665	1643.7955	2991.5	2112.35
901.7085	1645.5416	3002.7	2120.4
901.8504	1647.2868	3018.95	2137.35
901.9923	1649.0313	3056.15	2174.75
902.1342	1650.7751	3108.9	2223.65
902.2761	1652.5181	3143.05	2262.45
902.4179	1654.2604	3202.45	2320.7
902.5598	1656.0019	3261.65	2380
902.7016	1657.7427	3351.55	2469.3
902.8434	1659.4828	3444.55	2561.45
902.9852	1661.222	3508.85	2626.2
903.127	1662.9606	3503.9	2624.4
903.2687	1664.6984	3436	2554.1
903.4105	1666.4354	3302.4	2421.6
903.5522	1668.1717	3121.2	2238
903.6939	1669.9072	2927.9	2047.85
903.8356	1671.642	2759.8	1877.85
903.9773	1673.3761	2623.1	1741.55
904.119	1675.1094	2510.7	1628.65
904.2606	1676.8419	2438.6	1555.65
904.4022	1678.5737	2371.1	1488.35
904.5439	1680.3048	2320.75	1441.05
904.6855	1682.0351	2271.85	1389.25
904.827	1683.7646	2241.3	1357.05
904.9686	1685.4934	2207	1325.65
905.1101	1687.2215	2187.75	1306.65
905.2517	1688.9488	2162.8	1280.55
905.3932	1690.6754	2141.2	1257.4
905.5347	1692.4012	2130.25	1248.5
905.6761	1694.1263	2107.4	1227.55
905.8176	1695.8506	2108.45	1226.5
905.9591	1697.5742	2090.3	1210.9
906.1005	1699.297	2079.65	1198.3
906.2419	1701.0191	2067.25	1186.75
906.3833	1702.7404	2048.75	1166.9
906.5246	1704.461	2034.95	1151
906.666	1706.1808	2025.6	1143.1
906.8073	1707.8999	2014.45	1130.4
906.9487	1709.6182	2007.8	1124.85
907.09	1711.3358	1996.15	1114.55
907.2313	1713.0527	1982.7	1102.05
907.3725	1714.7688	1987.6	1103.15
907.5138	1716.4841	1975.65	1091.85
907.655	1718.1987	1977.65	1092.45
907.7962	1719.9126	1963.9	1084.15
907.9374	1721.6257	1968.4	1082.25
908.0786	1723.338	1956.9	1074.15
908.2198	1725.0496	1949.35	1067.35
908.3609	1726.7605	1946.95	1066.55
908.502	1728.4706	1941.1	1059.55
908.6431	1730.18	1946.95	1062.9
908.7842	1731.8886	1926.5	1044.7
908.9253	1733.5964	1931.4	1045.4
909.0664	1735.3036	1916.9	1034.4
909.2074	1737.0099	1918.45	1036.55
909.3484	1738.7156	1915.6	1033.1
909.4894	1740.4204	1897.55	1013.4
909.6304	1742.1246	1894.95	1010.9
909.7714	1743.8279	1897.95	1016.9
909.9123	1745.5306	1880.15	997.35
910.0532	1747.2325	1877.8	994.95
910.1941	1748.9336	1879.35	1000.35
910.335	1750.634	1864.6	980.6
910.4759	1752.3336	1860	979.55
910.6168	1754.0325	1863.8	985.8
910.7576	1755.7307	1848.6	966.6
910.8984	1757.4281	1855	972.8
911.0392	1759.1247	1863.6	972.15
911.18	1760.8206	1859.2	972.35
911.3208	1762.5158	1842.6	957.25
911.4615	1764.2102	1843.45	962.95
911.6022	1765.9039	1838.7	956.65
911.7429	1767.5968	1832.3	951.5
911.8836	1769.289	1840.15	959.6
912.0243	1770.9804	1843.4	960.5
912.1649	1772.6711	1833.1	951.3
912.3056	1774.361	1827.2	944.85
912.4462	1776.0502	1819.25	936
912.5868	1777.7386	1824.9	940.35
912.7274	1779.4263	1816.5	933.75
912.8679	1781.1132	1810.7	928.5
913.0084	1782.7994	1811.25	925.1
913.149	1784.4849	1808.45	928.15
913.2895	1786.1696	1825.9	924.95
913.4299	1787.8535	1812.6	931.05
913.5704	1789.5367	1801.35	919.25
913.7108	1791.2192	1810	928.8
913.8513	1792.9009	1799.3	902.45
913.9917	1794.5818	1793.5	912.05
914.132	1796.2621	1788.3	908.3
914.2724	1797.9415	1783.8	901.95
914.4128	1799.6202	1779.35	895.5
914.5531	1801.2982	1785.1	902.5
914.6934	1802.9755	1775.75	894.65
914.8337	1804.6519	1781.25	898.75
914.9739	1806.3277	1773.9	891.9
915.1142	1808.0027	1775.5	894.85
915.2544	1809.6769	1773.3	892.1
915.3946	1811.3504	1773.15	889
915.5348	1813.0231	1771.6	888
915.675	1814.6951	1772.1	890.6
915.8151	1816.3664	1774.6	889.3
915.9553	1818.0369	1759.05	877.1
916.0954	1819.7067	1757.4	875.5
916.2355	1821.3757	1759.6	877.35
916.3755	1823.044	1750.05	869.3
916.5156	1824.7115	1756.25	874.6
916.6556	1826.3783	1743.95	861.75
916.7956	1828.0443	1747	865.8
916.9356	1829.7096	1748.4	865.3
917.0756	1831.3741	1755.1	871.8
917.2155	1833.0379	1742.95	861.55
917.3555	1834.701	1747.85	863.65
917.4954	1836.3633	1739.15	856.5
917.6353	1838.0248	1740.8	856.2
917.7751	1839.6856	1734.85	852.7
917.915	1841.3457	1731.8	850.2
918.0548	1843.005	1728.25	847.15
918.1946	1844.6636	1730.35	849.5
918.3344	1846.3214	1723.7	841.6
918.4742	1847.9785	1723.15	842.3
918.6139	1849.6349	1726.6	844.1
918.7537	1851.2904	1731.55	838.55
918.8934	1852.9453	1729.4	847
919.0331	1854.5994	1725.3	841.05
919.1727	1856.2528	1722.4	835.25
919.3124	1857.9054	1718.25	835.55
919.452	1859.5572	1714.25	835.05
919.5916	1861.2083	1713.7	831.3
919.7312	1862.8587	1718.15	837.9
919.8708	1864.5084	1714.8	833.3
920.0103	1866.1572	1704.35	824.7
920.1498	1867.8054	1701.05	820
920.2893	1869.4528	1693.75	811.7
920.4288	1871.0994	1698.6	816.9
920.5683	1872.7453	1698.65	815.6
920.7077	1874.3905	1708.35	808.4
920.8471	1876.0349	1690.6	809
920.9865	1877.6786	1694.65	811.8
921.1259	1879.3215	1694.9	814.4
921.2653	1880.9637	1685.25	801.65
921.4046	1882.6051	1683.95	800.9
921.5439	1884.2458	1685.35	801.6
921.6832	1885.8858	1686.05	805.6
921.8225	1887.525	1679.75	796.6
921.9617	1889.1634	1677.55	798.15
922.101	1890.8011	1675.75	793.95
922.2402	1892.4381	1672	793.2
922.3794	1894.0743	1671.6	788.85
922.5185	1895.7098	1663.95	784.5
922.6577	1897.3446	1669.25	786.45
922.7968	1898.9786	1671.55	785.35
922.9359	1900.6118	1664.8	783.7
923.075	1902.2443	1666.4	783.45
923.214	1903.8761	1654.2	771.65
923.3531	1905.5071	1651.75	767.4
923.4921	1907.1374	1648.35	765.05
923.6311	1908.7669	1651.7	769.85
923.77	1910.3957	1652.7	771.15
923.909	1912.0237	1642.15	760.95
924.0479	1913.651	1643.15	760.85
924.1868	1915.2776	1643.6	762.2
924.3257	1916.9034	1644.45	765.4
924.4646	1918.5285	1645.5	763.55
924.6034	1920.1528	1629.5	747.05
924.7422	1921.7764	1640.1	759.3
924.881	1923.3992	1629	747.85
925.0198	1925.0213	1627.5	746
925.1586	1926.6427	1620.1	739.65
925.2973	1928.2633	1722.35	734.35
925.436	1929.8832	1624.6	741.15
925.5747	1931.5023	1612.35	730.8
925.7134	1933.1207	1615.4	734.15
925.852	1934.7383	1606.6	724.85
925.9906	1936.3552	1609.85	729.4
926.1292	1937.9714	1613.35	733.05
926.2678	1939.5868	1609	723.55
926.4064	1941.2015	1602.55	721.85
926.5449	1942.8154	1602.45	720.25
926.6834	1944.4286	1593	711.65
926.8219	1946.041	1611.2	706.55
926.9604	1947.6528	1597.15	709.4
927.0988	1949.2637	1586.95	708.35
927.2372	1950.8739	1589.55	706.8
927.3756	1952.4834	1589	706.4
927.514	1954.0921	1581.4	697.25
927.6523	1955.7001	1581.5	694.55
927.7907	1957.3074	1585.1	703.5
927.929	1958.9139	1571	689.05
928.0673	1960.5197	1574.35	691.55
928.2055	1962.1247	1567.95	688.35
928.3438	1963.729	1565.1	682.6
928.482	1965.3325	1584.65	678.85
928.6202	1966.9353	1558.65	676.5
928.7584	1968.5374	1566.3	683.35
928.8965	1970.1387	1566.4	683.35
929.0346	1971.7393	1569.4	687
929.1727	1973.3392	1552.25	669.85
929.3108	1974.9383	1557.6	676.65
929.4489	1976.5366	1554.2	672.4
929.5869	1978.1342	1547.35	664.65
929.7249	1979.7311	1544.7	660.85
929.8629	1981.3273	1542.7	662.2
930.0009	1982.9227	1542.85	660.95
930.1388	1984.5173	1538.8	656.5
930.2767	1986.1112	1539.5	656
930.4146	1987.7044	1541	660.8
930.5525	1989.2968	1535.85	651
930.6904	1990.8885	1542.45	657.85
930.8282	1992.4795	1540.25	656.3
930.966	1994.0697	1531.1	650.3
931.1038	1995.6592	1538.8	657.45
931.2415	1997.2479	1534.6	651
931.3793	1998.8359	1527.4	646.55
931.517	2000.4232	1529.2	649.2
931.6547	2002.0097	1510.1	629
931.7923	2003.5955	1519.4	636.3
931.93	2005.1805	1516.65	632.05
932.0676	2006.7648	1517.95	636.4
932.2052	2008.3484	1518.65	635.2
932.3427	2009.9312	1524.4	640.25
932.4803	2011.5133	1512.7	631.25
932.6178	2013.0946	1515.8	633.55
932.7553	2014.6752	1505.9	625.2
932.8928	2016.2551	1513.3	630.75
933.0302	2017.8342	1509.3	628.65
933.1676	2019.4126	1504.65	623.5
933.305	2020.9902	1496.7	614.05
933.4424	2022.5672	1501.25	618
933.5798	2024.1433	1504.9	615.3
933.7171	2025.7188	1498.3	617.95
933.8544	2027.2935	1501.35	617.95
933.9917	2028.8674	1489.9	608.2
934.129	2030.4406	1492.6	611.75
934.2662	2032.0131	1486.75	604.1
934.4034	2033.5849	1492.3	602.8
934.5406	2035.1559	1487.9	606.4
934.6778	2036.7261	1476.35	592.45
934.8149	2038.2957	1484.05	601.85
934.952	2039.8645	1479.05	599.15
935.0891	2041.4325	1484.2	599.1
935.2262	2042.9998	1484.6	602.45
935.3632	2044.5664	1482.1	597.1
935.5002	2046.1323	1483.3	602.15
935.6372	2047.6974	1475.15	591.75
935.7742	2049.2617	1477.2	593.4
935.9111	2050.8254	1506.15	587.7
936.048	2052.3883	1472.6	587.65
936.1849	2053.9504	1467.2	586.7
936.3218	2055.5118	1469.45	586.7
936.4586	2057.0725	1475.35	587.95
936.5955	2058.6325	1472.55	590.65
936.7323	2060.1917	1466.65	584.4
936.869	2061.7502	1463.85	579.55
937.0058	2063.3079	1456.4	575.2
937.1425	2064.8649	1461.6	578
937.2792	2066.4212	1460.45	578.95
937.4159	2067.9767	1456.7	574.95
937.5525	2069.5315	1454.4	573.8
937.6891	2071.0856	1452.55	570.15
937.8257	2072.6389	1449.9	566.1
937.9623	2074.1915	1444.5	565
938.0989	2075.7433	1450.3	564.85
938.2354	2077.2945	1441.8	560.35
938.3719	2078.8448	1439.45	557.45
938.5084	2080.3945	1442.9	561.6
938.6448	2081.9434	1447.25	565.3
938.7812	2083.4916	1438.65	556.7
938.9176	2085.039	1433.85	549.7
939.054	2086.5857	1440.15	557.65
939.1903	2088.1317	1433.1	550.4
939.3267	2089.677	1433.5	549.15
939.463	2091.2215	1437.15	557.25
939.5992	2092.7652	1428.9	546
939.7355	2094.3083	1430.45	547.75
939.8717	2095.8506	1424.35	543.15
940.0079	2097.3921	1426.6	545.95
940.1441	2098.933	1423.8	541.3
940.2802	2100.4731	1422.65	541.2
940.4163	2102.0124	1435.15	535.55
940.5524	2103.5511	1425.8	544.35
940.6885	2105.089	1426.05	543.1
940.8245	2106.6261	1426.85	546.65
940.9606	2108.1626	1426.9	542.7
941.0965	2109.6983	1451.65	541.8
941.2325	2111.2332	1416.85	533.7
941.3684	2112.7675	1420	536.95
941.5044	2114.301	1417.8	534.9
941.6403	2115.8337	1414.15	531.4
941.7761	2117.3657	1411.75	530.65
941.912	2118.897	1413	531.2
942.0478	2120.4276	1420.05	532.45
942.1835	2121.9575	1406.35	523.4
942.3193	2123.4866	1413.4	528.55
942.455	2125.0149	1410.4	528.2
942.5907	2126.5426	1410.1	527.65
942.7264	2128.0695	1406.55	519.6
942.8621	2129.5956	1390.8	508.35
942.9977	2131.1211	1403.95	516.45
943.1333	2132.6458	1400.3	519.35
943.2689	2134.1698	1401.05	518.3
943.4044	2135.693	1399.85	516.6
943.54	2137.2155	1402.5	518.45
943.6755	2138.7373	1395.05	511.55
943.8109	2140.2584	1396.95	515.05
943.9464	2141.7787	1398.45	509.8
944.0818	2143.2983	1389.45	508.2
944.2172	2144.8171	1386.25	505.85
944.3526	2146.3353	1382.45	497.45
944.4879	2147.8527	1382.6	502.05
944.6232	2149.3693	1382.4	499.7
944.7585	2150.8853	1380.7	498.85
944.8938	2152.4005	1382.35	500.6
945.029	2153.9149	1379.05	496.9
945.1642	2155.4287	1376.2	494.65
945.2994	2156.9417	1377.35	494.95
945.4346	2158.454	1377.4	492
945.5697	2159.9655	1372.2	490.2
945.7048	2161.4764	1373.8	492.05
945.8399	2162.9865	1371.05	488.95
945.9749	2164.4958	1371.55	487.85
946.1099	2166.0045	1371.15	485.25
946.2449	2167.5124	1374.4	492.8
946.3799	2169.0195	1371	490.6
946.5148	2170.526	1367.45	484.2
946.6498	2172.0317	1366.9	483.75
946.7846	2173.5367	1363.45	478
946.9195	2175.0409	1356.9	475.8
947.0543	2176.5445	1360.65	478.75
947.1891	2178.0473	1357.35	476.65
947.3239	2179.5494	1362.85	477.6
947.4587	2181.0507	1358.7	476.7
947.5934	2182.5513	1359.4	477.4
947.7281	2184.0512	1353.7	472.2
947.8628	2185.5504	1353.3	472.1
947.9974	2187.0488	1354.55	475
948.132	2188.5465	1357.55	474.45
948.2666	2190.0435	1350.1	466.25
948.4012	2191.5397	1347.6	466.2
948.5357	2193.0353	1348.75	466.75
948.6702	2194.5301	1348.25	465.3
948.8047	2196.0241	1345.3	462.5
948.9392	2197.5175	1339.05	457.45
949.0736	2199.0101	1344.2	458.4
949.208	2200.502	1340.65	457.1
949.3424	2201.9931	1340.25	459.2
949.4767	2203.4835	1341.1	459.35
949.611	2204.9733	1343	455.7
949.7453	2206.4622	1336.8	457
949.8796	2207.9505	1336.5	450.3
950.0138	2209.438	1329.65	447.45
950.148	2210.9248	1333.45	451.05
950.2822	2212.4109	1329.45	447.6
950.4164	2213.8962	1324.8	441.1
950.5505	2215.3809	1324.85	441.95
950.6846	2216.8648	1329.7	447.7
950.8186	2218.3479	1331.75	446.75
950.9527	2219.8304	1328.05	441.7
951.0867	2221.3121	1323.1	438.5
951.2207	2222.7931	1316.55	434.45
951.3546	2224.2733	1313.25	430.9
951.4886	2225.7529	1316.15	432.85
951.6225	2227.2317	1317.5	432.05
951.7563	2228.7098	1316	434.4
951.8902	2230.1872	1310.25	428.35
952.024	2231.6638	1306.2	424.75
952.1578	2233.1397	1310.8	423.85
952.2916	2234.6149	1312.05	428.7
952.4253	2236.0894	1310.15	428.85
952.559	2237.5632	1313.8	421.6
952.6927	2239.0362	1302.4	418.4
952.8263	2240.5085	1297.4	414.5
952.9599	2241.9801	1305.45	422.7
953.0935	2243.4509	1297.75	418.05
953.2271	2244.921	1294.65	412.1
953.3606	2246.3904	1304.85	419.95
953.4941	2247.8591	1298	418.3
953.6276	2249.3271	1294	413.05
953.7611	2250.7943	1295.45	413.4
953.8945	2252.2608	1290.8	407.7
954.0279	2253.7266	1286.2	404.5
954.1612	2255.1917	1289.95	409.1
954.2946	2256.656	1293.7	409.15
954.4279	2258.1197	1287.15	404
954.5612	2259.5826	1289.25	405.25
954.6944	2261.0447	1285.75	402.85
954.8276	2262.5062	1284.85	401.4
954.9608	2263.9669	1282.8	397.9
955.094	2265.4269	1279.55	399.15
955.2271	2266.8862	1284.25	401.9
955.3602	2268.3448	1282.9	400.4
955.4933	2269.8026	1284.55	402.7
955.6264	2271.2598	1275	393.05
955.7594	2272.7162	1274.85	393.8
955.8924	2274.1719	1281.85	400.05
956.0253	2275.6268	1269.85	387.55
956.1583	2277.0811	1271.95	389.35
956.2912	2278.5346	1272	390.7
956.4241	2279.9874	1279.35	397.8
956.5569	2281.4395	1270.95	390.55
956.6897	2282.8908	1277.2	388.7
956.8225	2284.3414	1279.35	396
956.9553	2285.7914	1269.95	389.05
957.088	2287.2406	1272.75	387.1
957.2207	2288.689	1266.85	384.4
957.3534	2290.1368	1268.7	385.75
957.486	2291.5838	1267.45	384.3
957.6186	2293.0302	1267	384.45
957.7512	2294.4758	1267.4	385.65
957.8838	2295.9206	1269.2	385.2
958.0163	2297.3648	1260.7	378.5
958.1488	2298.8082	1264.25	380.2
958.2813	2300.251	1260.25	378.2
958.4137	2301.693	1264.45	379.05
958.5461	2303.1343	1264.6	381.15
958.6785	2304.5748	1256.9	373.75
958.8108	2306.0147	1254.4	373.3
958.9432	2307.4538	1260.9	375.85
959.0754	2308.8922	1253.15	373.8
959.2077	2310.3299	1256.95	375.65
959.3399	2311.7669	1250.4	368.9
959.4721	2313.2031	1257.85	377
959.6043	2314.6387	1247.25	364.3
959.7365	2316.0735	1244.65	361.65
959.8686	2317.5076	1252.05	368.4
960.0006	2318.941	1250.55	367.25
960.1327	2320.3737	1244.05	361.85
960.2647	2321.8056	1245.65	362.55
960.3967	2323.2369	1246.9	366.45
960.5287	2324.6674	1242.85	357.75
960.6606	2326.0972	1244.8	362.5
960.7925	2327.5263	1242.9	361.55
960.9244	2328.9547	1240.95	359.45
961.0562	2330.3823	1242.25	359.95
961.1881	2331.8092	1241.3	355.65
961.3198	2333.2355	1232.5	351.05
961.4516	2334.661	1237.95	353.9
961.5833	2336.0858	1231.6	347.7
961.715	2337.5098	1230.65	349
961.8467	2338.9332	1231.7	348.95
961.9783	2340.3558	1231.5	344.6
962.1099	2341.7778	1233.85	350.85
962.2415	2343.199	1231.75	346.5
962.373	2344.6195	1235.65	352.85
962.5045	2346.0393	1226.9	345.6
962.636	2347.4583	1228	345.2
962.7675	2348.8767	1230.8	346.95
962.8989	2350.2943	1225.05	341.2
963.0303	2351.7113	1227.8	344.25
963.1617	2353.1275	1230.8	348.2
963.293	2354.543	1232.45	342.1
963.4243	2355.9578	1223.4	341.15
963.5556	2357.3718	1223	342.15
963.6868	2358.7852	1224.9	338.8
963.818	2360.1978	1216.7	336.65
963.9492	2361.6098	1220.05	336.55
964.0803	2363.021	1225.1	339.05
964.2114	2364.4315	1216.75	336
964.3425	2365.8413	1219.9	335.75
964.4736	2367.2504	1215.25	332.3
964.6046	2368.6587	1208.75	326.5
964.7356	2370.0664	1214.05	333.3
964.8666	2371.4733	1214.2	331.75
964.9975	2372.8795	1215.2	333.05
965.1284	2374.285	1213.7	330.65
965.2593	2375.6899	1205.5	324.55
965.3901	2377.0939	1207.25	323.75
965.5209	2378.4973	1209.95	328.5
965.6517	2379.9	1202.7	319.7
965.7825	2381.3019	1200.25	318.5
965.9132	2382.7032	1202	320.8
966.0439	2384.1037	1196	315.05
966.1745	2385.5035	1199.2	316.55
966.3051	2386.9027	1200.3	318.9
966.4357	2388.3011	1205	319.6
966.5663	2389.6987	1199.95	317.75
966.6968	2391.0957	1194.25	312.05
966.8273	2392.492	1192.8	309.5
966.9578	2393.8876	1191.85	311.55
967.0882	2395.2824	1193.3	311.85
967.2186	2396.6765	1191.1	309.45
967.349	2398.07	1194	312.4
967.4793	2399.4627	1189.35	303.4
967.6097	2400.8547	1189.75	308.25
967.7399	2402.246	1197.4	309.35
967.8702	2403.6366	1185.9	301.75
968.0004	2405.0265	1183.4	301.7
968.1306	2406.4156	1187.15	299.9
968.2607	2407.8041	1186.9	299.9
968.3909	2409.1918	1181.2	297
968.521	2410.5789	1181.15	297.4
968.651	2411.9652	1193.15	309.6
968.781	2413.3508	1181.95	299.9
968.911	2414.7358	1181.4	298.6
969.041	2416.12	1182.45	302.75
969.1709	2417.5035	1179.75	299
969.3008	2418.8863	1180.15	295.75
969.4307	2420.2684	1184.3	302.5
969.5606	2421.6497	1180.5	300
969.6904	2423.0304	1173.55	291.85
969.8201	2424.4104	1174.5	292.1
969.9499	2425.7896	1175.6	287
970.0796	2427.1682	1175.35	292.15
970.2093	2428.546	1171.35	289.25
970.3389	2429.9232	1169.05	286.45
970.4685	2431.2996	1171.3	288.1
970.5981	2432.6753	1173.6	292.2
970.7277	2434.0503	1169.75	287.95
970.8572	2435.4246	1162.45	281.15
970.9867	2436.7982	1168.05	284.45
971.1161	2438.1711	1166.05	284.55
971.2456	2439.5433	1165.4	283.9
971.375	2440.9148	1168.35	280.1
971.5043	2442.2856	1161.7	280.75
971.6336	2443.6557	1162.9	280.5
971.7629	2445.025	1167.65	285.7
971.8922	2446.3937	1156	272.35
972.0214	2447.7617	1160.65	278.15
972.1506	2449.1289	1159.75	278.75
972.2798	2450.4955	1165.05	278.55
972.4089	2451.8613	1153.75	272.45
972.538	2453.2265	1153.95	270.95
972.6671	2454.5909	1155.35	272.65
972.7961	2455.9546	1157.95	276.55
972.9251	2457.3177	1151.75	273.05
973.0541	2458.68	1151.4	267.15
973.1831	2460.0416	1152.8	269.55
973.312	2461.4025	1156.4	273.2
973.4408	2462.7627	1164.5	270.55
973.5697	2464.1222	1153.3	271.25
973.6985	2465.4811	1149.7	268.7
973.8273	2466.8392	1147.65	265.35
973.956	2468.1966	1151.25	266.35
974.0847	2469.5533	1154.4	271.75
974.2134	2470.9093	1148.6	265.35
974.3421	2472.2645	1153.9	269.65
974.4707	2473.6191	1151.45	269.95
974.5993	2474.973	1149.8	269.25
974.7278	2476.3262	1151.1	266.5
974.8563	2477.6787	1148.25	267
974.9848	2479.0305	1151.3	271.85
975.1132	2480.3816	1143.45	259.1
975.2417	2481.7319	1142.7	259.9
975.37	2483.0816	1144.9	260.75
975.4984	2484.4306	1141.25	258.35
975.6267	2485.7789	1145.4	262.9
975.755	2487.1264	1142.3	256.55
975.8833	2488.4733	1138.45	256.45
976.0115	2489.8195	1154.25	254.1
976.1397	2491.165	1146.45	261
976.2678	2492.5097	1139.4	255.5
976.3959	2493.8538	1136.95	254.7
976.524	2495.1972	1138.75	256.5
976.6521	2496.5398	1138.8	255.7
976.7801	2497.8818	1133.75	249.15
976.9081	2499.2231	1131.85	249.75
977.036	2500.5637	1135.95	252.15
977.164	2501.9035	1133.5	248.45
977.2918	2503.2427	1140.4	254.8
977.4197	2504.5812	1131.35	248.95
977.5475	2505.919	1135.3	250.1
977.6753	2507.256	1128.95	246.3
977.8031	2508.5924	1123.15	240.5
977.9308	2509.9281	1139.2	252.5
978.0585	2511.2631	1127.45	245.1
978.1861	2512.5974	1133.9	252.15
978.3137	2513.9309	1125	241.85
978.4413	2515.2638	1155.25	243.85
978.5689	2516.596	1128.8	246.85
978.6964	2517.9275	1130.4	245
978.8239	2519.2583	1127.8	243.5
978.9513	2520.5884	1124.35	242.15
979.0788	2521.9178	1125.25	243.7
979.2062	2523.2465	1122.05	241.4
979.3335	2524.5745	1126.5	244.7
979.4608	2525.9018	1118.15	234.3
979.5881	2527.2284	1120.65	239.3
979.7154	2528.5543	1117.35	235.9
979.8426	2529.8796	1121.55	239.65
979.9698	2531.2041	1124.55	238.25
980.0969	2532.5279	1121.15	239.1
980.224	2533.851	1121.25	239.4
980.3511	2535.1735	1117.65	236.05
980.4781	2536.4952	1114.9	232.7
980.6052	2537.8163	1118.55	237.75
980.7321	2539.1366	1115.65	236.45
980.8591	2540.4562	1119.5	237.15
980.986	2541.7752	1113	231.95
981.1129	2543.0935	1115.15	232.95
981.2397	2544.411	1115.5	234
981.3665	2545.7279	1118	236.55
981.4933	2547.0441	1117	235.3
981.62	2548.3596	1119.5	235.55
981.7467	2549.6744	1116.25	235.15
981.8734	2550.9885	1113.25	229.3
982.0001	2552.3019	1109.5	226.6
982.1267	2553.6146	1112	230
982.2532	2554.9266	1112.15	227.85
982.3798	2556.2379	1113.65	230.95
982.5063	2557.5485	1114.1	233.55
982.6327	2558.8585	1115.6	228.25
982.7592	2560.1677	1119	233.45
982.8856	2561.4762	1112.8	231.15
983.0119	2562.7841	1111.15	225.7
983.1383	2564.0913	1112.6	232.25
983.2646	2565.3977	1104.3	222.25
983.3908	2566.7035	1107.9	226.4
983.517	2568.0086	1110.2	225.15
983.6432	2569.313	1108.5	226.65
983.7694	2570.6167	1109.25	224.55
983.8955	2571.9197	1099.3	217.95
984.0216	2573.222	1109	222.85
984.1476	2574.5236	1106.3	223.75
984.2737	2575.8246	1108.4	224.3
984.3996	2577.1248	1112.25	228.6
984.5256	2578.4244	1104.65	223.4
984.6515	2579.7232	1104.7	222.5
984.7774	2581.0214	1137.85	224.1
984.9032	2582.3189	1106.05	225.75
985.029	2583.6157	1107	219.5
985.1548	2584.9118	1105.55	224.75
985.2806	2586.2072	1103.85	222.5
985.4063	2587.5019	1103.25	221.3
985.5319	2588.7959	1102.2	218.65
985.6576	2590.0893	1113.6	231.75
985.7832	2591.3819	1102.8	219.1
985.9087	2592.6739	1108.85	227.6
986.0343	2593.9652	1099.9	216.75
986.1597	2595.2557	1105.15	222.9
986.2852	2596.5456	1113.8	229
986.4106	2597.8348	1106.7	225.1
986.536	2599.1234	1104.8	221.75
986.6614	2600.4112	1103.5	222
986.7867	2601.6983	1112.85	225.7
986.912	2602.9848	1112.05	229.45
987.0372	2604.2705	1108.9	219.95
987.1624	2605.5556	1104.3	220.9
987.2876	2606.84	1102.65	221.5
987.4128	2608.1237	1104.65	221.2
987.5379	2609.4067	1102.9	221.25
987.6629	2610.689	1108.25	217.65
987.788	2611.9707	1100.45	215.2
987.913	2613.2516	1103.15	215.9
988.0379	2614.5319	1096.3	215.9
988.1629	2615.8115	1096.2	212.4
988.2878	2617.0903	1098.4	214.25
988.4126	2618.3685	1094.1	212.25
988.5375	2619.6461	1093.05	210.8
988.6622	2620.9229	1093.15	211.45
988.787	2622.199	1095.4	214.05
988.9117	2623.4745	1093.4	209.9
989.0364	2624.7493	1095.4	212.45
989.161	2626.0234	1094.85	214.4
989.2857	2627.2968	1092.35	209.9
989.4102	2628.5695	1093.95	209.55
989.5348	2629.8415	1093.1	211.75
989.6593	2631.1128	1094.75	212.9
989.7837	2632.3835	1092.35	209.45
989.9082	2633.6535	1093.55	211.3
990.0326	2634.9228	1087.8	208.2
990.1569	2636.1914	1090.4	208.6
990.2812	2637.4593	1090.6	203
990.4055	2638.7265	1089.55	207.3
990.5298	2639.9931	1092.85	210.5
990.654	2641.259	1087.55	205.7
990.7782	2642.5242	1083.3	200.3
990.9023	2643.7887	1084.75	202.8
991.0264	2645.0525	1084.9	202
991.1505	2646.3156	1086.55	204.05
991.2745	2647.5781	1085.3	203
991.3985	2648.8398	1080.1	198.25
991.5225	2650.1009	1122.75	205.5
991.6464	2651.3613	1083.35	200.85
991.7703	2652.6211	1075.65	192.1
991.8942	2653.8801	1078.45	197.3
992.018	2655.1385	1087.85	203.8
992.1418	2656.3961	1081.95	201.3
992.2655	2657.6531	1081.55	199.05
992.3892	2658.9094	1081.55	197.85
992.5129	2660.1651	1081.5	199.85
992.6366	2661.42	1080.6	198
992.7602	2662.6743	1081.95	197.3
992.8837	2663.9279	1082.4	200.1
993.0073	2665.1808	1080.8	196.45
993.1307	2666.433	1088.4	203.85
993.2542	2667.6846	1085.9	204.05
993.3776	2668.9354	1089.9	205.15
993.501	2670.1856	1086.45	202.65
993.6244	2671.4351	1080.15	199.2
993.7477	2672.6839	1089.3	208.3
993.8709	2673.9321	1087.65	207.35
993.9942	2675.1795	1080.15	198
994.1174	2676.4263	1088.95	204.7
994.2405	2677.6724	1086	204
994.3637	2678.9179	1089.8	207.2
994.4868	2680.1626	1084.8	203.95
994.6098	2681.4067	1090.85	205.15
994.7328	2682.6501	1088.8	206.8
994.8558	2683.8928	1090.45	209.9
994.9788	2685.1348	1079.85	198.45
995.1017	2686.3761	1085.3	203.95
995.2245	2687.6168	1084.5	202.5
995.3474	2688.8568	1077.45	196.25
995.4702	2690.0961	1074.4	194.9
995.5929	2691.3348	1077.75	194.6
995.7156	2692.5727	1080.3	197.7
995.8383	2693.81	1075.2	191.65
995.961	2695.0466	1078.85	196.7
996.0836	2696.2826	1076.7	193.7
996.2062	2697.5178	1079.85	193.85
996.3287	2698.7524	1077.3	196.25
996.4512	2699.9863	1082.7	197.05
996.5737	2701.2195	1080.7	200.25
996.6961	2702.452	1076.7	192.8
996.8185	2703.6839	1082.6	200.15
996.9408	2704.9151	1084.45	204.85
997.0631	2706.1456	1083.75	199.25
997.1854	2707.3755	1084.2	200.8
997.3077	2708.6046	1089.6	204
997.4299	2709.8331	1093.75	211
997.552	2711.0609	1087.95	207.15
997.6742	2712.2881	1089.85	207.8
997.7963	2713.5145	1096.1	210.85
997.9183	2714.7403	1099.85	219.7
998.0403	2715.9654	1103.75	219.5
998.1623	2717.1899	1120.2	222.6
998.2842	2718.4136	1109.5	225.85
998.4062	2719.6367	1107.65	223.7
998.528	2720.8591	1122.95	236.4
998.6498	2722.0809	1116.7	234.25
998.7716	2723.3019	1124.95	239.3
998.8934	2724.5223	1128	244.75
999.0151	2725.7421	1134.3	251.05
999.1368	2726.9611	1134.7	251.8
999.2584	2728.1795	1129.8	243.45
999.38	2729.3972	1123.95	241.55
999.5016	2730.6142	1131.4	236.7
999.6231	2731.8306	1119.65	235.6
999.7446	2733.0462	1113.35	229.75
999.8661	2734.2612	1111.8	226.35
999.9875	2735.4756	1101.05	218.3
1000.1089	2736.6892	1094.3	212.3
1000.2302	2737.9022	1093.75	211.85
1000.3515	2739.1145	1090.9	208.15
1000.4728	2740.3262	1091.65	202.5
1000.594	2741.5372	1077.9	197.85
1000.7152	2742.7475	1077.25	195.45
1000.8363	2743.9571	1078.65	194.55
1000.9575	2745.1661	1076.6	191.95
1001.0785	2746.3744	1065.95	182.7
1001.1996	2747.582	1062.3	179.8
1001.3206	2748.7889	1063	178.85
1001.4415	2749.9952	1057	175.85
1001.5625	2751.2008	1061.45	177.8
1001.6833	2752.4057	1060.75	176.9
1001.8042	2753.61	1059.6	176.85
1001.925	2754.8136	1053.55	167.95
1002.0458	2756.0165	1052.95	170.6
1002.1665	2757.2188	1055.7	174.95
1002.2872	2758.4204	1053.55	169.9
1002.4078	2759.6213	1053.4	167.65
1002.5285	2760.8215	1059.45	171.45
1002.649	2762.0211	1055.15	173.2
1002.7696	2763.22	1058.05	171.3
1002.8901	2764.4182	1054.55	170.75
1003.0106	2765.6158	1047.9	164.75
1003.131	2766.8127	1050.3	167.2
1003.2514	2768.009	1049.55	166.05
1003.3717	2769.2045	1051.4	169.3
1003.492	2770.3994	1051.65	168.45
1003.6123	2771.5936	1044.45	161.3
1003.7325	2772.7872	1045.9	164.15
1003.8527	2773.9801	1045.7	161.45
1003.9729	2775.1723	1063.4	165.5
1004.093	2776.3639	1042.25	160.8
1004.2131	2777.5548	1042.8	158.55
1004.3331	2778.745	1047.75	163.5
1004.4531	2779.9346	1043.5	161.25
1004.5731	2781.1235	1044.8	161.2
1004.693	2782.3117	1045.6	163.9
1004.8129	2783.4992	1048.4	165.8
1004.9328	2784.6861	1047.25	166.1
1005.0526	2785.8723	1044.25	160.3
1005.1723	2787.0579	1050.15	167.75
1005.2921	2788.2428	1048.2	164.85
1005.4118	2789.427	1053.35	171.55
1005.5314	2790.6106	1048.9	166.7
1005.651	2791.7935	1053.6	171.15
1005.7706	2792.9757	1054.5	172.95
1005.8902	2794.1573	1062.7	177.05
1006.0097	2795.3382	1061.9	180.2
1006.1291	2796.5184	1062.25	181.55
1006.2485	2797.698	1068.85	184.85
1006.3679	2798.8769	1065.5	184.35
1006.4873	2800.0551	1078.95	197.2
1006.6066	2801.2327	1078.75	193.1
1006.7258	2802.4096	1080.6	199.5
1006.8451	2803.5859	1088.55	205.85
1006.9642	2804.7615	1095.3	212.9
1007.0834	2805.9364	1096.25	213.75
1007.2025	2807.1106	1104.8	223
1007.3216	2808.2842	1111.9	230.35
1007.4406	2809.4572	1118.2	236.1
1007.5596	2810.6294	1128.15	245.1
1007.6785	2811.801	1140.6	261.75
1007.7975	2812.972	1148.15	267.75
1007.9163	2814.1423	1165.2	280.65
1008.0352	2815.3119	1182.7	300.2
1008.154	2816.4808	1190.95	308.7
1008.2727	2817.6491	1213.45	331.9
1008.3914	2818.8167	1228.55	347.6
1008.5101	2819.9837	1252.5	365.85
1008.6288	2821.15	1266.85	385.7
1008.7474	2822.3157	1280.05	397.85
1008.8659	2823.4807	1306.75	424.5
1008.9844	2824.645	1322.35	438.6
1009.1029	2825.8086	1347.65	464.8
1009.2214	2826.9716	1363.15	478.6
1009.3398	2828.134	1378.8	497.3
1009.4581	2829.2957	1398.55	515.65
1009.5764	2830.4567	1408.2	528.35
1009.6947	2831.617	1416.25	533.75
1009.813	2832.7767	1421.75	541.8
1009.9312	2833.9358	1413.9	533.5
1010.0493	2835.0941	1418	533.8
1010.1675	2836.2519	1406.45	523.85
1010.2855	2837.4089	1405.4	520.3
1010.4036	2838.5653	1398.2	518.15
1010.5216	2839.7211	1389.6	509.2
1010.6396	2840.8761	1393.8	510.85
1010.7575	2842.0306	1388.85	507.65
1010.8754	2843.1843	1397.05	514.5
1010.9932	2844.3374	1410.75	528.5
1011.111	2845.4899	1423.05	541.45
1011.2288	2846.6417	1440.15	558
1011.3465	2847.7928	1460.25	578.6
1011.4642	2848.9433	1472.3	589.8
1011.5818	2850.0931	1485.05	603.4
1011.6995	2851.2422	1515.15	631.85
1011.817	2852.3907	1537.75	654.25
1011.9345	2853.5385	1559.2	675.55
1012.052	2854.6857	1598.1	689.5
1012.1695	2855.8323	1587.85	707.3
1012.2869	2856.9781	1600.85	717.1
1012.4042	2858.1233	1619.35	738.2
1012.5216	2859.2679	1631.45	748.95
1012.6389	2860.4118	1655.95	775.6
1012.7561	2861.555	1663.55	776.3
1012.8733	2862.6976	1680.45	797.7
1012.9905	2863.8395	1695.55	813.75
1013.1076	2864.9808	1697	814.7
1013.2247	2866.1214	1706.7	825.7
1013.3417	2867.2614	1716.45	833.25
1013.4587	2868.4007	1726.5	842.65
1013.5757	2869.5393	1734.65	850.45
1013.6926	2870.6773	1733.55	849.5
1013.8095	2871.8146	1732.85	845.85
1013.9263	2872.9513	1737.45	853.75
1014.0431	2874.0874	1728.3	846.25
1014.1599	2875.2227	1732.35	849.35
1014.2766	2876.3574	1722.6	838.75
1014.3933	2877.4915	1711.25	828.7
1014.51	2878.6249	1706.4	824.85
1014.6266	2879.7577	1694	811
1014.7431	2880.8898	1702	807
1014.8596	2882.0212	1683.4	804
1014.9761	2883.152	1689.9	806.65
1015.0925	2884.2821	1689.1	808.7
1015.2089	2885.4116	1683.9	802.55
1015.3253	2886.5405	1681.25	799.5
1015.4416	2887.6686	1685.8	799.95
1015.5579	2888.7962	1685.55	806.35
1015.6741	2889.923	1688.6	805.65
1015.7903	2891.0493	1697.4	816.7
1015.9065	2892.1748	1699.75	816.7
1016.0226	2893.2997	1705.8	822.95
1016.1387	2894.424	1702.8	820.7
1016.2547	2895.5476	1707.05	825.25
1016.3707	2896.6706	1717.55	835.8
1016.4866	2897.7929	1715.75	833.2
1016.6025	2898.9145	1725.55	842.9
1016.7184	2900.0355	1737.3	855.35
1016.8342	2901.1559	1754.25	871.5
1016.95	2902.2756	1749.7	867.5
1017.0658	2903.3946	1759.6	876.15
1017.1815	2904.513	1774	886.4
1017.2971	2905.6308	1790.5	908.95
1017.4127	2906.7479	1791.55	909.75
1017.5283	2907.8643	1797.05	914.5
1017.6439	2908.9801	1794	911.75
1017.7594	2910.0953	1805.3	922.3
1017.8748	2911.2098	1802.95	919
1017.9902	2912.3236	1801.35	909.95
1018.1056	2913.4368	1790.6	905.75
1018.2209	2914.5494	1775.35	893.2
1018.3362	2915.6613	1785.7	896.8
1018.4515	2916.7725	1770.9	886.7
1018.5667	2917.8831	1754.65	870.65
1018.6819	2918.9931	1747.25	860.9
1018.797	2920.1024	1737.6	852.65
1018.9121	2921.211	1726.4	843.35
1019.0271	2922.319	1728.85	846.1
1019.1421	2923.4264	1716.1	834.1
1019.2571	2924.5331	1714.7	835.15
1019.372	2925.6391	1708.6	828.7
1019.4869	2926.7445	1709.5	828.15
1019.6017	2927.8493	1718.6	835.05
1019.7165	2928.9534	1701.75	819.05
1019.8313	2930.0569	1714.85	830.4
1019.946	2931.1597	1723.5	839.45
1020.0606	2932.2619	1725.2	842.9
1020.1753	2933.3634	1722.8	840.6
1020.2899	2934.4643	1723.35	834.8
1020.4044	2935.5645	1725.4	837.25
1020.5189	2936.6641	1717.45	831.65
1020.6334	2937.763	1708.8	827.9
1020.7478	2938.8613	1697.65	814.2
1020.8622	2939.959	1689.05	802.4
1020.9765	2941.056	1665.1	784.9
1021.0908	2942.1523	1637.1	754.1
1021.2051	2943.248	1617.5	735.95
1021.3193	2944.3431	1583.4	702.45
1021.4334	2945.4375	1556.65	672.9
1021.5476	2946.5313	1520	638.15
1021.6617	2947.6244	1487.6	604.4
1021.7757	2948.7169	1458.9	574.95
1021.8897	2949.8087	1430.05	548.3
1022.0037	2950.8999	1407.7	524.35
1022.1176	2951.9904	1374.4	494.85
1022.2315	2953.0803	1355.85	473.25
1022.3453	2954.1696	1334.3	453.2
1022.4591	2955.2582	1322.95	442.3
1022.5728	2956.3462	1307.3	424.05
1022.6865	2957.4335	1295.25	411.4
1022.8002	2958.5202	1288.8	405.75
1022.9138	2959.6062	1279.9	397.3
1023.0274	2960.6916	1272	389.35
1023.141	2961.7764	1265.45	383.35
1023.2545	2962.8605	1257.1	372.4
1023.3679	2963.9439	1256.8	375.4
1023.4813	2965.0267	1245.05	360.85
1023.5947	2966.1089	1269.9	364.7
1023.708	2967.1905	1242.8	360.25
1023.8213	2968.2714	1241.85	361.35
1023.9346	2969.3516	1248.55	366.55
1024.0478	2970.4312	1254.3	365.35
1024.1609	2971.5102	1248.1	365.8
1024.274	2972.5885	1251.05	369.45
1024.3871	2973.6662	1254.7	365.95
1024.5002	2974.7432	1249.95	369.2
1024.6132	2975.8196	1248.9	368.45
1024.7261	2976.8954	1246.45	366.95
1024.839	2977.9705	1245.05	363.3
1024.9519	2979.045	1243.55	362.3
1025.0647	2980.1188	1237.9	356
1025.1775	2981.192	1231.95	351.3
1025.2902	2982.2645	1228.2	344.9
1025.4029	2983.3364	1217.3	334.65
1025.5156	2984.4077	1208.45	326.2
1025.6282	2985.4783	1209.3	320.6
1025.7407	2986.5483	1194.75	314.1
1025.8532	2987.6177	1186.8	305.7
1025.9657	2988.6864	1177.45	295.7
1026.0782	2989.7545	1168.75	285.15
1026.1906	2990.8219	1150.2	268.4
1026.3029	2991.8887	1140.7	255.95
1026.4152	2992.9548	1132.75	249.7
1026.5275	2994.0204	1114.7	231.95
1026.6397	2995.0852	1105.8	224.95
1026.7519	2996.1495	1099.45	217.45
1026.864	2997.2131	1086.9	206.7
1026.9761	2998.276	1081	199.8
1027.0882	2999.3383	1076.3	192.3
1027.2002	3000.4	1069.75	186.65
1027.3122	3001.4611	1059	175.15
1027.4241	3002.5215	1056.1	173.8
1027.536	3003.5812	1045.55	162.8
1027.6478	3004.6404	1041.65	160.05
1027.7596	3005.6989	1044.05	160.2
1027.8714	3006.7567	1034.65	151.65
1027.9831	3007.8139	1058.4	150.05
1028.0947	3008.8705	1031.8	149.4
1028.2064	3009.9264	1042.65	143.5
1028.3179	3010.9818	1025.45	142.3
1028.4295	3012.0364	1019.05	138.05
1028.541	3013.0905	1019.55	137.55
1028.6524	3014.1439	1017.85	134.7
1028.7638	3015.1966	1016.7	133.75
1028.8752	3016.2487	1014.1	132.25
1028.9865	3017.3002	1019.35	130.9
1029.0978	3018.3511	1010.1	130.05
1029.209	3019.4013	1011.4	129.25
1029.3202	3020.4509	1009	126.75
1029.4314	3021.4998	1009.65	126.65
1029.5425	3022.5481	1010.25	130.95
1029.6535	3023.5958	1009.7	126.45
1029.7645	3024.6428	1011.05	127.65
1029.8755	3025.6892	1006.1	123.15
1029.9864	3026.735	1006.65	125.3
1030.0973	3027.7802	1009.45	130.35
1030.2082	3028.8247	1007.65	126.3
1030.319	3029.8685	1005.75	123.3
1030.4297	3030.9118	1008.6	125.8
1030.5404	3031.9544	1004.9	123.05
1030.6511	3032.9963	1008.95	127.5
1030.7617	3034.0376	1005.85	123.1
1030.8723	3035.0783	1013.8	130.05
1030.9829	3036.1184	1012.3	128.75
1031.0934	3037.1578	1011.65	129.2
1031.2038	3038.1966	1017.5	134.9
1031.3142	3039.2348	1011	128.45
1031.4246	3040.2723	1024.6	132.9
1031.5349	3041.3092	1012.45	131.3
1031.6452	3042.3455	1013.3	132.9
1031.7554	3043.3811	1011	127.25
1031.8656	3044.4161	1012.15	130.6
1031.9758	3045.4505	1006.05	127
1032.0859	3046.4842	1010.65	129.15
1032.1959	3047.5173	1002.8	120.1
1032.3059	3048.5498	1006.3	123.3
1032.4159	3049.5816	1010.6	127.55
1032.5258	3050.6128	1008.25	123.4
1032.6357	3051.6434	1006.4	121.75
1032.7455	3052.6734	1009.45	125.8
1032.8553	3053.7027	1003.7	120.45
1032.9651	3054.7314	1003.55	122.3
1033.0748	3055.7594	1001.35	119.2
1033.1845	3056.7868	1005.75	123.45
1033.2941	3057.8136	999.85	116.95
1033.4037	3058.8398	998.9	118.4
1033.5132	3059.8653	999.2	117.05
1033.6227	3060.8902	998.85	118.85
1033.7321	3061.9145	1001.1	117.6
1033.8415	3062.9381	999.65	117.8
1033.9509	3063.9612	1013.65	114.25
1034.0602	3064.9835	997.2	115.35
1034.1694	3066.0053	998.3	114.3
1034.2787	3067.0264	994.1	113.9
1034.3878	3068.0469	993.8	109.85
1034.497	3069.0668	995.25	111.3
1034.6061	3070.086	989.85	107.65
1034.7151	3071.1046	992.9	109.05
1034.8241	3072.1226	988.65	106.95
1034.9331	3073.1399	982.25	99.9
1035.042	3074.1567	980.4	99.4
1035.1508	3075.1727	981.1	96.35
1035.2597	3076.1882	976.9	95.45
1035.3684	3077.203	974.15	91.65
1035.4772	3078.2173	973.15	91.25
1035.5859	3079.2308	974.75	90.65
1035.6945	3080.2438	973.1	88.55
1035.8031	3081.2561	967.9	86.8
1035.9117	3082.2678	967.45	84.45
1036.0202	3083.2789	963.9	79.7
1036.1286	3084.2893	962.2	80.2
1036.2371	3085.2991	959	75.6
1036.3454	3086.3083	964.6	78.55
1036.4538	3087.3169	956.75	74.45
1036.562	3088.3248	955.4	71.8
1036.6703	3089.3321	955	71.1
1036.7785	3090.3388	952.45	72.7
1036.8866	3091.3449	952.45	70.25
1036.9948	3092.3503	953.25	67.25
1037.1028	3093.3551	947.75	67.05
1037.2108	3094.3593	949.5	68.1
1037.3188	3095.3629	945	63.3
1037.4267	3096.3658	946.1	63.05
1037.5346	3097.3681	946.55	66.05
1037.6425	3098.3698	944.1	58.05
1037.7503	3099.3708	949.4	63.1
1037.858	3100.3713	940.6	60.4
1037.9657	3101.3711	940.9	59.05
1038.0734	3102.3702	1083.1	58.6
1038.181	3103.3688	946	63.3
1038.2886	3104.3667	938.35	56.95
1038.3961	3105.364	939.4	59.15
1038.5036	3106.3607	941.55	56.6
1038.611	3107.3568	940.9	57.2
1038.7184	3108.3522	936.7	55.4
1038.8257	3109.347	935.65	53.75
1038.933	3110.3412	938.8	52.6
1039.0403	3111.3348	935.9	53.35
1039.1475	3112.3277	935.65	52.7
1039.2547	3113.32	932.4	53.35
1039.3618	3114.3117	933.4	50.2
1039.4689	3115.3028	931.95	48.75
1039.5759	3116.2932	933.05	49.4
1039.6829	3117.2831	937.3	51.4
1039.7898	3118.2723	933.1	49.25
1039.8967	3119.2608	931.35	49.35
1040.0035	3120.2488	929.05	46.6
1040.1103	3121.2361	930.05	47.75
1040.2171	3122.2229	925.1	42.95
1040.3238	3123.209	929.7	47.25
1040.4305	3124.1944	927.9	45.5
1040.5371	3125.1793	929	47.05
1040.6437	3126.1635	927.15	47.75
1040.7502	3127.1471	927.65	48.95
1040.8567	3128.1301	924.85	42.4
1040.9631	3129.1125	926.45	44.1
1041.0695	3130.0942	926.35	42.4
1041.1759	3131.0753	934.15	43.35
1041.2822	3132.0558	929.45	44.05
1041.3884	3133.0357	926.3	43.75
1041.4946	3134.015	924.2	42.45
1041.6008	3134.9936	925.4	42.8
1041.7069	3135.9716	944.2	42.75
1041.813	3136.949	924.6	42.25
1041.919	3137.9258	941.25	40.7
1042.025	3138.902	928.4	39.85
1042.1309	3139.8775	923.55	42.3
1042.2368	3140.8524	919.9	37.2
1042.3427	3141.8267	924.65	41
1042.4485	3142.8004	922.95	38.8
1042.5542	3143.7735	927.05	38.1
1042.6599	3144.7459	924.6	42.7
1042.7656	3145.7178	920.95	38.5
1042.8712	3146.689	918.7	37.85
1042.9768	3147.6596	923.6	39.3
1043.0823	3148.6295	919.5	36.75
1043.1878	3149.5989	920.1	38.5
1043.2932	3150.5676	921.1	40.8
1043.3986	3151.5357	916.95	35.75
1043.5039	3152.5032	918.4	36
1043.6092	3153.4701	916.7	34.8
1043.7145	3154.4364	921.8	37
1043.8197	3155.402	919.05	38.6
1043.9248	3156.367	919.3	36.25
1044.03	3157.3315	936.95	36
1044.135	3158.2952	917.3	35.55
1044.24	3159.2584	918.05	36.4
1044.345	3160.221	918.25	36.25
1044.4499	3161.1829	916.1	33.65
1044.5548	3162.1442	915.05	32.65
1044.6596	3163.105	914.65	32.85
1044.7644	3164.065	916.05	32.2
1044.8692	3165.0245	920.05	34.55
1044.9739	3165.9834	914.15	34.75
1045.0785	3166.9416	915.75	35.05
1045.1831	3167.8993	917.45	35.1
1045.2877	3168.8563	914.55	32.05
1045.3922	3169.8127	916	34.25
1045.4966	3170.7684	913.75	32.75
1045.6011	3171.7236	912.1	29.2
1045.7054	3172.6782	913.15	31.4
1045.8098	3173.6321	913.1	32.15
1045.914	3174.5854	919.5	31.2
1046.0183	3175.5381	914.4	30.9
1046.1224	3176.4902	911.7	28.85
1046.2266	3177.4417	914.35	31.8
1046.3307	3178.3926	910.9	29.95
1046.4347	3179.3428	913.35	35.15
1046.5387	3180.2924	910.4	28.25
1046.6427	3181.2415	912.5	31.5
1046.7466	3182.1899	913.3	30.75
1046.8504	3183.1377	911.35	28.55
1046.9542	3184.0848	912.65	29.1
1047.058	3185.0314	911.8	27.9
1047.1617	3185.9773	912	29.45
1047.2654	3186.9227	913.5	28.3
1047.369	3187.8674	911.55	28.55
1047.4726	3188.8115	915.6	30.25
1047.5761	3189.755	910.9	29.3
1047.6796	3190.6979	910	27.15
1047.783	3191.6402	909.15	28.1
1047.8864	3192.5818	910.4	28.15
1047.9898	3193.5229	924.45	36.25
1048.0931	3194.4633	909.25	27.1
1048.1963	3195.4031	910.1	28.5
1048.2995	3196.3423	910.75	28.7
1048.4027	3197.2809	908.3	25.05
1048.5058	3198.2189	907.9	25.1
1048.6089	3199.1563	925.95	26.2
1048.7119	3200.0931	906.45	27.15
1048.8148	3201.0292	907.45	25.45
1048.9178	3201.9648	909.65	29.25
1049.0206	3202.8997	912.15	27.95
1049.1235	3203.834	908.65	25.9
1049.2262	3204.7677	908.4	24.9
1049.329	3205.7008	908.65	25.65
1049.4317	3206.6333	905.25	24.2
1049.5343	3207.5652	908.2	24.15
1049.6369	3208.4964	905.35	23.45
1049.7394	3209.4271	904.6	21.75
1049.8419	3210.3571	907.15	25.3
1049.9444	3211.2865	907.3	25.25
1050.0468	3212.2154	909.2	26.9
1050.1491	3213.1436	911.25	26.5
1050.2514	3214.0712	913.5	24.05
1050.3537	3214.9982	904.35	21.6
1050.4559	3215.9246	909.5	25.8
1050.5581	3216.8503	904.25	23.3
1050.6602	3217.7755	906.5	23.65
1050.7623	3218.7001	906.75	25.65
1050.8643	3219.624	907.4	25.65
1050.9663	3220.5473	907.7	27.2
1051.0682	3221.4701	904.95	20.5
1051.1701	3222.3922	904.45	20.45
1051.2719	3223.3137	905.3	24.25
1051.3737	3224.2346	905.55	23.95
1051.4754	3225.1549	906.25	24.1
1051.5771	3226.0746	902.95	20.65
1051.6788	3226.9937	905.2	21.8
1051.7804	3227.9121	905.05	24.05
1051.8819	3228.83	906.1	24.65
1051.9834	3229.7473	905.05	21.9
1052.0849	3230.6639	903.45	21.1
1052.1863	3231.5799	903.85	20.9
1052.2876	3232.4954	903.95	20.25
1052.3889	3233.4102	903.55	21.85
1052.4902	3234.3244	903.75	20.6
1052.5914	3235.238	902.2	21.25
1052.6926	3236.151	925.8	20.55
1052.7937	3237.0634	902.2	20.95
1052.8948	3237.9752	904	23
1052.9958	3238.8864	902.4	18.35
1053.0968	3239.797	904.5	22.35
1053.1977	3240.7069	903.5	21.5
1053.2986	3241.6163	906	22.65
1053.3994	3242.5251	902.55	21.5
1053.5002	3243.4332	900.8	18.65
1053.6009	3244.3408	899.8	16.7
1053.7016	3245.2477	900.75	20.65
1053.8022	3246.154	904.4	20.15
1053.9028	3247.0598	901.7	18.75
1054.0034	3247.9649	900.65	17.8
1054.1039	3248.8694	900	18.2
1054.2043	3249.7733	902.6	21.05
1054.3047	3250.6766	901.25	19.4
1054.4051	3251.5793	902.55	20.3
1054.5054	3252.4814	899.6	18.2
1054.6056	3253.3829	900.4	20.15
1054.7058	3254.2838	899.2	18.4
1054.806	3255.1841	899.9	18.25
1054.9061	3256.0838	899.3	18.3
1055.0061	3256.9829	899.35	18
1055.1062	3257.8814	903.05	19.15
1055.2061	3258.7792	900.8	19.65
1055.306	3259.6765	903.5	19.5
1055.4059	3260.5731	897.65	16.6
1055.5057	3261.4692	898.85	16.4
1055.6055	3262.3647	898.9	17.45
1055.7052	3263.2595	898.7	15.9
1055.8049	3264.1538	896.65	15.5
1055.9045	3265.0474	899.25	17.4
1056.0041	3265.9404	896.4	14.9
1056.1036	3266.8329	897.65	16.3
1056.2031	3267.7247	906.45	15.65
1056.3025	3268.616	895.35	13.1
1056.4019	3269.5066	894.85	13.35
1056.5013	3270.3966	896.65	14.5
1056.6005	3271.286	894.15	13.35
