Software Version:	3.9.2.0
Unit SN:	10000200
Spectrometer SN:	6960
Date:	3/14/2024 1:08:29 PM
Data Line Index:	25
Spectral Points:	2048
Integration time (ms):	125
Averages:	20
Delay (ms):	30000
Sequence Number:	1
Processing:	dark subtract
Laser Power (mW):	300
Laser Current (mA):	823
Laser Diode Temp (C):	25
Laser Case Temp (C):	28.1
System Temp (C):	28.1
Spectrometer Temp (C):	25.9
CCD Temp (C):	0.01
Secondary Temp (C):	20.008
Heatsink Temp (C):	23.968
CCDPCB Temp (C):	37.196
SecondaryPCB Temp (C):	35.262

Wavelength	RamanShift	Raw Counts	Dark Subtracted
787.061	30.1047	445.15	32.95
787.2016	32.3739	446.75	34.2
787.3422	34.6426	448.65	35.55
787.4828	36.9109	453.95	40.95
787.6235	39.1787	460.1	41.05
787.7642	41.4461	466.7	43.35
787.9049	43.7131	475.45	48.2
788.0456	45.9796	485.75	56.55
788.1863	48.2456	492.5	59.15
788.3271	50.5112	501	63.1
788.4679	52.7764	508.45	68.4
788.6087	55.0411	514	72.15
788.7496	57.3054	527.35	80.3
788.8904	59.5692	532.95	83.75
789.0313	61.8326	546.1	90.7
789.1722	64.0955	555.1	95.85
789.3132	66.3579	567.15	102.4
789.4541	68.6199	585.8	120.4
789.5951	70.8815	609.35	142.6
789.7361	73.1426	672.95	199.75
789.8771	75.4032	833.1	357.7
790.0181	77.6634	1220.8	740.95
790.1592	79.9231	2135.3	1649.35
790.3003	82.1824	4066.8	3573.5
790.4414	84.4412	7596.3	7089.9
790.5825	86.6995	12393.2	11871
790.7237	88.9574	17140.4	16606.75
790.8648	91.2148	20441.45	19899.2
791.006	93.4717	21998.75	21450.2
791.1472	95.7282	22270.95	21716.55
791.2885	97.9842	22082.45	21524.55
791.4297	100.2398	21573.55	21015.8
791.571	102.4949	20966	20403.65
791.7123	104.7495	20285.1	19716.85
791.8536	107.0036	19617.05	19050.1
791.9949	109.2573	18954.5	18391
792.1363	111.5105	18382.15	17814.2
792.2777	113.7632	17820.5	17250.8
792.4191	116.0154	17319.25	16741.05
792.5605	118.2672	16962.15	16387.5
792.7019	120.5185	16585.55	16011
792.8434	122.7693	16296.25	15717.7
792.9849	125.0197	16083.9	15505.8
793.1264	127.2696	15844.3	15260.55
793.2679	129.519	15695.05	15109.75
793.4094	131.7679	15476.1	14888.55
793.551	134.0163	15263.75	14671.4
793.6926	136.2642	15044.05	14449.05
793.8342	138.5117	14760.95	14161.2
793.9758	140.7587	14497.6	13897.95
794.1175	143.0052	14176.8	13574.7
794.2591	145.2512	13928.75	13326.75
794.4008	147.4967	13681.05	13074.4
794.5425	149.7417	13428.2	12820.8
794.6842	151.9863	13301.55	12692.7
794.826	154.2304	13186.9	12573.25
794.9677	156.4739	13066.85	12448
795.1095	158.717	13030.55	12413.4
795.2513	160.9596	12953.4	12327.2
795.3931	163.2017	12770.6	12148.05
795.535	165.4433	12613.15	11987.3
795.6768	167.6844	12367.6	11738.75
795.8187	169.925	12116.8	11484.35
795.9606	172.1651	11826.9	11191.1
796.1025	174.4047	11602.3	10963.95
796.2445	176.6439	11381.5	10743.65
796.3864	178.8825	11221	10578.3
796.5284	181.1206	11086.75	10440.3
796.6704	183.3582	10967.35	10319.6
796.8124	185.5954	10879.75	10229.4
796.9544	187.832	10838.3	10183.6
797.0965	190.0681	10827.9	10171.45
797.2386	192.3037	10801.35	10139.45
797.3806	194.5388	10794.4	10134
797.5228	196.7734	10831.1	10166.3
797.6649	199.0075	10874.5	10205.25
797.807	201.2411	10967	10294.45
797.9492	203.4742	11014.95	10343.1
798.0914	205.7068	11143.3	10470.75
798.2336	207.9389	11217	10541.45
798.3758	210.1704	11339.25	10662.85
798.518	212.4015	11410.7	10732.55
798.6603	214.632	11512.95	10832.9
798.8025	216.862	11610.55	10930.85
798.9448	219.0915	11662.8	10993.35
799.0871	221.3205	11744.6	11078.3
799.2294	223.549	11783.9	11125
799.3718	225.777	11816.15	11160.15
799.5141	228.0044	11869.15	11209.9
799.6565	230.2314	11950.8	11290.8
799.7989	232.4578	11994.75	11333
799.9413	234.6837	12029.15	11360.25
800.0837	236.909	12095.1	11425.6
800.2262	239.1339	12096.45	11404.25
800.3687	241.3582	12030.35	11349.5
800.5111	243.582	11975.15	11270.05
800.6536	245.8053	11925.85	11230.25
800.7961	248.0281	11885.5	11193.45
800.9387	250.2503	11861.55	11166.05
801.0812	252.472	11858.1	11156.1
801.2238	254.6932	11943.9	11240
801.3664	256.9139	12020.2	11314.15
801.509	259.134	12146.3	11433.9
801.6516	261.3536	12326.4	11618.25
801.7942	263.5727	12558.3	11848.65
801.9369	265.7912	12779.9	12070.95
802.0795	268.0092	13034.5	12326.45
802.2222	270.2267	13209.05	12498.75
802.3649	272.4436	13381.85	12666.6
802.5076	274.6601	13446.7	12726.2
802.6504	276.8759	13402.2	12687.95
802.7931	279.0913	13351.05	12632.25
802.9359	281.3061	13302	12583.05
803.0787	283.5204	13284.05	12563.55
803.2215	285.7341	13259.8	12535.2
803.3643	287.9473	13277.85	12552.55
803.5071	290.16	13277	12546.05
803.6499	292.3721	13302.95	12576.1
803.7928	294.5837	13395.35	12671.4
803.9357	296.7947	13504.25	12777.35
804.0786	299.0052	13639.15	12913.15
804.2215	301.2152	13647.55	12918.75
804.3644	303.4246	13556.2	12827.15
804.5074	305.6334	13327.65	12602.5
804.6503	307.8418	13025.8	12291.75
804.7933	310.0495	12677.3	11944
804.9363	312.2568	12338.9	11608.45
805.0793	314.4635	11973.8	11238.95
805.2223	316.6696	11753.25	11018.45
805.3653	318.8752	11528.5	10785.7
805.5084	321.0802	11422.75	10688.3
805.6514	323.2847	11427.5	10690.3
805.7945	325.4887	11462.1	10723.1
805.9376	327.692	11459.5	10718.55
806.0807	329.8949	11464.45	10724.4
806.2238	332.0972	11377.4	10635.7
806.367	334.2989	11248	10501.85
806.5101	336.5001	11071.45	10326.45
806.6533	338.7007	10882.6	10135.2
806.7965	340.9008	10722.6	9973.8
806.9397	343.1003	10564.45	9814.85
807.0829	345.2992	10438.35	9687.15
807.2261	347.4976	10350.6	9599.15
807.3693	349.6955	10253.45	9499.3
807.5126	351.8927	10220.75	9464.55
807.6559	354.0895	10138.5	9372.15
807.7991	356.2856	10100.3	9343.95
807.9424	358.4812	10027.55	9271.65
808.0857	360.6763	10018.85	9259.05
808.2291	362.8707	9985.5	9225.3
808.3724	365.0646	10015.65	9252.4
808.5158	367.258	10042.5	9281
808.6591	369.4508	10090	9320.8
808.8025	371.643	10201.6	9434.3
808.9459	373.8346	10292.9	9524.4
809.0893	376.0257	10392.3	9618.05
809.2327	378.2162	10426.95	9650.4
809.3762	380.4062	10446.2	9669.9
809.5196	382.5956	10356.4	9578.8
809.6631	384.7844	10242.05	9465.8
809.8066	386.9726	10104.3	9328.8
809.9501	389.1603	10031.2	9253.1
810.0936	391.3474	9954.65	9145.6
810.2371	393.5339	9933.8	9153.8
810.3806	395.7199	9895.35	9122.2
810.5241	397.9052	9947.3	9176.85
810.6677	400.09	10031.8	9263.3
810.8113	402.2743	10171.8	9402.45
810.9548	404.4579	10300.4	9531.65
811.0984	406.641	10468.2	9700.25
811.2421	408.8235	10594.6	9823
811.3857	411.0054	10720.5	9949.15
811.5293	413.1868	10831.95	10057.65
811.673	415.3675	10847.05	10071.8
811.8166	417.5477	10854.75	10076.35
811.9603	419.7273	10816.4	10037.35
812.104	421.9064	10736.35	9949.2
812.2477	424.0848	10660.4	9878.55
812.3914	426.2627	10504.2	9719.45
812.5351	428.4399	10311.75	9524.15
812.6788	430.6166	10047.25	9252.2
812.8226	432.7928	9770.2	8975.2
812.9663	434.9683	9517.25	8724.95
813.1101	437.1432	9337.85	8541.5
813.2539	439.3176	9193.25	8399.55
813.3977	441.4914	9088.3	8292.85
813.5415	443.6645	9076.65	8277.7
813.6853	445.8371	9001.25	8203.3
813.8291	448.0091	8975.3	8179.1
813.973	450.1806	8978.1	8182.45
814.1168	452.3514	8966.5	8166.25
814.2607	454.5216	9015.2	8208
814.4046	456.6913	8961.7	8161
814.5485	458.8603	9004.3	8204
814.6924	461.0288	9012.95	8212.25
814.8363	463.1967	9014.45	8212.1
814.9802	465.3639	9060.9	8257.6
815.1241	467.5306	9015.45	8212.35
815.2681	469.6967	8995.05	8192.35
815.412	471.8622	8996.6	8192.1
815.556	474.0271	8981.8	8179.2
815.7	476.1914	9015.6	8212.4
815.844	478.3551	9011.25	8206.25
815.988	480.5182	9060.85	8254.95
816.132	482.6807	9102.15	8295.25
816.276	484.8426	9236	8427.95
816.4201	487.0039	9475.3	8669.15
816.5641	489.1647	9766.3	8961.9
816.7082	491.3248	10036.25	9230.35
816.8522	493.4843	10112.15	9304.4
816.9963	495.6432	10086.8	9278.75
817.1404	497.8015	9965.55	9154.95
817.2845	499.9592	9837.8	9031.35
817.4286	502.1163	9646.4	8834.85
817.5727	504.2728	9404.7	8590.35
817.7168	506.4287	9169.25	8357.95
817.861	508.5839	8939.45	8129.1
818.0051	510.7386	8766.3	7954.15
818.1493	512.8927	8738	7916.65
818.2935	515.0461	8730.8	7918.5
818.4377	517.199	8768.55	7954.25
818.5818	519.3512	8920.5	8106.35
818.726	521.5029	9169.1	8347.65
818.8703	523.6539	9393.65	8574.9
819.0145	525.8043	9472.8	8658.05
819.1587	527.9541	9419.35	8601.15
819.303	530.1033	9196.35	8378.35
819.4472	532.2519	9032.4	8211.65
819.5915	534.3999	8960	8139.45
819.7357	536.5472	8992.8	8170.9
819.88	538.694	9110.2	8290.1
820.0243	540.8401	9297.3	8474.25
820.1686	542.9856	9459.95	8637.4
820.3129	545.1305	9484.65	8659.45
820.4572	547.2748	9425.45	8601.75
820.6016	549.4185	9335.4	8509.8
820.7459	551.5615	9230.05	8406.2
820.8902	553.704	9244.65	8418.25
821.0346	555.8458	9301.3	8480.55
821.1789	557.987	9445.65	8621.1
821.3233	560.1276	9615.4	8791.55
821.4677	562.2675	9901.15	9079.8
821.6121	564.4069	10313.4	9487.8
821.7565	566.5456	10701.4	9878.55
821.9009	568.6837	10810.4	9986.95
822.0453	570.8212	10506.6	9681.05
822.1897	572.958	9942.2	9116
822.3342	575.0942	9429.6	8604.45
822.4786	577.2299	9054.1	8226.05
822.6231	579.3648	8882.1	8055.35
822.7675	581.4992	8840.55	8013.1
822.912	583.6329	8896.25	8068.75
823.0565	585.766	9043.2	8216.7
823.201	587.8985	9189.45	8363.2
823.3454	590.0304	9291.7	8441.6
823.4899	592.1616	9284.25	8454.6
823.6345	594.2922	9195.3	8366.5
823.779	596.4222	9038.05	8209.1
823.9235	598.5515	8855.45	8025.4
824.068	600.6802	8659.3	7830.1
824.2126	602.8083	8510.85	7679.1
824.3571	604.9358	8480.8	7647.55
824.5017	607.0626	8500.55	7666.7
824.6462	609.1888	8562.75	7728.35
824.7908	611.3144	8714.15	7879.5
824.9354	613.4393	8815.5	7981.65
825.08	615.5636	8958.35	8124.25
825.2246	617.6873	9023.7	8192.85
825.3692	619.8103	9004.2	8168.6
825.5138	621.9327	8848.9	8011.7
825.6584	624.0544	8665.75	7832.1
825.803	626.1756	8484.55	7651.4
825.9477	628.2961	8320.45	7484.45
826.0923	630.4159	8273.5	7435.85
826.237	632.5351	8251.65	7416.65
826.3816	634.6537	8220.05	7383.1
826.5263	636.7716	8207.4	7370.8
826.6709	638.8889	8200.7	7365.5
826.8156	641.0056	8225.35	7386.55
826.9603	643.1216	8204.95	7367.75
827.105	645.237	8193.95	7351.7
827.2497	647.3518	8102.1	7262.9
827.3944	649.4659	8031.4	7193.05
827.5391	651.5793	7964.6	7123.05
827.6838	653.6922	7935.05	7097.45
827.8285	655.8043	7910.2	7070.25
827.9733	657.9159	7909.65	7068.35
828.118	660.0268	7880.85	7037.55
828.2627	662.137	7874.9	7035.05
828.4075	664.2466	7895.95	7054.65
828.5522	666.3556	7881.35	7042.95
828.697	668.4639	7853.05	7006.7
828.8418	670.5716	7814.8	6972.8
828.9865	672.6786	7764.75	6919.15
829.1313	674.785	7709.6	6866
829.2761	676.8907	7699.7	6856.7
829.4209	678.9958	7677.3	6833.4
829.5657	681.1002	7657.4	6812.55
829.7105	683.204	7654.6	6804.45
829.8553	685.3072	7643.85	6797.9
830.0001	687.4097	7611.35	6765.4
830.1449	689.5115	7610.4	6762.5
830.2898	691.6127	7586.6	6742.6
830.4346	693.7132	7582.25	6733.05
830.5794	695.8131	7616.15	6754.5
830.7243	697.9123	7605.25	6756.95
830.8691	700.0109	7616.35	6769.7
831.014	702.1089	7632.15	6787.6
831.1588	704.2061	7721.15	6873.6
831.3037	706.3028	7783.8	6934.75
831.4486	708.3987	7843.55	6995.7
831.5935	710.4941	7864	7014.85
831.7383	712.5887	7887.45	7039.25
831.8832	714.6827	7930.55	7076.15
832.0281	716.7761	7994.9	7145.15
832.173	718.8688	8079.85	7228.85
832.3179	720.9608	8181.45	7326.4
832.4628	723.0522	8314.95	7463.5
832.6077	725.1429	8398.8	7550
832.7527	727.233	8480.05	7629.95
832.8976	729.3224	8569.65	7719
833.0425	731.4112	8581.5	7729.25
833.1874	733.4993	8460.25	7604.5
833.3324	735.5867	8265	7411.15
833.4773	737.6735	8045.7	7191.9
833.6222	739.7596	7836.65	6982.7
833.7672	741.845	7731.75	6878.65
833.9122	743.9298	7619.85	6764.9
834.0571	746.014	7591.9	6738.65
834.2021	748.0974	7573.05	6718.15
834.347	750.1802	7550.9	6694.7
834.492	752.2624	7568.7	6715.4
834.637	754.3439	7611.65	6756.35
834.782	756.4247	7663.65	6800.15
834.9269	758.5048	7764.95	6910.85
835.0719	760.5843	7994.5	7139.55
835.2169	762.6631	8263.95	7410.35
835.3619	764.7413	8715.5	7862.25
835.5069	766.8188	9259.05	8403.95
835.6519	768.8956	9767.1	8909.4
835.7969	770.9718	10131	9275.9
835.9419	773.0473	10140.5	9286.15
836.0869	775.1221	9949.25	9091
836.232	777.1962	9751.3	8896.65
836.377	779.2697	9723.7	8864
836.522	781.3426	9852	8983.75
836.667	783.4147	9996.55	9140
836.8121	785.4862	10041	9186.4
836.9571	787.557	9832.35	8976.4
837.1021	789.6271	9413.9	8555.45
837.2472	791.6966	8868.05	8008.6
837.3922	793.7654	8348.3	7488.25
837.5373	795.8335	7994.35	7135.8
837.6823	797.901	7738.25	6880.75
837.8274	799.9678	7579.2	6717.7
837.9724	802.0339	7500.45	6644.2
838.1175	804.0993	7482.65	6613.2
838.2626	806.1641	7438.5	6576.55
838.4076	808.2282	7349.1	6490.05
838.5527	810.2916	7314.85	6453.25
838.6978	812.3544	7233.9	6375.15
838.8428	814.4164	7175.55	6316.8
838.9879	816.4778	7204.1	6343.9
839.133	818.5385	7237.3	6379.1
839.2781	820.5986	7359.2	6498.55
839.4232	822.658	7532.95	6672.35
839.5682	824.7166	7818.25	6958.9
839.7133	826.7747	8252.2	7394.5
839.8584	828.832	8736.4	7875.1
840.0035	830.8886	9097.1	8231.95
840.1486	832.9446	9301.35	8439.4
840.2937	834.9999	9176.6	8318.25
840.4388	837.0545	8907.1	8043.25
840.5839	839.1085	8570.7	7711.5
840.729	841.1618	8266.4	7400.05
840.8741	843.2143	8017.85	7156.8
841.0192	845.2662	7828.2	6965.3
841.1643	847.3175	7699.85	6838.1
841.3095	849.368	7616.05	6753.75
841.4546	851.4179	7538.65	6677.3
841.5997	853.467	7465.25	6602.85
841.7448	855.5155	7431.3	6566.75
841.8899	857.5633	7400.75	6537.65
842.0351	859.6105	7297.45	6436.2
842.1802	861.6569	7235.4	6371.05
842.3253	863.7027	7164.75	6302.3
842.4704	865.7478	7111.85	6248.2
842.6156	867.7922	7066.6	6203.75
842.7607	869.8359	7058.8	6194.05
842.9058	871.8789	7059	6196.85
843.0509	873.9212	7094.25	6196.4
843.1961	875.9629	7147.9	6283
843.3412	878.0039	7270.55	6406.85
843.4863	880.0441	7331.9	6466.5
843.6315	882.0837	7353.35	6487
843.7766	884.1226	7411.6	6545.15
843.9218	886.1609	7454.05	6590.95
844.0669	888.1984	7571.7	6707.95
844.212	890.2352	7712.7	6849.9
844.3572	892.2714	7725.4	6853.85
844.5023	894.3069	7691.25	6826.85
844.6475	896.3416	7548.75	6682.5
844.7926	898.3757	7396.35	6531.5
844.9377	900.4091	7303.55	6436.7
845.0829	902.4418	7284.25	6413.7
845.228	904.4739	7321.2	6451.25
845.3732	906.5052	7361.05	6493.45
845.5183	908.5358	7365	6497.3
845.6635	910.5658	7241	6373.8
845.8086	912.595	7091.75	6226.1
845.9538	914.6236	6891.15	6023.4
846.0989	916.6515	6767	5902.35
846.2441	918.6786	6670.55	5800.65
846.3892	920.7051	6654.1	5786.2
846.5344	922.7309	6660.2	5794.25
846.6795	924.756	6690.75	5822.1
846.8246	926.7804	6751	5881.9
846.9698	928.8041	6754.95	5885
847.1149	930.8272	6795.55	5926.4
847.2601	932.8495	6777.25	5907.75
847.4052	934.8711	6790.4	5920.4
847.5504	936.892	6773.55	5904.5
847.6955	938.9123	6781.3	5912
847.8407	940.9318	6823.55	5955.25
847.9858	942.9506	6836.2	5964.85
848.131	944.9688	6805.95	5935.4
848.2761	946.9862	6699.95	5830
848.4213	949.003	6578.7	5708.9
848.5664	951.019	6484.85	5614.85
848.7115	953.0344	6431.35	5560.85
848.8567	955.0491	6397.3	5527.5
849.0018	957.063	6417.75	5549.8
849.147	959.0763	6457.3	5588.85
849.2921	961.0888	6471.05	5600.05
849.4373	963.1007	6520.55	5649.8
849.5824	965.1119	6537.55	5668.3
849.7275	967.1223	6536.9	5669.1
849.8727	969.1321	6497.25	5627.05
850.0178	971.1412	6486.35	5616.5
850.1629	973.1495	6469.65	5600.05
850.3081	975.1572	6508.5	5603.9
850.4532	977.1641	6490.65	5624.05
850.5983	979.1704	6462.7	5592.6
850.7435	981.1759	6418.3	5546.35
850.8886	983.1808	6435.2	5564.4
851.0337	985.1849	6448.5	5567
851.1788	987.1884	6473	5601
851.324	989.1911	6525.9	5652.9
851.4691	991.1932	6582.45	5709.7
851.6142	993.1945	6590.55	5718.2
851.7593	995.1951	6571.85	5699.8
851.9045	997.1951	6561.6	5685.55
852.0496	999.1943	6542	5672.7
852.1947	1001.1928	6521.75	5649.3
852.3398	1003.1906	6566.35	5696.15
852.4849	1005.1877	6684.35	5809.45
852.63	1007.1841	6768.9	5895.35
852.7751	1009.1798	6802.2	5930.5
852.9202	1011.1748	6764.65	5892.65
853.0653	1013.1691	6666.45	5792.4
853.2104	1015.1627	6505.5	5633.35
853.3555	1017.1556	6314.7	5443.3
853.5006	1019.1477	6208.15	5333.5
853.6457	1021.1392	6121.3	5250.4
853.7908	1023.1299	6092.5	5220.65
853.9359	1025.12	6093.9	5219.1
854.081	1027.1093	6135.2	5262.9
854.2261	1029.0979	6240.85	5370
854.3712	1031.0859	6308.3	5435.15
854.5163	1033.0731	6359.7	5484.55
854.6613	1035.0596	6353.5	5481.3
854.8064	1037.0454	6244.65	5371.85
854.9515	1039.0304	6161.75	5289.2
855.0965	1041.0148	6074.1	5200.65
855.2416	1042.9985	5978.6	5103.15
855.3867	1044.9814	5948.75	5075.6
855.5317	1046.9636	5900.15	5024.9
855.6768	1048.9452	5907	5034.6
855.8219	1050.926	5937.1	5065.5
855.9669	1052.9061	5967.55	5095.1
856.112	1054.8855	5984.2	5110.9
856.257	1056.8642	6015.3	5141.1
856.4021	1058.8421	6061.05	5182.4
856.5471	1060.8194	6080.75	5205.75
856.6921	1062.7959	6095.25	5221.7
856.8372	1064.7717	6119.55	5244.7
856.9822	1066.7469	6180.1	5306.3
857.1272	1068.7213	6237.85	5360.9
857.2723	1070.695	6318.15	5443.95
857.4173	1072.6679	6369.75	5496.5
857.5623	1074.6402	6410.85	5537.45
857.7073	1076.6117	6410	5531.75
857.8523	1078.5826	6305.2	5429.25
857.9973	1080.5527	6173.65	5300.2
858.1423	1082.5221	6072.25	5197
858.2873	1084.4908	5990	5114.5
858.4323	1086.4587	6001.95	5126.55
858.5773	1088.426	6005	5131.85
858.7223	1090.3925	6013.25	5132.25
858.8673	1092.3584	6019.35	5146.15
859.0123	1094.3235	6050.05	5177.95
859.1573	1096.2879	6130.4	5253.5
859.3022	1098.2515	6230.3	5353.9
859.4472	1100.2145	6378.85	5505.25
859.5922	1102.1767	6521.45	5643.5
859.7371	1104.1382	6731.05	5855.45
859.8821	1106.099	6942.2	6064.1
860.027	1108.0591	7129.35	6252.7
860.172	1110.0185	7317.55	6440.7
860.3169	1111.9771	7380.85	6506.6
860.4619	1113.9351	7370.2	6492.8
860.6068	1115.8923	7329.7	6452.75
860.7517	1117.8488	7237.6	6360.35
860.8967	1119.8045	7075	6200.3
861.0416	1121.7596	6921.7	6044.2
861.1865	1123.7139	6720.65	5846.1
861.3314	1125.6675	6649.8	5773.35
861.4763	1127.6204	6628.45	5752.9
861.6212	1129.5726	6623.75	5747.1
861.7661	1131.524	6574.9	5701.7
861.911	1133.4748	6469.65	5591.85
862.0559	1135.4248	6297.65	5418.7
862.2008	1137.3741	6146.9	5271.45
862.3457	1139.3226	6026.65	5148.4
862.4905	1141.2705	5996.5	5119.45
862.6354	1143.2176	5948.55	5065.85
862.7803	1145.164	5923.95	5044.8
862.9251	1147.1097	5865.45	4988.75
863.07	1149.0546	5778.95	4901.5
863.2148	1150.9989	5687.15	4809.3
863.3597	1152.9424	5598.7	4720.7
863.5045	1154.8852	5518.55	4641.5
863.6493	1156.8272	5483.15	4608.15
863.7942	1158.7686	5485.7	4603.2
863.939	1160.7092	5505.6	4629.05
864.0838	1162.6491	5521.9	4642.35
864.2286	1164.5883	5603.55	4727.15
864.3734	1166.5267	5708.05	4830
864.5182	1168.4644	5821.7	4945.2
864.663	1170.4014	5996.65	5113.3
864.8078	1172.3377	6184.85	5309.4
864.9526	1174.2732	6436.6	5558.4
865.0974	1176.2081	6784.2	5906.45
865.2421	1178.1421	7220.25	6339.5
865.3869	1180.0755	7692.7	6814.5
865.5317	1182.0082	8011.55	7136.85
865.6764	1183.9401	8123.05	7242.95
865.8212	1185.8713	7981.35	7103.3
865.9659	1187.8017	7664.95	6788.3
866.1106	1189.7315	7281.2	6403.2
866.2554	1191.6605	6939.9	6033.95
866.4001	1193.5888	6670.1	5791.75
866.5448	1195.5163	6505.15	5628.55
866.6895	1197.4432	6379.95	5500.35
866.8342	1199.3693	6315.9	5439.35
866.9789	1201.2947	6297.05	5412.3
867.1236	1203.2193	6241.6	5363.2
867.2683	1205.1432	6244.8	5366.7
867.413	1207.0664	6227.6	5350
867.5576	1208.9889	6225.85	5345.25
867.7023	1210.9106	6225.2	5347.85
867.847	1212.8316	6235.45	5358.5
867.9916	1214.7519	6274.05	5386.35
868.1363	1216.6715	6316.15	5439.35
868.2809	1218.5903	6383.4	5506.35
868.4255	1220.5084	6466.95	5587.75
868.5701	1222.4257	6526.25	5649.75
868.7148	1224.3424	6602.8	5725.2
868.8594	1226.2583	6711.55	5830.95
869.004	1228.1735	6845.05	5964.45
869.1486	1230.0879	6988.9	6112.35
869.2932	1232.0016	7187.7	6309.75
869.4377	1233.9146	7325.6	6443.35
869.5823	1235.8269	7384.8	6506.9
869.7269	1237.7384	7375.15	6495.7
869.8715	1239.6492	7294.9	6417.55
870.016	1241.5592	7294.25	6414.3
870.1606	1243.4686	7355.25	6474.7
870.3051	1245.3772	7544.5	6668.4
870.4496	1247.285	7768.5	6889.5
870.5941	1249.1922	8000.35	7119.9
870.7387	1251.0986	8223.2	7345.25
870.8832	1253.0042	8407.15	7530.4
871.0277	1254.9092	8546.15	7666.25
871.1722	1256.8134	8699.25	7821.9
871.3167	1258.7169	8820.55	7941.9
871.4611	1260.6196	8938.05	8061.5
871.6056	1262.5216	9061.75	8181.55
871.7501	1264.4229	9190.1	8313.95
871.8945	1266.3234	9332.8	8453.85
872.039	1268.2232	9423.1	8543.1
872.1834	1270.1223	9450.45	8569.1
872.3278	1272.0207	9419.4	8539.8
872.4723	1273.9183	9416.45	8530.95
872.6167	1275.8151	9355.25	8475.5
872.7611	1277.7113	9369.1	8488.95
872.9055	1279.6067	9473.05	8594.3
873.0499	1281.5014	9750.9	8869.85
873.1943	1283.3953	10173.8	9294.25
873.3386	1285.2885	10746.15	9866.35
873.483	1287.181	11306.05	10425
873.6274	1289.0727	11824.8	10945.1
873.7717	1290.9637	12157.35	11276.7
873.9161	1292.854	12329.5	11448.5
874.0604	1294.7435	12326.7	11447.8
874.2047	1296.6323	12147.45	11266.9
874.349	1298.5204	11909.8	11027.5
874.4933	1300.4077	11662	10781.4
874.6376	1302.2943	11342.35	10463
874.7819	1304.1802	11008.55	10129.85
874.9262	1306.0653	10605.05	9723.75
875.0705	1307.9497	10164.95	9284.2
875.2147	1309.8333	9794.35	8913.2
875.359	1311.7162	9499	8620.05
875.5032	1313.5984	9289.45	8406.45
875.6475	1315.4798	9170.65	8279.65
875.7917	1317.3605	9111.35	8215.6
875.9359	1319.2405	9026.45	8144.6
876.0801	1321.1197	8832.65	7951.95
876.2243	1322.9982	8533.05	7646.6
876.3685	1324.876	8266.3	7388.2
876.5127	1326.753	7934.75	7054.4
876.6569	1328.6293	7679	6796.9
876.801	1330.5048	7448.8	6565.35
876.9452	1332.3796	7242.7	6362.6
877.0893	1334.2537	7120.15	6214.6
877.2335	1336.127	6994.85	6115.5
877.3776	1337.9996	6927.4	6046.85
877.5217	1339.8714	6890.7	6010.1
877.6658	1341.7426	6920.25	5996.25
877.8099	1343.6129	6897.65	6015.65
877.954	1345.4826	6844.3	5965.55
878.0981	1347.3515	6836.15	5952.5
878.2422	1349.2196	6788.85	5906.8
878.3862	1351.087	6838.45	5958.75
878.5303	1352.9537	6855.8	5973.35
878.6743	1354.8197	6909.85	6029.5
878.8184	1356.6849	7043.1	6161.75
878.9624	1358.5493	7183.65	6303.4
879.1064	1360.4131	7358.55	6478.05
879.2504	1362.276	7527.35	6646.7
879.3944	1364.1383	7617.85	6737.6
879.5384	1365.9998	7549.15	6662.9
879.6823	1367.8606	7352.25	6469.05
879.8263	1369.7206	7082.35	6200.4
879.9702	1371.5799	6893.4	6011.05
880.1142	1373.4384	6699.3	5817.55
880.2581	1375.2962	6491.6	5611.65
880.402	1377.1533	6237.7	5356.55
880.5459	1379.0096	5963.8	5082.85
880.6898	1380.8652	5690.55	4809.9
880.8337	1382.7201	5468.6	4588.6
880.9776	1384.5742	5260.1	4380.15
881.1215	1386.4275	5132.75	4250.8
881.2653	1388.2802	5017.55	4138.5
881.4092	1390.132	4941.95	4060.5
881.553	1391.9832	4868.95	3984.1
881.6968	1393.8336	4819.55	3937.6
881.8406	1395.6832	4783.6	3898.9
881.9844	1397.5322	4736.6	3855.65
882.1282	1399.3803	4741.25	3855.15
882.272	1401.2278	4693.8	3811.95
882.4158	1403.0745	4668.45	3786.3
882.5595	1404.9204	4649	3770.35
882.7033	1406.7656	4658.05	3774.7
882.847	1408.6101	4658.9	3775.1
882.9908	1410.4538	4691.35	3811
883.1345	1412.2968	4706.6	3824.9
883.2782	1414.139	4739.05	3857.05
883.4219	1415.9805	4797.15	3915.8
883.5656	1417.8213	4861.55	3974.25
883.7092	1419.6613	4944.5	4062.05
883.8529	1421.5006	5068	4184.75
883.9965	1423.3391	5253.85	4373.1
884.1402	1425.1769	5503.9	4622.7
884.2838	1427.0139	5846.35	4964.2
884.4274	1428.8502	6276.85	5392.65
884.571	1430.6858	6680.95	5798.4
884.7146	1432.5206	7020.5	6139.6
884.8582	1434.3547	7146.3	6265.25
885.0018	1436.188	7163.4	6281.4
885.1453	1438.0206	7095.95	6214.2
885.2889	1439.8524	6973.85	6091.8
885.4324	1441.6835	6896.25	6014.4
885.5759	1443.5139	6818.55	5933.8
885.7194	1445.3435	6778.1	5897.9
885.8629	1447.1724	6778.7	5898.25
886.0064	1449.0005	6733	5851.2
886.1499	1450.8279	6692.55	5809.5
886.2933	1452.6545	6687.5	5806.55
886.4368	1454.4804	6697.35	5817.4
886.5802	1456.3056	6679.45	5788.6
886.7237	1458.13	6627	5744.8
886.8671	1459.9536	6541.2	5660.3
887.0105	1461.7766	6331.55	5449.85
887.1539	1463.5987	6078.9	5195.75
887.2972	1465.4202	5844.95	4963.95
887.4406	1467.2409	5580.15	4697.1
887.584	1469.0608	5362.6	4481.2
887.7273	1470.88	5164.8	4280.6
887.8706	1472.6984	4976	4094.55
888.0139	1474.5161	4822	3937.35
888.1572	1476.3331	4718.4	3836.8
888.3005	1478.1493	4626.7	3743.25
888.4438	1479.9648	4571.5	3688.85
888.5871	1481.7795	4501.75	3619.8
888.7303	1483.5935	4461.8	3580.9
888.8736	1485.4067	4436.05	3553.05
889.0168	1487.2192	4408.3	3527.2
889.16	1489.031	4395	3511.7
889.3032	1490.842	4367.5	3485.25
889.4464	1492.6522	4362.35	3482.6
889.5896	1494.4618	4326	3442.05
889.7327	1496.2705	4306.75	3423.35
889.8759	1498.0785	4271.9	3388
890.019	1499.8858	4234.7	3353.4
890.1622	1501.6924	4212.6	3329.5
890.3053	1503.4981	4190.4	3307.95
890.4484	1505.3032	4144.65	3263.55
890.5914	1507.1075	4139.85	3259.65
890.7345	1508.911	4102.9	3220.95
890.8776	1510.7138	4044.4	3160.7
891.0206	1512.5159	4012.4	3132.45
891.1637	1514.3172	4001.25	3118.45
891.3067	1516.1178	3967.05	3086.5
891.4497	1517.9176	3940	3056.05
891.5927	1519.7166	3922.25	3042.95
891.7357	1521.515	3915.2	3027.65
891.8786	1523.3126	3885.75	3005.4
892.0216	1525.1094	3863.2	2978
892.1645	1526.9055	3855.75	2975.2
892.3074	1528.7008	3844.45	2960.75
892.4503	1530.4954	3835.3	2946.7
892.5932	1532.2893	3819.35	2939.05
892.7361	1534.0824	3801.3	2915.15
892.879	1535.8747	3787.9	2904.65
893.0218	1537.6663	3799.7	2916.8
893.1647	1539.4572	3793.25	2910.35
893.3075	1541.2473	3811.95	2929.25
893.4503	1543.0367	3799.5	2917.95
893.5931	1544.8253	3813.85	2928
893.7359	1546.6132	3846.8	2962.65
893.8787	1548.4003	3863.95	2971.75
894.0214	1550.1867	3912.9	3020.65
894.1642	1551.9723	3952.2	3065.55
894.3069	1553.7572	4021.2	3136.5
894.4496	1555.5414	4111.4	3228
894.5923	1557.3247	4241	3357.2
894.735	1559.1074	4390.25	3508.4
894.8777	1560.8893	4539.6	3658.5
895.0204	1562.6705	4688.9	3806.7
895.163	1564.4509	4806.45	3924.3
895.3056	1566.2305	4877.6	3995.45
895.4482	1568.0094	4954.4	4074.25
895.5908	1569.7876	4954	4071.1
895.7334	1571.565	4933	4050.05
895.876	1573.3417	4952.9	4069.95
896.0186	1575.1176	4968.45	4086.05
896.1611	1576.8928	4959.6	4077.35
896.3036	1578.6672	5025.25	4143.35
896.4461	1580.4409	5077.3	4197.9
896.5886	1582.2138	5151.55	4267
896.7311	1583.986	5225.35	4342.65
896.8736	1585.7575	5355.75	4477.1
897.0161	1587.5282	5451.55	4569.75
897.1585	1589.2981	5559.9	4678.25
897.3009	1591.0673	5630	4747.2
897.4433	1592.8358	5750.95	4869.45
897.5857	1594.6035	5830.55	4945.3
897.7281	1596.3704	5859.6	4976.5
897.8705	1598.1366	5912.75	5029.45
898.0128	1599.9021	5933.8	5053.55
898.1551	1601.6668	5958.3	5074.85
898.2975	1603.4308	6018.95	5134.7
898.4398	1605.194	6112.3	5226.7
898.5821	1606.9564	6274.45	5393.25
898.7243	1608.7182	6498.95	5613.5
898.8666	1610.4791	6768.35	5888.3
899.0088	1612.2394	7057.45	6176.65
899.1511	1613.9988	7377.55	6493.75
899.2933	1615.7576	7651.1	6769.7
899.4355	1617.5156	7841.55	6952.9
899.5776	1619.2728	7877	6995.95
899.7198	1621.0293	7784.1	6902.9
899.862	1622.785	7580	6695.15
900.0041	1624.54	7244.4	6360.45
900.1462	1626.2942	6882.65	6000.3
900.2883	1628.0477	6493.35	5609.05
900.4304	1629.8005	6133.05	5249.4
900.5725	1631.5525	5809.75	4927.85
900.7145	1633.3037	5534.4	4651.35
900.8566	1635.0542	5330.9	4447.9
900.9986	1636.804	5143.25	4261.6
901.1406	1638.553	5045.2	4100.55
901.2826	1640.3013	4919.3	4038.3
901.4245	1642.0488	4838.15	3953.7
901.5665	1643.7955	4833.55	3952.45
901.7085	1645.5416	4841.3	3957.65
901.8504	1647.2868	4869.35	3989
901.9923	1649.0313	4923.45	4042.05
902.1342	1650.7751	4991.65	4107.4
902.2761	1652.5181	5077.35	4195.25
902.4179	1654.2604	5172.2	4291.85
902.5598	1656.0019	5312.4	4430.35
902.7016	1657.7427	5474.5	4593.65
902.8434	1659.4828	5678.8	4796.3
902.9852	1661.222	5847.5	4965.4
903.127	1662.9606	5912.3	5030.25
903.2687	1664.6984	5834.95	4952.5
903.4105	1666.4354	5582	4699.4
903.5522	1668.1717	5218.6	4336.3
903.6939	1669.9072	4803.2	3921.55
903.8356	1671.642	4450.45	3567
903.9773	1673.3761	4155.15	3274.7
904.119	1675.1094	3917.05	3034.25
904.2606	1676.8419	3751.4	2869.95
904.4022	1678.5737	3610.65	2730.05
904.5439	1680.3048	3503.55	2620.95
904.6855	1682.0351	3413.9	2532.85
904.827	1683.7646	3333.85	2448.55
904.9686	1685.4934	3275.35	2393.25
905.1101	1687.2215	3218.55	2337
905.2517	1688.9488	3190.1	2308.2
905.3932	1690.6754	3143.1	2261.55
905.5347	1692.4012	3105.75	2225.65
905.6761	1694.1263	3088.5	2206.25
905.8176	1695.8506	3067.5	2185.6
905.9591	1697.5742	3029.6	2146.1
906.1005	1699.297	3016.7	2134.35
906.2419	1701.0191	2979.55	2098.8
906.3833	1702.7404	2971.95	2089.35
906.5246	1704.461	2947.75	2063.75
906.666	1706.1808	2925.25	2040.95
906.8073	1707.8999	2900.65	2016.95
906.9487	1709.6182	2886.55	2003.15
907.09	1711.3358	2874.6	1992.5
907.2313	1713.0527	2858.7	1980.35
907.3725	1714.7688	2848.85	1961.85
907.5138	1716.4841	2825.9	1943.85
907.655	1718.1987	2809.55	1923.15
907.7962	1719.9126	2787.15	1904.75
907.9374	1721.6257	2781.8	1896.4
908.0786	1723.338	2794.25	1911.95
908.2198	1725.0496	2774.75	1889.65
908.3609	1726.7605	2762.6	1880.3
908.502	1728.4706	2748.25	1865.1
908.6431	1730.18	2745.55	1860.45
908.7842	1731.8886	2751.25	1869.4
908.9253	1733.5964	2729.35	1842.2
909.0664	1735.3036	2722.1	1837.85
909.2074	1737.0099	2710.3	1829.05
909.3484	1738.7156	2701	1820.2
909.4894	1740.4204	2694.15	1807.35
909.6304	1742.1246	2682.75	1801.2
909.7714	1743.8279	2676.75	1796.6
909.9123	1745.5306	2654.35	1770.45
910.0532	1747.2325	2649.05	1767.9
910.1941	1748.9336	2640.55	1759.65
910.335	1750.634	2622.7	1739.25
910.4759	1752.3336	2619.55	1737.35
910.6168	1754.0325	2620.95	1738.55
910.7576	1755.7307	2613.7	1731.65
910.8984	1757.4281	2610.55	1728.85
911.0392	1759.1247	2617	1725.4
911.18	1760.8206	2607.25	1719.85
911.3208	1762.5158	2614.65	1728.35
911.4615	1764.2102	2594.75	1713.2
911.6022	1765.9039	2585.75	1702.9
911.7429	1767.5968	2571.65	1689.05
911.8836	1769.289	2583.65	1701.2
912.0243	1770.9804	2569.5	1685.55
912.1649	1772.6711	2551.8	1669.45
912.3056	1774.361	2559.45	1676.25
912.4462	1776.0502	2563	1682.5
912.5868	1777.7386	2552.45	1670.1
912.7274	1779.4263	2533.85	1650.5
912.8679	1781.1132	2531.7	1650.35
913.0084	1782.7994	2527.55	1642.55
913.149	1784.4849	2528.3	1646.55
913.2895	1786.1696	2547.95	1646.75
913.4299	1787.8535	2529.7	1648.8
913.5704	1789.5367	2517.3	1634.65
913.7108	1791.2192	2513.45	1630.35
913.8513	1792.9009	2526.2	1628.55
913.9917	1794.5818	2505.85	1623.95
914.132	1796.2621	2497.85	1618.25
914.2724	1797.9415	2493.45	1611.7
914.4128	1799.6202	2489.85	1608.15
914.5531	1801.2982	2477.2	1595.5
914.6934	1802.9755	2471.9	1587.6
914.8337	1804.6519	2488.85	1606.65
914.9739	1806.3277	2475.8	1593.05
915.1142	1808.0027	2462.7	1582
915.2544	1809.6769	2459.1	1576.25
915.3946	1811.3504	2459.35	1576.25
915.5348	1813.0231	2450.8	1567.3
915.675	1814.6951	2454.8	1573.6
915.8151	1816.3664	2457.2	1573.65
915.9553	1818.0369	2443.65	1562.8
916.0954	1819.7067	2447.2	1564.25
916.2355	1821.3757	2434	1550.3
916.3755	1823.044	2428.1	1547.35
916.5156	1824.7115	2426.95	1544.4
916.6556	1826.3783	2418.2	1535.7
916.7956	1828.0443	2429.55	1550.35
916.9356	1829.7096	2416.55	1534.3
917.0756	1831.3741	2408.4	1523.6
917.2155	1833.0379	2403.85	1523.9
917.3555	1834.701	2401.5	1514.65
917.4954	1836.3633	2407.1	1523.3
917.6353	1838.0248	2402.1	1515.75
917.7751	1839.6856	2413.75	1531.7
917.915	1841.3457	2395.95	1514.8
918.0548	1843.005	2397.5	1515.05
918.1946	1844.6636	2381.4	1500.55
918.3344	1846.3214	2381.65	1499.1
918.4742	1847.9785	2384.65	1504.1
918.6139	1849.6349	2387.25	1501.85
918.7537	1851.2904	2389.55	1498.3
918.8934	1852.9453	2383.05	1499.5
919.0331	1854.5994	2369.9	1484.3
919.1727	1856.2528	2377.1	1491.4
919.3124	1857.9054	2372.6	1490.75
919.452	1859.5572	2363.75	1482.8
919.5916	1861.2083	2369.1	1486.55
919.7312	1862.8587	2355.25	1473.85
919.8708	1864.5084	2356.7	1474.45
920.0103	1866.1572	2343.8	1462.5
920.1498	1867.8054	2335	1455.05
920.2893	1869.4528	2344.6	1462.2
920.4288	1871.0994	2351.4	1469.2
920.5683	1872.7453	2336.45	1453.6
920.7077	1874.3905	2340.55	1440.6
920.8471	1876.0349	2321.5	1438.7
920.9865	1877.6786	2326.95	1443.65
921.1259	1879.3215	2326	1445.1
921.2653	1880.9637	2323.6	1440.15
921.4046	1882.6051	2311.45	1428.9
921.5439	1884.2458	2310.35	1425.35
921.6832	1885.8858	2306.8	1423.85
921.8225	1887.525	2300.7	1418.7
921.9617	1889.1634	2295.85	1415.2
922.101	1890.8011	2299.15	1418.75
922.2402	1892.4381	2292.8	1410.65
922.3794	1894.0743	2290.15	1410.15
922.5185	1895.7098	2282.8	1401.45
922.6577	1897.3446	2283.95	1399.3
922.7968	1898.9786	2287.6	1401.4
922.9359	1900.6118	2275.1	1392.5
923.075	1902.2443	2258.15	1375.75
923.214	1903.8761	2264.85	1383.65
923.3531	1905.5071	2256.5	1373.5
923.4921	1907.1374	2258.05	1376.05
923.6311	1908.7669	2245.4	1363.4
923.77	1910.3957	2254.7	1372.35
923.909	1912.0237	2237.15	1355
924.0479	1913.651	2240.75	1359.35
924.1868	1915.2776	2231.6	1349.7
924.3257	1916.9034	2229.25	1348.9
924.4646	1918.5285	2221.8	1338.9
924.6034	1920.1528	2217.85	1336.05
924.7422	1921.7764	2223.25	1342.05
924.881	1923.3992	2199.8	1318.45
925.0198	1925.0213	2212.6	1331.35
925.1586	1926.6427	2180.85	1300.95
925.2973	1928.2633	2291.95	1304.3
925.436	1929.8832	2210.45	1327.6
925.5747	1931.5023	2193.85	1311.35
925.7134	1933.1207	2182.95	1302.85
925.852	1934.7383	2192.8	1309.85
925.9906	1936.3552	2176.8	1294.75
926.1292	1937.9714	2178.1	1295.35
926.2678	1939.5868	2175.95	1292.75
926.4064	1941.2015	2166.15	1282.2
926.5449	1942.8154	2168.75	1286.55
926.6834	1944.4286	2161.3	1279.8
926.8219	1946.041	2173.5	1268.4
926.9604	1947.6528	2150.5	1263.15
927.0988	1949.2637	2146.8	1265.2
927.2372	1950.8739	2137.05	1253.4
927.3756	1952.4834	2128	1245.3
927.514	1954.0921	2134.1	1250.05
927.6523	1955.7001	2135.3	1249.75
927.7907	1957.3074	2122.45	1240.3
927.929	1958.9139	2115.5	1233.15
928.0673	1960.5197	2112.5	1229.05
928.2055	1962.1247	2116.3	1233.6
928.3438	1963.729	2105.45	1223.95
928.482	1965.3325	2119.25	1214.35
928.6202	1966.9353	2093.55	1211.6
928.7584	1968.5374	2093.6	1211.4
928.8965	1970.1387	2088.3	1207.7
929.0346	1971.7393	2088.15	1203.9
929.1727	1973.3392	2086.55	1204.8
929.3108	1974.9383	2073.55	1191.75
929.4489	1976.5366	2069.25	1186.8
929.5869	1978.1342	2070.15	1186.5
929.7249	1979.7311	2067.8	1184
929.8629	1981.3273	2067.8	1183.75
930.0009	1982.9227	2064.8	1182.1
930.1388	1984.5173	2058.8	1176.5
930.2767	1986.1112	2041.95	1159.6
930.4146	1987.7044	2048	1167.2
930.5525	1989.2968	2049.2	1166
930.6904	1990.8885	2047.8	1160.65
930.8282	1992.4795	2050.75	1166.4
930.966	1994.0697	2031.15	1147.6
931.1038	1995.6592	2044	1162.05
931.2415	1997.2479	2034.6	1151.35
931.3793	1998.8359	2025.15	1141.4
931.517	2000.4232	2017.95	1133.75
931.6547	2002.0097	2016.6	1136.15
931.7923	2003.5955	2012.75	1131.55
931.93	2005.1805	2026.8	1142.1
932.0676	2006.7648	2019.8	1136.4
932.2052	2008.3484	2014.55	1131.3
932.3427	2009.9312	2017.95	1133.9
932.4803	2011.5133	2000.15	1118.1
932.6178	2013.0946	2000.3	1115.65
932.7553	2014.6752	1995.7	1116
932.8928	2016.2551	2006.8	1121.45
933.0302	2017.8342	2004.75	1121.5
933.1676	2019.4126	1998.3	1115.15
933.305	2020.9902	1992.95	1112
933.4424	2022.5672	1981.1	1096.5
933.5798	2024.1433	1985.65	1097.5
933.7171	2025.7188	1975.3	1094.5
933.8544	2027.2935	1982.35	1099.45
933.9917	2028.8674	1962.75	1078.85
934.129	2030.4406	1965.9	1084.8
934.2662	2032.0131	1967.6	1085.05
934.4034	2033.5849	1966.45	1083.55
934.5406	2035.1559	1961.4	1080.7
934.6778	2036.7261	1961.7	1079.75
934.8149	2038.2957	1951.15	1068.95
934.952	2039.8645	1957.25	1075.2
935.0891	2041.4325	1953.95	1068.15
935.2262	2042.9998	1944.8	1063.25
935.3632	2044.5664	1951.9	1066.15
935.5002	2046.1323	1948.9	1066.4
935.6372	2047.6974	1941.9	1058.7
935.7742	2049.2617	1942.85	1060.25
935.9111	2050.8254	1962.15	1057.45
936.048	2052.3883	1942.55	1057.6
936.1849	2053.9504	1947.4	1064.4
936.3218	2055.5118	1928.8	1044.05
936.4586	2057.0725	1927.4	1042
936.5955	2058.6325	1923.65	1042.1
936.7323	2060.1917	1929.3	1047.05
936.869	2061.7502	1921.7	1036.85
937.0058	2063.3079	1918.25	1034.2
937.1425	2064.8649	1923.1	1036.05
937.2792	2066.4212	1917.4	1032.8
937.4159	2067.9767	1909.65	1026.65
937.5525	2069.5315	1910.05	1027.2
937.6891	2071.0856	1899.8	1017
937.8257	2072.6389	1898.75	1015.6
937.9623	2074.1915	1894.65	1015.15
938.0989	2075.7433	1896.8	1011.75
938.2354	2077.2945	1883.6	1002.75
938.3719	2078.8448	1880.25	997.65
938.5084	2080.3945	1882.2	1000.2
938.6448	2081.9434	1892.5	1010.5
938.7812	2083.4916	1878.65	996.85
938.9176	2085.039	1877.35	993
939.054	2086.5857	1872.4	986.85
939.1903	2088.1317	1861.7	979.2
939.3267	2089.677	1870.45	987.7
939.463	2091.2215	1863.75	982.25
939.5992	2092.7652	1863.9	980.1
939.7355	2094.3083	1853.95	970.5
939.8717	2095.8506	1845.9	966.7
940.0079	2097.3921	1860.05	976.95
940.1441	2098.933	1855.75	973.4
940.2802	2100.4731	1852.8	970.6
940.4163	2102.0124	1862.6	962.6
940.5524	2103.5511	1857	975.55
940.6885	2105.089	1854.5	971.95
940.8245	2106.6261	1855.9	973.65
940.9606	2108.1626	1850.15	967.6
941.0965	2109.6983	1875.25	964.45
941.2325	2111.2332	1846.75	965.2
941.3684	2112.7675	1839.5	956
941.5044	2114.301	1839.8	953.9
941.6403	2115.8337	1843.05	960.65
941.7761	2117.3657	1831.1	949.05
941.912	2118.897	1831.05	948.8
942.0478	2120.4276	1829.7	941.3
942.1835	2121.9575	1823.25	940.1
942.3193	2123.4866	1828.55	944.65
942.455	2125.0149	1819	934.2
942.5907	2126.5426	1811.8	929.45
942.7264	2128.0695	1818.45	931.05
942.8621	2129.5956	1812.1	928.45
942.9977	2131.1211	1814.8	929.85
943.1333	2132.6458	1806.85	924.55
943.2689	2134.1698	1807.95	924.45
943.4044	2135.693	1798.55	915.3
943.54	2137.2155	1807	921.05
943.6755	2138.7373	1804.05	920.15
943.8109	2140.2584	1793.25	907.95
943.9464	2141.7787	1795.2	905.25
944.0818	2143.2983	1787.15	907.05
944.2172	2144.8171	1791.6	910.55
944.3526	2146.3353	1784.55	900.05
944.4879	2147.8527	1776.8	896.85
944.6232	2149.3693	1782.4	897.55
944.7585	2150.8853	1776.05	894.2
944.8938	2152.4005	1777.6	895.1
945.029	2153.9149	1773.9	890.85
945.1642	2155.4287	1777.35	895.15
945.2994	2156.9417	1762	877.6
945.4346	2158.454	1775.5	890.1
945.5697	2159.9655	1770.7	887.55
945.7048	2161.4764	1777.75	893.55
945.8399	2162.9865	1761.4	879
945.9749	2164.4958	1765.8	881
946.1099	2166.0045	1759.05	872.65
946.2449	2167.5124	1766.35	884.45
946.3799	2169.0195	1753.3	871.35
946.5148	2170.526	1748.35	866.45
946.6498	2172.0317	1752.6	870.25
946.7846	2173.5367	1743.15	860.15
946.9195	2175.0409	1755.9	873.25
947.0543	2176.5445	1742.6	860.25
947.1891	2178.0473	1742.8	861.45
947.3239	2179.5494	1745.75	860.85
947.4587	2181.0507	1738.15	855.35
947.5934	2182.5513	1731.3	849.5
947.7281	2184.0512	1736.25	853.65
947.8628	2185.5504	1729.85	846.55
947.9974	2187.0488	1725.85	842.85
948.132	2188.5465	1722.1	840.65
948.2666	2190.0435	1725.35	842.3
948.4012	2191.5397	1722	839.05
948.5357	2193.0353	1723.5	842.95
948.6702	2194.5301	1728.8	844.4
948.8047	2196.0241	1713.75	830.85
948.9392	2197.5175	1719.05	837.6
949.0736	2199.0101	1719.6	833.2
949.208	2200.502	1705.3	824.05
949.3424	2201.9931	1702.7	819.65
949.4767	2203.4835	1701.7	818.65
949.611	2204.9733	1718.8	830.4
949.7453	2206.4622	1699.1	817.05
949.8796	2207.9505	1695.8	810.5
950.0138	2209.438	1687.7	808.3
950.148	2210.9248	1691	806.4
950.2822	2212.4109	1684.9	803.75
950.4164	2213.8962	1692.35	807.05
950.5505	2215.3809	1687.35	805
950.6846	2216.8648	1689.6	806.6
950.8186	2218.3479	1686.65	800.75
950.9527	2219.8304	1675.85	791.05
951.0867	2221.3121	1668.4	783.35
951.2207	2222.7931	1669.55	786.3
951.3546	2224.2733	1673.35	791.6
951.4886	2225.7529	1663.85	778.9
951.6225	2227.2317	1667.4	782.8
951.7563	2228.7098	1662.15	779.05
951.8902	2230.1872	1662.7	779.3
952.024	2231.6638	1665.5	782.5
952.1578	2233.1397	1654.2	765.6
952.2916	2234.6149	1645.3	762.7
952.4253	2236.0894	1644.35	759.85
952.559	2237.5632	1658.1	766.1
952.6927	2239.0362	1634.35	749.75
952.8263	2240.5085	1640.7	757.25
952.9599	2241.9801	1635.5	753.85
953.0935	2243.4509	1626.5	742.5
953.2271	2244.921	1631.5	747.55
953.3606	2246.3904	1627.3	743.7
953.4941	2247.8591	1625.75	743.5
953.6276	2249.3271	1626.45	743.2
953.7611	2250.7943	1623.15	739.3
953.8945	2252.2608	1626.4	743.75
954.0279	2253.7266	1623.85	742.45
954.1612	2255.1917	1609.35	725.65
954.2946	2256.656	1615.85	731
954.4279	2258.1197	1607.4	724.05
954.5612	2259.5826	1605.7	722.4
954.6944	2261.0447	1603	721.1
954.8276	2262.5062	1601.9	717.3
954.9608	2263.9669	1610.35	725.55
955.094	2265.4269	1601.3	718.9
955.2271	2266.8862	1598.1	714.1
955.3602	2268.3448	1602.1	720.35
955.4933	2269.8026	1599.85	717.7
955.6264	2271.2598	1589	707.2
955.7594	2272.7162	1598.6	716.15
955.8924	2274.1719	1592.45	711.45
956.0253	2275.6268	1594.7	713.05
956.1583	2277.0811	1601.85	719.1
956.2912	2278.5346	1583.55	699.1
956.4241	2279.9874	1585.9	703.3
956.5569	2281.4395	1585.45	702.5
956.6897	2282.8908	1591.95	703.6
956.8225	2284.3414	1588.8	702.2
956.9553	2285.7914	1580.25	698.7
957.088	2287.2406	1588.15	703.05
957.2207	2288.689	1573.5	690.75
957.3534	2290.1368	1578	695.75
957.486	2291.5838	1578.5	693.8
957.6186	2293.0302	1573.75	690.3
957.7512	2294.4758	1570.75	690.7
957.8838	2295.9206	1568.6	682.7
958.0163	2297.3648	1566.7	683.9
958.1488	2298.8082	1572.35	689.3
958.2813	2300.251	1565.6	684.8
958.4137	2301.693	1561.15	677.1
958.5461	2303.1343	1566.35	683
958.6785	2304.5748	1558.2	676.15
958.8108	2306.0147	1553.2	670.5
958.9432	2307.4538	1559	672.5
959.0754	2308.8922	1548.65	667.8
959.2077	2310.3299	1557	672.4
959.3399	2311.7669	1557.65	675.2
959.4721	2313.2031	1556.4	672.85
959.6043	2314.6387	1545.75	663.45
959.7365	2316.0735	1543.45	661.2
959.8686	2317.5076	1547.3	663.95
960.0006	2318.941	1540.55	658.3
960.1327	2320.3737	1534.15	651.45
960.2647	2321.8056	1545.85	661.3
960.3967	2323.2369	1542.6	659.3
960.5287	2324.6674	1540.65	655.4
960.6606	2326.0972	1542.15	659.15
960.7925	2327.5263	1531.75	650.25
960.9244	2328.9547	1532.75	649.75
961.0562	2330.3823	1534.8	650.05
961.1881	2331.8092	1535.7	648.7
961.3198	2333.2355	1531.4	650.45
961.4516	2334.661	1525.6	641.75
961.5833	2336.0858	1521.45	637.1
961.715	2337.5098	1521.8	638.75
961.8467	2338.9332	1515.55	632.45
961.9783	2340.3558	1517.55	631.2
962.1099	2341.7778	1519.4	637.35
962.2415	2343.199	1520.3	635.55
962.373	2344.6195	1516.1	632.5
962.5045	2346.0393	1514.05	631.6
962.636	2347.4583	1508.35	624.7
962.7675	2348.8767	1508.85	624.7
962.8989	2350.2943	1509.15	625.4
963.0303	2351.7113	1515.9	634
963.1617	2353.1275	1509	625.65
963.293	2354.543	1506.65	615.15
963.4243	2355.9578	1505.9	622.8
963.5556	2357.3718	1506	622.7
963.6868	2358.7852	1499.2	613.6
963.818	2360.1978	1503.5	618.35
963.9492	2361.6098	1497.25	615.35
964.0803	2363.021	1491.45	606.55
964.2114	2364.4315	1501.15	619.9
964.3425	2365.8413	1495.55	611.2
964.4736	2367.2504	1487.3	604.35
964.6046	2368.6587	1484.75	603.1
964.7356	2370.0664	1486.65	604.7
964.8666	2371.4733	1482.6	599.4
964.9975	2372.8795	1486.85	605.4
965.1284	2374.285	1474.85	589.8
965.2593	2375.6899	1480.25	599.7
965.3901	2377.0939	1477.9	595.5
965.5209	2378.4973	1470.25	588.85
965.6517	2379.9	1478.1	592.9
965.7825	2381.3019	1470.1	588.6
965.9132	2382.7032	1472.45	590.25
966.0439	2384.1037	1462.35	583.35
966.1745	2385.5035	1462.8	579.5
966.3051	2386.9027	1458.95	576.7
966.4357	2388.3011	1460.35	573.85
966.5663	2389.6987	1464.8	580.75
966.6968	2391.0957	1466	582.8
966.8273	2392.492	1459.2	575.9
966.9578	2393.8876	1452.6	572.3
967.0882	2395.2824	1450.35	569.95
967.2186	2396.6765	1452.9	571.95
967.349	2398.07	1439.35	556.65
967.4793	2399.4627	1442.4	560.65
967.6097	2400.8547	1444.1	561.75
967.7399	2402.246	1447	559.8
967.8702	2403.6366	1443.15	559.2
968.0004	2405.0265	1437.45	554.95
968.1306	2406.4156	1443	555.5
968.2607	2407.8041	1443.35	556.95
968.3909	2409.1918	1431.5	548.3
968.521	2410.5789	1428.95	545.55
968.651	2411.9652	1432.35	545.9
968.781	2413.3508	1428.9	546.25
968.911	2414.7358	1436.05	552.8
969.041	2416.12	1428.4	546.95
969.1709	2417.5035	1424.3	543.15
969.3008	2418.8863	1429.4	546.05
969.4307	2420.2684	1425.8	542.65
969.5606	2421.6497	1420.45	538.35
969.6904	2423.0304	1418.65	536.45
969.8201	2424.4104	1421.7	538.05
969.9499	2425.7896	1425.9	538.25
970.0796	2427.1682	1411.9	529.45
970.2093	2428.546	1412.15	528.9
970.3389	2429.9232	1406.4	522.8
970.4685	2431.2996	1416.15	533.15
970.5981	2432.6753	1409.2	527.6
970.7277	2434.0503	1408.35	524.2
970.8572	2435.4246	1404.5	522.7
970.9867	2436.7982	1412.1	526.35
971.1161	2438.1711	1403.5	520.7
971.2456	2439.5433	1406.5	524.3
971.375	2440.9148	1405.75	519.1
971.5043	2442.2856	1398.35	514.4
971.6336	2443.6557	1396.45	511.05
971.7629	2445.025	1398.2	515.6
971.8922	2446.3937	1393.25	511.45
972.0214	2447.7617	1386.75	503.25
972.1506	2449.1289	1393.15	510.05
972.2798	2450.4955	1394.3	507.8
972.4089	2451.8613	1386.35	504.3
972.538	2453.2265	1389.2	507.05
972.6671	2454.5909	1392.3	508.2
972.7961	2455.9546	1382.05	501.3
972.9251	2457.3177	1386.15	502.8
973.0541	2458.68	1387.65	502.05
973.1831	2460.0416	1394.05	512.05
973.312	2461.4025	1381.9	496.75
973.4408	2462.7627	1393.25	496.85
973.5697	2464.1222	1382	500.9
973.6985	2465.4811	1382.2	498.45
973.8273	2466.8392	1383.05	500.4
973.956	2468.1966	1384.1	499.95
974.0847	2469.5533	1379.65	495.9
974.2134	2470.9093	1381.75	498
974.3421	2472.2645	1378.55	493
974.4707	2473.6191	1379.6	497.25
974.5993	2474.973	1369.85	486.55
974.7278	2476.3262	1378.6	493.6
974.8563	2477.6787	1374.9	492.8
974.9848	2479.0305	1373.7	492.5
975.1132	2480.3816	1369.45	485.35
975.2417	2481.7319	1363.4	482.9
975.37	2483.0816	1368.85	485
975.4984	2484.4306	1364.65	479.7
975.6267	2485.7789	1366.7	484.25
975.755	2487.1264	1367.15	483.65
975.8833	2488.4733	1359.6	476.05
976.0115	2489.8195	1378.55	476.3
976.1397	2491.165	1363.35	475.7
976.2678	2492.5097	1369.05	485.45
976.3959	2493.8538	1354.95	473.65
976.524	2495.1972	1354.8	469.9
976.6521	2496.5398	1357.65	473.6
976.7801	2497.8818	1354.3	471.15
976.9081	2499.2231	1350.55	466.4
977.036	2500.5637	1348.2	464.3
977.164	2501.9035	1347.1	463.45
977.2918	2503.2427	1343.8	458.95
977.4197	2504.5812	1349.3	467.65
977.5475	2505.919	1349.8	465.2
977.6753	2507.256	1346.2	463.2
977.8031	2508.5924	1346.5	463.25
977.9308	2509.9281	1348.55	459.25
978.0585	2511.2631	1342.35	458.8
978.1861	2512.5974	1337.35	456.45
978.3137	2513.9309	1341.15	458.9
978.4413	2515.2638	1364.55	450.6
978.5689	2516.596	1339.85	457.5
978.6964	2517.9275	1337.85	454.65
978.8239	2519.2583	1333.7	450.85
978.9513	2520.5884	1332.9	448.3
979.0788	2521.9178	1328.75	446.25
979.2062	2523.2465	1327.45	444.2
979.3335	2524.5745	1327.65	446.1
979.4608	2525.9018	1327.3	445.35
979.5881	2527.2284	1322.8	441.7
979.7154	2528.5543	1332.2	450.6
979.8426	2529.8796	1329.2	445.65
979.9698	2531.2041	1322	441.25
980.0969	2532.5279	1325.4	444.25
980.224	2533.851	1323	439.75
980.3511	2535.1735	1329.45	447.45
980.4781	2536.4952	1325.5	443.4
980.6052	2537.8163	1320.15	436.75
980.7321	2539.1366	1324.15	441.15
980.8591	2540.4562	1325.4	440.6
980.986	2541.7752	1319.35	437.2
981.1129	2543.0935	1324.6	439.45
981.2397	2544.411	1318.9	435.45
981.3665	2545.7279	1313.25	431.05
981.4933	2547.0441	1315.05	433.2
981.62	2548.3596	1319.25	434.5
981.7467	2549.6744	1313.45	430.85
981.8734	2550.9885	1322.25	435.95
982.0001	2552.3019	1320	439
982.1267	2553.6146	1314.75	430.7
982.2532	2554.9266	1312.85	430.85
982.3798	2556.2379	1314.55	431.9
982.5063	2557.5485	1309.7	429.05
982.6327	2558.8585	1315.8	426.55
982.7592	2560.1677	1313.7	426.9
982.8856	2561.4762	1313.7	432
983.0119	2562.7841	1310.05	424.1
983.1383	2564.0913	1302.25	421.2
983.2646	2565.3977	1307.35	423.6
983.3908	2566.7035	1309.35	426.25
983.517	2568.0086	1310.55	425.75
983.6432	2569.313	1304.65	421.7
983.7694	2570.6167	1306.75	422
983.8955	2571.9197	1309.15	429.5
984.0216	2573.222	1305.35	418.65
984.1476	2574.5236	1307.7	426.6
984.2737	2575.8246	1306.4	422.1
984.3996	2577.1248	1305	418.5
984.5256	2578.4244	1304.4	423.65
984.6515	2579.7232	1299.25	417.3
984.7774	2581.0214	1334.5	420.2
984.9032	2582.3189	1306.5	423.5
985.029	2583.6157	1307.25	420.8
985.1548	2584.9118	1303	421.2
985.2806	2586.2072	1304.45	421.8
985.4063	2587.5019	1299.25	415.9
985.5319	2588.7959	1301.55	418.6
985.6576	2590.0893	1297.9	413.65
985.7832	2591.3819	1302.2	419.95
985.9087	2592.6739	1304.4	423.7
986.0343	2593.9652	1310.55	426.1
986.1597	2595.2557	1300.35	421
986.2852	2596.5456	1306.6	424.05
986.4106	2597.8348	1303.2	423.7
986.536	2599.1234	1305.7	423.75
986.6614	2600.4112	1304.9	422.25
986.7867	2601.6983	1313	426.25
986.912	2602.9848	1306.25	423.3
987.0372	2604.2705	1310	420.15
987.1624	2605.5556	1308.95	426.95
987.2876	2606.84	1307.9	424.55
987.4128	2608.1237	1300.1	414.6
987.5379	2609.4067	1297.4	415.1
987.6629	2610.689	1305.35	413.6
987.788	2611.9707	1298.15	413.1
987.913	2613.2516	1301.45	413.8
988.0379	2614.5319	1295.8	415.8
988.1629	2615.8115	1288.9	402.85
988.2878	2617.0903	1287.6	401.95
988.4126	2618.3685	1292.1	409.55
988.5375	2619.6461	1291	408.05
988.6622	2620.9229	1276.75	394.95
988.787	2622.199	1286.5	403.25
988.9117	2623.4745	1284.15	401.3
989.0364	2624.7493	1287.4	404.85
989.161	2626.0234	1283	399.8
989.2857	2627.2968	1283.3	400.45
989.4102	2628.5695	1280.1	396
989.5348	2629.8415	1276.5	393.2
989.6593	2631.1128	1283.25	398.3
989.7837	2632.3835	1279	396.6
989.9082	2633.6535	1278.1	396.35
990.0326	2634.9228	1277.3	394.35
990.1569	2636.1914	1275.3	394.25
990.2812	2637.4593	1275.95	386.2
990.4055	2638.7265	1271.7	387.45
990.5298	2639.9931	1278.05	396.75
990.654	2641.259	1276.95	394.45
990.7782	2642.5242	1272.3	387.5
990.9023	2643.7887	1275.2	392.25
991.0264	2645.0525	1268.2	383.35
991.1505	2646.3156	1265.7	381.65
991.2745	2647.5781	1266.2	383.4
991.3985	2648.8398	1266.25	384.65
991.5225	2650.1009	1301.15	379.45
991.6464	2651.3613	1266.45	384.75
991.7703	2652.6211	1261.75	380.1
991.8942	2653.8801	1259.95	378.1
992.018	2655.1385	1260.4	374
992.1418	2656.3961	1263.9	382.35
992.2655	2657.6531	1267.3	384.9
992.3892	2658.9094	1260.8	378.85
992.5129	2660.1651	1261.8	379.45
992.6366	2661.42	1266.2	384.1
992.7602	2662.6743	1267.45	382.65
992.8837	2663.9279	1268.35	387.9
993.0073	2665.1808	1263.65	382
993.1307	2666.433	1266.25	381.3
993.2542	2667.6846	1273.85	389.95
993.3776	2668.9354	1272.6	388.65
993.501	2670.1856	1270.9	387.2
993.6244	2671.4351	1272.1	390.5
993.7477	2672.6839	1276	391.8
993.8709	2673.9321	1274.35	392.05
993.9942	2675.1795	1287.9	406.95
994.1174	2676.4263	1281.45	398.05
994.2405	2677.6724	1277.55	396.25
994.3637	2678.9179	1277.95	395.4
994.4868	2680.1626	1281.5	399.05
994.6098	2681.4067	1278.65	394.3
994.7328	2682.6501	1280.45	397.65
994.8558	2683.8928	1280.75	398.45
994.9788	2685.1348	1262.05	380.25
995.1017	2686.3761	1269.6	385.85
995.2245	2687.6168	1262.7	379.35
995.3474	2688.8568	1264.7	383.1
995.4702	2690.0961	1262.7	380.35
995.5929	2691.3348	1266.2	384
995.7156	2692.5727	1259.8	376.9
995.8383	2693.81	1259.75	377.5
995.961	2695.0466	1258.4	376.7
996.0836	2696.2826	1256.8	374.7
996.2062	2697.5178	1263.1	376.8
996.3287	2698.7524	1259.75	379.4
996.4512	2699.9863	1258.75	374.35
996.5737	2701.2195	1263.7	381.2
996.6961	2702.452	1261.65	377.6
996.8185	2703.6839	1266.25	383.7
996.9408	2704.9151	1258.75	376.5
997.0631	2706.1456	1281.85	399.15
997.1854	2707.3755	1281.4	397.45
997.3077	2708.6046	1283.65	398.1
997.4299	2709.8331	1283.95	400.75
997.552	2711.0609	1287.5	403.55
997.6742	2712.2881	1298.05	416.55
997.7963	2713.5145	1298.95	412.45
997.9183	2714.7403	1309.2	426.25
998.0403	2715.9654	1305.55	423.05
998.1623	2717.1899	1338.45	439.85
998.2842	2718.4136	1329	449.05
998.4062	2719.6367	1344.3	460.25
998.528	2720.8591	1348.35	457.5
998.6498	2722.0809	1361.35	479.15
998.7716	2723.3019	1364.7	478.1
998.8934	2724.5223	1373.15	490.3
999.0151	2725.7421	1376.45	492.5
999.1368	2726.9611	1377.7	491.2
999.2584	2728.1795	1374.95	488.5
999.38	2729.3972	1360.4	478.5
999.5016	2730.6142	1372.4	477.15
999.6231	2731.8306	1348.35	464.5
999.7446	2733.0462	1337.55	450.75
999.8661	2734.2612	1330.4	441.85
999.9875	2735.4756	1315.6	429.8
1000.1089	2736.6892	1300.75	416.7
1000.2302	2737.9022	1292.5	410.95
1000.3515	2739.1145	1283.8	399.2
1000.4728	2740.3262	1279.7	392.2
1000.594	2741.5372	1266.95	382.45
1000.7152	2742.7475	1261.8	378.4
1000.8363	2743.9571	1258.55	376.75
1000.9575	2745.1661	1260	372.5
1001.0785	2746.3744	1243.05	360.65
1001.1996	2747.582	1239.6	356.5
1001.3206	2748.7889	1231.95	345
1001.4415	2749.9952	1225.4	342.45
1001.5625	2751.2008	1224.35	340.8
1001.6833	2752.4057	1224.8	340.15
1001.8042	2753.61	1221.45	338.3
1001.925	2754.8136	1224.1	339.75
1002.0458	2756.0165	1219.5	337.8
1002.1665	2757.2188	1204.65	324
1002.2872	2758.4204	1217.9	336.55
1002.4078	2759.6213	1218.75	333.3
1002.5285	2760.8215	1223.5	333.85
1002.649	2762.0211	1218.85	334.5
1002.7696	2763.22	1216.05	329.55
1002.8901	2764.4182	1219.65	336.2
1003.0106	2765.6158	1207.85	324.5
1003.131	2766.8127	1208.5	327.2
1003.2514	2768.009	1204.55	320.75
1003.3717	2769.2045	1206.9	323.55
1003.492	2770.3994	1200.95	316.15
1003.6123	2771.5936	1203.1	320.9
1003.7325	2772.7872	1197.1	315.05
1003.8527	2773.9801	1200.4	316.65
1003.9729	2775.1723	1210.55	310.35
1004.093	2776.3639	1193.1	312.45
1004.2131	2777.5548	1200.05	315.7
1004.3331	2778.745	1188.35	302.55
1004.4531	2779.9346	1197.45	314.75
1004.5731	2781.1235	1198	311.5
1004.693	2782.3117	1195.7	313.9
1004.8129	2783.4992	1198.4	316.25
1004.9328	2784.6861	1200.05	317.4
1005.0526	2785.8723	1206.45	322.7
1005.1723	2787.0579	1200.65	317.95
1005.2921	2788.2428	1211.6	327.35
1005.4118	2789.427	1210.75	329
1005.5314	2790.6106	1214.6	329.6
1005.651	2791.7935	1217.55	335.95
1005.7706	2792.9757	1223.4	341.25
1005.8902	2794.1573	1224.9	339.5
1006.0097	2795.3382	1230.6	350.25
1006.1291	2796.5184	1234.05	354.45
1006.2485	2797.698	1239.8	356.85
1006.3679	2798.8769	1248.8	366.15
1006.4873	2800.0551	1260.2	375.8
1006.6066	2801.2327	1275.95	393.25
1006.7258	2802.4096	1279.45	397.45
1006.8451	2803.5859	1289.65	406.9
1006.9642	2804.7615	1298.95	411.5
1007.0834	2805.9364	1308.9	427.5
1007.2025	2807.1106	1321.05	438.25
1007.3216	2808.2842	1336.85	452.85
1007.4406	2809.4572	1351.85	470.75
1007.5596	2810.6294	1373.85	489.55
1007.6785	2811.801	1395.55	515.4
1007.7975	2812.972	1421.6	539.25
1007.9163	2814.1423	1445.3	561.9
1008.0352	2815.3119	1478.2	595.3
1008.154	2816.4808	1514.5	632.85
1008.2727	2817.6491	1549.2	664.4
1008.3914	2818.8167	1579.7	698.95
1008.5101	2819.9837	1631.7	744.1
1008.6288	2821.15	1660.95	780.3
1008.7474	2822.3157	1714.05	833.5
1008.8659	2823.4807	1759.65	877.1
1008.9844	2824.645	1801.5	920.35
1009.1029	2825.8086	1846.85	964.1
1009.2214	2826.9716	1893.25	1009.9
1009.3398	2828.134	1937.55	1055.5
1009.4581	2829.2957	1979.8	1096.6
1009.5764	2830.4567	2008.15	1128.2
1009.6947	2831.617	2026.6	1142.1
1009.813	2832.7767	2036.75	1156.35
1009.9312	2833.9358	2026.8	1144.65
1010.0493	2835.0941	2031.7	1145.6
1010.1675	2836.2519	2019.45	1136.4
1010.2855	2837.4089	2003.7	1119.1
1010.4036	2838.5653	1969.9	1088.65
1010.5216	2839.7211	1959.6	1076.3
1010.6396	2840.8761	1953.9	1069.55
1010.7575	2842.0306	1960.2	1079.6
1010.8754	2843.1843	1972.4	1089.55
1010.9932	2844.3374	1991.8	1108.3
1011.111	2845.4899	2028.85	1148
1011.2288	2846.6417	2053.7	1171.1
1011.3465	2847.7928	2086.05	1205.85
1011.4642	2848.9433	2123.95	1240.7
1011.5818	2850.0931	2155.05	1274.05
1011.6995	2851.2422	2212.9	1328.25
1011.817	2852.3907	2247	1362.85
1011.9345	2853.5385	2262.7	1378.05
1012.052	2854.6857	2337.4	1427.35
1012.1695	2855.8323	2346.8	1464.5
1012.2869	2856.9781	2388.3	1507.9
1012.4042	2858.1233	2421.1	1537.4
1012.5216	2859.2679	2453.4	1572.75
1012.6389	2860.4118	2491.05	1608.4
1012.7561	2861.555	2529.65	1639.15
1012.8733	2862.6976	2538.2	1654.3
1012.9905	2863.8395	2567.3	1683.4
1013.1076	2864.9808	2604.85	1725.35
1013.2247	2866.1214	2614.1	1732.25
1013.3417	2867.2614	2636.65	1752.4
1013.4587	2868.4007	2638.35	1755.1
1013.5757	2869.5393	2643.4	1757.5
1013.6926	2870.6773	2659.75	1775.45
1013.8095	2871.8146	2666.65	1782.3
1013.9263	2872.9513	2673.4	1789.45
1014.0431	2874.0874	2670.7	1789.1
1014.1599	2875.2227	2655.25	1770.95
1014.2766	2876.3574	2653.95	1771.6
1014.3933	2877.4915	2637.2	1755.3
1014.51	2878.6249	2616.9	1734.05
1014.6266	2879.7577	2617.55	1733.7
1014.7431	2880.8898	2608.7	1716.65
1014.8596	2882.0212	2594.2	1712.7
1014.9761	2883.152	2594.6	1713.1
1015.0925	2884.2821	2589.5	1707.95
1015.2089	2885.4116	2581.5	1699.5
1015.3253	2886.5405	2583.65	1700.9
1015.4416	2887.6686	2591.35	1706.25
1015.5579	2888.7962	2592.05	1710.95
1015.6741	2889.923	2588.6	1707.7
1015.7903	2891.0493	2599.7	1719.85
1015.9065	2892.1748	2595.45	1711.7
1016.0226	2893.2997	2612.85	1730.8
1016.1387	2894.424	2631.05	1749.3
1016.2547	2895.5476	2636.35	1752.95
1016.3707	2896.6706	2646.3	1763.75
1016.4866	2897.7929	2660.55	1779.15
1016.6025	2898.9145	2676.25	1792.85
1016.7184	2900.0355	2675.45	1791.3
1016.8342	2901.1559	2707.75	1824.05
1016.95	2902.2756	2724.5	1841.75
1017.0658	2903.3946	2750.25	1866.95
1017.1815	2904.513	2761.85	1876.2
1017.2971	2905.6308	2761.15	1878.85
1017.4127	2906.7479	2777.65	1892.55
1017.5283	2907.8643	2802.95	1918.2
1017.6439	2908.9801	2823.5	1941.3
1017.7594	2910.0953	2818.15	1935.25
1017.8748	2911.2098	2807.6	1922.7
1017.9902	2912.3236	2814.55	1924.6
1018.1056	2913.4368	2789.6	1903.85
1018.2209	2914.5494	2781.4	1901
1018.3362	2915.6613	2773.2	1883.15
1018.4515	2916.7725	2737.1	1852.9
1018.5667	2917.8831	2721.45	1836.3
1018.6819	2918.9931	2693.25	1810
1018.797	2920.1024	2672.2	1787.6
1018.9121	2921.211	2654.45	1771.6
1019.0271	2922.319	2638.8	1755.6
1019.1421	2923.4264	2628.05	1745.5
1019.2571	2924.5331	2621.35	1738.9
1019.372	2925.6391	2624.95	1742.85
1019.4869	2926.7445	2620	1736.8
1019.6017	2927.8493	2624.65	1743.15
1019.7165	2928.9534	2631.95	1749.45
1019.8313	2930.0569	2632.4	1746.3
1019.946	2931.1597	2648.45	1764.25
1020.0606	2932.2619	2633.35	1750.05
1020.1753	2933.3634	2657.55	1775.5
1020.2899	2934.4643	2650.85	1759.45
1020.4044	2935.5645	2660.2	1770.8
1020.5189	2936.6641	2637.65	1749.7
1020.6334	2937.763	2618.4	1736.45
1020.7478	2938.8613	2614	1732
1020.8622	2939.959	2581.65	1692.8
1020.9765	2941.056	2536.1	1654.35
1021.0908	2942.1523	2490.95	1608.1
1021.2051	2943.248	2445.9	1561.9
1021.3193	2944.3431	2370.95	1488.65
1021.4334	2945.4375	2316.8	1433.05
1021.5476	2946.5313	2226.9	1344.65
1021.6617	2947.6244	2156.2	1273.9
1021.7757	2948.7169	2098.95	1215.8
1021.8897	2949.8087	2019.7	1138.05
1022.0037	2950.8999	1975	1091.35
1022.1176	2951.9904	1918.55	1034.8
1022.2315	2953.0803	1866.9	983.6
1022.3453	2954.1696	1826.85	944.55
1022.4591	2955.2582	1793.05	912.4
1022.5728	2956.3462	1756.75	874.5
1022.6865	2957.4335	1734.55	850.65
1022.8002	2958.5202	1713.1	828.45
1022.9138	2959.6062	1695.65	815.5
1023.0274	2960.6916	1678.75	796.1
1023.141	2961.7764	1674.75	792.35
1023.2545	2962.8605	1659.1	775.9
1023.3679	2963.9439	1641.85	760.1
1023.4813	2965.0267	1632.95	748.5
1023.5947	2966.1089	1652.85	747.95
1023.708	2967.1905	1634.15	750.7
1023.8213	2968.2714	1633	751.05
1023.9346	2969.3516	1630.05	748.95
1024.0478	2970.4312	1647.05	757.6
1024.1609	2971.5102	1638.85	757.35
1024.274	2972.5885	1639.25	756.6
1024.3871	2973.6662	1647.75	758.6
1024.5002	2974.7432	1639.85	758.4
1024.6132	2975.8196	1643.55	760.1
1024.7261	2976.8954	1647.6	763.95
1024.839	2977.9705	1636.9	755.8
1024.9519	2979.045	1625.75	741.55
1025.0647	2980.1188	1628	746.85
1025.1775	2981.192	1606.45	724.35
1025.2902	2982.2645	1598	713.7
1025.4029	2983.3364	1574.8	691.45
1025.5156	2984.4077	1561.9	679
1025.6282	2985.4783	1547.75	658.85
1025.7407	2986.5483	1527.45	646.65
1025.8532	2987.6177	1506.85	624.4
1025.9657	2988.6864	1479	597
1026.0782	2989.7545	1451.25	565.65
1026.1906	2990.8219	1435.2	553.6
1026.3029	2991.8887	1414.95	529.45
1026.4152	2992.9548	1383.3	499.55
1026.5275	2994.0204	1363.9	483
1026.6397	2995.0852	1338.35	455.45
1026.7519	2996.1495	1324.25	439.95
1026.864	2997.2131	1304.25	421.5
1026.9761	2998.276	1288.75	408.05
1027.0882	2999.3383	1277.25	393.85
1027.2002	3000.4	1260.9	378.3
1027.3122	3001.4611	1239.6	356.45
1027.4241	3002.5215	1230.05	345.75
1027.536	3003.5812	1217.55	334.4
1027.6478	3004.6404	1207.1	324.25
1027.7596	3005.6989	1204.2	320.45
1027.8714	3006.7567	1190.55	307.2
1027.9831	3007.8139	1210.4	300.85
1028.0947	3008.8705	1180.85	297.25
1028.2064	3009.9264	1183.65	285.1
1028.3179	3010.9818	1168.2	284.9
1028.4295	3012.0364	1165.15	281.55
1028.541	3013.0905	1160.65	279.5
1028.6524	3014.1439	1149.5	265.95
1028.7638	3015.1966	1154.45	272.05
1028.8752	3016.2487	1145.6	262.5
1028.9865	3017.3002	1149.75	260.9
1029.0978	3018.3511	1137.3	256.05
1029.209	3019.4013	1133.6	251.05
1029.3202	3020.4509	1138.45	256.8
1029.4314	3021.4998	1134.3	251.05
1029.5425	3022.5481	1127.5	244.15
1029.6535	3023.5958	1135.85	253.65
1029.7645	3024.6428	1134.7	250.95
1029.8755	3025.6892	1130.55	249.5
1029.9864	3026.735	1131.7	248.15
1030.0973	3027.7802	1126.35	243.15
1030.2082	3028.8247	1125.75	245.55
1030.319	3029.8685	1129.25	245.1
1030.4297	3030.9118	1129.35	246.6
1030.5404	3031.9544	1132.8	251.35
1030.6511	3032.9963	1130.1	245.9
1030.7617	3034.0376	1131.65	249.8
1030.8723	3035.0783	1140.15	254.15
1030.9829	3036.1184	1136.15	254
1031.0934	3037.1578	1140.5	257.7
1031.2038	3038.1966	1138.6	254.75
1031.3142	3039.2348	1138.05	257.55
1031.4246	3040.2723	1144.4	253.05
1031.5349	3041.3092	1140.25	261.2
1031.6452	3042.3455	1144.45	262.6
1031.7554	3043.3811	1142.15	261.3
1031.8656	3044.4161	1144.35	260.8
1031.9758	3045.4505	1140.6	258.25
1032.0859	3046.4842	1135.5	251.45
1032.1959	3047.5173	1136.85	252.75
1032.3059	3048.5498	1134.55	253.3
1032.4159	3049.5816	1131.7	249.35
1032.5258	3050.6128	1133.6	248.2
1032.6357	3051.6434	1130.85	248.15
1032.7455	3052.6734	1130.7	248.05
1032.8553	3053.7027	1129.6	246.75
1032.9651	3054.7314	1124.15	242.05
1033.0748	3055.7594	1125.4	244.5
1033.1845	3056.7868	1125.1	240.45
1033.2941	3057.8136	1124.05	242.15
1033.4037	3058.8398	1121.65	238.65
1033.5132	3059.8653	1121.2	237.75
1033.6227	3060.8902	1116.6	233.85
1033.7321	3061.9145	1120.15	235.8
1033.8415	3062.9381	1115.05	234.4
1033.9509	3063.9612	1133.8	235.55
1034.0602	3064.9835	1120.2	238
1034.1694	3066.0053	1114.25	231.1
1034.2787	3067.0264	1117.7	236.5
1034.3878	3068.0469	1113.3	230.55
1034.497	3069.0668	1106.85	219.75
1034.6061	3070.086	1104.1	223.45
1034.7151	3071.1046	1105.7	217.3
1034.8241	3072.1226	1098.4	215.4
1034.9331	3073.1399	1093.8	212.15
1035.042	3074.1567	1089.85	206.45
1035.1508	3075.1727	1085	200.75
1035.2597	3076.1882	1077.45	195.25
1035.3684	3077.203	1074.75	190.95
1035.4772	3078.2173	1070.45	185.1
1035.5859	3079.2308	1062.85	177.45
1035.6945	3080.2438	1064.75	181.4
1035.8031	3081.2561	1056.35	174.55
1035.9117	3082.2678	1056.4	173.3
1036.0202	3083.2789	1047.6	166.4
1036.1286	3084.2893	1047.2	164.65
1036.2371	3085.2991	1040.05	157
1036.3454	3086.3083	1041.9	156.25
1036.4538	3087.3169	1039.25	155.55
1036.562	3088.3248	1037.2	153.95
1036.6703	3089.3321	1040.3	157.95
1036.7785	3090.3388	1027.75	146.3
1036.8866	3091.3449	1028.85	145.9
1036.9948	3092.3503	1025	138.65
1037.1028	3093.3551	1022.1	141.55
1037.2108	3094.3593	1017.2	135.1
1037.3188	3095.3629	1014.2	133.65
1037.4267	3096.3658	1017.15	134.85
1037.5346	3097.3681	1013	130.1
1037.6425	3098.3698	1013.1	130.85
1037.7503	3099.3708	1014.6	125.2
1037.858	3100.3713	1005.15	122.45
1037.9657	3101.3711	1007.85	125.35
1038.0734	3102.3702	1145.65	121.75
1038.181	3103.3688	1002.9	118.85
1038.2886	3104.3667	999.35	117.4
1038.3961	3105.364	1000.25	116.95
1038.5036	3106.3607	999.55	115.35
1038.611	3107.3568	995.5	112.1
1038.7184	3108.3522	994.5	113.25
1038.8257	3109.347	995.35	111.7
1038.933	3110.3412	994.8	108.4
1039.0403	3111.3348	988.15	107.15
1039.1475	3112.3277	987.5	104.25
1039.2547	3113.32	989.35	110.05
1039.3618	3114.3117	983.6	98.4
1039.4689	3115.3028	984.55	102.65
1039.5759	3116.2932	985.4	103
1039.6829	3117.2831	989.85	102.85
1039.7898	3118.2723	978.6	96.7
1039.8967	3119.2608	982.95	99.45
1040.0035	3120.2488	982.5	98.8
1040.1103	3121.2361	979.35	97.85
1040.2171	3122.2229	979.55	98
1040.3238	3123.209	978.45	93.7
1040.4305	3124.1944	971.85	90
1040.5371	3125.1793	973.8	88.15
1040.6437	3126.1635	970.7	91
1040.7502	3127.1471	969.7	86.75
1040.8567	3128.1301	968.2	87.3
1040.9631	3129.1125	967.7	84.5
1041.0695	3130.0942	968.9	87.55
1041.1759	3131.0753	975.4	83.9
1041.2822	3132.0558	970.05	84.35
1041.3884	3133.0357	965.55	81.65
1041.4946	3134.015	966.25	83.3
1041.6008	3134.9936	970.4	85.7
1041.7069	3135.9716	983.75	80.25
1041.813	3136.949	965.1	82.35
1041.919	3137.9258	980.3	77.85
1042.025	3138.902	967.75	81.15
1042.1309	3139.8775	959.75	77.3
1042.2368	3140.8524	959.75	77.25
1042.3427	3141.8267	961.85	76.6
1042.4485	3142.8004	961.25	79.5
1042.5542	3143.7735	965.9	76.5
1042.6599	3144.7459	964.1	79.8
1042.7656	3145.7178	958.8	76.2
1042.8712	3146.689	956.35	74.4
1042.9768	3147.6596	956.85	71.9
1043.0823	3148.6295	960	77.6
1043.1878	3149.5989	956.2	73.8
1043.2932	3150.5676	952.75	72.25
1043.3986	3151.5357	953.35	72
1043.5039	3152.5032	954.4	72
1043.6092	3153.4701	954.35	71.55
1043.7145	3154.4364	957.75	72.65
1043.8197	3155.402	950.85	67.25
1043.9248	3156.367	955	72.2
1044.03	3157.3315	968.35	65.5
1044.135	3158.2952	948.55	66.85
1044.24	3159.2584	946.05	64.1
1044.345	3160.221	945.95	63.1
1044.4499	3161.1829	948.35	66.25
1044.5548	3162.1442	949	66
1044.6596	3163.105	947.7	65.9
1044.7644	3164.065	947.45	64.05
1044.8692	3165.0245	947	61.65
1044.9739	3165.9834	945.65	64.7
1045.0785	3166.9416	944.25	61.8
1045.1831	3167.8993	944.8	60.2
1045.2877	3168.8563	945.8	63.65
1045.3922	3169.8127	947.3	65.4
1045.4966	3170.7684	943.15	60.65
1045.6011	3171.7236	944.85	61.55
1045.7054	3172.6782	946.35	65.15
1045.8098	3173.6321	943.15	59.45
1045.914	3174.5854	950.45	63.15
1046.0183	3175.5381	945.1	62
1046.1224	3176.4902	945.6	62.95
1046.2266	3177.4417	943.35	64.15
1046.3307	3178.3926	941.45	57.25
1046.4347	3179.3428	942.4	59.45
1046.5387	3180.2924	939.6	58.25
1046.6427	3181.2415	938.95	56.1
1046.7466	3182.1899	943.8	60
1046.8504	3183.1377	941.05	58.45
1046.9542	3184.0848	941.2	53.05
1047.058	3185.0314	937.65	54
1047.1617	3185.9773	939.55	56.95
1047.2654	3186.9227	939.1	55.65
1047.369	3187.8674	940.05	56.5
1047.4726	3188.8115	943	57.35
1047.5761	3189.755	940.05	59.05
1047.6796	3190.6979	939.25	56.15
1047.783	3191.6402	935.85	54.5
1047.8864	3192.5818	936.55	53.8
1047.9898	3193.5229	943.2	55.2
1048.0931	3194.4633	936.6	53.55
1048.1963	3195.4031	939.8	55.7
1048.2995	3196.3423	932.8	50.75
1048.4027	3197.2809	934.15	50.6
1048.5058	3198.2189	932.5	50.45
1048.6089	3199.1563	949.35	50.05
1048.7119	3200.0931	934.75	52.45
1048.8148	3201.0292	933.05	52.15
1048.9178	3201.9648	934.15	49.85
1049.0206	3202.8997	936.25	51.55
1049.1235	3203.834	933	51
1049.2262	3204.7677	932.25	49
1049.329	3205.7008	932.1	48.85
1049.4317	3206.6333	931.15	51.9
1049.5343	3207.5652	934.3	48.05
1049.6369	3208.4964	928.85	46.4
1049.7394	3209.4271	926.6	44.65
1049.8419	3210.3571	931.4	48.75
1049.9444	3211.2865	931.85	50.1
1050.0468	3212.2154	932.35	48.7
1050.1491	3213.1436	934.6	48.6
1050.2514	3214.0712	938.15	47.4
1050.3537	3214.9982	930.5	47.65
1050.4559	3215.9246	929.3	44.4
1050.5581	3216.8503	929.15	46.95
1050.6602	3217.7755	925.15	41.6
1050.7623	3218.7001	926.45	44.75
1050.8643	3219.624	927.65	43.95
1050.9663	3220.5473	924.8	44.15
1051.0682	3221.4701	929.4	46.85
1051.1701	3222.3922	929.85	47.4
1051.2719	3223.3137	927.8	45.25
1051.3737	3224.2346	926.05	44.65
1051.4754	3225.1549	925.35	42.9
1051.5771	3226.0746	928.05	45.4
1051.6788	3226.9937	923.95	41.1
1051.7804	3227.9121	927.4	47.25
1051.8819	3228.83	924.65	42.65
1051.9834	3229.7473	925.45	42.35
1052.0849	3230.6639	924.55	43.05
1052.1863	3231.5799	922.2	38.4
1052.2876	3232.4954	926.2	42.85
1052.3889	3233.4102	923.5	42.25
1052.4902	3234.3244	925	41.65
1052.5914	3235.238	923.75	40.85
1052.6926	3236.151	948.7	41.65
1052.7937	3237.0634	918.95	37.65
1052.8948	3237.9752	921.7	39.7
1052.9958	3238.8864	921.05	36.95
1053.0968	3239.797	922.45	40.75
1053.1977	3240.7069	921.95	39.55
1053.2986	3241.6163	923.3	38.85
1053.3994	3242.5251	920.9	39.9
1053.5002	3243.4332	923.2	41.45
1053.6009	3244.3408	921.15	36.55
1053.7016	3245.2477	918.5	37.75
1053.8022	3246.154	921.35	38.8
1053.9028	3247.0598	920.65	36.7
1054.0034	3247.9649	920.6	38.65
1054.1039	3248.8694	917.85	35.1
1054.2043	3249.7733	917.4	34.95
1054.3047	3250.6766	919.4	36.6
1054.4051	3251.5793	921.95	37.7
1054.5054	3252.4814	916.95	35.4
1054.6056	3253.3829	916.95	33.75
1054.7058	3254.2838	919.15	35.9
1054.806	3255.1841	914.35	32.45
1054.9061	3256.0838	915.5	33.45
1055.0061	3256.9829	913.8	32.6
1055.1062	3257.8814	914.65	29.35
1055.2061	3258.7792	916.85	31.45
1055.306	3259.6765	917.95	35.4
1055.4059	3260.5731	915.45	33.1
1055.5057	3261.4692	915.55	32.1
1055.6055	3262.3647	913.05	30.9
1055.7052	3263.2595	914	33.5
1055.8049	3264.1538	911.35	28.8
1055.9045	3265.0474	911.25	26.95
1056.0041	3265.9404	912.85	31.45
1056.1036	3266.8329	911.05	28
1056.2031	3267.7247	919	26.15
1056.3025	3268.616	908.45	26
1056.4019	3269.5066	908.05	24.55
1056.5013	3270.3966	911.55	27.25
1056.6005	3271.286	906.25	24.05
