Software Version:	3.9.2.0
Unit SN:	10000200
Spectrometer SN:	6960
Date:	3/14/2024 2:15:40 PM
Data Line Index:	25
Spectral Points:	2048
Integration time (ms):	125
Averages:	20
Delay (ms):	30000
Sequence Number:	1
Processing:	dark subtract
Laser Power (mW):	305
Laser Current (mA):	825
Laser Diode Temp (C):	25
Laser Case Temp (C):	29.2
System Temp (C):	29.1
Spectrometer Temp (C):	26.9
CCD Temp (C):	0.009
Secondary Temp (C):	20.013
Heatsink Temp (C):	24.986
CCDPCB Temp (C):	38.363
SecondaryPCB Temp (C):	36.04

Wavelength	RamanShift	Raw Counts	Dark Subtracted
787.061	30.1047	455.25	45.7
787.2016	32.3739	454.8	47.95
787.3422	34.6426	460.3	51.6
787.4828	36.9109	468.25	57.15
787.6235	39.1787	474.4	59.85
787.7642	41.4461	487.1	67.25
787.9049	43.7131	494.15	72.8
788.0456	45.9796	505.75	78.35
788.1863	48.2456	514.1	83.25
788.3271	50.5112	524.75	90.55
788.4679	52.7764	531.55	95.4
788.6087	55.0411	536.2	95.8
788.7496	57.3054	553.1	106.65
788.8904	59.5692	565	116.65
789.0313	61.8326	569.4	116.95
789.1722	64.0955	588.4	131
789.3132	66.3579	605.3	141.8
789.4541	68.6199	621.5	156.35
789.5951	70.8815	657.65	190.1
789.7361	73.1426	726.4	253.85
789.8771	75.4032	910.6	433.2
790.0181	77.6634	1373.35	890.85
790.1592	79.9231	2453.1	1964.25
790.3003	82.1824	4849.3	4352.3
790.4414	84.4412	9264.2	8752.05
790.5825	86.6995	15515.6	14981.75
790.7237	88.9574	21851.3	21298.95
790.8648	91.2148	26351.45	25785.75
791.006	93.4717	28594.05	28018.8
791.1472	95.7282	29189.25	28610.85
791.2885	97.9842	29256.6	28673.2
791.4297	100.2398	28784.3	28199.55
791.571	102.4949	28209.8	27621.15
791.7123	104.7495	27454	26861.95
791.8536	107.0036	26640.55	26044.3
791.9949	109.2573	25827.05	25233.15
792.1363	111.5105	25017.25	24421.75
792.2777	113.7632	24205.2	23605.55
792.4191	116.0154	23501.05	22893
792.5605	118.2672	22989.45	22387
792.7019	120.5185	22445.7	21845.15
792.8434	122.7693	21973.05	21368
792.9849	125.0197	21661.05	21056.45
793.1264	127.2696	21375.2	20764.65
793.2679	129.519	21264.2	20652.35
793.4094	131.7679	21030.2	20414.35
793.551	134.0163	20940.15	20324
793.6926	136.2642	20759.7	20136.2
793.8342	138.5117	20610	19980.55
793.9758	140.7587	20417.25	19790
794.1175	143.0052	20253.35	19626
794.2591	145.2512	20064.9	19433.65
794.4008	147.4967	19848.75	19218.6
794.5425	149.7417	19703.75	19068.25
794.6842	151.9863	19573.15	18934.7
794.826	154.2304	19506.35	18864.35
794.9677	156.4739	19349.2	18704.5
795.1095	158.717	19271	18627.85
795.2513	160.9596	19147.25	18500.15
795.3931	163.2017	18886.9	18238.15
795.535	165.4433	18574.4	17921.6
795.6768	167.6844	18216	17564.5
795.8187	169.925	17861	17202.3
795.9606	172.1651	17472.7	16810.6
796.1025	174.4047	17130.05	16467.6
796.2445	176.6439	16818.65	16153.05
796.3864	178.8825	16569.6	15902.5
796.5284	181.1206	16414.1	15743.3
796.6704	183.3582	16163.5	15487.05
796.8124	185.5954	16016.45	15337.4
796.9544	187.832	15911.2	15231.45
797.0965	190.0681	15876.9	15194.65
797.2386	192.3037	15852.95	15167.75
797.3806	194.5388	15833.15	15145.5
797.5228	196.7734	15870.65	15179.6
797.6649	199.0075	15912.95	15216.5
797.807	201.2411	16003.8	15309.95
797.9492	203.4742	16061.55	15365.65
798.0914	205.7068	16195.1	15495.35
798.2336	207.9389	16279.65	15581.65
798.3758	210.1704	16430.05	15729.5
798.518	212.4015	16567.35	15861.1
798.6603	214.632	16722.8	16018
798.8025	216.862	16909.85	16210.35
798.9448	219.0915	17106	16414.4
799.0871	221.3205	17383.15	16694.45
799.2294	223.549	17653.85	16969.95
799.3718	225.777	18021.05	17339.2
799.5141	228.0044	18478.4	17795.3
799.6565	230.2314	19054.25	18371.65
799.7989	232.4578	19590.85	18907.5
799.9413	234.6837	20027.55	19337.25
800.0837	236.909	20276.9	19586.1
800.2262	239.1339	20217.25	19502.55
800.3687	241.3582	19917.3	19213.7
800.5111	243.582	19498.25	18774.7
800.6536	245.8053	19006.4	18284.65
800.7961	248.0281	18579.4	17864.25
800.9387	250.2503	18216.1	17495.2
801.0812	252.472	17984.4	17261.25
801.2238	254.6932	17825.75	17098.65
801.3664	256.9139	17650.65	16921.45
801.509	259.134	17581.3	16848.05
801.6516	261.3536	17474.4	16742.15
801.7942	263.5727	17418.55	16685.3
801.9369	265.7912	17212.5	16480.15
802.0795	268.0092	17185.25	16452.85
802.2222	270.2267	17035.6	16302.95
802.3649	272.4436	16959.2	16223.8
802.5076	274.6601	16906.7	16164.35
802.6504	276.8759	16828.3	16089.85
802.7931	279.0913	16838.6	16097.3
802.9359	281.3061	16835.3	16095.15
803.0787	283.5204	16960.4	16216.6
803.2215	285.7341	17107.45	16359.9
803.3643	287.9473	17305.45	16546.4
803.5071	290.16	17601.6	16850.7
803.6499	292.3721	17935.75	17190.45
803.7928	294.5837	18472.25	17723.15
803.9357	296.7947	18869.7	18120.05
804.0786	299.0052	19066.15	18317.55
804.2215	301.2152	18865.1	18112
804.3644	303.4246	18425.35	17674.6
804.5074	305.6334	17807.55	17057.9
804.6503	307.8418	17209.95	16457.4
804.7933	310.0495	16770.3	16018.65
804.9363	312.2568	16448.35	15698.9
805.0793	314.4635	16195.75	15441.35
805.2223	316.6696	16138.25	15383.85
805.3653	318.8752	16136.4	15369.15
805.5084	321.0802	16229.3	15472.35
805.6514	323.2847	16330.3	15572.8
805.7945	325.4887	16390.45	15632.45
805.9376	327.692	16314.2	15554.6
806.0807	329.8949	16200.95	15444.2
806.2238	332.0972	15881.35	15118.4
806.367	334.2989	15608.35	14845.3
806.5101	336.5001	15254.2	14490.85
806.6533	338.7007	15025.45	14262.05
806.7965	340.9008	14907.05	14138.95
806.9397	343.1003	14760.05	13991.05
807.0829	345.2992	14734.2	13967.35
807.2261	347.4976	14671.15	13900.5
807.3693	349.6955	14672.25	13899.55
807.5126	351.8927	14714.45	13937.15
807.6559	354.0895	14727.8	13939.75
807.7991	356.2856	14786.45	14008.85
807.9424	358.4812	14739.65	13964.1
808.0857	360.6763	14792.65	14015.5
808.2291	362.8707	14759.5	13979.2
808.3724	365.0646	14761.4	13978.5
808.5158	367.258	14715	13929.6
808.6591	369.4508	14729.55	13942.75
808.8025	371.643	14771.2	13985.95
808.9459	373.8346	14735.8	13946.6
809.0893	376.0257	14695.55	13904.95
809.2327	378.2162	14586.4	13792.2
809.3762	380.4062	14462.35	13670.45
809.5196	382.5956	14310.65	13514.15
809.6631	384.7844	14156.9	13363.6
809.8066	386.9726	14028.9	13232.5
809.9501	389.1603	13970.95	13178.95
810.0936	391.3474	13965.9	13139.35
810.2371	393.5339	13934	13137.65
810.3806	395.7199	13829.1	13039.8
810.5241	397.9052	13833.7	13042.9
810.6677	400.09	13839.3	13050.5
810.8113	402.2743	13870.8	13083.05
810.9548	404.4579	13890.05	13105.15
811.0984	406.641	14060.15	13271.4
811.2421	408.8235	14275.05	13488.65
811.3857	411.0054	14628.45	13839.75
811.5293	413.1868	15146.15	14355.2
811.673	415.3675	15558.35	14768.55
811.8166	417.5477	15815.1	15022.95
811.9603	419.7273	15902.25	15104.1
812.104	421.9064	15718.2	14916.1
812.2477	424.0848	15557	14754.8
812.3914	426.2627	15295.85	14494.45
812.5351	428.4399	15008.95	14204.8
812.6788	430.6166	14592.1	13783.75
812.8226	432.7928	14165.7	13358.25
812.9663	434.9683	13848.95	13041.3
813.1101	437.1432	13610.85	12802.15
813.2539	439.3176	13406.9	12597.1
813.3977	441.4914	13294.5	12483.45
813.5415	443.6645	13239.25	12426.95
813.6853	445.8371	13198	12386.15
813.8291	448.0091	13093.7	12284.7
813.973	450.1806	13029.95	12221.25
814.1168	452.3514	12991.45	12178.7
814.2607	454.5216	12938.8	12117.5
814.4046	456.6913	12876.7	12063.4
814.5485	458.8603	12877.8	12065.55
814.6924	461.0288	12932.25	12117.95
814.8363	463.1967	12967.1	12151.95
814.9802	465.3639	13114	12298.7
815.1241	467.5306	13223.95	12409.9
815.2681	469.6967	13411.5	12593.8
815.412	471.8622	13594.9	12779.15
815.556	474.0271	13786.35	12965.9
815.7	476.1914	13879.05	13056
815.844	478.3551	13826.3	13009
815.988	480.5182	13768.35	12949.55
816.132	482.6807	13695.3	12873.95
816.276	484.8426	13741.1	12922.4
816.4201	487.0039	13999.55	13176.15
816.5641	489.1647	14411.95	13590.55
816.7082	491.3248	14872.75	14051.6
816.8522	493.4843	15074.4	14254.4
816.9963	495.6432	15129.85	14307.25
817.1404	497.8015	15043	14218.15
817.2845	499.9592	15037.1	14214.7
817.4286	502.1163	15053.65	14230.05
817.5727	504.2728	14833.4	14007.85
817.7168	506.4287	14482.25	13660.1
817.861	508.5839	14023.45	13200
818.0051	510.7386	13614.6	12791.8
818.1493	512.8927	13378.25	12551.5
818.2935	515.0461	13176.8	12350.2
818.4377	517.199	13055.45	12229.65
818.5818	519.3512	12949.05	12122.05
818.726	521.5029	12941.45	12111.05
818.8703	523.6539	12935.95	12108.4
819.0145	525.8043	12937.95	12107.4
819.1587	527.9541	12987.15	12155.6
819.303	530.1033	13029.75	12197.85
819.4472	532.2519	13118.5	12291.4
819.5915	534.3999	13286.75	12457
819.7357	536.5472	13615.75	12784.45
819.88	538.694	14200	13368.75
820.0243	540.8401	14886.15	14052.85
820.1686	542.9856	15490.8	14657.1
820.3129	545.1305	15679.45	14846.35
820.4572	547.2748	15509.95	14677.15
820.6016	549.4185	15054.65	14218.9
820.7459	551.5615	14602.7	13768.1
820.8902	553.704	14385.05	13551.75
821.0346	555.8458	14238.65	13405.25
821.1789	557.987	14181.45	13348.65
821.3233	560.1276	14041.45	13204.85
821.4677	562.2675	13920.9	13086.75
821.6121	564.4069	13757.9	12920.3
821.7565	566.5456	13601.9	12765.9
821.9009	568.6837	13446.15	12610.7
822.0453	570.8212	13186.8	12354.45
822.1897	572.958	12953.45	12117.65
822.3342	575.0942	12760.9	11925.3
822.4786	577.2299	12659.2	11822
822.6231	579.3648	12657.2	11819.45
822.7675	581.4992	12755.25	11918
822.912	583.6329	13023.55	12186.55
823.0565	585.766	13292.05	12455.05
823.201	587.8985	13418.4	12583
823.3454	590.0304	13436.2	12588
823.4899	592.1616	13347.3	12506.1
823.6345	594.2922	13267.05	12428
823.779	596.4222	13091	12251.7
823.9235	598.5515	12892.8	12053.8
824.068	600.6802	12731.65	11892.3
824.2126	602.8083	12510.15	11670.1
824.3571	604.9358	12419	11577.5
824.5017	607.0626	12328.6	11485.5
824.6462	609.1888	12223.3	11379.65
824.7908	611.3144	12074.6	11233
824.9354	613.4393	11890.25	11048.5
825.08	615.5636	11713.2	10869.3
825.2246	617.6873	11574.35	10731.85
825.3692	619.8103	11515.85	10673.05
825.5138	621.9327	11443.15	10599.35
825.6584	624.0544	11431.15	10590.45
825.803	626.1756	11431.65	10589.8
825.9477	628.2961	11378.9	10534.5
826.0923	630.4159	11343.55	10498.9
826.237	632.5351	11291.65	10448
826.3816	634.6537	11217.75	10372.9
826.5263	636.7716	11172.5	10327.15
826.6709	638.8889	11174.5	10327.65
826.8156	641.0056	11179.4	10332.95
826.9603	643.1216	11164.7	10317.25
827.105	645.237	11174	10325.45
827.2497	647.3518	11158.7	10311.25
827.3944	649.4659	11219.25	10371.25
827.5391	651.5793	11222.2	10374.45
827.6838	653.6922	11204.55	10356.8
827.8285	655.8043	11150.6	10301.5
827.9733	657.9159	11098.7	10249.95
828.118	660.0268	11036.45	10184.2
828.2627	662.137	10930	10081.8
828.4075	664.2466	10895.25	10043.5
828.5522	666.3556	10865.6	10016.05
828.697	668.4639	10852	10001.2
828.8418	670.5716	10911.2	10059.4
828.9865	672.6786	10986.1	10137.65
829.1313	674.785	11070.35	10219.9
829.2761	676.8907	11152.7	10299.85
829.4209	678.9958	11244.75	10393.05
829.5657	681.1002	11203.55	10351.8
829.7105	683.204	11191.75	10335.95
829.8553	685.3072	11083.5	10229.65
830.0001	687.4097	10974.3	10120.1
830.1449	689.5115	10926.8	10075.15
830.2898	691.6127	10838.2	9987.2
830.4346	693.7132	10735.5	9880.3
830.5794	695.8131	10653.05	9776.2
830.7243	697.9123	10598.45	9741.55
830.8691	700.0109	10567.55	9707.7
831.014	702.1089	10502.35	9648.6
831.1588	704.2061	10473.2	9616.65
831.3037	706.3028	10532.25	9674.25
831.4486	708.3987	10600.4	9746.1
831.5935	710.4941	10669.1	9812.6
831.7383	712.5887	10884.3	10026.05
831.8832	714.6827	11225.85	10365.7
832.0281	716.7761	11602.25	10746.4
832.173	718.8688	12050.2	11194.05
832.3179	720.9608	12263.5	11403.55
832.4628	723.0522	12266.1	11405.85
832.6077	725.1429	11968.2	11110.55
832.7527	727.233	11526.7	10668.6
832.8976	729.3224	11152.45	10294.3
833.0425	731.4112	10809.3	9950.75
833.1874	733.4993	10587.15	9728.15
833.3324	735.5867	10412.9	9552.95
833.4773	737.6735	10330.2	9472.7
833.6222	739.7596	10257.55	9397.95
833.7672	741.845	10254.3	9393.35
833.9122	743.9298	10267.65	9407.8
834.0571	746.014	10220.45	9363.15
834.2021	748.0974	10237.75	9376.3
834.347	750.1802	10222.45	9366.05
834.492	752.2624	10229.95	9371.7
834.637	754.3439	10237.9	9374.1
834.782	756.4247	10289.7	9418.6
834.9269	758.5048	10395.5	9537.7
835.0719	760.5843	10570.5	9710.4
835.2169	762.6631	10837.15	9976.15
835.3619	764.7413	11212.35	10352.65
835.5069	766.8188	11789.6	10925.6
835.6519	768.8956	12291.1	11427.9
835.7969	770.9718	12630.05	11768.25
835.9419	773.0473	12506.15	11644.35
836.0869	775.1221	12168.1	11309.4
836.232	777.1962	11755.95	10893.35
836.377	779.2697	11543.35	10681.85
836.522	781.3426	11614.1	10740.2
836.667	783.4147	11914.3	11050.2
836.8121	785.4862	12250.5	11388.5
836.9571	787.557	12275.05	11410.9
837.1021	789.6271	11925.2	11061.4
837.2472	791.6966	11333.7	10471.8
837.3922	793.7654	10799.8	9935.1
837.5373	795.8335	10448.95	9587.15
837.6823	797.901	10217.3	9355.15
837.8274	799.9678	10170.65	9306.2
837.9724	802.0339	10195.75	9333.45
838.1175	804.0993	10261.1	9386.8
838.2626	806.1641	10238.25	9375
838.4076	808.2282	10172.45	9309.1
838.5527	810.2916	10056.8	9191.2
838.6978	812.3544	9946.45	9086.05
838.8428	814.4164	9853.1	8988.6
838.9879	816.4778	9831.55	8969.1
839.133	818.5385	9792.65	8930.5
839.2781	820.5986	9818.75	8954.7
839.4232	822.658	9880	9016.1
839.5682	824.7166	9896.7	9034.55
839.7133	826.7747	10014.85	9148.1
839.8584	828.832	10132.3	9266.95
840.0035	830.8886	10208.35	9342.2
840.1486	832.9446	10355.85	9490.9
840.2937	834.9999	10457.5	9594.95
840.4388	837.0545	10555.15	9685.9
840.5839	839.1085	10605	9737.15
840.729	841.1618	10636.25	9765.2
840.8741	843.2143	10622.25	9756.85
841.0192	845.2662	10556.3	9686.95
841.1643	847.3175	10495.95	9630.9
841.3095	849.368	10355.5	9488.75
841.4546	851.4179	10239.65	9373.25
841.5997	853.467	10097.9	9232.95
841.7448	855.5155	9964.4	9097.95
841.8899	857.5633	9842.35	8976.5
842.0351	859.6105	9699.5	8834.25
842.1802	861.6569	9616.1	8750.35
842.3253	863.7027	9545	8677.7
842.4704	865.7478	9525.55	8656.2
842.6156	867.7922	9514.85	8647.5
842.7607	869.8359	9578.7	8709.45
842.9058	871.8789	9722.65	8852.4
843.0509	873.9212	9894.1	8992.75
843.1961	875.9629	10071.7	9203.85
843.3412	878.0039	10236.6	9366.1
843.4863	880.0441	10339.05	9470.5
843.6315	882.0837	10318.9	9446.85
843.7766	884.1226	10193.95	9324.7
843.9218	886.1609	10015.85	9149.15
844.0669	888.1984	9871.55	9002.85
844.212	890.2352	9778.65	8912.15
844.3572	892.2714	9719.2	8845.75
844.5023	894.3069	9672.85	8802.35
844.6475	896.3416	9589.2	8719.9
844.7926	898.3757	9571.3	8701.7
844.9377	900.4091	9563.55	8695.1
845.0829	902.4418	9588.2	8714.15
845.228	904.4739	9569.55	8699.2
845.3732	906.5052	9575.15	8705.85
845.5183	908.5358	9451.3	8581.95
845.6635	910.5658	9262.6	8390.2
845.8086	912.595	9112.55	8240.95
845.9538	914.6236	8966.45	8094.9
846.0989	916.6515	8944.1	8075.45
846.2441	918.6786	8945.55	8074.05
846.3892	920.7051	8991.6	8118.95
846.5344	922.7309	9126.55	8256.15
846.6795	924.756	9205.85	8335.05
846.8246	926.7804	9280.15	8409.5
846.9698	928.8041	9227	8352.35
847.1149	930.8272	9280.1	8411.05
847.2601	932.8495	9204	8329.85
847.4052	934.8711	9090.3	8215.95
847.5504	936.892	8950.25	8078.7
847.6955	938.9123	8756.55	7884.7
847.8407	940.9318	8589.45	7718.9
847.9858	942.9506	8449.95	7577.85
848.131	944.9688	8352.7	7482
848.2761	946.9862	8315.15	7444.9
848.4213	949.003	8259.75	7388.75
848.5664	951.019	8267.1	7394.65
848.7115	953.0344	8300.85	7429.8
848.8567	955.0491	8339.7	7465.9
849.0018	957.063	8413.1	7540.85
849.147	959.0763	8491.75	7619.8
849.2921	961.0888	8540.25	7665.45
849.4373	963.1007	8650	7778.6
849.5824	965.1119	8662.8	7790.7
849.7275	967.1223	8696.45	7824.05
849.8727	969.1321	8718.9	7847.8
850.0178	971.1412	8748.05	7875.25
850.1629	973.1495	8782.55	7911.65
850.3081	975.1572	8837.05	7925.5
850.4532	977.1641	8835.2	7965.95
850.5983	979.1704	8811	7936.95
850.7435	981.1759	8820.6	7945
850.8886	983.1808	8874.95	7999.15
851.0337	985.1849	8996.9	8113.15
851.1788	987.1884	9179.2	8303.7
851.324	989.1911	9388.45	8513.15
851.4691	991.1932	9511.95	8638.45
851.6142	993.1945	9569.2	8696
851.7593	995.1951	9539.65	8663.5
851.9045	997.1951	9509.3	8631.15
852.0496	999.1943	9437.25	8565.1
852.1947	1001.1928	9351.75	8477.4
852.3398	1003.1906	9326.8	8455.5
852.4849	1005.1877	9373.35	8493.55
852.63	1007.1841	9310	8436.2
852.7751	1009.1798	9181.45	8307.15
852.9202	1011.1748	9010.45	8135.85
853.0653	1013.1691	8783.6	7911.25
853.2104	1015.1627	8571.6	7696.65
853.3555	1017.1556	8376.35	7500.75
853.5006	1019.1477	8269.9	7396
853.6457	1021.1392	8216.5	7342.95
853.7908	1023.1299	8189.2	7315.75
853.9359	1025.12	8240.75	7361.5
854.081	1027.1093	8301.95	7429.8
854.2261	1029.0979	8381.95	7507.4
854.3712	1031.0859	8426.95	7553.65
854.5163	1033.0731	8418.55	7544.3
854.6613	1035.0596	8328	7454.7
854.8064	1037.0454	8195.2	7318.3
854.9515	1039.0304	8069.85	7197.1
855.0965	1041.0148	7928.4	7054.45
855.2416	1042.9985	7842.75	6968.1
855.3867	1044.9814	7789.35	6912.85
855.5317	1046.9636	7734.3	6855.35
855.6768	1048.9452	7733.8	6860.55
855.8219	1050.926	7740.5	6864.05
855.9669	1052.9061	7704.7	6831.35
856.112	1054.8855	7703.25	6828.15
856.257	1056.8642	7736.05	6860
856.4021	1058.8421	7753.85	6874.9
856.5471	1060.8194	7790.65	6916.2
856.6921	1062.7959	7811.1	6935.45
856.8372	1064.7717	7819.5	6943
856.9822	1066.7469	7819.4	6946.35
857.1272	1068.7213	7785.35	6906.5
857.2723	1070.695	7722.35	6847.5
857.4173	1072.6679	7659.45	6783.8
857.5623	1074.6402	7606.05	6733.7
857.7073	1076.6117	7610	6733.15
857.8523	1078.5826	7589.3	6712.5
857.9973	1080.5527	7688.25	6808.95
858.1423	1082.5221	7827.15	6948.65
858.2873	1084.4908	8066.6	7191.4
858.4323	1086.4587	8326.2	7449.85
858.5773	1088.426	8501.25	7622.2
858.7223	1090.3925	8498.7	7617.2
858.8673	1092.3584	8396.6	7518.35
859.0123	1094.3235	8210.35	7335.15
859.1573	1096.2879	8102.1	7225.6
859.3022	1098.2515	8051.5	7175.65
859.4472	1100.2145	8048.5	7173.3
859.5922	1102.1767	8143.55	7263.9
859.7371	1104.1382	8252.5	7375.85
859.8821	1106.099	8478.5	7599.25
860.027	1108.0591	8683.25	7807.95
860.172	1110.0185	8828.05	7949.7
860.3169	1111.9771	8852.25	7976.85
860.4619	1113.9351	8605.1	7727.4
860.6068	1115.8923	8252.3	7378.35
860.7517	1117.8488	7926.5	7047.25
860.8967	1119.8045	7600.75	6726.25
861.0416	1121.7596	7441.55	6561.25
861.1865	1123.7139	7381.6	6504
861.3314	1125.6675	7395.75	6523.2
861.4763	1127.6204	7422.6	6546.05
861.6212	1129.5726	7463.4	6587.05
861.7661	1131.524	7494	6614.25
861.911	1133.4748	7538.65	6661.75
862.0559	1135.4248	7594.95	6717.85
862.2008	1137.3741	7618.85	6740.25
862.3457	1139.3226	7604.7	6727.25
862.4905	1141.2705	7558.3	6681.3
862.6354	1143.2176	7482.05	6598.8
862.7803	1145.164	7519.4	6641.6
862.9251	1147.1097	7552.45	6673.75
863.07	1149.0546	7539.55	6662.7
863.2148	1150.9989	7417.1	6538.55
863.3597	1152.9424	7242.75	6366.25
863.5045	1154.8852	7026.3	6148.45
863.6493	1156.8272	6890.3	6012.25
863.7942	1158.7686	6790.9	5908.5
863.939	1160.7092	6758.5	5877.9
864.0838	1162.6491	6786.8	5906.9
864.2286	1164.5883	6827.55	5951.95
864.3734	1166.5267	6907.05	6029.05
864.5182	1168.4644	7057.1	6179.7
864.663	1170.4014	7223.95	6342.05
864.8078	1172.3377	7452.85	6577.9
864.9526	1174.2732	7660.75	6784.15
865.0974	1176.2081	7851.45	6973.5
865.2421	1178.1421	8026.1	7143.3
865.3869	1180.0755	8145.95	7269.05
865.5317	1182.0082	8161.5	7282.95
865.6764	1183.9401	8090.15	7212.05
865.8212	1185.8713	7878.8	7002.4
865.9659	1187.8017	7631.1	6752.15
866.1106	1189.7315	7340.25	6463.35
866.2554	1191.6605	7131.4	6221.7
866.4001	1193.5888	6917.05	6037.4
866.5448	1195.5163	6778.75	5900.75
866.6895	1197.4432	6659.25	5778.95
866.8342	1199.3693	6615	5737.55
866.9789	1201.2947	6555.55	5675.25
867.1236	1203.2193	6546.85	5669.6
867.2683	1205.1432	6562.75	5681.8
867.413	1207.0664	6637.55	5760.25
867.5576	1208.9889	6711.15	5829.25
867.7023	1210.9106	6792.55	5913.15
867.847	1212.8316	6885.15	6006.5
867.9916	1214.7519	6971.7	6081.05
868.1363	1216.6715	6998.95	6122.25
868.2809	1218.5903	6970.95	6093.15
868.4255	1220.5084	6931.85	6051.55
868.5701	1222.4257	6887.8	6007.8
868.7148	1224.3424	6818.8	5941.55
868.8594	1226.2583	6883.25	6003.25
869.004	1228.1735	6988.75	6108
869.1486	1230.0879	7127.05	6247.35
869.2932	1232.0016	7257.4	6379.7
869.4377	1233.9146	7310.3	6428.45
869.5823	1235.8269	7204.45	6327.8
869.7269	1237.7384	7078.4	6199.65
869.8715	1239.6492	6882.85	6005.3
870.016	1241.5592	6769.45	5887.85
870.1606	1243.4686	6654.75	5776.3
870.3051	1245.3772	6593.45	5716.85
870.4496	1247.285	6549.45	5668.85
870.5941	1249.1922	6506.35	5625.95
870.7387	1251.0986	6501.05	5623.15
870.8832	1253.0042	6511.6	5632.95
871.0277	1254.9092	6557.2	5675.25
871.1722	1256.8134	6657.3	5779.3
871.3167	1258.7169	6814.75	5935.5
871.4611	1260.6196	6971.55	6093
871.6056	1262.5216	7146.8	6264.8
871.7501	1264.4229	7278.5	6400.9
871.8945	1266.3234	7422.9	6544.7
872.039	1268.2232	7439.4	6558.7
872.1834	1270.1223	7434.3	6557.7
872.3278	1272.0207	7393.35	6514.1
872.4723	1273.9183	7357.35	6473.6
872.6167	1275.8151	7267.9	6387.95
872.7611	1277.7113	7170.1	6290.5
872.9055	1279.6067	7026.65	6146.35
873.0499	1281.5014	6861.9	5981.05
873.1943	1283.3953	6706.9	5826.6
873.3386	1285.2885	6608.75	5729.7
873.483	1287.181	6531.15	5651.75
873.6274	1289.0727	6519.85	5644.45
873.7717	1290.9637	6577.55	5697
873.9161	1292.854	6677.5	5798.35
874.0604	1294.7435	6840	5960.1
874.2047	1296.6323	7058.15	6178.05
874.349	1298.5204	7346	6464.95
874.4933	1300.4077	7593.8	6714.55
874.6376	1302.2943	7789.9	6912.65
874.7819	1304.1802	7887	7008.15
874.9262	1306.0653	7845.15	6963.65
875.0705	1307.9497	7716.75	6838.25
875.2147	1309.8333	7647.25	6767
875.359	1311.7162	7608.8	6729.75
875.5032	1313.5984	7723.75	6840.65
875.6475	1315.4798	7884.4	6990.85
875.7917	1317.3605	8045.1	7148.75
875.9359	1319.2405	8216.2	7334.5
876.0801	1321.1197	8276.75	7394.1
876.2243	1322.9982	8262.45	7378.25
876.3685	1324.876	8213.6	7334.1
876.5127	1326.753	8195.5	7316.65
876.6569	1328.6293	8237.35	7354.75
876.801	1330.5048	8239.75	7356.4
876.9452	1332.3796	8216.8	7338.95
877.0893	1334.2537	8202.4	7297.05
877.2335	1336.127	8141.05	7263.55
877.3776	1337.9996	8094.2	7214.55
877.5217	1339.8714	8037.65	7157.75
877.6658	1341.7426	7987.75	7065.05
877.8099	1343.6129	7933.05	7052.25
877.954	1345.4826	7823.05	6943.15
878.0981	1347.3515	7781.35	6897
878.2422	1349.2196	7695.5	6816.05
878.3862	1351.087	7684.5	6803.75
878.5303	1352.9537	7747.25	6865.4
878.6743	1354.8197	7874.8	6995.2
878.8184	1356.6849	8018	7136.75
878.9624	1358.5493	8109.9	7229.05
879.1064	1360.4131	8105.35	7223.75
879.2504	1362.276	8015.8	7133.4
879.3944	1364.1383	7869.55	6991.05
879.5384	1365.9998	7649.65	6764.15
879.6823	1367.8606	7364.15	6482.35
879.8263	1369.7206	7125.1	6245.35
879.9702	1371.5799	6964.35	6081.95
880.1142	1373.4384	6859.5	5978.9
880.2581	1375.2962	6749.85	5868.9
880.402	1377.1533	6527	5646.95
880.5459	1379.0096	6236.15	5356.15
880.6898	1380.8652	5962.25	5082.05
880.8337	1382.7201	5739.8	4859.85
880.9776	1384.5742	5564.3	4682.9
881.1215	1386.4275	5425.3	4543.5
881.2653	1388.2802	5289.75	4411.65
881.4092	1390.132	5197.9	4316.65
881.553	1391.9832	5143.15	4262.05
881.6968	1393.8336	5079.15	4197.6
881.8406	1395.6832	5059.05	4176.6
881.9844	1397.5322	5034.9	4154.5
882.1282	1399.3803	5017.95	4130.35
882.272	1401.2278	4989.8	4111.1
882.4158	1403.0745	5007.6	4126.9
882.5595	1404.9204	4996.95	4115.95
882.7033	1406.7656	5019.55	4139.8
882.847	1408.6101	5028.1	4146.95
882.9908	1410.4538	5027	4146.4
883.1345	1412.2968	5088.55	4207.35
883.2782	1414.139	5142.25	4261.9
883.4219	1415.9805	5219.75	4340.6
883.5656	1417.8213	5320.95	4433.05
883.7092	1419.6613	5460.55	4580.25
883.8529	1421.5006	5670.9	4788.1
883.9965	1423.3391	5927.95	5046.15
884.1402	1425.1769	6315.75	5433
884.2838	1427.0139	6822.25	5941.25
884.4274	1428.8502	7437.75	6555.65
884.571	1430.6858	8066	7183.4
884.7146	1432.5206	8493.75	7612.95
884.8582	1434.3547	8782.45	7900.8
885.0018	1436.188	8839.35	7955.4
885.1453	1438.0206	8747.05	7863.3
885.2889	1439.8524	8629.65	7747.65
885.4324	1441.6835	8524	7640.65
885.5759	1443.5139	8441.05	7557.6
885.7194	1445.3435	8379.55	7497.85
885.8629	1447.1724	8328.65	7446.25
886.0064	1449.0005	8248.05	7367.65
886.1499	1450.8279	8151.05	7269.35
886.2933	1452.6545	8134.25	7252.9
886.4368	1454.4804	8141.1	7259.6
886.5802	1456.3056	8133.4	7248.3
886.7237	1458.13	8053.55	7173.85
886.8671	1459.9536	7816.5	6933.6
887.0105	1461.7766	7430.25	6549.8
887.1539	1463.5987	6986.75	6104.4
887.2972	1465.4202	6608.15	5726.9
887.4406	1467.2409	6273.8	5392.25
887.584	1469.0608	5960.35	5081.1
887.7273	1470.88	5698.3	4813.5
887.8706	1472.6984	5482.6	4602.75
888.0139	1474.5161	5295.1	4414.25
888.1572	1476.3331	5142.25	4262.1
888.3005	1478.1493	5038.35	4154.85
888.4438	1479.9648	4924.45	4041.75
888.5871	1481.7795	4823.65	3943.8
888.7303	1483.5935	4745.9	3863.6
888.8736	1485.4067	4684.7	3804.45
889.0168	1487.2192	4631.8	3752.9
889.16	1489.031	4606.2	3722.45
889.3032	1490.842	4582.6	3703.2
889.4464	1492.6522	4524.2	3642.05
889.5896	1494.4618	4517.4	3633.2
889.7327	1496.2705	4493.35	3612.15
889.8759	1498.0785	4460.15	3577.3
890.019	1499.8858	4436.75	3556.35
890.1622	1501.6924	4421.9	3541.3
890.3053	1503.4981	4399.45	3518.35
890.4484	1505.3032	4385.7	3502.65
890.5914	1507.1075	4368.7	3487.4
890.7345	1508.911	4364.8	3483.3
890.8776	1510.7138	4324.35	3444.55
891.0206	1512.5159	4289.05	3407.6
891.1637	1514.3172	4246.7	3365.9
891.3067	1516.1178	4211.35	3331.85
891.4497	1517.9176	4193.05	3309.95
891.5927	1519.7166	4158.15	3278.2
891.7357	1521.515	4157.1	3267.55
891.8786	1523.3126	4136.05	3255.2
892.0216	1525.1094	4122.3	3240
892.1645	1526.9055	4105.7	3227
892.3074	1528.7008	4076.4	3194.45
892.4503	1530.4954	4068.45	3182.15
892.5932	1532.2893	4071.6	3190.7
892.7361	1534.0824	4045.25	3159.35
892.879	1535.8747	4040.7	3162.65
893.0218	1537.6663	4048.55	3166.6
893.1647	1539.4572	4031.5	3146.8
893.3075	1541.2473	4017.45	3135.2
893.4503	1543.0367	4004.5	3123.15
893.5931	1544.8253	4017.15	3130.9
893.7359	1546.6132	4024.55	3141.4
893.8787	1548.4003	4025.5	3136.3
894.0214	1550.1867	4036.3	3145.7
894.1642	1551.9723	4046.75	3160.2
894.3069	1553.7572	4085.8	3203.2
894.4496	1555.5414	4091.25	3210.3
894.5923	1557.3247	4124.5	3240.2
894.735	1559.1074	4160.95	3282.2
894.8777	1560.8893	4222.05	3342.25
895.0204	1562.6705	4277.45	3394.15
895.163	1564.4509	4354.1	3473.6
895.3056	1566.2305	4415.55	3536.2
895.4482	1568.0094	4530.4	3652.8
895.5908	1569.7876	4612.4	3730.45
895.7334	1571.565	4663.65	3783.05
895.876	1573.3417	4735.75	3856.8
896.0186	1575.1176	4743.15	3862.15
896.1611	1576.8928	4723.25	3841.55
896.3036	1578.6672	4639.45	3758.05
896.4461	1580.4409	4531.6	3649.9
896.5886	1582.2138	4401.7	3518.25
896.7311	1583.986	4290.25	3405.85
896.8736	1585.7575	4195.3	3316.95
897.0161	1587.5282	4116.55	3235.9
897.1585	1589.2981	4065.65	3185.55
897.3009	1591.0673	4011.1	3130.5
897.4433	1592.8358	3989.75	3108.55
897.5857	1594.6035	3999.1	3115.9
897.7281	1596.3704	3990.6	3109.7
897.8705	1598.1366	3988.25	3109.35
898.0128	1599.9021	4017.7	3137.6
898.1551	1601.6668	4040	3156.05
898.2975	1603.4308	4083.4	3203.35
898.4398	1605.194	4158.8	3274.4
898.5821	1606.9564	4227.65	3346.65
898.7243	1608.7182	4348.4	3462.05
898.8666	1610.4791	4469.05	3589.35
899.0088	1612.2394	4616.15	3737.05
899.1511	1613.9988	4795.1	3913.85
899.2933	1615.7576	5017.35	4138.85
899.4355	1617.5156	5272.6	4386.95
899.5776	1619.2728	5512.05	4632.45
899.7198	1621.0293	5695	4815
899.862	1622.785	5773.25	4890.55
900.0041	1624.54	5736.55	4851.75
900.1462	1626.2942	5606.45	4724.4
900.2883	1628.0477	5361.2	4477.65
900.4304	1629.8005	5123.25	4237.65
900.5725	1631.5525	4886.35	4006.55
900.7145	1633.3037	4676.15	3795.1
900.8566	1635.0542	4517	3638.15
900.9986	1636.804	4383.6	3500.4
901.1406	1638.553	4347.75	3394.3
901.2826	1640.3013	4230	3349.3
901.4245	1642.0488	4194.1	3312.45
901.5665	1643.7955	4185.05	3304.15
901.7085	1645.5416	4206.65	3321.85
901.8504	1647.2868	4253.05	3373.25
901.9923	1649.0313	4337.65	3457.95
902.1342	1650.7751	4469.05	3585.4
902.2761	1652.5181	4644.8	3765.5
902.4179	1654.2604	4901.65	4019.35
902.5598	1656.0019	5224.45	4344.55
902.7016	1657.7427	5614.25	4733.05
902.8434	1659.4828	5943.65	5063.7
902.9852	1661.222	6198.15	5317
903.127	1662.9606	6228.8	5348.65
903.2687	1664.6984	6077.7	5197.75
903.4105	1666.4354	5740.75	4859.95
903.5522	1668.1717	5291.85	4411.5
903.6939	1669.9072	4849.95	3971.05
903.8356	1671.642	4481.9	3599.1
903.9773	1673.3761	4194.1	3315.1
904.119	1675.1094	3973.15	3092.8
904.2606	1676.8419	3807.7	2926
904.4022	1678.5737	3685.25	2804.45
904.5439	1680.3048	3592.45	2711.35
904.6855	1682.0351	3518.45	2637.85
904.827	1683.7646	3462.45	2580.6
904.9686	1685.4934	3423.1	2543.5
905.1101	1687.2215	3392.2	2512.85
905.2517	1688.9488	3359.05	2478.7
905.3932	1690.6754	3324.3	2444.85
905.5347	1692.4012	3312.55	2435.05
905.6761	1694.1263	3281.25	2402.2
905.8176	1695.8506	3259.75	2380.9
905.9591	1697.5742	3252.4	2370.9
906.1005	1699.297	3231.25	2350.95
906.2419	1701.0191	3207.35	2328.95
906.3833	1702.7404	3184.25	2306.85
906.5246	1704.461	3179.1	2297.5
906.666	1706.1808	3160.4	2279.3
906.8073	1707.8999	3150.9	2267.4
906.9487	1709.6182	3126.25	2246.8
907.09	1711.3358	3113.2	2234.4
907.2313	1713.0527	3096.15	2219.1
907.3725	1714.7688	3090.15	2203.65
907.5138	1716.4841	3069	2188.7
907.655	1718.1987	3074.9	2190.35
907.7962	1719.9126	3061.7	2182.7
907.9374	1721.6257	3037.85	2154.4
908.0786	1723.338	3042.25	2159.95
908.2198	1725.0496	3022.25	2141.45
908.3609	1726.7605	3007.4	2127.45
908.502	1728.4706	2988.8	2108.25
908.6431	1730.18	2997	2114.5
908.7842	1731.8886	2975.9	2096.5
908.9253	1733.5964	2982	2097.6
909.0664	1735.3036	2964.65	2084.15
909.2074	1737.0099	2962.55	2083.15
909.3484	1738.7156	2944.7	2065.95
909.4894	1740.4204	2950.5	2066.65
909.6304	1742.1246	2949.7	2069.1
909.7714	1743.8279	2933.35	2054.55
909.9123	1745.5306	2928	2046.15
910.0532	1747.2325	2910.15	2030
910.1941	1748.9336	2910.1	2032.25
910.335	1750.634	2898.2	2016.9
910.4759	1752.3336	2898.95	2019.05
910.6168	1754.0325	2895.9	2015.9
910.7576	1755.7307	2891.3	2009.4
910.8984	1757.4281	2886.6	2005.55
911.0392	1759.1247	2886.05	1998.65
911.18	1760.8206	2862.25	1979.1
911.3208	1762.5158	2868.45	1985.95
911.4615	1764.2102	2858.4	1979.75
911.6022	1765.9039	2843.2	1962.85
911.7429	1767.5968	2824.4	1943.25
911.8836	1769.289	2840.85	1961.4
912.0243	1770.9804	2837.25	1957.6
912.1649	1772.6711	2829.35	1947.55
912.3056	1774.361	2819.7	1940.5
912.4462	1776.0502	2816.35	1937.35
912.5868	1777.7386	2806.85	1924.55
912.7274	1779.4263	2800.45	1920.3
912.8679	1781.1132	2804.55	1923.05
913.0084	1782.7994	2794.05	1913
913.149	1784.4849	2788.45	1908.5
913.2895	1786.1696	2783.85	1885.5
913.4299	1787.8535	2782.9	1903.65
913.5704	1789.5367	2773.8	1894.7
913.7108	1791.2192	2764.45	1884.4
913.8513	1792.9009	2778.65	1873.75
913.9917	1794.5818	2761.6	1879.7
914.132	1796.2621	2743.9	1863.15
914.2724	1797.9415	2733.95	1853.55
914.4128	1799.6202	2740.1	1863.15
914.5531	1801.2982	2725.1	1846.15
914.6934	1802.9755	2732.65	1852
914.8337	1804.6519	2725.5	1845
914.9739	1806.3277	2719.5	1839.55
915.1142	1808.0027	2707.2	1825.65
915.2544	1809.6769	2708.65	1826.6
915.3946	1811.3504	2697	1815.2
915.5348	1813.0231	2700.25	1819.45
915.675	1814.6951	2696.05	1816.05
915.8151	1816.3664	2690.4	1807.85
915.9553	1818.0369	2690.75	1809.8
916.0954	1819.7067	2687.15	1808.2
916.2355	1821.3757	2678.05	1796.05
916.3755	1823.044	2678.85	1800.65
916.5156	1824.7115	2663.25	1784.95
916.6556	1826.3783	2655.25	1775.9
916.7956	1828.0443	2664.4	1787.7
916.9356	1829.7096	2658.3	1778.15
917.0756	1831.3741	2661	1779.55
917.2155	1833.0379	2654.4	1775.85
917.3555	1834.701	2645.6	1763.2
917.4954	1836.3633	2648.55	1767
917.6353	1838.0248	2638.55	1756.35
917.7751	1839.6856	2635.75	1754.85
917.915	1841.3457	2630.55	1750.35
918.0548	1843.005	2624.1	1744.05
918.1946	1844.6636	2629.35	1750.95
918.3344	1846.3214	2614.05	1734.25
918.4742	1847.9785	2605.7	1728.2
918.6139	1849.6349	2610.25	1731.6
918.7537	1851.2904	2628.05	1741.9
918.8934	1852.9453	2611.85	1734.55
919.0331	1854.5994	2598.5	1716.7
919.1727	1856.2528	2603.45	1717.55
919.3124	1857.9054	2610.5	1731.1
919.452	1859.5572	2591	1711.7
919.5916	1861.2083	2586.8	1705.7
919.7312	1862.8587	2590.2	1711.4
919.8708	1864.5084	2576.6	1695.35
920.0103	1866.1572	2566.8	1688.15
920.1498	1867.8054	2563.3	1683.9
920.2893	1869.4528	2562.1	1681.75
920.4288	1871.0994	2559.15	1679.35
920.5683	1872.7453	2553.85	1674.3
920.7077	1874.3905	2567.6	1682.35
920.8471	1876.0349	2544.8	1664.7
920.9865	1877.6786	2550.7	1668.15
921.1259	1879.3215	2540.45	1660.2
921.2653	1880.9637	2519.95	1638.55
921.4046	1882.6051	2527	1646.7
921.5439	1884.2458	2524.3	1641.75
921.6832	1885.8858	2517.6	1637.85
921.8225	1887.525	2520.6	1639.8
921.9617	1889.1634	2508.55	1630.55
922.101	1890.8011	2500.45	1621.65
922.2402	1892.4381	2503.7	1625.85
922.3794	1894.0743	2490.95	1612.2
922.5185	1895.7098	2486.05	1606.25
922.6577	1897.3446	2490.75	1612.95
922.7968	1898.9786	2478.45	1593.65
922.9359	1900.6118	2484.05	1606
923.075	1902.2443	2464.3	1582.2
923.214	1903.8761	2468	1588.55
923.3531	1905.5071	2459.45	1578.1
923.4921	1907.1374	2459.55	1578.75
923.6311	1908.7669	2459	1579.3
923.77	1910.3957	2455.55	1574.85
923.909	1912.0237	2435.3	1557.55
924.0479	1913.651	2446.75	1565.8
924.1868	1915.2776	2440.6	1563.45
924.3257	1916.9034	2424.6	1546.2
924.4646	1918.5285	2427.1	1548.8
924.6034	1920.1528	2427.5	1547.2
924.7422	1921.7764	2413.95	1535.85
924.881	1923.3992	2415.6	1536.2
925.0198	1925.0213	2397.15	1517.15
925.1586	1926.6427	2377.9	1498.35
925.2973	1928.2633	2492.15	1509.8
925.436	1929.8832	2397	1515.7
925.5747	1931.5023	2378	1498.35
925.7134	1933.1207	2384.75	1504.1
925.852	1934.7383	2361.9	1482.15
925.9906	1936.3552	2376.8	1497.7
926.1292	1937.9714	2360.2	1480.6
926.2678	1939.5868	2368.75	1486.95
926.4064	1941.2015	2360	1481.1
926.5449	1942.8154	2340.35	1460.7
926.6834	1944.4286	2331.05	1449.85
926.8219	1946.041	2355.7	1451
926.9604	1947.6528	2331.25	1446.5
927.0988	1949.2637	2325.8	1448
927.2372	1950.8739	2313.7	1430.15
927.3756	1952.4834	2305.05	1423
927.514	1954.0921	2304.65	1424.8
927.6523	1955.7001	2292.35	1407.65
927.7907	1957.3074	2295.7	1418.05
927.929	1958.9139	2288.7	1407.75
928.0673	1960.5197	2287.3	1406.1
928.2055	1962.1247	2276.5	1397.25
928.3438	1963.729	2267.65	1390.55
928.482	1965.3325	2288.6	1383.65
928.6202	1966.9353	2261.3	1381.8
928.7584	1968.5374	2262.9	1382.5
928.8965	1970.1387	2254.95	1373.25
929.0346	1971.7393	2256.9	1377
929.1727	1973.3392	2235.25	1355.45
929.3108	1974.9383	2234.25	1354.65
929.4489	1976.5366	2225.85	1346.8
929.5869	1978.1342	2242.7	1362.3
929.7249	1979.7311	2235.35	1354.65
929.8629	1981.3273	2226.85	1346.45
930.0009	1982.9227	2226.65	1344.45
930.1388	1984.5173	2216.9	1338.2
930.2767	1986.1112	2212.1	1331.75
930.4146	1987.7044	2209.25	1330.65
930.5525	1989.2968	2202.6	1322.7
930.6904	1990.8885	2205.4	1322.45
930.8282	1992.4795	2199.15	1317.85
930.966	1994.0697	2203.65	1323.25
931.1038	1995.6592	2179.65	1300
931.2415	1997.2479	2191.35	1310
931.3793	1998.8359	2190.55	1310.6
931.517	2000.4232	2182.35	1302.35
931.6547	2002.0097	2174.4	1296.75
931.7923	2003.5955	2176.8	1297.1
931.93	2005.1805	2169.5	1286.85
932.0676	2006.7648	2156.25	1277.15
932.2052	2008.3484	2167.55	1284.4
932.3427	2009.9312	2170.5	1288.15
932.4803	2011.5133	2153.45	1273.4
932.6178	2013.0946	2144.4	1264.25
932.7553	2014.6752	2152.35	1273.25
932.8928	2016.2551	2149.35	1270.6
933.0302	2017.8342	2137.4	1258.2
933.1676	2019.4126	2140.15	1261.05
933.305	2020.9902	2133.85	1253.7
933.4424	2022.5672	2141.25	1259.15
933.5798	2024.1433	2131.95	1245.55
933.7171	2025.7188	2120.25	1242.6
933.8544	2027.2935	2121.2	1240.65
933.9917	2028.8674	2113.45	1233.15
934.129	2030.4406	2112.4	1233.9
934.2662	2032.0131	2110.75	1230.7
934.4034	2033.5849	2109.55	1226.8
934.5406	2035.1559	2098.95	1221.25
934.6778	2036.7261	2096.5	1216.35
934.8149	2038.2957	2099.15	1219.2
934.952	2039.8645	2095.65	1216.1
935.0891	2041.4325	2098	1216.85
935.2262	2042.9998	2087.3	1206.8
935.3632	2044.5664	2093.6	1210.2
935.5002	2046.1323	2081.45	1202.7
935.6372	2047.6974	2082.7	1202.25
935.7742	2049.2617	2070.1	1190.55
935.9111	2050.8254	2086.35	1183.75
936.048	2052.3883	2079.15	1197.35
936.1849	2053.9504	2055	1172.8
936.3218	2055.5118	2056.8	1174.85
936.4586	2057.0725	2064.6	1180.05
936.5955	2058.6325	2052.45	1171.4
936.7323	2060.1917	2052.5	1171.35
936.869	2061.7502	2053	1169.65
937.0058	2063.3079	2052.85	1172
937.1425	2064.8649	2050.1	1165.3
937.2792	2066.4212	2036.75	1156.55
937.4159	2067.9767	2036.1	1156.75
937.5525	2069.5315	2023.7	1143.2
937.6891	2071.0856	2022.2	1140.4
937.8257	2072.6389	2024.4	1143.9
937.9623	2074.1915	2014.75	1135.15
938.0989	2075.7433	2009.85	1125.6
938.2354	2077.2945	2011.4	1130.25
938.3719	2078.8448	1993.55	1110.4
938.5084	2080.3945	1991.15	1109.7
938.6448	2081.9434	1992.55	1108.6
938.7812	2083.4916	1990.95	1106.2
938.9176	2085.039	1993.7	1107.95
939.054	2086.5857	1978.1	1094.4
939.1903	2088.1317	1976.4	1090.45
939.3267	2089.677	1973.6	1090.6
939.463	2091.2215	1977.8	1093.7
939.5992	2092.7652	1964.4	1081.1
939.7355	2094.3083	1974.05	1092.4
939.8717	2095.8506	1972.55	1091.55
940.0079	2097.3921	1970.5	1090.75
940.1441	2098.933	1965	1085.15
940.2802	2100.4731	1972.45	1092.55
940.4163	2102.0124	1973.65	1087.1
940.5524	2103.5511	1964.55	1084.1
940.6885	2105.089	1963.8	1082.85
940.8245	2106.6261	1953.85	1071.55
940.9606	2108.1626	1956.25	1070.45
941.0965	2109.6983	1967.4	1056.95
941.2325	2111.2332	1951.4	1064.7
941.3684	2112.7675	1943	1056.3
941.5044	2114.301	1943.6	1059.6
941.6403	2115.8337	1938.2	1055.45
941.7761	2117.3657	1933.15	1052.2
941.912	2118.897	1933.15	1050.05
942.0478	2120.4276	1930.5	1044.05
942.1835	2121.9575	1923.75	1042
942.3193	2123.4866	1933.15	1039.1
942.455	2125.0149	1920.25	1036.7
942.5907	2126.5426	1911.6	1030.15
942.7264	2128.0695	1915.6	1030.8
942.8621	2129.5956	1914.25	1034.5
942.9977	2131.1211	1920.05	1034.5
943.1333	2132.6458	1902.7	1023.7
943.2689	2134.1698	1904.45	1024
943.4044	2135.693	1906.25	1023.55
943.54	2137.2155	1905.4	1022.65
943.6755	2138.7373	1910	1030.1
943.8109	2140.2584	1900.65	1021.5
943.9464	2141.7787	1894.7	1007.3
944.0818	2143.2983	1879.05	999.05
944.2172	2144.8171	1887.45	1008.05
944.3526	2146.3353	1888.55	1006.3
944.4879	2147.8527	1878.35	998.9
944.6232	2149.3693	1874.75	995.3
944.7585	2150.8853	1875.95	996.05
944.8938	2152.4005	1861.5	980.65
945.029	2153.9149	1875	993.45
945.1642	2155.4287	1865.2	987.55
945.2994	2156.9417	1870.4	989.95
945.4346	2158.454	1867.5	984.55
945.5697	2159.9655	1862.7	983.25
945.7048	2161.4764	1852.3	972.55
945.8399	2162.9865	1848.5	967.1
945.9749	2164.4958	1854.2	972.5
946.1099	2166.0045	1847.35	964.65
946.2449	2167.5124	1844.55	965.1
946.3799	2169.0195	1849.75	969.55
946.5148	2170.526	1855.55	973.85
946.6498	2172.0317	1850.25	968.65
946.7846	2173.5367	1843.7	960.5
946.9195	2175.0409	1838.35	959.2
947.0543	2176.5445	1837.65	959.45
947.1891	2178.0473	1830.7	950.15
947.3239	2179.5494	1824.95	942.05
947.4587	2181.0507	1831.35	951.65
947.5934	2182.5513	1823.9	943.55
947.7281	2184.0512	1822.15	941.4
947.8628	2185.5504	1824.2	942.45
947.9974	2187.0488	1818.4	939.05
948.132	2188.5465	1818.3	939.35
948.2666	2190.0435	1810.55	930.6
948.4012	2191.5397	1809.2	931.05
948.5357	2193.0353	1805.8	927.95
948.6702	2194.5301	1807.7	925.35
948.8047	2196.0241	1793.4	913.3
948.9392	2197.5175	1785.1	904
949.0736	2199.0101	1796.3	912.8
949.208	2200.502	1787.35	909.05
949.3424	2201.9931	1785.55	904.95
949.4767	2203.4835	1792.9	909.85
949.611	2204.9733	1785.6	897.8
949.7453	2206.4622	1780.2	900.35
949.8796	2207.9505	1778.2	894.05
950.0138	2209.438	1764.6	886.5
950.148	2210.9248	1771.1	889.1
950.2822	2212.4109	1760.85	882.35
950.4164	2213.8962	1761.1	877.05
950.5505	2215.3809	1760.15	878.15
950.6846	2216.8648	1754.55	874.6
950.8186	2218.3479	1753.7	869.95
950.9527	2219.8304	1749.75	867.25
951.0867	2221.3121	1745.6	864.1
951.2207	2222.7931	1747.15	867.7
951.3546	2224.2733	1749.95	870
951.4886	2225.7529	1741.9	859.65
951.6225	2227.2317	1732.65	849.25
951.7563	2228.7098	1734.2	855.4
951.8902	2230.1872	1742.2	860.4
952.024	2231.6638	1733.95	853.75
952.1578	2233.1397	1726.95	841.05
952.2916	2234.6149	1730.65	853.05
952.4253	2236.0894	1728.9	847.95
952.559	2237.5632	1720.4	837.85
952.6927	2239.0362	1707.95	826.7
952.8263	2240.5085	1711.6	830.65
952.9599	2241.9801	1712.45	832.45
953.0935	2243.4509	1706.95	827.8
953.2271	2244.921	1706.4	826.5
953.3606	2246.3904	1704.75	822.3
953.4941	2247.8591	1693.75	814.45
953.6276	2249.3271	1698.85	818.8
953.7611	2250.7943	1695.95	814.8
953.8945	2252.2608	1692.2	812.85
954.0279	2253.7266	1687.25	808.65
954.1612	2255.1917	1688	809.15
954.2946	2256.656	1685.25	803.5
954.4279	2258.1197	1683.5	804.35
954.5612	2259.5826	1676.9	794.05
954.6944	2261.0447	1682.45	801.45
954.8276	2262.5062	1673.3	790.8
954.9608	2263.9669	1673.9	792.95
955.094	2265.4269	1679	800.1
955.2271	2266.8862	1669.8	790.65
955.3602	2268.3448	1669.4	788.6
955.4933	2269.8026	1674.05	794.3
955.6264	2271.2598	1661.1	780.2
955.7594	2272.7162	1663.5	785.3
955.8924	2274.1719	1660.7	780.15
956.0253	2275.6268	1659.1	777.7
956.1583	2277.0811	1658.2	777.65
956.2912	2278.5346	1662.85	784.55
956.4241	2279.9874	1659.5	777.35
956.5569	2281.4395	1649.35	769
956.6897	2282.8908	1656.05	770
956.8225	2284.3414	1649.2	768.15
956.9553	2285.7914	1653.95	773.35
957.088	2287.2406	1644.4	763.65
957.2207	2288.689	1646.1	765.55
957.3534	2290.1368	1642.5	762
957.486	2291.5838	1648.15	767.25
957.6186	2293.0302	1637.7	757.65
957.7512	2294.4758	1634.1	753.15
957.8838	2295.9206	1634.75	752.3
958.0163	2297.3648	1638.45	756.35
958.1488	2298.8082	1625.15	744.65
958.2813	2300.251	1630.3	751.65
958.4137	2301.693	1618.8	736.4
958.5461	2303.1343	1629.35	748.85
958.6785	2304.5748	1624.7	742
958.8108	2306.0147	1619.15	738.3
958.9432	2307.4538	1611.3	728.6
959.0754	2308.8922	1616.6	737.6
959.2077	2310.3299	1604.6	722.95
959.3399	2311.7669	1609.2	728.75
959.4721	2313.2031	1606.05	725.55
959.6043	2314.6387	1602.45	722
959.7365	2316.0735	1604.1	723.15
959.8686	2317.5076	1600.95	721.15
960.0006	2318.941	1597.95	716.7
960.1327	2320.3737	1598.6	718.4
960.2647	2321.8056	1599.55	718.4
960.3967	2323.2369	1594.2	713.6
960.5287	2324.6674	1598.1	716
960.6606	2326.0972	1587.9	705.7
960.7925	2327.5263	1589.75	710.5
960.9244	2328.9547	1584.55	702.4
961.0562	2330.3823	1581.8	700
961.1881	2331.8092	1578.4	693.55
961.3198	2333.2355	1578.2	699.1
961.4516	2334.661	1585.3	706.2
961.5833	2336.0858	1581	699.3
961.715	2337.5098	1579.4	698.75
961.8467	2338.9332	1573.95	692.3
961.9783	2340.3558	1577.35	694.35
962.1099	2341.7778	1573.1	693.2
962.2415	2343.199	1566.65	684.8
962.373	2344.6195	1567.7	684.9
962.5045	2346.0393	1569.75	688.85
962.636	2347.4583	1559.2	677.35
962.7675	2348.8767	1569.9	689.05
962.8989	2350.2943	1564.35	684.45
963.0303	2351.7113	1566.15	682.75
963.1617	2353.1275	1562.85	682.85
963.293	2354.543	1583.3	680.85
963.4243	2355.9578	1555.8	675.2
963.5556	2357.3718	1559.55	678.9
963.6868	2358.7852	1560.25	678.3
963.818	2360.1978	1553.25	672.6
963.9492	2361.6098	1558.15	679.35
964.0803	2363.021	1552.55	668.6
964.2114	2364.4315	1550.2	670.1
964.3425	2365.8413	1553.45	670.3
964.4736	2367.2504	1541.5	662.2
964.6046	2368.6587	1540.55	662.1
964.7356	2370.0664	1529.6	648.1
964.8666	2371.4733	1540.3	659.4
964.9975	2372.8795	1532.15	654.45
965.1284	2374.285	1529.95	648.55
965.2593	2375.6899	1525.1	644.65
965.3901	2377.0939	1526.9	647.7
965.5209	2378.4973	1523.5	643.45
965.6517	2379.9	1525.15	644.35
965.7825	2381.3019	1510.3	631.95
965.9132	2382.7032	1513.85	634.75
966.0439	2384.1037	1508.6	630.35
966.1745	2385.5035	1518.05	636.8
966.3051	2386.9027	1521.45	644.25
966.4357	2388.3011	1510.5	626.55
966.5663	2389.6987	1514.4	634.8
966.6968	2391.0957	1506.95	627.55
966.8273	2392.492	1500.6	620.5
966.9578	2393.8876	1496.8	616.45
967.0882	2395.2824	1498.35	620.3
967.2186	2396.6765	1482.75	605.5
967.349	2398.07	1496.4	618.25
967.4793	2399.4627	1490.6	610.05
967.6097	2400.8547	1493.2	614.1
967.7399	2402.246	1491.95	606.2
967.8702	2403.6366	1480.65	602.55
968.0004	2405.0265	1478.35	600.6
968.1306	2406.4156	1489.85	607.3
968.2607	2407.8041	1488.55	605.45
968.3909	2409.1918	1480.55	600.6
968.521	2410.5789	1476.8	597.5
968.651	2411.9652	1477.85	594.9
968.781	2413.3508	1477.05	597.75
968.911	2414.7358	1479.55	599.2
969.041	2416.12	1475.1	597.85
969.1709	2417.5035	1472.1	591.85
969.3008	2418.8863	1469.7	590.4
969.4307	2420.2684	1467.7	588.75
969.5606	2421.6497	1459.2	578.9
969.6904	2423.0304	1455.95	578.55
969.8201	2424.4104	1464.9	583.2
969.9499	2425.7896	1463.05	580.55
970.0796	2427.1682	1461.45	581.9
970.2093	2428.546	1459.5	578.65
970.3389	2429.9232	1460.6	580.1
970.4685	2431.2996	1459.95	581.8
970.5981	2432.6753	1454.35	575.85
970.7277	2434.0503	1453.8	575.7
970.8572	2435.4246	1449.45	571.1
970.9867	2436.7982	1445.75	565.1
971.1161	2438.1711	1450.25	571.65
971.2456	2439.5433	1450.15	571.45
971.375	2440.9148	1441.75	556.6
971.5043	2442.2856	1438.75	561.1
971.6336	2443.6557	1440.45	558.05
971.7629	2445.025	1435.45	555.7
971.8922	2446.3937	1435	554.7
972.0214	2447.7617	1430.15	550.2
972.1506	2449.1289	1436.5	557.2
972.2798	2450.4955	1438.1	555.65
972.4089	2451.8613	1434.4	555.8
972.538	2453.2265	1429.8	550.25
972.6671	2454.5909	1432.35	551.4
972.7961	2455.9546	1431.5	551.7
972.9251	2457.3177	1426.4	546.05
973.0541	2458.68	1431.45	549.45
973.1831	2460.0416	1428.7	549.35
973.312	2461.4025	1428.95	546.7
973.4408	2462.7627	1444.4	551.65
973.5697	2464.1222	1419.25	542.25
973.6985	2465.4811	1426.75	543.6
973.8273	2466.8392	1417.9	538.55
973.956	2468.1966	1419.95	540.5
974.0847	2469.5533	1423.8	542.6
974.2134	2470.9093	1425.45	545.15
974.3421	2472.2645	1422.5	542
974.4707	2473.6191	1424.55	543.85
974.5993	2474.973	1421	542.15
974.7278	2476.3262	1418.65	538.1
974.8563	2477.6787	1411.15	530.7
974.9848	2479.0305	1415.3	537.05
975.1132	2480.3816	1411.3	528.8
975.2417	2481.7319	1409.1	528.9
975.37	2483.0816	1412.35	531.85
975.4984	2484.4306	1409.9	529.3
975.6267	2485.7789	1404.05	525.7
975.755	2487.1264	1405.95	525.3
975.8833	2488.4733	1400.45	520.95
976.0115	2489.8195	1420.85	524.05
976.1397	2491.165	1406.4	521.05
976.2678	2492.5097	1398.1	516.95
976.3959	2493.8538	1396.45	513.95
976.524	2495.1972	1388.85	507.8
976.6521	2496.5398	1393.95	513.05
976.7801	2497.8818	1400.55	520.15
976.9081	2499.2231	1384.75	505.6
977.036	2500.5637	1394.6	514.15
977.164	2501.9035	1380.05	499.55
977.2918	2503.2427	1389.8	506.1
977.4197	2504.5812	1385.75	506.4
977.5475	2505.919	1391	508.45
977.6753	2507.256	1384.15	505.2
977.8031	2508.5924	1378	497.85
977.9308	2509.9281	1392.95	508.25
978.0585	2511.2631	1377.5	497
978.1861	2512.5974	1380.2	499.6
978.3137	2513.9309	1375.3	494.25
978.4413	2515.2638	1405.35	494.3
978.5689	2516.596	1377.4	500.15
978.6964	2517.9275	1378.05	496.7
978.8239	2519.2583	1368.8	488.15
978.9513	2520.5884	1374.25	493.25
979.0788	2521.9178	1372.8	492
979.2062	2523.2465	1363.25	482.45
979.3335	2524.5745	1363.3	482.7
979.4608	2525.9018	1359.6	478.1
979.5881	2527.2284	1363.4	485.65
979.7154	2528.5543	1365.65	486.3
979.8426	2529.8796	1355.85	476.15
979.9698	2531.2041	1361.05	481.9
980.0969	2532.5279	1368.55	486.85
980.224	2533.851	1362.65	484
980.3511	2535.1735	1358.35	479.45
980.4781	2536.4952	1362.25	482.55
980.6052	2537.8163	1347.55	466.45
980.7321	2539.1366	1350.65	471.8
980.8591	2540.4562	1354.3	472.05
980.986	2541.7752	1354.5	475.5
981.1129	2543.0935	1355.35	476
981.2397	2544.411	1353.3	472.55
981.3665	2545.7279	1346.8	467.55
981.4933	2547.0441	1348.95	467.85
981.62	2548.3596	1357.85	477
981.7467	2549.6744	1347.35	466.55
981.8734	2550.9885	1350.05	467.6
982.0001	2552.3019	1342.5	463.4
982.1267	2553.6146	1348.85	468.95
982.2532	2554.9266	1346.65	467.55
982.3798	2556.2379	1336.8	456.7
982.5063	2557.5485	1335.6	456.1
982.6327	2558.8585	1341.2	454.7
982.7592	2560.1677	1346.15	462.25
982.8856	2561.4762	1337.1	455.85
983.0119	2562.7841	1340.4	457.8
983.1383	2564.0913	1334.55	454.9
983.2646	2565.3977	1335.4	455
983.3908	2566.7035	1327.9	445.4
983.517	2568.0086	1334.45	454.9
983.6432	2569.313	1334.45	453.85
983.7694	2570.6167	1332.15	447.9
983.8955	2571.9197	1330.1	451
984.0216	2573.222	1331.45	449.7
984.1476	2574.5236	1332.45	450.65
984.2737	2575.8246	1335.1	451.65
984.3996	2577.1248	1335.7	451.05
984.5256	2578.4244	1332.5	453.75
984.6515	2579.7232	1330.3	451.6
984.7774	2581.0214	1360.45	450.95
984.9032	2582.3189	1325.9	445.85
985.029	2583.6157	1334.15	448.65
985.1548	2584.9118	1337.15	455.9
985.2806	2586.2072	1332	451.2
985.4063	2587.5019	1340.35	460.45
985.5319	2588.7959	1340.85	460.35
985.6576	2590.0893	1339.65	457.8
985.7832	2591.3819	1340.95	462.7
985.9087	2592.6739	1337.45	458.05
986.0343	2593.9652	1352	471.45
986.1597	2595.2557	1346.9	467.9
986.2852	2596.5456	1349	467.85
986.4106	2597.8348	1344.7	466.1
986.536	2599.1234	1342.2	462.4
986.6614	2600.4112	1347.75	468.55
986.7867	2601.6983	1357.45	474.8
986.912	2602.9848	1340	459.4
987.0372	2604.2705	1356.15	468.85
987.1624	2605.5556	1350.75	469.85
987.2876	2606.84	1345.65	466.25
987.4128	2608.1237	1347.75	465.8
987.5379	2609.4067	1351.9	471.35
987.6629	2610.689	1355.35	466.15
987.788	2611.9707	1345.2	462.75
987.913	2613.2516	1352.15	469.15
988.0379	2614.5319	1339.85	459
988.1629	2615.8115	1334.85	453.45
988.2878	2617.0903	1337	455.95
988.4126	2618.3685	1340.4	459.25
988.5375	2619.6461	1346.25	467.6
988.6622	2620.9229	1329.65	450.1
988.787	2622.199	1341.6	460.8
988.9117	2623.4745	1343.9	464.05
989.0364	2624.7493	1335	453
989.161	2626.0234	1342.65	463.85
989.2857	2627.2968	1332.7	451.9
989.4102	2628.5695	1338.4	458.1
989.5348	2629.8415	1337.4	456.2
989.6593	2631.1128	1342.35	459.35
989.7837	2632.3835	1334.8	455.35
989.9082	2633.6535	1333.3	451.9
990.0326	2634.9228	1336	456.8
990.1569	2636.1914	1337.8	457.2
990.2812	2637.4593	1328.1	445.4
990.4055	2638.7265	1337	455.7
990.5298	2639.9931	1339.65	459.45
990.654	2641.259	1333.25	453.3
990.7782	2642.5242	1333.75	452.45
990.9023	2643.7887	1333	451.55
991.0264	2645.0525	1327.9	446.9
991.1505	2646.3156	1328.75	448.15
991.2745	2647.5781	1324.3	442.95
991.3985	2648.8398	1323.7	446.15
991.5225	2650.1009	1326.25	438
991.6464	2651.3613	1316.65	435.65
991.7703	2652.6211	1321.35	440.1
991.8942	2653.8801	1325.55	446.05
992.018	2655.1385	1326.7	441.95
992.1418	2656.3961	1321.95	441.9
992.2655	2657.6531	1327	446.95
992.3892	2658.9094	1318.15	438.15
992.5129	2660.1651	1323.35	444.35
992.6366	2661.42	1325.9	445.95
992.7602	2662.6743	1328.65	445.9
992.8837	2663.9279	1331.65	450.85
993.0073	2665.1808	1331.45	450.2
993.1307	2666.433	1334.2	449.85
993.2542	2667.6846	1330.8	452.25
993.3776	2668.9354	1338.1	454.55
993.501	2670.1856	1335.9	453.75
993.6244	2671.4351	1344.3	465.7
993.7477	2672.6839	1350.05	467.6
993.8709	2673.9321	1349.6	469.1
993.9942	2675.1795	1343.65	463.65
994.1174	2676.4263	1352.75	470.95
994.2405	2677.6724	1353.2	474.5
994.3637	2678.9179	1354.3	474.8
994.4868	2680.1626	1344.3	464.8
994.6098	2681.4067	1359.1	478.25
994.7328	2682.6501	1349.3	469.25
994.8558	2683.8928	1350.85	468.35
994.9788	2685.1348	1347.1	466.95
995.1017	2686.3761	1348.75	469.1
995.2245	2687.6168	1347.75	467.75
995.3474	2688.8568	1343.25	464.05
995.4702	2690.0961	1336.4	456.9
995.5929	2691.3348	1337.8	455.55
995.7156	2692.5727	1336.45	454.2
995.8383	2693.81	1328.2	449.5
995.961	2695.0466	1328.25	450.65
996.0836	2696.2826	1332.85	451.35
996.2062	2697.5178	1338.35	452.95
996.3287	2698.7524	1326.6	447.15
996.4512	2699.9863	1332.5	450.45
996.5737	2701.2195	1331.45	452.85
996.6961	2702.452	1335.8	451.95
996.8185	2703.6839	1339.75	460.7
996.9408	2704.9151	1351.4	472.45
997.0631	2706.1456	1356.95	475.7
997.1854	2707.3755	1360.4	480.9
997.3077	2708.6046	1369.35	486.4
997.4299	2709.8331	1370.05	490.85
997.552	2711.0609	1386.95	505.95
997.6742	2712.2881	1387.8	508.45
997.7963	2713.5145	1402.3	521.2
997.9183	2714.7403	1403.75	525
998.0403	2715.9654	1421	541.15
998.1623	2717.1899	1446.8	552.65
998.2842	2718.4136	1442.3	562.15
998.4062	2719.6367	1456.1	574.75
998.528	2720.8591	1470.5	583.45
998.6498	2722.0809	1480.5	598.65
998.7716	2723.3019	1496.05	610.9
998.8934	2724.5223	1500.75	620.95
999.0151	2725.7421	1504.1	621.75
999.1368	2726.9611	1503.3	621.65
999.2584	2728.1795	1501.35	616.1
999.38	2729.3972	1502.8	623.95
999.5016	2730.6142	1491	596.6
999.6231	2731.8306	1472.35	590.3
999.7446	2733.0462	1462.7	579.75
999.8661	2734.2612	1447.8	563.6
999.9875	2735.4756	1425.2	542.4
1000.1089	2736.6892	1412.25	531
1000.2302	2737.9022	1398.9	519.3
1000.3515	2739.1145	1383.6	504.25
1000.4728	2740.3262	1378.15	490.3
1000.594	2741.5372	1354.25	474.65
1000.7152	2742.7475	1352.2	469.25
1000.8363	2743.9571	1343.5	462.35
1000.9575	2745.1661	1335.05	447.45
1001.0785	2746.3744	1330.2	450
1001.1996	2747.582	1312.4	433.1
1001.3206	2748.7889	1311.8	428.25
1001.4415	2749.9952	1301.1	419.6
1001.5625	2751.2008	1296.75	414.15
1001.6833	2752.4057	1294.9	411.1
1001.8042	2753.61	1287.55	406.45
1001.925	2754.8136	1296	412.2
1002.0458	2756.0165	1292.4	412.05
1002.1665	2757.2188	1285.85	406
1002.2872	2758.4204	1282.4	402.5
1002.4078	2759.6213	1293.45	408.25
1002.5285	2760.8215	1298.75	411.9
1002.649	2762.0211	1288.3	408.25
1002.7696	2763.22	1283.3	400.9
1002.8901	2764.4182	1286.5	403.7
1003.0106	2765.6158	1280.8	400.1
1003.131	2766.8127	1272.8	391.9
1003.2514	2768.009	1279.3	400.1
1003.3717	2769.2045	1270.65	390.35
1003.492	2770.3994	1276.05	392.3
1003.6123	2771.5936	1270.2	390.1
1003.7325	2772.7872	1268.75	389.2
1003.8527	2773.9801	1266.1	385.3
1003.9729	2775.1723	1285.55	386.8
1004.093	2776.3639	1259.1	378.5
1004.2131	2777.5548	1269.8	386.55
1004.3331	2778.745	1271.75	388.65
1004.4531	2779.9346	1271.8	392.9
1004.5731	2781.1235	1282.35	401.3
1004.693	2782.3117	1279.1	398.45
1004.8129	2783.4992	1286.75	407.85
1004.9328	2784.6861	1296.15	416.8
1005.0526	2785.8723	1298.4	417.9
1005.1723	2787.0579	1301.3	418.95
1005.2921	2788.2428	1322.85	442.7
1005.4118	2789.427	1327.35	448.85
1005.5314	2790.6106	1333.4	453.35
1005.651	2791.7935	1346.05	465.25
1005.7706	2792.9757	1355.7	476
1005.8902	2794.1573	1366.4	483.75
1006.0097	2795.3382	1390.7	509.9
1006.1291	2796.5184	1402.05	523.8
1006.2485	2797.698	1424.55	541.4
1006.3679	2798.8769	1433.6	555.6
1006.4873	2800.0551	1458.45	576.6
1006.6066	2801.2327	1481.9	599.8
1006.7258	2802.4096	1495.6	615.35
1006.8451	2803.5859	1517.95	635.55
1006.9642	2804.7615	1547.1	664.55
1007.0834	2805.9364	1571.1	690.05
1007.2025	2807.1106	1594.55	713.35
1007.3216	2808.2842	1628.05	748.75
1007.4406	2809.4572	1655.15	773
1007.5596	2810.6294	1697.9	813.85
1007.6785	2811.801	1740.05	860.7
1007.7975	2812.972	1782.65	902.25
1007.9163	2814.1423	1831.9	951.1
1008.0352	2815.3119	1873.55	991.6
1008.154	2816.4808	1920.75	1041.9
1008.2727	2817.6491	1978.1	1095.85
1008.3914	2818.8167	2024.8	1146.1
1008.5101	2819.9837	2077.75	1193.25
1008.6288	2821.15	2127.1	1247
1008.7474	2822.3157	2170.6	1289.7
1008.8659	2823.4807	2212.15	1331.45
1008.9844	2824.645	2253.45	1371.7
1009.1029	2825.8086	2291.55	1412.75
1009.2214	2826.9716	2331.5	1449.4
1009.3398	2828.134	2384.55	1505.95
1009.4581	2829.2957	2410.6	1531.55
1009.5764	2830.4567	2437.5	1559.3
1009.6947	2831.617	2461.2	1578.35
1009.813	2832.7767	2463.2	1582.05
1009.9312	2833.9358	2477.6	1600.2
1010.0493	2835.0941	2470.95	1588.75
1010.1675	2836.2519	2456.55	1576.05
1010.2855	2837.4089	2439.75	1558.1
1010.4036	2838.5653	2429.35	1547.85
1010.5216	2839.7211	2435.5	1555.9
1010.6396	2840.8761	2445.6	1563.2
1010.7575	2842.0306	2462.5	1581.05
1010.8754	2843.1843	2510.7	1632.8
1010.9932	2844.3374	2550.1	1667.6
1011.111	2845.4899	2618.35	1738.3
1011.2288	2846.6417	2694.9	1815.7
1011.3465	2847.7928	2773.5	1893
1011.4642	2848.9433	2850.85	1971.05
1011.5818	2850.0931	2932.4	2055.65
1011.6995	2851.2422	3020.4	2138.4
1011.817	2852.3907	3091.6	2211
1011.9345	2853.5385	3153.2	2270.9
1012.052	2854.6857	3233.9	2327.5
1012.1695	2855.8323	3283.1	2402.1
1012.2869	2856.9781	3319.05	2440.3
1012.4042	2858.1233	3381.25	2501.8
1012.5216	2859.2679	3427.55	2548.15
1012.6389	2860.4118	3463.55	2584.05
1012.7561	2861.555	3507.1	2620.5
1012.8733	2862.6976	3544.55	2664.15
1012.9905	2863.8395	3567.1	2686.2
1013.1076	2864.9808	3588.9	2708.55
1013.2247	2866.1214	3620.8	2743.1
1013.3417	2867.2614	3625.55	2744.65
1013.4587	2868.4007	3643.05	2762.2
1013.5757	2869.5393	3659.1	2776.8
1013.6926	2870.6773	3659.15	2777.8
1013.8095	2871.8146	3680.8	2796.1
1013.9263	2872.9513	3699.3	2816.4
1014.0431	2874.0874	3681.9	2802.85
1014.1599	2875.2227	3676.9	2796.6
1014.2766	2876.3574	3665.35	2785.35
1014.3933	2877.4915	3629.4	2750.9
1014.51	2878.6249	3609.1	2728.45
1014.6266	2879.7577	3587.35	2705.5
1014.7431	2880.8898	3583.95	2693.05
1014.8596	2882.0212	3559.45	2678.8
1014.9761	2883.152	3540.15	2660.6
1015.0925	2884.2821	3523.85	2644.2
1015.2089	2885.4116	3529.4	2651.75
1015.3253	2886.5405	3533.5	2651.8
1015.4416	2887.6686	3525.3	2644.05
1015.5579	2888.7962	3537.7	2659.85
1015.6741	2889.923	3550	2671.45
1015.7903	2891.0493	3571.8	2691.7
1015.9065	2892.1748	3576.25	2695.1
1016.0226	2893.2997	3576.95	2696.7
1016.1387	2894.424	3600.4	2720.85
1016.2547	2895.5476	3608.1	2727.5
1016.3707	2896.6706	3641.6	2760.7
1016.4866	2897.7929	3672.9	2791.65
1016.6025	2898.9145	3716.6	2836.8
1016.7184	2900.0355	3739.75	2859.6
1016.8342	2901.1559	3757.2	2873.1
1016.95	2902.2756	3790.85	2911.85
1017.0658	2903.3946	3834.35	2953.4
1017.1815	2904.513	3859.05	2974.85
1017.2971	2905.6308	3883.5	3003.4
1017.4127	2906.7479	3920.3	3039.4
1017.5283	2907.8643	3946.5	3065
1017.6439	2908.9801	3952.9	3072.65
1017.7594	2910.0953	3955.9	3078.25
1017.8748	2911.2098	3963.15	3080.3
1017.9902	2912.3236	3965.95	3076.85
1018.1056	2913.4368	3961.1	3077.3
1018.2209	2914.5494	3935.15	3054.4
1018.3362	2915.6613	3917.55	3030.25
1018.4515	2916.7725	3885.25	3001.15
1018.5667	2917.8831	3851.2	2970.35
1018.6819	2918.9931	3831.4	2948.65
1018.797	2920.1024	3802.35	2921.15
1018.9121	2921.211	3781.7	2901.6
1019.0271	2922.319	3767.75	2885.45
1019.1421	2923.4264	3737.2	2857.9
1019.2571	2924.5331	3720.45	2841.45
1019.372	2925.6391	3718.1	2838.8
1019.4869	2926.7445	3704.5	2824.05
1019.6017	2927.8493	3693.5	2813.7
1019.7165	2928.9534	3686.15	2804.65
1019.8313	2930.0569	3678.8	2795.3
1019.946	2931.1597	3683.65	2801
1020.0606	2932.2619	3660.7	2779.05
1020.1753	2933.3634	3649.75	2768.85
1020.2899	2934.4643	3645.3	2761.45
1020.4044	2935.5645	3626.35	2738
1020.5189	2936.6641	3575.95	2693
1020.6334	2937.763	3559.45	2681.05
1020.7478	2938.8613	3491.65	2609.9
1020.8622	2939.959	3442.2	2558.75
1020.9765	2941.056	3361.25	2481.05
1021.0908	2942.1523	3267.5	2387.9
1021.2051	2943.248	3182.8	2301.3
1021.3193	2944.3431	3099.1	2219.85
1021.4334	2945.4375	2984.75	2105.8
1021.5476	2946.5313	2876.9	1996.45
1021.6617	2947.6244	2774.75	1892.9
1021.7757	2948.7169	2688.4	1807.7
1021.8897	2949.8087	2589.7	1709.65
1022.0037	2950.8999	2486.8	1604.55
1022.1176	2951.9904	2401.6	1523.55
1022.2315	2953.0803	2327.6	1446.35
1022.3453	2954.1696	2261.35	1380.25
1022.4591	2955.2582	2207.55	1327.2
1022.5728	2956.3462	2168.1	1287.25
1022.6865	2957.4335	2124.2	1242.1
1022.8002	2958.5202	2099	1218.2
1022.9138	2959.6062	2049.45	1170.1
1023.0274	2960.6916	2032.8	1151.95
1023.141	2961.7764	2020.55	1140.75
1023.2545	2962.8605	1996.7	1116.75
1023.3679	2963.9439	1992.6	1113.1
1023.4813	2965.0267	1977.15	1097.35
1023.5947	2966.1089	1990.4	1087.1
1023.708	2967.1905	1969.2	1088.65
1023.8213	2968.2714	1968.55	1088.05
1023.9346	2969.3516	1961.3	1080.9
1024.0478	2970.4312	1970.85	1082.35
1024.1609	2971.5102	1969.35	1090.1
1024.274	2972.5885	1965.35	1086.3
1024.3871	2973.6662	1966.5	1082.85
1024.5002	2974.7432	1949.95	1070.4
1024.6132	2975.8196	1954.6	1073.55
1024.7261	2976.8954	1939.85	1062
1024.839	2977.9705	1933	1050.85
1024.9519	2979.045	1919.65	1040
1025.0647	2980.1188	1906.45	1025.85
1025.1775	2981.192	1877.2	999.4
1025.2902	2982.2645	1859.9	978.1
1025.4029	2983.3364	1846.1	965.95
1025.5156	2984.4077	1809.35	928.9
1025.6282	2985.4783	1774.75	889.25
1025.7407	2986.5483	1745	864.15
1025.8532	2987.6177	1707.4	829.8
1025.9657	2988.6864	1676.5	795.85
1026.0782	2989.7545	1647.7	766.85
1026.1906	2990.8219	1615.2	733.1
1026.3029	2991.8887	1582.2	700
1026.4152	2992.9548	1545.85	665.5
1026.5275	2994.0204	1517.8	637.35
1026.6397	2995.0852	1490.65	610.4
1026.7519	2996.1495	1459.9	579.3
1026.864	2997.2131	1444.3	565.25
1026.9761	2998.276	1426.5	546.2
1027.0882	2999.3383	1404.05	523.6
1027.2002	3000.4	1388.15	506.15
1027.3122	3001.4611	1371.45	490.4
1027.4241	3002.5215	1357.1	477.4
1027.536	3003.5812	1343.3	463.5
1027.6478	3004.6404	1327.1	447.75
1027.7596	3005.6989	1327.2	446.2
1027.8714	3006.7567	1310.6	429.45
1027.9831	3007.8139	1327.1	428.5
1028.0947	3008.8705	1302.4	421.85
1028.2064	3009.9264	1298.85	416.25
1028.3179	3010.9818	1292.4	411.8
1028.4295	3012.0364	1290.5	410.8
1028.541	3013.0905	1279	399.9
1028.6524	3014.1439	1286.6	406.45
1028.7638	3015.1966	1282.55	403.15
1028.8752	3016.2487	1289.8	410.75
1028.9865	3017.3002	1287.7	405.25
1029.0978	3018.3511	1280.15	402.75
1029.209	3019.4013	1281.45	400.85
1029.3202	3020.4509	1283.75	402.7
1029.4314	3021.4998	1282.5	403.1
1029.5425	3022.5481	1286.95	407.5
1029.6535	3023.5958	1283.55	402.4
1029.7645	3024.6428	1291.6	411.8
1029.8755	3025.6892	1291.3	411.9
1029.9864	3026.735	1296.7	417
1030.0973	3027.7802	1294.05	412.85
1030.2082	3028.8247	1304.2	425.2
1030.319	3029.8685	1300.95	420.1
1030.4297	3030.9118	1308.4	427.55
1030.5404	3031.9544	1314.2	433.6
1030.6511	3032.9963	1325.15	443.85
1030.7617	3034.0376	1330.65	448.85
1030.8723	3035.0783	1324.9	442.85
1030.9829	3036.1184	1330	449
1031.0934	3037.1578	1336.15	458.1
1031.2038	3038.1966	1330.2	449.35
1031.3142	3039.2348	1338.65	459.9
1031.4246	3040.2723	1356.4	467.8
1031.5349	3041.3092	1340.65	461.3
1031.6452	3042.3455	1335.65	453.1
1031.7554	3043.3811	1334.95	453.4
1031.8656	3044.4161	1325.15	442.55
1031.9758	3045.4505	1318.6	439.8
1032.0859	3046.4842	1316.55	436.7
1032.1959	3047.5173	1314.7	435.05
1032.3059	3048.5498	1298.55	418.7
1032.4159	3049.5816	1303.9	422.65
1032.5258	3050.6128	1291.8	410.05
1032.6357	3051.6434	1284.4	403.8
1032.7455	3052.6734	1272.7	391
1032.8553	3053.7027	1273.55	393.1
1032.9651	3054.7314	1263.4	383.7
1033.0748	3055.7594	1261.05	381.5
1033.1845	3056.7868	1258.8	377.9
1033.2941	3057.8136	1251.4	372.45
1033.4037	3058.8398	1244.95	366.5
1033.5132	3059.8653	1239.95	360.45
1033.6227	3060.8902	1235.6	355.9
1033.7321	3061.9145	1230.95	351.45
1033.8415	3062.9381	1221.45	341.85
1033.9509	3063.9612	1229.4	334.7
1034.0602	3064.9835	1209.65	330.6
1034.1694	3066.0053	1207.45	325.4
1034.2787	3067.0264	1196.5	316.25
1034.3878	3068.0469	1193.85	311.75
1034.497	3069.0668	1188.2	303.35
1034.6061	3070.086	1172.75	293.5
1034.7151	3071.1046	1166.35	283.75
1034.8241	3072.1226	1160.9	278.45
1034.9331	3073.1399	1147.15	269.8
1035.042	3074.1567	1137.75	256.25
1035.1508	3075.1727	1135.35	253.4
1035.2597	3076.1882	1127.1	246.9
1035.3684	3077.203	1111.1	230.65
1035.4772	3078.2173	1110.05	229
1035.5859	3079.2308	1101.75	218.8
1035.6945	3080.2438	1094.8	214.1
1035.8031	3081.2561	1084.65	205.75
1035.9117	3082.2678	1077.2	198.15
1036.0202	3083.2789	1065.75	186.15
1036.1286	3084.2893	1063.55	184.85
1036.2371	3085.2991	1058.3	179.15
1036.3454	3086.3083	1059.6	177
1036.4538	3087.3169	1049.75	168.55
1036.562	3088.3248	1043.15	160.85
1036.6703	3089.3321	1041.4	160.05
1036.7785	3090.3388	1038.3	158.55
1036.8866	3091.3449	1028.45	146.25
1036.9948	3092.3503	1027.35	145.45
1037.1028	3093.3551	1021.5	143.05
1037.2108	3094.3593	1020.35	141.25
1037.3188	3095.3629	1014.35	135.2
1037.4267	3096.3658	1017.3	136.4
1037.5346	3097.3681	1010.95	131.85
1037.6425	3098.3698	1019.35	136.15
1037.7503	3099.3708	1021.15	133.05
1037.858	3100.3713	1005.5	126.4
1037.9657	3101.3711	1003.65	122.6
1038.0734	3102.3702	1140.6	120.85
1038.181	3103.3688	1004.3	124.8
1038.2886	3104.3667	1000.1	120.6
1038.3961	3105.364	995.4	115.8
1038.5036	3106.3607	999.45	120.25
1038.611	3107.3568	994.75	113.85
1038.7184	3108.3522	998.1	121.45
1038.8257	3109.347	994.9	114.8
1038.933	3110.3412	997.5	112.9
1039.0403	3111.3348	989.55	110.95
1039.1475	3112.3277	992.4	111.75
1039.2547	3113.32	985.95	108.35
1039.3618	3114.3117	985.1	105.8
1039.4689	3115.3028	983.75	105.15
1039.5759	3116.2932	988.9	108.2
1039.6829	3117.2831	989.5	102.4
1039.7898	3118.2723	982.25	104.95
1039.8967	3119.2608	980.25	99.9
1040.0035	3120.2488	981.3	100.7
1040.1103	3121.2361	978.35	97.4
1040.2171	3122.2229	978.65	98.35
1040.3238	3123.209	977.7	97.85
1040.4305	3124.1944	977.45	99.35
1040.5371	3125.1793	980	98.9
1040.6437	3126.1635	970.75	92.15
1040.7502	3127.1471	973.95	95.05
1040.8567	3128.1301	974.8	94.65
1040.9631	3129.1125	969.85	92.25
1041.0695	3130.0942	971.75	93.4
1041.1759	3131.0753	978.3	90.1
1041.2822	3132.0558	971.1	86.45
1041.3884	3133.0357	966.55	87.5
1041.4946	3134.015	970.35	89.5
1041.6008	3134.9936	966.75	84.75
1041.7069	3135.9716	985.9	85
1041.813	3136.949	962.3	83.2
1041.919	3137.9258	983.15	84.35
1042.025	3138.902	967.15	80.9
1042.1309	3139.8775	961.8	81.95
1042.2368	3140.8524	959.45	78.9
1042.3427	3141.8267	960.85	79.7
1042.4485	3142.8004	958.95	78.05
1042.5542	3143.7735	966.6	81
1042.6599	3144.7459	960	78.45
1042.7656	3145.7178	954.95	74.95
1042.8712	3146.689	955.4	76.1
1042.9768	3147.6596	956.2	76.4
1043.0823	3148.6295	958.3	76.35
1043.1878	3149.5989	954.4	76.95
1043.2932	3150.5676	955.25	78.25
1043.3986	3151.5357	949.45	70.8
1043.5039	3152.5032	951.9	74.35
1043.6092	3153.4701	949.9	70.5
1043.7145	3154.4364	950.45	67.3
1043.8197	3155.402	949.6	70.9
1043.9248	3156.367	949.95	68.45
1044.03	3157.3315	994.05	70.3
1044.135	3158.2952	947.4	66.5
1044.24	3159.2584	945.45	65.65
1044.345	3160.221	945.25	66.55
1044.4499	3161.1829	945.8	64.7
1044.5548	3162.1442	944.95	64.45
1044.6596	3163.105	943.9	65
1044.7644	3164.065	946.55	66.1
1044.8692	3165.0245	946	63.4
1044.9739	3165.9834	938.35	60.65
1045.0785	3166.9416	940.9	63.25
1045.1831	3167.8993	938.85	57.25
1045.2877	3168.8563	941.65	61.6
1045.3922	3169.8127	941.7	60.85
1045.4966	3170.7684	941.1	59.3
1045.6011	3171.7236	945.95	64.7
1045.7054	3172.6782	942.55	63.55
1045.8098	3173.6321	939.2	60
1045.914	3174.5854	940.9	55.3
1046.0183	3175.5381	937.95	59.25
1046.1224	3176.4902	937.6	58.85
1046.2266	3177.4417	936.3	56.8
1046.3307	3178.3926	935.4	57.05
1046.4347	3179.3428	937.9	59.9
1046.5387	3180.2924	934.55	56.85
1046.6427	3181.2415	935.4	55.7
1046.7466	3182.1899	934.9	53.2
1046.8504	3183.1377	935.35	54.95
1046.9542	3184.0848	937.05	54.4
1047.058	3185.0314	934.05	55.4
1047.1617	3185.9773	936	56.05
1047.2654	3186.9227	935.25	54.75
1047.369	3187.8674	933.85	55.3
1047.4726	3188.8115	937.85	53.45
1047.5761	3189.755	934.9	55.55
1047.6796	3190.6979	934.4	53.6
1047.783	3191.6402	933.2	56.35
1047.8864	3192.5818	932.7	54
1047.9898	3193.5229	952.55	52.95
1048.0931	3194.4633	933.6	55.05
1048.1963	3195.4031	932.6	51.55
1048.2995	3196.3423	932.4	53.15
1048.4027	3197.2809	929.5	49.7
1048.5058	3198.2189	929.4	51.7
1048.6089	3199.1563	949.25	52
1048.7119	3200.0931	929.95	51.65
1048.8148	3201.0292	929.15	51.1
1048.9178	3201.9648	928.65	49.85
1049.0206	3202.8997	931.75	48.95
1049.1235	3203.834	927.95	50.55
1049.2262	3204.7677	927.55	48.1
1049.329	3205.7008	929.15	48
1049.4317	3206.6333	926	47.3
1049.5343	3207.5652	929.3	48.05
1049.6369	3208.4964	923.45	43.25
1049.7394	3209.4271	925.3	45.8
1049.8419	3210.3571	927.3	47.3
1049.9444	3211.2865	925.35	44.2
1050.0468	3212.2154	927.35	48.3
1050.1491	3213.1436	930.05	47.05
1050.2514	3214.0712	932.25	47.95
1050.3537	3214.9982	924.75	44.9
1050.4559	3215.9246	924.7	47.75
1050.5581	3216.8503	923.95	44.65
1050.6602	3217.7755	925.85	46.7
1050.7623	3218.7001	924.55	45.2
1050.8643	3219.624	926.7	46.8
1050.9663	3220.5473	923.2	42.8
1051.0682	3221.4701	924.95	46.8
1051.1701	3222.3922	929.2	48.3
1051.2719	3223.3137	925	45.2
1051.3737	3224.2346	925.5	44.7
1051.4754	3225.1549	922.3	42.7
1051.5771	3226.0746	923.7	45.75
1051.6788	3226.9937	923.85	43.25
1051.7804	3227.9121	918.1	40.1
1051.8819	3228.83	921.55	41.35
1051.9834	3229.7473	922.9	45.6
1052.0849	3230.6639	922.45	42.35
1052.1863	3231.5799	922.95	42.75
1052.2876	3232.4954	920.65	39.35
1052.3889	3233.4102	924.3	46
1052.4902	3234.3244	919.4	39.55
1052.5914	3235.238	918	39.55
1052.6926	3236.151	945.75	41.5
1052.7937	3237.0634	917.8	38.3
1052.8948	3237.9752	919.95	40.6
1052.9958	3238.8864	920.6	39.8
1053.0968	3239.797	919.05	40.1
1053.1977	3240.7069	921.65	42.6
1053.2986	3241.6163	918.3	39.6
1053.3994	3242.5251	918.55	39.95
1053.5002	3243.4332	914.3	36.7
1053.6009	3244.3408	918.55	38.65
1053.7016	3245.2477	917.85	38.1
1053.8022	3246.154	917.55	35.9
1053.9028	3247.0598	918.65	37.05
1054.0034	3247.9649	915.7	37.85
1054.1039	3248.8694	915.55	36.4
1054.2043	3249.7733	918	39.45
1054.3047	3250.6766	914.25	31.55
1054.4051	3251.5793	917.95	38.4
1054.5054	3252.4814	914.75	37.2
1054.6056	3253.3829	915	38.05
1054.7058	3254.2838	913.85	34.4
1054.806	3255.1841	913.6	34.85
1054.9061	3256.0838	912.6	33.1
1055.0061	3256.9829	911.75	32.15
1055.1062	3257.8814	914.7	32.6
1055.2061	3258.7792	913.5	31.75
1055.306	3259.6765	910.15	30.8
1055.4059	3260.5731	912.8	31.45
1055.5057	3261.4692	909.8	29.55
1055.6055	3262.3647	910.55	30.55
1055.7052	3263.2595	909.4	29.55
1055.8049	3264.1538	909.4	29.6
1055.9045	3265.0474	910.3	30.7
1056.0041	3265.9404	907.55	30.05
1056.1036	3266.8329	909.1	31.55
1056.2031	3267.7247	918.3	28.75
1056.3025	3268.616	906.7	28.2
1056.4019	3269.5066	905.3	25.85
1056.5013	3270.3966	905.25	26.45
1056.6005	3271.286	903.75	24.6
