Software Version:	3.9.2.0
Unit SN:	10000200
Spectrometer SN:	6960
Date:	3/14/2024 1:26:52 PM
Data Line Index:	25
Spectral Points:	2048
Integration time (ms):	125
Averages:	20
Delay (ms):	30000
Sequence Number:	1
Processing:	dark subtract
Laser Power (mW):	300
Laser Current (mA):	825
Laser Diode Temp (C):	25
Laser Case Temp (C):	28.5
System Temp (C):	28.5
Spectrometer Temp (C):	26.3
CCD Temp (C):	0.007
Secondary Temp (C):	20.004
Heatsink Temp (C):	24.364
CCDPCB Temp (C):	37.808
SecondaryPCB Temp (C):	35.507

Wavelength	RamanShift	Raw Counts	Dark Subtracted
787.061	30.1047	465.3	55.85
787.2016	32.3739	464.35	55.75
787.3422	34.6426	471	61.4
787.4828	36.9109	478.05	67.35
787.6235	39.1787	490.6	75.7
787.7642	41.4461	495.65	75
787.9049	43.7131	509.3	85.3
788.0456	45.9796	517.65	91.55
788.1863	48.2456	527.1	95.35
788.3271	50.5112	536.9	100.5
788.4679	52.7764	547	109.3
788.6087	55.0411	555.45	114.95
788.7496	57.3054	566.45	120.5
788.8904	59.5692	574.8	127.35
789.0313	61.8326	596.3	141.6
789.1722	64.0955	608.3	150.35
789.3132	66.3579	620.3	157.75
789.4541	68.6199	645.05	179.75
789.5951	70.8815	681.8	213.95
789.7361	73.1426	767.45	295.8
789.8771	75.4032	980.4	502.35
790.0181	77.6634	1510.15	1026.7
790.1592	79.9231	2787	2296.15
790.3003	82.1824	5576.75	5076.25
790.4414	84.4412	10647.6	10128.5
790.5825	86.6995	17732.4	17188.25
790.7237	88.9574	24752.95	24187.25
790.8648	91.2148	29628.3	29045.3
791.006	93.4717	31899.05	31305.05
791.1472	95.7282	32366.25	31763.15
791.2885	97.9842	32193.25	31591.75
791.4297	100.2398	31508.4	30904.05
791.571	102.4949	30755.35	30151.1
791.7123	104.7495	29863.7	29249.8
791.8536	107.0036	28982.45	28372.15
791.9949	109.2573	28174.1	27562.2
792.1363	111.5105	27499.15	26886.3
792.2777	113.7632	26841.55	26226.15
792.4191	116.0154	26314	25689.6
792.5605	118.2672	25929.5	25310.3
792.7019	120.5185	25571.9	24953.25
792.8434	122.7693	25309.4	24686.95
792.9849	125.0197	25055.35	24429.1
793.1264	127.2696	24809.45	24183.95
793.2679	129.519	24647.05	24017.15
793.4094	131.7679	24384.5	23753.7
793.551	134.0163	24141.05	23503.65
793.6926	136.2642	23812.65	23175.4
793.8342	138.5117	23472.15	22828.7
793.9758	140.7587	23127.65	22480.75
794.1175	143.0052	22830.6	22181.8
794.2591	145.2512	22503.65	21857.1
794.4008	147.4967	22179.15	21533
794.5425	149.7417	21925.7	21276.05
794.6842	151.9863	21752.15	21100.6
794.826	154.2304	21645.3	20988.6
794.9677	156.4739	21461.1	20800.35
795.1095	158.717	21373.8	20716.55
795.2513	160.9596	21198.8	20532.15
795.3931	163.2017	20946.9	20280.6
795.535	165.4433	20705.45	20037.9
795.6768	167.6844	20385.25	19715.3
795.8187	169.925	20063.45	19387.85
795.9606	172.1651	19670.85	18991.65
796.1025	174.4047	19467.75	18784.6
796.2445	176.6439	19186.8	18502.75
796.3864	178.8825	18992.75	18311.3
796.5284	181.1206	18883.7	18197.15
796.6704	183.3582	18702.3	18011.25
796.8124	185.5954	18622.85	17931.4
796.9544	187.832	18555	17855.45
797.0965	190.0681	18500.25	17801.3
797.2386	192.3037	18503.8	17799.9
797.3806	194.5388	18482.75	17779.55
797.5228	196.7734	18532.35	17822.8
797.6649	199.0075	18565.65	17856.9
797.807	201.2411	18681.15	17967.1
797.9492	203.4742	18788.95	18073.6
798.0914	205.7068	18915.6	18199.55
798.2336	207.9389	19018.15	18303.3
798.3758	210.1704	19140.05	18423.9
798.518	212.4015	19249.35	18532.25
798.6603	214.632	19399.15	18676.15
798.8025	216.862	19499.8	18781.6
798.9448	219.0915	19584.25	18876
799.0871	221.3205	19656.8	18953
799.2294	223.549	19776.4	19077.95
799.3718	225.777	19845.3	19145.85
799.5141	228.0044	19951.55	19251.2
799.6565	230.2314	20090.4	19394.2
799.7989	232.4578	20190.25	19490.8
799.9413	234.6837	20319.35	19613.3
800.0837	236.909	20354.35	19646.7
800.2262	239.1339	20382	19649
800.3687	241.3582	20330.3	19614.35
800.5111	243.582	20189.65	19447.6
800.6536	245.8053	20175.8	19435.7
800.7961	248.0281	20081.45	19349.25
800.9387	250.2503	20006.2	19269.1
801.0812	252.472	20089.6	19350.2
801.2238	254.6932	20219.25	19475.85
801.3664	256.9139	20284.75	19537.8
801.509	259.134	20477.85	19729.85
801.6516	261.3536	20631.55	19885.9
801.7942	263.5727	20959.95	20210.3
801.9369	265.7912	21165.35	20416.6
802.0795	268.0092	21442.25	20694.15
802.2222	270.2267	21615.1	20871.3
802.3649	272.4436	21736.65	20983.55
802.5076	274.6601	21750.25	20994.25
802.6504	276.8759	21685.05	20933.45
802.7931	279.0913	21631.05	20878.85
802.9359	281.3061	21505.9	20750.1
803.0787	283.5204	21442.55	20683.6
803.2215	285.7341	21400.4	20642.4
803.3643	287.9473	21450.85	20679.15
803.5071	290.16	21465.45	20696.55
803.6499	292.3721	21494.25	20730.05
803.7928	294.5837	21715.5	20952.8
803.9357	296.7947	21881.35	21118.35
804.0786	299.0052	22047.95	21286.8
804.2215	301.2152	22059.2	21293.8
804.3644	303.4246	21902.3	21138.45
804.5074	305.6334	21541.75	20777.7
804.6503	307.8418	21161.1	20393.45
804.7933	310.0495	20736	19968.9
804.9363	312.2568	20341.9	19575.9
805.0793	314.4635	19945.1	19176.75
805.2223	316.6696	19615.55	18844.1
805.3653	318.8752	19356.45	18577.9
805.5084	321.0802	19260.4	18488.85
805.6514	323.2847	19250.5	18479.9
805.7945	325.4887	19287.15	18519.05
805.9376	327.692	19277.6	18503.4
806.0807	329.8949	19230.75	18456
806.2238	332.0972	19065.45	18288.5
806.367	334.2989	18880.05	18096.35
806.5101	336.5001	18622.1	17844.25
806.6533	338.7007	18431.8	17654.15
806.7965	340.9008	18280.8	17497.05
806.9397	343.1003	18078.1	17292.15
807.0829	345.2992	17941.05	17155.85
807.2261	347.4976	17822.95	17037.8
807.3693	349.6955	17741.15	16952.5
807.5126	351.8927	17711.45	16922.8
807.6559	354.0895	17600.9	16803.15
807.7991	356.2856	17593.5	16804.45
807.9424	358.4812	17508.4	16720.15
808.0857	360.6763	17514.35	16724.05
808.2291	362.8707	17487.5	16696.75
808.3724	365.0646	17509.35	16712.85
808.5158	367.258	17518.4	16723.8
808.6591	369.4508	17557.2	16758.3
808.8025	371.643	17663.95	16862.45
808.9459	373.8346	17698.05	16896.3
809.0893	376.0257	17794.85	16990.05
809.2327	378.2162	17813.55	17010.85
809.3762	380.4062	17808.85	17003.75
809.5196	382.5956	17689.2	16876.9
809.6631	384.7844	17570.15	16762.85
809.8066	386.9726	17408.45	16598.6
809.9501	389.1603	17298.8	16484.8
810.0936	391.3474	17239.75	16399.6
810.2371	393.5339	17203.95	16392.6
810.3806	395.7199	17122.4	16318.55
810.5241	397.9052	17170.85	16369.7
810.6677	400.09	17206.75	16406.65
810.8113	402.2743	17320.6	16521.8
810.9548	404.4579	17471.15	16670.15
811.0984	406.641	17642.1	16843.95
811.2421	408.8235	17806.95	17007.6
811.3857	411.0054	17915.55	17114.05
811.5293	413.1868	18149.8	17345.25
811.673	415.3675	18159.6	17352.75
811.8166	417.5477	18150.85	17347.1
811.9603	419.7273	18098.4	17293.15
812.104	421.9064	18032.2	17216.9
812.2477	424.0848	17937.6	17126.3
812.3914	426.2627	17798.25	16987.2
812.5351	428.4399	17566.2	16748.1
812.6788	430.6166	17261.55	16443.9
812.8226	432.7928	16896.3	16076.1
812.9663	434.9683	16597.25	15777.65
813.1101	437.1432	16328.25	15506.1
813.2539	439.3176	16177.05	15356.85
813.3977	441.4914	16023.3	15200.05
813.5415	443.6645	15968.5	15140.05
813.6853	445.8371	15876.25	15050.15
813.8291	448.0091	15829.1	15007.2
813.973	450.1806	15798.3	14974.4
814.1168	452.3514	15761.7	14938.65
814.2607	454.5216	15777.85	14945.65
814.4046	456.6913	15749.55	14925.35
814.5485	458.8603	15762.5	14935.15
814.6924	461.0288	15845.45	15021.55
814.8363	463.1967	15781.55	14954.3
814.9802	465.3639	15810.4	14981.3
815.1241	467.5306	15784.75	14956.05
815.2681	469.6967	15753.25	14922.05
815.412	471.8622	15750.45	14924.45
815.556	474.0271	15791.6	14964.85
815.7	476.1914	15796.45	14967.05
815.844	478.3551	15817.15	14988.75
815.988	480.5182	15853.65	15024.65
816.132	482.6807	15890.25	15059.25
816.276	484.8426	16082.5	15252.15
816.4201	487.0039	16357.65	15525.7
816.5641	489.1647	16706.05	15873.2
816.7082	491.3248	17053.75	16220.95
816.8522	493.4843	17129.6	16298.4
816.9963	495.6432	17094	16264.25
817.1404	497.8015	16945.75	16107.8
817.2845	499.9592	16836.8	16000.75
817.4286	502.1163	16604.65	15770.8
817.5727	504.2728	16352.5	15513.55
817.7168	506.4287	16100.8	15266
817.861	508.5839	15773.9	14936.6
818.0051	510.7386	15517.4	14681.9
818.1493	512.8927	15455.7	14612.95
818.2935	515.0461	15390.65	14552.4
818.4377	517.199	15422.1	14587.1
818.5818	519.3512	15601.05	14764.6
818.726	521.5029	15837.3	14994.5
818.8703	523.6539	16057.3	15216.05
819.0145	525.8043	16178.35	15338.05
819.1587	527.9541	16095.55	15254.1
819.303	530.1033	15903.05	15063.45
819.4472	532.2519	15718.55	14876.95
819.5915	534.3999	15627.75	14784.05
819.7357	536.5472	15702.45	14859.35
819.88	538.694	15880.65	15038.7
820.0243	540.8401	16137.2	15294
820.1686	542.9856	16316.9	15474.5
820.3129	545.1305	16330.25	15484.65
820.4572	547.2748	16279.25	15434.95
820.6016	549.4185	16096.5	15250.6
820.7459	551.5615	15918.5	15073
820.8902	553.704	15892.85	15046.3
821.0346	555.8458	15937.75	15091.1
821.1789	557.987	16103.25	15257.05
821.3233	560.1276	16277.35	15429
821.4677	562.2675	16629.9	15783.8
821.6121	564.4069	17107.9	16257.25
821.7565	566.5456	17529.15	16682.45
821.9009	568.6837	17737.35	16889.45
822.0453	570.8212	17360.15	16514.6
822.1897	572.958	16709.25	15861.45
822.3342	575.0942	16084	15240
822.4786	577.2299	15631.4	14783.95
822.6231	579.3648	15387.95	14543.95
822.7675	581.4992	15288.45	14442.1
822.912	583.6329	15347.95	14499.8
823.0565	585.766	15494.15	14648.6
823.201	587.8985	15613.3	14768.9
823.3454	590.0304	15634.9	14765.15
823.4899	592.1616	15594.95	14742.9
823.6345	594.2922	15501.35	14651.7
823.779	596.4222	15288.9	14441.1
823.9235	598.5515	15074.65	14224.8
824.068	600.6802	14892.25	14043
824.2126	602.8083	14753.9	13902.25
824.3571	604.9358	14695.3	13845.1
824.5017	607.0626	14682.4	13830.7
824.6462	609.1888	14745.9	13893.25
824.7908	611.3144	14897.65	14044.7
824.9354	613.4393	15018.45	14165.45
825.08	615.5636	15092.2	14241.35
825.2246	617.6873	15106.5	14254.9
825.3692	619.8103	15050.4	14195.95
825.5138	621.9327	14911.5	14056.6
825.6584	624.0544	14685	13829.75
825.803	626.1756	14469.8	13618.2
825.9477	628.2961	14318.2	13464.2
826.0923	630.4159	14219.4	13363.65
826.237	632.5351	14206.3	13352.6
826.3816	634.6537	14158.25	13305.05
826.5263	636.7716	14171.85	13313.3
826.6709	638.8889	14128.85	13272.45
826.8156	641.0056	14180.9	13324.7
826.9603	643.1216	14130.45	13272.05
827.105	645.237	14128.25	13267.85
827.2497	647.3518	14025.6	13167.5
827.3944	649.4659	13965.65	13109.45
827.5391	651.5793	13876.15	13018.7
827.6838	653.6922	13813	12954.45
827.8285	655.8043	13807.6	12949.1
827.9733	657.9159	13785.1	12927.05
828.118	660.0268	13745.95	12884.7
828.2627	662.137	13753.35	12894.9
828.4075	664.2466	13734.9	12871.05
828.5522	666.3556	13736.35	12876.25
828.697	668.4639	13695.1	12833.55
828.8418	670.5716	13633.05	12774.05
828.9865	672.6786	13596.35	12737.75
829.1313	674.785	13493.55	12632.5
829.2761	676.8907	13434.2	12573
829.4209	678.9958	13454.9	12595.5
829.5657	681.1002	13420.15	12559.6
829.7105	683.204	13408.2	12543.05
829.8553	685.3072	13327.75	12464.35
830.0001	687.4097	13316.3	12454.3
830.1449	689.5115	13328.6	12463.35
830.2898	691.6127	13317.15	12453.25
830.4346	693.7132	13301.9	12437.95
830.5794	695.8131	13301.9	12422.9
830.7243	697.9123	13299.25	12433.05
830.8691	700.0109	13304.45	12439.45
831.014	702.1089	13350.45	12486.25
831.1588	704.2061	13356.1	12490.55
831.3037	706.3028	13392.1	12527.15
831.4486	708.3987	13432.25	12567.2
831.5935	710.4941	13450.9	12587.85
831.7383	712.5887	13501.4	12637
831.8832	714.6827	13554.8	12685.7
832.0281	716.7761	13669.9	12802.9
832.173	718.8688	13804.6	12936.9
832.3179	720.9608	13938.15	13068.35
832.4628	723.0522	14085.95	13215.75
832.6077	725.1429	14133.9	13269.5
832.7527	727.233	14194.5	13327.9
832.8976	729.3224	14267.15	13401.6
833.0425	731.4112	14193.65	13326.95
833.1874	733.4993	14019.1	13149.7
833.3324	735.5867	13788.9	12922.5
833.4773	737.6735	13559.55	12689.9
833.6222	739.7596	13349.55	12482
833.7672	741.845	13186.75	12318.25
833.9122	743.9298	13081.65	12211.85
834.0571	746.014	13027.9	12159.9
834.2021	748.0974	13034.3	12164.5
834.347	750.1802	12979.25	12111.35
834.492	752.2624	12987.75	12118.4
834.637	754.3439	13051.45	12181.3
834.782	756.4247	13127.25	12250.8
834.9269	758.5048	13259.45	12388.25
835.0719	760.5843	13502.6	12631.55
835.2169	762.6631	13841.7	12971.2
835.3619	764.7413	14360.15	13491.95
835.5069	766.8188	15028.1	14155.4
835.6519	768.8956	15617.55	14745.8
835.7969	770.9718	16035.85	15166.6
835.9419	773.0473	16008	15139.05
836.0869	775.1221	15766.65	14896.75
836.232	777.1962	15468.05	14595.8
836.377	779.2697	15368.2	14498.6
836.522	781.3426	15446.1	14565.8
836.667	783.4147	15555.9	14686.25
836.8121	785.4862	15624.4	14756.25
836.9571	787.557	15453.6	14584.3
837.1021	789.6271	14991.55	14121.05
837.2472	791.6966	14387.35	13514.1
837.3922	793.7654	13751.6	12879.9
837.5373	795.8335	13345.15	12474.35
837.6823	797.901	12999.4	12128.25
837.8274	799.9678	12816.75	11939.9
837.9724	802.0339	12692.75	11822.9
838.1175	804.0993	12646.2	11766.4
838.2626	806.1641	12561.85	11689.95
838.4076	808.2282	12485.95	11614
838.5527	810.2916	12419.85	11545.65
838.6978	812.3544	12300.6	11431.6
838.8428	814.4164	12249.65	11378.05
838.9879	816.4778	12281.7	11407.85
839.133	818.5385	12298.25	11424.55
839.2781	820.5986	12424.7	11553.25
839.4232	822.658	12627.95	11753.45
839.5682	824.7166	12919	12047.1
839.7133	826.7747	13385.45	12513.65
839.8584	828.832	13934.1	13060.65
840.0035	830.8886	14299.8	13425.1
840.1486	832.9446	14511.75	13638
840.2937	834.9999	14414	13543
840.4388	837.0545	14124.3	13247.2
840.5839	839.1085	13754.35	12881
840.729	841.1618	13450.55	12573.8
840.8741	843.2143	13206.75	12330.9
841.0192	845.2662	12957.85	12083.35
841.1643	847.3175	12792.3	11921.45
841.3095	849.368	12659	11785.05
841.4546	851.4179	12586.1	11709.2
841.5997	853.467	12449.2	11575.6
841.7448	855.5155	12380.75	11505.85
841.8899	857.5633	12312.35	11439.55
842.0351	859.6105	12212.55	11337.2
842.1802	861.6569	12109.9	11234.35
842.3253	863.7027	12037.65	11163.3
842.4704	865.7478	11997.75	11123.45
842.6156	867.7922	11933.35	11056.45
842.7607	869.8359	11871.4	10994.7
842.9058	871.8789	11894.75	11015.95
843.0509	873.9212	11955.8	11046.65
843.1961	875.9629	12027.3	11152.2
843.3412	878.0039	12100.35	11223
843.4863	880.0441	12213.15	11337.65
843.6315	882.0837	12245.65	11371.55
843.7766	884.1226	12277.25	11400.85
843.9218	886.1609	12318.25	11442.7
844.0669	888.1984	12416.65	11540.6
844.212	890.2352	12546.8	11674.05
844.3572	892.2714	12573.35	11694.05
844.5023	894.3069	12518.75	11642.7
844.6475	896.3416	12348.45	11472.55
844.7926	898.3757	12187.95	11311.2
844.9377	900.4091	12063.15	11186.75
845.0829	902.4418	12040.15	11157.7
845.228	904.4739	12042.6	11162.35
845.3732	906.5052	12104.95	11227.45
845.5183	908.5358	12045.5	11168.7
845.6635	910.5658	11961.3	11082.85
845.8086	912.595	11753.35	10878.4
845.9538	914.6236	11561.65	10685.15
846.0989	916.6515	11391.25	10515.65
846.2441	918.6786	11293.95	10415.8
846.3892	920.7051	11261.1	10381.4
846.5344	922.7309	11267	10390.4
846.6795	924.756	11286.7	10407.8
846.8246	926.7804	11337.1	10456.1
846.9698	928.8041	11332.7	10451.25
847.1149	930.8272	11351.75	10474.65
847.2601	932.8495	11335.65	10455.75
847.4052	934.8711	11338.6	10457.1
847.5504	936.892	11267.6	10390.85
847.6955	938.9123	11256.25	10376.2
847.8407	940.9318	11286.65	10408.05
847.9858	942.9506	11268.15	10388.8
848.131	944.9688	11212.5	10331.5
848.2761	946.9862	11117	10239
848.4213	949.003	10948.5	10068.45
848.5664	951.019	10831.8	9952.6
848.7115	953.0344	10779.6	9899.65
848.8567	955.0491	10732.35	9851.75
849.0018	957.063	10752.2	9871.7
849.147	959.0763	10836.3	9956.6
849.2921	961.0888	10835.55	9951.95
849.4373	963.1007	10903	10022.45
849.5824	965.1119	10897.95	10017.05
849.7275	967.1223	10886.35	10005.5
849.8727	969.1321	10879.45	10001
850.0178	971.1412	10871.7	9992.4
850.1629	973.1495	10802.35	9922.8
850.3081	975.1572	10858.1	9942.7
850.4532	977.1641	10842.4	9961.65
850.5983	979.1704	10764.15	9885.6
850.7435	981.1759	10732.9	9852.1
850.8886	983.1808	10768.05	9888.7
851.0337	985.1849	10763.3	9871.25
851.1788	987.1884	10798.25	9917.2
851.324	989.1911	10881.25	9997.3
851.4691	991.1932	10942.9	10061.85
851.6142	993.1945	10960.4	10080
851.7593	995.1951	10914.2	10033.2
851.9045	997.1951	10896.9	10012.6
852.0496	999.1943	10826.15	9947.15
852.1947	1001.1928	10817.3	9936.45
852.3398	1003.1906	10860.85	9981.85
852.4849	1005.1877	10966.55	10085.05
852.63	1007.1841	11039.65	10158.6
852.7751	1009.1798	11055.25	10174.7
852.9202	1011.1748	10952.15	10071.05
853.0653	1013.1691	10841.05	9960.7
853.2104	1015.1627	10651.15	9771.9
853.3555	1017.1556	10438.9	9557.45
853.5006	1019.1477	10319.9	9435.7
853.6457	1021.1392	10189.25	9310.35
853.7908	1023.1299	10120.05	9238.15
853.9359	1025.12	10147.65	9265.85
854.081	1027.1093	10170.65	9291.55
854.2261	1029.0979	10275.2	9396.75
854.3712	1031.0859	10354.35	9471.85
854.5163	1033.0731	10380.7	9499.75
854.6613	1035.0596	10316.9	9435.2
854.8064	1037.0454	10239.6	9359.2
854.9515	1039.0304	10116.8	9234.6
855.0965	1041.0148	9997.45	9119.75
855.2416	1042.9985	9888.15	9006.3
855.3867	1044.9814	9856.7	8978.35
855.5317	1046.9636	9753.35	8870.85
855.6768	1048.9452	9733.55	8853.5
855.8219	1050.926	9782.55	8904.75
855.9669	1052.9061	9803.85	8923.35
856.112	1054.8855	9818.4	8936.15
856.257	1056.8642	9852.1	8970.3
856.4021	1058.8421	9869.95	8982.2
856.5471	1060.8194	9903.85	9021.55
856.6921	1062.7959	9911.55	9031.85
856.8372	1064.7717	9985.55	9103.15
856.9822	1066.7469	10062.45	9176.75
857.1272	1068.7213	10116.9	9235.95
857.2723	1070.695	10187.9	9304.15
857.4173	1072.6679	10227.25	9344.35
857.5623	1074.6402	10235.25	9354.65
857.7073	1076.6117	10217.65	9331.7
857.8523	1078.5826	10093.35	9211.6
857.9973	1080.5527	9958.9	9073.5
858.1423	1082.5221	9852.55	8969.9
858.2873	1084.4908	9805.9	8925.1
858.4323	1086.4587	9800.05	8916.9
858.5773	1088.426	9837.6	8956.05
858.7223	1090.3925	9854.4	8969.75
858.8673	1092.3584	9885.65	9004.95
859.0123	1094.3235	9863.75	8984.3
859.1573	1096.2879	9920.65	9034.85
859.3022	1098.2515	10044.2	9161.1
859.4472	1100.2145	10225.75	9344.15
859.5922	1102.1767	10361.8	9476.75
859.7371	1104.1382	10573.95	9690.2
859.8821	1106.099	10814.6	9930.95
860.027	1108.0591	11031.55	10150
860.172	1110.0185	11189.6	10306.7
860.3169	1111.9771	11267.8	10384.2
860.4619	1113.9351	11182.75	10300.7
860.6068	1115.8923	11105.95	10222.55
860.7517	1117.8488	10951.4	10067.9
860.8967	1119.8045	10774.7	9894.1
861.0416	1121.7596	10615.2	9731.65
861.1865	1123.7139	10494.7	9613.55
861.3314	1125.6675	10421.85	9541.45
861.4763	1127.6204	10434.8	9551.35
861.6212	1129.5726	10369.1	9482.95
861.7661	1131.524	10308.55	9423.3
861.911	1133.4748	10169.95	9286.75
862.0559	1135.4248	9975	9089.8
862.2008	1137.3741	9812.8	8928.65
862.3457	1139.3226	9704.2	8822.4
862.4905	1141.2705	9646.3	8765.8
862.6354	1143.2176	9546.35	8658.05
862.7803	1145.164	9500.4	8614.5
862.9251	1147.1097	9439.4	8555.4
863.07	1149.0546	9353	8471.05
863.2148	1150.9989	9230.55	8347.35
863.3597	1152.9424	9126	8242.8
863.5045	1154.8852	9045.4	8162.35
863.6493	1156.8272	8984.7	8104.9
863.7942	1158.7686	8989.05	8100.35
863.939	1160.7092	8996.3	8110.85
864.0838	1162.6491	9033.65	8148.45
864.2286	1164.5883	9116.95	8232.05
864.3734	1166.5267	9210.85	8326.1
864.5182	1168.4644	9349.85	8467.9
864.663	1170.4014	9549.7	8665.25
864.8078	1172.3377	9796.35	8915.8
864.9526	1174.2732	10045.55	9162.8
865.0974	1176.2081	10473.35	9592.85
865.2421	1178.1421	10938.55	10051.75
865.3869	1180.0755	11480.6	10600.4
865.5317	1182.0082	11864	10981.45
865.6764	1183.9401	12061.95	11177.4
865.8212	1185.8713	11949.1	11064.35
865.9659	1187.8017	11619.5	10737.6
866.1106	1189.7315	11210.9	10327.45
866.2554	1191.6605	10824.4	9912.05
866.4001	1193.5888	10520.85	9635.95
866.5448	1195.5163	10346.9	9464.35
866.6895	1197.4432	10216.85	9333.05
866.8342	1199.3693	10151.9	9268.9
866.9789	1201.2947	10105.65	9217
867.1236	1203.2193	10060.15	9177.25
867.2683	1205.1432	10033.85	9151.6
867.413	1207.0664	10013	9130.85
867.5576	1208.9889	10001.05	9114.75
867.7023	1210.9106	9965.8	9084.2
867.847	1212.8316	9955.65	9074.85
867.9916	1214.7519	9983.55	9089.65
868.1363	1216.6715	10013.55	9130.75
868.2809	1218.5903	10109.5	9228.15
868.4255	1220.5084	10158.55	9276.35
868.5701	1222.4257	10265.85	9385.15
868.7148	1224.3424	10291.7	9409.85
868.8594	1226.2583	10441.15	9553.8
869.004	1228.1735	10567.3	9681.6
869.1486	1230.0879	10725.6	9841.4
869.2932	1232.0016	10922.5	10039.6
869.4377	1233.9146	11059.9	10175.45
869.5823	1235.8269	11074.75	10192.35
869.7269	1237.7384	11060.75	10179.2
869.8715	1239.6492	10934.35	10051.55
870.016	1241.5592	10872.2	9987.9
870.1606	1243.4686	10949.55	10067.8
870.3051	1245.3772	11105.55	10223.25
870.4496	1247.285	11319.75	10437.5
870.5941	1249.1922	11529.9	10645.7
870.7387	1251.0986	11699.05	10816.05
870.8832	1253.0042	11774.95	10891.65
871.0277	1254.9092	11913.9	11031.9
871.1722	1256.8134	11984.6	11102.4
871.3167	1258.7169	12160.3	11274.35
871.4611	1260.6196	12273.05	11392.3
871.6056	1262.5216	12503.1	11617.9
871.7501	1264.4229	12688.85	11806.6
871.8945	1266.3234	12875.55	11990.45
872.039	1268.2232	13031.3	12146.25
872.1834	1270.1223	13078.45	12197.5
872.3278	1272.0207	13104.4	12221.85
872.4723	1273.9183	13101.35	12211.65
872.6167	1275.8151	13010.95	12128.2
872.7611	1277.7113	13010.25	12125.15
872.9055	1279.6067	13094.8	12213
873.0499	1281.5014	13311.55	12425.85
873.1943	1283.3953	13740.9	12855.05
873.3386	1285.2885	14270.1	13387.35
873.483	1287.181	14804.25	13920.65
873.6274	1289.0727	15372.85	14489.95
873.7717	1290.9637	15764.35	14880.8
873.9161	1292.854	15980.3	15096.9
874.0604	1294.7435	15980.6	15096.55
874.2047	1296.6323	15885.3	14999.85
874.349	1298.5204	15676.35	14788.95
874.4933	1300.4077	15457.45	14572.35
874.6376	1302.2943	15158.65	14276.45
874.7819	1304.1802	14796.65	13915.4
874.9262	1306.0653	14312.45	13426.7
875.0705	1307.9497	13829.95	12946.6
875.2147	1309.8333	13365.45	12482.15
875.359	1311.7162	13040.5	12157.2
875.5032	1313.5984	12816.35	11929.9
875.6475	1315.4798	12677.8	11780.85
875.7917	1317.3605	12572.85	11672.9
875.9359	1319.2405	12433.2	11546.6
876.0801	1321.1197	12197.8	11311.65
876.2243	1322.9982	11887.45	10999.55
876.3685	1324.876	11618.3	10734.15
876.5127	1326.753	11300.75	10415.2
876.6569	1328.6293	11044.45	10159
876.801	1330.5048	10859.5	9974.5
876.9452	1332.3796	10669	9786.95
877.0893	1334.2537	10589	9677.8
877.2335	1336.127	10462.95	9577.6
877.3776	1337.9996	10427.75	9542.75
877.5217	1339.8714	10403.4	9517.15
877.6658	1341.7426	10423.9	9495.55
877.8099	1343.6129	10387	9505
877.954	1345.4826	10384.55	9499.7
878.0981	1347.3515	10387.15	9501.1
878.2422	1349.2196	10338.25	9450.3
878.3862	1351.087	10381.85	9499.6
878.5303	1352.9537	10434.4	9549.6
878.6743	1354.8197	10535.45	9652.75
878.8184	1356.6849	10652.8	9768.3
878.9624	1358.5493	10842.05	9960.3
879.1064	1360.4131	11036.45	10152.55
879.2504	1362.276	11183.15	10299.35
879.3944	1364.1383	11225.6	10341.8
879.5384	1365.9998	11094.75	10205.6
879.6823	1367.8606	10800.4	9915.9
879.8263	1369.7206	10465.1	9580
879.9702	1371.5799	10138.7	9253.6
880.1142	1373.4384	9861.8	8978.45
880.2581	1375.2962	9610.35	8726.3
880.402	1377.1533	9309.8	8426.8
880.5459	1379.0096	8959.3	8073.2
880.6898	1380.8652	8635	7750.7
880.8337	1382.7201	8316.4	7431.2
880.9776	1384.5742	8071.45	7186.25
881.1215	1386.4275	7903	7018.95
881.2653	1388.2802	7738.7	6855.35
881.4092	1390.132	7632.35	6748.95
881.553	1391.9832	7548.2	6661.85
881.6968	1393.8336	7477.2	6592.6
881.8406	1395.6832	7431.45	6544.6
881.9844	1397.5322	7378.4	6491.55
882.1282	1399.3803	7348.6	6459.9
882.272	1401.2278	7314.45	6429.55
882.4158	1403.0745	7281.15	6397.75
882.5595	1404.9204	7253.6	6371.25
882.7033	1406.7656	7263.55	6378.4
882.847	1408.6101	7273.6	6388.9
882.9908	1410.4538	7296.45	6412.35
883.1345	1412.2968	7336.5	6450.95
883.2782	1414.139	7373.95	6490.85
883.4219	1415.9805	7457.7	6572.5
883.5656	1417.8213	7506.9	6615.7
883.7092	1419.6613	7604.65	6721.75
883.8529	1421.5006	7734.6	6850.65
883.9965	1423.3391	7920.95	7033.95
884.1402	1425.1769	8197.7	7312.4
884.2838	1427.0139	8584.8	7698.3
884.4274	1428.8502	9074.85	8187.7
884.571	1430.6858	9573.05	8687.25
884.7146	1432.5206	9951.55	9066.4
884.8582	1434.3547	10167.85	9281.05
885.0018	1436.188	10211.95	9329.05
885.1453	1438.0206	10165.6	9279.5
885.2889	1439.8524	9998.45	9113.25
885.4324	1441.6835	9891.6	9006.8
885.5759	1443.5139	9798.8	8909.95
885.7194	1445.3435	9719.95	8836
885.8629	1447.1724	9718.95	8835.6
886.0064	1449.0005	9665.6	8782.1
886.1499	1450.8279	9577.35	8691.7
886.2933	1452.6545	9592.25	8708.3
886.4368	1454.4804	9621.45	8737.8
886.5802	1456.3056	9620.5	8730.25
886.7237	1458.13	9545.7	8662.85
886.8671	1459.9536	9405.7	8522.2
887.0105	1461.7766	9187.15	8302.15
887.1539	1463.5987	8878.6	7994.05
887.2972	1465.4202	8595.6	7710.65
887.4406	1467.2409	8246.7	7360.9
887.584	1469.0608	7980.6	7095.9
887.7273	1470.88	7720.55	6836.9
887.8706	1472.6984	7519.45	6635.8
888.0139	1474.5161	7316.75	6429.2
888.1572	1476.3331	7155.3	6271.8
888.3005	1478.1493	7035.7	6150.4
888.4438	1479.9648	6963.95	6080.4
888.5871	1481.7795	6907.6	6023.55
888.7303	1483.5935	6842.15	5958.1
888.8736	1485.4067	6806.8	5921.85
889.0168	1487.2192	6749	5866.35
889.16	1489.031	6705.95	5819.55
889.3032	1490.842	6653.4	5769.85
889.4464	1492.6522	6644.3	5760.6
889.5896	1494.4618	6563.85	5679.3
889.7327	1496.2705	6561.85	5679
889.8759	1498.0785	6524.3	5638
890.019	1499.8858	6481.15	5595.85
890.1622	1501.6924	6448.1	5563.85
890.3053	1503.4981	6412.15	5526.95
890.4484	1505.3032	6365.2	5480.15
890.5914	1507.1075	6326.2	5442.2
890.7345	1508.911	6290.55	5405.95
890.8776	1510.7138	6258.1	5374.25
891.0206	1512.5159	6217.25	5333
891.1637	1514.3172	6169.5	5283.85
891.3067	1516.1178	6129.1	5244.6
891.4497	1517.9176	6085.05	5198.55
891.5927	1519.7166	6053.6	5169.6
891.7357	1521.515	6037	5146.2
891.8786	1523.3126	6013.85	5129.3
892.0216	1525.1094	5979.65	5093.65
892.1645	1526.9055	5951.55	5068.95
892.3074	1528.7008	5936.85	5052.85
892.4503	1530.4954	5909.05	5024.2
892.5932	1532.2893	5907.3	5023.05
892.7361	1534.0824	5880.5	4992.05
892.879	1535.8747	5879.8	4996.55
893.0218	1537.6663	5878.75	4995.9
893.1647	1539.4572	5850.5	4965.5
893.3075	1541.2473	5867.3	4983.55
893.4503	1543.0367	5864.35	4979.2
893.5931	1544.8253	5856.3	4969.45
893.7359	1546.6132	5899.4	5012.75
893.8787	1548.4003	5905.15	5010.55
894.0214	1550.1867	5964.7	5072.05
894.1642	1551.9723	6020.6	5131.8
894.3069	1553.7572	6111.55	5227.05
894.4496	1555.5414	6208.35	5324.55
894.5923	1557.3247	6344.2	5460.4
894.735	1559.1074	6499.25	5618
894.8777	1560.8893	6667.6	5784.75
895.0204	1562.6705	6841.5	5958.2
895.163	1564.4509	6973.75	6090.35
895.3056	1566.2305	7070.4	6185.4
895.4482	1568.0094	7100.1	6216.6
895.5908	1569.7876	7127.95	6243.25
895.7334	1571.565	7100.45	6216.85
895.876	1573.3417	7095.8	6213.35
896.0186	1575.1176	7074.9	6190.3
896.1611	1576.8928	7100.15	6217.65
896.3036	1578.6672	7083.2	6200.5
896.4461	1580.4409	7096.4	6217.9
896.5886	1582.2138	7161.55	6273.15
896.7311	1583.986	7233.7	6348.95
896.8736	1585.7575	7315.75	6433.3
897.0161	1587.5282	7421.25	6540.1
897.1585	1589.2981	7514.85	6632.2
897.3009	1591.0673	7606.35	6722.5
897.4433	1592.8358	7737.05	6854.6
897.5857	1594.6035	7825	6939.3
897.7281	1596.3704	7899.9	7016.05
897.8705	1598.1366	8003.8	7121.45
898.0128	1599.9021	8084.05	7200.95
898.1551	1601.6668	8161.35	7275.15
898.2975	1603.4308	8268.85	7386.25
898.4398	1605.194	8436.8	7549.75
898.5821	1606.9564	8595.65	7710.95
898.7243	1608.7182	8859.95	7972.4
898.8666	1610.4791	9143.75	8259.75
899.0088	1612.2394	9471.3	8588.55
899.1511	1613.9988	9808.7	8925.05
899.2933	1615.7576	10102.1	9220.1
899.4355	1617.5156	10318.55	9431.4
899.5776	1619.2728	10424.65	9541.65
899.7198	1621.0293	10368.7	9488.15
899.862	1622.785	10167.65	9279.55
900.0041	1624.54	9845.85	8961.45
900.1462	1626.2942	9471.25	8585.8
900.2883	1628.0477	9041.5	8156.35
900.4304	1629.8005	8666.35	7775.35
900.5725	1631.5525	8330.7	7445.05
900.7145	1633.3037	8019.25	7136.35
900.8566	1635.0542	7774.35	6891.25
900.9986	1636.804	7576.95	6693.35
901.1406	1638.553	7451.45	6512
901.2826	1640.3013	7318.1	6437.8
901.4245	1642.0488	7272.7	6385.8
901.5665	1643.7955	7274.35	6391.05
901.7085	1645.5416	7311.3	6427.8
901.8504	1647.2868	7394.65	6511.65
901.9923	1649.0313	7502.65	6621.15
902.1342	1650.7751	7598.4	6708.45
902.2761	1652.5181	7745.2	6862.55
902.4179	1654.2604	7889.85	7007.4
902.5598	1656.0019	8086.3	7203.35
902.7016	1657.7427	8302.5	7420.65
902.8434	1659.4828	8550.35	7666.7
902.9852	1661.222	8719.9	7837.15
903.127	1662.9606	8718.65	7838.65
903.2687	1664.6984	8539.8	7656.25
903.4105	1666.4354	8146.25	7261.85
903.5522	1668.1717	7679	6797.1
903.6939	1669.9072	7133.1	6249.75
903.8356	1671.642	6689.85	5805.1
903.9773	1673.3761	6307.05	5424.5
904.119	1675.1094	6015.25	5133.2
904.2606	1676.8419	5757.65	4876.65
904.4022	1678.5737	5579.2	4698.1
904.5439	1680.3048	5403.8	4521.15
904.6855	1682.0351	5274.45	4394.55
904.827	1683.7646	5187.05	4302.35
904.9686	1685.4934	5084.55	4202.15
905.1101	1687.2215	5008.4	4125.6
905.2517	1688.9488	4937.9	4055.85
905.3932	1690.6754	4878.45	3996.4
905.5347	1692.4012	4848.05	3965.3
905.6761	1694.1263	4787.2	3906.2
905.8176	1695.8506	4750.25	3867.8
905.9591	1697.5742	4713.95	3833.2
906.1005	1699.297	4673.4	3790.65
906.2419	1701.0191	4628.7	3744.75
906.3833	1702.7404	4600.6	3719.25
906.5246	1704.461	4551	3666.05
906.666	1706.1808	4520.45	3635.5
906.8073	1707.8999	4510	3626.25
906.9487	1709.6182	4476.85	3594.95
907.09	1711.3358	4445.15	3563.65
907.2313	1713.0527	4422.15	3541.75
907.3725	1714.7688	4408.3	3523.65
907.5138	1716.4841	4371.4	3486.05
907.655	1718.1987	4372.45	3482.9
907.7962	1719.9126	4355.4	3475.45
907.9374	1721.6257	4327.25	3441
908.0786	1723.338	4322.9	3441
908.2198	1725.0496	4290.55	3407.6
908.3609	1726.7605	4289.8	3408.05
908.502	1728.4706	4273.65	3392.5
908.6431	1730.18	4249.55	3362.8
908.7842	1731.8886	4242.25	3361.05
908.9253	1733.5964	4235	3347.4
909.0664	1735.3036	4213.1	3329
909.2074	1737.0099	4195.15	3312.5
909.3484	1738.7156	4200.6	3318.9
909.4894	1740.4204	4160.35	3275.65
909.6304	1742.1246	4151.55	3267.25
909.7714	1743.8279	4121.25	3238.9
909.9123	1745.5306	4113.4	3229.95
910.0532	1747.2325	4092.65	3209.9
910.1941	1748.9336	4072.25	3189.75
910.335	1750.634	4054.5	3170.3
910.4759	1752.3336	4046.85	3163.5
910.6168	1754.0325	4018.3	3138.7
910.7576	1755.7307	4019.65	3136.25
910.8984	1757.4281	4002.1	3120.7
911.0392	1759.1247	4006.45	3116.8
911.18	1760.8206	4003.85	3118.25
911.3208	1762.5158	3993.1	3107.1
911.4615	1764.2102	3977.2	3095.25
911.6022	1765.9039	3944.25	3061.5
911.7429	1767.5968	3952.25	3071.1
911.8836	1769.289	3945	3062.5
912.0243	1770.9804	3928.75	3046.25
912.1649	1772.6711	3922.4	3041.95
912.3056	1774.361	3921.7	3037.4
912.4462	1776.0502	3919.5	3037.55
912.5868	1777.7386	3914.8	3027.35
912.7274	1779.4263	3905.1	3022.9
912.8679	1781.1132	3899.95	3014.45
913.0084	1782.7994	3877.15	2992.65
913.149	1784.4849	3873.3	2992.35
913.2895	1786.1696	3886.6	2983.5
913.4299	1787.8535	3854.3	2970.6
913.5704	1789.5367	3850.85	2968.7
913.7108	1791.2192	3827.85	2946.65
913.8513	1792.9009	3849.5	2952
913.9917	1794.5818	3826.8	2946.25
914.132	1796.2621	3818.8	2938.85
914.2724	1797.9415	3791.4	2907.2
914.4128	1799.6202	3804.9	2922.8
914.5531	1801.2982	3785.75	2902.6
914.6934	1802.9755	3767.25	2881.6
914.8337	1804.6519	3764.65	2881.8
914.9739	1806.3277	3754.3	2872.95
915.1142	1808.0027	3747.65	2866.75
915.2544	1809.6769	3765.4	2883.55
915.3946	1811.3504	3742.05	2856.75
915.5348	1813.0231	3729.9	2846.65
915.675	1814.6951	3714.95	2832.05
915.8151	1816.3664	3707.4	2823.85
915.9553	1818.0369	3707.65	2826.55
916.0954	1819.7067	3699.1	2818
916.2355	1821.3757	3697.1	2814.5
916.3755	1823.044	3692.1	2809.15
916.5156	1824.7115	3690.3	2809.25
916.6556	1826.3783	3674.9	2795.2
916.7956	1828.0443	3664.45	2782.65
916.9356	1829.7096	3670.3	2786.15
917.0756	1831.3741	3666.15	2783.7
917.2155	1833.0379	3666.7	2785.2
917.3555	1834.701	3637.65	2753.6
917.4954	1836.3633	3652.6	2766.15
917.6353	1838.0248	3633.55	2748.8
917.7751	1839.6856	3633.4	2751.1
917.915	1841.3457	3629.7	2749.3
918.0548	1843.005	3614.5	2732.5
918.1946	1844.6636	3623.8	2744.2
918.3344	1846.3214	3603.25	2720.55
918.4742	1847.9785	3612.65	2734.25
918.6139	1849.6349	3588.35	2704.75
918.7537	1851.2904	3621.45	2730.45
918.8934	1852.9453	3596.05	2712.65
919.0331	1854.5994	3579.15	2694.35
919.1727	1856.2528	3586.25	2700.65
919.3124	1857.9054	3572.65	2691.6
919.452	1859.5572	3562.8	2683.05
919.5916	1861.2083	3560.5	2675.9
919.7312	1862.8587	3560.85	2679.2
919.8708	1864.5084	3548.95	2666.2
920.0103	1866.1572	3538.95	2658.1
920.1498	1867.8054	3522.55	2642
920.2893	1869.4528	3512.15	2630.05
920.4288	1871.0994	3501.4	2619.7
920.5683	1872.7453	3509.4	2627.4
920.7077	1874.3905	3527.95	2628.1
920.8471	1876.0349	3499.85	2617.15
920.9865	1877.6786	3502.2	2619.6
921.1259	1879.3215	3501.35	2620.25
921.2653	1880.9637	3485.15	2601.05
921.4046	1882.6051	3474.7	2593.4
921.5439	1884.2458	3474.1	2589.65
921.6832	1885.8858	3459.95	2578.05
921.8225	1887.525	3456.55	2574.35
921.9617	1889.1634	3445	2563.2
922.101	1890.8011	3422.55	2539.55
922.2402	1892.4381	3433.55	2553.8
922.3794	1894.0743	3417.6	2536.8
922.5185	1895.7098	3421.65	2539.9
922.6577	1897.3446	3420.75	2538.8
922.7968	1898.9786	3409.5	2521.85
922.9359	1900.6118	3412.7	2533.05
923.075	1902.2443	3389.15	2504.85
923.214	1903.8761	3381.55	2499.9
923.3531	1905.5071	3367.6	2485.1
923.4921	1907.1374	3369.8	2488.75
923.6311	1908.7669	3356.3	2473.3
923.77	1910.3957	3363.4	2480.45
923.909	1912.0237	3341.8	2460.1
924.0479	1913.651	3324.55	2442.15
924.1868	1915.2776	3320.55	2440.65
924.3257	1916.9034	3327.4	2445.3
924.4646	1918.5285	3298.55	2416.75
924.6034	1920.1528	3287.05	2404.6
924.7422	1921.7764	3277.5	2396.5
924.881	1923.3992	3286.6	2404.65
925.0198	1925.0213	3272.8	2391.45
925.1586	1926.6427	3268.1	2387.5
925.2973	1928.2633	3347.6	2363.45
925.436	1929.8832	3260.7	2376.75
925.5747	1931.5023	3237.7	2357.2
925.7134	1933.1207	3230.2	2346.9
925.852	1934.7383	3237.9	2356.15
925.9906	1936.3552	3228.85	2347.65
926.1292	1937.9714	3238.9	2354.5
926.2678	1939.5868	3204.05	2320.95
926.4064	1941.2015	3199.2	2316.55
926.5449	1942.8154	3199.8	2317.7
926.6834	1944.4286	3178.95	2297.7
926.8219	1946.041	3189.85	2284.4
926.9604	1947.6528	3167.35	2280.2
927.0988	1949.2637	3157	2277.15
927.2372	1950.8739	3156.7	2273.7
927.3756	1952.4834	3149.45	2265.3
927.514	1954.0921	3132.25	2249.6
927.6523	1955.7001	3127.15	2241.5
927.7907	1957.3074	3120.05	2239.9
927.929	1958.9139	3108.6	2225.45
928.0673	1960.5197	3106.2	2222.9
928.2055	1962.1247	3090.65	2210.05
928.3438	1963.729	3076.45	2197.35
928.482	1965.3325	3102.55	2195.6
928.6202	1966.9353	3075.2	2193.6
928.7584	1968.5374	3066.7	2182.9
928.8965	1970.1387	3051.85	2172.2
929.0346	1971.7393	3046.3	2165.7
929.1727	1973.3392	3039.1	2157.7
929.3108	1974.9383	3016.85	2135.85
929.4489	1976.5366	3021.4	2139.95
929.5869	1978.1342	3017	2133.85
929.7249	1979.7311	3017.25	2135
929.8629	1981.3273	3024.55	2140.3
930.0009	1982.9227	2998.5	2115.4
930.1388	1984.5173	2992.95	2110.4
930.2767	1986.1112	2986.75	2105.45
930.4146	1987.7044	2984.55	2105.9
930.5525	1989.2968	2971.55	2090.3
930.6904	1990.8885	2969.85	2084.9
930.8282	1992.4795	2963.3	2079
930.966	1994.0697	2967.3	2086.1
931.1038	1995.6592	2960.45	2075.9
931.2415	1997.2479	2944.55	2062.55
931.3793	1998.8359	2932.7	2049.2
931.517	2000.4232	2926.85	2043.85
931.6547	2002.0097	2932.85	2052.6
931.7923	2003.5955	2911.85	2029
931.93	2005.1805	2920.7	2036.25
932.0676	2006.7648	2918.65	2038.1
932.2052	2008.3484	2894.8	2010.75
932.3427	2009.9312	2910.65	2027.45
932.4803	2011.5133	2908.2	2027.45
932.6178	2013.0946	2899.75	2017.6
932.7553	2014.6752	2894.5	2014.5
932.8928	2016.2551	2880.95	1997.7
933.0302	2017.8342	2873.4	1990.5
933.1676	2019.4126	2871.8	1990.35
933.305	2020.9902	2870.8	1988.05
933.4424	2022.5672	2864.55	1980.05
933.5798	2024.1433	2858.6	1969.8
933.7171	2025.7188	2842.45	1962.5
933.8544	2027.2935	2840.85	1957.95
933.9917	2028.8674	2824.65	1943.15
934.129	2030.4406	2818.2	1937
934.2662	2032.0131	2826.35	1943.7
934.4034	2033.5849	2820.8	1935
934.5406	2035.1559	2822.35	1938.2
934.6778	2036.7261	2812.1	1929.7
934.8149	2038.2957	2805.05	1922.5
934.952	2039.8645	2799	1916.65
935.0891	2041.4325	2799.9	1914.85
935.2262	2042.9998	2789.5	1909.15
935.3632	2044.5664	2781.2	1897.2
935.5002	2046.1323	2769.8	1889.85
935.6372	2047.6974	2769.75	1889.45
935.7742	2049.2617	2770	1887.65
935.9111	2050.8254	2790.5	1873.65
936.048	2052.3883	2765.15	1880.1
936.1849	2053.9504	2746.85	1863.55
936.3218	2055.5118	2749.35	1865.8
936.4586	2057.0725	2742.3	1855.35
936.5955	2058.6325	2740.85	1858.45
936.7323	2060.1917	2729.55	1847.05
936.869	2061.7502	2722.45	1838.85
937.0058	2063.3079	2710.7	1829.45
937.1425	2064.8649	2717.05	1830.1
937.2792	2066.4212	2727.3	1846.65
937.4159	2067.9767	2708.55	1826.45
937.5525	2069.5315	2705.5	1824.8
937.6891	2071.0856	2689.3	1807.7
937.8257	2072.6389	2685.15	1801
937.9623	2074.1915	2683.2	1803.5
938.0989	2075.7433	2661.55	1774.7
938.2354	2077.2945	2673.5	1792.95
938.3719	2078.8448	2653.35	1772.65
938.5084	2080.3945	2661.25	1777.65
938.6448	2081.9434	2661.95	1780.1
938.7812	2083.4916	2650.15	1766.05
938.9176	2085.039	2644.85	1762.3
939.054	2086.5857	2632.3	1750.9
939.1903	2088.1317	2636.95	1754.05
939.3267	2089.677	2631.4	1749.05
939.463	2091.2215	2610.75	1730.7
939.5992	2092.7652	2610.25	1727.1
939.7355	2094.3083	2618.55	1737.4
939.8717	2095.8506	2607.85	1726.3
940.0079	2097.3921	2611.4	1730.8
940.1441	2098.933	2603.35	1721.9
940.2802	2100.4731	2594.35	1713.2
940.4163	2102.0124	2609.2	1707.95
940.5524	2103.5511	2597.85	1714.8
940.6885	2105.089	2596.65	1715.55
940.8245	2106.6261	2586.6	1706.8
940.9606	2108.1626	2589.3	1705.3
941.0965	2109.6983	2614.6	1704.95
941.2325	2111.2332	2581.8	1697.25
941.3684	2112.7675	2573.8	1690.55
941.5044	2114.301	2564.25	1679.15
941.6403	2115.8337	2556.85	1675.85
941.7761	2117.3657	2561.05	1679.5
941.912	2118.897	2550.75	1667.05
942.0478	2120.4276	2546.4	1658.2
942.1835	2121.9575	2543.5	1662.45
942.3193	2123.4866	2551.7	1656.3
942.455	2125.0149	2551.65	1667.35
942.5907	2126.5426	2524.5	1641.4
942.7264	2128.0695	2525.4	1640.5
942.8621	2129.5956	2525.5	1643.6
942.9977	2131.1211	2524.9	1636.1
943.1333	2132.6458	2517.7	1636.3
943.2689	2134.1698	2510.45	1627.7
943.4044	2135.693	2505.15	1620.75
943.54	2137.2155	2491.65	1607.95
943.6755	2138.7373	2497.35	1614.85
943.8109	2140.2584	2482.55	1602.95
943.9464	2141.7787	2490.5	1602.45
944.0818	2143.2983	2475.15	1594.15
944.2172	2144.8171	2468.65	1587.8
944.3526	2146.3353	2468.65	1583.6
944.4879	2147.8527	2467.1	1587.5
944.6232	2149.3693	2464.3	1581.6
944.7585	2150.8853	2452.7	1570.15
944.8938	2152.4005	2445.25	1564.35
945.029	2153.9149	2450.1	1567.4
945.1642	2155.4287	2430.4	1548.65
945.2994	2156.9417	2432.95	1550.9
945.4346	2158.454	2436.8	1551.95
945.5697	2159.9655	2418.3	1539.95
945.7048	2161.4764	2423.45	1539.6
945.8399	2162.9865	2429.5	1547.45
945.9749	2164.4958	2421.3	1537.5
946.1099	2166.0045	2419.75	1532.3
946.2449	2167.5124	2415.85	1534.7
946.3799	2169.0195	2405.95	1522.9
946.5148	2170.526	2403.9	1519.6
946.6498	2172.0317	2398.95	1515.75
946.7846	2173.5367	2403.1	1519.6
946.9195	2175.0409	2395.8	1515.2
947.0543	2176.5445	2391.3	1509.6
947.1891	2178.0473	2394.15	1510.95
947.3239	2179.5494	2383.1	1497.4
947.4587	2181.0507	2381.05	1499.4
947.5934	2182.5513	2372.95	1490.05
947.7281	2184.0512	2376.75	1493.05
947.8628	2185.5504	2378.7	1496.15
947.9974	2187.0488	2359.65	1476.85
948.132	2188.5465	2351	1469.2
948.2666	2190.0435	2347.55	1465.4
948.4012	2191.5397	2342.75	1459.95
948.5357	2193.0353	2339.15	1457.5
948.6702	2194.5301	2328.65	1447
948.8047	2196.0241	2332.55	1449.15
948.9392	2197.5175	2327.85	1446.65
949.0736	2199.0101	2321.65	1435.65
949.208	2200.502	2310.95	1430.95
949.3424	2201.9931	2304.65	1424.9
949.4767	2203.4835	2308.4	1423.95
949.611	2204.9733	2311.55	1423.15
949.7453	2206.4622	2293.25	1411.35
949.8796	2207.9505	2296.45	1411.4
950.0138	2209.438	2285.45	1405.05
950.148	2210.9248	2293.75	1408.2
950.2822	2212.4109	2278.25	1395.95
950.4164	2213.8962	2282.5	1399.6
950.5505	2215.3809	2273.7	1391
950.6846	2216.8648	2269.45	1386.4
950.8186	2218.3479	2267.45	1381.85
950.9527	2219.8304	2255.15	1370.7
951.0867	2221.3121	2242.75	1359.55
951.2207	2222.7931	2247.9	1365.1
951.3546	2224.2733	2236.35	1353.7
951.4886	2225.7529	2234.55	1349.95
951.6225	2227.2317	2240.25	1354.35
951.7563	2228.7098	2224.65	1344
951.8902	2230.1872	2229.45	1347.45
952.024	2231.6638	2226.35	1345.25
952.1578	2233.1397	2229.05	1342.35
952.2916	2234.6149	2208.45	1327.15
952.4253	2236.0894	2207.4	1323.6
952.559	2237.5632	2219.2	1326.6
952.6927	2239.0362	2209.85	1328.35
952.8263	2240.5085	2201.05	1320.85
952.9599	2241.9801	2191.85	1308.55
953.0935	2243.4509	2192.3	1309.7
953.2271	2244.921	2184.25	1304.5
953.3606	2246.3904	2168.5	1284.15
953.4941	2247.8591	2176.6	1296.35
953.6276	2249.3271	2166.2	1283.6
953.7611	2250.7943	2163	1279.5
953.8945	2252.2608	2154	1270.55
954.0279	2253.7266	2156.05	1274.6
954.1612	2255.1917	2136.6	1257.2
954.2946	2256.656	2140.7	1255.55
954.4279	2258.1197	2148.9	1268.55
954.5612	2259.5826	2147.7	1263
954.6944	2261.0447	2148.55	1265.65
954.8276	2262.5062	2133.7	1250.15
954.9608	2263.9669	2142.45	1257.6
955.094	2265.4269	2130.45	1248.05
955.2271	2266.8862	2124.25	1241.45
955.3602	2268.3448	2127.95	1243.5
955.4933	2269.8026	2124.75	1241.4
955.6264	2271.2598	2113.5	1232.15
955.7594	2272.7162	2118.4	1236.5
955.8924	2274.1719	2102.7	1218.7
956.0253	2275.6268	2101.8	1219.9
956.1583	2277.0811	2104	1220.45
956.2912	2278.5346	2107.5	1228
956.4241	2279.9874	2107.4	1224.35
956.5569	2281.4395	2099.8	1219.3
956.6897	2282.8908	2100.1	1212.3
956.8225	2284.3414	2100.8	1219.25
956.9553	2285.7914	2093.65	1212.25
957.088	2287.2406	2080.85	1196.6
957.2207	2288.689	2094	1211.6
957.3534	2290.1368	2083.85	1201.6
957.486	2291.5838	2074.95	1189.7
957.6186	2293.0302	2079.55	1197.9
957.7512	2294.4758	2069	1185.75
957.8838	2295.9206	2069.1	1183.75
958.0163	2297.3648	2064.95	1181.55
958.1488	2298.8082	2067.65	1182.85
958.2813	2300.251	2055.3	1172.55
958.4137	2301.693	2055.55	1171.2
958.5461	2303.1343	2053.15	1170.3
958.6785	2304.5748	2041.6	1158.7
958.8108	2306.0147	2041.9	1159.6
958.9432	2307.4538	2048.85	1163.95
959.0754	2308.8922	2038.45	1157.5
959.2077	2310.3299	2033.15	1149.95
959.3399	2311.7669	2030.8	1149.1
959.4721	2313.2031	2031.95	1149.15
959.6043	2314.6387	2021.3	1139.15
959.7365	2316.0735	2015	1131.55
959.8686	2317.5076	2019.9	1137.05
960.0006	2318.941	2019.5	1137.3
960.1327	2320.3737	2010.4	1128.75
960.2647	2321.8056	2003.2	1121.55
960.3967	2323.2369	2004.85	1119.9
960.5287	2324.6674	2007.2	1121.95
960.6606	2326.0972	2008.65	1125.45
960.7925	2327.5263	1996.55	1115.5
960.9244	2328.9547	1989.75	1107.45
961.0562	2330.3823	1989.65	1108.95
961.1881	2331.8092	1997.8	1113.45
961.3198	2333.2355	1970.8	1090.2
961.4516	2334.661	1974.15	1089.8
961.5833	2336.0858	1972.55	1088.4
961.715	2337.5098	1974.6	1091.8
961.8467	2338.9332	1968.5	1085.25
961.9783	2340.3558	1968.4	1081.85
962.1099	2341.7778	1972.25	1091.25
962.2415	2343.199	1963.45	1080.25
962.373	2344.6195	1961.5	1078.25
962.5045	2346.0393	1955.6	1073.2
962.636	2347.4583	1963.05	1080
962.7675	2348.8767	1955	1072.35
962.8989	2350.2943	1952.2	1069.5
963.0303	2351.7113	1949.1	1066.8
963.1617	2353.1275	1949.45	1068.5
963.293	2354.543	1969.85	1063.6
963.4243	2355.9578	1945	1063.4
963.5556	2357.3718	1937.6	1055.6
963.6868	2358.7852	1943.15	1059.05
963.818	2360.1978	1934.75	1051.2
963.9492	2361.6098	1931.5	1050.75
964.0803	2363.021	1941.7	1054.35
964.2114	2364.4315	1918.9	1036.55
964.3425	2365.8413	1922.1	1038.6
964.4736	2367.2504	1921.15	1041.9
964.6046	2368.6587	1916.25	1034.9
964.7356	2370.0664	1904.4	1022.95
964.8666	2371.4733	1907.8	1024.4
964.9975	2372.8795	1902.15	1021.45
965.1284	2374.285	1906.65	1023.7
965.2593	2375.6899	1897.5	1018.25
965.3901	2377.0939	1896.8	1015.2
965.5209	2378.4973	1906.4	1024.55
965.6517	2379.9	1891	1009.35
965.7825	2381.3019	1890.4	1009.45
965.9132	2382.7032	1879.55	996.65
966.0439	2384.1037	1877.65	995.85
966.1745	2385.5035	1876.65	992.55
966.3051	2386.9027	1874.6	995.05
966.4357	2388.3011	1878.3	993.3
966.5663	2389.6987	1867.25	986.95
966.6968	2391.0957	1864.8	982.45
966.8273	2392.492	1858.65	977.1
966.9578	2393.8876	1848	966.7
967.0882	2395.2824	1845.9	963.55
967.2186	2396.6765	1850.45	970.15
967.349	2398.07	1832.1	950.85
967.4793	2399.4627	1844.75	961.45
967.6097	2400.8547	1837.4	955.95
967.7399	2402.246	1837.4	949.6
967.8702	2403.6366	1839.65	956.75
968.0004	2405.0265	1829.3	948.6
968.1306	2406.4156	1835.6	948.1
968.2607	2407.8041	1825.15	939.9
968.3909	2409.1918	1814.55	929.6
968.521	2410.5789	1816	932.95
968.651	2411.9652	1819.9	935.9
968.781	2413.3508	1816.85	935.3
968.911	2414.7358	1807.4	927.2
969.041	2416.12	1815.3	935.3
969.1709	2417.5035	1796.45	915.25
969.3008	2418.8863	1802.3	921
969.4307	2420.2684	1797.8	916.65
969.5606	2421.6497	1795.55	913.5
969.6904	2423.0304	1791.9	909.9
969.8201	2424.4104	1791.25	908.75
969.9499	2425.7896	1794	907.2
970.0796	2427.1682	1793.5	912.7
970.2093	2428.546	1785.15	901.3
970.3389	2429.9232	1790.45	904.95
970.4685	2431.2996	1782.7	900.8
970.5981	2432.6753	1775.15	892.55
970.7277	2434.0503	1774.3	891.2
970.8572	2435.4246	1769.65	887.65
970.9867	2436.7982	1763.75	879.55
971.1161	2438.1711	1752.55	872.3
971.2456	2439.5433	1764.75	884.05
971.375	2440.9148	1759.4	872.55
971.5043	2442.2856	1747.25	863.2
971.6336	2443.6557	1746.8	861.8
971.7629	2445.025	1757.15	876.6
971.8922	2446.3937	1752.95	870.1
972.0214	2447.7617	1748.15	865.8
972.1506	2449.1289	1747.8	866.15
972.2798	2450.4955	1744.15	858.95
972.4089	2451.8613	1731.25	849.25
972.538	2453.2265	1741.95	861.2
972.6671	2454.5909	1737.45	854.75
972.7961	2455.9546	1741.4	861.45
972.9251	2457.3177	1732.55	851.15
973.0541	2458.68	1725.85	843.05
973.1831	2460.0416	1729.7	848.5
973.312	2461.4025	1722.9	839.55
973.4408	2462.7627	1725.05	830.75
973.5697	2464.1222	1714.95	834.7
973.6985	2465.4811	1724.6	842
973.8273	2466.8392	1730.6	848.45
973.956	2468.1966	1715.35	831.75
974.0847	2469.5533	1719.8	837.55
974.2134	2470.9093	1718.75	835.3
974.3421	2472.2645	1709.1	825.25
974.4707	2473.6191	1705.45	823.95
974.5993	2474.973	1706.2	824.5
974.7278	2476.3262	1711.65	829.55
974.8563	2477.6787	1695	814.1
974.9848	2479.0305	1698	816.45
975.1132	2480.3816	1699.15	815.5
975.2417	2481.7319	1692.9	810.7
975.37	2483.0816	1694.35	810.7
975.4984	2484.4306	1690.15	809.55
975.6267	2485.7789	1689.6	806.45
975.755	2487.1264	1687.7	803.2
975.8833	2488.4733	1680.2	797.7
976.0115	2489.8195	1688.65	800.15
976.1397	2491.165	1674.55	788.6
976.2678	2492.5097	1670.45	785.3
976.3959	2493.8538	1666	784.95
976.524	2495.1972	1665.25	783.7
976.6521	2496.5398	1664.95	783.1
976.7801	2497.8818	1660.7	776.9
976.9081	2499.2231	1656.15	774.25
977.036	2500.5637	1656.15	774.35
977.164	2501.9035	1651.2	769.7
977.2918	2503.2427	1657.4	771.7
977.4197	2504.5812	1650.5	769.85
977.5475	2505.919	1654	769.85
977.6753	2507.256	1648.8	767.35
977.8031	2508.5924	1650.5	769.4
977.9308	2509.9281	1643.15	755.2
978.0585	2511.2631	1642.35	758.95
978.1861	2512.5974	1641.2	760.55
978.3137	2513.9309	1636.25	753.3
978.4413	2515.2638	1666.25	754.8
978.5689	2516.596	1632.05	751.2
978.6964	2517.9275	1631.3	747.85
978.8239	2519.2583	1625.8	742.25
978.9513	2520.5884	1628.5	743.15
979.0788	2521.9178	1627.2	745.95
979.2062	2523.2465	1616.7	734.3
979.3335	2524.5745	1619.55	737.8
979.4608	2525.9018	1622.4	741.35
979.5881	2527.2284	1615.15	735.5
979.7154	2528.5543	1616.2	736.4
979.8426	2529.8796	1617.45	733.7
979.9698	2531.2041	1616.85	736.1
980.0969	2532.5279	1612.2	729.3
980.224	2533.851	1613.05	731.9
980.3511	2535.1735	1610.15	730.05
980.4781	2536.4952	1605.5	725.7
980.6052	2537.8163	1601.85	721.3
980.7321	2539.1366	1604.05	725.4
980.8591	2540.4562	1591.35	705.15
980.986	2541.7752	1594.45	714.3
981.1129	2543.0935	1602.15	718.6
981.2397	2544.411	1606.35	722.15
981.3665	2545.7279	1602.25	721
981.4933	2547.0441	1598.55	715.8
981.62	2548.3596	1593.55	708.6
981.7467	2549.6744	1596	714.45
981.8734	2550.9885	1600.4	710.6
982.0001	2552.3019	1589.05	707.95
982.1267	2553.6146	1586.4	704.9
982.2532	2554.9266	1590	708.85
982.3798	2556.2379	1588.65	704.15
982.5063	2557.5485	1578.75	695.6
982.6327	2558.8585	1587.4	698
982.7592	2560.1677	1579.9	695.35
982.8856	2561.4762	1581.35	698.75
983.0119	2562.7841	1585.35	700.2
983.1383	2564.0913	1572.9	691.5
983.2646	2565.3977	1582.35	701.65
983.3908	2566.7035	1566.2	682.3
983.517	2568.0086	1577	692.5
983.6432	2569.313	1575.1	692.9
983.7694	2570.6167	1571.95	687.7
983.8955	2571.9197	1570.9	690.1
984.0216	2573.222	1581.95	697.4
984.1476	2574.5236	1567.85	684.4
984.2737	2575.8246	1572.55	687.9
984.3996	2577.1248	1567.3	683.1
984.5256	2578.4244	1566.8	685.9
984.6515	2579.7232	1571	687.85
984.7774	2581.0214	1594.35	680.25
984.9032	2582.3189	1568.75	687.35
985.029	2583.6157	1568.8	682.1
985.1548	2584.9118	1560.5	678.4
985.2806	2586.2072	1562.85	682.75
985.4063	2587.5019	1562.6	680.1
985.5319	2588.7959	1562.35	679.3
985.6576	2590.0893	1572.3	689.65
985.7832	2591.3819	1558.5	678.4
985.9087	2592.6739	1560.65	678.45
986.0343	2593.9652	1569.2	686.55
986.1597	2595.2557	1573.1	692
986.2852	2596.5456	1561.3	677.35
986.4106	2597.8348	1557.1	676.05
986.536	2599.1234	1559.9	678.8
986.6614	2600.4112	1560.75	678.95
986.7867	2601.6983	1562	676.2
986.912	2602.9848	1563.7	681.9
987.0372	2604.2705	1560.95	670.75
987.1624	2605.5556	1568.75	688.35
987.2876	2606.84	1556.6	674
987.4128	2608.1237	1553.1	670.2
987.5379	2609.4067	1560.2	679.75
987.6629	2610.689	1561.95	671.8
987.788	2611.9707	1548	660.25
987.913	2613.2516	1546.25	659.85
988.0379	2614.5319	1541.5	659.7
988.1629	2615.8115	1537.1	655.1
988.2878	2617.0903	1531.25	647.35
988.4126	2618.3685	1537.4	656.05
988.5375	2619.6461	1529.2	647.9
988.6622	2620.9229	1534.55	652.75
988.787	2622.199	1536.4	654.2
988.9117	2623.4745	1528.4	646.65
989.0364	2624.7493	1525.2	644.3
989.161	2626.0234	1521.85	639.95
989.2857	2627.2968	1522.55	640.75
989.4102	2628.5695	1527.75	646.75
989.5348	2629.8415	1525.25	642.5
989.6593	2631.1128	1513.95	631.55
989.7837	2632.3835	1510.3	630.45
989.9082	2633.6535	1518.1	636.1
990.0326	2634.9228	1504.9	623.55
990.1569	2636.1914	1509.05	628.95
990.2812	2637.4593	1511.15	626.2
990.4055	2638.7265	1505.8	622.25
990.5298	2639.9931	1500.3	618.7
990.654	2641.259	1514.8	629.8
990.7782	2642.5242	1502.4	621.75
990.9023	2643.7887	1496	613.95
991.0264	2645.0525	1508.4	628.15
991.1505	2646.3156	1495.65	613.05
991.2745	2647.5781	1491.15	608.35
991.3985	2648.8398	1496.5	615.75
991.5225	2650.1009	1524.7	606.4
991.6464	2651.3613	1492.1	609.6
991.7703	2652.6211	1485.05	602.1
991.8942	2653.8801	1489.7	608.05
992.018	2655.1385	1492.8	608.65
992.1418	2656.3961	1479.5	597.8
992.2655	2657.6531	1488.55	605.25
992.3892	2658.9094	1485.7	603.8
992.5129	2660.1651	1484.4	603.9
992.6366	2661.42	1482.8	599.75
992.7602	2662.6743	1486.05	605.05
992.8837	2663.9279	1486.5	607
993.0073	2665.1808	1488.55	606.65
993.1307	2666.433	1489.85	607.4
993.2542	2667.6846	1483.65	602
993.3776	2668.9354	1496.05	611.6
993.501	2670.1856	1497	615.4
993.6244	2671.4351	1499.85	618.55
993.7477	2672.6839	1505.1	621.15
993.8709	2673.9321	1499	617.55
993.9942	2675.1795	1497.85	613.9
994.1174	2676.4263	1497.55	616
994.2405	2677.6724	1499.2	619.25
994.3637	2678.9179	1505.55	622.8
994.4868	2680.1626	1497.2	616.35
994.6098	2681.4067	1495.05	613.95
994.7328	2682.6501	1501.2	620.3
994.8558	2683.8928	1499.75	617.95
994.9788	2685.1348	1490.95	609
995.1017	2686.3761	1490.45	608.25
995.2245	2687.6168	1483.65	604.4
995.3474	2688.8568	1473.3	590.65
995.4702	2690.0961	1472.05	592.65
995.5929	2691.3348	1478.25	597.7
995.7156	2692.5727	1474.15	590.35
995.8383	2693.81	1477.5	598.1
995.961	2695.0466	1470.35	588
996.0836	2696.2826	1475.85	592.75
996.2062	2697.5178	1472.5	587.8
996.3287	2698.7524	1467.3	585.45
996.4512	2699.9863	1472.85	589.9
996.5737	2701.2195	1475.25	594.1
996.6961	2702.452	1482.25	598.05
996.8185	2703.6839	1474.05	589.65
996.9408	2704.9151	1481	601.8
997.0631	2706.1456	1486.9	605.35
997.1854	2707.3755	1495.85	613.6
997.3077	2708.6046	1497.55	614.25
997.4299	2709.8331	1502.25	620.45
997.552	2711.0609	1512.45	628.2
997.6742	2712.2881	1509.55	627.65
997.7963	2713.5145	1521.3	634.7
997.9183	2714.7403	1525.25	644.4
998.0403	2715.9654	1528.95	646.15
998.1623	2717.1899	1556.4	658.7
998.2842	2718.4136	1551.65	672.35
998.4062	2719.6367	1569.35	686.8
998.528	2720.8591	1584.25	694.9
998.6498	2722.0809	1570	689.3
998.7716	2723.3019	1599.2	713.8
998.8934	2724.5223	1600	717.75
999.0151	2725.7421	1605	721.7
999.1368	2726.9611	1606.7	724
999.2584	2728.1795	1612.9	726.05
999.38	2729.3972	1594	712.35
999.5016	2730.6142	1603.25	709.75
999.6231	2731.8306	1574.3	691.95
999.7446	2733.0462	1558.9	674.3
999.8661	2734.2612	1545.5	659.45
999.9875	2735.4756	1525.5	642.45
1000.1089	2736.6892	1524.15	641.8
1000.2302	2737.9022	1510.1	629.2
1000.3515	2739.1145	1490.05	607.4
1000.4728	2740.3262	1489.15	601
1000.594	2741.5372	1479.15	597.1
1000.7152	2742.7475	1472.15	590.35
1000.8363	2743.9571	1451.75	570.2
1000.9575	2745.1661	1453.5	568.5
1001.0785	2746.3744	1436.15	555.15
1001.1996	2747.582	1432.35	550.85
1001.3206	2748.7889	1423.1	540.3
1001.4415	2749.9952	1421.35	539.3
1001.5625	2751.2008	1408.15	525.45
1001.6833	2752.4057	1407.4	522.85
1001.8042	2753.61	1404	521.65
1001.925	2754.8136	1407.9	525.1
1002.0458	2756.0165	1398.7	517.55
1002.1665	2757.2188	1398.15	517.15
1002.2872	2758.4204	1396.95	515.3
1002.4078	2759.6213	1402.35	519.05
1002.5285	2760.8215	1398.95	510.15
1002.649	2762.0211	1394.55	512.2
1002.7696	2763.22	1398.25	512.1
1002.8901	2764.4182	1395	513.75
1003.0106	2765.6158	1388.25	506.95
1003.131	2766.8127	1381.85	500.55
1003.2514	2768.009	1387.1	505.25
1003.3717	2769.2045	1377.85	495.1
1003.492	2770.3994	1375.5	492
1003.6123	2771.5936	1372.5	490.75
1003.7325	2772.7872	1373.1	489.85
1003.8527	2773.9801	1366.8	482.6
1003.9729	2775.1723	1383.05	484.9
1004.093	2776.3639	1369.6	488.6
1004.2131	2777.5548	1363.35	479.95
1004.3331	2778.745	1362.6	479.45
1004.4531	2779.9346	1368.25	486
1004.5731	2781.1235	1363.85	480.55
1004.693	2782.3117	1370	489.7
1004.8129	2783.4992	1372.45	490
1004.9328	2784.6861	1372.6	489.6
1005.0526	2785.8723	1375.05	494.35
1005.1723	2787.0579	1376	493.95
1005.2921	2788.2428	1382.5	500.25
1005.4118	2789.427	1386.8	505.45
1005.5314	2790.6106	1387.65	505.35
1005.651	2791.7935	1396.55	515
1005.7706	2792.9757	1389.8	508.7
1005.8902	2794.1573	1412.6	528.35
1006.0097	2795.3382	1413.3	531.95
1006.1291	2796.5184	1421.2	540.9
1006.2485	2797.698	1427.8	544.4
1006.3679	2798.8769	1436.7	552.45
1006.4873	2800.0551	1450.15	567.25
1006.6066	2801.2327	1464	579.2
1006.7258	2802.4096	1459.65	578.1
1006.8451	2803.5859	1484.8	602.4
1006.9642	2804.7615	1504.2	620.6
1007.0834	2805.9364	1513.1	632.3
1007.2025	2807.1106	1531.65	652.2
1007.3216	2808.2842	1553.55	668.5
1007.4406	2809.4572	1575.25	694
1007.5596	2810.6294	1600.65	719.05
1007.6785	2811.801	1636.05	755.2
1007.7975	2812.972	1662.3	782.85
1007.9163	2814.1423	1703	819.95
1008.0352	2815.3119	1739.65	860.2
1008.154	2816.4808	1784.1	902.55
1008.2727	2817.6491	1821.25	938.95
1008.3914	2818.8167	1867.3	987.75
1008.5101	2819.9837	1928.95	1042.25
1008.6288	2821.15	1975.8	1096.45
1008.7474	2822.3157	2016.75	1135.55
1008.8659	2823.4807	2084	1202.55
1008.9844	2824.645	2138.65	1256.1
1009.1029	2825.8086	2187.3	1307.35
1009.2214	2826.9716	2235.8	1355.25
1009.3398	2828.134	2299.2	1418.35
1009.4581	2829.2957	2332.85	1449.55
1009.5764	2830.4567	2356	1474.3
1009.6947	2831.617	2402.25	1520.75
1009.813	2832.7767	2413.9	1532.95
1009.9312	2833.9358	2401.85	1519.2
1010.0493	2835.0941	2408.7	1521.95
1010.1675	2836.2519	2385.9	1506.35
1010.2855	2837.4089	2362.8	1480.15
1010.4036	2838.5653	2366.4	1484.55
1010.5216	2839.7211	2342.2	1463.35
1010.6396	2840.8761	2334.4	1451.85
1010.7575	2842.0306	2336.35	1457.95
1010.8754	2843.1843	2349.5	1468.25
1010.9932	2844.3374	2382.2	1500.3
1011.111	2845.4899	2404.35	1520.7
1011.2288	2846.6417	2460.35	1578.6
1011.3465	2847.7928	2508.6	1628.7
1011.4642	2848.9433	2564.85	1684.15
1011.5818	2850.0931	2613.5	1733.55
1011.6995	2851.2422	2666.3	1781.9
1011.817	2852.3907	2723.5	1842.15
1011.9345	2853.5385	2773.55	1890.25
1012.052	2854.6857	2841.9	1933.85
1012.1695	2855.8323	2867.25	1985.75
1012.2869	2856.9781	2916.6	2035.15
1012.4042	2858.1233	2948.6	2067.8
1012.5216	2859.2679	2990.1	2106.2
1012.6389	2860.4118	3052.35	2170.6
1012.7561	2861.555	3098.35	2211.9
1012.8733	2862.6976	3135.65	2254.55
1012.9905	2863.8395	3163.8	2283.2
1013.1076	2864.9808	3190.4	2308.75
1013.2247	2866.1214	3231.2	2349.6
1013.3417	2867.2614	3247.75	2363.9
1013.4587	2868.4007	3258.25	2375.3
1013.5757	2869.5393	3257	2374.5
1013.6926	2870.6773	3275.35	2392.05
1013.8095	2871.8146	3303.7	2418.55
1013.9263	2872.9513	3290.5	2406.7
1014.0431	2874.0874	3283.55	2402.25
1014.1599	2875.2227	3275.2	2393.5
1014.2766	2876.3574	3260.8	2379.1
1014.3933	2877.4915	3241.25	2359.5
1014.51	2878.6249	3209.9	2326.8
1014.6266	2879.7577	3182.5	2300.4
1014.7431	2880.8898	3186.5	2291.85
1014.8596	2882.0212	3159.4	2278.5
1014.9761	2883.152	3146.25	2264.2
1015.0925	2884.2821	3127.15	2244.95
1015.2089	2885.4116	3127.7	2249
1015.3253	2886.5405	3122.8	2240.55
1015.4416	2887.6686	3137.85	2253.55
1015.5579	2888.7962	3145.7	2264.45
1015.6741	2889.923	3137.2	2255.2
1015.7903	2891.0493	3163.1	2282.85
1015.9065	2892.1748	3173.55	2291.1
1016.0226	2893.2997	3165.05	2281.05
1016.1387	2894.424	3180.8	2301
1016.2547	2895.5476	3201.95	2320.05
1016.3707	2896.6706	3213.5	2332.55
1016.4866	2897.7929	3220.35	2337.8
1016.6025	2898.9145	3262.75	2381
1016.7184	2900.0355	3268.6	2386.8
1016.8342	2901.1559	3300.45	2416.6
1016.95	2902.2756	3316.1	2437.05
1017.0658	2903.3946	3348.35	2467.65
1017.1815	2904.513	3389.75	2504.6
1017.2971	2905.6308	3408.35	2526.45
1017.4127	2906.7479	3421.7	2539.2
1017.5283	2907.8643	3451.2	2569.65
1017.6439	2908.9801	3453.85	2571.7
1017.7594	2910.0953	3463.9	2582.75
1017.8748	2911.2098	3471.45	2586.75
1017.9902	2912.3236	3460.85	2570.4
1018.1056	2913.4368	3459.2	2574.25
1018.2209	2914.5494	3420.7	2537.6
1018.3362	2915.6613	3399.85	2511.1
1018.4515	2916.7725	3380.85	2496.05
1018.5667	2917.8831	3348	2464.7
1018.6819	2918.9931	3335.2	2451.7
1018.797	2920.1024	3291.15	2409.1
1018.9121	2921.211	3271.75	2389.05
1019.0271	2922.319	3264.7	2383.1
1019.1421	2923.4264	3250.2	2369.9
1019.2571	2924.5331	3251.7	2374.55
1019.372	2925.6391	3256.05	2374.15
1019.4869	2926.7445	3237.05	2357.45
1019.6017	2927.8493	3240	2357.75
1019.7165	2928.9534	3236.6	2354.85
1019.8313	2930.0569	3243	2358.45
1019.946	2931.1597	3257.15	2372.7
1020.0606	2932.2619	3251.95	2368.75
1020.1753	2933.3634	3261.15	2379.55
1020.2899	2934.4643	3268.3	2381.45
1020.4044	2935.5645	3268.25	2380.2
1020.5189	2936.6641	3257.2	2372.35
1020.6334	2937.763	3225.15	2344.05
1020.7478	2938.8613	3183.6	2301.25
1020.8622	2939.959	3168.5	2282
1020.9765	2941.056	3106.1	2225.55
1021.0908	2942.1523	3034.3	2151.9
1021.2051	2943.248	2984.8	2100.85
1021.3193	2944.3431	2902.65	2021.85
1021.4334	2945.4375	2821.8	1939.1
1021.5476	2946.5313	2718.6	1837.25
1021.6617	2947.6244	2630.45	1747.4
1021.7757	2948.7169	2555.25	1672.5
1021.8897	2949.8087	2466.15	1582.95
1022.0037	2950.8999	2371.75	1491.05
1022.1176	2951.9904	2301.95	1421.4
1022.2315	2953.0803	2239.9	1357.3
1022.3453	2954.1696	2183.7	1303.85
1022.4591	2955.2582	2129.9	1246.75
1022.5728	2956.3462	2091.2	1209.2
1022.6865	2957.4335	2050	1167.3
1022.8002	2958.5202	2016.45	1132.6
1022.9138	2959.6062	1991.9	1109.7
1023.0274	2960.6916	1971.35	1091.7
1023.141	2961.7764	1945.7	1062.6
1023.2545	2962.8605	1936.9	1055.55
1023.3679	2963.9439	1925.7	1045.85
1023.4813	2965.0267	1921.2	1037.45
1023.5947	2966.1089	1928.4	1022.4
1023.708	2967.1905	1900.2	1017.9
1023.8213	2968.2714	1898	1018.45
1023.9346	2969.3516	1888.55	1006.8
1024.0478	2970.4312	1910.2	1018.9
1024.1609	2971.5102	1903	1022.5
1024.274	2972.5885	1908.35	1025.4
1024.3871	2973.6662	1907.7	1022.05
1024.5002	2974.7432	1906.6	1024.85
1024.6132	2975.8196	1913.9	1032.65
1024.7261	2976.8954	1901.1	1019.75
1024.839	2977.9705	1895.65	1011.35
1024.9519	2979.045	1878.35	997.2
1025.0647	2980.1188	1876.85	997.15
1025.1775	2981.192	1862.55	982.75
1025.2902	2982.2645	1840.45	959.1
1025.4029	2983.3364	1823.2	942.25
1025.5156	2984.4077	1788.75	907.15
1025.6282	2985.4783	1788.6	901.75
1025.7407	2986.5483	1754.6	873.65
1025.8532	2987.6177	1723.55	842.4
1025.9657	2988.6864	1695.15	813.35
1026.0782	2989.7545	1675.2	793.25
1026.1906	2990.8219	1625.25	744.05
1026.3029	2991.8887	1605.35	723.45
1026.4152	2992.9548	1585.55	703.5
1026.5275	2994.0204	1556	677.05
1026.6397	2995.0852	1517.4	637.9
1026.7519	2996.1495	1496.5	613.75
1026.864	2997.2131	1474.8	593.2
1026.9761	2998.276	1446	563.8
1027.0882	2999.3383	1431.35	551.45
1027.2002	3000.4	1408.75	525.6
1027.3122	3001.4611	1387.25	504.75
1027.4241	3002.5215	1375.6	491.9
1027.536	3003.5812	1364.95	484.4
1027.6478	3004.6404	1345.75	464.6
1027.7596	3005.6989	1335.6	452.95
1027.8714	3006.7567	1326.85	446.25
1027.9831	3007.8139	1341.25	433.4
1028.0947	3008.8705	1308	428
1028.2064	3009.9264	1313.3	413.25
1028.3179	3010.9818	1292.3	410.7
1028.4295	3012.0364	1283.3	402.05
1028.541	3013.0905	1276.4	395.85
1028.6524	3014.1439	1270.95	389
1028.7638	3015.1966	1268.5	385.9
1028.8752	3016.2487	1260.85	378.9
1028.9865	3017.3002	1262.85	377.45
1029.0978	3018.3511	1256.3	375
1029.209	3019.4013	1246.85	365.25
1029.3202	3020.4509	1247.7	368.15
1029.4314	3021.4998	1247.55	367.7
1029.5425	3022.5481	1242.65	361.75
1029.6535	3023.5958	1237.75	356.6
1029.7645	3024.6428	1244.9	363.8
1029.8755	3025.6892	1240.65	360.4
1029.9864	3026.735	1245.9	364.2
1030.0973	3027.7802	1239.4	357
1030.2082	3028.8247	1237.95	356.15
1030.319	3029.8685	1236.2	354.3
1030.4297	3030.9118	1245.25	361.7
1030.5404	3031.9544	1240.1	358.15
1030.6511	3032.9963	1241.75	357.9
1030.7617	3034.0376	1241.95	361.55
1030.8723	3035.0783	1251.65	368.4
1030.9829	3036.1184	1252.75	369.5
1031.0934	3037.1578	1251.4	371.9
1031.2038	3038.1966	1256.25	373.3
1031.3142	3039.2348	1258.45	377.2
1031.4246	3040.2723	1266.65	377.4
1031.5349	3041.3092	1251.05	371.75
1031.6452	3042.3455	1257.15	375
1031.7554	3043.3811	1255.4	374
1031.8656	3044.4161	1252.8	370.35
1031.9758	3045.4505	1254	376
1032.0859	3046.4842	1250.55	368.1
1032.1959	3047.5173	1245	363
1032.3059	3048.5498	1243.2	360.15
1032.4159	3049.5816	1245.5	362.45
1032.5258	3050.6128	1239.9	356.6
1032.6357	3051.6434	1243.4	359.35
1032.7455	3052.6734	1236.7	354.3
1032.8553	3053.7027	1236.55	355.1
1032.9651	3054.7314	1227.2	346.75
1033.0748	3055.7594	1228.6	347.9
1033.1845	3056.7868	1225.85	343.35
1033.2941	3057.8136	1223.35	342.4
1033.4037	3058.8398	1217.85	335.05
1033.5132	3059.8653	1216.35	335
1033.6227	3060.8902	1213.95	333.75
1033.7321	3061.9145	1213.45	333.65
1033.8415	3062.9381	1214.85	332.75
1033.9509	3063.9612	1228.6	333.3
1034.0602	3064.9835	1210.95	330.3
1034.1694	3066.0053	1201.15	319.95
1034.2787	3067.0264	1204.6	322.15
1034.3878	3068.0469	1199.3	315.85
1034.497	3069.0668	1197.5	314.05
1034.6061	3070.086	1196.05	315.55
1034.7151	3071.1046	1188.85	305.35
1034.8241	3072.1226	1184.15	302.45
1034.9331	3073.1399	1171.4	289.05
1035.042	3074.1567	1174.95	293.35
1035.1508	3075.1727	1168.75	284.3
1035.2597	3076.1882	1162.1	283.55
1035.3684	3077.203	1155.75	275.7
1035.4772	3078.2173	1146.8	264.1
1035.5859	3079.2308	1148.8	263.85
1035.6945	3080.2438	1137.35	255.05
1035.8031	3081.2561	1131.55	250.6
1035.9117	3082.2678	1120.3	239.1
1036.0202	3083.2789	1121.85	243.2
1036.1286	3084.2893	1115.1	233.45
1036.2371	3085.2991	1109.4	229.55
1036.3454	3086.3083	1111.3	224.3
1036.4538	3087.3169	1101.6	221.1
1036.562	3088.3248	1101.2	218.2
1036.6703	3089.3321	1093.95	211.05
1036.7785	3090.3388	1092.15	213.1
1036.8866	3091.3449	1086.5	205.95
1036.9948	3092.3503	1079.7	196.5
1037.1028	3093.3551	1073.45	192.5
1037.2108	3094.3593	1074.45	193.2
1037.3188	3095.3629	1074.7	195.4
1037.4267	3096.3658	1076.5	193.65
1037.5346	3097.3681	1070.4	189.65
1037.6425	3098.3698	1069.3	188
1037.7503	3099.3708	1068.45	181.2
1037.858	3100.3713	1060.9	181.7
1037.9657	3101.3711	1056.8	175
1038.0734	3102.3702	1196.05	173.25
1038.181	3103.3688	1055.25	172.7
1038.2886	3104.3667	1053.1	171.65
1038.3961	3105.364	1047.4	167.2
1038.5036	3106.3607	1046	162.4
1038.611	3107.3568	1043.45	161.7
1038.7184	3108.3522	1041.95	161.05
1038.8257	3109.347	1043.05	162.75
1038.933	3110.3412	1042.2	157.9
1039.0403	3111.3348	1036.7	155.4
1039.1475	3112.3277	1035.4	154.95
1039.2547	3113.32	1033.05	152.55
1039.3618	3114.3117	1031	150.25
1039.4689	3115.3028	1033.65	152.55
1039.5759	3116.2932	1030.4	148
1039.6829	3117.2831	1031.6	144.95
1039.7898	3118.2723	1024.6	145.4
1039.8967	3119.2608	1025.7	144
1040.0035	3120.2488	1023.8	142.7
1040.1103	3121.2361	1021.4	140.55
1040.2171	3122.2229	1018.65	136.9
1040.3238	3123.209	1021.1	141.2
1040.4305	3124.1944	1013.6	131.7
1040.5371	3125.1793	1016.3	134.75
1040.6437	3126.1635	1009.65	131.1
1040.7502	3127.1471	1016.5	133.9
1040.8567	3128.1301	1013.2	131
1040.9631	3129.1125	1010.75	130.05
1041.0695	3130.0942	1009.25	127.9
1041.1759	3131.0753	1018.3	130.2
1041.2822	3132.0558	1008.25	125.7
1041.3884	3133.0357	1007.9	125.35
1041.4946	3134.015	1006.1	125
1041.6008	3134.9936	1008.7	125.35
1041.7069	3135.9716	1021.95	116.05
1041.813	3136.949	1002.75	122.45
1041.919	3137.9258	1023.25	124.8
1042.025	3138.902	1008.6	122.5
1042.1309	3139.8775	1001.15	120.35
1042.2368	3140.8524	996.45	114.2
1042.3427	3141.8267	999.15	115.85
1042.4485	3142.8004	995.6	112.45
1042.5542	3143.7735	1001.5	113.85
1042.6599	3144.7459	999.7	115.75
1042.7656	3145.7178	996.35	115.1
1042.8712	3146.689	990.85	110.75
1042.9768	3147.6596	992.7	109.55
1043.0823	3148.6295	992.95	111.7
1043.1878	3149.5989	989.2	108.8
1043.2932	3150.5676	991.25	110.95
1043.3986	3151.5357	984.2	106.15
1043.5039	3152.5032	989.85	109.45
1043.6092	3153.4701	988.85	109.25
1043.7145	3154.4364	985.95	102.95
1043.8197	3155.402	984.75	105.05
1043.9248	3156.367	984.6	103
1044.03	3157.3315	1014.4	100.7
1044.135	3158.2952	984.9	104.3
1044.24	3159.2584	982.85	103
1044.345	3160.221	983.4	100.95
1044.4499	3161.1829	985.6	104.65
1044.5548	3162.1442	981.4	101.6
1044.6596	3163.105	980.05	99.55
1044.7644	3164.065	979.75	97.15
1044.8692	3165.0245	980.6	97.2
1044.9739	3165.9834	977.9	98.05
1045.0785	3166.9416	976.8	94.8
1045.1831	3167.8993	979.6	99.35
1045.2877	3168.8563	980.1	98.35
1045.3922	3169.8127	978.3	98.1
1045.4966	3170.7684	976.4	93.6
1045.6011	3171.7236	975.75	94.1
1045.7054	3172.6782	973.5	92
1045.8098	3173.6321	976.1	95.35
1045.914	3174.5854	978.5	92.75
1046.0183	3175.5381	973.05	92.65
1046.1224	3176.4902	971.8	91.5
1046.2266	3177.4417	966.85	85.4
1046.3307	3178.3926	970.8	90.85
1046.4347	3179.3428	968.1	87.15
1046.5387	3180.2924	968.2	89.2
1046.6427	3181.2415	968.15	86.35
1046.7466	3182.1899	971.55	88.85
1046.8504	3183.1377	971.3	91.9
1046.9542	3184.0848	971.45	89.7
1047.058	3185.0314	966.95	84.9
1047.1617	3185.9773	964.2	84
1047.2654	3186.9227	969.25	87.25
1047.369	3187.8674	966.35	85.65
1047.4726	3188.8115	968.95	83.5
1047.5761	3189.755	965.2	82.75
1047.6796	3190.6979	966.15	85.4
1047.783	3191.6402	962.7	81.45
1047.8864	3192.5818	964.1	83
1047.9898	3193.5229	979.5	77.6
1048.0931	3194.4633	961.5	82.3
1048.1963	3195.4031	964.7	85.4
1048.2995	3196.3423	958.7	78.3
1048.4027	3197.2809	958.65	78.55
1048.5058	3198.2189	960.65	78.2
1048.6089	3199.1563	964.75	77.3
1048.7119	3200.0931	961.85	81.7
1048.8148	3201.0292	957.55	76.85
1048.9178	3201.9648	958.95	78.5
1049.0206	3202.8997	962.5	79.15
1049.1235	3203.834	957.05	74.9
1049.2262	3204.7677	956.2	77.75
1049.329	3205.7008	957.9	73.15
1049.4317	3206.6333	955.05	74.45
1049.5343	3207.5652	958.05	74.05
1049.6369	3208.4964	954.15	72.45
1049.7394	3209.4271	954.8	75.65
1049.8419	3210.3571	953.7	71.8
1049.9444	3211.2865	954.35	72.6
1050.0468	3212.2154	955.05	74.2
1050.1491	3213.1436	956.95	71.6
1050.2514	3214.0712	958.4	69.05
1050.3537	3214.9982	952.5	70.1
1050.4559	3215.9246	950.3	70.1
1050.5581	3216.8503	948.9	68.1
1050.6602	3217.7755	950.8	68.95
1050.7623	3218.7001	952.4	72.45
1050.8643	3219.624	947.2	65.7
1050.9663	3220.5473	948.8	67.55
1051.0682	3221.4701	950.3	69.25
1051.1701	3222.3922	949.55	67.75
1051.2719	3223.3137	948.1	66.85
1051.3737	3224.2346	946.55	65.05
1051.4754	3225.1549	949.65	69.9
1051.5771	3226.0746	947.4	64.55
1051.6788	3226.9937	942.6	61.75
1051.7804	3227.9121	947.95	67.7
1051.8819	3228.83	944.8	61.1
1051.9834	3229.7473	946.35	65.1
1052.0849	3230.6639	943.95	62.7
1052.1863	3231.5799	943.55	63.95
1052.2876	3232.4954	946.7	65.15
1052.3889	3233.4102	942	61.4
1052.4902	3234.3244	941.5	58.15
1052.5914	3235.238	942.5	61.2
1052.6926	3236.151	968.15	62.6
1052.7937	3237.0634	944.3	66.15
1052.8948	3237.9752	941.5	60.3
1052.9958	3238.8864	940.8	58.25
1053.0968	3239.797	943.75	63.5
1053.1977	3240.7069	942.5	59.5
1053.2986	3241.6163	941.2	59.75
1053.3994	3242.5251	940.45	61.5
1053.5002	3243.4332	938.65	56.75
1053.6009	3244.3408	940.7	59.3
1053.7016	3245.2477	938.3	58.1
1053.8022	3246.154	941.6	61.5
1053.9028	3247.0598	936.6	53.2
1054.0034	3247.9649	938.8	57.75
1054.1039	3248.8694	938.8	56.75
1054.2043	3249.7733	939.15	58.85
1054.3047	3250.6766	935.05	54.85
1054.4051	3251.5793	938.25	56.05
1054.5054	3252.4814	937.15	55.35
1054.6056	3253.3829	935.35	53.2
1054.7058	3254.2838	935.3	55.25
1054.806	3255.1841	932.3	51.4
1054.9061	3256.0838	934.45	53.75
1055.0061	3256.9829	932	52.25
1055.1062	3257.8814	934.25	52.2
1055.2061	3258.7792	935.1	51.45
1055.306	3259.6765	929.2	47.7
1055.4059	3260.5731	929.75	48.45
1055.5057	3261.4692	931.1	49.8
1055.6055	3262.3647	931	49.4
1055.7052	3263.2595	927.05	46.9
1055.8049	3264.1538	926.7	45.65
1055.9045	3265.0474	928.7	48.2
1056.0041	3265.9404	925.6	45.2
1056.1036	3266.8329	923.95	45
1056.2031	3267.7247	935.55	44.15
1056.3025	3268.616	921.4	41.3
1056.4019	3269.5066	920.3	40.45
1056.5013	3270.3966	920.85	37.6
1056.6005	3271.286	919.5	40.05
