Software Version:	3.9.2.0
Unit SN:	10000200
Spectrometer SN:	6960
Date:	3/14/2024 2:03:53 PM
Data Line Index:	25
Spectral Points:	2048
Integration time (ms):	125
Averages:	20
Delay (ms):	30000
Sequence Number:	1
Processing:	dark subtract
Laser Power (mW):	300
Laser Current (mA):	825
Laser Diode Temp (C):	25
Laser Case Temp (C):	29
System Temp (C):	29
Spectrometer Temp (C):	26.8
CCD Temp (C):	0.004
Secondary Temp (C):	19.982
Heatsink Temp (C):	24.601
CCDPCB Temp (C):	38.352
SecondaryPCB Temp (C):	36.085

Wavelength	RamanShift	Raw Counts	Dark Subtracted
787.061	30.1047	453.6	40.35
787.2016	32.3739	450.6	41.8
787.3422	34.6426	454.65	42
787.4828	36.9109	456.6	42.95
787.6235	39.1787	465.75	47.9
787.7642	41.4461	476.35	54.35
787.9049	43.7131	486.25	62.1
788.0456	45.9796	494.4	66.2
788.1863	48.2456	504.9	72.35
788.3271	50.5112	508.3	71.95
788.4679	52.7764	517.3	78.05
788.6087	55.0411	526.45	84.65
788.7496	57.3054	535.15	88.15
788.8904	59.5692	545.1	94.5
789.0313	61.8326	558.75	107.1
789.1722	64.0955	570.7	113.95
789.3132	66.3579	585.05	122.75
789.4541	68.6199	601.65	135.35
789.5951	70.8815	629.25	161.3
789.7361	73.1426	691.2	218.9
789.8771	75.4032	845.4	368.45
790.0181	77.6634	1248.5	766.8
790.1592	79.9231	2177.1	1688.6
790.3003	82.1824	4234.95	3736.15
790.4414	84.4412	7995.95	7478.8
790.5825	86.6995	13329.95	12790.85
790.7237	88.9574	18768.1	18207.9
790.8648	91.2148	22641.55	22068.15
791.006	93.4717	24584.8	24002.2
791.1472	95.7282	25120.8	24531.35
791.2885	97.9842	25168.05	24576.85
791.4297	100.2398	24802.2	24205.15
791.571	102.4949	24382.75	23780.4
791.7123	104.7495	23743.5	23139.4
791.8536	107.0036	23053.3	22448.15
791.9949	109.2573	22378.65	21778.05
792.1363	111.5105	21699.5	21095.5
792.2777	113.7632	21034.65	20428.1
792.4191	116.0154	20468.75	19852.8
792.5605	118.2672	20054.3	19446
792.7019	120.5185	19584.05	18970.65
792.8434	122.7693	19242.55	18627.35
792.9849	125.0197	18994.4	18376.55
793.1264	127.2696	18697.25	18080.1
793.2679	129.519	18584.65	17959.4
793.4094	131.7679	18420.4	17796.1
793.551	134.0163	18315.1	17686.8
793.6926	136.2642	18207.3	17573.35
793.8342	138.5117	18069	17425.95
793.9758	140.7587	17876.45	17238.95
794.1175	143.0052	17743	17101.8
794.2591	145.2512	17606.55	16969.2
794.4008	147.4967	17449.2	16809.95
794.5425	149.7417	17309.05	16666.15
794.6842	151.9863	17206.95	16558.55
794.826	154.2304	17160.6	16511.1
794.9677	156.4739	17010.75	16356.6
795.1095	158.717	16959.1	16304.2
795.2513	160.9596	16823.55	16164.85
795.3931	163.2017	16616.8	15956.7
795.535	165.4433	16352.65	15691
795.6768	167.6844	16072.05	15409
795.8187	169.925	15794.85	15129.35
795.9606	172.1651	15449.6	14780.05
796.1025	174.4047	15213.25	14538.85
796.2445	176.6439	14938.6	14261.85
796.3864	178.8825	14711.1	14034.1
796.5284	181.1206	14544.35	13864.8
796.6704	183.3582	14370.3	13685.35
796.8124	185.5954	14309.2	13623.2
796.9544	187.832	14180.55	13491.4
797.0965	190.0681	14124.65	13433.85
797.2386	192.3037	14107.9	13413.65
797.3806	194.5388	14089.65	13391.35
797.5228	196.7734	14129.3	13430.55
797.6649	199.0075	14175.3	13471.7
797.807	201.2411	14282.55	13575.35
797.9492	203.4742	14322.65	13616.95
798.0914	205.7068	14404.8	13698.75
798.2336	207.9389	14469.35	13759.65
798.3758	210.1704	14605.95	13895.9
798.518	212.4015	14680.6	13965.25
798.6603	214.632	14825.8	14113.1
798.8025	216.862	15006.95	14304.85
798.9448	219.0915	15127.7	14429.3
799.0871	221.3205	15352.25	14657
799.2294	223.549	15599.65	14908.95
799.3718	225.777	15900.95	15209.9
799.5141	228.0044	16292.6	15600.1
799.6565	230.2314	16735.7	16043.7
799.7989	232.4578	17177.7	16484.5
799.9413	234.6837	17539.4	16836.5
800.0837	236.909	17778.95	17078.35
800.2262	239.1339	17714.6	16988.7
800.3687	241.3582	17447.45	16737.85
800.5111	243.582	17098.4	16356.95
800.6536	245.8053	16684.45	15953.75
800.7961	248.0281	16327.9	15606.1
800.9387	250.2503	16058.1	15327.15
801.0812	252.472	15836.9	15104.75
801.2238	254.6932	15706.1	14968.75
801.3664	256.9139	15617.1	14876.95
801.509	259.134	15513.9	14773.15
801.6516	261.3536	15415.85	14675.75
801.7942	263.5727	15390	14647.2
801.9369	265.7912	15253.6	14513.8
802.0795	268.0092	15191.9	14450
802.2222	270.2267	15084.85	14345.25
802.3649	272.4436	15025.7	14281.9
802.5076	274.6601	14986.9	14236.05
802.6504	276.8759	14906.1	14160.4
802.7931	279.0913	14930.6	14184.4
802.9359	281.3061	14933.95	14183.3
803.0787	283.5204	15026	14275.9
803.2215	285.7341	15105.3	14354.7
803.3643	287.9473	15304.25	14538.05
803.5071	290.16	15527.75	14763.5
803.6499	292.3721	15813.05	15057.45
803.7928	294.5837	16208.8	15452.6
803.9357	296.7947	16504.6	15744.35
804.0786	299.0052	16712.45	15955.85
804.2215	301.2152	16557.6	15798.8
804.3644	303.4246	16210.5	15454.65
804.5074	305.6334	15672.2	14914.45
804.6503	307.8418	15194.95	14436.3
804.7933	310.0495	14852.6	14092.05
804.9363	312.2568	14550.8	13792.35
805.0793	314.4635	14386.4	13627
805.2223	316.6696	14318.25	13553.2
805.3653	318.8752	14315.25	13543.1
805.5084	321.0802	14358.95	13599.25
805.6514	323.2847	14486.6	13719.35
805.7945	325.4887	14529.85	13763.65
805.9376	327.692	14468.95	13700.95
806.0807	329.8949	14354.8	13585.2
806.2238	332.0972	14096.85	13328.05
806.367	334.2989	13852	13082.65
806.5101	336.5001	13585.55	12813.7
806.6533	338.7007	13406.35	12633.25
806.7965	340.9008	13291.8	12518.25
806.9397	343.1003	13162.5	12388.7
807.0829	345.2992	13125.6	12346.1
807.2261	347.4976	13103.35	12325
807.3693	349.6955	13108.3	12327.25
807.5126	351.8927	13156.8	12376.1
807.6559	354.0895	13148.5	12353.6
807.7991	356.2856	13186.35	12399.8
807.9424	358.4812	13161.7	12379.8
808.0857	360.6763	13200.3	12414.95
808.2291	362.8707	13133.25	12347.05
808.3724	365.0646	13139.05	12351.55
808.5158	367.258	13128.3	12337.8
808.6591	369.4508	13114.4	12322.2
808.8025	371.643	13166.05	12375.15
808.9459	373.8346	13143.05	12350.1
809.0893	376.0257	13107.8	12311.05
809.2327	378.2162	13009.35	12212.2
809.3762	380.4062	12884.2	12081.35
809.5196	382.5956	12780.55	11975.55
809.6631	384.7844	12662.65	11864.1
809.8066	386.9726	12544.65	11740.35
809.9501	389.1603	12508.2	11704.55
810.0936	391.3474	12461.85	11632.2
810.2371	393.5339	12452.8	11653.9
810.3806	395.7199	12365.55	11570.15
810.5241	397.9052	12426.7	11634.6
810.6677	400.09	12386.45	11594.15
810.8113	402.2743	12398.2	11606.2
810.9548	404.4579	12460.6	11673.35
811.0984	406.641	12558	11766
811.2421	408.8235	12748.4	11954
811.3857	411.0054	13039.35	12243.3
811.5293	413.1868	13510.7	12713.15
811.673	415.3675	13827.15	13028.45
811.8166	417.5477	14033.8	13232.95
811.9603	419.7273	14028.7	13226.25
812.104	421.9064	13916.55	13105.3
812.2477	424.0848	13764.4	12956.7
812.3914	426.2627	13562.4	12751.85
812.5351	428.4399	13307.85	12499.85
812.6788	430.6166	12970.45	12156.95
812.8226	432.7928	12634	11818.4
812.9663	434.9683	12330.35	11515
813.1101	437.1432	12154.25	11339.25
813.2539	439.3176	11996.85	11181.6
813.3977	441.4914	11895.85	11079.9
813.5415	443.6645	11874.95	11056.35
813.6853	445.8371	11822.1	11003.8
813.8291	448.0091	11746.85	10932.3
813.973	450.1806	11669.65	10853.55
814.1168	452.3514	11652	10829.1
814.2607	454.5216	11633.5	10804.95
814.4046	456.6913	11552.15	10731.4
814.5485	458.8603	11544.25	10725
814.6924	461.0288	11598.45	10780.4
814.8363	463.1967	11647.75	10826
814.9802	465.3639	11767.35	10946.85
815.1241	467.5306	11857.65	11033.6
815.2681	469.6967	11996.7	11172.6
815.412	471.8622	12123.35	11298.75
815.556	474.0271	12276.65	11454.2
815.7	476.1914	12316	11493.1
815.844	478.3551	12274.1	11449.75
815.988	480.5182	12255.1	11430.1
816.132	482.6807	12203.85	11376.8
816.276	484.8426	12246.05	11420
816.4201	487.0039	12454.45	11630.3
816.5641	489.1647	12796.7	11969.85
816.7082	491.3248	13168.95	12343.8
816.8522	493.4843	13366.25	12540.6
816.9963	495.6432	13352.5	12525.2
817.1404	497.8015	13267.7	12440.55
817.2845	499.9592	13279.55	12450.5
817.4286	502.1163	13271.9	12441.95
817.5727	504.2728	13069.3	12240
817.7168	506.4287	12825.1	11994.2
817.861	508.5839	12431.15	11602.55
818.0051	510.7386	12103.15	11269.75
818.1493	512.8927	11903	11063.6
818.2935	515.0461	11758.2	10926.8
818.4377	517.199	11684.55	10852.05
818.5818	519.3512	11591.5	10760
818.726	521.5029	11555.9	10718.6
818.8703	523.6539	11584.35	10748.25
819.0145	525.8043	11589.75	10755.15
819.1587	527.9541	11607.45	10770.45
819.303	530.1033	11628.05	10794.65
819.4472	532.2519	11714.15	10876.85
819.5915	534.3999	11849.2	11008.15
819.7357	536.5472	12145.2	11308
819.88	538.694	12613.05	11774.5
820.0243	540.8401	13159.4	12322.35
820.1686	542.9856	13593.5	12753.35
820.3129	545.1305	13787.35	12947.75
820.4572	547.2748	13611.3	12769.85
820.6016	549.4185	13243.85	12400.7
820.7459	551.5615	12877.95	12038.85
820.8902	553.704	12714	11872.05
821.0346	555.8458	12594.8	11754.95
821.1789	557.987	12521.25	11684.15
821.3233	560.1276	12398.35	11560.9
821.4677	562.2675	12327.6	11491.05
821.6121	564.4069	12223.3	11384.5
821.7565	566.5456	12104.6	11263.8
821.9009	568.6837	11959.05	11121
822.0453	570.8212	11736.35	10897.25
822.1897	572.958	11557.85	10716.7
822.3342	575.0942	11407.4	10568.9
822.4786	577.2299	11314.2	10473.55
822.6231	579.3648	11327	10484.9
822.7675	581.4992	11421.8	10578.55
822.912	583.6329	11581	10738.1
823.0565	585.766	11799.6	10960.1
823.201	587.8985	11939.85	11100.5
823.3454	590.0304	11925.15	11072.5
823.4899	592.1616	11845	11001.15
823.6345	594.2922	11762.75	10918.4
823.779	596.4222	11665.15	10820.55
823.9235	598.5515	11504.35	10658
824.068	600.6802	11342.95	10500
824.2126	602.8083	11146.7	10301.45
824.3571	604.9358	11081.6	10237.05
824.5017	607.0626	10991.25	10146.05
824.6462	609.1888	10903.75	10060.2
824.7908	611.3144	10796.4	9949.55
824.9354	613.4393	10669	9823.2
825.08	615.5636	10516.85	9670.15
825.2246	617.6873	10387.7	9540.5
825.3692	619.8103	10376.05	9524.85
825.5138	621.9327	10281.5	9432
825.6584	624.0544	10264.55	9417.5
825.803	626.1756	10298.35	9449.25
825.9477	628.2961	10265.85	9416.1
826.0923	630.4159	10219.4	9370.5
826.237	632.5351	10138.75	9289.65
826.3816	634.6537	10091.05	9240.85
826.5263	636.7716	10072.6	9221.9
826.6709	638.8889	10037.75	9189.2
826.8156	641.0056	10063.75	9212.8
826.9603	643.1216	10030.8	9179.45
827.105	645.237	10067.05	9213.2
827.2497	647.3518	10046.1	9195.9
827.3944	649.4659	10099.95	9243.75
827.5391	651.5793	10093.05	9239.7
827.6838	653.6922	10077.5	9227.05
827.8285	655.8043	10053.2	9203.6
827.9733	657.9159	10012.2	9155.75
828.118	660.0268	9912.65	9057.3
828.2627	662.137	9846.15	8992.6
828.4075	664.2466	9794.65	8940.1
828.5522	666.3556	9788.2	8932.95
828.697	668.4639	9779.8	8923.9
828.8418	670.5716	9831.45	8976.5
828.9865	672.6786	9896.85	9041.1
829.1313	674.785	9949.45	9092.3
829.2761	676.8907	10003.95	9147.65
829.4209	678.9958	10088.8	9234.6
829.5657	681.1002	10053.2	9196.3
829.7105	683.204	10025.45	9165.95
829.8553	685.3072	9969.9	9112.7
830.0001	687.4097	9892.05	9035.8
830.1449	689.5115	9787.75	8930.95
830.2898	691.6127	9750.15	8894
830.4346	693.7132	9678.2	8821.35
830.5794	695.8131	9635.2	8755.1
830.7243	697.9123	9567.3	8711.85
830.8691	700.0109	9515.35	8656.85
831.014	702.1089	9480.5	8622.2
831.1588	704.2061	9475.7	8613.6
831.3037	706.3028	9483.95	8623.3
831.4486	708.3987	9527.6	8665.5
831.5935	710.4941	9609.15	8748.55
831.7383	712.5887	9772.6	8913.05
831.8832	714.6827	10034.25	9171.15
832.0281	716.7761	10399.25	9538.1
832.173	718.8688	10715.2	9855.05
832.3179	720.9608	10876.15	10012.65
832.4628	723.0522	10877.7	10010.8
832.6077	725.1429	10659.1	9798.7
832.7527	727.233	10327.3	9466.95
832.8976	729.3224	10020.3	9158.35
833.0425	731.4112	9710.5	8847.65
833.1874	733.4993	9505.15	8641.15
833.3324	735.5867	9376.3	8514
833.4773	737.6735	9328.8	8464.6
833.6222	739.7596	9279.1	8415.6
833.7672	741.845	9264.45	8400.25
833.9122	743.9298	9238.35	8373.15
834.0571	746.014	9244.95	8384.1
834.2021	748.0974	9230.2	8366.25
834.347	750.1802	9230.75	8367.95
834.492	752.2624	9225.65	8363.25
834.637	754.3439	9223.35	8360.2
834.782	756.4247	9278.8	8403.5
834.9269	758.5048	9324.1	8458.8
835.0719	760.5843	9494.1	8630.1
835.2169	762.6631	9695.95	8832.45
835.3619	764.7413	10051.35	9186.7
835.5069	766.8188	10531.1	9662.65
835.6519	768.8956	10954.95	10089.1
835.7969	770.9718	11185.95	10320.5
835.9419	773.0473	11057.95	10193
836.0869	775.1221	10777.6	9913.3
836.232	777.1962	10442.55	9576.75
836.377	779.2697	10257.9	9392.4
836.522	781.3426	10323.3	9441.25
836.667	783.4147	10567.1	9698.7
836.8121	785.4862	10861.5	9993.95
836.9571	787.557	10878.7	10010.95
837.1021	789.6271	10558.85	9690.8
837.2472	791.6966	10088	9221.9
837.3922	793.7654	9594.9	8728.25
837.5373	795.8335	9349.75	8481.75
837.6823	797.901	9191.35	8324.85
837.8274	799.9678	9103.85	8232.9
837.9724	802.0339	9141.05	8275.75
838.1175	804.0993	9187.2	8310.45
838.2626	806.1641	9177.75	8308.15
838.4076	808.2282	9145.8	8280.1
838.5527	810.2916	9022	8151.15
838.6978	812.3544	8927.6	8061.85
838.8428	814.4164	8842.85	7976.95
838.9879	816.4778	8864.85	7998.5
839.133	818.5385	8809.75	7942.05
839.2781	820.5986	8826.35	7956.7
839.4232	822.658	8895.05	8025.45
839.5682	824.7166	8900.6	8034.55
839.7133	826.7747	9012.1	8144.1
839.8584	828.832	9111.3	8244.7
840.0035	830.8886	9164.45	8295.5
840.1486	832.9446	9273.1	8403.2
840.2937	834.9999	9330.6	8466.05
840.4388	837.0545	9437.2	8565.8
840.5839	839.1085	9489.35	8619.75
840.729	841.1618	9483.55	8611.05
840.8741	843.2143	9468.8	8599.75
841.0192	845.2662	9398.75	8528.75
841.1643	847.3175	9347.15	8478.05
841.3095	849.368	9233.6	8364.6
841.4546	851.4179	9123	8253.7
841.5997	853.467	9033.55	8164.25
841.7448	855.5155	8918.8	8049.25
841.8899	857.5633	8820	7948.85
842.0351	859.6105	8722.5	7854.45
842.1802	861.6569	8638.4	7767.55
842.3253	863.7027	8556.1	7683.15
842.4704	865.7478	8544.65	7674.55
842.6156	867.7922	8550.6	7679.35
842.7607	869.8359	8598.75	7727.55
842.9058	871.8789	8708.1	7835.7
843.0509	873.9212	8867.75	7962.15
843.1961	875.9629	8992.1	8121.15
843.3412	878.0039	9160.9	8289.15
843.4863	880.0441	9219.45	8348.7
843.6315	882.0837	9201.7	8327.8
843.7766	884.1226	9094.35	8222.1
843.9218	886.1609	8965.45	8094.05
844.0669	888.1984	8833.1	7962.15
844.212	890.2352	8757.45	7887.35
844.3572	892.2714	8703.7	7828.6
844.5023	894.3069	8671	7797.95
844.6475	896.3416	8609.5	7735.65
844.7926	898.3757	8567.9	7696.15
844.9377	900.4091	8572.45	7698.35
845.0829	902.4418	8594.25	7716.2
845.228	904.4739	8582.05	7707.7
845.3732	906.5052	8578.4	7705.35
845.5183	908.5358	8469.65	7598.3
845.6635	910.5658	8338.55	7465.55
845.8086	912.595	8204.75	7334.05
845.9538	914.6236	8068.8	7195.2
846.0989	916.6515	8054.05	7178.9
846.2441	918.6786	8031.9	7157.95
846.3892	920.7051	8110.35	7235.8
846.5344	922.7309	8198.65	7322.8
846.6795	924.756	8266.95	7395.35
846.8246	926.7804	8327.85	7452.6
846.9698	928.8041	8279.5	7403.1
847.1149	930.8272	8292.45	7420.05
847.2601	932.8495	8251.45	7376.2
847.4052	934.8711	8155.15	7280.6
847.5504	936.892	8014.9	7139.9
847.6955	938.9123	7880.25	7004.5
847.8407	940.9318	7744	6870.2
847.9858	942.9506	7621.3	6744.45
848.131	944.9688	7533	6657.75
848.2761	946.9862	7486.5	6609.8
848.4213	949.003	7464.2	6591.35
848.5664	951.019	7457.45	6580.05
848.7115	953.0344	7496.55	6620.75
848.8567	955.0491	7523.65	6645.65
849.0018	957.063	7591.9	6718.7
849.147	959.0763	7664.65	6788.15
849.2921	961.0888	7710.5	6833.15
849.4373	963.1007	7770.85	6896.2
849.5824	965.1119	7794.35	6918.85
849.7275	967.1223	7807.75	6933.15
849.8727	969.1321	7841.2	6965.75
850.0178	971.1412	7871.15	6996.8
850.1629	973.1495	7877.85	7002.15
850.3081	975.1572	7930.2	7021.6
850.4532	977.1641	7919.55	7045
850.5983	979.1704	7896.3	7019.5
850.7435	981.1759	7884.9	7004.3
850.8886	983.1808	7956.15	7080.7
851.0337	985.1849	8049.9	7162
851.1788	987.1884	8165.4	7288.9
851.324	989.1911	8335.75	7457
851.4691	991.1932	8457.4	7579.2
851.6142	993.1945	8501.9	7626.5
851.7593	995.1951	8470.95	7594.15
851.9045	997.1951	8427.85	7546.6
852.0496	999.1943	8373.95	7498.7
852.1947	1001.1928	8306.6	7432
852.3398	1003.1906	8292.45	7417
852.4849	1005.1877	8297.15	7418.45
852.63	1007.1841	8268.25	7392.45
852.7751	1009.1798	8165.45	7287.3
852.9202	1011.1748	8008.3	7133.6
853.0653	1013.1691	7824.2	6948.3
853.2104	1015.1627	7634.45	6756.95
853.3555	1017.1556	7473.05	6594.25
853.5006	1019.1477	7413.55	6537
853.6457	1021.1392	7344.7	6469.15
853.7908	1023.1299	7363.15	6485.7
853.9359	1025.12	7378	6499.2
854.081	1027.1093	7416.95	6541.65
854.2261	1029.0979	7482.45	6606.8
854.3712	1031.0859	7517.6	6640.6
854.5163	1033.0731	7499.6	6621.9
854.6613	1035.0596	7425.65	6549.5
854.8064	1037.0454	7312.85	6437.15
854.9515	1039.0304	7207.85	6331.9
855.0965	1041.0148	7102.7	6225.25
855.2416	1042.9985	7027.5	6148.95
855.3867	1044.9814	6995.4	6119.25
855.5317	1046.9636	6946.85	6067.95
855.6768	1048.9452	6938.3	6063.35
855.8219	1050.926	6927.6	6049.4
855.9669	1052.9061	6899.15	6023.8
856.112	1054.8855	6882.9	6006.85
856.257	1056.8642	6919.9	6042.8
856.4021	1058.8421	6956.45	6073.45
856.5471	1060.8194	6985.75	6108.3
856.6921	1062.7959	6986.15	6110.2
856.8372	1064.7717	6996.35	6117.25
856.9822	1066.7469	6986.9	6108.65
857.1272	1068.7213	6961.65	6082.45
857.2723	1070.695	6922.4	6044.95
857.4173	1072.6679	6884.6	6006.15
857.5623	1074.6402	6832.65	5954.55
857.7073	1076.6117	6827.4	5944.1
857.8523	1078.5826	6817.1	5938.55
857.9973	1080.5527	6893.05	6010.7
858.1423	1082.5221	7007.95	6131.2
858.2873	1084.4908	7189.4	6310.4
858.4323	1086.4587	7399.65	6519.2
858.5773	1088.426	7513.95	6635.8
858.7223	1090.3925	7507	6621.7
858.8673	1092.3584	7452.85	6574.35
859.0123	1094.3235	7306.8	6428.95
859.1573	1096.2879	7191.2	6312.2
859.3022	1098.2515	7145.55	6268.2
859.4472	1100.2145	7160.6	6282.7
859.5922	1102.1767	7238.5	6354.4
859.7371	1104.1382	7346.75	6469.05
859.8821	1106.099	7504.4	6623.6
860.027	1108.0591	7655.15	6776.05
860.172	1110.0185	7786.2	6904.15
860.3169	1111.9771	7808.35	6930.3
860.4619	1113.9351	7590.5	6711.75
860.6068	1115.8923	7276.95	6397.4
860.7517	1117.8488	7020.5	6139.5
860.8967	1119.8045	6782.5	5901.5
861.0416	1121.7596	6646.2	5764.95
861.1865	1123.7139	6605.1	5726.1
861.3314	1125.6675	6591.6	5713.25
861.4763	1127.6204	6655.55	5776.95
861.6212	1129.5726	6667.65	5788
861.7661	1131.524	6697.1	5819.7
861.911	1133.4748	6724.75	5846.4
862.0559	1135.4248	6742.4	5859.25
862.2008	1137.3741	6748.2	5868
862.3457	1139.3226	6764.2	5885.3
862.4905	1141.2705	6731.2	5853.1
862.6354	1143.2176	6680.25	5793.95
862.7803	1145.164	6684.9	5804.15
862.9251	1147.1097	6727.35	5849.35
863.07	1149.0546	6687.1	5807.8
863.2148	1150.9989	6608.3	5728.7
863.3597	1152.9424	6443.05	5561.85
863.5045	1154.8852	6279.2	5400.75
863.6493	1156.8272	6139.5	5259.95
863.7942	1158.7686	6101.25	5214.65
863.939	1160.7092	6073.7	5195.1
864.0838	1162.6491	6048.45	5164.25
864.2286	1164.5883	6099.05	5221.75
864.3734	1166.5267	6181.65	5300.65
864.5182	1168.4644	6285.3	5404.75
864.663	1170.4014	6426.7	5543
864.8078	1172.3377	6630.25	5752.1
864.9526	1174.2732	6803.7	5922.7
865.0974	1176.2081	6978.45	6099.4
865.2421	1178.1421	7075.35	6193.65
865.3869	1180.0755	7192.55	6312.95
865.5317	1182.0082	7206.8	6326.85
865.6764	1183.9401	7120.3	6239.55
865.8212	1185.8713	6958.55	6080.9
865.9659	1187.8017	6744.05	5864.9
866.1106	1189.7315	6538.05	5657.25
866.2554	1191.6605	6349.3	5442.05
866.4001	1193.5888	6169	5290.7
866.5448	1195.5163	6079.1	5198.05
866.6895	1197.4432	5984.2	5103.65
866.8342	1199.3693	5937.6	5055.25
866.9789	1201.2947	5908.1	5027.4
867.1236	1203.2193	5891.25	5010.25
867.2683	1205.1432	5908.05	5026.7
867.413	1207.0664	5944.6	5065.3
867.5576	1208.9889	5994.4	5111.7
867.7023	1210.9106	6089.05	5209.85
867.847	1212.8316	6135.7	5256.5
867.9916	1214.7519	6202.7	5313
868.1363	1216.6715	6238.4	5360.15
868.2809	1218.5903	6212.55	5330.85
868.4255	1220.5084	6159	5278.1
868.5701	1222.4257	6116.2	5236.3
868.7148	1224.3424	6079.5	5200.2
868.8594	1226.2583	6115.8	5233.25
869.004	1228.1735	6215.75	5331.65
869.1486	1230.0879	6338.65	5457.2
869.2932	1232.0016	6429.95	5550.95
869.4377	1233.9146	6437.7	5555.1
869.5823	1235.8269	6378.2	5495.45
869.7269	1237.7384	6260	5381.55
869.8715	1239.6492	6123.75	5240.95
870.016	1241.5592	6013.5	5130.35
870.1606	1243.4686	5955.45	5075
870.3051	1245.3772	5877.55	4997.3
870.4496	1247.285	5839.4	4957.15
870.5941	1249.1922	5803.2	4921.6
870.7387	1251.0986	5792	4910.8
870.8832	1253.0042	5797.65	4916.9
871.0277	1254.9092	5849.45	4967.7
871.1722	1256.8134	5936.45	5056.45
871.3167	1258.7169	6055.6	5174.3
871.4611	1260.6196	6204.4	5323.2
871.6056	1262.5216	6316.9	5436.85
871.7501	1264.4229	6434.9	5556
871.8945	1266.3234	6528.7	5647.55
872.039	1268.2232	6549.15	5668.65
872.1834	1270.1223	6541.7	5659.5
872.3278	1272.0207	6534.2	5652.8
872.4723	1273.9183	6491.6	5605.55
872.6167	1275.8151	6419.1	5540.5
872.7611	1277.7113	6321.15	5437.05
872.9055	1279.6067	6188.6	5309.2
873.0499	1281.5014	6079.3	5196.7
873.1943	1283.3953	5953.85	5070.35
873.3386	1285.2885	5859.8	4979.9
873.483	1287.181	5820.85	4936.7
873.6274	1289.0727	5825.2	4944.6
873.7717	1290.9637	5869.1	4987.45
873.9161	1292.854	5952.5	5071.75
874.0604	1294.7435	6070.7	5188.1
874.2047	1296.6323	6261.7	5378.95
874.349	1298.5204	6472.85	5587.8
874.4933	1300.4077	6676.1	5793.35
874.6376	1302.2943	6833.65	5954.25
874.7819	1304.1802	6908.8	6027.15
874.9262	1306.0653	6844.95	5960.35
875.0705	1307.9497	6779.65	5898.85
875.2147	1309.8333	6684.65	5802.75
875.359	1311.7162	6695.15	5814.1
875.5032	1313.5984	6765.25	5881.5
875.6475	1315.4798	6880.85	5983.1
875.7917	1317.3605	7041.75	6140.25
875.9359	1319.2405	7148.7	6265.1
876.0801	1321.1197	7181.6	6296.85
876.2243	1322.9982	7138.8	6251.95
876.3685	1324.876	7130.45	6249.7
876.5127	1326.753	7120.85	6239.6
876.6569	1328.6293	7129.25	6246.25
876.801	1330.5048	7151.4	6267.1
876.9452	1332.3796	7123.8	6243.2
877.0893	1334.2537	7132.4	6224.35
877.2335	1336.127	7045.75	6164.25
877.3776	1337.9996	7033.9	6150.25
877.5217	1339.8714	6965.45	6083.1
877.6658	1341.7426	6949.3	6027.1
877.8099	1343.6129	6868.25	5983.35
877.954	1345.4826	6818.75	5935.45
878.0981	1347.3515	6778.8	5895.2
878.2422	1349.2196	6720.4	5838.2
878.3862	1351.087	6736.85	5855.3
878.5303	1352.9537	6773.6	5891.25
878.6743	1354.8197	6879.3	5997.6
878.8184	1356.6849	6985.2	6102.85
878.9624	1358.5493	7069.05	6188.35
879.1064	1360.4131	7064.55	6181.05
879.2504	1362.276	6971.35	6090.4
879.3944	1364.1383	6852.55	5970.55
879.5384	1365.9998	6672.65	5783.55
879.6823	1367.8606	6429	5547.75
879.8263	1369.7206	6239.6	5356.5
879.9702	1371.5799	6113.5	5229.6
880.1142	1373.4384	6031.25	5148.15
880.2581	1375.2962	5902.5	5019.1
880.402	1377.1533	5731.25	4848.65
880.5459	1379.0096	5500.9	4618.4
880.6898	1380.8652	5270.8	4388.85
880.8337	1382.7201	5094	4209.9
880.9776	1384.5742	4935	4052.65
881.1215	1386.4275	4821.05	3935.35
881.2653	1388.2802	4726.45	3845.8
881.4092	1390.132	4647.05	3765.35
881.553	1391.9832	4611.45	3729.05
881.6968	1393.8336	4538.7	3655.4
881.8406	1395.6832	4521.95	3639.15
881.9844	1397.5322	4504.4	3622.6
882.1282	1399.3803	4499.8	3612.05
882.272	1401.2278	4478.7	3596.1
882.4158	1403.0745	4464.65	3581.45
882.5595	1404.9204	4463.5	3581.6
882.7033	1406.7656	4489.75	3608.6
882.847	1408.6101	4500.85	3618.45
882.9908	1410.4538	4518.75	3636.55
883.1345	1412.2968	4553.7	3671.05
883.2782	1414.139	4586.85	3704.75
883.4219	1415.9805	4659.95	3775.9
883.5656	1417.8213	4740.55	3849.9
883.7092	1419.6613	4855.7	3973.6
883.8529	1421.5006	5019.5	4135.85
883.9965	1423.3391	5232.65	4349.4
884.1402	1425.1769	5543.8	4660.55
884.2838	1427.0139	5980	5095.7
884.4274	1428.8502	6488.8	5607.6
884.571	1430.6858	7005	6121.05
884.7146	1432.5206	7345.25	6462.55
884.8582	1434.3547	7553.3	6672.85
885.0018	1436.188	7600.6	6717.4
885.1453	1438.0206	7544.15	6660.85
885.2889	1439.8524	7419.3	6536.35
885.4324	1441.6835	7332.8	6452.05
885.5759	1443.5139	7258.1	6372.65
885.7194	1445.3435	7211.25	6328
885.8629	1447.1724	7157.7	6272.35
886.0064	1449.0005	7108.75	6226.95
886.1499	1450.8279	7048.65	6164.65
886.2933	1452.6545	6993.9	6110.95
886.4368	1454.4804	7040.5	6159.5
886.5802	1456.3056	7017.9	6129
886.7237	1458.13	6928.15	6045.95
886.8671	1459.9536	6741.9	5860.25
887.0105	1461.7766	6427.75	5545.85
887.1539	1463.5987	6089.3	5205.45
887.2972	1465.4202	5772.4	4888.3
887.4406	1467.2409	5449.5	4566.65
887.584	1469.0608	5208.85	4326.25
887.7273	1470.88	5022.35	4137.45
887.8706	1472.6984	4849.1	3968.95
888.0139	1474.5161	4680.85	3797
888.1572	1476.3331	4553.05	3673
888.3005	1478.1493	4459	3577.55
888.4438	1479.9648	4374.45	3491.35
888.5871	1481.7795	4285.15	3401.1
888.7303	1483.5935	4233.55	3350
888.8736	1485.4067	4188.6	3306.5
889.0168	1487.2192	4138.75	3254.9
889.16	1489.031	4109.85	3225.25
889.3032	1490.842	4072.4	3190.1
889.4464	1492.6522	4067.65	3185.8
889.5896	1494.4618	4031.9	3148.75
889.7327	1496.2705	4003.85	3120.75
889.8759	1498.0785	3974.75	3090.3
890.019	1499.8858	3992.55	3109.3
890.1622	1501.6924	3975.15	3093.9
890.3053	1503.4981	3960.3	3077.8
890.4484	1505.3032	3934.55	3053
890.5914	1507.1075	3903.5	3021.15
890.7345	1508.911	3895.1	3013.2
890.8776	1510.7138	3855.9	2974.1
891.0206	1512.5159	3830.7	2947.6
891.1637	1514.3172	3824.1	2941.95
891.3067	1516.1178	3795.45	2913.45
891.4497	1517.9176	3772.45	2887.4
891.5927	1519.7166	3729.8	2846.45
891.7357	1521.515	3732.15	2844.1
891.8786	1523.3126	3725.7	2841.3
892.0216	1525.1094	3701.7	2816.4
892.1645	1526.9055	3688.35	2808.3
892.3074	1528.7008	3681.55	2799.4
892.4503	1530.4954	3664.7	2779.8
892.5932	1532.2893	3655.15	2776.75
892.7361	1534.0824	3639.45	2751.9
892.879	1535.8747	3636.55	2753.25
893.0218	1537.6663	3622.9	2738.8
893.1647	1539.4572	3618.25	2734.8
893.3075	1541.2473	3617.05	2735.15
893.4503	1543.0367	3612.6	2729
893.5931	1544.8253	3606.6	2719.75
893.7359	1546.6132	3616.55	2731.8
893.8787	1548.4003	3622.55	2729.9
894.0214	1550.1867	3629.75	2738.8
894.1642	1551.9723	3634.35	2748.45
894.3069	1553.7572	3652	2768.55
894.4496	1555.5414	3661.95	2780.7
894.5923	1557.3247	3707.8	2826.8
894.735	1559.1074	3741.8	2860.1
894.8777	1560.8893	3769.8	2888.3
895.0204	1562.6705	3816.65	2934.55
895.163	1564.4509	3875.6	2991.7
895.3056	1566.2305	3950.95	3070
895.4482	1568.0094	4013.85	3132.5
895.5908	1569.7876	4092.55	3211.15
895.7334	1571.565	4152.6	3269
895.876	1573.3417	4184.75	3303.6
896.0186	1575.1176	4188.1	3307.6
896.1611	1576.8928	4165.5	3284.95
896.3036	1578.6672	4099.85	3217.25
896.4461	1580.4409	4008.7	3129.3
896.5886	1582.2138	3914.75	3030.8
896.7311	1583.986	3825.4	2943.3
896.8736	1585.7575	3728.5	2847.85
897.0161	1587.5282	3662.7	2782.95
897.1585	1589.2981	3632.8	2752.55
897.3009	1591.0673	3600.35	2718.05
897.4433	1592.8358	3583.75	2701.5
897.5857	1594.6035	3574.7	2691.7
897.7281	1596.3704	3571.7	2689.1
897.8705	1598.1366	3587.35	2707.75
898.0128	1599.9021	3590.95	2712
898.1551	1601.6668	3613.9	2730.5
898.2975	1603.4308	3659.95	2778.1
898.4398	1605.194	3720.1	2832.85
898.5821	1606.9564	3782.1	2900.45
898.7243	1608.7182	3869.6	2982.9
898.8666	1610.4791	3976.45	3094.75
899.0088	1612.2394	4095	3210.7
899.1511	1613.9988	4240	3358.05
899.2933	1615.7576	4447.2	3564.55
899.4355	1617.5156	4633.7	3746.8
899.5776	1619.2728	4821.1	3940.7
899.7198	1621.0293	4962.75	4081.3
899.862	1622.785	5025.6	4138.9
900.0041	1624.54	4988.65	4102.9
900.1462	1626.2942	4880	3997.8
900.2883	1628.0477	4699.3	3814.05
900.4304	1629.8005	4499.25	3613.75
900.5725	1631.5525	4300.4	3418.55
900.7145	1633.3037	4135.9	3253.5
900.8566	1635.0542	3994.1	3111.9
900.9986	1636.804	3891.5	3009.3
901.1406	1638.553	3875.45	2922.35
901.2826	1640.3013	3787.3	2906.8
901.4245	1642.0488	3757.25	2874.1
901.5665	1643.7955	3736.35	2853.95
901.7085	1645.5416	3771.05	2888.35
901.8504	1647.2868	3803.95	2922.05
901.9923	1649.0313	3872.35	2991.65
902.1342	1650.7751	4003.5	3117.8
902.2761	1652.5181	4144.4	3264.05
902.4179	1654.2604	4344.15	3462.7
902.5598	1656.0019	4618.3	3738.15
902.7016	1657.7427	4886.75	4004.4
902.8434	1659.4828	5191.45	4309.8
902.9852	1661.222	5362.15	4482.2
903.127	1662.9606	5406.45	4524.55
903.2687	1664.6984	5267.2	4386
903.4105	1666.4354	4988.7	4107.3
903.5522	1668.1717	4613	3732.65
903.6939	1669.9072	4271.25	3391
903.8356	1671.642	3947.75	3065.05
903.9773	1673.3761	3721.75	2842
904.119	1675.1094	3544.65	2665
904.2606	1676.8419	3396.35	2516.35
904.4022	1678.5737	3299.35	2419.5
904.5439	1680.3048	3225	2343.8
904.6855	1682.0351	3164.95	2286.1
904.827	1683.7646	3123.3	2241.2
904.9686	1685.4934	3093.6	2213.8
905.1101	1687.2215	3054.15	2172.05
905.2517	1688.9488	3021.6	2140.1
905.3932	1690.6754	3004.15	2123.8
905.5347	1692.4012	2990.25	2110.15
905.6761	1694.1263	2958.6	2076.9
905.8176	1695.8506	2968.1	2087.15
905.9591	1697.5742	2949.85	2071.5
906.1005	1699.297	2919.5	2040.2
906.2419	1701.0191	2908.3	2028
906.3833	1702.7404	2898.55	2019
906.5246	1704.461	2869.2	1989.7
906.666	1706.1808	2860.45	1976.7
906.8073	1707.8999	2841.35	1960.75
906.9487	1709.6182	2838.05	1955.95
907.09	1711.3358	2827.6	1945.55
907.2313	1713.0527	2807.05	1924.95
907.3725	1714.7688	2808.3	1922.85
907.5138	1716.4841	2795.05	1914.55
907.655	1718.1987	2788.45	1904.55
907.7962	1719.9126	2769.35	1889.05
907.9374	1721.6257	2772.1	1887
908.0786	1723.338	2759.55	1877.55
908.2198	1725.0496	2751.05	1868.7
908.3609	1726.7605	2746.55	1865.3
908.502	1728.4706	2727.85	1844.4
908.6431	1730.18	2722.2	1841.35
908.7842	1731.8886	2717.85	1838.05
908.9253	1733.5964	2713.25	1827.4
909.0664	1735.3036	2687.35	1804.5
909.2074	1737.0099	2687.2	1805.95
909.3484	1738.7156	2689	1810.35
909.4894	1740.4204	2680.3	1797.9
909.6304	1742.1246	2676.15	1794.3
909.7714	1743.8279	2676.3	1794.95
909.9123	1745.5306	2657.75	1776.7
910.0532	1747.2325	2659	1778.8
910.1941	1748.9336	2641.05	1761.55
910.335	1750.634	2638.45	1757.35
910.4759	1752.3336	2640	1760.6
910.6168	1754.0325	2624.2	1743.5
910.7576	1755.7307	2636.2	1755.25
910.8984	1757.4281	2630	1749.8
911.0392	1759.1247	2622.9	1735.3
911.18	1760.8206	2613	1729.2
911.3208	1762.5158	2621	1737.95
911.4615	1764.2102	2598.25	1719.45
911.6022	1765.9039	2582.85	1700.45
911.7429	1767.5968	2584.75	1704.45
911.8836	1769.289	2586	1706.7
912.0243	1770.9804	2580.5	1699.05
912.1649	1772.6711	2574.9	1693.7
912.3056	1774.361	2570.3	1690.5
912.4462	1776.0502	2556.9	1675.85
912.5868	1777.7386	2556	1672.15
912.7274	1779.4263	2542.6	1663.1
912.8679	1781.1132	2548.15	1666.55
913.0084	1782.7994	2535.1	1651.9
913.149	1784.4849	2533.05	1652.65
913.2895	1786.1696	2547.6	1647.3
913.4299	1787.8535	2528.4	1649.65
913.5704	1789.5367	2526.5	1645.3
913.7108	1791.2192	2524.6	1645.8
913.8513	1792.9009	2536.7	1628.65
913.9917	1794.5818	2510.65	1627.8
914.132	1796.2621	2503.65	1622
914.2724	1797.9415	2504.8	1623.9
914.4128	1799.6202	2491.8	1613.05
914.5531	1801.2982	2499.9	1618.8
914.6934	1802.9755	2490.95	1611.1
914.8337	1804.6519	2478.9	1597.65
914.9739	1806.3277	2481.05	1601.15
915.1142	1808.0027	2462.5	1583.05
915.2544	1809.6769	2468.65	1586
915.3946	1811.3504	2470	1587.15
915.5348	1813.0231	2469.3	1587.05
915.675	1814.6951	2470.1	1590.65
915.8151	1816.3664	2472.1	1590.3
915.9553	1818.0369	2466.45	1586.1
916.0954	1819.7067	2444.1	1563.75
916.2355	1821.3757	2445.4	1565
916.3755	1823.044	2447	1566.9
916.5156	1824.7115	2439.5	1558.3
916.6556	1826.3783	2424.1	1542.65
916.7956	1828.0443	2432.35	1555.15
916.9356	1829.7096	2432.45	1551.2
917.0756	1831.3741	2422.4	1538.25
917.2155	1833.0379	2419.75	1539.35
917.3555	1834.701	2408	1527.2
917.4954	1836.3633	2411.7	1530.25
917.6353	1838.0248	2394.65	1510.15
917.7751	1839.6856	2404.35	1524.5
917.915	1841.3457	2400.65	1519.15
918.0548	1843.005	2399.35	1519.6
918.1946	1844.6636	2394.55	1516.3
918.3344	1846.3214	2388.5	1509.6
918.4742	1847.9785	2395.45	1513.8
918.6139	1849.6349	2394.1	1512.4
918.7537	1851.2904	2394.2	1507.4
918.8934	1852.9453	2379.05	1499.3
919.0331	1854.5994	2380.4	1495.35
919.1727	1856.2528	2372.6	1488.5
919.3124	1857.9054	2369.35	1489.2
919.452	1859.5572	2373.4	1493.55
919.5916	1861.2083	2361.2	1481.45
919.7312	1862.8587	2360.25	1480.65
919.8708	1864.5084	2355.6	1477.55
920.0103	1866.1572	2351.3	1472.5
920.1498	1867.8054	2334.9	1455.35
920.2893	1869.4528	2335	1453.05
920.4288	1871.0994	2339.25	1458.25
920.5683	1872.7453	2325.75	1445.35
920.7077	1874.3905	2338.05	1450.8
920.8471	1876.0349	2315.9	1435.6
920.9865	1877.6786	2321.25	1439.15
921.1259	1879.3215	2318.7	1440.6
921.2653	1880.9637	2319.25	1435.6
921.4046	1882.6051	2312.2	1432.25
921.5439	1884.2458	2310.05	1427.2
921.6832	1885.8858	2293.65	1412.45
921.8225	1887.525	2294.75	1414.8
921.9617	1889.1634	2281.5	1401.8
922.101	1890.8011	2279.55	1399.7
922.2402	1892.4381	2282.7	1404.55
922.3794	1894.0743	2277.85	1396.75
922.5185	1895.7098	2274.95	1394.75
922.6577	1897.3446	2277.55	1396.65
922.7968	1898.9786	2275.4	1390.9
922.9359	1900.6118	2275.85	1396.25
923.075	1902.2443	2263.75	1381.15
923.214	1903.8761	2264.8	1385.5
923.3531	1905.5071	2262.3	1381.4
923.4921	1907.1374	2251.35	1369.9
923.6311	1908.7669	2245.5	1364.8
923.77	1910.3957	2239.85	1360.35
923.909	1912.0237	2242	1361.3
924.0479	1913.651	2237.95	1357.85
924.1868	1915.2776	2240.5	1360.9
924.3257	1916.9034	2228.25	1347.95
924.4646	1918.5285	2224.45	1343.4
924.6034	1920.1528	2212.3	1331.5
924.7422	1921.7764	2217.8	1336.45
924.881	1923.3992	2212.6	1332.65
925.0198	1925.0213	2201.1	1321.15
925.1586	1926.6427	2196.7	1317.7
925.2973	1928.2633	2414.05	1306.55
925.436	1929.8832	2220.7	1338.8
925.5747	1931.5023	2186.6	1305.5
925.7134	1933.1207	2181.6	1301.75
925.852	1934.7383	2185.35	1304.3
925.9906	1936.3552	2171.7	1292.4
926.1292	1937.9714	2173.5	1292.85
926.2678	1939.5868	2159.15	1278.2
926.4064	1941.2015	2156.25	1275.1
926.5449	1942.8154	2145.65	1263.6
926.6834	1944.4286	2150.35	1269.5
926.8219	1946.041	2154	1252.2
926.9604	1947.6528	2137	1252.2
927.0988	1949.2637	2128.65	1249.2
927.2372	1950.8739	2128.15	1247.25
927.3756	1952.4834	2117.25	1235.75
927.514	1954.0921	2118.7	1237.75
927.6523	1955.7001	2116.15	1230.65
927.7907	1957.3074	2110.95	1231.4
927.929	1958.9139	2092.75	1212.1
928.0673	1960.5197	2106.65	1225.15
928.2055	1962.1247	2079.75	1199.6
928.3438	1963.729	2091.35	1213.15
928.482	1965.3325	2099.7	1195.6
928.6202	1966.9353	2075.95	1195.75
928.7584	1968.5374	2082.15	1199.95
928.8965	1970.1387	2068.8	1188.65
929.0346	1971.7393	2074.05	1193.9
929.1727	1973.3392	2074.5	1193.7
929.3108	1974.9383	2060.15	1180.55
929.4489	1976.5366	2053.25	1173.75
929.5869	1978.1342	2048.9	1167.95
929.7249	1979.7311	2051.65	1170.45
929.8629	1981.3273	2046.25	1167.25
930.0009	1982.9227	2044.15	1162.65
930.1388	1984.5173	2045.8	1166.45
930.2767	1986.1112	2026.25	1145.95
930.4146	1987.7044	2040.25	1159.4
930.5525	1989.2968	2030.45	1147
930.6904	1990.8885	2035.15	1151.85
930.8282	1992.4795	2024.65	1141.05
930.966	1994.0697	2023.25	1143.3
931.1038	1995.6592	2008.6	1127.05
931.2415	1997.2479	2018.3	1139.05
931.3793	1998.8359	2009.15	1129.35
931.517	2000.4232	2005.75	1125.8
931.6547	2002.0097	1997.4	1119.05
931.7923	2003.5955	2000	1118.8
931.93	2005.1805	2004.9	1122.75
932.0676	2006.7648	1985.65	1106.15
932.2052	2008.3484	1985.35	1103.5
932.3427	2009.9312	1981.3	1097.85
932.4803	2011.5133	1988.55	1108.7
932.6178	2013.0946	1984.2	1102.05
932.7553	2014.6752	1981.3	1100.9
932.8928	2016.2551	1984.25	1102.9
933.0302	2017.8342	1973.8	1091.9
933.1676	2019.4126	1967.75	1089.55
933.305	2020.9902	1960.2	1080.8
933.4424	2022.5672	1951.35	1070.15
933.5798	2024.1433	1970.65	1085
933.7171	2025.7188	1954.65	1075.85
933.8544	2027.2935	1946.6	1064.45
933.9917	2028.8674	1953.6	1073.75
934.129	2030.4406	1940.7	1061.6
934.2662	2032.0131	1940.45	1061.95
934.4034	2033.5849	1942.1	1051.2
934.5406	2035.1559	1941.6	1062.35
934.6778	2036.7261	1934.8	1053.55
934.8149	2038.2957	1935.45	1055.3
934.952	2039.8645	1928.2	1050.15
935.0891	2041.4325	1935.8	1052.35
935.2262	2042.9998	1922.4	1043.55
935.3632	2044.5664	1919.05	1035.95
935.5002	2046.1323	1923.65	1043.15
935.6372	2047.6974	1911.05	1031
935.7742	2049.2617	1918.1	1037.85
935.9111	2050.8254	1937.85	1036.3
936.048	2052.3883	1922.65	1040.8
936.1849	2053.9504	1910.1	1030.7
936.3218	2055.5118	1909.55	1028
936.4586	2057.0725	1902.65	1017.55
936.5955	2058.6325	1896.5	1015.6
936.7323	2060.1917	1900.95	1020.9
936.869	2061.7502	1894.25	1012.05
937.0058	2063.3079	1892.5	1013.4
937.1425	2064.8649	1885.5	999.4
937.2792	2066.4212	1879	996.4
937.4159	2067.9767	1881.8	1001.6
937.5525	2069.5315	1876.35	995.15
937.6891	2071.0856	1863.65	983.9
937.8257	2072.6389	1871.1	987.7
937.9623	2074.1915	1862	981.95
938.0989	2075.7433	1858.95	976.2
938.2354	2077.2945	1861.65	982.4
938.3719	2078.8448	1850.35	969.05
938.5084	2080.3945	1845.5	965.5
938.6448	2081.9434	1847.05	967.4
938.7812	2083.4916	1834.7	955
938.9176	2085.039	1842.3	960.15
939.054	2086.5857	1835.2	954.1
939.1903	2088.1317	1836.45	957.95
939.3267	2089.677	1836.35	955.05
939.463	2091.2215	1824.2	944.3
939.5992	2092.7652	1824.95	942.25
939.7355	2094.3083	1819.7	938.75
939.8717	2095.8506	1827.45	947.55
940.0079	2097.3921	1829.7	950.7
940.1441	2098.933	1819.65	940.7
940.2802	2100.4731	1819.15	938.15
940.4163	2102.0124	1822.8	934.6
940.5524	2103.5511	1808.85	927.75
940.6885	2105.089	1805.85	925.65
940.8245	2106.6261	1804.7	923.85
940.9606	2108.1626	1808	926.75
941.0965	2109.6983	1824.35	915.2
941.2325	2111.2332	1802.65	921.25
941.3684	2112.7675	1805.55	923.9
941.5044	2114.301	1798.2	915.55
941.6403	2115.8337	1799.75	918.7
941.7761	2117.3657	1793.55	912.85
941.912	2118.897	1790.3	909.4
942.0478	2120.4276	1794.1	910.5
942.1835	2121.9575	1770.6	890.5
942.3193	2123.4866	1796.3	902
942.455	2125.0149	1787.45	905.6
942.5907	2126.5426	1773.65	892.5
942.7264	2128.0695	1779.15	893.95
942.8621	2129.5956	1772.35	892
942.9977	2131.1211	1774.05	888.2
943.1333	2132.6458	1764.4	883.95
943.2689	2134.1698	1766.5	886.2
943.4044	2135.693	1764.9	881.3
943.54	2137.2155	1761.8	879.9
943.6755	2138.7373	1764.35	883.65
943.8109	2140.2584	1752.85	871.7
943.9464	2141.7787	1760.5	873.25
944.0818	2143.2983	1756.25	876
944.2172	2144.8171	1745.6	865.15
944.3526	2146.3353	1744.8	861.15
944.4879	2147.8527	1747.9	866.5
944.6232	2149.3693	1743.3	862.05
944.7585	2150.8853	1742.05	860.75
944.8938	2152.4005	1727.4	846.05
945.029	2153.9149	1734.55	853.25
945.1642	2155.4287	1736.15	856.25
945.2994	2156.9417	1735	851.1
945.4346	2158.454	1733.7	851.45
945.5697	2159.9655	1729.95	848.05
945.7048	2161.4764	1723.25	840.1
945.8399	2162.9865	1725.5	844.2
945.9749	2164.4958	1718.3	836.15
946.1099	2166.0045	1713.5	829.85
946.2449	2167.5124	1721.45	841.8
946.3799	2169.0195	1716.45	837.75
946.5148	2170.526	1716.6	834.65
946.6498	2172.0317	1711.8	831.4
946.7846	2173.5367	1706.6	825.75
946.9195	2175.0409	1717.8	837.4
947.0543	2176.5445	1710.3	830.65
947.1891	2178.0473	1707.7	825.85
947.3239	2179.5494	1699.5	814.8
947.4587	2181.0507	1702.5	821.3
947.5934	2182.5513	1703.65	822.4
947.7281	2184.0512	1690.2	810.1
947.8628	2185.5504	1691.15	811.05
947.9974	2187.0488	1688.65	807.75
948.132	2188.5465	1685.3	803.45
948.2666	2190.0435	1682.8	799.3
948.4012	2191.5397	1676.5	796.55
948.5357	2193.0353	1683.75	803.5
948.6702	2194.5301	1673.5	791.1
948.8047	2196.0241	1681.8	800.9
948.9392	2197.5175	1664	784.05
949.0736	2199.0101	1673.45	791.4
949.208	2200.502	1661.55	781.45
949.3424	2201.9931	1664.9	784
949.4767	2203.4835	1661.55	776.85
949.611	2204.9733	1667.8	780.4
949.7453	2206.4622	1652.75	772.15
949.8796	2207.9505	1660.75	776.5
950.0138	2209.438	1640.4	760.35
950.148	2210.9248	1648	766.9
950.2822	2212.4109	1645.25	765.1
950.4164	2213.8962	1650.7	767
950.5505	2215.3809	1640.4	760.5
950.6846	2216.8648	1641.8	761.25
950.8186	2218.3479	1639.35	753.35
950.9527	2219.8304	1639.6	756.5
951.0867	2221.3121	1623.85	739.55
951.2207	2222.7931	1628.8	750.2
951.3546	2224.2733	1627.55	745.45
951.4886	2225.7529	1621.65	741.4
951.6225	2227.2317	1616.15	731.7
951.7563	2228.7098	1609.95	731.7
951.8902	2230.1872	1611.75	730.25
952.024	2231.6638	1610.3	729.95
952.1578	2233.1397	1616.45	729.25
952.2916	2234.6149	1610.2	729.55
952.4253	2236.0894	1608.1	726.85
952.559	2237.5632	1617.85	726.15
952.6927	2239.0362	1601.5	721.75
952.8263	2240.5085	1600.7	721.15
952.9599	2241.9801	1606.8	724.95
953.0935	2243.4509	1592.7	713.1
953.2271	2244.921	1591.3	712.4
953.3606	2246.3904	1586.2	704.05
953.4941	2247.8591	1584.25	705.85
953.6276	2249.3271	1585.15	705.15
953.7611	2250.7943	1582.5	699.9
953.8945	2252.2608	1578.3	698.55
954.0279	2253.7266	1567.55	687
954.1612	2255.1917	1572.85	691.8
954.2946	2256.656	1576.1	695.1
954.4279	2258.1197	1577.6	698.1
954.5612	2259.5826	1572.6	689.45
954.6944	2261.0447	1579.6	698.05
954.8276	2262.5062	1566.05	680.9
954.9608	2263.9669	1560.2	677.65
955.094	2265.4269	1556.85	677.35
955.2271	2266.8862	1564.3	682.35
955.3602	2268.3448	1566.85	687.7
955.4933	2269.8026	1566.3	683.15
955.6264	2271.2598	1546.6	664.5
955.7594	2272.7162	1545.8	666.75
955.8924	2274.1719	1555.55	673.6
956.0253	2275.6268	1552.05	672.2
956.1583	2277.0811	1546.6	665.1
956.2912	2278.5346	1549.85	666.95
956.4241	2279.9874	1547.2	665.8
956.5569	2281.4395	1548.1	667.6
956.6897	2282.8908	1546	661.05
956.8225	2284.3414	1543.95	661.9
956.9553	2285.7914	1534.7	655.9
957.088	2287.2406	1538.3	655.05
957.2207	2288.689	1536.1	656.55
957.3534	2290.1368	1536.65	656.15
957.486	2291.5838	1533.85	650.6
957.6186	2293.0302	1530.05	647.65
957.7512	2294.4758	1531.05	649.6
957.8838	2295.9206	1533.5	648.55
958.0163	2297.3648	1520.8	638.1
958.1488	2298.8082	1520.7	639.55
958.2813	2300.251	1516.1	637.95
958.4137	2301.693	1525.45	641.85
958.5461	2303.1343	1523.25	642.9
958.6785	2304.5748	1521.55	643.3
958.8108	2306.0147	1520.65	638.7
958.9432	2307.4538	1515.05	634.15
959.0754	2308.8922	1509.45	629.4
959.2077	2310.3299	1507.75	624.8
959.3399	2311.7669	1508.6	627.95
959.4721	2313.2031	1499.35	617.45
959.6043	2314.6387	1502.35	621
959.7365	2316.0735	1505.85	624.4
959.8686	2317.5076	1496.05	612.15
960.0006	2318.941	1493.95	613.35
960.1327	2320.3737	1492.15	611.9
960.2647	2321.8056	1490.5	607.4
960.3967	2323.2369	1492.55	612.65
960.5287	2324.6674	1491.65	608.45
960.6606	2326.0972	1490.6	609.75
960.7925	2327.5263	1485.3	604.8
960.9244	2328.9547	1486.25	605.65
961.0562	2330.3823	1486	604.9
961.1881	2331.8092	1490.1	604.85
961.3198	2333.2355	1481.15	599.6
961.4516	2334.661	1479.6	598.35
961.5833	2336.0858	1477.4	594.45
961.715	2337.5098	1478.55	597.35
961.8467	2338.9332	1469.95	588.7
961.9783	2340.3558	1472.75	587.9
962.1099	2341.7778	1476.8	596.2
962.2415	2343.199	1468.65	586.85
962.373	2344.6195	1468.3	586.85
962.5045	2346.0393	1467.05	585
962.636	2347.4583	1463.65	580.65
962.7675	2348.8767	1460.5	577.4
962.8989	2350.2943	1462.95	580.55
963.0303	2351.7113	1463.75	581.55
963.1617	2353.1275	1472.65	591.75
963.293	2354.543	1487.85	582.45
963.4243	2355.9578	1459.05	579.05
963.5556	2357.3718	1462.4	581.55
963.6868	2358.7852	1449.55	567.9
963.818	2360.1978	1454.35	572.9
963.9492	2361.6098	1454.35	573.25
964.0803	2363.021	1460.25	576.5
964.2114	2364.4315	1449.7	568.6
964.3425	2365.8413	1450.85	570.5
964.4736	2367.2504	1451.1	570.55
964.6046	2368.6587	1444.7	562.7
964.7356	2370.0664	1441.35	561.3
964.8666	2371.4733	1441.3	561.9
964.9975	2372.8795	1436.35	558.65
965.1284	2374.285	1438.15	557
965.2593	2375.6899	1431.4	550.7
965.3901	2377.0939	1431.3	550.35
965.5209	2378.4973	1430.9	551.85
965.6517	2379.9	1426.4	546
965.7825	2381.3019	1435	554.7
965.9132	2382.7032	1426.3	549.35
966.0439	2384.1037	1419.15	540.5
966.1745	2385.5035	1421.3	539.3
966.3051	2386.9027	1423.35	544.25
966.4357	2388.3011	1421.9	537.25
966.5663	2389.6987	1423.9	543.55
966.6968	2391.0957	1413.55	534
966.8273	2392.492	1408.35	529.05
966.9578	2393.8876	1403.05	522.4
967.0882	2395.2824	1410.5	530.75
967.2186	2396.6765	1408.65	529.55
967.349	2398.07	1402.3	523.95
967.4793	2399.4627	1404	522.7
967.6097	2400.8547	1404.2	525.45
967.7399	2402.246	1408.1	523.95
967.8702	2403.6366	1397.4	518.4
968.0004	2405.0265	1388.3	509.35
968.1306	2406.4156	1406.95	521.3
968.2607	2407.8041	1400.05	519.25
968.3909	2409.1918	1398.8	516.5
968.521	2410.5789	1390.75	510.65
968.651	2411.9652	1390.4	507.35
968.781	2413.3508	1388.35	508.55
968.911	2414.7358	1384.85	503.2
969.041	2416.12	1384.5	505.55
969.1709	2417.5035	1382.65	502.2
969.3008	2418.8863	1392.95	513.55
969.4307	2420.2684	1381.35	501.65
969.5606	2421.6497	1384.5	504.75
969.6904	2423.0304	1380.35	499.35
969.8201	2424.4104	1380.75	498.8
969.9499	2425.7896	1380.45	494.7
970.0796	2427.1682	1375.5	495.3
970.2093	2428.546	1374.8	491.95
970.3389	2429.9232	1377.2	495.05
970.4685	2431.2996	1370.4	490.55
970.5981	2432.6753	1368.9	490.55
970.7277	2434.0503	1369	488.7
970.8572	2435.4246	1367.15	487.3
970.9867	2436.7982	1368.5	487.5
971.1161	2438.1711	1364.05	484.65
971.2456	2439.5433	1364.3	484
971.375	2440.9148	1362.4	475.8
971.5043	2442.2856	1361.35	480.65
971.6336	2443.6557	1357.7	474.55
971.7629	2445.025	1353.4	473.55
971.8922	2446.3937	1353.65	472.65
972.0214	2447.7617	1350.05	469.5
972.1506	2449.1289	1352.55	470.9
972.2798	2450.4955	1358.55	476.35
972.4089	2451.8613	1349.8	469.3
972.538	2453.2265	1342.8	464.35
972.6671	2454.5909	1346	466.55
972.7961	2455.9546	1349.4	468.45
972.9251	2457.3177	1352.05	473.55
973.0541	2458.68	1351.4	469.55
973.1831	2460.0416	1349	469
973.312	2461.4025	1343.5	461.65
973.4408	2462.7627	1357	463.2
973.5697	2464.1222	1342.4	464.25
973.6985	2465.4811	1348.05	465.3
973.8273	2466.8392	1339.3	459
973.956	2468.1966	1347.15	465.5
974.0847	2469.5533	1344	460.3
974.2134	2470.9093	1338.2	456.3
974.3421	2472.2645	1340.4	458.3
974.4707	2473.6191	1339.8	459.6
974.5993	2474.973	1341.7	461.3
974.7278	2476.3262	1336	452.8
974.8563	2477.6787	1339.45	460.35
974.9848	2479.0305	1335.6	454.75
975.1132	2480.3816	1335.15	452.55
975.2417	2481.7319	1333.25	453.45
975.37	2483.0816	1331.15	448.55
975.4984	2484.4306	1331.85	450.5
975.6267	2485.7789	1330.3	450.8
975.755	2487.1264	1327.2	446.55
975.8833	2488.4733	1320.55	441.7
976.0115	2489.8195	1341.85	445.25
976.1397	2491.165	1323.6	441.45
976.2678	2492.5097	1327.05	443.7
976.3959	2493.8538	1319.5	438.2
976.524	2495.1972	1306.85	426
976.6521	2496.5398	1312.25	430.35
976.7801	2497.8818	1320.45	439.5
976.9081	2499.2231	1315.9	436.4
977.036	2500.5637	1319.95	437.45
977.164	2501.9035	1311.5	428.95
977.2918	2503.2427	1309.85	426.2
977.4197	2504.5812	1312.6	434.7
977.5475	2505.919	1307.3	427.85
977.6753	2507.256	1314.8	433.95
977.8031	2508.5924	1302.15	422.6
977.9308	2509.9281	1303.95	417.4
978.0585	2511.2631	1302.8	420.65
978.1861	2512.5974	1301.85	423.3
978.3137	2513.9309	1305.3	423.95
978.4413	2515.2638	1334.3	420.55
978.5689	2516.596	1308.15	428.9
978.6964	2517.9275	1297.9	416.35
978.8239	2519.2583	1291.75	409.95
978.9513	2520.5884	1299.05	415.5
979.0788	2521.9178	1299.9	419.75
979.2062	2523.2465	1292	412.7
979.3335	2524.5745	1287.3	406.35
979.4608	2525.9018	1290.4	408.25
979.5881	2527.2284	1290.2	412.55
979.7154	2528.5543	1287.5	408.25
979.8426	2529.8796	1292	411.1
979.9698	2531.2041	1291.45	408.9
980.0969	2532.5279	1288.3	409.15
980.224	2533.851	1287.35	407.25
980.3511	2535.1735	1287.15	407.45
980.4781	2536.4952	1289.35	409.25
980.6052	2537.8163	1288	407.6
980.7321	2539.1366	1284.75	405.1
980.8591	2540.4562	1285.65	404.75
980.986	2541.7752	1281	401.35
981.1129	2543.0935	1282.2	400.7
981.2397	2544.411	1281.9	402.1
981.3665	2545.7279	1273.75	393.6
981.4933	2547.0441	1274.45	393.15
981.62	2548.3596	1281	398.6
981.7467	2549.6744	1282.45	405.8
981.8734	2550.9885	1277.95	390.75
982.0001	2552.3019	1272.3	395.1
982.1267	2553.6146	1272.5	392.45
982.2532	2554.9266	1267.9	386.05
982.3798	2556.2379	1272.55	388.8
982.5063	2557.5485	1266.9	386.65
982.6327	2558.8585	1279.05	389.8
982.7592	2560.1677	1278.3	394
982.8856	2561.4762	1271.35	390.8
983.0119	2562.7841	1271.4	388.7
983.1383	2564.0913	1268.35	389.25
983.2646	2565.3977	1269.25	389.6
983.3908	2566.7035	1257.9	375.95
983.517	2568.0086	1257.3	372.8
983.6432	2569.313	1259.95	379.55
983.7694	2570.6167	1263.4	380
983.8955	2571.9197	1260.3	382
984.0216	2573.222	1264.65	380.35
984.1476	2574.5236	1256	375.25
984.2737	2575.8246	1264.1	379.45
984.3996	2577.1248	1264	379.05
984.5256	2578.4244	1254.95	374.7
984.6515	2579.7232	1260.8	379.85
984.7774	2581.0214	1288.35	374.85
984.9032	2582.3189	1255.7	376.7
985.029	2583.6157	1261.35	376
985.1548	2584.9118	1268.75	389.3
985.2806	2586.2072	1260.35	380.7
985.4063	2587.5019	1269.4	389.75
985.5319	2588.7959	1265.65	385.7
985.6576	2590.0893	1274.15	392.85
985.7832	2591.3819	1272	393.3
985.9087	2592.6739	1270.15	389.8
986.0343	2593.9652	1265.75	384.65
986.1597	2595.2557	1278.45	398.4
986.2852	2596.5456	1277	395.8
986.4106	2597.8348	1271.35	392.45
986.536	2599.1234	1273.8	392.35
986.6614	2600.4112	1272.9	392.55
986.7867	2601.6983	1275.9	391.7
986.912	2602.9848	1276.05	396.65
987.0372	2604.2705	1279	392.25
987.1624	2605.5556	1278	396.85
987.2876	2606.84	1278.3	398.2
987.4128	2608.1237	1270	386.85
987.5379	2609.4067	1271.2	388.4
987.6629	2610.689	1275.55	384.65
987.788	2611.9707	1277.95	392.85
987.913	2613.2516	1275.2	390.1
988.0379	2614.5319	1265.65	386.75
988.1629	2615.8115	1263.8	381.75
988.2878	2617.0903	1260.55	379.15
988.4126	2618.3685	1263.5	381.95
988.5375	2619.6461	1271.6	390.6
988.6622	2620.9229	1268.2	386.65
988.787	2622.199	1264.6	381.8
988.9117	2623.4745	1265.5	387.45
989.0364	2624.7493	1262.9	382.25
989.161	2626.0234	1262.35	383.45
989.2857	2627.2968	1261.75	380.75
989.4102	2628.5695	1260.95	377.5
989.5348	2629.8415	1264.1	383.75
989.6593	2631.1128	1261.75	378.5
989.7837	2632.3835	1260.85	380.45
989.9082	2633.6535	1263.2	382.85
990.0326	2634.9228	1263.1	383.95
990.1569	2636.1914	1261.35	380.9
990.2812	2637.4593	1264.55	382.6
990.4055	2638.7265	1265.8	385.55
990.5298	2639.9931	1263.15	381.1
990.654	2641.259	1264	382.05
990.7782	2642.5242	1257.3	375.1
990.9023	2643.7887	1258.95	379.5
991.0264	2645.0525	1260.05	377.15
991.1505	2646.3156	1257.45	375.75
991.2745	2647.5781	1251.15	370.95
991.3985	2648.8398	1248.85	369.9
991.5225	2650.1009	1254.75	363.25
991.6464	2651.3613	1249.05	368.85
991.7703	2652.6211	1247.65	367.75
991.8942	2653.8801	1250.1	368.5
992.018	2655.1385	1249.5	366.05
992.1418	2656.3961	1250.6	371
992.2655	2657.6531	1248.55	367.25
992.3892	2658.9094	1253.55	373.25
992.5129	2660.1651	1253.95	372.75
992.6366	2661.42	1252.55	373.15
992.7602	2662.6743	1254.2	374.7
992.8837	2663.9279	1256.9	377.8
993.0073	2665.1808	1258.35	376
993.1307	2666.433	1257.25	375.7
993.2542	2667.6846	1255.95	375.5
993.3776	2668.9354	1267.25	382.9
993.501	2670.1856	1266.4	384.15
993.6244	2671.4351	1262.5	381.65
993.7477	2672.6839	1268.45	385.85
993.8709	2673.9321	1262.75	382.8
993.9942	2675.1795	1265.6	385.2
994.1174	2676.4263	1276.85	395.75
994.2405	2677.6724	1271.05	390.75
994.3637	2678.9179	1282.85	402.05
994.4868	2680.1626	1273.1	393.35
994.6098	2681.4067	1276.5	394.65
994.7328	2682.6501	1280.2	397.75
994.8558	2683.8928	1269.95	389.25
994.9788	2685.1348	1270.65	389.55
995.1017	2686.3761	1275.9	395.8
995.2245	2687.6168	1261.45	381.45
995.3474	2688.8568	1265.15	384
995.4702	2690.0961	1263.45	383
995.5929	2691.3348	1264.85	383.2
995.7156	2692.5727	1260.3	377.15
995.8383	2693.81	1263.5	383.3
995.961	2695.0466	1252.7	369.9
996.0836	2696.2826	1257.65	376.75
996.2062	2697.5178	1260.95	375.15
996.3287	2698.7524	1254.9	374.05
996.4512	2699.9863	1262.95	381.65
996.5737	2701.2195	1257.65	376.75
996.6961	2702.452	1267.05	384.7
996.8185	2703.6839	1267.2	385.75
996.9408	2704.9151	1268.25	386.6
997.0631	2706.1456	1270.45	389.75
997.1854	2707.3755	1278	395.65
997.3077	2708.6046	1282.3	399.05
997.4299	2709.8331	1293.45	413.25
997.552	2711.0609	1295.65	414.95
997.6742	2712.2881	1306.8	426.85
997.7963	2713.5145	1312.5	428.5
997.9183	2714.7403	1313.4	435.85
998.0403	2715.9654	1328.25	447.4
998.1623	2717.1899	1349.45	454.25
998.2842	2718.4136	1351.05	472.25
998.4062	2719.6367	1355.15	474.15
998.528	2720.8591	1366.3	476.85
998.6498	2722.0809	1383.3	501.7
998.7716	2723.3019	1389.2	503.4
998.8934	2724.5223	1389.9	509.2
999.0151	2725.7421	1402.3	519.45
999.1368	2726.9611	1398.5	515.2
999.2584	2728.1795	1396.6	512.3
999.38	2729.3972	1387.05	504.8
999.5016	2730.6142	1388.55	496.8
999.6231	2731.8306	1367.3	486.35
999.7446	2733.0462	1359	474.05
999.8661	2734.2612	1351.15	465.55
999.9875	2735.4756	1332.6	447.9
1000.1089	2736.6892	1318.5	437.15
1000.2302	2737.9022	1308	427.95
1000.3515	2739.1145	1292.5	410.65
1000.4728	2740.3262	1299.9	410.85
1000.594	2741.5372	1277.55	398.2
1000.7152	2742.7475	1266.3	383.65
1000.8363	2743.9571	1261.15	380.9
1000.9575	2745.1661	1256.25	370.2
1001.0785	2746.3744	1244.6	365.45
1001.1996	2747.582	1238.2	358.65
1001.3206	2748.7889	1239.05	356.2
1001.4415	2749.9952	1229	350.85
1001.5625	2751.2008	1220.4	337.3
1001.6833	2752.4057	1226.75	342.85
1001.8042	2753.61	1223.15	340.55
1001.925	2754.8136	1222.05	337.95
1002.0458	2756.0165	1218.6	338.1
1002.1665	2757.2188	1219.8	340.75
1002.2872	2758.4204	1221.15	340.2
1002.4078	2759.6213	1216.85	333.8
1002.5285	2760.8215	1224.55	337.9
1002.649	2762.0211	1224.65	339.8
1002.7696	2763.22	1214.9	331.1
1002.8901	2764.4182	1207.15	325.15
1003.0106	2765.6158	1207.2	326
1003.131	2766.8127	1209.2	327.1
1003.2514	2768.009	1203.4	324.7
1003.3717	2769.2045	1208.1	326
1003.492	2770.3994	1204.3	320.65
1003.6123	2771.5936	1203.4	321.45
1003.7325	2772.7872	1202.9	322.8
1003.8527	2773.9801	1201.55	319.25
1003.9729	2775.1723	1215.05	316.95
1004.093	2776.3639	1202.55	324
1004.2131	2777.5548	1199.5	315.7
1004.3331	2778.745	1202.6	319.55
1004.4531	2779.9346	1197.7	317.85
1004.5731	2781.1235	1210.95	329.35
1004.693	2782.3117	1213.1	331.4
1004.8129	2783.4992	1216.2	336.5
1004.9328	2784.6861	1218.9	334.9
1005.0526	2785.8723	1225.3	346.05
1005.1723	2787.0579	1231.55	349.35
1005.2921	2788.2428	1233.6	353.6
1005.4118	2789.427	1245.8	365.6
1005.5314	2790.6106	1258.55	378.3
1005.651	2791.7935	1267.4	386.25
1005.7706	2792.9757	1270.15	390.2
1005.8902	2794.1573	1289.25	405.55
1006.0097	2795.3382	1294.4	414.15
1006.1291	2796.5184	1310.9	429.8
1006.2485	2797.698	1321.65	439.1
1006.3679	2798.8769	1336.3	455.6
1006.4873	2800.0551	1357.1	475.4
1006.6066	2801.2327	1380.5	498
1006.7258	2802.4096	1385.15	505.4
1006.8451	2803.5859	1400.25	520.8
1006.9642	2804.7615	1422.8	541.95
1007.0834	2805.9364	1452.55	572.05
1007.2025	2807.1106	1465.9	586.25
1007.3216	2808.2842	1495.5	612.55
1007.4406	2809.4572	1519.4	640.7
1007.5596	2810.6294	1560.45	677.1
1007.6785	2811.801	1581.25	701.35
1007.7975	2812.972	1613.6	734.8
1007.9163	2814.1423	1661.95	780.35
1008.0352	2815.3119	1698.05	817.65
1008.154	2816.4808	1732.25	853.6
1008.2727	2817.6491	1783.85	900.2
1008.3914	2818.8167	1815.95	935.7
1008.5101	2819.9837	1857.95	972.1
1008.6288	2821.15	1893.95	1014
1008.7474	2822.3157	1937.65	1058.6
1008.8659	2823.4807	1972.45	1089.3
1008.9844	2824.645	2012.65	1135.05
1009.1029	2825.8086	2035.8	1156.55
1009.2214	2826.9716	2073.6	1193.7
1009.3398	2828.134	2100.35	1220.85
1009.4581	2829.2957	2139.4	1258.65
1009.5764	2830.4567	2149.55	1268.65
1009.6947	2831.617	2169.95	1289.75
1009.813	2832.7767	2171.5	1291.05
1009.9312	2833.9358	2178.4	1300.1
1010.0493	2835.0941	2177.1	1292.75
1010.1675	2836.2519	2169.2	1290.2
1010.2855	2837.4089	2156.75	1275.3
1010.4036	2838.5653	2153.8	1273.8
1010.5216	2839.7211	2140.4	1260.95
1010.6396	2840.8761	2164	1279.4
1010.7575	2842.0306	2174.3	1297.25
1010.8754	2843.1843	2204.35	1322.25
1010.9932	2844.3374	2245.05	1364.25
1011.111	2845.4899	2305.75	1427.15
1011.2288	2846.6417	2358.3	1479
1011.3465	2847.7928	2414.6	1536.7
1011.4642	2848.9433	2484.6	1604.85
1011.5818	2850.0931	2552.45	1671.1
1011.6995	2851.2422	2627	1746.5
1011.817	2852.3907	2678.1	1798
1011.9345	2853.5385	2735.5	1855.55
1012.052	2854.6857	2808.4	1901.3
1012.1695	2855.8323	2839.2	1958.6
1012.2869	2856.9781	2869.85	1991.15
1012.4042	2858.1233	2916.6	2034.05
1012.5216	2859.2679	2953	2071.1
1012.6389	2860.4118	2988.6	2107.85
1012.7561	2861.555	3026.7	2142.1
1012.8733	2862.6976	3058.15	2175.6
1012.9905	2863.8395	3071.8	2192.1
1013.1076	2864.9808	3105.55	2224
1013.2247	2866.1214	3101.95	2221.75
1013.3417	2867.2614	3119.45	2237.4
1013.4587	2868.4007	3130.25	2249.45
1013.5757	2869.5393	3130.35	2248.75
1013.6926	2870.6773	3151.6	2267.3
1013.8095	2871.8146	3169.5	2286.1
1013.9263	2872.9513	3169.65	2284.95
1014.0431	2874.0874	3165.7	2284.95
1014.1599	2875.2227	3154.8	2272.6
1014.2766	2876.3574	3142.4	2260.25
1014.3933	2877.4915	3132.05	2252.75
1014.51	2878.6249	3108.75	2225.8
1014.6266	2879.7577	3092.15	2211.5
1014.7431	2880.8898	3069.35	2177.65
1014.8596	2882.0212	3039.2	2159.15
1014.9761	2883.152	3040.25	2158.85
1015.0925	2884.2821	3032.75	2152.95
1015.2089	2885.4116	3037.85	2159.9
1015.3253	2886.5405	3037	2157.05
1015.4416	2887.6686	3037.95	2155.05
1015.5579	2888.7962	3047.45	2169.85
1015.6741	2889.923	3055.75	2175.1
1015.7903	2891.0493	3052.25	2173.15
1015.9065	2892.1748	3066	2184.9
1016.0226	2893.2997	3073.15	2193
1016.1387	2894.424	3086.15	2207.4
1016.2547	2895.5476	3104.05	2224.7
1016.3707	2896.6706	3140.2	2259.7
1016.4866	2897.7929	3146.95	2265.45
1016.6025	2898.9145	3186.15	2302.4
1016.7184	2900.0355	3204.85	2324.8
1016.8342	2901.1559	3228.6	2345.75
1016.95	2902.2756	3256.8	2376.25
1017.0658	2903.3946	3289.65	2410.1
1017.1815	2904.513	3314.1	2430.35
1017.2971	2905.6308	3333.3	2452.55
1017.4127	2906.7479	3357	2476.55
1017.5283	2907.8643	3371.5	2490.65
1017.6439	2908.9801	3382.4	2501
1017.7594	2910.0953	3385.3	2504.05
1017.8748	2911.2098	3385.6	2502.8
1017.9902	2912.3236	3393.45	2505.5
1018.1056	2913.4368	3390.05	2506.8
1018.2209	2914.5494	3365.4	2483.7
1018.3362	2915.6613	3337.9	2450.2
1018.4515	2916.7725	3315.25	2433.4
1018.5667	2917.8831	3314.9	2433.5
1018.6819	2918.9931	3285.25	2400.55
1018.797	2920.1024	3251.8	2369.25
1018.9121	2921.211	3227.4	2345.95
1019.0271	2922.319	3219.4	2338.6
1019.1421	2923.4264	3203.3	2322.7
1019.2571	2924.5331	3185.95	2306.4
1019.372	2925.6391	3177.45	2299
1019.4869	2926.7445	3167.9	2287.55
1019.6017	2927.8493	3158.45	2279.55
1019.7165	2928.9534	3159.2	2277.15
1019.8313	2930.0569	3157.25	2272.55
1019.946	2931.1597	3152	2271.85
1020.0606	2932.2619	3154.55	2274.1
1020.1753	2933.3634	3144.05	2262.2
1020.2899	2934.4643	3135.95	2249.85
1020.4044	2935.5645	3121.25	2234.7
1020.5189	2936.6641	3088.05	2203.85
1020.6334	2937.763	3035.75	2156.9
1020.7478	2938.8613	3004.75	2124.75
1020.8622	2939.959	2954.2	2067.85
1020.9765	2941.056	2899.4	2019.95
1021.0908	2942.1523	2824.9	1942
1021.2051	2943.248	2746.95	1865.1
1021.3193	2944.3431	2678.45	1798.25
1021.4334	2945.4375	2577.5	1696.6
1021.5476	2946.5313	2515.95	1638
1021.6617	2947.6244	2419.95	1538.3
1021.7757	2948.7169	2338.8	1457.95
1021.8897	2949.8087	2253.85	1373.3
1022.0037	2950.8999	2181.8	1299.8
1022.1176	2951.9904	2111.5	1230.6
1022.2315	2953.0803	2048.25	1166.5
1022.3453	2954.1696	1999.35	1119.2
1022.4591	2955.2582	1955.15	1075.6
1022.5728	2956.3462	1921.2	1040.35
1022.6865	2957.4335	1885.55	1004.9
1022.8002	2958.5202	1861.8	980.55
1022.9138	2959.6062	1836.95	955.75
1023.0274	2960.6916	1821.45	940.55
1023.141	2961.7764	1814.55	933.15
1023.2545	2962.8605	1794.75	914.15
1023.3679	2963.9439	1782.6	902.75
1023.4813	2965.0267	1766.15	884.25
1023.5947	2966.1089	1792.55	889
1023.708	2967.1905	1770.9	892.2
1023.8213	2968.2714	1758.35	878.65
1023.9346	2969.3516	1758.8	879.65
1024.0478	2970.4312	1772.45	885.25
1024.1609	2971.5102	1759.7	878.4
1024.274	2972.5885	1767.8	887.1
1024.3871	2973.6662	1771.15	887.45
1024.5002	2974.7432	1766.5	889.6
1024.6132	2975.8196	1762.55	881.6
1024.7261	2976.8954	1749.4	871.6
1024.839	2977.9705	1726.65	846.7
1024.9519	2979.045	1729.8	847.95
1025.0647	2980.1188	1719.35	840.6
1025.1775	2981.192	1702.95	823.45
1025.2902	2982.2645	1681.15	799.95
1025.4029	2983.3364	1666.3	785.3
1025.5156	2984.4077	1636.95	755.8
1025.6282	2985.4783	1619.1	732.6
1025.7407	2986.5483	1588.6	708.55
1025.8532	2987.6177	1556.7	676.25
1025.9657	2988.6864	1527.8	646.9
1026.0782	2989.7545	1503.1	620.95
1026.1906	2990.8219	1485.35	607.65
1026.3029	2991.8887	1453.85	571.45
1026.4152	2992.9548	1426.7	546.35
1026.5275	2994.0204	1407.05	526.85
1026.6397	2995.0852	1381.35	501.7
1026.7519	2996.1495	1355.1	474.95
1026.864	2997.2131	1342.55	461.55
1026.9761	2998.276	1318.7	439.2
1027.0882	2999.3383	1301.55	419.9
1027.2002	3000.4	1290.75	411.1
1027.3122	3001.4611	1277	396.4
1027.4241	3002.5215	1268.2	386.6
1027.536	3003.5812	1261.2	379.6
1027.6478	3004.6404	1249.8	371.5
1027.7596	3005.6989	1241.55	357.5
1027.8714	3006.7567	1240.3	360.55
1027.9831	3007.8139	1250.05	342.5
1028.0947	3008.8705	1216.55	336.3
1028.2064	3009.9264	1222.55	340.9
1028.3179	3010.9818	1216.85	337.95
1028.4295	3012.0364	1218.85	337.4
1028.541	3013.0905	1209.5	328
1028.6524	3014.1439	1215.85	335
1028.7638	3015.1966	1211.15	332.3
1028.8752	3016.2487	1211	330.55
1028.9865	3017.3002	1208.8	326.5
1029.0978	3018.3511	1209.45	331.2
1029.209	3019.4013	1213.85	334.55
1029.3202	3020.4509	1213.8	334.95
1029.4314	3021.4998	1212.55	331.25
1029.5425	3022.5481	1210.65	331.35
1029.6535	3023.5958	1215.9	335.15
1029.7645	3024.6428	1215.8	332.2
1029.8755	3025.6892	1218.25	340.35
1029.9864	3026.735	1225.3	344.6
1030.0973	3027.7802	1219.65	340.1
1030.2082	3028.8247	1220.25	340.45
1030.319	3029.8685	1223.6	342.55
1030.4297	3030.9118	1230.5	351.05
1030.5404	3031.9544	1233.4	352.05
1030.6511	3032.9963	1235.55	354.15
1030.7617	3034.0376	1244.8	365.5
1030.8723	3035.0783	1242.3	356.5
1030.9829	3036.1184	1255.7	374.85
1031.0934	3037.1578	1251.05	370.65
1031.2038	3038.1966	1257.5	376.5
1031.3142	3039.2348	1254.45	376.1
1031.4246	3040.2723	1263.6	376
1031.5349	3041.3092	1248.55	369.65
1031.6452	3042.3455	1249.75	370.75
1031.7554	3043.3811	1251.05	372.5
1031.8656	3044.4161	1249.45	366.95
1031.9758	3045.4505	1238.45	357.9
1032.0859	3046.4842	1244.4	363.05
1032.1959	3047.5173	1229.5	349.3
1032.3059	3048.5498	1225.85	345.75
1032.4159	3049.5816	1220.2	340.2
1032.5258	3050.6128	1210.15	329.6
1032.6357	3051.6434	1210.8	331.75
1032.7455	3052.6734	1210.05	327.7
1032.8553	3053.7027	1197.9	318.4
1032.9651	3054.7314	1192.05	310.95
1033.0748	3055.7594	1188.6	306.9
1033.1845	3056.7868	1187.7	306.9
1033.2941	3057.8136	1180.5	299.85
1033.4037	3058.8398	1177.95	298.1
1033.5132	3059.8653	1174.85	293.9
1033.6227	3060.8902	1166.05	286
1033.7321	3061.9145	1165.25	285.95
1033.8415	3062.9381	1159.55	280.5
1033.9509	3063.9612	1172.95	276.35
1034.0602	3064.9835	1147.3	267.75
1034.1694	3066.0053	1149.1	267.7
1034.2787	3067.0264	1139.7	260.05
1034.3878	3068.0469	1138.7	257
1034.497	3069.0668	1128.4	245.15
1034.6061	3070.086	1122.8	243.45
1034.7151	3071.1046	1118.8	237.1
1034.8241	3072.1226	1108.75	227.55
1034.9331	3073.1399	1103.85	223.35
1035.042	3074.1567	1086.35	203.9
1035.1508	3075.1727	1087.55	205.65
1035.2597	3076.1882	1079.15	199.7
1035.3684	3077.203	1069.2	189.95
1035.4772	3078.2173	1064.95	183.55
1035.5859	3079.2308	1063.35	180.75
1035.6945	3080.2438	1056.25	174.5
1035.8031	3081.2561	1050.3	170.4
1035.9117	3082.2678	1040.95	160.1
1036.0202	3083.2789	1031.15	151.45
1036.1286	3084.2893	1028.85	147.7
1036.2371	3085.2991	1028.1	147.95
1036.3454	3086.3083	1026.7	142.9
1036.4538	3087.3169	1020.55	138.5
1036.562	3088.3248	1017.65	135.9
1036.6703	3089.3321	1014.55	133.05
1036.7785	3090.3388	1008.65	129.45
1036.8866	3091.3449	1006.6	127.3
1036.9948	3092.3503	1001	117.15
1037.1028	3093.3551	997.9	121.35
1037.2108	3094.3593	995.9	117
1037.3188	3095.3629	990.55	110.25
1037.4267	3096.3658	992.15	109
1037.5346	3097.3681	989.8	108.75
1037.6425	3098.3698	993.85	113.75
1037.7503	3099.3708	993.7	107.3
1037.858	3100.3713	981.9	102.25
1037.9657	3101.3711	980.95	100.4
1038.0734	3102.3702	1125.8	103.55
1038.181	3103.3688	982.2	100.3
1038.2886	3104.3667	978.15	99
1038.3961	3105.364	976.5	95.75
1038.5036	3106.3607	976.75	94.5
1038.611	3107.3568	974.05	93.05
1038.7184	3108.3522	972.15	92.8
1038.8257	3109.347	971	92.9
1038.933	3110.3412	977.15	92
1039.0403	3111.3348	971.1	91.85
1039.1475	3112.3277	967.45	87.15
1039.2547	3113.32	965.25	85.4
1039.3618	3114.3117	972.35	92.55
1039.4689	3115.3028	966.3	84.95
1039.5759	3116.2932	966.65	84.65
1039.6829	3117.2831	974.9	87.45
1039.7898	3118.2723	964.4	86.1
1039.8967	3119.2608	964.8	85.85
1040.0035	3120.2488	963.1	82.8
1040.1103	3121.2361	963.1	83.4
1040.2171	3122.2229	960.25	79.7
1040.3238	3123.209	962.65	79.7
1040.4305	3124.1944	959.05	80.3
1040.5371	3125.1793	962.35	81.85
1040.6437	3126.1635	957.6	78.4
1040.7502	3127.1471	957.45	77.55
1040.8567	3128.1301	957.75	76.85
1040.9631	3129.1125	956.8	79.15
1041.0695	3130.0942	956.1	76.15
1041.1759	3131.0753	961.6	72.8
1041.2822	3132.0558	958.9	76.1
1041.3884	3133.0357	955.65	76.1
1041.4946	3134.015	952.95	72.45
1041.6008	3134.9936	952.7	71.75
1041.7069	3135.9716	971.25	71.25
1041.813	3136.949	952	74
1041.919	3137.9258	967.4	68.6
1042.025	3138.902	953.65	68.85
1042.1309	3139.8775	947.3	67.85
1042.2368	3140.8524	946.9	67.6
1042.3427	3141.8267	946.95	63.15
1042.4485	3142.8004	947.3	66.95
1042.5542	3143.7735	949.85	64.7
1042.6599	3144.7459	946.65	64.65
1042.7656	3145.7178	948.15	68.35
1042.8712	3146.689	941.75	61.75
1042.9768	3147.6596	945.15	61.8
1043.0823	3148.6295	940.8	60.9
1043.1878	3149.5989	941.3	60.7
1043.2932	3150.5676	937.55	56.4
1043.3986	3151.5357	938.75	61.15
1043.5039	3152.5032	938.3	59.1
1043.6092	3153.4701	937	56.95
1043.7145	3154.4364	939.6	56.7
1043.8197	3155.402	937.55	60.05
1043.9248	3156.367	939.15	55.9
1044.03	3157.3315	973.85	57.75
1044.135	3158.2952	937.05	58.55
1044.24	3159.2584	932	52
1044.345	3160.221	937.15	56.45
1044.4499	3161.1829	932.6	51.45
1044.5548	3162.1442	932	52.4
1044.6596	3163.105	932.35	51.75
1044.7644	3164.065	931.2	50.3
1044.8692	3165.0245	935.9	55.9
1044.9739	3165.9834	930.15	50.8
1045.0785	3166.9416	929.7	49.15
1045.1831	3167.8993	932.05	50.35
1045.2877	3168.8563	931.6	50.75
1045.3922	3169.8127	928.8	48.65
1045.4966	3170.7684	928.95	51.35
1045.6011	3171.7236	928.6	47.25
1045.7054	3172.6782	931.35	50.6
1045.8098	3173.6321	929.2	50.35
1045.914	3174.5854	934.25	50.9
1046.0183	3175.5381	928	48.55
1046.1224	3176.4902	926.9	47.25
1046.2266	3177.4417	928.2	48.35
1046.3307	3178.3926	924.95	46.05
1046.4347	3179.3428	924.8	44.95
1046.5387	3180.2924	924.25	43.45
1046.6427	3181.2415	926.85	46.35
1046.7466	3182.1899	927.5	47.7
1046.8504	3183.1377	926.95	47.4
1046.9542	3184.0848	929.1	47.4
1047.058	3185.0314	926.15	46.3
1047.1617	3185.9773	925.65	45.15
1047.2654	3186.9227	926.65	45.55
1047.369	3187.8674	925.4	44.45
1047.4726	3188.8115	929.7	46.75
1047.5761	3189.755	924.25	44.55
1047.6796	3190.6979	925.65	44.7
1047.783	3191.6402	922.05	43.9
1047.8864	3192.5818	923.65	44.35
1047.9898	3193.5229	950.2	42.45
1048.0931	3194.4633	925.45	45
1048.1963	3195.4031	922.15	41.15
1048.2995	3196.3423	921.6	41.15
1048.4027	3197.2809	921.85	41.85
1048.5058	3198.2189	922.75	42
1048.6089	3199.1563	940.05	42.9
1048.7119	3200.0931	921.3	43.4
1048.8148	3201.0292	919.35	41.9
1048.9178	3201.9648	920.4	41.85
1049.0206	3202.8997	921.45	38.2
1049.1235	3203.834	917.95	37.1
1049.2262	3204.7677	919.05	38.9
1049.329	3205.7008	919.35	36.05
1049.4317	3206.6333	914.8	36.8
1049.5343	3207.5652	922.25	40.35
1049.6369	3208.4964	919.9	41.55
1049.7394	3209.4271	916.15	37.1
1049.8419	3210.3571	917.1	37.05
1049.9444	3211.2865	918.1	36.25
1050.0468	3212.2154	918.9	40.95
1050.1491	3213.1436	920.8	36.5
1050.2514	3214.0712	924.85	37.2
1050.3537	3214.9982	916.7	34.75
1050.4559	3215.9246	918	36.9
1050.5581	3216.8503	916.3	37.6
1050.6602	3217.7755	915.2	33.35
1050.7623	3218.7001	917.1	38.7
1050.8643	3219.624	914.7	34.35
1050.9663	3220.5473	916.95	38.3
1051.0682	3221.4701	914.65	33.05
1051.1701	3222.3922	918.4	37.15
1051.2719	3223.3137	915.2	35.8
1051.3737	3224.2346	914.55	34.9
1051.4754	3225.1549	914.7	35.65
1051.5771	3226.0746	915.55	37.65
1051.6788	3226.9937	914.8	32.75
1051.7804	3227.9121	912.4	34.7
1051.8819	3228.83	916.7	36.7
1051.9834	3229.7473	916.7	35.55
1052.0849	3230.6639	915.05	35.45
1052.1863	3231.5799	915.8	36.1
1052.2876	3232.4954	916.25	34.05
1052.3889	3233.4102	913.7	34.15
1052.4902	3234.3244	912	32.55
1052.5914	3235.238	913.3	32.25
1052.6926	3236.151	937.35	35.25
1052.7937	3237.0634	912.7	33.15
1052.8948	3237.9752	910.85	30.65
1052.9958	3238.8864	914.7	35.95
1053.0968	3239.797	911.95	29.6
1053.1977	3240.7069	915.45	36.1
1053.2986	3241.6163	912.25	31.15
1053.3994	3242.5251	912.5	34.15
1053.5002	3243.4332	912.15	34.4
1053.6009	3244.3408	911.9	28.9
1053.7016	3245.2477	908.85	30.6
1053.8022	3246.154	911.65	31.3
1053.9028	3247.0598	911	29.65
1054.0034	3247.9649	911.75	34
1054.1039	3248.8694	907.8	27.9
1054.2043	3249.7733	910.55	30.5
1054.3047	3250.6766	907.6	30.35
1054.4051	3251.5793	910.55	30
1054.5054	3252.4814	908.55	29.7
1054.6056	3253.3829	906.6	27.25
1054.7058	3254.2838	909.1	27.65
1054.806	3255.1841	907.05	28.85
1054.9061	3256.0838	909.05	29.9
1055.0061	3256.9829	905.45	28.3
1055.1062	3257.8814	908.9	27.1
1055.2061	3258.7792	907.85	25.9
1055.306	3259.6765	908.9	30
1055.4059	3260.5731	904.6	25.4
1055.5057	3261.4692	906.5	24.9
1055.6055	3262.3647	906.1	23.65
1055.7052	3263.2595	904.7	22.15
1055.8049	3264.1538	903.7	25.55
1055.9045	3265.0474	905.05	24.7
1056.0041	3265.9404	903.2	22.8
1056.1036	3266.8329	902.75	24.85
1056.2031	3267.7247	912.5	22.1
1056.3025	3268.616	901.5	23.55
1056.4019	3269.5066	900.7	22.4
1056.5013	3270.3966	902.4	20.1
1056.6005	3271.286	899.25	20.95
