Software Version:	3.9.2.0
Unit SN:	10000200
Spectrometer SN:	6960
Date:	3/14/2024 2:06:14 PM
Data Line Index:	25
Spectral Points:	2048
Integration time (ms):	125
Averages:	20
Delay (ms):	30000
Sequence Number:	1
Processing:	dark subtract
Laser Power (mW):	305
Laser Current (mA):	824
Laser Diode Temp (C):	25.1
Laser Case Temp (C):	29
System Temp (C):	29
Spectrometer Temp (C):	26.8
CCD Temp (C):	0.009
Secondary Temp (C):	20.008
Heatsink Temp (C):	24.843
CCDPCB Temp (C):	38.341
SecondaryPCB Temp (C):	35.929

Wavelength	RamanShift	Raw Counts	Dark Subtracted
787.061	30.1047	445.5	33.6
787.2016	32.3739	449.4	37.9
787.3422	34.6426	450.35	39.15
787.4828	36.9109	454.55	43.25
787.6235	39.1787	463.6	46.35
787.7642	41.4461	471.4	52.2
787.9049	43.7131	478.8	56
788.0456	45.9796	483.6	57.65
788.1863	48.2456	494.15	60.9
788.3271	50.5112	503.95	67.4
788.4679	52.7764	508.95	72.55
788.6087	55.0411	517.05	77.2
788.7496	57.3054	528.45	82
788.8904	59.5692	535	87.45
789.0313	61.8326	545.75	93.25
789.1722	64.0955	555.7	99.05
789.3132	66.3579	571.65	108.8
789.4541	68.6199	582.45	117.85
789.5951	70.8815	611.4	144.1
789.7361	73.1426	665.65	194.25
789.8771	75.4032	808.85	332.4
790.0181	77.6634	1159.3	676.65
790.1592	79.9231	1996.6	1507.7
790.3003	82.1824	3811.4	3314.5
790.4414	84.4412	7131.9	6616.3
790.5825	86.6995	11878.8	11341.5
790.7237	88.9574	16676.9	16116.7
790.8648	91.2148	20138.1	19565.95
791.006	93.4717	21846.05	21262.15
791.1472	95.7282	22360.9	21773.6
791.2885	97.9842	22428.75	21839.6
791.4297	100.2398	22059.65	21465.9
791.571	102.4949	21605.4	21009.1
791.7123	104.7495	21069.5	20471
791.8536	107.0036	20456.65	19855.85
791.9949	109.2573	19838.65	19237.8
792.1363	111.5105	19222.1	18621.4
792.2777	113.7632	18611.15	18007.6
792.4191	116.0154	18101.2	17485.05
792.5605	118.2672	17695.6	17089.15
792.7019	120.5185	17311.5	16704.75
792.8434	122.7693	16969.6	16358.05
792.9849	125.0197	16720.15	16104.85
793.1264	127.2696	16503	15889.65
793.2679	129.519	16386.35	15767.65
793.4094	131.7679	16259.5	15639.15
793.551	134.0163	16147.85	15523.25
793.6926	136.2642	16051.65	15418.85
793.8342	138.5117	15947.5	15305.4
793.9758	140.7587	15774.4	15141.7
794.1175	143.0052	15638.65	15003.3
794.2591	145.2512	15536.65	14900.95
794.4008	147.4967	15340.95	14701.5
794.5425	149.7417	15241.55	14604.45
794.6842	151.9863	15144.95	14505.8
794.826	154.2304	15105.85	14458.6
794.9677	156.4739	14996.15	14348.35
795.1095	158.717	14924.6	14276.35
795.2513	160.9596	14806.65	14151.5
795.3931	163.2017	14592.25	13936.45
795.535	165.4433	14359.9	13700.15
795.6768	167.6844	14109	13448.85
795.8187	169.925	13891.75	13226.35
795.9606	172.1651	13559.7	12891.25
796.1025	174.4047	13303.25	12635.45
796.2445	176.6439	13109.05	12437.05
796.3864	178.8825	12903.6	12232.5
796.5284	181.1206	12742.3	12063.7
796.6704	183.3582	12612.95	11930.4
796.8124	185.5954	12517.95	11834.05
796.9544	187.832	12419.45	11733.65
797.0965	190.0681	12401.9	11717.75
797.2386	192.3037	12360.4	11670.1
797.3806	194.5388	12324.9	11633.45
797.5228	196.7734	12376.6	11681.25
797.6649	199.0075	12425.3	11721.55
797.807	201.2411	12506.6	11803.75
797.9492	203.4742	12539.05	11834.7
798.0914	205.7068	12634.25	11929.95
798.2336	207.9389	12688.25	11984.4
798.3758	210.1704	12802.45	12096.85
798.518	212.4015	12887.85	12175.7
798.6603	214.632	13017.25	12306.8
798.8025	216.862	13157.55	12453.15
798.9448	219.0915	13288.55	12591.6
799.0871	221.3205	13481.1	12789.15
799.2294	223.549	13696.7	13011.55
799.3718	225.777	13955.5	13266.85
799.5141	228.0044	14338.2	13644.95
799.6565	230.2314	14739.7	14052.15
799.7989	232.4578	15134	14444.7
799.9413	234.6837	15429	14729.8
800.0837	236.909	15634	14936.35
800.2262	239.1339	15575.45	14854.6
800.3687	241.3582	15348.3	14641.35
800.5111	243.582	15017.15	14281.3
800.6536	245.8053	14691.05	13965.7
800.7961	248.0281	14320.95	13601.15
800.9387	250.2503	14078.6	13351.55
801.0812	252.472	13902.7	13173.35
801.2238	254.6932	13811.4	13077.8
801.3664	256.9139	13674.25	12938.5
801.509	259.134	13619.8	12883.6
801.6516	261.3536	13521.2	12785.3
801.7942	263.5727	13470.25	12735.75
801.9369	265.7912	13372.7	12635
802.0795	268.0092	13304.85	12569
802.2222	270.2267	13247.45	12510.1
802.3649	272.4436	13161.6	12418.75
802.5076	274.6601	13126	12375.25
802.6504	276.8759	13061.75	12318.75
802.7931	279.0913	13084.55	12340.35
802.9359	281.3061	13084.35	12337.7
803.0787	283.5204	13175.15	12426.35
803.2215	285.7341	13278.6	12529.2
803.3643	287.9473	13410.65	12647.8
803.5071	290.16	13629	12872.8
803.6499	292.3721	13886.4	13131.65
803.7928	294.5837	14264.8	13513.05
803.9357	296.7947	14566.7	13813.1
804.0786	299.0052	14731.9	13977.05
804.2215	301.2152	14572.7	13816.4
804.3644	303.4246	14246.4	13492.45
804.5074	305.6334	13787.55	13033.9
804.6503	307.8418	13296.6	12539.45
804.7933	310.0495	12981.2	12224
804.9363	312.2568	12769.6	12010.4
805.0793	314.4635	12594.35	11835.75
805.2223	316.6696	12546.65	11788.4
805.3653	318.8752	12569.7	11802
805.5084	321.0802	12615.7	11852.7
805.6514	323.2847	12702.45	11939.5
805.7945	325.4887	12742.05	11978.3
805.9376	327.692	12688.95	11925.75
806.0807	329.8949	12586.85	11820.85
806.2238	332.0972	12335.7	11568.35
806.367	334.2989	12097.25	11325
806.5101	336.5001	11891.2	11120.4
806.6533	338.7007	11712.1	10943.3
806.7965	340.9008	11612.25	10841.5
806.9397	343.1003	11508.45	10733.75
807.0829	345.2992	11479.8	10703.45
807.2261	347.4976	11434.3	10658.9
807.3693	349.6955	11464.65	10683.55
807.5126	351.8927	11516.65	10738.65
807.6559	354.0895	11493.75	10700.3
807.7991	356.2856	11534.85	10753.8
807.9424	358.4812	11520.2	10739.35
808.0857	360.6763	11535.1	10752
808.2291	362.8707	11477.05	10692.35
808.3724	365.0646	11492.95	10709.4
808.5158	367.258	11493.55	10707.05
808.6591	369.4508	11477.25	10686.35
808.8025	371.643	11518.95	10727
808.9459	373.8346	11511	10717.8
809.0893	376.0257	11448.1	10653.4
809.2327	378.2162	11370.65	10577.3
809.3762	380.4062	11269.95	10470.95
809.5196	382.5956	11141.2	10342.2
809.6631	384.7844	11044.5	10247.15
809.8066	386.9726	10989.35	10188.65
809.9501	389.1603	10940.4	10143
810.0936	391.3474	10925.1	10094.8
810.2371	393.5339	10876.1	10077.7
810.3806	395.7199	10823.85	10031.45
810.5241	397.9052	10840	10049
810.6677	400.09	10829.2	10040.85
810.8113	402.2743	10836.4	10042.4
810.9548	404.4579	10870.3	10080.6
811.0984	406.641	11006.7	10215.9
811.2421	408.8235	11163.7	10373.1
811.3857	411.0054	11466.25	10670.35
811.5293	413.1868	11847	11052.3
811.673	415.3675	12129.25	11330.9
811.8166	417.5477	12319.75	11522.55
811.9603	419.7273	12327.3	11525
812.104	421.9064	12210.95	11404.75
812.2477	424.0848	12063	11261.75
812.3914	426.2627	11885.45	11082.3
812.5351	428.4399	11649.9	10843.25
812.6788	430.6166	11353.3	10541.75
812.8226	432.7928	11055.9	10245.3
812.9663	434.9683	10788.8	9977.6
813.1101	437.1432	10635.8	9822.3
813.2539	439.3176	10489.4	9673.7
813.3977	441.4914	10410.35	9596.75
813.5415	443.6645	10393.25	9575.8
813.6853	445.8371	10324.3	9508
813.8291	448.0091	10272.8	9457.6
813.973	450.1806	10242.95	9428.15
814.1168	452.3514	10179.15	9360.4
814.2607	454.5216	10162.1	9333.7
814.4046	456.6913	10079.45	9258.1
814.5485	458.8603	10095.7	9275.95
814.6924	461.0288	10145.2	9329.5
814.8363	463.1967	10164.5	9347
814.9802	465.3639	10251.75	9433.05
815.1241	467.5306	10369.3	9547.95
815.2681	469.6967	10501.1	9681
815.412	471.8622	10632.95	9812.25
815.556	474.0271	10771.2	9948.7
815.7	476.1914	10817.85	9994.8
815.844	478.3551	10759.1	9935.8
815.988	480.5182	10711.75	9890.9
816.132	482.6807	10674.45	9851.1
816.276	484.8426	10736.5	9913.2
816.4201	487.0039	10920.7	10099.15
816.5641	489.1647	11227.4	10401.05
816.7082	491.3248	11558.25	10735.5
816.8522	493.4843	11737.1	10910.5
816.9963	495.6432	11713.9	10888.6
817.1404	497.8015	11649.25	10821.5
817.2845	499.9592	11676.3	10849.75
817.4286	502.1163	11624.75	10798.85
817.5727	504.2728	11488.1	10659
817.7168	506.4287	11221.35	10392.25
817.861	508.5839	10864.55	10034.9
818.0051	510.7386	10605.2	9778.1
818.1493	512.8927	10411.45	9574.95
818.2935	515.0461	10292.3	9463.65
818.4377	517.199	10191.2	9361.7
818.5818	519.3512	10130.7	9300.2
818.726	521.5029	10129.95	9295.85
818.8703	523.6539	10118.2	9288.15
819.0145	525.8043	10131.1	9298.3
819.1587	527.9541	10184.65	9349.8
819.303	530.1033	10194.95	9361.25
819.4472	532.2519	10255.85	9422.3
819.5915	534.3999	10395.35	9561
819.7357	536.5472	10611.45	9777.55
819.88	538.694	11035.8	10199.8
820.0243	540.8401	11548.15	10711.45
820.1686	542.9856	11993.6	11156.75
820.3129	545.1305	12135.25	11297.55
820.4572	547.2748	11970.7	11133.15
820.6016	549.4185	11607	10767.65
820.7459	551.5615	11296.8	10456.8
820.8902	553.704	11160.3	10321.35
821.0346	555.8458	11042.7	10203.6
821.1789	557.987	11022.3	10185.1
821.3233	560.1276	10901.7	10062
821.4677	562.2675	10808	9971.3
821.6121	564.4069	10696.65	9861.35
821.7565	566.5456	10550.9	9716.05
821.9009	568.6837	10429.7	9591.45
822.0453	570.8212	10275.8	9441.35
822.1897	572.958	10110.7	9271.2
822.3342	575.0942	9963.6	9127.65
822.4786	577.2299	9907.4	9068.25
822.6231	579.3648	9911.4	9074.05
822.7675	581.4992	9983.5	9145.85
822.912	583.6329	10158.4	9319.25
823.0565	585.766	10355.05	9515.75
823.201	587.8985	10436.2	9596.25
823.3454	590.0304	10418.2	9568.15
823.4899	592.1616	10347.8	9507.5
823.6345	594.2922	10301.3	9458.65
823.779	596.4222	10188.65	9348.8
823.9235	598.5515	10057.55	9213.05
824.068	600.6802	9921.45	9080.8
824.2126	602.8083	9764.5	8922.1
824.3571	604.9358	9719.3	8875.6
824.5017	607.0626	9627.4	8781.5
824.6462	609.1888	9560.6	8715.2
824.7908	611.3144	9442.85	8601.7
824.9354	613.4393	9317.1	8473.25
825.08	615.5636	9198.35	8354.3
825.2246	617.6873	9094.4	8248.75
825.3692	619.8103	9043.7	8193.55
825.5138	621.9327	8988.4	8140.9
825.6584	624.0544	8975.3	8130.35
825.803	626.1756	8987.3	8142.85
825.9477	628.2961	8955.1	8106.95
826.0923	630.4159	8908.3	8062.5
826.237	632.5351	8894.65	8047.95
826.3816	634.6537	8818.95	7969.15
826.5263	636.7716	8787.75	7937.3
826.6709	638.8889	8792.9	7945.6
826.8156	641.0056	8784	7933.4
826.9603	643.1216	8773	7921.9
827.105	645.237	8783.8	7934.3
827.2497	647.3518	8779.15	7929.75
827.3944	649.4659	8792.35	7942.05
827.5391	651.5793	8800.65	7946.6
827.6838	653.6922	8796.15	7947
827.8285	655.8043	8753.2	7902.6
827.9733	657.9159	8748.9	7897.85
828.118	660.0268	8691.75	7837.1
828.2627	662.137	8611.25	7758.15
828.4075	664.2466	8572.55	7719.95
828.5522	666.3556	8519.3	7668.7
828.697	668.4639	8537.55	7682.65
828.8418	670.5716	8595.05	7742.05
828.9865	672.6786	8636	7782.8
829.1313	674.785	8719.4	7863.7
829.2761	676.8907	8782.6	7928.5
829.4209	678.9958	8822.75	7969.6
829.5657	681.1002	8812.2	7957.9
829.7105	683.204	8770.15	7912.8
829.8553	685.3072	8677.55	7820
830.0001	687.4097	8630.1	7774.35
830.1449	689.5115	8575.5	7717.1
830.2898	691.6127	8498.45	7642.5
830.4346	693.7132	8449.85	7592.5
830.5794	695.8131	8410.1	7531.1
830.7243	697.9123	8358.05	7501.3
830.8691	700.0109	8309.85	7452.55
831.014	702.1089	8290.25	7434.25
831.1588	704.2061	8276.95	7420.05
831.3037	706.3028	8309.25	7451.5
831.4486	708.3987	8347.6	7490.8
831.5935	710.4941	8408.75	7550.2
831.7383	712.5887	8556.2	7697.7
831.8832	714.6827	8806	7945.3
832.0281	716.7761	9105	8247.95
832.173	718.8688	9400.05	8542.35
832.3179	720.9608	9532	8668.1
832.4628	723.0522	9529.35	8665.25
832.6077	725.1429	9326.35	8467.35
832.7527	727.233	9009.5	8149.95
832.8976	729.3224	8729.35	7869.1
833.0425	731.4112	8487.35	7626.6
833.1874	733.4993	8321.4	7457.95
833.3324	735.5867	8214.65	7352.75
833.4773	737.6735	8140.1	7274.1
833.6222	739.7596	8117.1	7256.1
833.7672	741.845	8106.65	7243.15
833.9122	743.9298	8090.8	7227.65
834.0571	746.014	8067.8	7206.85
834.2021	748.0974	8093.65	7229.7
834.347	750.1802	8066.1	7201.85
834.492	752.2624	8059.5	7198.95
834.637	754.3439	8077.2	7213.65
834.782	756.4247	8116.4	7242
834.9269	758.5048	8170.45	7307.05
835.0719	760.5843	8278.15	7412.35
835.2169	762.6631	8503.6	7640.55
835.3619	764.7413	8804.9	7944.6
835.5069	766.8188	9237.5	8371.35
835.6519	768.8956	9581.85	8717
835.7969	770.9718	9806.5	8945.25
835.9419	773.0473	9703.8	8837.6
836.0869	775.1221	9434.45	8568
836.232	777.1962	9135.95	8271.05
836.377	779.2697	8967.1	8099.3
836.522	781.3426	9045.9	8165.35
836.667	783.4147	9269.65	8405.95
836.8121	785.4862	9551	8689.15
836.9571	787.557	9543.45	8677.85
837.1021	789.6271	9241.9	8376.5
837.2472	791.6966	8804.2	7940.9
837.3922	793.7654	8391.5	7524.5
837.5373	795.8335	8164.6	7301.15
837.6823	797.901	8028.05	7163.85
837.8274	799.9678	7986.65	7120.4
837.9724	802.0339	8003.45	7139.55
838.1175	804.0993	8040.5	7163.9
838.2626	806.1641	8016.05	7149.55
838.4076	808.2282	7978.65	7112.95
838.5527	810.2916	7894.35	7024.85
838.6978	812.3544	7810.95	6946.6
838.8428	814.4164	7722.3	6859.4
838.9879	816.4778	7709.25	6842.2
839.133	818.5385	7698.25	6834
839.2781	820.5986	7723.75	6859.1
839.4232	822.658	7746.55	6880.25
839.5682	824.7166	7758.1	6893.65
839.7133	826.7747	7861.6	6996.75
839.8584	828.832	7930.35	7063.8
840.0035	830.8886	8005.1	7135.15
840.1486	832.9446	8114.15	7245.55
840.2937	834.9999	8200.1	7333.75
840.4388	837.0545	8263.7	7392.1
840.5839	839.1085	8308.15	7440.75
840.729	841.1618	8299	7426.8
840.8741	843.2143	8286.75	7419.15
841.0192	845.2662	8239.85	7372.8
841.1643	847.3175	8185.25	7317.7
841.3095	849.368	8092.45	7226.5
841.4546	851.4179	8008.6	7140.75
841.5997	853.467	7885.05	7017.7
841.7448	855.5155	7802.45	6933.4
841.8899	857.5633	7704.5	6836.35
842.0351	859.6105	7602.55	6735.1
842.1802	861.6569	7561.75	6692.9
842.3253	863.7027	7501.35	6631.6
842.4704	865.7478	7489.5	6620.25
842.6156	867.7922	7485.9	6615.75
842.7607	869.8359	7511.45	6640.55
842.9058	871.8789	7624.5	6755
843.0509	873.9212	7769.5	6863.8
843.1961	875.9629	7870.45	7000.85
843.3412	878.0039	8015.05	7143.25
843.4863	880.0441	8066.65	7196.45
843.6315	882.0837	8076	7205.1
843.7766	884.1226	7951.55	7076.1
843.9218	886.1609	7839.8	6970.85
844.0669	888.1984	7720.55	6850.7
844.212	890.2352	7654.5	6784.55
844.3572	892.2714	7604.85	6730.55
844.5023	894.3069	7581.75	6709.95
844.6475	896.3416	7537.45	6666.8
844.7926	898.3757	7497.1	6626.9
844.9377	900.4091	7482	6611.65
845.0829	902.4418	7537.3	6659.7
845.228	904.4739	7521.55	6647.35
845.3732	906.5052	7474.65	6603.7
845.5183	908.5358	7376	6507.95
845.6635	910.5658	7264.85	6390.95
845.8086	912.595	7151.05	6279.2
845.9538	914.6236	7074.9	6203.3
846.0989	916.6515	7053.35	6183.85
846.2441	918.6786	7032.95	6160.8
846.3892	920.7051	7102.35	6227.4
846.5344	922.7309	7152.35	6283.5
846.6795	924.756	7209.25	6336.65
846.8246	926.7804	7267	6394.2
846.9698	928.8041	7252.4	6379.8
847.1149	930.8272	7275.65	6403.25
847.2601	932.8495	7200.85	6325.2
847.4052	934.8711	7151.6	6278.65
847.5504	936.892	7015.65	6143.75
847.6955	938.9123	6885.05	6011.45
847.8407	940.9318	6758.25	5887.6
847.9858	942.9506	6660	5788.2
848.131	944.9688	6593	5718.6
848.2761	946.9862	6554.65	5682.4
848.4213	949.003	6502.1	5627.4
848.5664	951.019	6506.3	5632.05
848.7115	953.0344	6538.55	5662.45
848.8567	955.0491	6569.4	5694.05
849.0018	957.063	6622.2	5746.3
849.147	959.0763	6701.35	5828.15
849.2921	961.0888	6708.5	5830.9
849.4373	963.1007	6786.3	5911.95
849.5824	965.1119	6821.95	5949.6
849.7275	967.1223	6826.2	5952.85
849.8727	969.1321	6845.95	5971
850.0178	971.1412	6858.35	5985
850.1629	973.1495	6883.8	6010.25
850.3081	975.1572	6940.25	6017.95
850.4532	977.1641	6939.4	6066.2
850.5983	979.1704	6911.1	6036.5
850.7435	981.1759	6896.05	6016.1
850.8886	983.1808	6952.8	6080.4
851.0337	985.1849	7048.05	6161.8
851.1788	987.1884	7163.95	6287.85
851.324	989.1911	7314.75	6436.4
851.4691	991.1932	7421.1	6542.25
851.6142	993.1945	7450.75	6577.05
851.7593	995.1951	7427.85	6551.1
851.9045	997.1951	7412.95	6532.45
852.0496	999.1943	7352.3	6479.7
852.1947	1001.1928	7282.15	6408.15
852.3398	1003.1906	7250.65	6374.5
852.4849	1005.1877	7279.55	6402
852.63	1007.1841	7254.3	6378.55
852.7751	1009.1798	7187.35	6312.75
852.9202	1011.1748	7017.45	6143.75
853.0653	1013.1691	6858.45	5981.9
853.2104	1015.1627	6683.7	5806.5
853.3555	1017.1556	6548.3	5673.7
853.5006	1019.1477	6494.95	5618.65
853.6457	1021.1392	6441.1	5566.9
853.7908	1023.1299	6452.2	5577
853.9359	1025.12	6479.75	5601.85
854.081	1027.1093	6477.55	5601.6
854.2261	1029.0979	6544.5	5670.7
854.3712	1031.0859	6585	5710.45
854.5163	1033.0731	6589.95	5715.45
854.6613	1035.0596	6508.9	5635.15
854.8064	1037.0454	6407.4	5531.55
854.9515	1039.0304	6300.5	5420.8
855.0965	1041.0148	6209.9	5331.85
855.2416	1042.9985	6155.7	5278
855.3867	1044.9814	6131	5254.3
855.5317	1046.9636	6101.4	5223.15
855.6768	1048.9452	6070.55	5196
855.8219	1050.926	6078.3	5202.45
855.9669	1052.9061	6056.95	5182.85
856.112	1054.8855	6062.8	5186.9
856.257	1056.8642	6055.8	5179.75
856.4021	1058.8421	6105.15	5225.3
856.5471	1060.8194	6126.9	5252.45
856.6921	1062.7959	6135.7	5259.3
856.8372	1064.7717	6137.55	5260.35
856.9822	1066.7469	6124.05	5246
857.1272	1068.7213	6107	5228.3
857.2723	1070.695	6087.05	5210.45
857.4173	1072.6679	6028.4	5147.8
857.5623	1074.6402	5995.45	5120.4
857.7073	1076.6117	5957.4	5075.3
857.8523	1078.5826	5977.1	5099.95
857.9973	1080.5527	6058.5	5179.05
858.1423	1082.5221	6162.45	5285.1
858.2873	1084.4908	6321.45	5445.15
858.4323	1086.4587	6500.9	5619.8
858.5773	1088.426	6613.65	5736.55
858.7223	1090.3925	6616.95	5732.4
858.8673	1092.3584	6530.8	5655.4
859.0123	1094.3235	6405.55	5528.25
859.1573	1096.2879	6325.7	5447.45
859.3022	1098.2515	6286.05	5407.05
859.4472	1100.2145	6301.1	5423.65
859.5922	1102.1767	6341.3	5458.65
859.7371	1104.1382	6444.2	5563.35
859.8821	1106.099	6627.55	5746.6
860.027	1108.0591	6768.85	5891.2
860.172	1110.0185	6848.25	5967.5
860.3169	1111.9771	6843.5	5967.05
860.4619	1113.9351	6680.6	5803.9
860.6068	1115.8923	6418.55	5538.85
860.7517	1117.8488	6147.85	5271.1
860.8967	1119.8045	5933.3	5054.15
861.0416	1121.7596	5835.1	4953.8
861.1865	1123.7139	5754.45	4879.9
861.3314	1125.6675	5783.85	4904.6
861.4763	1127.6204	5842.75	4965.1
861.6212	1129.5726	5856.75	4975.7
861.7661	1131.524	5871.9	4993.6
861.911	1133.4748	5923.5	5045.45
862.0559	1135.4248	5920.8	5041.95
862.2008	1137.3741	5945.45	5070.25
862.3457	1139.3226	5925.85	5045.1
862.4905	1141.2705	5909.75	5033.35
862.6354	1143.2176	5854	4968.95
862.7803	1145.164	5867.5	4986.4
862.9251	1147.1097	5890.5	5011.55
863.07	1149.0546	5892.3	5012.7
863.2148	1150.9989	5795.5	4914.6
863.3597	1152.9424	5658.5	4779.15
863.5045	1154.8852	5510.55	4630.3
863.6493	1156.8272	5409.7	4530.7
863.7942	1158.7686	5360.25	4476.1
863.939	1160.7092	5327.85	4448.05
864.0838	1162.6491	5305.8	4425.15
864.2286	1164.5883	5346.1	4468.8
864.3734	1166.5267	5429	4548.55
864.5182	1168.4644	5541.6	4661.65
864.663	1170.4014	5682.3	4799.45
864.8078	1172.3377	5832.75	4956.6
864.9526	1174.2732	5975.05	5094.85
865.0974	1176.2081	6122.25	5241.55
865.2421	1178.1421	6236.35	5353.65
865.3869	1180.0755	6333.45	5455.5
865.5317	1182.0082	6330.5	5452.2
865.6764	1183.9401	6268.3	5388.2
865.8212	1185.8713	6131.75	5254.85
865.9659	1187.8017	5952.5	5072.8
866.1106	1189.7315	5737.3	4859.8
866.2554	1191.6605	5576.3	4668
866.4001	1193.5888	5409.35	4530.9
866.5448	1195.5163	5323	4442.3
866.6895	1197.4432	5255.8	4375.2
866.8342	1199.3693	5178.05	4299.3
866.9789	1201.2947	5172	4289.3
867.1236	1203.2193	5144.55	4265.3
867.2683	1205.1432	5168.85	4289.5
867.413	1207.0664	5212.65	4333.9
867.5576	1208.9889	5281.35	4399.2
867.7023	1210.9106	5327.2	4446.25
867.847	1212.8316	5374.4	4495.8
867.9916	1214.7519	5456.4	4566.05
868.1363	1216.6715	5467.8	4588.75
868.2809	1218.5903	5450.65	4572.15
868.4255	1220.5084	5408.1	4529.9
868.5701	1222.4257	5382.1	4504.85
868.7148	1224.3424	5338.6	4458.5
868.8594	1226.2583	5400.35	4516.15
869.004	1228.1735	5465.8	4584.5
869.1486	1230.0879	5563.95	4685.6
869.2932	1232.0016	5654.65	4777.15
869.4377	1233.9146	5681.75	4800.9
869.5823	1235.8269	5617.15	4736.75
869.7269	1237.7384	5508.95	4629.95
869.8715	1239.6492	5392.65	4512.7
870.016	1241.5592	5305.45	4424.9
870.1606	1243.4686	5219.35	4339.35
870.3051	1245.3772	5175.45	4297.6
870.4496	1247.285	5120.75	4242.2
870.5941	1249.1922	5094.75	4214.25
870.7387	1251.0986	5081.2	4201.8
870.8832	1253.0042	5099	4218.05
871.0277	1254.9092	5137.2	4258.3
871.1722	1256.8134	5204	4324.8
871.3167	1258.7169	5317.8	4439.25
871.4611	1260.6196	5429.3	4551.05
871.6056	1262.5216	5582.9	4699.5
871.7501	1264.4229	5662.4	4783.4
871.8945	1266.3234	5761.85	4881.05
872.039	1268.2232	5767.95	4886.95
872.1834	1270.1223	5759.6	4879.15
872.3278	1272.0207	5729.75	4848.45
872.4723	1273.9183	5717.05	4830.3
872.6167	1275.8151	5632.1	4751.25
872.7611	1277.7113	5571.7	4688.9
872.9055	1279.6067	5444.4	4566
873.0499	1281.5014	5338.2	4455.8
873.1943	1283.3953	5247.15	4364.25
873.3386	1285.2885	5173.5	4295.85
873.483	1287.181	5129.65	4248.75
873.6274	1289.0727	5102.2	4224.85
873.7717	1290.9637	5152.4	4271.6
873.9161	1292.854	5212.7	4331.55
874.0604	1294.7435	5347.1	4467.7
874.2047	1296.6323	5512.3	4630.1
874.349	1298.5204	5716.85	4834.5
874.4933	1300.4077	5892.5	5010.6
874.6376	1302.2943	6033.8	5154.25
874.7819	1304.1802	6086.5	5207.45
874.9262	1306.0653	6041.2	5156.65
875.0705	1307.9497	5962.85	5083.15
875.2147	1309.8333	5903	5021.85
875.359	1311.7162	5897.65	5016.9
875.5032	1313.5984	5973.3	5090.8
875.6475	1315.4798	6079.1	5187.75
875.7917	1317.3605	6223.1	5326.45
875.9359	1319.2405	6330.25	5446.6
876.0801	1321.1197	6366	5483.25
876.2243	1322.9982	6338.4	5454.75
876.3685	1324.876	6316.65	5436.5
876.5127	1326.753	6301	5420.45
876.6569	1328.6293	6309.2	5426.4
876.801	1330.5048	6323.4	5438.5
876.9452	1332.3796	6311.3	5430.65
877.0893	1334.2537	6293.85	5384.9
877.2335	1336.127	6241.8	5361.35
877.3776	1337.9996	6220.35	5340.9
877.5217	1339.8714	6186.4	5304.4
877.6658	1341.7426	6173.45	5248.45
877.8099	1343.6129	6105.85	5226.5
877.954	1345.4826	6039.4	5157.55
878.0981	1347.3515	6006.35	5122.8
878.2422	1349.2196	5960.7	5078.75
878.3862	1351.087	5943.55	5062.3
878.5303	1352.9537	5986.25	5103.95
878.6743	1354.8197	6064.4	5184.05
878.8184	1356.6849	6181.5	5303.1
878.9624	1358.5493	6239.25	5357.25
879.1064	1360.4131	6238.35	5357.85
879.2504	1362.276	6184.8	5303.35
879.3944	1364.1383	6071.15	5189.95
879.5384	1365.9998	5890.45	5005.55
879.6823	1367.8606	5659.9	4778.35
879.8263	1369.7206	5491.6	4611.6
879.9702	1371.5799	5398.15	4514.95
880.1142	1373.4384	5308.9	4427.3
880.2581	1375.2962	5222.65	4341.1
880.402	1377.1533	5056.8	4175.45
880.5459	1379.0096	4856.45	3974.1
880.6898	1380.8652	4659.45	3776.85
880.8337	1382.7201	4479.45	3599.9
880.9776	1384.5742	4354.6	3473.75
881.1215	1386.4275	4258.95	3376.3
881.2653	1388.2802	4157.75	3276.05
881.4092	1390.132	4094.95	3212.75
881.553	1391.9832	4059.1	3176.05
881.6968	1393.8336	4016.75	3136.15
881.8406	1395.6832	3997.15	3113.85
881.9844	1397.5322	3965.9	3083.8
882.1282	1399.3803	3961.6	3074.35
882.272	1401.2278	3958.5	3075.2
882.4158	1403.0745	3968	3086.1
882.5595	1404.9204	3956.35	3077.95
882.7033	1406.7656	3966.9	3087.15
882.847	1408.6101	3963.05	3079.95
882.9908	1410.4538	4001.55	3119.5
883.1345	1412.2968	4024.6	3145.35
883.2782	1414.139	4058.95	3178.1
883.4219	1415.9805	4114.35	3230.95
883.5656	1417.8213	4208.15	3319.8
883.7092	1419.6613	4302.35	3422.45
883.8529	1421.5006	4448.05	3567.15
883.9965	1423.3391	4637.15	3753.15
884.1402	1425.1769	4937.45	4053.1
884.2838	1427.0139	5301.3	4419.45
884.4274	1428.8502	5755.8	4874.4
884.571	1430.6858	6241.1	5357.55
884.7146	1432.5206	6548.05	5665.95
884.8582	1434.3547	6726.65	5844.1
885.0018	1436.188	6752.6	5872.4
885.1453	1438.0206	6694.5	5811.8
885.2889	1439.8524	6600	5719.4
885.4324	1441.6835	6541.95	5659.2
885.5759	1443.5139	6473	5589.2
885.7194	1445.3435	6426.8	5544.95
885.8629	1447.1724	6391.3	5510.15
886.0064	1449.0005	6352.25	5469.8
886.1499	1450.8279	6253.9	5369.9
886.2933	1452.6545	6230.2	5347.7
886.4368	1454.4804	6238.4	5357.85
886.5802	1456.3056	6243	5352
886.7237	1458.13	6172.2	5291.8
886.8671	1459.9536	6001.8	5119.55
887.0105	1461.7766	5718	4837.8
887.1539	1463.5987	5401.35	4518.05
887.2972	1465.4202	5095.55	4213.05
887.4406	1467.2409	4841.15	3959.9
887.584	1469.0608	4638.5	3756.65
887.7273	1470.88	4448.6	3566.85
887.8706	1472.6984	4277.15	3395.4
888.0139	1474.5161	4149.15	3262.25
888.1572	1476.3331	4038.2	3156.95
888.3005	1478.1493	3936.45	3054.45
888.4438	1479.9648	3870.3	2987.75
888.5871	1481.7795	3792.05	2909.9
888.7303	1483.5935	3756.7	2875.3
888.8736	1485.4067	3707.45	2826.2
889.0168	1487.2192	3660.85	2779.35
889.16	1489.031	3642.9	2758.05
889.3032	1490.842	3620.1	2739.9
889.4464	1492.6522	3586.55	2704.9
889.5896	1494.4618	3565.25	2684.8
889.7327	1496.2705	3550.85	2670.4
889.8759	1498.0785	3540.7	2657.35
890.019	1499.8858	3520.6	2639.55
890.1622	1501.6924	3510.85	2629.1
890.3053	1503.4981	3499	2617.7
890.4484	1505.3032	3489.55	2608
890.5914	1507.1075	3463.55	2581
890.7345	1508.911	3450	2570.55
890.8776	1510.7138	3425.2	2543.35
891.0206	1512.5159	3399.6	2519.45
891.1637	1514.3172	3381.7	2500.25
891.3067	1516.1178	3359.1	2480.1
891.4497	1517.9176	3338	2455.65
891.5927	1519.7166	3317.65	2435.65
891.7357	1521.515	3324.15	2437.2
891.8786	1523.3126	3308.05	2426.95
892.0216	1525.1094	3287.75	2403.55
892.1645	1526.9055	3260.05	2381.1
892.3074	1528.7008	3257.9	2376.3
892.4503	1530.4954	3246.65	2364.05
892.5932	1532.2893	3234.15	2356.45
892.7361	1534.0824	3226.2	2340.4
892.879	1535.8747	3228.5	2348.25
893.0218	1537.6663	3224	2340.75
893.1647	1539.4572	3215	2331.95
893.3075	1541.2473	3206	2324.7
893.4503	1543.0367	3204.95	2323.55
893.5931	1544.8253	3199.9	2312.85
893.7359	1546.6132	3206.5	2323.75
893.8787	1548.4003	3203.5	2309.4
894.0214	1550.1867	3223.35	2336.25
894.1642	1551.9723	3226	2338.45
894.3069	1553.7572	3238.65	2356.25
894.4496	1555.5414	3265.4	2383.65
894.5923	1557.3247	3276.75	2394.9
894.735	1559.1074	3315.1	2435.1
894.8777	1560.8893	3352.85	2471.9
895.0204	1562.6705	3385.6	2503.9
895.163	1564.4509	3451.4	2570.65
895.3056	1566.2305	3509.3	2628.85
895.4482	1568.0094	3586.7	2706.25
895.5908	1569.7876	3639	2758.75
895.7334	1571.565	3691.25	2808.05
895.876	1573.3417	3719.45	2837.8
896.0186	1575.1176	3717.6	2837
896.1611	1576.8928	3717.2	2836.05
896.3036	1578.6672	3648.4	2768.35
896.4461	1580.4409	3562.1	2681.65
896.5886	1582.2138	3473.45	2590.7
896.7311	1583.986	3387.05	2507.35
896.8736	1585.7575	3327.65	2449.55
897.0161	1587.5282	3254.95	2374.5
897.1585	1589.2981	3212.9	2331.95
897.3009	1591.0673	3192.15	2312.4
897.4433	1592.8358	3181.7	2300.5
897.5857	1594.6035	3180.4	2299.2
897.7281	1596.3704	3173.5	2290.05
897.8705	1598.1366	3178.15	2296.8
898.0128	1599.9021	3192.4	2312.55
898.1551	1601.6668	3218.65	2334.3
898.2975	1603.4308	3246.15	2364.9
898.4398	1605.194	3307.8	2422.45
898.5821	1606.9564	3364.35	2481.6
898.7243	1608.7182	3445.6	2560.9
898.8666	1610.4791	3539.25	2657
899.0088	1612.2394	3649.9	2770.15
899.1511	1613.9988	3782.65	2900.5
899.2933	1615.7576	3958.85	3077.7
899.4355	1617.5156	4127.8	3242
899.5776	1619.2728	4294.6	3413.05
899.7198	1621.0293	4435.8	3555.9
899.862	1622.785	4503.75	3617.6
900.0041	1624.54	4442.1	3559.5
900.1462	1626.2942	4351.9	3470.6
900.2883	1628.0477	4182.05	3298.15
900.4304	1629.8005	3990.25	3107.35
900.5725	1631.5525	3817.45	2936.55
900.7145	1633.3037	3669.15	2786.95
900.8566	1635.0542	3558	2676.85
900.9986	1636.804	3463	2580.4
901.1406	1638.553	3444.3	2493.5
901.2826	1640.3013	3365.6	2484.9
901.4245	1642.0488	3333.4	2449.4
901.5665	1643.7955	3327.3	2448.05
901.7085	1645.5416	3347.75	2464.3
901.8504	1647.2868	3393.55	2514.65
901.9923	1649.0313	3431.75	2551.45
902.1342	1650.7751	3543	2658.6
902.2761	1652.5181	3683.7	2805.25
902.4179	1654.2604	3890.55	3008.55
902.5598	1656.0019	4095.8	3214.5
902.7016	1657.7427	4370.35	3490.55
902.8434	1659.4828	4631.75	3750.95
902.9852	1661.222	4803.15	3923.6
903.127	1662.9606	4825.5	3944.8
903.2687	1664.6984	4689.3	3809.55
903.4105	1666.4354	4434.5	3554.25
903.5522	1668.1717	4110	3228.55
903.6939	1669.9072	3762.15	2883.55
903.8356	1671.642	3510.6	2628.2
903.9773	1673.3761	3314.5	2434.9
904.119	1675.1094	3158.2	2279.1
904.2606	1676.8419	3018.5	2139.75
904.4022	1678.5737	2945.05	2064.85
904.5439	1680.3048	2870.35	1990.2
904.6855	1682.0351	2824.15	1946.1
904.827	1683.7646	2785.75	1902.95
904.9686	1685.4934	2745.65	1866.6
905.1101	1687.2215	2718	1834.55
905.2517	1688.9488	2704.4	1824.9
905.3932	1690.6754	2690.7	1811.15
905.5347	1692.4012	2670	1792.3
905.6761	1694.1263	2658.15	1776.05
905.8176	1695.8506	2633.2	1752.1
905.9591	1697.5742	2631.6	1752.75
906.1005	1699.297	2607.05	1727.4
906.2419	1701.0191	2599.95	1720.8
906.3833	1702.7404	2579.4	1700.2
906.5246	1704.461	2554.4	1671.9
906.666	1706.1808	2556.8	1675.5
906.8073	1707.8999	2557.3	1675.95
906.9487	1709.6182	2537.5	1657.35
907.09	1711.3358	2537.95	1658.75
907.2313	1713.0527	2526.55	1647.8
907.3725	1714.7688	2524.05	1637.8
907.5138	1716.4841	2497.55	1615.3
907.655	1718.1987	2511.15	1626.95
907.7962	1719.9126	2487.45	1609.15
907.9374	1721.6257	2484.95	1601.9
908.0786	1723.338	2474.65	1593.8
908.2198	1725.0496	2458.05	1576.95
908.3609	1726.7605	2456.35	1575.75
908.502	1728.4706	2446.75	1563.05
908.6431	1730.18	2435.45	1554.3
908.7842	1731.8886	2432.8	1553.8
908.9253	1733.5964	2423.05	1537.5
909.0664	1735.3036	2418.7	1536.4
909.2074	1737.0099	2428.15	1547.3
909.3484	1738.7156	2413.8	1535.55
909.4894	1740.4204	2401.05	1518.95
909.6304	1742.1246	2399.55	1516.85
909.7714	1743.8279	2392.55	1513.95
909.9123	1745.5306	2395.75	1516.6
910.0532	1747.2325	2381.55	1501.7
910.1941	1748.9336	2378.95	1499.7
910.335	1750.634	2382.85	1501.2
910.4759	1752.3336	2371.3	1492.4
910.6168	1754.0325	2361.7	1484.7
910.7576	1755.7307	2354.95	1475.15
910.8984	1757.4281	2349.15	1468.2
911.0392	1759.1247	2351.75	1464.9
911.18	1760.8206	2348.5	1466.65
911.3208	1762.5158	2346.1	1463.15
911.4615	1764.2102	2322.45	1445.8
911.6022	1765.9039	2343.95	1464.65
911.7429	1767.5968	2328.65	1448.85
911.8836	1769.289	2324.4	1444.05
912.0243	1770.9804	2313.05	1433.95
912.1649	1772.6711	2310.65	1429.8
912.3056	1774.361	2301.3	1423.25
912.4462	1776.0502	2310.1	1432.6
912.5868	1777.7386	2308.3	1427.85
912.7274	1779.4263	2296.3	1415
912.8679	1781.1132	2295.5	1413.8
913.0084	1782.7994	2284.2	1402.05
913.149	1784.4849	2280.4	1400.25
913.2895	1786.1696	2285.5	1386.5
913.4299	1787.8535	2277.2	1398.65
913.5704	1789.5367	2270.35	1389.4
913.7108	1791.2192	2268.35	1387.7
913.8513	1792.9009	2286.55	1379.65
913.9917	1794.5818	2262	1382.3
914.132	1796.2621	2251.25	1372.25
914.2724	1797.9415	2258.95	1379
914.4128	1799.6202	2250.5	1370.6
914.5531	1801.2982	2247.95	1367.85
914.6934	1802.9755	2253.65	1372.45
914.8337	1804.6519	2245.35	1367.45
914.9739	1806.3277	2243.5	1361.75
915.1142	1808.0027	2220.6	1341.25
915.2544	1809.6769	2218.35	1336.05
915.3946	1811.3504	2227.95	1350
915.5348	1813.0231	2228.4	1347.45
915.675	1814.6951	2221.15	1342.15
915.8151	1816.3664	2217.4	1335.7
915.9553	1818.0369	2212.65	1332.75
916.0954	1819.7067	2200.4	1322
916.2355	1821.3757	2204.85	1322.75
916.3755	1823.044	2193.85	1313.85
916.5156	1824.7115	2197	1317.3
916.6556	1826.3783	2194.25	1317.65
916.7956	1828.0443	2182.85	1304.75
916.9356	1829.7096	2190.9	1310.1
917.0756	1831.3741	2195.4	1311.85
917.2155	1833.0379	2189.9	1310.75
917.3555	1834.701	2183.25	1300.95
917.4954	1836.3633	2172.6	1292.05
917.6353	1838.0248	2167.1	1286.15
917.7751	1839.6856	2173	1291.9
917.915	1841.3457	2167.85	1289
918.0548	1843.005	2164.85	1285.7
918.1946	1844.6636	2160.05	1282.9
918.3344	1846.3214	2159.75	1282.05
918.4742	1847.9785	2160.35	1282.8
918.6139	1849.6349	2151.35	1271.05
918.7537	1851.2904	2166.65	1279.45
918.8934	1852.9453	2149.6	1270.9
919.0331	1854.5994	2143.3	1261.15
919.1727	1856.2528	2153.5	1268
919.3124	1857.9054	2149.05	1269
919.452	1859.5572	2138.1	1260.45
919.5916	1861.2083	2142.85	1262.05
919.7312	1862.8587	2137.95	1257.9
919.8708	1864.5084	2123.5	1245.5
920.0103	1866.1572	2120.85	1245.2
920.1498	1867.8054	2112.8	1232.55
920.2893	1869.4528	2104.05	1224
920.4288	1871.0994	2109.55	1229.3
920.5683	1872.7453	2105.2	1222.15
920.7077	1874.3905	2106.45	1221.5
920.8471	1876.0349	2096.45	1217.75
920.9865	1877.6786	2099.85	1218.2
921.1259	1879.3215	2100.25	1221.8
921.2653	1880.9637	2096.4	1213.9
921.4046	1882.6051	2078.9	1200.7
921.5439	1884.2458	2092.15	1210.3
921.6832	1885.8858	2078.75	1198.2
921.8225	1887.525	2075.8	1194.25
921.9617	1889.1634	2061.95	1184.25
922.101	1890.8011	2068.8	1187.7
922.2402	1892.4381	2069.3	1191.45
922.3794	1894.0743	2065.6	1187.35
922.5185	1895.7098	2058.6	1182.05
922.6577	1897.3446	2063.05	1181.5
922.7968	1898.9786	2067.35	1183.75
922.9359	1900.6118	2051.1	1170.85
923.075	1902.2443	2055.65	1172.85
923.214	1903.8761	2043.65	1166.1
923.3531	1905.5071	2046.1	1163.25
923.4921	1907.1374	2037.5	1154.9
923.6311	1908.7669	2039.55	1161
923.77	1910.3957	2034.1	1152.5
923.909	1912.0237	2020.15	1142.2
924.0479	1913.651	2018.8	1138.15
924.1868	1915.2776	2021.15	1144.75
924.3257	1916.9034	2013.25	1136.55
924.4646	1918.5285	2013.25	1134.7
924.6034	1920.1528	2012.7	1130.85
924.7422	1921.7764	2013.55	1134
924.881	1923.3992	2001.95	1122.6
925.0198	1925.0213	1990.6	1111.7
925.1586	1926.6427	1994.1	1114.85
925.2973	1928.2633	2086.1	1102.85
925.436	1929.8832	1994.35	1113.3
925.5747	1931.5023	1977.35	1098.75
925.7134	1933.1207	1971.85	1094.95
925.852	1934.7383	1978.5	1099.35
925.9906	1936.3552	1976.1	1096.55
926.1292	1937.9714	1974.8	1094.2
926.2678	1939.5868	1961.1	1078.25
926.4064	1941.2015	1958.4	1077.7
926.5449	1942.8154	1948.05	1068.75
926.6834	1944.4286	1953.1	1073.45
926.8219	1946.041	1969.95	1064.7
926.9604	1947.6528	1941.3	1055.8
927.0988	1949.2637	1936.95	1058
927.2372	1950.8739	1932.75	1051.8
927.3756	1952.4834	1929	1046.95
927.514	1954.0921	1925.4	1046.95
927.6523	1955.7001	1933.3	1047.95
927.7907	1957.3074	1908.7	1029.5
927.929	1958.9139	1904.65	1026
928.0673	1960.5197	1903.25	1022.5
928.2055	1962.1247	1905.35	1026.05
928.3438	1963.729	1904.5	1027.65
928.482	1965.3325	1921.45	1017.45
928.6202	1966.9353	1892.6	1015.5
928.7584	1968.5374	1893.2	1011.75
928.8965	1970.1387	1886.7	1006.55
929.0346	1971.7393	1878.6	996.15
929.1727	1973.3392	1873.7	995.65
929.3108	1974.9383	1868.85	989.65
929.4489	1976.5366	1869.2	987.2
929.5869	1978.1342	1877.25	996.45
929.7249	1979.7311	1873.15	989.75
929.8629	1981.3273	1868.9	989.75
930.0009	1982.9227	1866.6	985.75
930.1388	1984.5173	1856.4	976.9
930.2767	1986.1112	1856.05	978.35
930.4146	1987.7044	1846.6	965.4
930.5525	1989.2968	1860.15	978.8
930.6904	1990.8885	1850.8	967.8
930.8282	1992.4795	1851.55	973
930.966	1994.0697	1858.7	980.15
931.1038	1995.6592	1837.6	957.35
931.2415	1997.2479	1835.3	955.35
931.3793	1998.8359	1831.6	951.05
931.517	2000.4232	1827.75	947.3
931.6547	2002.0097	1834.1	955.85
931.7923	2003.5955	1831.15	949.35
931.93	2005.1805	1824.65	944.2
932.0676	2006.7648	1827.15	947.75
932.2052	2008.3484	1822.85	942.1
932.3427	2009.9312	1819.6	936.15
932.4803	2011.5133	1810.35	931.45
932.6178	2013.0946	1814.9	936.1
932.7553	2014.6752	1817.95	940.55
932.8928	2016.2551	1815.9	938.85
933.0302	2017.8342	1811.4	932.5
933.1676	2019.4126	1801.25	922.4
933.305	2020.9902	1795.7	917.55
933.4424	2022.5672	1792.45	909.4
933.5798	2024.1433	1804.95	919.05
933.7171	2025.7188	1792.15	912.15
933.8544	2027.2935	1782	899.75
933.9917	2028.8674	1777.15	896.95
934.129	2030.4406	1775.6	896.1
934.2662	2032.0131	1779.85	900.65
934.4034	2033.5849	1783.4	898.6
934.5406	2035.1559	1773.45	892.75
934.6778	2036.7261	1770.7	890.65
934.8149	2038.2957	1766.75	886.3
934.952	2039.8645	1759.7	881.15
935.0891	2041.4325	1771.4	888.8
935.2262	2042.9998	1757.85	876
935.3632	2044.5664	1761.65	880.8
935.5002	2046.1323	1755.1	875.25
935.6372	2047.6974	1754.25	875.55
935.7742	2049.2617	1758.2	878.35
935.9111	2050.8254	1782.55	880
936.048	2052.3883	1748.7	866.2
936.1849	2053.9504	1743.15	863.55
936.3218	2055.5118	1745.9	863.6
936.4586	2057.0725	1748.65	866.55
936.5955	2058.6325	1738.85	859.45
936.7323	2060.1917	1745.35	865.65
936.869	2061.7502	1732.4	851.15
937.0058	2063.3079	1738.6	860.05
937.1425	2064.8649	1725	840.6
937.2792	2066.4212	1728	845.25
937.4159	2067.9767	1720.15	839.9
937.5525	2069.5315	1721.1	842.9
937.6891	2071.0856	1716.05	835.7
937.8257	2072.6389	1721.75	840.6
937.9623	2074.1915	1707.85	830.3
938.0989	2075.7433	1702.25	821.9
938.2354	2077.2945	1708.05	829.9
938.3719	2078.8448	1698.55	819.95
938.5084	2080.3945	1697.25	816.15
938.6448	2081.9434	1693.75	814.4
938.7812	2083.4916	1693.45	815.65
938.9176	2085.039	1688.65	809
939.054	2086.5857	1689.35	808.05
939.1903	2088.1317	1691.7	811.15
939.3267	2089.677	1682.95	801.55
939.463	2091.2215	1672.55	794
939.5992	2092.7652	1682.55	802.4
939.7355	2094.3083	1673.05	793.7
939.8717	2095.8506	1672.9	793.95
940.0079	2097.3921	1675.8	796.95
940.1441	2098.933	1674.9	793.8
940.2802	2100.4731	1663.95	784.7
940.4163	2102.0124	1677.35	792.4
940.5524	2103.5511	1659.65	780.9
940.6885	2105.089	1670.15	790.1
940.8245	2106.6261	1661.2	781.75
940.9606	2108.1626	1656.65	774.95
941.0965	2109.6983	1677.8	768.05
941.2325	2111.2332	1667.65	786.1
941.3684	2112.7675	1658.05	778.45
941.5044	2114.301	1657.65	777.65
941.6403	2115.8337	1653.35	774.7
941.7761	2117.3657	1659	780.3
941.912	2118.897	1653.5	772.6
942.0478	2120.4276	1652.75	767
942.1835	2121.9575	1640.9	760.55
942.3193	2123.4866	1662.3	767.05
942.455	2125.0149	1649.5	768.7
942.5907	2126.5426	1634.9	754.55
942.7264	2128.0695	1639.7	755.95
942.8621	2129.5956	1629.85	750.4
942.9977	2131.1211	1642.15	757.7
943.1333	2132.6458	1631.1	750.75
943.2689	2134.1698	1633.95	754.25
943.4044	2135.693	1633.25	748.3
943.54	2137.2155	1629.55	749.9
943.6755	2138.7373	1625	743.65
943.8109	2140.2584	1621.1	741.2
943.9464	2141.7787	1629.45	744.05
944.0818	2143.2983	1620.5	742.65
944.2172	2144.8171	1607.15	729.9
944.3526	2146.3353	1618.65	738.35
944.4879	2147.8527	1607.35	730
944.6232	2149.3693	1607.7	727.25
944.7585	2150.8853	1609.25	728.45
944.8938	2152.4005	1605.35	724.3
945.029	2153.9149	1604.8	724.15
945.1642	2155.4287	1597.5	716.95
945.2994	2156.9417	1592.7	711.5
945.4346	2158.454	1599.05	717.05
945.5697	2159.9655	1593.4	712.4
945.7048	2161.4764	1599	719.05
945.8399	2162.9865	1591.95	712
945.9749	2164.4958	1602.7	721.7
946.1099	2166.0045	1588.05	706.3
946.2449	2167.5124	1584.5	704.55
946.3799	2169.0195	1581.8	702.9
946.5148	2170.526	1588.55	708
946.6498	2172.0317	1580.55	700.25
946.7846	2173.5367	1573.3	693.05
946.9195	2175.0409	1585.2	706.65
947.0543	2176.5445	1579.85	700
947.1891	2178.0473	1575.4	695.9
947.3239	2179.5494	1577.6	692.7
947.4587	2181.0507	1567.85	688.5
947.5934	2182.5513	1568.9	688.9
947.7281	2184.0512	1570.35	688.3
947.8628	2185.5504	1566.55	685.75
947.9974	2187.0488	1561.3	680.2
948.132	2188.5465	1557.2	675.75
948.2666	2190.0435	1567.05	685.25
948.4012	2191.5397	1552.55	671.8
948.5357	2193.0353	1549.65	670.95
948.6702	2194.5301	1553.55	672.75
948.8047	2196.0241	1550.6	670.75
948.9392	2197.5175	1549.6	668.85
949.0736	2199.0101	1551.9	667.55
949.208	2200.502	1544.5	666.3
949.3424	2201.9931	1540.25	660.65
949.4767	2203.4835	1542.05	662.6
949.611	2204.9733	1544.05	657.05
949.7453	2206.4622	1532.2	650.9
949.8796	2207.9505	1538.25	653.65
950.0138	2209.438	1526.85	646.25
950.148	2210.9248	1523.4	642.1
950.2822	2212.4109	1526.15	646.15
950.4164	2213.8962	1525.7	643.3
950.5505	2215.3809	1531.55	652.5
950.6846	2216.8648	1524.3	643.55
950.8186	2218.3479	1519.65	635.7
950.9527	2219.8304	1515.95	633.2
951.0867	2221.3121	1514.7	632.85
951.2207	2222.7931	1511.7	631.3
951.3546	2224.2733	1509.4	628.1
951.4886	2225.7529	1507.05	625.7
951.6225	2227.2317	1514.1	631.9
951.7563	2228.7098	1513.2	632.7
951.8902	2230.1872	1500.15	622.05
952.024	2231.6638	1503.5	623.6
952.1578	2233.1397	1502.75	613.95
952.2916	2234.6149	1498.05	617.15
952.4253	2236.0894	1491.4	611.45
952.559	2237.5632	1496.55	604.8
952.6927	2239.0362	1486.75	607.3
952.8263	2240.5085	1485.85	605.5
952.9599	2241.9801	1483.15	603.25
953.0935	2243.4509	1483.95	606.35
953.2271	2244.921	1479.65	599.2
953.3606	2246.3904	1485.1	604.3
953.4941	2247.8591	1476.55	596.75
953.6276	2249.3271	1475.5	594.2
953.7611	2250.7943	1473.3	593.35
953.8945	2252.2608	1468.2	586.95
954.0279	2253.7266	1476.35	597.4
954.1612	2255.1917	1469.6	589.8
954.2946	2256.656	1464.75	583.8
954.4279	2258.1197	1461.75	580.15
954.5612	2259.5826	1462.35	581.45
954.6944	2261.0447	1458.3	575
954.8276	2262.5062	1458.45	577.7
954.9608	2263.9669	1457.95	575.85
955.094	2265.4269	1450.7	569
955.2271	2266.8862	1454.65	573.8
955.3602	2268.3448	1457.9	577.95
955.4933	2269.8026	1455.2	574.15
955.6264	2271.2598	1454.55	575.25
955.7594	2272.7162	1448.4	569.75
955.8924	2274.1719	1454.25	573.9
956.0253	2275.6268	1444.65	566.45
956.1583	2277.0811	1444.15	563.95
956.2912	2278.5346	1443.45	564.3
956.4241	2279.9874	1448.65	567.4
956.5569	2281.4395	1443.65	565.65
956.6897	2282.8908	1444.75	558.1
956.8225	2284.3414	1440.75	559.2
956.9553	2285.7914	1444.9	568.4
957.088	2287.2406	1439.95	557.1
957.2207	2288.689	1439.35	558.95
957.3534	2290.1368	1434.9	553.5
957.486	2291.5838	1434.3	553.35
957.6186	2293.0302	1433.2	553.2
957.7512	2294.4758	1433.15	552.45
957.8838	2295.9206	1429.75	546.1
958.0163	2297.3648	1430.6	551.55
958.1488	2298.8082	1421.05	539.7
958.2813	2300.251	1428.05	549.1
958.4137	2301.693	1425.15	542.95
958.5461	2303.1343	1421.95	542.5
958.6785	2304.5748	1424.45	545.6
958.8108	2306.0147	1419.05	538.25
958.9432	2307.4538	1423.35	541.4
959.0754	2308.8922	1416.7	538.85
959.2077	2310.3299	1413.9	533.7
959.3399	2311.7669	1409.3	528.95
959.4721	2313.2031	1414.6	535.15
959.6043	2314.6387	1407.45	525.95
959.7365	2316.0735	1402.55	522.1
959.8686	2317.5076	1404.95	522.45
960.0006	2318.941	1404.05	523.65
960.1327	2320.3737	1396.6	515.05
960.2647	2321.8056	1404.6	521.8
960.3967	2323.2369	1396.2	515.9
960.5287	2324.6674	1395.9	513
960.6606	2326.0972	1389.65	508.75
960.7925	2327.5263	1393	513.4
960.9244	2328.9547	1402.6	522.65
961.0562	2330.3823	1402.3	519.9
961.1881	2331.8092	1397.4	513.15
961.3198	2333.2355	1389.15	510.4
961.4516	2334.661	1391.5	511
961.5833	2336.0858	1385.45	503.35
961.715	2337.5098	1383.1	503.9
961.8467	2338.9332	1379.15	496.7
961.9783	2340.3558	1388.4	502.15
962.1099	2341.7778	1383.4	503.6
962.2415	2343.199	1379.1	495.4
962.373	2344.6195	1382	500.65
962.5045	2346.0393	1382.65	503.75
962.636	2347.4583	1380.1	502.3
962.7675	2348.8767	1377.2	494.75
962.8989	2350.2943	1375.65	494.35
963.0303	2351.7113	1379.25	498.5
963.1617	2353.1275	1380.2	500
963.293	2354.543	1398.25	493.8
963.4243	2355.9578	1377.95	496.25
963.5556	2357.3718	1372.4	492.7
963.6868	2358.7852	1371.9	490.3
963.818	2360.1978	1371.75	489.3
963.9492	2361.6098	1366.85	488.65
964.0803	2363.021	1370.75	487.9
964.2114	2364.4315	1366.55	486.9
964.3425	2365.8413	1367.9	487.85
964.4736	2367.2504	1361.85	484.5
964.6046	2368.6587	1357.1	476.15
964.7356	2370.0664	1352.8	472.5
964.8666	2371.4733	1354.05	472.9
964.9975	2372.8795	1351.85	474.8
965.1284	2374.285	1358.05	478.35
965.2593	2375.6899	1345.85	469
965.3901	2377.0939	1345	466.3
965.5209	2378.4973	1351.2	472.35
965.6517	2379.9	1341.85	461.7
965.7825	2381.3019	1347.65	466.45
965.9132	2382.7032	1343.55	466.15
966.0439	2384.1037	1338.55	459.35
966.1745	2385.5035	1341.5	460.9
966.3051	2386.9027	1336.45	459
966.4357	2388.3011	1333.5	450.8
966.5663	2389.6987	1337.3	457.9
966.6968	2391.0957	1329.1	449.95
966.8273	2392.492	1328.25	449.2
966.9578	2393.8876	1329.75	449.95
967.0882	2395.2824	1320.05	440.4
967.2186	2396.6765	1327.3	449.9
967.349	2398.07	1319.6	442.85
967.4793	2399.4627	1322.5	440.5
967.6097	2400.8547	1324.95	446.05
967.7399	2402.246	1326.45	442.35
967.8702	2403.6366	1322.7	444.5
968.0004	2405.0265	1316.5	436.4
968.1306	2406.4156	1324.55	441.05
968.2607	2407.8041	1320.75	438.85
968.3909	2409.1918	1319.6	439.25
968.521	2410.5789	1315.65	435.05
968.651	2411.9652	1315.75	433.9
968.781	2413.3508	1311.3	432.55
968.911	2414.7358	1316.6	437
969.041	2416.12	1315.5	436.65
969.1709	2417.5035	1310.3	433.55
969.3008	2418.8863	1311.4	433.2
969.4307	2420.2684	1308.5	427.75
969.5606	2421.6497	1310.85	431.05
969.6904	2423.0304	1300.85	422.35
969.8201	2424.4104	1305.15	425
969.9499	2425.7896	1298.75	418.8
970.0796	2427.1682	1301.9	422.2
970.2093	2428.546	1304.8	424.1
970.3389	2429.9232	1302.35	421.05
970.4685	2431.2996	1298.8	419.3
970.5981	2432.6753	1292.5	413
970.7277	2434.0503	1292.25	411.85
970.8572	2435.4246	1296.1	414.5
970.9867	2436.7982	1295.55	415.4
971.1161	2438.1711	1288.45	410.65
971.2456	2439.5433	1285.35	405.4
971.375	2440.9148	1291.6	406.15
971.5043	2442.2856	1285.35	407.5
971.6336	2443.6557	1283.3	401.95
971.7629	2445.025	1286.2	408.05
971.8922	2446.3937	1283.4	402.15
972.0214	2447.7617	1279.95	397.95
972.1506	2449.1289	1281.6	403.75
972.2798	2450.4955	1282.1	397.85
972.4089	2451.8613	1279.95	402.2
972.538	2453.2265	1277.95	399.35
972.6671	2454.5909	1280.6	400
972.7961	2455.9546	1278	397.85
972.9251	2457.3177	1277.1	397.65
973.0541	2458.68	1283.5	400.95
973.1831	2460.0416	1281.8	402.25
973.312	2461.4025	1278	396.4
973.4408	2462.7627	1284.35	391.95
973.5697	2464.1222	1277.45	400.2
973.6985	2465.4811	1280.1	400.8
973.8273	2466.8392	1274.9	394.05
973.956	2468.1966	1278.6	395.95
974.0847	2469.5533	1278.05	395.2
974.2134	2470.9093	1273.8	393.1
974.3421	2472.2645	1277.6	394.95
974.4707	2473.6191	1275.25	395.35
974.5993	2474.973	1263.6	384.25
974.7278	2476.3262	1272.2	390.25
974.8563	2477.6787	1268.25	390.25
974.9848	2479.0305	1267.65	387.5
975.1132	2480.3816	1264.85	383.45
975.2417	2481.7319	1263.7	382.95
975.37	2483.0816	1259.6	378.2
975.4984	2484.4306	1264.15	383.9
975.6267	2485.7789	1260	381.45
975.755	2487.1264	1257.1	375.85
975.8833	2488.4733	1259.3	383.05
976.0115	2489.8195	1271.8	374
976.1397	2491.165	1266.05	383.65
976.2678	2492.5097	1256.3	373.7
976.3959	2493.8538	1252.3	374.8
976.524	2495.1972	1250.3	369.15
976.6521	2496.5398	1249.85	368.45
976.7801	2497.8818	1255.85	372.3
976.9081	2499.2231	1247.45	365.45
977.036	2500.5637	1254.3	374.1
977.164	2501.9035	1247.25	366.3
977.2918	2503.2427	1242.35	357.1
977.4197	2504.5812	1241.25	362.7
977.5475	2505.919	1245.05	364.7
977.6753	2507.256	1249.35	372.5
977.8031	2508.5924	1241.15	362.95
977.9308	2509.9281	1245.9	359.75
978.0585	2511.2631	1241.95	360.8
978.1861	2512.5974	1240.2	362.6
978.3137	2513.9309	1238.95	357.35
978.4413	2515.2638	1267	350.3
978.5689	2516.596	1242.95	363.95
978.6964	2517.9275	1238.55	356.95
978.8239	2519.2583	1236.5	352.85
978.9513	2520.5884	1231.6	349.25
979.0788	2521.9178	1234.6	354.55
979.2062	2523.2465	1229.7	352.4
979.3335	2524.5745	1226.95	347.85
979.4608	2525.9018	1232.75	352.55
979.5881	2527.2284	1226.8	347.15
979.7154	2528.5543	1232.6	354.4
979.8426	2529.8796	1226.4	346.65
979.9698	2531.2041	1231.15	349.6
980.0969	2532.5279	1223.9	344.85
980.224	2533.851	1224.65	344.5
980.3511	2535.1735	1222.8	345.4
980.4781	2536.4952	1225.95	346.25
980.6052	2537.8163	1225.95	344.1
980.7321	2539.1366	1220.4	342.5
980.8591	2540.4562	1225.15	343.55
980.986	2541.7752	1222.75	343.75
981.1129	2543.0935	1223.55	344.3
981.2397	2544.411	1222.85	341.1
981.3665	2545.7279	1219.05	339.35
981.4933	2547.0441	1220.8	341.35
981.62	2548.3596	1217.95	336.2
981.7467	2549.6744	1216.65	339.35
981.8734	2550.9885	1215.7	326.55
982.0001	2552.3019	1214.95	337.2
982.1267	2553.6146	1216.45	335.6
982.2532	2554.9266	1217.25	336.8
982.3798	2556.2379	1215.1	332.45
982.5063	2557.5485	1208.45	329.95
982.6327	2558.8585	1220.65	333.65
982.7592	2560.1677	1214.9	331.5
982.8856	2561.4762	1208.25	327.25
983.0119	2562.7841	1206.75	322.8
983.1383	2564.0913	1204.2	327.25
983.2646	2565.3977	1206.05	326.75
983.3908	2566.7035	1205.75	327.2
983.517	2568.0086	1212.35	331.3
983.6432	2569.313	1204.3	324.05
983.7694	2570.6167	1207.4	325.25
983.8955	2571.9197	1204.9	325.65
984.0216	2573.222	1208.9	326.2
984.1476	2574.5236	1209.85	329.15
984.2737	2575.8246	1210	329.65
984.3996	2577.1248	1205.9	322.05
984.5256	2578.4244	1207.2	326.05
984.6515	2579.7232	1207.5	328.8
984.7774	2581.0214	1244.45	331.6
984.9032	2582.3189	1212.35	333.55
985.029	2583.6157	1213.35	328.7
985.1548	2584.9118	1208.7	327.25
985.2806	2586.2072	1202.6	322.05
985.4063	2587.5019	1212.45	331.9
985.5319	2588.7959	1211.65	330.75
985.6576	2590.0893	1207.85	327.65
985.7832	2591.3819	1210.85	330.2
985.9087	2592.6739	1209.2	330.2
986.0343	2593.9652	1217.15	336.55
986.1597	2595.2557	1214	334.35
986.2852	2596.5456	1214.65	332.95
986.4106	2597.8348	1220.3	341.45
986.536	2599.1234	1219.15	339.15
986.6614	2600.4112	1222.15	341.85
986.7867	2601.6983	1222.1	339.6
986.912	2602.9848	1221.05	342
987.0372	2604.2705	1225.5	337.65
987.1624	2605.5556	1220.25	341.1
987.2876	2606.84	1218.2	338.1
987.4128	2608.1237	1218.15	337
987.5379	2609.4067	1218.8	337.45
987.6629	2610.689	1224.7	335.55
987.788	2611.9707	1219.3	337.35
987.913	2613.2516	1220.3	334.45
988.0379	2614.5319	1207.2	328.1
988.1629	2615.8115	1209.05	328.95
988.2878	2617.0903	1218.35	337.7
988.4126	2618.3685	1209.55	328.75
988.5375	2619.6461	1206.35	326.05
988.6622	2620.9229	1206.05	324.85
988.787	2622.199	1214.65	334.4
988.9117	2623.4745	1211.55	330.95
989.0364	2624.7493	1212.9	331.5
989.161	2626.0234	1207.3	327.65
989.2857	2627.2968	1213.15	333.05
989.4102	2628.5695	1211.4	329.45
989.5348	2629.8415	1209.75	329.05
989.6593	2631.1128	1211.8	330.15
989.7837	2632.3835	1212.85	332.5
989.9082	2633.6535	1212.75	333.3
990.0326	2634.9228	1207.1	327.55
990.1569	2636.1914	1215.1	336.15
990.2812	2637.4593	1213.05	332.15
990.4055	2638.7265	1208.9	329.75
990.5298	2639.9931	1212.85	332.7
990.654	2641.259	1212.15	329.15
990.7782	2642.5242	1206.95	326.9
990.9023	2643.7887	1205.8	326.4
991.0264	2645.0525	1203.1	321.6
991.1505	2646.3156	1207.55	327.4
991.2745	2647.5781	1201	321.75
991.3985	2648.8398	1202.85	324.7
991.5225	2650.1009	1208.95	321
991.6464	2651.3613	1204.55	325.35
991.7703	2652.6211	1202.7	321.15
991.8942	2653.8801	1194.45	313.6
992.018	2655.1385	1196.85	314.25
992.1418	2656.3961	1193.6	313.2
992.2655	2657.6531	1198.75	317.55
992.3892	2658.9094	1200.15	320.75
992.5129	2660.1651	1196.6	317
992.6366	2661.42	1207.4	328.5
992.7602	2662.6743	1205.95	325.15
992.8837	2663.9279	1204.5	326.05
993.0073	2665.1808	1209	328.8
993.1307	2666.433	1207.4	325.3
993.2542	2667.6846	1207	326.45
993.3776	2668.9354	1214.55	331.05
993.501	2670.1856	1211.1	331.4
993.6244	2671.4351	1210.15	333.65
993.7477	2672.6839	1217.1	335.9
993.8709	2673.9321	1218.65	339.85
993.9942	2675.1795	1216.8	336.6
994.1174	2676.4263	1220.4	342.35
994.2405	2677.6724	1219.4	342.5
994.3637	2678.9179	1225.65	344.2
994.4868	2680.1626	1224.15	344.45
994.6098	2681.4067	1224.3	341.8
994.7328	2682.6501	1220.55	340.15
994.8558	2683.8928	1216.75	336.4
994.9788	2685.1348	1213.15	333.75
995.1017	2686.3761	1219.95	340.5
995.2245	2687.6168	1219.7	339.85
995.3474	2688.8568	1211.85	332.2
995.4702	2690.0961	1210.7	331.65
995.5929	2691.3348	1203.65	323.15
995.7156	2692.5727	1203.1	321.7
995.8383	2693.81	1207.85	326.1
995.961	2695.0466	1202.65	323.65
996.0836	2696.2826	1207.85	326.05
996.2062	2697.5178	1224.8	325.55
996.3287	2698.7524	1200.85	322.9
996.4512	2699.9863	1214.95	333.8
996.5737	2701.2195	1210.45	333.05
996.6961	2702.452	1215.3	334.9
996.8185	2703.6839	1212.45	332.65
996.9408	2704.9151	1216.65	339.1
997.0631	2706.1456	1222.8	342.55
997.1854	2707.3755	1223.95	342.15
997.3077	2708.6046	1236	352.7
997.4299	2709.8331	1241.75	361.2
997.552	2711.0609	1248.55	368.9
997.6742	2712.2881	1248.15	369.5
997.7963	2713.5145	1261.25	379.7
997.9183	2714.7403	1259.9	381.05
998.0403	2715.9654	1267.9	386.95
998.1623	2717.1899	1292.5	398.55
998.2842	2718.4136	1290.95	413.05
998.4062	2719.6367	1298.3	416.8
998.528	2720.8591	1316.35	429
998.6498	2722.0809	1311.6	430.1
998.7716	2723.3019	1319.95	435.75
998.8934	2724.5223	1331.1	449.5
999.0151	2725.7421	1328.95	447.55
999.1368	2726.9611	1336.2	452.55
999.2584	2728.1795	1332.75	450.35
999.38	2729.3972	1320.75	442.65
999.5016	2730.6142	1334.95	444.35
999.6231	2731.8306	1307.7	427
999.7446	2733.0462	1297.85	414.45
999.8661	2734.2612	1287.45	401.2
999.9875	2735.4756	1277.4	395.7
1000.1089	2736.6892	1257.6	376.25
1000.2302	2737.9022	1253.6	374.1
1000.3515	2739.1145	1242.75	361.25
1000.4728	2740.3262	1243.45	354.9
1000.594	2741.5372	1222.45	342.4
1000.7152	2742.7475	1220.4	340.15
1000.8363	2743.9571	1210.15	328.25
1000.9575	2745.1661	1206.4	320.8
1001.0785	2746.3744	1193.55	313.45
1001.1996	2747.582	1187.6	307.2
1001.3206	2748.7889	1194.9	313.25
1001.4415	2749.9952	1181.15	299.6
1001.5625	2751.2008	1179.9	297.55
1001.6833	2752.4057	1174.6	291.8
1001.8042	2753.61	1176.75	294.95
1001.925	2754.8136	1173.5	292.3
1002.0458	2756.0165	1174.45	294.6
1002.1665	2757.2188	1176.95	296.3
1002.2872	2758.4204	1172.95	292.5
1002.4078	2759.6213	1180.2	296.35
1002.5285	2760.8215	1178.25	292.1
1002.649	2762.0211	1179.4	296.2
1002.7696	2763.22	1163.8	279.6
1002.8901	2764.4182	1172.95	290.85
1003.0106	2765.6158	1170.75	290.15
1003.131	2766.8127	1167.75	287.35
1003.2514	2768.009	1165.7	285.15
1003.3717	2769.2045	1162.7	282.5
1003.492	2770.3994	1164.1	281.25
1003.6123	2771.5936	1166.05	284.95
1003.7325	2772.7872	1161.6	283.75
1003.8527	2773.9801	1162.4	280.35
1003.9729	2775.1723	1184.15	287.65
1004.093	2776.3639	1159.65	280.2
1004.2131	2777.5548	1169.5	287.4
1004.3331	2778.745	1157.2	276
1004.4531	2779.9346	1161.2	281.9
1004.5731	2781.1235	1168.35	286.4
1004.693	2782.3117	1168.6	288.4
1004.8129	2783.4992	1176.75	296.4
1004.9328	2784.6861	1178.15	298.15
1005.0526	2785.8723	1184.75	300.7
1005.1723	2787.0579	1185.9	303.6
1005.2921	2788.2428	1195.05	315.05
1005.4118	2789.427	1202.95	321.3
1005.5314	2790.6106	1208	326.95
1005.651	2791.7935	1224.1	341.2
1005.7706	2792.9757	1221.4	343.55
1005.8902	2794.1573	1240.75	358.85
1006.0097	2795.3382	1251.65	371.5
1006.1291	2796.5184	1257.4	378.55
1006.2485	2797.698	1273	391.2
1006.3679	2798.8769	1286.35	404.7
1006.4873	2800.0551	1299.85	419.3
1006.6066	2801.2327	1314.35	430.75
1006.7258	2802.4096	1320.3	442.7
1006.8451	2803.5859	1331.95	450.65
1006.9642	2804.7615	1358.7	477.9
1007.0834	2805.9364	1378.8	500.95
1007.2025	2807.1106	1398.9	518.5
1007.3216	2808.2842	1425.05	543.6
1007.4406	2809.4572	1449	567.3
1007.5596	2810.6294	1485	603.5
1007.6785	2811.801	1513.75	636.55
1007.7975	2812.972	1537.7	657.95
1007.9163	2814.1423	1571.4	691.4
1008.0352	2815.3119	1606.5	727.35
1008.154	2816.4808	1641.1	761.45
1008.2727	2817.6491	1688.45	807.5
1008.3914	2818.8167	1726.3	847.75
1008.5101	2819.9837	1757.5	871.7
1008.6288	2821.15	1786.35	905.95
1008.7474	2822.3157	1819.75	940
1008.8659	2823.4807	1852.6	972.3
1008.9844	2824.645	1889.35	1006.9
1009.1029	2825.8086	1912.1	1031.85
1009.2214	2826.9716	1939.85	1060.8
1009.3398	2828.134	1963.4	1083.15
1009.4581	2829.2957	1994.75	1114.7
1009.5764	2830.4567	2022.85	1144.3
1009.6947	2831.617	2030.5	1148.6
1009.813	2832.7767	2038.9	1160.65
1009.9312	2833.9358	2041.8	1161.7
1010.0493	2835.0941	2022.7	1143.05
1010.1675	2836.2519	2029.15	1148.2
1010.2855	2837.4089	2020.5	1139.7
1010.4036	2838.5653	2001.35	1119.95
1010.5216	2839.7211	2009.45	1128.4
1010.6396	2840.8761	2014.2	1133.4
1010.7575	2842.0306	2029.8	1151.8
1010.8754	2843.1843	2057.2	1176.75
1010.9932	2844.3374	2105.95	1228.15
1011.111	2845.4899	2144.7	1264.55
1011.2288	2846.6417	2200.9	1321.85
1011.3465	2847.7928	2263.75	1385.2
1011.4642	2848.9433	2317.75	1439.1
1011.5818	2850.0931	2390.25	1509.3
1011.6995	2851.2422	2447.05	1565.4
1011.817	2852.3907	2492.15	1610.8
1011.9345	2853.5385	2540.3	1659.75
1012.052	2854.6857	2613.2	1705.55
1012.1695	2855.8323	2626.4	1748.1
1012.2869	2856.9781	2666.85	1786.9
1012.4042	2858.1233	2687.1	1807.4
1012.5216	2859.2679	2729.15	1851.55
1012.6389	2860.4118	2766.65	1886.5
1012.7561	2861.555	2797.65	1913.55
1012.8733	2862.6976	2817.45	1936.65
1012.9905	2863.8395	2840	1961.1
1013.1076	2864.9808	2862.5	1982.7
1013.2247	2866.1214	2887.9	2010.55
1013.3417	2867.2614	2881.35	2000.35
1013.4587	2868.4007	2894.15	2012.45
1013.5757	2869.5393	2907.4	2024.45
1013.6926	2870.6773	2921.15	2041.7
1013.8095	2871.8146	2916.3	2032.75
1013.9263	2872.9513	2923.4	2041.55
1014.0431	2874.0874	2925	2045.1
1014.1599	2875.2227	2914.9	2034.8
1014.2766	2876.3574	2890.65	2012.1
1014.3933	2877.4915	2875.8	1996.65
1014.51	2878.6249	2866.3	1986.3
1014.6266	2879.7577	2856.6	1974.7
1014.7431	2880.8898	2839.75	1947.35
1014.8596	2882.0212	2829.55	1952.2
1014.9761	2883.152	2812.3	1930.2
1015.0925	2884.2821	2819	1939.75
1015.2089	2885.4116	2806.2	1925.3
1015.3253	2886.5405	2809.05	1928.65
1015.4416	2887.6686	2815	1932.5
1015.5579	2888.7962	2821.45	1943.5
1015.6741	2889.923	2819.9	1942.25
1015.7903	2891.0493	2834.9	1955.45
1015.9065	2892.1748	2846.25	1965.9
1016.0226	2893.2997	2854.15	1974.95
1016.1387	2894.424	2861.85	1983.35
1016.2547	2895.5476	2867.05	1986.55
1016.3707	2896.6706	2899.25	2021.75
1016.4866	2897.7929	2915.6	2032.15
1016.6025	2898.9145	2945.6	2067.55
1016.7184	2900.0355	2976.85	2093.1
1016.8342	2901.1559	2985.9	2105.5
1016.95	2902.2756	3024.85	2145.4
1017.0658	2903.3946	3033.65	2153
1017.1815	2904.513	3049	2165.55
1017.2971	2905.6308	3077	2197.4
1017.4127	2906.7479	3097.4	2218.95
1017.5283	2907.8643	3114.2	2233.4
1017.6439	2908.9801	3126.45	2243.95
1017.7594	2910.0953	3129.4	2249.7
1017.8748	2911.2098	3124.3	2241.35
1017.9902	2912.3236	3123.75	2234.6
1018.1056	2913.4368	3114.3	2229.9
1018.2209	2914.5494	3100.65	2219.5
1018.3362	2915.6613	3075.95	2191.8
1018.4515	2916.7725	3056	2173.65
1018.5667	2917.8831	3040.1	2157.6
1018.6819	2918.9931	3013.4	2130.25
1018.797	2920.1024	2991.2	2110.75
1018.9121	2921.211	2989.55	2109.85
1019.0271	2922.319	2969.15	2088.25
1019.1421	2923.4264	2961.15	2082
1019.2571	2924.5331	2951	2070.75
1019.372	2925.6391	2937.65	2057.05
1019.4869	2926.7445	2940.3	2061.3
1019.6017	2927.8493	2925.45	2044.6
1019.7165	2928.9534	2918.4	2037.35
1019.8313	2930.0569	2920.25	2038.45
1019.946	2931.1597	2919	2036.6
1020.0606	2932.2619	2907	2027.5
1020.1753	2933.3634	2908.15	2027.85
1020.2899	2934.4643	2895.7	2008.35
1020.4044	2935.5645	2872	1985.7
1020.5189	2936.6641	2845.75	1960.9
1020.6334	2937.763	2807.65	1927.55
1020.7478	2938.8613	2779.65	1900.45
1020.8622	2939.959	2733.15	1847.05
1020.9765	2941.056	2684.5	1805.4
1021.0908	2942.1523	2608.65	1727.9
1021.2051	2943.248	2549.85	1669.25
1021.3193	2944.3431	2471.5	1591.2
1021.4334	2945.4375	2403.15	1522.05
1021.5476	2946.5313	2325	1446.4
1021.6617	2947.6244	2244.25	1362.5
1021.7757	2948.7169	2180.6	1300.9
1021.8897	2949.8087	2095.8	1217.1
1022.0037	2950.8999	2035.3	1153.8
1022.1176	2951.9904	1981.8	1103.05
1022.2315	2953.0803	1923.95	1043.75
1022.3453	2954.1696	1878.75	999.85
1022.4591	2955.2582	1849.75	970
1022.5728	2956.3462	1814.65	933.3
1022.6865	2957.4335	1775.4	893.85
1022.8002	2958.5202	1753.05	870.85
1022.9138	2959.6062	1734.1	854.95
1023.0274	2960.6916	1713.6	834.1
1023.141	2961.7764	1704.7	821.85
1023.2545	2962.8605	1689.45	810.25
1023.3679	2963.9439	1685.7	803.85
1023.4813	2965.0267	1670.85	790.6
1023.5947	2966.1089	1696	791.9
1023.708	2967.1905	1673.65	794.25
1023.8213	2968.2714	1667.9	787.75
1023.9346	2969.3516	1664.75	785.3
1024.0478	2970.4312	1670.95	783.55
1024.1609	2971.5102	1665.4	785.3
1024.274	2972.5885	1668.95	787.45
1024.3871	2973.6662	1679.7	793.7
1024.5002	2974.7432	1670.95	791.1
1024.6132	2975.8196	1667.3	787.35
1024.7261	2976.8954	1654.8	777.75
1024.839	2977.9705	1644.3	765.4
1024.9519	2979.045	1639.15	760.6
1025.0647	2980.1188	1622.55	742.75
1025.1775	2981.192	1612.85	734.1
1025.2902	2982.2645	1583.9	705.3
1025.4029	2983.3364	1572.2	692.2
1025.5156	2984.4077	1553.25	674.55
1025.6282	2985.4783	1538.6	653.5
1025.7407	2986.5483	1504.55	626.35
1025.8532	2987.6177	1478.65	598.35
1025.9657	2988.6864	1467	587.65
1026.0782	2989.7545	1436.65	554.65
1026.1906	2990.8219	1409.05	530.45
1026.3029	2991.8887	1393.1	511.4
1026.4152	2992.9548	1359.8	477.85
1026.5275	2994.0204	1348.45	469.1
1026.6397	2995.0852	1323.7	445.15
1026.7519	2996.1495	1310.85	429.25
1026.864	2997.2131	1292.2	410.6
1026.9761	2998.276	1272.85	393.2
1027.0882	2999.3383	1258.3	378.4
1027.2002	3000.4	1245.25	363.05
1027.3122	3001.4611	1231.55	351.25
1027.4241	3002.5215	1223.15	342.1
1027.536	3003.5812	1213.8	333.65
1027.6478	3004.6404	1206.7	325.8
1027.7596	3005.6989	1203.85	323.1
1027.8714	3006.7567	1194.6	317.5
1027.9831	3007.8139	1215.3	309.85
1028.0947	3008.8705	1185.25	306.4
1028.2064	3009.9264	1188.2	305.5
1028.3179	3010.9818	1177.75	298.6
1028.4295	3012.0364	1176.9	296.65
1028.541	3013.0905	1176.85	297.3
1028.6524	3014.1439	1174.15	293.1
1028.7638	3015.1966	1170.55	291.3
1028.8752	3016.2487	1170.8	291.3
1028.9865	3017.3002	1175.6	292.65
1029.0978	3018.3511	1167.15	287.5
1029.209	3019.4013	1173.35	292.45
1029.3202	3020.4509	1174.55	295.2
1029.4314	3021.4998	1171.95	291.3
1029.5425	3022.5481	1173.7	293.4
1029.6535	3023.5958	1175.5	292.8
1029.7645	3024.6428	1177.5	296.2
1029.8755	3025.6892	1178.65	298.05
1029.9864	3026.735	1179.45	300.85
1030.0973	3027.7802	1184.3	304.1
1030.2082	3028.8247	1186.65	307.3
1030.319	3029.8685	1188.25	308.05
1030.4297	3030.9118	1190.8	311.8
1030.5404	3031.9544	1193.55	315.15
1030.6511	3032.9963	1196.75	317.5
1030.7617	3034.0376	1204.4	324.5
1030.8723	3035.0783	1210.45	328.75
1030.9829	3036.1184	1208.35	327
1031.0934	3037.1578	1215.85	339
1031.2038	3038.1966	1209.8	329
1031.3142	3039.2348	1214.35	334.35
1031.4246	3040.2723	1220.35	329.45
1031.5349	3041.3092	1211.75	334.3
1031.6452	3042.3455	1211.4	333.1
1031.7554	3043.3811	1209.05	329.4
1031.8656	3044.4161	1201.8	320.15
1031.9758	3045.4505	1197.4	319.1
1032.0859	3046.4842	1199.15	318.85
1032.1959	3047.5173	1190.7	312.25
1032.3059	3048.5498	1188.95	309.95
1032.4159	3049.5816	1188.35	309.05
1032.5258	3050.6128	1182.9	302.1
1032.6357	3051.6434	1175.45	294.6
1032.7455	3052.6734	1174.75	294.85
1032.8553	3053.7027	1165.85	285.95
1032.9651	3054.7314	1155.95	276.15
1033.0748	3055.7594	1153.75	272.55
1033.1845	3056.7868	1153.5	271.25
1033.2941	3057.8136	1146.8	267
1033.4037	3058.8398	1144.7	266.2
1033.5132	3059.8653	1139.05	258.05
1033.6227	3060.8902	1137.25	258.5
1033.7321	3061.9145	1128.9	249.8
1033.8415	3062.9381	1126.15	247.55
1033.9509	3063.9612	1140.85	245.85
1034.0602	3064.9835	1121.2	243.1
1034.1694	3066.0053	1115.3	232.5
1034.2787	3067.0264	1109.75	232.15
1034.3878	3068.0469	1102.55	220.85
1034.497	3069.0668	1102.25	219.6
1034.6061	3070.086	1090.2	210.95
1034.7151	3071.1046	1089.3	207.3
1034.8241	3072.1226	1082.6	201.4
1034.9331	3073.1399	1072.75	192.25
1035.042	3074.1567	1072.6	191.15
1035.1508	3075.1727	1063.65	183.6
1035.2597	3076.1882	1055.35	175
1035.3684	3077.203	1047.85	169
1035.4772	3078.2173	1044.05	161.2
1035.5859	3079.2308	1038.9	155.95
1035.6945	3080.2438	1037.65	155.35
1035.8031	3081.2561	1025.7	146.75
1035.9117	3082.2678	1020.1	142.45
1036.0202	3083.2789	1014.75	134.7
1036.1286	3084.2893	1011.95	134.1
1036.2371	3085.2991	1007.35	127.55
1036.3454	3086.3083	1010.75	129.35
1036.4538	3087.3169	1004.85	124.55
1036.562	3088.3248	1000.5	119.55
1036.6703	3089.3321	996.4	113.3
1036.7785	3090.3388	988.1	110.05
1036.8866	3091.3449	988.4	107.85
1036.9948	3092.3503	989.4	107.65
1037.1028	3093.3551	984.1	103.65
1037.2108	3094.3593	983.2	107.6
1037.3188	3095.3629	978.1	98.5
1037.4267	3096.3658	983.35	100
1037.5346	3097.3681	971.7	94
1037.6425	3098.3698	973.95	92.35
1037.7503	3099.3708	979.9	93.85
1037.858	3100.3713	969.4	90.6
1037.9657	3101.3711	968.7	85.75
1038.0734	3102.3702	1109.65	88.15
1038.181	3103.3688	968.2	86.25
1038.2886	3104.3667	963.5	84
1038.3961	3105.364	962.55	85.75
1038.5036	3106.3607	962	79.5
1038.611	3107.3568	963.05	83.75
1038.7184	3108.3522	961.25	83.55
1038.8257	3109.347	965.95	85.25
1038.933	3110.3412	961.55	77.4
1039.0403	3111.3348	958.5	77.2
1039.1475	3112.3277	957.15	77.45
1039.2547	3113.32	957	79.6
1039.3618	3114.3117	958	77.65
1039.4689	3115.3028	955.2	76.3
1039.5759	3116.2932	955.85	73.35
1039.6829	3117.2831	960.65	75.9
1039.7898	3118.2723	952.15	73.35
1039.8967	3119.2608	951.65	71.8
1040.0035	3120.2488	952.55	72.05
1040.1103	3121.2361	952.9	73.6
1040.2171	3122.2229	950.05	74
1040.3238	3123.209	953.9	73.75
1040.4305	3124.1944	949.3	70.9
1040.5371	3125.1793	950.05	72.45
1040.6437	3126.1635	947.05	67.7
1040.7502	3127.1471	946	68.05
1040.8567	3128.1301	945.45	65.65
1040.9631	3129.1125	946.7	66.95
1041.0695	3130.0942	947.15	68.25
1041.1759	3131.0753	956	67.15
1041.2822	3132.0558	948.5	66.55
1041.3884	3133.0357	942.9	62.15
1041.4946	3134.015	943.65	64.6
1041.6008	3134.9936	941.4	59.7
1041.7069	3135.9716	962.05	62
1041.813	3136.949	943.8	65.3
1041.919	3137.9258	956.8	57.9
1042.025	3138.902	947.1	61.5
1042.1309	3139.8775	941.8	63.35
1042.2368	3140.8524	939.45	61.05
1042.3427	3141.8267	937.55	56.7
1042.4485	3142.8004	938.85	59.5
1042.5542	3143.7735	941.85	54.7
1042.6599	3144.7459	937.45	56
1042.7656	3145.7178	936.35	56.1
1042.8712	3146.689	936.05	57.45
1042.9768	3147.6596	935.4	54.75
1043.0823	3148.6295	934.15	54.15
1043.1878	3149.5989	933.95	54.35
1043.2932	3150.5676	931.95	53.6
1043.3986	3151.5357	932.05	54.35
1043.5039	3152.5032	930.05	49.85
1043.6092	3153.4701	931.6	52.95
1043.7145	3154.4364	931.65	48.95
1043.8197	3155.402	927.7	48.1
1043.9248	3156.367	928.3	46.75
1044.03	3157.3315	965.9	50.6
1044.135	3158.2952	931.4	52.15
1044.24	3159.2584	926.8	47.6
1044.345	3160.221	925.9	46.3
1044.4499	3161.1829	929.1	48.65
1044.5548	3162.1442	927.7	49.9
1044.6596	3163.105	925.6	45.3
1044.7644	3164.065	926.7	48.4
1044.8692	3165.0245	927.25	46.75
1044.9739	3165.9834	924.15	44.55
1045.0785	3166.9416	923.65	43.4
1045.1831	3167.8993	925.65	45.6
1045.2877	3168.8563	923.3	43
1045.3922	3169.8127	923.8	44.4
1045.4966	3170.7684	922.65	42.8
1045.6011	3171.7236	921.9	41.8
1045.7054	3172.6782	924.2	45.1
1045.8098	3173.6321	921.35	42.85
1045.914	3174.5854	928.5	45.5
1046.0183	3175.5381	922.05	41.95
1046.1224	3176.4902	921.9	42.55
1046.2266	3177.4417	920.55	41.35
1046.3307	3178.3926	923.85	44.2
1046.4347	3179.3428	920.25	43.5
1046.5387	3180.2924	919.05	39.05
1046.6427	3181.2415	919.45	38.55
1046.7466	3182.1899	920.2	42.55
1046.8504	3183.1377	920.55	42.6
1046.9542	3184.0848	923.85	41.45
1047.058	3185.0314	919.4	41.1
1047.1617	3185.9773	920.05	40.75
1047.2654	3186.9227	920.55	40.9
1047.369	3187.8674	919.2	38.2
1047.4726	3188.8115	919.4	34.85
1047.5761	3189.755	915.8	36.6
1047.6796	3190.6979	917.45	39.45
1047.783	3191.6402	919.95	42
1047.8864	3192.5818	916.45	37.95
1047.9898	3193.5229	947.35	41
1048.0931	3194.4633	917.7	38.5
1048.1963	3195.4031	917.1	34.6
1048.2995	3196.3423	914.75	35.2
1048.4027	3197.2809	916.2	37
1048.5058	3198.2189	917.4	36.15
1048.6089	3199.1563	933.2	35.2
1048.7119	3200.0931	913.25	33.8
1048.8148	3201.0292	914.1	36.75
1048.9178	3201.9648	913.75	36.05
1049.0206	3202.8997	917.75	34.3
1049.1235	3203.834	912.15	33.5
1049.2262	3204.7677	917.7	37.85
1049.329	3205.7008	914.9	33.5
1049.4317	3206.6333	913.35	34.75
1049.5343	3207.5652	915.85	35.4
1049.6369	3208.4964	912.4	32.1
1049.7394	3209.4271	911.35	32.95
1049.8419	3210.3571	913.85	36.3
1049.9444	3211.2865	912.85	31.55
1050.0468	3212.2154	912.8	32.5
1050.1491	3213.1436	913.65	29.4
1050.2514	3214.0712	918.15	33.55
1050.3537	3214.9982	909.2	29.6
1050.4559	3215.9246	910.95	31.15
1050.5581	3216.8503	911.25	32.8
1050.6602	3217.7755	910.15	32.05
1050.7623	3218.7001	912.9	32.95
1050.8643	3219.624	910.65	31.35
1050.9663	3220.5473	909.85	29.15
1051.0682	3221.4701	913.55	32.15
1051.1701	3222.3922	914	32.2
1051.2719	3223.3137	912.1	31.85
1051.3737	3224.2346	911.95	31.95
1051.4754	3225.1549	909.6	30.35
1051.5771	3226.0746	907.95	29.5
1051.6788	3226.9937	911.25	31.25
1051.7804	3227.9121	909.2	29.6
1051.8819	3228.83	908.55	29.65
1051.9834	3229.7473	908.95	30.5
1052.0849	3230.6639	911.75	31.9
1052.1863	3231.5799	908.95	31.3
1052.2876	3232.4954	908.3	27.1
1052.3889	3233.4102	909.95	30.25
1052.4902	3234.3244	910.25	30.2
1052.5914	3235.238	906.8	27.55
1052.6926	3236.151	934.05	31.05
1052.7937	3237.0634	908.75	30.1
1052.8948	3237.9752	907.4	29.35
1052.9958	3238.8864	907.85	28.75
1053.0968	3239.797	908.75	30.45
1053.1977	3240.7069	907.25	26.15
1053.2986	3241.6163	908.1	28.3
1053.3994	3242.5251	906.55	27.25
1053.5002	3243.4332	905.9	28.3
1053.6009	3244.3408	909.95	30.5
1053.7016	3245.2477	906.65	29.45
1053.8022	3246.154	908.05	25.65
1053.9028	3247.0598	905.3	23.65
1054.0034	3247.9649	904.85	26.55
1054.1039	3248.8694	908.55	30.1
1054.2043	3249.7733	904.1	24.85
1054.3047	3250.6766	905.2	25.7
1054.4051	3251.5793	906.95	27.7
1054.5054	3252.4814	905.05	27.05
1054.6056	3253.3829	901.9	23.35
1054.7058	3254.2838	904.25	25.8
1054.806	3255.1841	903.6	25.65
1054.9061	3256.0838	904.85	26.6
1055.0061	3256.9829	902.5	25.25
1055.1062	3257.8814	905.65	23.15
1055.2061	3258.7792	905	24.8
1055.306	3259.6765	903.1	24.65
1055.4059	3260.5731	901.6	22.2
1055.5057	3261.4692	901.05	20.55
1055.6055	3262.3647	902.95	26.2
1055.7052	3263.2595	898.95	20.7
1055.8049	3264.1538	902.05	24
1055.9045	3265.0474	899	17.85
1056.0041	3265.9404	896.9	18.55
1056.1036	3266.8329	899.25	21.1
1056.2031	3267.7247	905.45	15.1
1056.3025	3268.616	898.95	22.05
1056.4019	3269.5066	898.6	19.25
1056.5013	3270.3966	899.65	19.15
1056.6005	3271.286	897.9	20.6
