Software Version:	3.9.2.0
Unit SN:	10000200
Spectrometer SN:	6960
Date:	3/14/2024 12:46:20 PM
Data Line Index:	25
Spectral Points:	2048
Integration time (ms):	125
Averages:	20
Delay (ms):	30000
Sequence Number:	1
Processing:	dark subtract
Laser Power (mW):	305
Laser Current (mA):	823
Laser Diode Temp (C):	25.1
Laser Case Temp (C):	27.4
System Temp (C):	27.4
Spectrometer Temp (C):	25.2
CCD Temp (C):	0.008
Secondary Temp (C):	20.011
Heatsink Temp (C):	23.279
CCDPCB Temp (C):	36.663
SecondaryPCB Temp (C):	34.539

Wavelength	RamanShift	Raw Counts	Dark Subtracted
787.061	30.1047	417.2	6.5
787.2016	32.3739	417.05	7
787.3422	34.6426	417.35	6
787.4828	36.9109	418.6	6.9
787.6235	39.1787	423.9	6
787.7642	41.4461	429	7
787.9049	43.7131	432.95	8.55
788.0456	45.9796	438.1	9.75
788.1863	48.2456	441.6	8.55
788.3271	50.5112	446.7	10.1
788.4679	52.7764	449.6	9.75
788.6087	55.0411	453.15	11.4
788.7496	57.3054	456.9	9.7
788.8904	59.5692	460.3	11.45
789.0313	61.8326	465.5	11.65
789.1722	64.0955	472.5	15.85
789.3132	66.3579	480.6	17.85
789.4541	68.6199	484.75	18.9
789.5951	70.8815	490.15	22.55
789.7361	73.1426	506.85	35.9
789.8771	75.4032	536.05	59.05
790.0181	77.6634	595.8	115.2
790.1592	79.9231	730	244.35
790.3003	82.1824	1020.75	530.3
790.4414	84.4412	1509.5	1012.7
790.5825	86.6995	2151.5	1645.35
790.7237	88.9574	2782.35	2267.05
790.8648	91.2148	3223.8	2707.15
791.006	93.4717	3445.9	2923
791.1472	95.7282	3506	2977.6
791.2885	97.9842	3515.25	2984.95
791.4297	100.2398	3494	2960.1
791.571	102.4949	3471.85	2933.1
791.7123	104.7495	3454.65	2914.1
791.8536	107.0036	3432.7	2891.7
791.9949	109.2573	3377.8	2838.1
792.1363	111.5105	3339.05	2797.45
792.2777	113.7632	3286	2740.25
792.4191	116.0154	3205.5	2649.8
792.5605	118.2672	3162.7	2616.65
792.7019	120.5185	3100.75	2551.4
792.8434	122.7693	3052.2	2498.5
792.9849	125.0197	3004.8	2449.9
793.1264	127.2696	2970.75	2413.55
793.2679	129.519	2952.3	2394.85
793.4094	131.7679	2928.8	2369.15
793.551	134.0163	2913.75	2349.05
793.6926	136.2642	2904.5	2333.7
793.8342	138.5117	2908.3	2333.35
793.9758	140.7587	2878.7	2301.85
794.1175	143.0052	2862.25	2284.95
794.2591	145.2512	2825.7	2246.65
794.4008	147.4967	2805.8	2227.45
794.5425	149.7417	2768.55	2189.25
794.6842	151.9863	2742	2157.65
794.826	154.2304	2754	2166.85
794.9677	156.4739	2737.25	2143.8
795.1095	158.717	2734.65	2142.8
795.2513	160.9596	2743.05	2145.75
795.3931	163.2017	2763.8	2165.1
795.535	165.4433	2787	2183.95
795.6768	167.6844	2763.55	2159.65
795.8187	169.925	2754.6	2145.8
795.9606	172.1651	2720.55	2110
796.1025	174.4047	2682.55	2069.3
796.2445	176.6439	2657.8	2039.5
796.3864	178.8825	2639.65	2021.35
796.5284	181.1206	2634.55	2014.3
796.6704	183.3582	2625.1	2002.2
796.8124	185.5954	2621.05	1994.05
796.9544	187.832	2603.35	1971.95
797.0965	190.0681	2618.35	1986.2
797.2386	192.3037	2635.2	1997.75
797.3806	194.5388	2624.95	1988.7
797.5228	196.7734	2631.25	1990.15
797.6649	199.0075	2642.55	2000
797.807	201.2411	2662.55	2016.35
797.9492	203.4742	2664.95	2015.05
798.0914	205.7068	2684.15	2035.15
798.2336	207.9389	2687.45	2038.6
798.3758	210.1704	2707.1	2054.7
798.518	212.4015	2698.55	2043.1
798.6603	214.632	2692.35	2034.75
798.8025	216.862	2688.15	2036.25
798.9448	219.0915	2691.05	2041.75
799.0871	221.3205	2681	2034.7
799.2294	223.549	2690.1	2055.05
799.3718	225.777	2687.75	2052.3
799.5141	228.0044	2681.15	2041.1
799.6565	230.2314	2675.15	2038.15
799.7989	232.4578	2657.6	2019.75
799.9413	234.6837	2650.3	2004.8
800.0837	236.909	2649.15	2004.05
800.2262	239.1339	2656.25	1988.95
800.3687	241.3582	2633.45	1978.65
800.5111	243.582	2648.35	1965.4
800.6536	245.8053	2652.1	1975.45
800.7961	248.0281	2648.6	1979
800.9387	250.2503	2641.2	1967.8
801.0812	252.472	2657.85	1978.75
801.2238	254.6932	2655.25	1973.95
801.3664	256.9139	2653.45	1967.8
801.509	259.134	2664.75	1977.1
801.6516	261.3536	2680.9	1994.85
801.7942	263.5727	2698.5	2008.35
801.9369	265.7912	2721	2032.55
802.0795	268.0092	2752.65	2063.05
802.2222	270.2267	2785.55	2094.3
802.3649	272.4436	2806.4	2114.25
802.5076	274.6601	2822.35	2122.1
802.6504	276.8759	2821	2123.6
802.7931	279.0913	2833.4	2139.75
802.9359	281.3061	2843.95	2148.25
803.0787	283.5204	2862.9	2165.4
803.2215	285.7341	2869.7	2164.85
803.3643	287.9473	2875.15	2169.5
803.5071	290.16	2878.25	2170.9
803.6499	292.3721	2843.8	2141.4
803.7928	294.5837	2834	2123.55
803.9357	296.7947	2805.1	2098.05
804.0786	299.0052	2784.45	2077.45
804.2215	301.2152	2771.45	2060.55
804.3644	303.4246	2754.3	2047.6
804.5074	305.6334	2752.15	2043.35
804.6503	307.8418	2729.45	2016.85
804.7933	310.0495	2722.25	2009.6
804.9363	312.2568	2703.35	1992.55
805.0793	314.4635	2670.4	1956.25
805.2223	316.6696	2648.8	1931.45
805.3653	318.8752	2602.8	1877.8
805.5084	321.0802	2590.1	1874.35
805.6514	323.2847	2575.9	1859.2
805.7945	325.4887	2573.15	1858.05
805.9376	327.692	2584.45	1864.15
806.0807	329.8949	2609.2	1888.25
806.2238	332.0972	2621.9	1901
806.367	334.2989	2639.15	1915.65
806.5101	336.5001	2643.75	1919.1
806.6533	338.7007	2630.7	1902.75
806.7965	340.9008	2601.05	1873.45
806.9397	343.1003	2549.1	1818.75
807.0829	345.2992	2526.3	1794.2
807.2261	347.4976	2506.6	1776.25
807.3693	349.6955	2475.3	1737.95
807.5126	351.8927	2478.9	1743.4
807.6559	354.0895	2462.1	1714.15
807.7991	356.2856	2456.2	1716.9
807.9424	358.4812	2429.2	1691.05
808.0857	360.6763	2441.6	1700.2
808.2291	362.8707	2422.45	1679.45
808.3724	365.0646	2432.9	1689.65
808.5158	367.258	2425.55	1680.9
808.6591	369.4508	2438.7	1690.6
808.8025	371.643	2457.3	1709.75
808.9459	373.8346	2467.7	1717.5
809.0893	376.0257	2491.3	1736.8
809.2327	378.2162	2511.6	1754.45
809.3762	380.4062	2510.3	1752.85
809.5196	382.5956	2480.35	1723.1
809.6631	384.7844	2458.1	1700.45
809.8066	386.9726	2428.4	1667.6
809.9501	389.1603	2408.05	1648.1
810.0936	391.3474	2429.45	1637.7
810.2371	393.5339	2392.1	1631.25
810.3806	395.7199	2394.2	1636.3
810.5241	397.9052	2406.3	1652.9
810.6677	400.09	2426.6	1672
810.8113	402.2743	2436.55	1686.15
810.9548	404.4579	2466.5	1714.3
811.0984	406.641	2488.5	1735.35
811.2421	408.8235	2506.75	1752.3
811.3857	411.0054	2550.5	1794.3
811.5293	413.1868	2600.1	1840.7
811.673	415.3675	2673.75	1913.45
811.8166	417.5477	2692.9	1930.7
811.9603	419.7273	2637.65	1871.1
812.104	421.9064	2553.05	1779.15
812.2477	424.0848	2471.7	1703.45
812.3914	426.2627	2431.65	1660.6
812.5351	428.4399	2404.15	1633.85
812.6788	430.6166	2364.8	1591.7
812.8226	432.7928	2344.45	1568.3
812.9663	434.9683	2304.9	1529.2
813.1101	437.1432	2284.1	1505.85
813.2539	439.3176	2279.5	1500.55
813.3977	441.4914	2262.95	1484.05
813.5415	443.6645	2254.9	1471.7
813.6853	445.8371	2255.7	1475.3
813.8291	448.0091	2258.5	1478.65
813.973	450.1806	2268.95	1488
814.1168	452.3514	2242.2	1456.3
814.2607	454.5216	2245.8	1451.45
814.4046	456.6913	2234.3	1450.9
814.5485	458.8603	2239.2	1454.75
814.6924	461.0288	2238.6	1454.8
814.8363	463.1967	2232.35	1445.75
814.9802	465.3639	2231.15	1445.9
815.1241	467.5306	2226.3	1438.5
815.2681	469.6967	2220.6	1434.8
815.412	471.8622	2216.9	1427.1
815.556	474.0271	2209.85	1421.05
815.7	476.1914	2201	1406.45
815.844	478.3551	2195.5	1405.35
815.988	480.5182	2196.85	1405.15
816.132	482.6807	2213.05	1419.7
816.276	484.8426	2225.2	1433.2
816.4201	487.0039	2231.65	1439.5
816.5641	489.1647	2263.85	1469.1
816.7082	491.3248	2291.05	1497.65
816.8522	493.4843	2298.5	1502.85
816.9963	495.6432	2285.9	1491
817.1404	497.8015	2266.05	1468.4
817.2845	499.9592	2237.9	1442
817.4286	502.1163	2214.85	1418.4
817.5727	504.2728	2188.4	1389.45
817.7168	506.4287	2176.65	1379.8
817.861	508.5839	2152.85	1354.65
818.0051	510.7386	2138.75	1340.95
818.1493	512.8927	2162.8	1354.9
818.2935	515.0461	2150.9	1348.6
818.4377	517.199	2170.3	1371.1
818.5818	519.3512	2182.45	1383.15
818.726	521.5029	2223.35	1414.7
818.8703	523.6539	2254.35	1451.9
819.0145	525.8043	2260.1	1454.15
819.1587	527.9541	2239.95	1434.9
819.303	530.1033	2178.9	1372.8
819.4472	532.2519	2159.85	1355.7
819.5915	534.3999	2152.9	1346.7
819.7357	536.5472	2137.05	1330.45
819.88	538.694	2135.95	1327.65
820.0243	540.8401	2144.05	1337.55
820.1686	542.9856	2151.3	1343.15
820.3129	545.1305	2163.65	1355.05
820.4572	547.2748	2160.4	1354.2
820.6016	549.4185	2165.3	1354.3
820.7459	551.5615	2181.9	1373.35
820.8902	553.704	2188.8	1375.95
821.0346	555.8458	2200.85	1391.35
821.1789	557.987	2202.9	1390.95
821.3233	560.1276	2210.15	1400.05
821.4677	562.2675	2247	1436.7
821.6121	564.4069	2266.75	1455.5
821.7565	566.5456	2318.85	1506.35
821.9009	568.6837	2299.7	1487.4
822.0453	570.8212	2250.4	1437.35
822.1897	572.958	2211.85	1396.55
822.3342	575.0942	2179.3	1364.45
822.4786	577.2299	2162	1345.5
822.6231	579.3648	2134.25	1318.4
822.7675	581.4992	2114.95	1295.95
822.912	583.6329	2109.55	1293.05
823.0565	585.766	2124.35	1310.1
823.201	587.8985	2153.3	1336.8
823.3454	590.0304	2180.4	1353.05
823.4899	592.1616	2185.6	1364.4
823.6345	594.2922	2188.85	1371
823.779	596.4222	2172.05	1351.75
823.9235	598.5515	2136.9	1317.35
824.068	600.6802	2101.65	1282.9
824.2126	602.8083	2069.05	1249.6
824.3571	604.9358	2062.45	1241.4
824.5017	607.0626	2060.55	1239.7
824.6462	609.1888	2067.55	1244.55
824.7908	611.3144	2079.75	1257.3
824.9354	613.4393	2095.95	1272.4
825.08	615.5636	2120.55	1296.2
825.2246	617.6873	2159.4	1337.45
825.3692	619.8103	2177.85	1354.6
825.5138	621.9327	2175.35	1350.6
825.6584	624.0544	2150.3	1327.6
825.803	626.1756	2115.9	1292.9
825.9477	628.2961	2080.95	1256.45
826.0923	630.4159	2071.85	1246
826.237	632.5351	2059.4	1233.55
826.3816	634.6537	2058.95	1231.85
826.5263	636.7716	2054.6	1224.8
826.6709	638.8889	2050.25	1223.8
826.8156	641.0056	2052.45	1223.5
826.9603	643.1216	2054.6	1228.35
827.105	645.237	2060.9	1230
827.2497	647.3518	2049.15	1220.25
827.3944	649.4659	2032.5	1202.9
827.5391	651.5793	2025.9	1195.2
827.6838	653.6922	2004.6	1174.65
827.8285	655.8043	2002.35	1171.55
827.9733	657.9159	1991.45	1157.75
828.118	660.0268	1996.4	1161.15
828.2627	662.137	1988.2	1155
828.4075	664.2466	1987.65	1151.6
828.5522	666.3556	1982.45	1152.05
828.697	668.4639	1973.25	1136.8
828.8418	670.5716	1978.5	1144.55
828.9865	672.6786	1972.75	1136.4
829.1313	674.785	1968.9	1132.2
829.2761	676.8907	1964.2	1127.25
829.4209	678.9958	1955.7	1119
829.5657	681.1002	1964.6	1129.5
829.7105	683.204	1959.1	1119.1
829.8553	685.3072	1956.25	1118.4
830.0001	687.4097	1954.4	1116.8
830.1449	689.5115	1964.3	1125.2
830.2898	691.6127	1956.4	1120
830.4346	693.7132	1944.9	1105.3
830.5794	695.8131	1968.55	1116.6
830.7243	697.9123	1954.85	1114.1
830.8691	700.0109	1955.25	1114.25
831.014	702.1089	1957.55	1118.1
831.1588	704.2061	1962.5	1124.5
831.3037	706.3028	1988.3	1146.7
831.4486	708.3987	1995.7	1156.7
831.5935	710.4941	1998.3	1160.1
831.7383	712.5887	2002.85	1162.4
831.8832	714.6827	2008.05	1162.45
832.0281	716.7761	1983	1142.6
832.173	718.8688	1996.7	1154.65
832.3179	720.9608	1998.9	1152.55
832.4628	723.0522	1996.8	1150.55
832.6077	725.1429	1993.25	1151.75
832.7527	727.233	2039	1195.65
832.8976	729.3224	2063.2	1219.05
833.0425	731.4112	2103.35	1259.65
833.1874	733.4993	2110.45	1265.3
833.3324	735.5867	2077.85	1233.35
833.4773	737.6735	2049.6	1201.75
833.6222	739.7596	2012.65	1166.4
833.7672	741.845	1999.05	1152.75
833.9122	743.9298	1996.2	1148.5
834.0571	746.014	2013.45	1167.45
834.2021	748.0974	2024.2	1176.65
834.347	750.1802	2021.9	1173.65
834.492	752.2624	2005.75	1158.7
834.637	754.3439	1992.45	1143.55
834.782	756.4247	1986.65	1130.15
834.9269	758.5048	1972.85	1126.5
835.0719	760.5843	1981.95	1133.9
835.2169	762.6631	1992.7	1142.95
835.3619	764.7413	2012.5	1164.25
835.5069	766.8188	2066.65	1217.3
835.6519	768.8956	2115.45	1265.75
835.7969	770.9718	2137.45	1285.9
835.9419	773.0473	2137.15	1288.75
836.0869	775.1221	2112.85	1265.1
836.232	777.1962	2106.9	1258.65
836.377	779.2697	2142.4	1290.75
836.522	781.3426	2210.75	1350.45
836.667	783.4147	2233.6	1382.1
836.8121	785.4862	2229.35	1380.9
836.9571	787.557	2177.9	1324.65
837.1021	789.6271	2095.25	1243.5
837.2472	791.6966	2023.25	1172.45
837.3922	793.7654	1965	1112.3
837.5373	795.8335	1931.1	1078.8
837.6823	797.901	1921.8	1072.55
837.8274	799.9678	1906	1052.4
837.9724	802.0339	1902.65	1053.65
838.1175	804.0993	1904.75	1040.2
838.2626	806.1641	1898.1	1041.85
838.4076	808.2282	1897	1044.3
838.5527	810.2916	1874.25	1018.3
838.6978	812.3544	1863.8	1012.1
838.8428	814.4164	1863.85	1012.25
838.9879	816.4778	1864.25	1012.75
839.133	818.5385	1874.5	1021.9
839.2781	820.5986	1887.8	1033.1
839.4232	822.658	1923.25	1065.95
839.5682	824.7166	1956.4	1102.9
839.7133	826.7747	2011.05	1157.65
839.8584	828.832	2052.65	1198.1
840.0035	830.8886	2097	1239
840.1486	832.9446	2092.6	1235.2
840.2937	834.9999	2080.7	1226.85
840.4388	837.0545	2044.75	1185.95
840.5839	839.1085	1983.05	1128.15
840.729	841.1618	1939.1	1080.45
840.8741	843.2143	1906.35	1052.95
841.0192	845.2662	1886.4	1030.7
841.1643	847.3175	1878	1021.65
841.3095	849.368	1867.1	1011.25
841.4546	851.4179	1866.35	1010.35
841.5997	853.467	1853.85	997.35
841.7448	855.5155	1861	1002.6
841.8899	857.5633	1869.2	1011.5
842.0351	859.6105	1862.4	1005.3
842.1802	861.6569	1859.3	1004.6
842.3253	863.7027	1842.15	984.05
842.4704	865.7478	1837.5	979.95
842.6156	867.7922	1825.7	967.6
842.7607	869.8359	1824.9	965.15
842.9058	871.8789	1823.15	963.1
843.0509	873.9212	1844.35	952.35
843.1961	875.9629	1821.15	963
843.3412	878.0039	1821.9	962.65
843.4863	880.0441	1832.1	973.6
843.6315	882.0837	1841.75	983
843.7766	884.1226	1867.45	1007.05
843.9218	886.1609	1875.8	1016.1
844.0669	888.1984	1910.45	1051.9
844.212	890.2352	1931.4	1073.4
844.3572	892.2714	1938.6	1075.6
844.5023	894.3069	1919.3	1057.05
844.6475	896.3416	1892.45	1030.1
844.7926	898.3757	1862.3	999.6
844.9377	900.4091	1845.45	983.35
845.0829	902.4418	1857.25	990.8
845.228	904.4739	1861.15	998.85
845.3732	906.5052	1865.3	1002.35
845.5183	908.5358	1861.6	1000.9
845.6635	910.5658	1849.2	984.45
845.8086	912.595	1828.75	966.8
845.9538	914.6236	1813.3	951.4
846.0989	916.6515	1793.55	930.5
846.2441	918.6786	1774.8	911.9
846.3892	920.7051	1777.1	911.3
846.5344	922.7309	1766	904.4
846.6795	924.756	1765.8	902.4
846.8246	926.7804	1778.05	913.4
846.9698	928.8041	1772	905.95
847.1149	930.8272	1781.55	915.1
847.2601	932.8495	1787	922.25
847.4052	934.8711	1787.3	924.4
847.5504	936.892	1792.55	929.05
847.6955	938.9123	1804.4	939.55
847.8407	940.9318	1813.75	947.15
847.9858	942.9506	1819.6	953.2
848.131	944.9688	1812.6	947.95
848.2761	946.9862	1806.45	941.75
848.4213	949.003	1779.9	912.95
848.5664	951.019	1762.95	899.4
848.7115	953.0344	1751.15	885.65
848.8567	955.0491	1752.8	887.95
849.0018	957.063	1738.75	873.85
849.147	959.0763	1728.3	864.1
849.2921	961.0888	1738.4	870.45
849.4373	963.1007	1735.85	871.15
849.5824	965.1119	1723.1	858.2
849.7275	967.1223	1721.1	853.45
849.8727	969.1321	1717.05	850.95
850.0178	971.1412	1708	842.85
850.1629	973.1495	1703.35	835.65
850.3081	975.1572	1743.45	834.8
850.4532	977.1641	1713.4	846.85
850.5983	979.1704	1716	848.7
850.7435	981.1759	1711.25	842.35
850.8886	983.1808	1700.9	832.35
851.0337	985.1849	1701.1	822.95
851.1788	987.1884	1692.6	824.45
851.324	989.1911	1696.3	823.85
851.4691	991.1932	1693.6	821.55
851.6142	993.1945	1695	826
851.7593	995.1951	1692.05	824.2
851.9045	997.1951	1689.55	815.9
852.0496	999.1943	1683.05	814.25
852.1947	1001.1928	1684.6	815.1
852.3398	1003.1906	1684.3	815.3
852.4849	1005.1877	1708.6	838
852.63	1007.1841	1717	848.8
852.7751	1009.1798	1715.5	847.9
852.9202	1011.1748	1704.55	834.95
853.0653	1013.1691	1700	831.5
853.2104	1015.1627	1677.9	808.45
853.3555	1017.1556	1655.7	787.05
853.5006	1019.1477	1649.6	779.25
853.6457	1021.1392	1639.2	770.95
853.7908	1023.1299	1640.2	770.25
853.9359	1025.12	1631.5	760.75
854.081	1027.1093	1630.7	760.65
854.2261	1029.0979	1635.45	764.5
854.3712	1031.0859	1649.5	778.1
854.5163	1033.0731	1654.15	782.95
854.6613	1035.0596	1648.85	779.4
854.8064	1037.0454	1645.95	775.45
854.9515	1039.0304	1635.25	763.85
855.0965	1041.0148	1631.25	760.55
855.2416	1042.9985	1606.05	733
855.3867	1044.9814	1595.8	727.95
855.5317	1046.9636	1600.8	729.35
855.6768	1048.9452	1603.7	732.45
855.8219	1050.926	1602.25	733.1
855.9669	1052.9061	1617.05	747.5
856.112	1054.8855	1623.2	752.55
856.257	1056.8642	1617.85	748.1
856.4021	1058.8421	1610.9	736
856.5471	1060.8194	1611.3	739.65
856.6921	1062.7959	1608.95	737.7
856.8372	1064.7717	1610.75	737.95
856.9822	1066.7469	1603.4	730.25
857.1272	1068.7213	1607.6	731.8
857.2723	1070.695	1612.9	741.65
857.4173	1072.6679	1615.5	742.05
857.5623	1074.6402	1638.3	765.9
857.7073	1076.6117	1643.5	766.45
857.8523	1078.5826	1627.2	753.5
857.9973	1080.5527	1603.4	729.05
858.1423	1082.5221	1578.2	705
858.2873	1084.4908	1559.4	686.7
858.4323	1086.4587	1548.9	675.35
858.5773	1088.426	1545.4	671.4
858.7223	1090.3925	1550.8	673.4
858.8673	1092.3584	1543.55	672.75
859.0123	1094.3235	1546.3	674.8
859.1573	1096.2879	1567.1	696.3
859.3022	1098.2515	1563	687.75
859.4472	1100.2145	1589.7	717
859.5922	1102.1767	1606.55	731.9
859.7371	1104.1382	1634.2	759.7
859.8821	1106.099	1660.45	783.6
860.027	1108.0591	1678.95	807.35
860.172	1110.0185	1709.7	833.3
860.3169	1111.9771	1725.65	850.75
860.4619	1113.9351	1749.6	874.4
860.6068	1115.8923	1785.3	913.05
860.7517	1117.8488	1795.85	921.1
860.8967	1119.8045	1774.7	900.55
861.0416	1121.7596	1714.05	838.6
861.1865	1123.7139	1654.25	782.65
861.3314	1125.6675	1616.65	742.5
861.4763	1127.6204	1613.7	739.85
861.6212	1129.5726	1624.95	749.3
861.7661	1131.524	1620.35	745.25
861.911	1133.4748	1597.75	722
862.0559	1135.4248	1572.5	695.05
862.2008	1137.3741	1545.15	671.2
862.3457	1139.3226	1520.4	644.85
862.4905	1141.2705	1520.4	645.3
862.6354	1143.2176	1533.55	650.95
862.7803	1145.164	1531.1	654.7
862.9251	1147.1097	1528.55	651.9
863.07	1149.0546	1519.05	640.75
863.2148	1150.9989	1495.15	619.05
863.3597	1152.9424	1490.3	613.55
863.5045	1154.8852	1478.95	602.45
863.6493	1156.8272	1475.75	600.4
863.7942	1158.7686	1482.25	598.75
863.939	1160.7092	1484.15	607.2
864.0838	1162.6491	1469.5	591.6
864.2286	1164.5883	1484.2	608.35
864.3734	1166.5267	1488.5	611.75
864.5182	1168.4644	1497.6	621.55
864.663	1170.4014	1520.35	639.6
864.8078	1172.3377	1540.1	664.8
864.9526	1174.2732	1564.4	690.1
865.0974	1176.2081	1620.7	744.3
865.2421	1178.1421	1687.7	805.5
865.3869	1180.0755	1737.65	863.5
865.5317	1182.0082	1773.6	894.75
865.6764	1183.9401	1759	881.8
865.8212	1185.8713	1704.4	829.3
865.9659	1187.8017	1639.05	762
866.1106	1189.7315	1569.8	692.95
866.2554	1191.6605	1562.1	656.6
866.4001	1193.5888	1513.55	635.25
866.5448	1195.5163	1492.8	613.6
866.6895	1197.4432	1476.7	598.1
866.8342	1199.3693	1463.85	587.3
866.9789	1201.2947	1465.3	581.55
867.1236	1203.2193	1454.9	578.35
867.2683	1205.1432	1449.45	571
867.413	1207.0664	1450.6	574.05
867.5576	1208.9889	1452.9	571.8
867.7023	1210.9106	1447.9	572.35
867.847	1212.8316	1443.05	569.05
867.9916	1214.7519	1454.5	567.35
868.1363	1216.6715	1447.15	569.95
868.2809	1218.5903	1463.65	585
868.4255	1220.5084	1467.25	589
868.5701	1222.4257	1469.15	590.8
868.7148	1224.3424	1483.65	606
868.8594	1226.2583	1489.6	606.95
869.004	1228.1735	1503.1	622.3
869.1486	1230.0879	1519.6	639.6
869.2932	1232.0016	1545.75	668.35
869.4377	1233.9146	1561.6	680.85
869.5823	1235.8269	1568.45	691
869.7269	1237.7384	1563.1	685.1
869.8715	1239.6492	1561.65	686.05
870.016	1241.5592	1577	697.5
870.1606	1243.4686	1599.2	719.05
870.3051	1245.3772	1637.1	757.55
870.4496	1247.285	1678.25	799.65
870.5941	1249.1922	1722.55	844.85
870.7387	1251.0986	1770.05	891.1
870.8832	1253.0042	1793.3	912.25
871.0277	1254.9092	1842.25	962.3
871.1722	1256.8134	1891.75	1014.55
871.3167	1258.7169	1928.45	1048
871.4611	1260.6196	1957.6	1078.25
871.6056	1262.5216	1967.9	1087.3
871.7501	1264.4229	1961.05	1083.15
871.8945	1266.3234	1940.9	1062.7
872.039	1268.2232	1917.7	1036.75
872.1834	1270.1223	1885.8	1006.9
872.3278	1272.0207	1864.4	984.7
872.4723	1273.9183	1853.75	968.25
872.6167	1275.8151	1842.55	963.85
872.7611	1277.7113	1874.6	995.55
872.9055	1279.6067	1912.2	1033.35
873.0499	1281.5014	1992.45	1110.4
873.1943	1283.3953	2085.15	1203.75
873.3386	1285.2885	2191.7	1313.05
873.483	1287.181	2267.15	1389.4
873.6274	1289.0727	2305.45	1425.2
873.7717	1290.9637	2275.15	1397.05
873.9161	1292.854	2216.2	1338.1
874.0604	1294.7435	2149.75	1269.7
874.2047	1296.6323	2080.95	1200.3
874.349	1298.5204	2022.15	1137.2
874.4933	1300.4077	1978.55	1096.8
874.6376	1302.2943	1952.55	1070.85
874.7819	1304.1802	1942.25	1062.9
874.9262	1306.0653	1924.5	1042.25
875.0705	1307.9497	1895.65	1014.85
875.2147	1309.8333	1880.65	998.8
875.359	1311.7162	1869.2	990.25
875.5032	1313.5984	1858.05	974.35
875.6475	1315.4798	1849.7	959.45
875.7917	1317.3605	1853.4	957.05
875.9359	1319.2405	1842.15	962.35
876.0801	1321.1197	1829.9	946.85
876.2243	1322.9982	1810.45	926.15
876.3685	1324.876	1765	884
876.5127	1326.753	1724.6	843.35
876.6569	1328.6293	1664.85	782.45
876.801	1330.5048	1621.05	737.05
876.9452	1332.3796	1573	693.25
877.0893	1334.2537	1578.05	672.5
877.2335	1336.127	1533	651.4
877.3776	1337.9996	1510.55	629.25
877.5217	1339.8714	1494.8	613.3
877.6658	1341.7426	1534.25	607.6
877.8099	1343.6129	1479.05	599.65
877.954	1345.4826	1465.15	585.35
878.0981	1347.3515	1463.45	582.15
878.2422	1349.2196	1451.1	569.5
878.3862	1351.087	1450.35	569.7
878.5303	1352.9537	1441.1	559.15
878.6743	1354.8197	1447.95	567.1
878.8184	1356.6849	1455.05	573.7
878.9624	1358.5493	1460.75	580.05
879.1064	1360.4131	1476.2	596.05
879.2504	1362.276	1486.95	607.2
879.3944	1364.1383	1508.5	629.1
879.5384	1365.9998	1526.5	639.6
879.6823	1367.8606	1518.25	636.35
879.8263	1369.7206	1506.7	624.95
879.9702	1371.5799	1505.9	620.9
880.1142	1373.4384	1506.25	624.75
880.2581	1375.2962	1485	602.7
880.402	1377.1533	1455.05	574.25
880.5459	1379.0096	1427.35	545.25
880.6898	1380.8652	1412.35	531.6
880.8337	1382.7201	1401.95	519.2
880.9776	1384.5742	1384.1	502.5
881.1215	1386.4275	1369.95	486.7
881.2653	1388.2802	1368.2	487.45
881.4092	1390.132	1346.2	466.95
881.553	1391.9832	1349.35	467.65
881.6968	1393.8336	1343.25	461.9
881.8406	1395.6832	1341.25	458.15
881.9844	1397.5322	1333.4	450.85
882.1282	1399.3803	1339.15	451
882.272	1401.2278	1323.45	440.5
882.4158	1403.0745	1321.7	438.95
882.5595	1404.9204	1308.85	427.1
882.7033	1406.7656	1312.45	431.25
882.847	1408.6101	1310.45	427.95
882.9908	1410.4538	1309.4	425.85
883.1345	1412.2968	1304.05	420.45
883.2782	1414.139	1302.35	420.1
883.4219	1415.9805	1307.95	426.2
883.5656	1417.8213	1321.7	431.65
883.7092	1419.6613	1319.3	436.75
883.8529	1421.5006	1343.75	461.5
883.9965	1423.3391	1356.25	474.6
884.1402	1425.1769	1378.4	492.5
884.2838	1427.0139	1422.2	538.3
884.4274	1428.8502	1466.3	581
884.571	1430.6858	1503.2	620.45
884.7146	1432.5206	1513.3	631.4
884.8582	1434.3547	1513	628.75
885.0018	1436.188	1491.95	610.1
885.1453	1438.0206	1490.9	608.7
885.2889	1439.8524	1485.3	602.55
885.4324	1441.6835	1480.65	596.5
885.5759	1443.5139	1480.4	592.8
885.7194	1445.3435	1478.15	596.35
885.8629	1447.1724	1487.85	605.65
886.0064	1449.0005	1476.35	593.7
886.1499	1450.8279	1484.35	601.45
886.2933	1452.6545	1476.4	595.8
886.4368	1454.4804	1466.8	587.1
886.5802	1456.3056	1470.6	580.7
886.7237	1458.13	1454.9	573.85
886.8671	1459.9536	1445.65	562.95
887.0105	1461.7766	1420.1	539.75
887.1539	1463.5987	1401.1	515.3
887.2972	1465.4202	1379.9	497.85
887.4406	1467.2409	1360.45	478.3
887.584	1469.0608	1348.2	467.05
887.7273	1470.88	1325.05	437.9
887.8706	1472.6984	1310.7	425.35
888.0139	1474.5161	1300.8	413.2
888.1572	1476.3331	1292.3	409.35
888.3005	1478.1493	1288.45	402.4
888.4438	1479.9648	1283.5	401.85
888.5871	1481.7795	1281.7	398.15
888.7303	1483.5935	1277.55	395.35
888.8736	1485.4067	1279.35	394.95
889.0168	1487.2192	1288.3	403.4
889.16	1489.031	1284.35	400.3
889.3032	1490.842	1285.45	400.45
889.4464	1492.6522	1284	402.55
889.5896	1494.4618	1282.95	399.1
889.7327	1496.2705	1276.8	395
889.8759	1498.0785	1274.75	389.6
890.019	1499.8858	1273.35	391.95
890.1622	1501.6924	1262.65	379.35
890.3053	1503.4981	1259.95	376.95
890.4484	1505.3032	1259.05	374
890.5914	1507.1075	1252.85	371.5
890.7345	1508.911	1254.75	370.25
890.8776	1510.7138	1250.05	367.05
891.0206	1512.5159	1246.65	361.5
891.1637	1514.3172	1234	352.6
891.3067	1516.1178	1230.05	346.6
891.4497	1517.9176	1233.25	348.65
891.5927	1519.7166	1235.35	351.25
891.7357	1521.515	1234.25	344.3
891.8786	1523.3126	1217.95	335.3
892.0216	1525.1094	1220.3	333.5
892.1645	1526.9055	1216.85	333.9
892.3074	1528.7008	1216.3	332.45
892.4503	1530.4954	1206.95	321.7
892.5932	1532.2893	1206.5	322.85
892.7361	1534.0824	1215.7	327.15
892.879	1535.8747	1207.7	323.9
893.0218	1537.6663	1199.95	316.75
893.1647	1539.4572	1205.9	320.55
893.3075	1541.2473	1210.55	324.65
893.4503	1543.0367	1201.3	318.7
893.5931	1544.8253	1205.25	317.35
893.7359	1546.6132	1204.35	318.35
893.8787	1548.4003	1214.5	320.15
894.0214	1550.1867	1221.9	330.25
894.1642	1551.9723	1216.95	327.55
894.3069	1553.7572	1216.75	331.3
894.4496	1555.5414	1227.25	343.4
894.5923	1557.3247	1236.7	352.1
894.735	1559.1074	1253.55	368.5
894.8777	1560.8893	1270.6	388.05
895.0204	1562.6705	1291.4	407.55
895.163	1564.4509	1306	421.15
895.3056	1566.2305	1305.1	422.55
895.4482	1568.0094	1311.95	428.55
895.5908	1569.7876	1308.9	425.35
895.7334	1571.565	1306.35	420.8
895.876	1573.3417	1304.15	420.05
896.0186	1575.1176	1307.2	423.35
896.1611	1576.8928	1313	428.9
896.3036	1578.6672	1324.45	439.95
896.4461	1580.4409	1326.75	443.85
896.5886	1582.2138	1351.55	464.8
896.7311	1583.986	1373.05	489.2
896.8736	1585.7575	1389.65	507
897.0161	1587.5282	1406.5	523.7
897.1585	1589.2981	1412.1	529.4
897.3009	1591.0673	1425.2	539.1
897.4433	1592.8358	1422.65	540.65
897.5857	1594.6035	1427.05	539.4
897.7281	1596.3704	1423.3	537.55
897.8705	1598.1366	1402.95	519
898.0128	1599.9021	1394.25	509.6
898.1551	1601.6668	1378.35	490.1
898.2975	1603.4308	1361.15	476.65
898.4398	1605.194	1378.05	488.7
898.5821	1606.9564	1387	503.5
898.7243	1608.7182	1410.25	519.5
898.8666	1610.4791	1445	560.5
899.0088	1612.2394	1488.4	602.8
899.1511	1613.9988	1544.15	658.35
899.2933	1615.7576	1580.65	696.9
899.4355	1617.5156	1605.85	715
899.5776	1619.2728	1573.65	688.55
899.7198	1621.0293	1535.8	652.85
899.862	1622.785	1484.2	596.2
900.0041	1624.54	1415.15	528.45
900.1462	1626.2942	1359.7	473.15
900.2883	1628.0477	1317.9	430.7
900.4304	1629.8005	1279.05	391.65
900.5725	1631.5525	1246.6	361.7
900.7145	1633.3037	1221.25	337.55
900.8566	1635.0542	1205.95	321.25
900.9986	1636.804	1191.45	303.05
901.1406	1638.553	1267.2	290.7
901.2826	1640.3013	1172.65	287.25
901.4245	1642.0488	1152.9	266.8
901.5665	1643.7955	1149.8	266.8
901.7085	1645.5416	1142.35	256.25
901.8504	1647.2868	1132.4	249.35
901.9923	1649.0313	1134.8	251.5
902.1342	1650.7751	1133.3	245.45
902.2761	1652.5181	1130.7	245.05
902.4179	1654.2604	1126.95	239.65
902.5598	1656.0019	1131.9	247.05
902.7016	1657.7427	1136.2	250.45
902.8434	1659.4828	1142.6	257.55
902.9852	1661.222	1155.65	271.05
903.127	1662.9606	1172.85	288.75
903.2687	1664.6984	1186.9	302.7
903.4105	1666.4354	1185.65	299.35
903.5522	1668.1717	1185.6	300.15
903.6939	1669.9072	1159.65	277.15
903.8356	1671.642	1139.65	252.65
903.9773	1673.3761	1127.8	245.45
904.119	1675.1094	1105.95	220.85
904.2606	1676.8419	1100.6	216.35
904.4022	1678.5737	1090.95	207.05
904.5439	1680.3048	1082	197.5
904.6855	1682.0351	1077.3	192.75
904.827	1683.7646	1078.25	191.05
904.9686	1685.4934	1079.3	195
905.1101	1687.2215	1074.05	189.7
905.2517	1688.9488	1076.25	192.7
905.3932	1690.6754	1070.35	186.05
905.5347	1692.4012	1068.75	184.55
905.6761	1694.1263	1072.55	187.95
905.8176	1695.8506	1065.35	181.95
905.9591	1697.5742	1065.65	180.15
906.1005	1699.297	1062.1	176.3
906.2419	1701.0191	1063.6	179.05
906.3833	1702.7404	1064.45	178.8
906.5246	1704.461	1061.15	175.55
906.666	1706.1808	1064.65	177.9
906.8073	1707.8999	1059.2	172.55
906.9487	1709.6182	1051.25	166.4
907.09	1711.3358	1053.65	169.45
907.2313	1713.0527	1054.6	168.8
907.3725	1714.7688	1059.8	167.75
907.5138	1716.4841	1052.45	165.55
907.655	1718.1987	1058.35	169.7
907.7962	1719.9126	1050.1	165.4
907.9374	1721.6257	1053.1	164.25
908.0786	1723.338	1049.95	163.6
908.2198	1725.0496	1051.3	163.15
908.3609	1726.7605	1050.75	164.85
908.502	1728.4706	1048.05	161.25
908.6431	1730.18	1050.15	163.1
908.7842	1731.8886	1048.25	164.25
908.9253	1733.5964	1055.25	166.4
909.0664	1735.3036	1050.3	163.5
909.2074	1737.0099	1045.75	160.5
909.3484	1738.7156	1045.55	160.95
909.4894	1740.4204	1049.25	161.35
909.6304	1742.1246	1045.25	156.75
909.7714	1743.8279	1042.6	158.3
909.9123	1745.5306	1047.5	162.5
910.0532	1747.2325	1045.35	161
910.1941	1748.9336	1042.25	158.65
910.335	1750.634	1045.85	157.85
910.4759	1752.3336	1040.85	157.05
910.6168	1754.0325	1037.7	152.95
910.7576	1755.7307	1043.15	158.85
910.8984	1757.4281	1039.4	153.55
911.0392	1759.1247	1049.7	156
911.18	1760.8206	1043.5	152.65
911.3208	1762.5158	1046.1	155.4
911.4615	1764.2102	1043.8	160.65
911.6022	1765.9039	1040.3	155.9
911.7429	1767.5968	1038.65	155.55
911.8836	1769.289	1042.1	156.5
912.0243	1770.9804	1041.45	156.35
912.1649	1772.6711	1037.65	151.8
912.3056	1774.361	1037.45	153
912.4462	1776.0502	1038.7	154.45
912.5868	1777.7386	1036.05	148.3
912.7274	1779.4263	1035.1	148.55
912.8679	1781.1132	1039.4	152.35
913.0084	1782.7994	1036.2	147.5
913.149	1784.4849	1034.8	150.35
913.2895	1786.1696	1052.75	149.45
913.4299	1787.8535	1036.1	149.9
913.5704	1789.5367	1031.95	145.95
913.7108	1791.2192	1033.05	147.4
913.8513	1792.9009	1049.85	148.7
913.9917	1794.5818	1032.1	144.1
914.132	1796.2621	1030.85	149.65
914.2724	1797.9415	1029.05	141.65
914.4128	1799.6202	1029.6	145.75
914.5531	1801.2982	1026.55	139.1
914.6934	1802.9755	1032.85	147.7
914.8337	1804.6519	1029.4	143.8
914.9739	1806.3277	1025.45	141.1
915.1142	1808.0027	1029.4	147.2
915.2544	1809.6769	1030.35	144.3
915.3946	1811.3504	1029.4	142.1
915.5348	1813.0231	1029.6	140.75
915.675	1814.6951	1021.2	135.7
915.8151	1816.3664	1027.35	140.2
915.9553	1818.0369	1025.45	140.3
916.0954	1819.7067	1024.9	140.6
916.2355	1821.3757	1025.6	138.8
916.3755	1823.044	1024.45	138.6
916.5156	1824.7115	1023.65	139.75
916.6556	1826.3783	1021.3	135.1
916.7956	1828.0443	1021.9	139
916.9356	1829.7096	1024.5	138.4
917.0756	1831.3741	1026.25	138.4
917.2155	1833.0379	1024.05	138.95
917.3555	1834.701	1025.6	137.7
917.4954	1836.3633	1021.15	134.3
917.6353	1838.0248	1021.45	133.9
917.7751	1839.6856	1018.2	132
917.915	1841.3457	1022.45	138.3
918.0548	1843.005	1017.65	133.55
918.1946	1844.6636	1021.45	136.45
918.3344	1846.3214	1019.8	134.05
918.4742	1847.9785	1019.65	134.75
918.6139	1849.6349	1019.85	133.5
918.7537	1851.2904	1028.15	136.85
918.8934	1852.9453	1016.35	129.2
919.0331	1854.5994	1015.3	129.05
919.1727	1856.2528	1023	132.5
919.3124	1857.9054	1016.5	130.9
919.452	1859.5572	1015	128.7
919.5916	1861.2083	1014.7	129.3
919.7312	1862.8587	1015.2	131.1
919.8708	1864.5084	1020.25	134.45
920.0103	1866.1572	1013.5	130.5
920.1498	1867.8054	1018.05	133.7
920.2893	1869.4528	1011.6	128.45
920.4288	1871.0994	1009.4	123.15
920.5683	1872.7453	1006.8	119.6
920.7077	1874.3905	1021.9	131.25
920.8471	1876.0349	1013.6	127.6
920.9865	1877.6786	1013.75	125.55
921.1259	1879.3215	1012.2	127.6
921.2653	1880.9637	1010.95	122.9
921.4046	1882.6051	1014.65	129
921.5439	1884.2458	1013.8	126.3
921.6832	1885.8858	1009.65	124.45
921.8225	1887.525	1011.85	126.5
921.9617	1889.1634	1010.8	125.7
922.101	1890.8011	1008.8	124.5
922.2402	1892.4381	1012.15	129.1
922.3794	1894.0743	1006.2	120.95
922.5185	1895.7098	1007.9	122.85
922.6577	1897.3446	1008.95	123.05
922.7968	1898.9786	1013.05	124.1
922.9359	1900.6118	1012	127.95
923.075	1902.2443	1008.9	121.15
923.214	1903.8761	1006.75	119.95
923.3531	1905.5071	1010.95	124.05
923.4921	1907.1374	1005.65	118.7
923.6311	1908.7669	1009.1	123.15
923.77	1910.3957	1004.85	119.1
923.909	1912.0237	1010.85	124
924.0479	1913.651	1009.6	124.05
924.1868	1915.2776	1005.05	120.85
924.3257	1916.9034	1006.7	121.15
924.4646	1918.5285	1005.35	121.8
924.6034	1920.1528	1007.9	120.6
924.7422	1921.7764	1003.3	119.45
924.881	1923.3992	1004.15	121.05
925.0198	1925.0213	1002.85	118.65
925.1586	1926.6427	1000.2	115.25
925.2973	1928.2633	1108.9	115.55
925.436	1929.8832	1002.15	115.7
925.5747	1931.5023	998.65	113.45
925.7134	1933.1207	1000.35	116.2
925.852	1934.7383	1002.05	116
925.9906	1936.3552	1000.4	116.25
926.1292	1937.9714	1001.6	116.75
926.2678	1939.5868	1001.8	113.9
926.4064	1941.2015	1002.95	118.75
926.5449	1942.8154	1001.15	115.35
926.6834	1944.4286	994.85	111
926.8219	1946.041	1023.65	115.45
926.9604	1947.6528	1000.1	109.3
927.0988	1949.2637	999	114.2
927.2372	1950.8739	998.9	112.95
927.3756	1952.4834	995.85	109.5
927.514	1954.0921	996.2	110.85
927.6523	1955.7001	1001.75	110.55
927.7907	1957.3074	996.95	112.75
927.929	1958.9139	996.6	112
928.0673	1960.5197	996.8	109.5
928.2055	1962.1247	996.7	112.85
928.3438	1963.729	994.7	109.3
928.482	1965.3325	1018	108.7
928.6202	1966.9353	995.2	110.25
928.7584	1968.5374	995.65	108.1
928.8965	1970.1387	993.8	107.9
929.0346	1971.7393	994.4	109.55
929.1727	1973.3392	996.3	110.8
929.3108	1974.9383	993.15	108.9
929.4489	1976.5366	994.45	108.15
929.5869	1978.1342	995.5	107.95
929.7249	1979.7311	990.5	103.2
929.8629	1981.3273	990.05	103.8
930.0009	1982.9227	993.4	108.2
930.1388	1984.5173	991.35	105.45
930.2767	1986.1112	990.3	103.85
930.4146	1987.7044	991.15	106.05
930.5525	1989.2968	995.5	108.1
930.6904	1990.8885	995.75	105.85
930.8282	1992.4795	995.5	107.6
930.966	1994.0697	992.65	107.3
931.1038	1995.6592	992.1	106.9
931.2415	1997.2479	990.55	105.05
931.3793	1998.8359	987.95	102.9
931.517	2000.4232	990.2	105.15
931.6547	2002.0097	988.05	101.95
931.7923	2003.5955	988.85	102.85
931.93	2005.1805	989.15	100.3
932.0676	2006.7648	988.55	101.9
932.2052	2008.3484	989.25	100.65
932.3427	2009.9312	991.25	104.05
932.4803	2011.5133	989.3	102.25
932.6178	2013.0946	990.15	104.6
932.7553	2014.6752	986.35	100.3
932.8928	2016.2551	990.05	103.45
933.0302	2017.8342	991.3	106.45
933.1676	2019.4126	987.9	103.5
933.305	2020.9902	988.7	103.7
933.4424	2022.5672	990.9	104.5
933.5798	2024.1433	996.6	105
933.7171	2025.7188	989.15	103.5
933.8544	2027.2935	986.25	99.45
933.9917	2028.8674	986.1	101.65
934.129	2030.4406	988.4	103.9
934.2662	2032.0131	986.95	100.35
934.4034	2033.5849	988.85	96.6
934.5406	2035.1559	987.95	103.05
934.6778	2036.7261	985.15	98.8
934.8149	2038.2957	986.45	101.8
934.952	2039.8645	985.5	100
935.0891	2041.4325	986.85	97.75
935.2262	2042.9998	984.1	99.4
935.3632	2044.5664	988.95	100.5
935.5002	2046.1323	987.45	102.25
935.6372	2047.6974	983.75	97.95
935.7742	2049.2617	985.35	98.1
935.9111	2050.8254	1017.1	97.65
936.048	2052.3883	986.45	99.6
936.1849	2053.9504	987.95	103.45
936.3218	2055.5118	983.5	96.35
936.4586	2057.0725	989.3	98.4
936.5955	2058.6325	984.8	99.35
936.7323	2060.1917	984.5	98.4
936.869	2061.7502	988.2	100.3
937.0058	2063.3079	987.55	101.35
937.1425	2064.8649	989.45	99.8
937.2792	2066.4212	986.75	98.95
937.4159	2067.9767	985.25	98.25
937.5525	2069.5315	981.3	96.25
937.6891	2071.0856	985.85	100.75
937.8257	2072.6389	985.1	98.8
937.9623	2074.1915	983	98.85
938.0989	2075.7433	985.65	95.9
938.2354	2077.2945	984.85	100.9
938.3719	2078.8448	980.8	96.4
938.5084	2080.3945	983.4	97.95
938.6448	2081.9434	983.05	99.5
938.7812	2083.4916	984.1	96.2
938.9176	2085.039	982.85	96.2
939.054	2086.5857	984.15	97.15
939.1903	2088.1317	984.2	99
939.3267	2089.677	982.4	94.65
939.463	2091.2215	978.95	94.7
939.5992	2092.7652	985.05	97.05
939.7355	2094.3083	981.65	95.95
939.8717	2095.8506	981.35	96.55
940.0079	2097.3921	979.95	95
940.1441	2098.933	984.2	99.45
940.2802	2100.4731	980.95	94.1
940.4163	2102.0124	988.5	94.2
940.5524	2103.5511	983.15	99.15
940.6885	2105.089	981	96
940.8245	2106.6261	983.25	96.8
940.9606	2108.1626	982.1	96.85
941.0965	2109.6983	1011.3	95.6
941.2325	2111.2332	983.85	97.7
941.3684	2112.7675	984.1	97.7
941.5044	2114.301	980.75	93.55
941.6403	2115.8337	979.75	95.5
941.7761	2117.3657	979.6	94.6
941.912	2118.897	983.35	96.15
942.0478	2120.4276	988.15	95.45
942.1835	2121.9575	981.45	95.15
942.3193	2123.4866	996	98.7
942.455	2125.0149	979.95	89.2
942.5907	2126.5426	982.75	94.9
942.7264	2128.0695	983.75	95.25
942.8621	2129.5956	979.5	93.85
942.9977	2131.1211	982.75	93.55
943.1333	2132.6458	980	94.35
943.2689	2134.1698	981.35	95.4
943.4044	2135.693	980.35	91.7
943.54	2137.2155	979	89.35
943.6755	2138.7373	980.7	96
943.8109	2140.2584	980	95.4
943.9464	2141.7787	980.1	89.55
944.0818	2143.2983	979	93.65
944.2172	2144.8171	975.8	88.65
944.3526	2146.3353	982.8	94.65
944.4879	2147.8527	978.95	93.35
944.6232	2149.3693	976.35	90.25
944.7585	2150.8853	977.5	91.65
944.8938	2152.4005	981.4	95.85
945.029	2153.9149	977.05	90.85
945.1642	2155.4287	974.95	90.45
945.2994	2156.9417	981.2	95.5
945.4346	2158.454	981.4	95.35
945.5697	2159.9655	979.1	93.15
945.7048	2161.4764	980.6	93.9
945.8399	2162.9865	977.35	92.45
945.9749	2164.4958	981.2	91.6
946.1099	2166.0045	979.8	90.05
946.2449	2167.5124	978.1	93.5
946.3799	2169.0195	977.75	91.55
946.5148	2170.526	981.85	96.75
946.6498	2172.0317	975.25	88.65
946.7846	2173.5367	982	96.3
946.9195	2175.0409	975.25	88.95
947.0543	2176.5445	974.9	91.05
947.1891	2178.0473	975.95	90.8
947.3239	2179.5494	979.6	89
947.4587	2181.0507	977.1	90.7
947.5934	2182.5513	976.85	88.35
947.7281	2184.0512	974.8	89.55
947.8628	2185.5504	975.35	90.05
947.9974	2187.0488	976	90.2
948.132	2188.5465	975.75	89.75
948.2666	2190.0435	977.35	88.9
948.4012	2191.5397	976.25	89.85
948.5357	2193.0353	972.5	89.55
948.6702	2194.5301	976.35	89.55
948.8047	2196.0241	973.3	86.4
948.9392	2197.5175	975.4	92.3
949.0736	2199.0101	977	87.3
949.208	2200.502	972.6	88.25
949.3424	2201.9931	974.65	88.15
949.4767	2203.4835	974.4	86
949.611	2204.9733	978.5	87.1
949.7453	2206.4622	973.35	85.85
949.8796	2207.9505	975.65	87.15
950.0138	2209.438	971.25	86.45
950.148	2210.9248	972.3	85.6
950.2822	2212.4109	972.2	88.65
950.4164	2213.8962	971.8	81.9
950.5505	2215.3809	973	87.35
950.6846	2216.8648	974.9	88.7
950.8186	2218.3479	972.35	82.95
950.9527	2219.8304	973.1	87.45
951.0867	2221.3121	970.6	83.3
951.2207	2222.7931	967.8	82.95
951.3546	2224.2733	970.5	85.25
951.4886	2225.7529	973.45	85.1
951.6225	2227.2317	970.95	82.85
951.7563	2228.7098	967.15	82.1
951.8902	2230.1872	969.65	82.4
952.024	2231.6638	968.55	82.45
952.1578	2233.1397	970.95	81.65
952.2916	2234.6149	968.15	82.9
952.4253	2236.0894	969.6	84.25
952.559	2237.5632	980.2	85.45
952.6927	2239.0362	970.3	84.85
952.8263	2240.5085	968.25	82.4
952.9599	2241.9801	966.75	80.25
953.0935	2243.4509	963.65	77.55
953.2271	2244.921	970.1	83.45
953.3606	2246.3904	970.5	82.35
953.4941	2247.8591	963.9	79.05
953.6276	2249.3271	965	80.7
953.7611	2250.7943	965.4	79.55
953.8945	2252.2608	966.45	80.8
954.0279	2253.7266	964.5	78.5
954.1612	2255.1917	966.65	81
954.2946	2256.656	966.2	80.25
954.4279	2258.1197	964.25	77.15
954.5612	2259.5826	966.5	79.7
954.6944	2261.0447	965.75	78.6
954.8276	2262.5062	966.5	77.7
954.9608	2263.9669	967.45	80.4
955.094	2265.4269	963.05	78
955.2271	2266.8862	963.5	78.7
955.3602	2268.3448	964.7	78
955.4933	2269.8026	960.45	76.4
955.6264	2271.2598	965.7	78.95
955.7594	2272.7162	964	78.55
955.8924	2274.1719	964.85	78.5
956.0253	2275.6268	960.15	74
956.1583	2277.0811	963.6	76.45
956.2912	2278.5346	964.5	80.05
956.4241	2279.9874	960.25	75.5
956.5569	2281.4395	963.25	79.2
956.6897	2282.8908	967.25	79.55
956.8225	2284.3414	962.85	74.5
956.9553	2285.7914	961.95	76.6
957.088	2287.2406	964.45	77.9
957.2207	2288.689	959.5	72.1
957.3534	2290.1368	963.2	77.55
957.486	2291.5838	963.1	77.55
957.6186	2293.0302	964.5	78.05
957.7512	2294.4758	959.05	73.75
957.8838	2295.9206	959.75	73.4
958.0163	2297.3648	963.1	78.3
958.1488	2298.8082	964	77.1
958.2813	2300.251	962.65	77.6
958.4137	2301.693	962.2	74.7
958.5461	2303.1343	962.8	75.9
958.6785	2304.5748	961.4	76.8
958.8108	2306.0147	963.6	75
958.9432	2307.4538	962.5	74.35
959.0754	2308.8922	956.65	71.9
959.2077	2310.3299	958.1	70.85
959.3399	2311.7669	956.6	70.9
959.4721	2313.2031	957	74.4
959.6043	2314.6387	957.4	71.15
959.7365	2316.0735	959.65	74.4
959.8686	2317.5076	958.35	74.75
960.0006	2318.941	959	73.7
960.1327	2320.3737	959.65	73.4
960.2647	2321.8056	960.4	71.25
960.3967	2323.2369	961.75	76.1
960.5287	2324.6674	963.25	74.7
960.6606	2326.0972	964.45	77.2
960.7925	2327.5263	966.2	81.7
960.9244	2328.9547	969.75	83.3
961.0562	2330.3823	966.9	80.75
961.1881	2331.8092	965.9	75.85
961.3198	2333.2355	957.15	72.3
961.4516	2334.661	955.95	68.1
961.5833	2336.0858	958.4	71
961.715	2337.5098	954.45	68.7
961.8467	2338.9332	953.4	65.65
961.9783	2340.3558	960.05	70.15
962.1099	2341.7778	956.3	70.85
962.2415	2343.199	957.95	68.4
962.373	2344.6195	955.15	68.9
962.5045	2346.0393	955.75	71.75
962.636	2347.4583	955.25	68.6
962.7675	2348.8767	956.65	69.75
962.8989	2350.2943	953.8	66.8
963.0303	2351.7113	957.1	70.45
963.1617	2353.1275	955.7	69.9
963.293	2354.543	959.35	66.35
963.4243	2355.9578	954.3	68.75
963.5556	2357.3718	954.6	69.65
963.6868	2358.7852	957.45	68.5
963.818	2360.1978	954.3	66.9
963.9492	2361.6098	954.2	68.35
964.0803	2363.021	955.85	65.95
964.2114	2364.4315	952.8	67.25
964.3425	2365.8413	954.35	66.55
964.4736	2367.2504	952.2	66.9
964.6046	2368.6587	950.5	66.75
964.7356	2370.0664	952.65	67.75
964.8666	2371.4733	952.45	66.6
964.9975	2372.8795	950.65	65.4
965.1284	2374.285	950.8	65.95
965.2593	2375.6899	950.35	64.9
965.3901	2377.0939	953	67.05
965.5209	2378.4973	951.3	66.7
965.6517	2379.9	950.65	64.3
965.7825	2381.3019	947.9	63.2
965.9132	2382.7032	950.85	64.2
966.0439	2384.1037	947.1	61.8
966.1745	2385.5035	951.1	65.2
966.3051	2386.9027	948.6	62.1
966.4357	2388.3011	950	61.1
966.5663	2389.6987	945.7	60.3
966.6968	2391.0957	948.5	63.1
966.8273	2392.492	948.55	62.3
966.9578	2393.8876	950.65	61.25
967.0882	2395.2824	948.2	62.8
967.2186	2396.6765	946.65	61.9
967.349	2398.07	947.4	62.65
967.4793	2399.4627	948.25	62.65
967.6097	2400.8547	945.2	58.9
967.7399	2402.246	950.75	58.75
967.8702	2403.6366	946.25	58.65
968.0004	2405.0265	946.95	59.9
968.1306	2406.4156	951.15	60.5
968.2607	2407.8041	947.15	55.7
968.3909	2409.1918	948.4	58.55
968.521	2410.5789	946.05	60
968.651	2411.9652	948.35	58.65
968.781	2413.3508	947.85	62.9
968.911	2414.7358	942.65	54.95
969.041	2416.12	943.3	58.7
969.1709	2417.5035	943.9	58
969.3008	2418.8863	947.05	59.85
969.4307	2420.2684	944.25	59.3
969.5606	2421.6497	943.9	57.75
969.6904	2423.0304	941.45	56.35
969.8201	2424.4104	943.6	56.4
969.9499	2425.7896	949.85	59.05
970.0796	2427.1682	943.15	55.85
970.2093	2428.546	944.75	57.55
970.3389	2429.9232	946.55	58.65
970.4685	2431.2996	943.15	58.8
970.5981	2432.6753	941.9	56.75
970.7277	2434.0503	940.55	56.65
970.8572	2435.4246	941.15	55.55
970.9867	2436.7982	945.9	57.6
971.1161	2438.1711	940.65	55.2
971.2456	2439.5433	941.75	53.3
971.375	2440.9148	948.5	57.85
971.5043	2442.2856	941.6	55.9
971.6336	2443.6557	944.7	56.85
971.7629	2445.025	940.25	54.65
971.8922	2446.3937	941.8	56.4
972.0214	2447.7617	943.25	58.75
972.1506	2449.1289	940.2	54.6
972.2798	2450.4955	944.25	54.4
972.4089	2451.8613	938.05	54.4
972.538	2453.2265	938.3	51.15
972.6671	2454.5909	939.45	51.5
972.7961	2455.9546	939.4	53.8
972.9251	2457.3177	937.85	52.6
973.0541	2458.68	938.7	50.1
973.1831	2460.0416	939.75	54.05
973.312	2461.4025	942.95	53.7
973.4408	2462.7627	951.05	54.05
973.5697	2464.1222	937.45	54.05
973.6985	2465.4811	942.45	56.45
973.8273	2466.8392	937.65	51.65
973.956	2468.1966	941.3	52.65
974.0847	2469.5533	939.05	51.9
974.2134	2470.9093	939.5	52.9
974.3421	2472.2645	943.1	54.7
974.4707	2473.6191	935.95	49.65
974.5993	2474.973	938	52.85
974.7278	2476.3262	939.65	53.15
974.8563	2477.6787	938.45	53.3
974.9848	2479.0305	935.5	48.35
975.1132	2480.3816	939.95	52.2
975.2417	2481.7319	933.8	47.35
975.37	2483.0816	941.65	54.8
975.4984	2484.4306	938.8	50.2
975.6267	2485.7789	941	57.1
975.755	2487.1264	940.6	52.7
975.8833	2488.4733	936.65	51.25
976.0115	2489.8195	954.95	51.7
976.1397	2491.165	939.2	49.4
976.2678	2492.5097	936.5	48.5
976.3959	2493.8538	936.75	50.9
976.524	2495.1972	937.65	50.65
976.6521	2496.5398	940.75	55.35
976.7801	2497.8818	940.3	52.55
976.9081	2499.2231	933.2	47.35
977.036	2500.5637	934.7	44.15
977.164	2501.9035	935.35	48.15
977.2918	2503.2427	939.55	49.3
977.4197	2504.5812	931.55	45.6
977.5475	2505.919	936.65	47.1
977.6753	2507.256	934.65	48.3
977.8031	2508.5924	934.25	46.85
977.9308	2509.9281	938.8	47.45
978.0585	2511.2631	936.6	49.75
978.1861	2512.5974	935	50
978.3137	2513.9309	937.95	52.65
978.4413	2515.2638	967	49.5
978.5689	2516.596	931.7	45.75
978.6964	2517.9275	934.9	47.95
978.8239	2519.2583	934.8	47.45
978.9513	2520.5884	935.25	47.5
979.0788	2521.9178	931.65	45.6
979.2062	2523.2465	932.3	47.7
979.3335	2524.5745	932.05	46.15
979.4608	2525.9018	934.1	48.35
979.5881	2527.2284	932.25	48.65
979.7154	2528.5543	929.4	43.6
979.8426	2529.8796	934.65	48.45
979.9698	2531.2041	933.95	45.75
980.0969	2532.5279	930.95	47.9
980.224	2533.851	933.55	47.6
980.3511	2535.1735	930.95	46
980.4781	2536.4952	930.65	44.65
980.6052	2537.8163	929.25	43.65
980.7321	2539.1366	931.85	47.5
980.8591	2540.4562	932.4	46.25
980.986	2541.7752	931.8	46.4
981.1129	2543.0935	931.25	46.35
981.2397	2544.411	934	47.8
981.3665	2545.7279	930.95	45.4
981.4933	2547.0441	931.55	44.45
981.62	2548.3596	930.9	41.2
981.7467	2549.6744	931.9	45.15
981.8734	2550.9885	933.1	45.2
982.0001	2552.3019	930	45.55
982.1267	2553.6146	933.05	47.15
982.2532	2554.9266	930.5	44.75
982.3798	2556.2379	931.55	44.75
982.5063	2557.5485	928.15	41.6
982.6327	2558.8585	938	45.75
982.7592	2560.1677	932.8	44.05
982.8856	2561.4762	928.4	42.05
983.0119	2562.7841	931	41.9
983.1383	2564.0913	927.45	41.3
983.2646	2565.3977	929.4	42.5
983.3908	2566.7035	927.15	42.35
983.517	2568.0086	931.1	44.7
983.6432	2569.313	927.35	40.75
983.7694	2570.6167	934.75	42.65
983.8955	2571.9197	926.35	41.3
984.0216	2573.222	933.5	44.65
984.1476	2574.5236	927.3	40.5
984.2737	2575.8246	929.8	39.8
984.3996	2577.1248	933.35	43.95
984.5256	2578.4244	928.65	43.5
984.6515	2579.7232	926.85	41.55
984.7774	2581.0214	955.75	38.35
984.9032	2582.3189	924.15	40.1
985.029	2583.6157	933.55	42.25
985.1548	2584.9118	928.6	43.65
985.2806	2586.2072	927.7	39.5
985.4063	2587.5019	926.3	40.25
985.5319	2588.7959	928.75	42.4
985.6576	2590.0893	930.6	43.95
985.7832	2591.3819	925.25	42.05
985.9087	2592.6739	926.55	40.15
986.0343	2593.9652	928.75	41.5
986.1597	2595.2557	928.15	43.7
986.2852	2596.5456	929.15	41.3
986.4106	2597.8348	925.95	40.75
986.536	2599.1234	924.85	39.1
986.6614	2600.4112	929.05	42.55
986.7867	2601.6983	931.75	41.95
986.912	2602.9848	928.05	41.15
987.0372	2604.2705	933.25	39.95
987.1624	2605.5556	926.55	40.85
987.2876	2606.84	926.9	41.15
987.4128	2608.1237	928.35	41.6
987.5379	2609.4067	926.75	40.65
987.6629	2610.689	935.2	38.95
987.788	2611.9707	926.45	37.7
987.913	2613.2516	932.25	42.1
988.0379	2614.5319	923.95	39.05
988.1629	2615.8115	925.85	39.1
988.2878	2617.0903	926.2	40.65
988.4126	2618.3685	926.3	38.7
988.5375	2619.6461	924.9	37.5
988.6622	2620.9229	924	37.9
988.787	2622.199	927.7	41.2
988.9117	2623.4745	925.65	38.95
989.0364	2624.7493	924.6	38.45
989.161	2626.0234	924.9	39.2
989.2857	2627.2968	923.55	36.85
989.4102	2628.5695	924.45	35.75
989.5348	2629.8415	921.3	36.7
989.6593	2631.1128	924	35.7
989.7837	2632.3835	923.05	36.3
989.9082	2633.6535	920.2	37.45
990.0326	2634.9228	921.2	36.25
990.1569	2636.1914	922.5	37.55
990.2812	2637.4593	926.6	37.55
990.4055	2638.7265	923.9	37.25
990.5298	2639.9931	923.55	37.25
990.654	2641.259	923.45	37.7
990.7782	2642.5242	922.8	35.45
990.9023	2643.7887	921.25	34.6
991.0264	2645.0525	922.3	36.65
991.1505	2646.3156	923.05	36.15
991.2745	2647.5781	920.05	34.1
991.3985	2648.8398	921	36.7
991.5225	2650.1009	958.75	35.2
991.6464	2651.3613	922.3	36
991.7703	2652.6211	922.9	37.9
991.8942	2653.8801	918.9	34
992.018	2655.1385	924.7	36.05
992.1418	2656.3961	919.4	33.45
992.2655	2657.6531	920.5	33.7
992.3892	2658.9094	920.15	34.75
992.5129	2660.1651	916.9	34.95
992.6366	2661.42	921.45	34.35
992.7602	2662.6743	920.95	35.85
992.8837	2663.9279	918	33.1
993.0073	2665.1808	922.55	36.65
993.1307	2666.433	922.3	35.3
993.2542	2667.6846	920.95	34.15
993.3776	2668.9354	922.1	33.4
993.501	2670.1856	921.1	31.55
993.6244	2671.4351	920.7	34.2
993.7477	2672.6839	922.25	37.25
993.8709	2673.9321	921.95	37
993.9942	2675.1795	922	37.65
994.1174	2676.4263	921.3	36.55
994.2405	2677.6724	919.6	32.75
994.3637	2678.9179	923.25	35.55
994.4868	2680.1626	918.35	31.55
994.6098	2681.4067	917.55	32.5
994.7328	2682.6501	920.45	34.25
994.8558	2683.8928	918.55	33.65
994.9788	2685.1348	919.15	33.95
995.1017	2686.3761	918.85	32.85
995.2245	2687.6168	918.5	34.15
995.3474	2688.8568	919.35	34.65
995.4702	2690.0961	919	31.3
995.5929	2691.3348	917.7	30.45
995.7156	2692.5727	919.9	32.1
995.8383	2693.81	916.55	31.5
995.961	2695.0466	916.15	31.95
996.0836	2696.2826	918.65	31.25
996.2062	2697.5178	917.3	28.15
996.3287	2698.7524	918.65	33.3
996.4512	2699.9863	919.35	29.65
996.5737	2701.2195	918.15	34.85
996.6961	2702.452	920.4	31.8
996.8185	2703.6839	919.25	34.55
996.9408	2704.9151	916.95	31.6
997.0631	2706.1456	918.9	33.5
997.1854	2707.3755	918.3	33.3
997.3077	2708.6046	921	33.75
997.4299	2709.8331	921.7	34.45
997.552	2711.0609	918.65	32.75
997.6742	2712.2881	917.85	29.8
997.7963	2713.5145	922.15	35.55
997.9183	2714.7403	920.4	37.05
998.0403	2715.9654	921.55	34.8
998.1623	2717.1899	922	35.3
998.2842	2718.4136	918.2	32.4
998.4062	2719.6367	920.85	36.6
998.528	2720.8591	929.1	36.3
998.6498	2722.0809	922.25	35.25
998.7716	2723.3019	927.35	37.95
998.8934	2724.5223	924.75	35.9
999.0151	2725.7421	923	36.3
999.1368	2726.9611	922.55	33.45
999.2584	2728.1795	924.85	34.8
999.38	2729.3972	919.75	36.1
999.5016	2730.6142	934	37.1
999.6231	2731.8306	919.6	32.2
999.7446	2733.0462	921.95	32.5
999.8661	2734.2612	923.8	32.75
999.9875	2735.4756	919.6	31.35
1000.1089	2736.6892	914.55	27.5
1000.2302	2737.9022	914.7	30.5
1000.3515	2739.1145	915.35	30.7
1000.4728	2740.3262	924.65	32.7
1000.594	2741.5372	918.35	33.65
1000.7152	2742.7475	915	29.1
1000.8363	2743.9571	918.8	30.95
1000.9575	2745.1661	920.65	31.7
1001.0785	2746.3744	915.2	28.5
1001.1996	2747.582	917.4	31.75
1001.3206	2748.7889	914.2	27
1001.4415	2749.9952	913.55	27.45
1001.5625	2751.2008	913.65	27.5
1001.6833	2752.4057	916.3	27.55
1001.8042	2753.61	913.75	26.3
1001.925	2754.8136	915.75	27.85
1002.0458	2756.0165	912.25	26.85
1002.1665	2757.2188	910.55	26.35
1002.2872	2758.4204	910.35	22.85
1002.4078	2759.6213	913.65	24.65
1002.5285	2760.8215	918.25	26.4
1002.649	2762.0211	913.95	26.9
1002.7696	2763.22	913.7	25.2
1002.8901	2764.4182	912.85	24.9
1003.0106	2765.6158	911.65	26.6
1003.131	2766.8127	911.1	25.85
1003.2514	2768.009	914.6	28.65
1003.3717	2769.2045	911.6	23.85
1003.492	2770.3994	912.25	22.7
1003.6123	2771.5936	911.3	26.3
1003.7325	2772.7872	911.85	26.95
1003.8527	2773.9801	913.4	26.2
1003.9729	2775.1723	928.65	25.55
1004.093	2776.3639	910	24.6
1004.2131	2777.5548	913.75	26.25
1004.3331	2778.745	912.65	24.45
1004.4531	2779.9346	909.75	23
1004.5731	2781.1235	912.85	26.4
1004.693	2782.3117	909.55	24.75
1004.8129	2783.4992	910.3	23.95
1004.9328	2784.6861	910.45	21.1
1005.0526	2785.8723	911.1	23.85
1005.1723	2787.0579	912.9	27.45
1005.2921	2788.2428	911.2	24.8
1005.4118	2789.427	909.15	23.25
1005.5314	2790.6106	909	24.35
1005.651	2791.7935	911.2	22.25
1005.7706	2792.9757	911.7	25.65
1005.8902	2794.1573	914.75	27
1006.0097	2795.3382	908.45	22.35
1006.1291	2796.5184	906.85	21.1
1006.2485	2797.698	912.65	25.1
1006.3679	2798.8769	911.3	24.85
1006.4873	2800.0551	912.05	25.45
1006.6066	2801.2327	914.1	26.85
1006.7258	2802.4096	909.8	24.5
1006.8451	2803.5859	912.15	23.9
1006.9642	2804.7615	912.4	26.25
1007.0834	2805.9364	909.05	24.8
1007.2025	2807.1106	913.15	29.2
1007.3216	2808.2842	914	27.25
1007.4406	2809.4572	912.3	24.3
1007.5596	2810.6294	914.35	28.4
1007.6785	2811.801	912.35	26.5
1007.7975	2812.972	913.6	29.3
1007.9163	2814.1423	914.4	27.65
1008.0352	2815.3119	918	32.55
1008.154	2816.4808	916	32.45
1008.2727	2817.6491	921.05	34.15
1008.3914	2818.8167	919.1	33.8
1008.5101	2819.9837	925.2	35.1
1008.6288	2821.15	926.05	39.85
1008.7474	2822.3157	927.45	42.3
1008.8659	2823.4807	929.95	44.6
1008.9844	2824.645	933.6	46.05
1009.1029	2825.8086	935.25	51.2
1009.2214	2826.9716	943	55.15
1009.3398	2828.134	943.1	57.25
1009.4581	2829.2957	949.8	63.95
1009.5764	2830.4567	950.75	64.8
1009.6947	2831.617	952.55	66.8
1009.813	2832.7767	951.45	65.8
1009.9312	2833.9358	952.4	67.25
1010.0493	2835.0941	955.25	66.55
1010.1675	2836.2519	952.35	65.95
1010.2855	2837.4089	950.5	63.75
1010.4036	2838.5653	947.9	64.8
1010.5216	2839.7211	942.5	58.05
1010.6396	2840.8761	945.65	59.4
1010.7575	2842.0306	943.05	57.15
1010.8754	2843.1843	942.95	56.15
1010.9932	2844.3374	945.6	58.65
1011.111	2845.4899	944.05	56.15
1011.2288	2846.6417	945.5	59
1011.3465	2847.7928	944.2	59.35
1011.4642	2848.9433	943.8	60
1011.5818	2850.0931	944.1	57.15
1011.6995	2851.2422	948.05	61
1011.817	2852.3907	948.2	59.9
1011.9345	2853.5385	950.7	61.7
1012.052	2854.6857	976.2	61.95
1012.1695	2855.8323	949.1	62.3
1012.2869	2856.9781	949.2	63.5
1012.4042	2858.1233	952.9	67.2
1012.5216	2859.2679	954.65	70
1012.6389	2860.4118	957.3	71.25
1012.7561	2861.555	961.9	72.1
1012.8733	2862.6976	961.95	74.4
1012.9905	2863.8395	961.5	77.3
1013.1076	2864.9808	958.85	71.3
1013.2247	2866.1214	957.35	72.7
1013.3417	2867.2614	958.95	72
1013.4587	2868.4007	961.6	75.05
1013.5757	2869.5393	963.3	75.8
1013.6926	2870.6773	964.95	76.9
1013.8095	2871.8146	968.3	80
1013.9263	2872.9513	968.95	79.5
1014.0431	2874.0874	965.4	79
1014.1599	2875.2227	966.15	79.7
1014.2766	2876.3574	970.8	84.65
1014.3933	2877.4915	969.5	82.85
1014.51	2878.6249	966.4	80.85
1014.6266	2879.7577	972.9	85.6
1014.7431	2880.8898	982.65	88.2
1014.8596	2882.0212	972.2	86.55
1014.9761	2883.152	974.8	88.35
1015.0925	2884.2821	975.4	91.2
1015.2089	2885.4116	972.6	88.7
1015.3253	2886.5405	974.95	88.85
1015.4416	2887.6686	981.75	92.1
1015.5579	2888.7962	971.7	87.05
1015.6741	2889.923	973.85	86.55
1015.7903	2891.0493	978.15	94.45
1015.9065	2892.1748	975.75	87.55
1016.0226	2893.2997	976.7	90.8
1016.1387	2894.424	976.8	92.25
1016.2547	2895.5476	977.95	92.55
1016.3707	2896.6706	975.7	89.95
1016.4866	2897.7929	979.15	92.3
1016.6025	2898.9145	974.7	87.95
1016.7184	2900.0355	973.95	85.55
1016.8342	2901.1559	981.2	92.95
1016.95	2902.2756	980.8	91.65
1017.0658	2903.3946	977.4	92.1
1017.1815	2904.513	982.15	92.8
1017.2971	2905.6308	974.6	88.5
1017.4127	2906.7479	971.85	83.25
1017.5283	2907.8643	974.95	87.1
1017.6439	2908.9801	974.3	86.65
1017.7594	2910.0953	973.85	88.35
1017.8748	2911.2098	977.95	87.5
1017.9902	2912.3236	983.15	87.7
1018.1056	2913.4368	978.2	88.5
1018.2209	2914.5494	974.25	88.1
1018.3362	2915.6613	980.65	88.6
1018.4515	2916.7725	972.7	84.4
1018.5667	2917.8831	971	84.2
1018.6819	2918.9931	970.85	81.25
1018.797	2920.1024	970.85	84.85
1018.9121	2921.211	967.55	82.9
1019.0271	2922.319	965.3	78.6
1019.1421	2923.4264	966.4	80.75
1019.2571	2924.5331	964.2	79.25
1019.372	2925.6391	964.2	77.75
1019.4869	2926.7445	966.4	83.15
1019.6017	2927.8493	965.9	79.75
1019.7165	2928.9534	968.65	82.15
1019.8313	2930.0569	968.35	79.45
1019.946	2931.1597	966.4	78.85
1020.0606	2932.2619	967.45	80.75
1020.1753	2933.3634	966.25	79.45
1020.2899	2934.4643	974.65	82.5
1020.4044	2935.5645	978.5	87.9
1020.5189	2936.6641	975.55	86
1020.6334	2937.763	970.1	84.15
1020.7478	2938.8613	968.5	81.65
1020.8622	2939.959	972.85	81.7
1020.9765	2941.056	965.75	79.5
1021.0908	2942.1523	965.55	77.4
1021.2051	2943.248	959.75	72.95
1021.3193	2944.3431	958.2	72.35
1021.4334	2945.4375	956.45	70.2
1021.5476	2946.5313	949.05	63.95
1021.6617	2947.6244	948.2	60.45
1021.7757	2948.7169	945.5	59.5
1021.8897	2949.8087	939.35	54.25
1022.0037	2950.8999	939.95	54.85
1022.1176	2951.9904	935.95	49.1
1022.2315	2953.0803	934.85	49
1022.3453	2954.1696	933.4	47.9
1022.4591	2955.2582	930.1	42.7
1022.5728	2956.3462	930.65	43.2
1022.6865	2957.4335	931.15	43.85
1022.8002	2958.5202	929.95	40
1022.9138	2959.6062	927.8	40.7
1023.0274	2960.6916	927.5	43.65
1023.141	2961.7764	928.05	42.2
1023.2545	2962.8605	930.15	43.6
1023.3679	2963.9439	926.7	41.85
1023.4813	2965.0267	928.55	42.2
1023.5947	2966.1089	948.65	38.05
1023.708	2967.1905	925.75	39.65
1023.8213	2968.2714	927.35	41.8
1023.9346	2969.3516	927.55	41.85
1024.0478	2970.4312	933.15	39.85
1024.1609	2971.5102	924.55	37.5
1024.274	2972.5885	923.7	37.7
1024.3871	2973.6662	932.7	41.3
1024.5002	2974.7432	925.95	39.7
1024.6132	2975.8196	927.35	40
1024.7261	2976.8954	928.4	43.05
1024.839	2977.9705	925.45	38.6
1024.9519	2979.045	928.65	41.95
1025.0647	2980.1188	926.65	39.9
1025.1775	2981.192	923.95	38.1
1025.2902	2982.2645	926.9	41.95
1025.4029	2983.3364	925.55	40.45
1025.5156	2984.4077	923.5	37.5
1025.6282	2985.4783	928.45	36.3
1025.7407	2986.5483	923	37.25
1025.8532	2987.6177	920.25	36
1025.9657	2988.6864	921.15	33.45
1026.0782	2989.7545	917.85	31.65
1026.1906	2990.8219	917.05	30.9
1026.3029	2991.8887	918.15	29.8
1026.4152	2992.9548	913.85	28.35
1026.5275	2994.0204	912.9	28.7
1026.6397	2995.0852	911.3	27.9
1026.7519	2996.1495	912.85	25.65
1026.864	2997.2131	911.75	27
1026.9761	2998.276	909.15	22.45
1027.0882	2999.3383	909.2	20.1
1027.2002	3000.4	908.6	20.65
1027.3122	3001.4611	905.3	17.7
1027.4241	3002.5215	906.2	19
1027.536	3003.5812	903.5	17.85
1027.6478	3004.6404	904.35	17.4
1027.7596	3005.6989	907.55	20.65
1027.8714	3006.7567	902.3	16.05
1027.9831	3007.8139	936.8	19.45
1028.0947	3008.8705	903.9	16.8
1028.2064	3009.9264	920.15	17.9
1028.3179	3010.9818	904.1	18.95
1028.4295	3012.0364	903.7	19.25
1028.541	3013.0905	901.7	15.6
1028.6524	3014.1439	901.65	17.55
1028.7638	3015.1966	900.45	14.1
1028.8752	3016.2487	900.85	15
1028.9865	3017.3002	907.25	15.1
1029.0978	3018.3511	901.15	17.3
1029.209	3019.4013	901.3	14
1029.3202	3020.4509	901.2	13.3
1029.4314	3021.4998	900.05	14.15
1029.5425	3022.5481	900.75	15.7
1029.6535	3023.5958	899.65	15.25
1029.7645	3024.6428	903.15	16.25
1029.8755	3025.6892	900.15	15.2
1029.9864	3026.735	899.9	14.55
1030.0973	3027.7802	901.1	13.8
1030.2082	3028.8247	898.2	14
1030.319	3029.8685	902.5	16.75
1030.4297	3030.9118	902.45	16
1030.5404	3031.9544	899.8	12.95
1030.6511	3032.9963	900.8	13.2
1030.7617	3034.0376	900.5	15.8
1030.8723	3035.0783	901.4	14.15
1030.9829	3036.1184	901.25	14.2
1031.0934	3037.1578	898.85	13
1031.2038	3038.1966	899.85	13.55
1031.3142	3039.2348	899.9	14.1
1031.4246	3040.2723	909.35	16.55
1031.5349	3041.3092	899.6	14.75
1031.6452	3042.3455	900.65	15.05
1031.7554	3043.3811	899.65	12.9
1031.8656	3044.4161	902.6	16.5
1031.9758	3045.4505	899	13.9
1032.0859	3046.4842	900.75	15.45
1032.1959	3047.5173	901.05	16.5
1032.3059	3048.5498	901.7	15.7
1032.4159	3049.5816	900.75	13.75
1032.5258	3050.6128	899.95	11.7
1032.6357	3051.6434	901.6	15.45
1032.7455	3052.6734	903.75	18.15
1032.8553	3053.7027	901.95	16.4
1032.9651	3054.7314	898.65	12.1
1033.0748	3055.7594	900.85	15.9
1033.1845	3056.7868	902.15	16.15
1033.2941	3057.8136	899.75	15.1
1033.4037	3058.8398	899.7	14.15
1033.5132	3059.8653	901.1	15.75
1033.6227	3060.8902	901.9	17.5
1033.7321	3061.9145	900.95	15.25
1033.8415	3062.9381	902.15	17.45
1033.9509	3063.9612	917.85	14.75
1034.0602	3064.9835	901.15	13.65
1034.1694	3066.0053	902.35	14.35
1034.2787	3067.0264	900.55	16.65
1034.3878	3068.0469	903	16.85
1034.497	3069.0668	905.1	16.25
1034.6061	3070.086	898.15	12.05
1034.7151	3071.1046	902.4	13.85
1034.8241	3072.1226	902.3	15.7
1034.9331	3073.1399	900.15	13.6
1035.042	3074.1567	900.85	15.2
1035.1508	3075.1727	903.65	14.95
1035.2597	3076.1882	901	14.9
1035.3684	3077.203	898.9	13.3
1035.4772	3078.2173	899.2	11.15
1035.5859	3079.2308	902.7	13.4
1035.6945	3080.2438	899.85	12.1
1035.8031	3081.2561	898.15	12.35
1035.9117	3082.2678	898.05	14.5
1036.0202	3083.2789	898.4	12.4
1036.1286	3084.2893	896.4	10.15
1036.2371	3085.2991	898.1	14.9
1036.3454	3086.3083	901.05	9.9
1036.4538	3087.3169	899.95	13
1036.562	3088.3248	899.45	10.5
1036.6703	3089.3321	899.6	12.8
1036.7785	3090.3388	894.3	9.35
1036.8866	3091.3449	896.8	9.6
1036.9948	3092.3503	899.4	13.3
1037.1028	3093.3551	894.35	11.1
1037.2108	3094.3593	896.45	12.25
1037.3188	3095.3629	898	13.35
1037.4267	3096.3658	897.3	10.05
1037.5346	3097.3681	895.95	11.05
1037.6425	3098.3698	897.6	9.9
1037.7503	3099.3708	896.45	12.7
1037.858	3100.3713	894.65	8.05
1037.9657	3101.3711	896.8	10.15
1038.0734	3102.3702	1036.75	12.8
1038.181	3103.3688	898.7	11.15
1038.2886	3104.3667	893.4	7.55
1038.3961	3105.364	892.75	7.3
1038.5036	3106.3607	897.6	10.65
1038.611	3107.3568	896.1	8.45
1038.7184	3108.3522	894.3	9.95
1038.8257	3109.347	897.4	11.65
1038.933	3110.3412	899.35	6
1039.0403	3111.3348	895.5	8.6
1039.1475	3112.3277	893.25	7.1
1039.2547	3113.32	893	8.4
1039.3618	3114.3117	896.45	10.25
1039.4689	3115.3028	894.75	7.85
1039.5759	3116.2932	895.85	8
1039.6829	3117.2831	901.75	12.1
1039.7898	3118.2723	895.8	10.7
1039.8967	3119.2608	895.7	8.95
1040.0035	3120.2488	894.05	8.8
1040.1103	3121.2361	894.3	9.35
1040.2171	3122.2229	893.4	7.95
1040.3238	3123.209	897.1	9.75
1040.4305	3124.1944	892.2	5.95
1040.5371	3125.1793	895.05	7.6
1040.6437	3126.1635	892.4	7.1
1040.7502	3127.1471	890.5	4.75
1040.8567	3128.1301	892	6.45
1040.9631	3129.1125	891.65	6.25
1041.0695	3130.0942	892.95	4.95
1041.1759	3131.0753	902.9	8.55
1041.2822	3132.0558	895.1	4.85
1041.3884	3133.0357	893.75	6.9
1041.4946	3134.015	893.55	8.25
1041.6008	3134.9936	893.9	7.45
1041.7069	3135.9716	916.55	8
1041.813	3136.949	892.1	6.75
1041.919	3137.9258	911	8
1042.025	3138.902	898	6.8
1042.1309	3139.8775	892.55	7.5
1042.2368	3140.8524	893.9	7.85
1042.3427	3141.8267	893.4	7.75
1042.4485	3142.8004	894.05	6.8
1042.5542	3143.7735	899.95	7.5
1042.6599	3144.7459	895.1	6.9
1042.7656	3145.7178	893.6	8.65
1042.8712	3146.689	891.15	6.7
1042.9768	3147.6596	892.15	4.2
1043.0823	3148.6295	892.7	7.35
1043.1878	3149.5989	893.55	8.15
1043.2932	3150.5676	891.7	5.8
1043.3986	3151.5357	891.1	6.55
1043.5039	3152.5032	892.65	6.85
1043.6092	3153.4701	893.1	8.6
1043.7145	3154.4364	895.3	7.45
1043.8197	3155.402	891.95	5.55
1043.9248	3156.367	891.9	4.25
1044.03	3157.3315	910.7	6.3
1044.135	3158.2952	893.2	5.8
1044.24	3159.2584	890.6	4.45
1044.345	3160.221	891.05	3.45
1044.4499	3161.1829	893.3	8.5
1044.5548	3162.1442	890.1	4.7
1044.6596	3163.105	892.3	5.35
1044.7644	3164.065	892.05	5.25
1044.8692	3165.0245	895.7	5.5
1044.9739	3165.9834	892.4	7.55
1045.0785	3166.9416	892.25	4.05
1045.1831	3167.8993	892.45	5.35
1045.2877	3168.8563	893.1	6.7
1045.3922	3169.8127	892.95	6.85
1045.4966	3170.7684	892.65	8.6
1045.6011	3171.7236	894.65	6.15
1045.7054	3172.6782	891.25	4.6
1045.8098	3173.6321	892.35	5.2
1045.914	3174.5854	894.3	4.35
1046.0183	3175.5381	891.5	5.3
1046.1224	3176.4902	890.35	5.55
1046.2266	3177.4417	890.5	5.55
1046.3307	3178.3926	889.5	4.35
1046.4347	3179.3428	890.65	4.7
1046.5387	3180.2924	891.35	5.85
1046.6427	3181.2415	892.75	5.6
1046.7466	3182.1899	892.05	3.45
1046.8504	3183.1377	890.65	6.15
1046.9542	3184.0848	892.3	2.7
1047.058	3185.0314	891.2	5.9
1047.1617	3185.9773	891.55	3.95
1047.2654	3186.9227	892.45	6.3
1047.369	3187.8674	892.9	7.9
1047.4726	3188.8115	894.85	4.85
1047.5761	3189.755	890.45	5.1
1047.6796	3190.6979	890.4	4.3
1047.783	3191.6402	889.9	4.85
1047.8864	3192.5818	891.75	4.6
1047.9898	3193.5229	896.95	4.75
1048.0931	3194.4633	891.55	6.2
1048.1963	3195.4031	890.7	2.65
1048.2995	3196.3423	891.75	5.2
1048.4027	3197.2809	889.65	2.75
1048.5058	3198.2189	892.15	5.4
1048.6089	3199.1563	898.45	7
1048.7119	3200.0931	889.3	2.4
1048.8148	3201.0292	890.7	5.95
1048.9178	3201.9648	889.55	4.65
1049.0206	3202.8997	893.9	4.5
1049.1235	3203.834	891.7	6.1
1049.2262	3204.7677	888	1.6
1049.329	3205.7008	894.95	6.95
1049.4317	3206.6333	890.85	5.3
1049.5343	3207.5652	893.2	2.8
1049.6369	3208.4964	892	6.85
1049.7394	3209.4271	889	5.05
1049.8419	3210.3571	889.15	3.35
1049.9444	3211.2865	890.55	4.4
1050.0468	3212.2154	890.1	2.9
1050.1491	3213.1436	894.3	5.7
1050.2514	3214.0712	898.15	5.1
1050.3537	3214.9982	890.75	3.1
1050.4559	3215.9246	890.9	6.2
1050.5581	3216.8503	888.8	4.85
1050.6602	3217.7755	889.9	8.05
1050.7623	3218.7001	888.5	3.4
1050.8643	3219.624	889.4	3.1
1050.9663	3220.5473	890.7	5.45
1051.0682	3221.4701	890.85	4.4
1051.1701	3222.3922	892.85	4.2
1051.2719	3223.3137	892	7.65
1051.3737	3224.2346	891.45	4.9
1051.4754	3225.1549	889.4	4.95
1051.5771	3226.0746	889.2	2.8
1051.6788	3226.9937	890.8	4.4
1051.7804	3227.9121	888.4	4.75
1051.8819	3228.83	889.15	4.7
1051.9834	3229.7473	890.5	5.35
1052.0849	3230.6639	892.15	4.85
1052.1863	3231.5799	889.1	2.05
1052.2876	3232.4954	892.1	5.15
1052.3889	3233.4102	890	3.2
1052.4902	3234.3244	890.85	4
1052.5914	3235.238	888.1	2.85
1052.6926	3236.151	914.7	3.8
1052.7937	3237.0634	890.95	7.2
1052.8948	3237.9752	889.05	2.15
1052.9958	3238.8864	890.2	2.25
1053.0968	3239.797	889.15	3.85
1053.1977	3240.7069	891.1	3.3
1053.2986	3241.6163	891.8	1.95
1053.3994	3242.5251	887.7	3.25
1053.5002	3243.4332	890	4.55
1053.6009	3244.3408	888.2	1.65
1053.7016	3245.2477	889.65	4.95
1053.8022	3246.154	890.75	4.1
1053.9028	3247.0598	890.6	4.5
1054.0034	3247.9649	891.1	4.3
1054.1039	3248.8694	889.65	2.7
1054.2043	3249.7733	888.1	3.1
1054.3047	3250.6766	891	4.6
1054.4051	3251.5793	889.6	2.8
1054.5054	3252.4814	890.05	3.2
1054.6056	3253.3829	890	5.55
1054.7058	3254.2838	889.8	3.6
1054.806	3255.1841	889.45	4.5
1054.9061	3256.0838	887.75	-0.05
1055.0061	3256.9829	888.8	3.2
1055.1062	3257.8814	892.85	3.8
1055.2061	3258.7792	891.7	3.95
1055.306	3259.6765	888.5	1.05
1055.4059	3260.5731	889.8	3.4
1055.5057	3261.4692	890.05	4.5
1055.6055	3262.3647	890.2	5.2
1055.7052	3263.2595	890.5	4.35
1055.8049	3264.1538	888.95	2.75
1055.9045	3265.0474	890.3	5
1056.0041	3265.9404	887.6	1.1
1056.1036	3266.8329	888.35	3.4
1056.2031	3267.7247	898.6	2.2
1056.3025	3268.616	888.55	3.35
1056.4019	3269.5066	888.1	2.2
1056.5013	3270.3966	890.35	2.5
1056.6005	3271.286	890	5
