Software Version:	3.9.2.0
Unit SN:	10000200
Spectrometer SN:	6960
Date:	3/14/2024 12:25:43 PM
Data Line Index:	25
Spectral Points:	2048
Integration time (ms):	125
Averages:	20
Delay (ms):	30000
Sequence Number:	1
Processing:	dark subtract
Laser Power (mW):	300
Laser Current (mA):	809
Laser Diode Temp (C):	25
Laser Case Temp (C):	25.2
System Temp (C):	25.1
Spectrometer Temp (C):	23
CCD Temp (C):	-0.005
Secondary Temp (C):	20.008
Heatsink Temp (C):	22.295
CCDPCB Temp (C):	36.251
SecondaryPCB Temp (C):	30.693

Wavelength	RamanShift	Raw Counts	Dark Subtracted
787.061	30.1047	424.2	10
787.2016	32.3739	424.55	12.45
787.3422	34.6426	426.05	12.15
787.4828	36.9109	427.55	12.05
787.6235	39.1787	431.55	13.85
787.7642	41.4461	439.05	15.55
787.9049	43.7131	444.05	18
788.0456	45.9796	448.85	19.75
788.1863	48.2456	453.35	19.45
788.3271	50.5112	460	22.9
788.4679	52.7764	463.4	22.75
788.6087	55.0411	470.15	25.8
788.7496	57.3054	476.25	25.65
788.8904	59.5692	478.1	29.1
789.0313	61.8326	482.8	30.95
789.1722	64.0955	492.45	35.2
789.3132	66.3579	498.45	36.85
789.4541	68.6199	506.9	40.9
789.5951	70.8815	522.5	55.7
789.7361	73.1426	550.9	81.2
789.8771	75.4032	614.25	139.7
790.0181	77.6634	768.65	291.05
790.1592	79.9231	1134.6	650.65
790.3003	82.1824	1865.5	1378.8
790.4414	84.4412	3111.6	2621.65
790.5825	86.6995	4767.55	4272.3
790.7237	88.9574	6414	5915.55
790.8648	91.2148	7529.3	7029.95
791.006	93.4717	8077.35	7574.15
791.1472	95.7282	8199.65	7695.2
791.2885	97.9842	8159.95	7651.65
791.4297	100.2398	8026.95	7516.45
791.571	102.4949	7904.9	7390.65
791.7123	104.7495	7782.75	7264.45
791.8536	107.0036	7655.15	7137.15
791.9949	109.2573	7498.45	6981.65
792.1363	111.5105	7305.45	6784.6
792.2777	113.7632	7093.1	6570.7
792.4191	116.0154	6836.45	6303.35
792.5605	118.2672	6566.95	6040.2
792.7019	120.5185	6256.4	5730.2
792.8434	122.7693	5962.7	5432.5
792.9849	125.0197	5713.5	5180.4
793.1264	127.2696	5471.1	4936.4
793.2679	129.519	5322.65	4786.5
793.4094	131.7679	5191.35	4653
793.551	134.0163	5125.9	4582.35
793.6926	136.2642	5083.8	4536.6
793.8342	138.5117	5074.9	4523.05
793.9758	140.7587	5035.1	4484.05
794.1175	143.0052	4949.4	4394.2
794.2591	145.2512	4790.75	4236.1
794.4008	147.4967	4643.55	4086.95
794.5425	149.7417	4504.4	3943.95
794.6842	151.9863	4401.1	3836.85
794.826	154.2304	4346.65	3778.75
794.9677	156.4739	4316.75	3742.65
795.1095	158.717	4349.3	3777.3
795.2513	160.9596	4417.15	3839.75
795.3931	163.2017	4507.95	3929.2
795.535	165.4433	4563.75	3983.55
795.6768	167.6844	4583.15	4001.05
795.8187	169.925	4527.15	3942.1
795.9606	172.1651	4386.3	3796.35
796.1025	174.4047	4240.75	3648.5
796.2445	176.6439	4112.85	3517.1
796.3864	178.8825	4015.25	3416.55
796.5284	181.1206	3949.25	3348.1
796.6704	183.3582	3916.9	3312.2
796.8124	185.5954	3887.15	3281.45
796.9544	187.832	3866.95	3257.85
797.0965	190.0681	3865.75	3255.4
797.2386	192.3037	3888.15	3271.65
797.3806	194.5388	3891.7	3274
797.5228	196.7734	3888.75	3267.25
797.6649	199.0075	3924.4	3299.75
797.807	201.2411	4006	3379.4
797.9492	203.4742	4051.55	3423.45
798.0914	205.7068	4108.45	3479.95
798.2336	207.9389	4179.3	3550.7
798.3758	210.1704	4214.4	3583.95
798.518	212.4015	4238.7	3602.7
798.6603	214.632	4241.9	3607.2
798.8025	216.862	4238.2	3607.15
798.9448	219.0915	4236.9	3611.4
799.0871	221.3205	4271.1	3649.3
799.2294	223.549	4304.55	3686.45
799.3718	225.777	4306.55	3688.6
799.5141	228.0044	4307.95	3687.15
799.6565	230.2314	4287.6	3670.45
799.7989	232.4578	4233.5	3615.9
799.9413	234.6837	4212.25	3586.9
800.0837	236.909	4165.7	3538.25
800.2262	239.1339	4140.35	3487.95
800.3687	241.3582	4093.2	3455.45
800.5111	243.582	4120.55	3455.85
800.6536	245.8053	4119.45	3464
800.7961	248.0281	4107	3455.7
800.9387	250.2503	4142.5	3487.1
801.0812	252.472	4146.9	3486.9
801.2238	254.6932	4182.7	3520.35
801.3664	256.9139	4187.2	3519.65
801.509	259.134	4207.35	3537.7
801.6516	261.3536	4256	3589.15
801.7942	263.5727	4351.55	3683.55
801.9369	265.7912	4462.55	3793.25
802.0795	268.0092	4637.95	3966.3
802.2222	270.2267	4819.8	4147.75
802.3649	272.4436	4946.85	4274.9
802.5076	274.6601	5066.7	4381.85
802.6504	276.8759	5099.9	4421.95
802.7931	279.0913	5189.95	4512.65
802.9359	281.3061	5253.45	4575.55
803.0787	283.5204	5310.45	4627.05
803.2215	285.7341	5379.1	4693.95
803.3643	287.9473	5473.8	4786.35
803.5071	290.16	5479.7	4787.1
803.6499	292.3721	5356.6	4669.85
803.7928	294.5837	5200.85	4513.05
803.9357	296.7947	5067.25	4379.7
804.0786	299.0052	4991.8	4302.3
804.2215	301.2152	4946.4	4252.05
804.3644	303.4246	4918.25	4228.5
804.5074	305.6334	4909.9	4220.5
804.6503	307.8418	4899.2	4205.1
804.7933	310.0495	4843.7	4148.9
804.9363	312.2568	4752.4	4060.7
805.0793	314.4635	4640.15	3942.9
805.2223	316.6696	4490.45	3791.5
805.3653	318.8752	4340.95	3634.5
805.5084	321.0802	4244.35	3546.15
805.6514	323.2847	4219.15	3518.8
805.7945	325.4887	4202.6	3502.4
805.9376	327.692	4253.55	3549.55
806.0807	329.8949	4384.95	3683.6
806.2238	332.0972	4540.9	3836.9
806.367	334.2989	4662.6	3953.65
806.5101	336.5001	4700.45	3991.45
806.6533	338.7007	4642.45	3933.9
806.7965	340.9008	4489.6	3779
806.9397	343.1003	4289.2	3575.3
807.0829	345.2992	4118	3403.75
807.2261	347.4976	3968	3252.3
807.3693	349.6955	3867.5	3146.4
807.5126	351.8927	3794.05	3072.3
807.6559	354.0895	3756.05	3023.55
807.7991	356.2856	3724.45	3003.65
807.9424	358.4812	3692.7	2970.85
808.0857	360.6763	3676.6	2952.05
808.2291	362.8707	3631.2	2907.35
808.3724	365.0646	3634.7	2907.55
808.5158	367.258	3660.5	2930.55
808.6591	369.4508	3694.7	2964
808.8025	371.643	3797.4	3065.45
808.9459	373.8346	3890.5	3155.6
809.0893	376.0257	4019.6	3281.65
809.2327	378.2162	4119.25	3379.55
809.3762	380.4062	4176.45	3435.4
809.5196	382.5956	4129.5	3384.35
809.6631	384.7844	4024.4	3281.65
809.8066	386.9726	3867	3121.85
809.9501	389.1603	3767.15	3020.35
810.0936	391.3474	3721.4	2943.4
810.2371	393.5339	3695.85	2949.8
810.3806	395.7199	3692.8	2950.4
810.5241	397.9052	3774.6	3033.6
810.6677	400.09	3909.35	3169.65
810.8113	402.2743	4067.65	3330.8
810.9548	404.4579	4151.85	3415.25
811.0984	406.641	4259.35	3520.65
811.2421	408.8235	4393.25	3652.25
811.3857	411.0054	4506.65	3764.55
811.5293	413.1868	4597.35	3853.5
811.673	415.3675	4647.1	3901.8
811.8166	417.5477	4616.8	3871.5
811.9603	419.7273	4568.15	3818
812.104	421.9064	4455.8	3699.55
812.2477	424.0848	4294.85	3541.75
812.3914	426.2627	4112.5	3354.15
812.5351	428.4399	3921.8	3163.35
812.6788	430.6166	3756.15	2994.65
812.8226	432.7928	3629.3	2867.35
812.9663	434.9683	3518.4	2755.9
813.1101	437.1432	3446.85	2681.55
813.2539	439.3176	3406.8	2641.65
813.3977	441.4914	3362.6	2598.95
813.5415	443.6645	3352.7	2583.3
813.6853	445.8371	3339.75	2571.65
813.8291	448.0091	3337	2570.05
813.973	450.1806	3339.55	2569.8
814.1168	452.3514	3349.4	2578.2
814.2607	454.5216	3366.4	2587.55
814.4046	456.6913	3364	2589.35
814.5485	458.8603	3390.7	2616.9
814.6924	461.0288	3401.85	2628
814.8363	463.1967	3396	2621.45
814.9802	465.3639	3396.45	2620.1
815.1241	467.5306	3379.45	2603.5
815.2681	469.6967	3357.15	2581.95
815.412	471.8622	3337.3	2559.95
815.556	474.0271	3335.05	2557.7
815.7	476.1914	3328.55	2549.6
815.844	478.3551	3319.65	2538.25
815.988	480.5182	3312.35	2533.1
816.132	482.6807	3326.65	2544.95
816.276	484.8426	3376.55	2595.65
816.4201	487.0039	3488.45	2706.55
816.5641	489.1647	3672.7	2888.95
816.7082	491.3248	3809.9	3028
816.8522	493.4843	3855.75	3072.5
816.9963	495.6432	3852.4	3069.95
817.1404	497.8015	3756.05	2970.7
817.2845	499.9592	3630.35	2844.75
817.4286	502.1163	3461.9	2676.25
817.5727	504.2728	3324	2537.2
817.7168	506.4287	3256.2	2469.5
817.861	508.5839	3212.25	2425.3
818.0051	510.7386	3177.75	2390.1
818.1493	512.8927	3192.15	2396.35
818.2935	515.0461	3200.25	2411.5
818.4377	517.199	3240.7	2450.35
818.5818	519.3512	3371.75	2582.5
818.726	521.5029	3579.8	2783.25
818.8703	523.6539	3786.5	2992.7
819.0145	525.8043	3817	3023.9
819.1587	527.9541	3699.15	2904.65
819.303	530.1033	3474.85	2680.95
819.4472	532.2519	3303.75	2508
819.5915	534.3999	3230.5	2433.35
819.7357	536.5472	3190.2	2393.35
819.88	538.694	3204.15	2408.15
820.0243	540.8401	3235.05	2438.5
820.1686	542.9856	3300.85	2502.3
820.3129	545.1305	3351.7	2552.6
820.4572	547.2748	3410	2611.05
820.6016	549.4185	3411.65	2610.15
820.7459	551.5615	3421.45	2619.1
820.8902	553.704	3473.8	2671.7
821.0346	555.8458	3527.9	2726.4
821.1789	557.987	3588.65	2787.8
821.3233	560.1276	3684.5	2880.45
821.4677	562.2675	3895.2	3094.25
821.6121	564.4069	4152.45	3348.6
821.7565	566.5456	4314.85	3511.9
821.9009	568.6837	4263.05	3458.75
822.0453	570.8212	3977.2	3172.7
822.1897	572.958	3658.2	2854.45
822.3342	575.0942	3460.55	2655.95
822.4786	577.2299	3339.25	2533.3
822.6231	579.3648	3276.5	2469.1
822.7675	581.4992	3258.1	2450.65
822.912	583.6329	3288.7	2482.95
823.0565	585.766	3375.45	2569.95
823.201	587.8985	3513.55	2707.75
823.3454	590.0304	3693	2860.4
823.4899	592.1616	3811.65	3000.15
823.6345	594.2922	3870.05	3061.9
823.779	596.4222	3778.15	2967.1
823.9235	598.5515	3622.35	2811.9
824.068	600.6802	3418.3	2608.3
824.2126	602.8083	3270.6	2457.65
824.3571	604.9358	3216.6	2402.2
824.5017	607.0626	3196.1	2383.35
824.6462	609.1888	3210.3	2395.05
824.7908	611.3144	3270.45	2455.6
824.9354	613.4393	3384.8	2570.6
825.08	615.5636	3558.65	2744.05
825.2246	617.6873	3735.05	2919.5
825.3692	619.8103	3839.3	3020.7
825.5138	621.9327	3883.65	3064.9
825.6584	624.0544	3802.7	2987.45
825.803	626.1756	3604.05	2787.35
825.9477	628.2961	3421.7	2604.85
826.0923	630.4159	3321.5	2502.8
826.237	632.5351	3297.45	2481.75
826.3816	634.6537	3275.1	2456.4
826.5263	636.7716	3260.55	2439.05
826.6709	638.8889	3235.6	2415.8
826.8156	641.0056	3270.5	2451.05
826.9603	643.1216	3320.3	2498.25
827.105	645.237	3354.75	2531.3
827.2497	647.3518	3296.6	2474.4
827.3944	649.4659	3205.5	2382.2
827.5391	651.5793	3132.5	2307.65
827.6838	653.6922	3091	2268.4
827.8285	655.8043	3052.15	2229.25
827.9733	657.9159	3019.1	2193.7
828.118	660.0268	2987.75	2160.95
828.2627	662.137	2982.75	2156.95
828.4075	664.2466	2999.9	2174.5
828.5522	666.3556	2998.05	2174.5
828.697	668.4639	2981.6	2152
828.8418	670.5716	2963.3	2135.95
828.9865	672.6786	2940.95	2112.05
829.1313	674.785	2914.25	2085.7
829.2761	676.8907	2907.2	2078.8
829.4209	678.9958	2918.55	2090.6
829.5657	681.1002	2913.45	2084.3
829.7105	683.204	2929.45	2097.05
829.8553	685.3072	2940.05	2109.3
830.0001	687.4097	2932.75	2103.5
830.1449	689.5115	2927.5	2095.7
830.2898	691.6127	2931.15	2101.5
830.4346	693.7132	2906.45	2075.7
830.5794	695.8131	2911.6	2064.6
830.7243	697.9123	2912.05	2077.85
830.8691	700.0109	2927.55	2094.6
831.014	702.1089	2960.3	2129.35
831.1588	704.2061	2998.1	2165.1
831.3037	706.3028	3065.45	2229.8
831.4486	708.3987	3161.85	2325.4
831.5935	710.4941	3213.2	2377.85
831.7383	712.5887	3230.95	2395.2
831.8832	714.6827	3220.9	2381.45
832.0281	716.7761	3178.6	2342.5
832.173	718.8688	3159.4	2322.15
832.3179	720.9608	3164.45	2325.35
832.4628	723.0522	3180.2	2341.9
832.6077	725.1429	3243.4	2406.75
832.7527	727.233	3336.85	2499.1
832.8976	729.3224	3527.85	2690.7
833.0425	731.4112	3715	2874.9
833.1874	733.4993	3806.5	2964.95
833.3324	735.5867	3694.35	2856.4
833.4773	737.6735	3459.4	2620.1
833.6222	739.7596	3245.4	2406.5
833.7672	741.845	3113.05	2271.85
833.9122	743.9298	3044.75	2202.85
834.0571	746.014	3042.95	2203.65
834.2021	748.0974	3057.05	2215.6
834.347	750.1802	3047.05	2203.8
834.492	752.2624	3059.4	2219.35
834.637	754.3439	3040.15	2195.8
834.782	756.4247	3052.65	2199.1
834.9269	758.5048	3074.25	2231.6
835.0719	760.5843	3132	2290.3
835.2169	762.6631	3240.55	2395.7
835.3619	764.7413	3398.9	2556.9
835.5069	766.8188	3659.75	2814.8
835.6519	768.8956	3951.8	3105.45
835.7969	770.9718	4161.75	3318.8
835.9419	773.0473	4142.55	3298.1
836.0869	775.1221	4020.25	3177.2
836.232	777.1962	3959.9	3116.2
836.377	779.2697	4120.35	3274.05
836.522	781.3426	4498.65	3643.1
836.667	783.4147	4792.75	3944.9
836.8121	785.4862	4812.2	3966.05
836.9571	787.557	4561.75	3715.15
837.1021	789.6271	4167.7	3321.1
837.2472	791.6966	3727.2	2880.6
837.3922	793.7654	3393.7	2544.75
837.5373	795.8335	3176.1	2328.9
837.6823	797.901	3057.85	2211.55
837.8274	799.9678	3015.15	2163.55
837.9724	802.0339	3021.85	2175.8
838.1175	804.0993	3057	2197.75
838.2626	806.1641	3040.2	2190.15
838.4076	808.2282	3007.7	2161.25
838.5527	810.2916	2957.25	2104.35
838.6978	812.3544	2888.05	2040.85
838.8428	814.4164	2875.35	2027.2
838.9879	816.4778	2890.7	2040.2
839.133	818.5385	2930.95	2080.75
839.2781	820.5986	3024.05	2173.1
839.4232	822.658	3203.9	2353.85
839.5682	824.7166	3410.75	2561.3
839.7133	826.7747	3665.1	2813.2
839.8584	828.832	3906.65	3055.2
840.0035	830.8886	4103.3	3249.3
840.1486	832.9446	4242.85	3389.4
840.2937	834.9999	4177.2	3326.15
840.4388	837.0545	3971.15	3115.45
840.5839	839.1085	3695.3	2842.2
840.729	841.1618	3425.25	2570.05
840.8741	843.2143	3240.8	2388.9
841.0192	845.2662	3123.8	2272.6
841.1643	847.3175	3061.5	2210.85
841.3095	849.368	3023.35	2171.55
841.4546	851.4179	3009	2155.9
841.5997	853.467	3015.15	2162.25
841.7448	855.5155	3034.2	2180
841.8899	857.5633	3063.7	2210.25
842.0351	859.6105	3048	2193.9
842.1802	861.6569	3001.65	2148.55
842.3253	863.7027	2950.15	2095.6
842.4704	865.7478	2923.3	2070.55
842.6156	867.7922	2871.5	2017.4
842.7607	869.8359	2835.35	1978.3
842.9058	871.8789	2820.4	1965.2
843.0509	873.9212	2857.8	1967.35
843.1961	875.9629	2848.35	1992.05
843.3412	878.0039	2881.8	2025.1
843.4863	880.0441	2906.85	2050.15
843.6315	882.0837	2971.85	2114.35
843.7766	884.1226	3032.4	2173.55
843.9218	886.1609	3143.35	2286.85
844.0669	888.1984	3307.4	2451.35
844.212	890.2352	3481.6	2625.8
844.3572	892.2714	3546.35	2686.05
844.5023	894.3069	3473.05	2614.6
844.6475	896.3416	3302.85	2444.6
844.7926	898.3757	3148.2	2289
844.9377	900.4091	3058.95	2200.6
845.0829	902.4418	3059.75	2197.6
845.228	904.4739	3131.35	2271.15
845.3732	906.5052	3223.7	2365.9
845.5183	908.5358	3232.35	2374
845.6635	910.5658	3186.55	2325.55
845.8086	912.595	3073.75	2213.7
845.9538	914.6236	2955.65	2098.7
846.0989	916.6515	2860.45	2002.5
846.2441	918.6786	2792.3	1931.3
846.3892	920.7051	2768	1907.6
846.5344	922.7309	2757.9	1896.95
846.6795	924.756	2746.35	1885.95
846.8246	926.7804	2784.85	1921.6
846.9698	928.8041	2819.95	1956
847.1149	930.8272	2877.55	2014.7
847.2601	932.8495	2916.2	2053.4
847.4052	934.8711	2936.45	2074.45
847.5504	936.892	2970.1	2107.5
847.6955	938.9123	3006.05	2143.2
847.8407	940.9318	3123.15	2260.15
847.9858	942.9506	3187.6	2324.7
848.131	944.9688	3171.2	2307.75
848.2761	946.9862	3123.35	2259.7
848.4213	949.003	3009.65	2147.9
848.5664	951.019	2942.9	2078.5
848.7115	953.0344	2865.6	2002.3
848.8567	955.0491	2823.65	1959.55
849.0018	957.063	2792	1929.6
849.147	959.0763	2773.5	1911.35
849.2921	961.0888	2763.1	1896.15
849.4373	963.1007	2774.95	1911.95
849.5824	965.1119	2736.7	1873.15
849.7275	967.1223	2703.05	1838.15
849.8727	969.1321	2688	1824.85
850.0178	971.1412	2680.9	1816.3
850.1629	973.1495	2664.25	1798.9
850.3081	975.1572	2703.1	1790.8
850.4532	977.1641	2675.95	1810.2
850.5983	979.1704	2678.15	1811.85
850.7435	981.1759	2681.9	1814
850.8886	983.1808	2654.85	1788.6
851.0337	985.1849	2643	1767.05
851.1788	987.1884	2615.15	1746.95
851.324	989.1911	2626.15	1758
851.4691	991.1932	2648.85	1782.25
851.6142	993.1945	2667.75	1802.05
851.7593	995.1951	2675.55	1809.45
851.9045	997.1951	2680.3	1808.2
852.0496	999.1943	2650.5	1786.15
852.1947	1001.1928	2651.05	1782.65
852.3398	1003.1906	2688.2	1821.5
852.4849	1005.1877	2779.25	1910.1
852.63	1007.1841	2861.15	1993.25
852.7751	1009.1798	2910.85	2044.6
852.9202	1011.1748	2915.85	2048.4
853.0653	1013.1691	2838.9	1970.2
853.2104	1015.1627	2734.95	1866.35
853.3555	1017.1556	2630.85	1761.4
853.5006	1019.1477	2571.3	1702.3
853.6457	1021.1392	2530.85	1661.5
853.7908	1023.1299	2512.5	1643.2
853.9359	1025.12	2496.05	1625.75
854.081	1027.1093	2515.3	1646.2
854.2261	1029.0979	2581.55	1712.15
854.3712	1031.0859	2659.5	1791.15
854.5163	1033.0731	2693.05	1824.4
854.6613	1035.0596	2722.75	1855.15
854.8064	1037.0454	2701.5	1832
854.9515	1039.0304	2666.1	1794.65
855.0965	1041.0148	2603.1	1731.9
855.2416	1042.9985	2540.2	1670.55
855.3867	1044.9814	2478.4	1609
855.5317	1046.9636	2468.2	1598.45
855.6768	1048.9452	2496.4	1628.8
855.8219	1050.926	2550.6	1683.5
855.9669	1052.9061	2611.05	1744.55
856.112	1054.8855	2641.6	1772.2
856.257	1056.8642	2650.15	1780.15
856.4021	1058.8421	2633.65	1759.7
856.5471	1060.8194	2606.95	1734.6
856.6921	1062.7959	2606.45	1734.75
856.8372	1064.7717	2605.55	1733.55
856.9822	1066.7469	2594.8	1722.1
857.1272	1068.7213	2614.65	1740.65
857.2723	1070.695	2647.75	1776.35
857.4173	1072.6679	2709.35	1837.15
857.5623	1074.6402	2806.8	1935.05
857.7073	1076.6117	2861.15	1983.55
857.8523	1078.5826	2828.2	1956.55
857.9973	1080.5527	2708.25	1834.4
858.1423	1082.5221	2594.1	1720.55
858.2873	1084.4908	2499.85	1628.05
858.4323	1086.4587	2438.5	1564.45
858.5773	1088.426	2400.05	1526.7
858.7223	1090.3925	2391.05	1514.35
858.8673	1092.3584	2407.4	1535.5
859.0123	1094.3235	2430.55	1558.6
859.1573	1096.2879	2486.6	1612.75
859.3022	1098.2515	2544.5	1670.3
859.4472	1100.2145	2642.5	1771.15
859.5922	1102.1767	2736.75	1860.7
859.7371	1104.1382	2873.1	1998.55
859.8821	1106.099	3036	2159.85
860.027	1108.0591	3215.75	2343.9
860.172	1110.0185	3344.4	2468.95
860.3169	1111.9771	3467	2595.25
860.4619	1113.9351	3615.05	2742.35
860.6068	1115.8923	3829.05	2955.4
860.7517	1117.8488	4014.7	3137.45
860.8967	1119.8045	3955.65	3080.5
861.0416	1121.7596	3666.65	2790.75
861.1865	1123.7139	3291.35	2418
861.3314	1125.6675	3030	2154.65
861.4763	1127.6204	2986.9	2112.3
861.6212	1129.5726	3057.9	2180.9
861.7661	1131.524	3094.45	2221.55
861.911	1133.4748	2991.65	2118.2
862.0559	1135.4248	2791.95	1915.6
862.2008	1137.3741	2616.45	1741.85
862.3457	1139.3226	2516.55	1639.25
862.4905	1141.2705	2475.45	1598.25
862.6354	1143.2176	2510.6	1630.9
862.7803	1145.164	2577.15	1699.6
862.9251	1147.1097	2597.1	1721.7
863.07	1149.0546	2542.25	1663.9
863.2148	1150.9989	2448.05	1571.1
863.3597	1152.9424	2372.85	1496.35
863.5045	1154.8852	2320.15	1443.05
863.6493	1156.8272	2286.25	1411.9
863.7942	1158.7686	2299.15	1414.9
863.939	1160.7092	2289.4	1412.5
864.0838	1162.6491	2311.9	1432.2
864.2286	1164.5883	2340.95	1465.15
864.3734	1166.5267	2379.35	1502.1
864.5182	1168.4644	2449.7	1571.9
864.663	1170.4014	2547.8	1664.65
864.8078	1172.3377	2651.35	1774.45
864.9526	1174.2732	2803.6	1928.8
865.0974	1176.2081	3040.5	2164.8
865.2421	1178.1421	3405.45	2524.8
865.3869	1180.0755	3851.85	2976.45
865.5317	1182.0082	4173.65	3297.85
865.6764	1183.9401	4230.25	3351.45
865.8212	1185.8713	3986.05	3108.65
865.9659	1187.8017	3580.75	2704.95
866.1106	1189.7315	3164.75	2287.55
866.2554	1191.6605	2884.75	1978.85
866.4001	1193.5888	2683.9	1808.25
866.5448	1195.5163	2583.25	1707.85
866.6895	1197.4432	2494.35	1615.45
866.8342	1199.3693	2424.9	1548.95
866.9789	1201.2947	2383.5	1500.05
867.1236	1203.2193	2360.65	1482.3
867.2683	1205.1432	2347.5	1467.75
867.413	1207.0664	2332.4	1451.8
867.5576	1208.9889	2336.55	1456.05
867.7023	1210.9106	2337.95	1461
867.847	1212.8316	2354.1	1477.9
867.9916	1214.7519	2388.25	1501
868.1363	1216.6715	2416.95	1541.05
868.2809	1218.5903	2461.6	1582.1
868.4255	1220.5084	2491.45	1614.9
868.5701	1222.4257	2553.3	1674.9
868.7148	1224.3424	2566.45	1687.2
868.8594	1226.2583	2617.2	1734.45
869.004	1228.1735	2707.2	1829.35
869.1486	1230.0879	2813.1	1935.3
869.2932	1232.0016	2950.35	2072.1
869.4377	1233.9146	3067.6	2186.75
869.5823	1235.8269	3125	2245.3
869.7269	1237.7384	3133.2	2252.55
869.8715	1239.6492	3104.8	2227.2
870.016	1241.5592	3145.8	2264.85
870.1606	1243.4686	3266.9	2387.05
870.3051	1245.3772	3485.2	2605.45
870.4496	1247.285	3748.05	2868.45
870.5941	1249.1922	4022.95	3142.6
870.7387	1251.0986	4260.25	3381.75
870.8832	1253.0042	4456.3	3575.8
871.0277	1254.9092	4720.45	3840.9
871.1722	1256.8134	5039.65	4159.6
871.3167	1258.7169	5404.6	4523.15
871.4611	1260.6196	5671.35	4794.2
871.6056	1262.5216	5870.35	4988.9
871.7501	1264.4229	5906.8	5029.1
871.8945	1266.3234	5842.05	4961.5
872.039	1268.2232	5647.05	4765.7
872.1834	1270.1223	5422.55	4541.9
872.3278	1272.0207	5269.6	4389.9
872.4723	1273.9183	5197.85	4311.2
872.6167	1275.8151	5167.85	4287.5
872.7611	1277.7113	5255	4373.05
872.9055	1279.6067	5478.65	4601.2
873.0499	1281.5014	5921.6	5039.45
873.1943	1283.3953	6546.55	5665.35
873.3386	1285.2885	7239	6358.55
873.483	1287.181	7877.55	6995
873.6274	1289.0727	8194.9	7316.05
873.7717	1290.9637	8065.25	7181.1
873.9161	1292.854	7661.35	6782.05
874.0604	1294.7435	7148.05	6266.8
874.2047	1296.6323	6644.4	5763.75
874.349	1298.5204	6220.9	5337.4
874.4933	1300.4077	5892.35	5010.95
874.6376	1302.2943	5659.3	4778.8
874.7819	1304.1802	5505.75	4624.4
874.9262	1306.0653	5394.65	4510.5
875.0705	1307.9497	5273.3	4392.95
875.2147	1309.8333	5185.4	4305.4
875.359	1311.7162	5137.65	4255.4
875.5032	1313.5984	5084.05	4199.9
875.6475	1315.4798	5027.15	4134.55
875.7917	1317.3605	5050.1	4164.05
875.9359	1319.2405	5102.75	4217.95
876.0801	1321.1197	5147.65	4262.65
876.2243	1322.9982	5090.15	4201.9
876.3685	1324.876	4946.55	4064.85
876.5127	1326.753	4687.6	3806.5
876.6569	1328.6293	4395.8	3512.35
876.801	1330.5048	4039.85	3155.25
876.9452	1332.3796	3723.85	2844.95
877.0893	1334.2537	3497.6	2589.6
877.2335	1336.127	3281.15	2398.75
877.3776	1337.9996	3186.95	2303.75
877.5217	1339.8714	3100.45	2217.15
877.6658	1341.7426	3056.1	2130.75
877.8099	1343.6129	2965.25	2082.55
877.954	1345.4826	2886.05	2005.25
878.0981	1347.3515	2846.7	1961.5
878.2422	1349.2196	2789	1903.9
878.3862	1351.087	2753.65	1872.05
878.5303	1352.9537	2739.45	1854.4
878.6743	1354.8197	2738.55	1856.65
878.8184	1356.6849	2766.7	1882.85
878.9624	1358.5493	2811.15	1928.35
879.1064	1360.4131	2884.65	2003.95
879.2504	1362.276	3002.1	2118.45
879.3944	1364.1383	3136.3	2253.8
879.5384	1365.9998	3213.75	2324.85
879.6823	1367.8606	3195.75	2312.4
879.8263	1369.7206	3165.1	2283.4
879.9702	1371.5799	3182.45	2297.55
880.1142	1373.4384	3169.25	2286.85
880.2581	1375.2962	3093.8	2208.75
880.402	1377.1533	2940.95	2060.25
880.5459	1379.0096	2792.85	1910.5
880.6898	1380.8652	2675.15	1791.7
880.8337	1382.7201	2581.15	1699.25
880.9776	1384.5742	2494.55	1609.8
881.1215	1386.4275	2421.85	1539.45
881.2653	1388.2802	2352.6	1471.95
881.4092	1390.132	2322	1439.2
881.553	1391.9832	2295.15	1412.1
881.6968	1393.8336	2275.25	1391.85
881.8406	1395.6832	2264.35	1378.8
881.9844	1397.5322	2243.65	1361.75
882.1282	1399.3803	2214.1	1326.1
882.272	1401.2278	2179.45	1295.4
882.4158	1403.0745	2162.15	1279.7
882.5595	1404.9204	2138.6	1257.2
882.7033	1406.7656	2120.75	1237
882.847	1408.6101	2096.45	1213.5
882.9908	1410.4538	2092.95	1209.25
883.1345	1412.2968	2089.75	1206.5
883.2782	1414.139	2097.4	1213.75
883.4219	1415.9805	2118.65	1235.65
883.5656	1417.8213	2163.1	1272.6
883.7092	1419.6613	2219.8	1337.25
883.8529	1421.5006	2294.05	1409.65
883.9965	1423.3391	2430.25	1546.9
884.1402	1425.1769	2586.65	1701.8
884.2838	1427.0139	2851.95	1966.35
884.4274	1428.8502	3126.05	2239.25
884.571	1430.6858	3367.65	2482.4
884.7146	1432.5206	3473.7	2591.25
884.8582	1434.3547	3473.7	2590.5
885.0018	1436.188	3427.75	2543.75
885.1453	1438.0206	3380.7	2495.7
885.2889	1439.8524	3330.65	2445.25
885.4324	1441.6835	3317.6	2432.5
885.5759	1443.5139	3326.8	2439.65
885.7194	1445.3435	3336.45	2450.95
885.8629	1447.1724	3349.55	2466.95
886.0064	1449.0005	3345.15	2461.55
886.1499	1450.8279	3330.95	2445
886.2933	1452.6545	3299.9	2414.65
886.4368	1454.4804	3298.55	2414.95
886.5802	1456.3056	3280.35	2387.35
886.7237	1458.13	3217.9	2334.45
886.8671	1459.9536	3140.6	2254.05
887.0105	1461.7766	3028.55	2144.75
887.1539	1463.5987	2918.85	2034.2
887.2972	1465.4202	2792.4	1908.1
887.4406	1467.2409	2678.6	1795.5
887.584	1469.0608	2556.4	1671.35
887.7273	1470.88	2454.75	1568.7
887.8706	1472.6984	2372.05	1486.45
888.0139	1474.5161	2291.3	1401.7
888.1572	1476.3331	2231.45	1348.75
888.3005	1478.1493	2190.3	1305.15
888.4438	1479.9648	2179.2	1295.2
888.5871	1481.7795	2173.95	1289.7
888.7303	1483.5935	2167.75	1284.75
888.8736	1485.4067	2188.9	1303.25
889.0168	1487.2192	2188.9	1303.95
889.16	1489.031	2204.7	1316.7
889.3032	1490.842	2206.45	1321.65
889.4464	1492.6522	2205.2	1320.2
889.5896	1494.4618	2202.9	1316
889.7327	1496.2705	2194.4	1309.25
889.8759	1498.0785	2182.8	1296.8
890.019	1499.8858	2160.05	1275
890.1622	1501.6924	2156.1	1272.45
890.3053	1503.4981	2142.65	1258
890.4484	1505.3032	2122.1	1238.3
890.5914	1507.1075	2102.7	1215.4
890.7345	1508.911	2088.65	1205.3
890.8776	1510.7138	2068	1180.25
891.0206	1512.5159	2047.15	1162.25
891.1637	1514.3172	2032.75	1147.55
891.3067	1516.1178	2016.2	1131.45
891.4497	1517.9176	2013.15	1126.2
891.5927	1519.7166	1992.2	1106.4
891.7357	1521.515	1980.6	1087.35
891.8786	1523.3126	1957.1	1070.3
892.0216	1525.1094	1947.7	1059.7
892.1645	1526.9055	1930.05	1043.85
892.3074	1528.7008	1921.1	1036.15
892.4503	1530.4954	1918.15	1024.15
892.5932	1532.2893	1914.75	1030.6
892.7361	1534.0824	1908.9	1017.25
892.879	1535.8747	1899.8	1014.9
893.0218	1537.6663	1893.15	1007.05
893.1647	1539.4572	1908.4	1021.4
893.3075	1541.2473	1905.45	1019.55
893.4503	1543.0367	1909.7	1023.05
893.5931	1544.8253	1916.6	1025.95
893.7359	1546.6132	1928.9	1041
893.8787	1548.4003	1944.45	1048.75
894.0214	1550.1867	1972.7	1079
894.1642	1551.9723	1996.5	1104.9
894.3069	1553.7572	2025.95	1138.55
894.4496	1555.5414	2095.05	1208.45
894.5923	1557.3247	2173	1285.9
894.735	1559.1074	2280.7	1395.2
894.8777	1560.8893	2424.55	1538.7
895.0204	1562.6705	2559.8	1671.5
895.163	1564.4509	2674.65	1789.8
895.3056	1566.2305	2744.8	1860
895.4482	1568.0094	2768.9	1883.7
895.5908	1569.7876	2773.85	1888.2
895.7334	1571.565	2747.15	1860.7
895.876	1573.3417	2750.15	1865.25
896.0186	1575.1176	2784.45	1899.45
896.1611	1576.8928	2826.05	1939.75
896.3036	1578.6672	2908.45	2023.4
896.4461	1580.4409	3007.65	2122.35
896.5886	1582.2138	3149.4	2259.6
896.7311	1583.986	3293.25	2405.55
896.8736	1585.7575	3445.9	2560.55
897.0161	1587.5282	3590.95	2705.9
897.1585	1589.2981	3700.4	2814.6
897.3009	1591.0673	3766.55	2881.8
897.4433	1592.8358	3795.85	2910.3
897.5857	1594.6035	3793.45	2904.2
897.7281	1596.3704	3749.45	2860.5
897.8705	1598.1366	3679.5	2793.3
898.0128	1599.9021	3587.95	2702.95
898.1551	1601.6668	3488.05	2598.85
898.2975	1603.4308	3401.35	2514.85
898.4398	1605.194	3365.95	2473.7
898.5821	1606.9564	3416.55	2530.2
898.7243	1608.7182	3581.9	2690.95
898.8666	1610.4791	3842.1	2956.05
899.0088	1612.2394	4211.4	3325.6
899.1511	1613.9988	4624.6	3735.65
899.2933	1615.7576	5006.45	4120.15
899.4355	1617.5156	5233.75	4342
899.5776	1619.2728	5230.6	4344.15
899.7198	1621.0293	4995	4108.65
899.862	1622.785	4610.25	3717.7
900.0041	1624.54	4151.15	3261.1
900.1462	1626.2942	3720.35	2832.15
900.2883	1628.0477	3318.95	2427.9
900.4304	1629.8005	3002.85	2112.75
900.5725	1631.5525	2724.4	1837.45
900.7145	1633.3037	2532.6	1643.5
900.8566	1635.0542	2376.15	1488.7
900.9986	1636.804	2249.75	1360.95
901.1406	1638.553	2215.45	1265.9
901.2826	1640.3013	2081.25	1193.65
901.4245	1642.0488	2022.45	1134.2
901.5665	1643.7955	1946.55	1061.35
901.7085	1645.5416	1917.05	1029.35
901.8504	1647.2868	1887.65	1001.05
901.9923	1649.0313	1861.15	974.8
902.1342	1650.7751	1843.95	953.6
902.2761	1652.5181	1833.3	944.4
902.4179	1654.2604	1824.85	936.95
902.5598	1656.0019	1849.3	962.6
902.7016	1657.7427	1866.5	979.95
902.8434	1659.4828	1917.8	1030.8
902.9852	1661.222	2030.95	1142.95
903.127	1662.9606	2145.15	1256.4
903.2687	1664.6984	2292.75	1405.6
903.4105	1666.4354	2381.55	1493.95
903.5522	1668.1717	2380.9	1493.55
903.6939	1669.9072	2270.6	1383.7
903.8356	1671.642	2114.8	1227.55
903.9773	1673.3761	1956.9	1071.1
904.119	1675.1094	1831.65	942.8
904.2606	1676.8419	1741.05	855.3
904.4022	1678.5737	1691.25	802.6
904.5439	1680.3048	1645.05	759.5
904.6855	1682.0351	1624.95	738.85
904.827	1683.7646	1595.2	703.4
904.9686	1685.4934	1589.05	702.95
905.1101	1687.2215	1569.9	680.1
905.2517	1688.9488	1554.5	666.6
905.3932	1690.6754	1554.4	668.25
905.5347	1692.4012	1540.2	655.6
905.6761	1694.1263	1531.45	645.65
905.8176	1695.8506	1529.65	642.1
905.9591	1697.5742	1524.6	635.75
906.1005	1699.297	1514.3	626.25
906.2419	1701.0191	1515.95	628
906.3833	1702.7404	1511.5	626.05
906.5246	1704.461	1492.55	602.1
906.666	1706.1808	1494.5	607.05
906.8073	1707.8999	1482.2	594.6
906.9487	1709.6182	1478.85	591.05
907.09	1711.3358	1477.9	590.05
907.2313	1713.0527	1471.75	586.4
907.3725	1714.7688	1475.4	583.1
907.5138	1716.4841	1467.05	577.95
907.655	1718.1987	1469.4	578.3
907.7962	1719.9126	1451.75	564.6
907.9374	1721.6257	1459.95	569.95
908.0786	1723.338	1451.25	562
908.2198	1725.0496	1446.8	557.2
908.3609	1726.7605	1445.45	555.05
908.502	1728.4706	1439.55	549.6
908.6431	1730.18	1438.95	548.8
908.7842	1731.8886	1436.8	547.8
908.9253	1733.5964	1447.25	538.3
909.0664	1735.3036	1437.7	546.2
909.2074	1737.0099	1434.1	546.05
909.3484	1738.7156	1423.6	537.55
909.4894	1740.4204	1429.05	539.5
909.6304	1742.1246	1428.3	540.8
909.7714	1743.8279	1425.05	537.55
909.9123	1745.5306	1418.85	529.35
910.0532	1747.2325	1408.65	519.35
910.1941	1748.9336	1410.9	523.05
910.335	1750.634	1409.7	519.9
910.4759	1752.3336	1406.45	519
910.6168	1754.0325	1411.5	525.8
910.7576	1755.7307	1409.2	522.6
910.8984	1757.4281	1409.3	521.55
911.0392	1759.1247	1409.65	513.65
911.18	1760.8206	1406.85	511.95
911.3208	1762.5158	1408.95	517.25
911.4615	1764.2102	1396.4	510.9
911.6022	1765.9039	1395.95	508.35
911.7429	1767.5968	1393.25	504.2
911.8836	1769.289	1393.75	504.35
912.0243	1770.9804	1395.3	506.6
912.1649	1772.6711	1391.7	503.75
912.3056	1774.361	1391.35	503
912.4462	1776.0502	1392.25	503.5
912.5868	1777.7386	1383.95	494.3
912.7274	1779.4263	1389.9	500.65
912.8679	1781.1132	1384.65	497.7
913.0084	1782.7994	1388.9	499.75
913.149	1784.4849	1377.85	490.1
913.2895	1786.1696	1388.95	494.8
913.4299	1787.8535	1385.3	497.75
913.5704	1789.5367	1376.5	488.05
913.7108	1791.2192	1377.25	488.15
913.8513	1792.9009	1385.4	482.5
913.9917	1794.5818	1367.2	477.1
914.132	1796.2621	1372.6	487.1
914.2724	1797.9415	1366.85	478.05
914.4128	1799.6202	1368.75	483.05
914.5531	1801.2982	1364.35	474.65
914.6934	1802.9755	1369.2	480.25
914.8337	1804.6519	1363.65	473.45
914.9739	1806.3277	1358.7	471.55
915.1142	1808.0027	1350.85	463.65
915.2544	1809.6769	1356.6	468.35
915.3946	1811.3504	1353.15	465.3
915.5348	1813.0231	1353.35	462.6
915.675	1814.6951	1356.8	467.3
915.8151	1816.3664	1354.9	464.75
915.9553	1818.0369	1354.05	466.55
916.0954	1819.7067	1358.45	470.7
916.2355	1821.3757	1347.1	456
916.3755	1823.044	1353.1	465.45
916.5156	1824.7115	1342.15	454.1
916.6556	1826.3783	1340.7	453.25
916.7956	1828.0443	1348.05	460.8
916.9356	1829.7096	1339.15	447.95
917.0756	1831.3741	1345.45	452.3
917.2155	1833.0379	1349.25	461.4
917.3555	1834.701	1345.1	453.7
917.4954	1836.3633	1342.2	451.7
917.6353	1838.0248	1343.2	453.35
917.7751	1839.6856	1341.7	453.15
917.915	1841.3457	1334.05	446.85
918.0548	1843.005	1336.45	448.8
918.1946	1844.6636	1337	452.05
918.3344	1846.3214	1336.55	449.6
918.4742	1847.9785	1341.3	452.6
918.6139	1849.6349	1338.15	449.15
918.7537	1851.2904	1341.75	443.8
918.8934	1852.9453	1329.85	439.9
919.0331	1854.5994	1332.4	443.25
919.1727	1856.2528	1333.25	441.3
919.3124	1857.9054	1326.15	438.75
919.452	1859.5572	1328.1	441.05
919.5916	1861.2083	1335.05	447.3
919.7312	1862.8587	1325.85	438.05
919.8708	1864.5084	1334.95	447.2
920.0103	1866.1572	1331.45	442.6
920.1498	1867.8054	1324.1	437.05
920.2893	1869.4528	1323.95	434.8
920.4288	1871.0994	1324.65	437.7
920.5683	1872.7453	1321	432.2
920.7077	1874.3905	1327.75	434.55
920.8471	1876.0349	1317.9	429.1
920.9865	1877.6786	1321.65	431.4
921.1259	1879.3215	1319.9	431.1
921.2653	1880.9637	1314.2	423.85
921.4046	1882.6051	1313.85	426.6
921.5439	1884.2458	1312.5	420.95
921.6832	1885.8858	1309.9	421.15
921.8225	1887.525	1311.5	422.2
921.9617	1889.1634	1311.4	424.2
922.101	1890.8011	1302.95	414.05
922.2402	1892.4381	1301.35	412.95
922.3794	1894.0743	1307.9	421.1
922.5185	1895.7098	1302.25	412.7
922.6577	1897.3446	1301.6	411.35
922.7968	1898.9786	1308.8	416.15
922.9359	1900.6118	1301.4	411.65
923.075	1902.2443	1303.2	414.35
923.214	1903.8761	1298.3	409.45
923.3531	1905.5071	1298.75	410.25
923.4921	1907.1374	1296	406.8
923.6311	1908.7669	1289.1	400.55
923.77	1910.3957	1291.75	402.6
923.909	1912.0237	1288.8	401.9
924.0479	1913.651	1293.4	403.25
924.1868	1915.2776	1285.15	398.4
924.3257	1916.9034	1286.2	400.7
924.4646	1918.5285	1280.25	391.25
924.6034	1920.1528	1281.45	392.75
924.7422	1921.7764	1282.25	394.3
924.881	1923.3992	1283.2	394.6
925.0198	1925.0213	1278.5	390.3
925.1586	1926.6427	1274.25	386.65
925.2973	1928.2633	1360.6	385.75
925.436	1929.8832	1279.55	389.25
925.5747	1931.5023	1275.35	386.95
925.7134	1933.1207	1271.9	383.1
925.852	1934.7383	1274.55	385.35
925.9906	1936.3552	1274.55	387.1
926.1292	1937.9714	1268.05	380.7
926.2678	1939.5868	1268.45	378.55
926.4064	1941.2015	1268.05	378
926.5449	1942.8154	1265.45	377.2
926.6834	1944.4286	1266.75	377
926.8219	1946.041	1294.25	381.15
926.9604	1947.6528	1272.2	378.25
927.0988	1949.2637	1254.8	367.35
927.2372	1950.8739	1262.15	373.5
927.3756	1952.4834	1260.65	371.85
927.514	1954.0921	1263	373.2
927.6523	1955.7001	1265.35	372.85
927.7907	1957.3074	1256.85	369.2
927.929	1958.9139	1251.3	363.05
928.0673	1960.5197	1259.6	368.85
928.2055	1962.1247	1254.25	367.1
928.3438	1963.729	1256.6	368.65
928.482	1965.3325	1273	359.65
928.6202	1966.9353	1244.5	356.95
928.7584	1968.5374	1248.4	360.15
928.8965	1970.1387	1246.55	356.95
929.0346	1971.7393	1248.1	358.1
929.1727	1973.3392	1246.7	357.95
929.3108	1974.9383	1238	350.6
929.4489	1976.5366	1242.2	353.9
929.5869	1978.1342	1241.65	353.35
929.7249	1979.7311	1238.75	347.8
929.8629	1981.3273	1235.85	346.15
930.0009	1982.9227	1246	355
930.1388	1984.5173	1237.85	347.75
930.2767	1986.1112	1235.1	345.9
930.4146	1987.7044	1235.4	347
930.5525	1989.2968	1238.6	347.3
930.6904	1990.8885	1237.95	345.3
930.8282	1992.4795	1233.7	344.35
930.966	1994.0697	1233.1	344.25
931.1038	1995.6592	1226.35	337.75
931.2415	1997.2479	1226.6	337.95
931.3793	1998.8359	1236.6	349.55
931.517	2000.4232	1225.25	336.75
931.6547	2002.0097	1229.1	341.3
931.7923	2003.5955	1220.8	331.4
931.93	2005.1805	1230.55	339.15
932.0676	2006.7648	1228.2	339.8
932.2052	2008.3484	1227.1	338.2
932.3427	2009.9312	1217.95	326.6
932.4803	2011.5133	1219.2	330.85
932.6178	2013.0946	1212.6	326.2
932.7553	2014.6752	1218.2	329.2
932.8928	2016.2551	1223	333.2
933.0302	2017.8342	1222.2	332.45
933.1676	2019.4126	1215.5	327.7
933.305	2020.9902	1220.2	330.8
933.4424	2022.5672	1214.8	323.2
933.5798	2024.1433	1220.55	325.95
933.7171	2025.7188	1216.2	328.6
933.8544	2027.2935	1218.25	327.3
933.9917	2028.8674	1212.05	324.35
934.129	2030.4406	1214.95	328.5
934.2662	2032.0131	1214.75	324.45
934.4034	2033.5849	1210.05	314.05
934.5406	2035.1559	1208.95	318.7
934.6778	2036.7261	1205.5	315.95
934.8149	2038.2957	1206.65	319.35
934.952	2039.8645	1209.95	322.45
935.0891	2041.4325	1213.3	320.65
935.2262	2042.9998	1204.6	316.15
935.3632	2044.5664	1206.45	314.85
935.5002	2046.1323	1205.85	317.65
935.6372	2047.6974	1206.85	317.85
935.7742	2049.2617	1198.6	311.6
935.9111	2050.8254	1236.7	314.35
936.048	2052.3883	1206.1	317.4
936.1849	2053.9504	1200.9	311.65
936.3218	2055.5118	1199.35	310.15
936.4586	2057.0725	1201.5	310.2
936.5955	2058.6325	1203.9	314.45
936.7323	2060.1917	1199.6	310.25
936.869	2061.7502	1198.3	307.4
937.0058	2063.3079	1197.25	309.75
937.1425	2064.8649	1197.2	305
937.2792	2066.4212	1202.55	313.45
937.4159	2067.9767	1197.85	311.7
937.5525	2069.5315	1193.25	304.05
937.6891	2071.0856	1188.7	300.65
937.8257	2072.6389	1193.95	302.75
937.9623	2074.1915	1191.45	304.9
938.0989	2075.7433	1195.25	303
938.2354	2077.2945	1186.35	299.75
938.3719	2078.8448	1182.8	293.85
938.5084	2080.3945	1188.3	299.55
938.6448	2081.9434	1182.45	291.8
938.7812	2083.4916	1187.95	299
938.9176	2085.039	1187.05	297.95
939.054	2086.5857	1189.9	298.75
939.1903	2088.1317	1186.25	295.85
939.3267	2089.677	1184	293.4
939.463	2091.2215	1176.8	287.4
939.5992	2092.7652	1185.4	295.95
939.7355	2094.3083	1177.95	288.9
939.8717	2095.8506	1185	297.6
940.0079	2097.3921	1177.65	289.3
940.1441	2098.933	1180.95	292.2
940.2802	2100.4731	1177.35	289.65
940.4163	2102.0124	1187.75	290.25
940.5524	2103.5511	1182.75	293.2
940.6885	2105.089	1182.5	293.9
940.8245	2106.6261	1183.05	294.6
940.9606	2108.1626	1179.55	290.05
941.0965	2109.6983	1205.85	288.35
941.2325	2111.2332	1183	293.05
941.3684	2112.7675	1174.55	285.15
941.5044	2114.301	1177.4	288.7
941.6403	2115.8337	1180.9	291.7
941.7761	2117.3657	1176.8	290.25
941.912	2118.897	1180.45	291.4
942.0478	2120.4276	1181.4	286.65
942.1835	2121.9575	1170.05	278.75
942.3193	2123.4866	1185.85	282.4
942.455	2125.0149	1178.9	287.2
942.5907	2126.5426	1171.3	282.55
942.7264	2128.0695	1170.75	277.4
942.8621	2129.5956	1169	279.7
942.9977	2131.1211	1176.05	283.8
943.1333	2132.6458	1167.2	278.85
943.2689	2134.1698	1168.6	278.8
943.4044	2135.693	1166	273.95
943.54	2137.2155	1169.35	277.95
943.6755	2138.7373	1167.6	279.05
943.8109	2140.2584	1167.3	279.05
943.9464	2141.7787	1166.05	270.7
944.0818	2143.2983	1165.75	277.75
944.2172	2144.8171	1163.05	273.25
944.3526	2146.3353	1163.6	273.15
944.4879	2147.8527	1157	269.5
944.6232	2149.3693	1161.55	270.85
944.7585	2150.8853	1165.65	276.85
944.8938	2152.4005	1165.35	277.4
945.029	2153.9149	1165.9	277.6
945.1642	2155.4287	1154.15	265.75
945.2994	2156.9417	1160.9	271.35
945.4346	2158.454	1162.4	270.85
945.5697	2159.9655	1162.1	274.65
945.7048	2161.4764	1160.8	272.35
945.8399	2162.9865	1158.55	268.85
945.9749	2164.4958	1155.1	263.8
946.1099	2166.0045	1159.05	266.75
946.2449	2167.5124	1153.9	264.7
946.3799	2169.0195	1153.6	263.5
946.5148	2170.526	1157.85	268.4
946.6498	2172.0317	1154.45	266.45
946.7846	2173.5367	1156.35	267.35
946.9195	2175.0409	1155.2	268.7
947.0543	2176.5445	1156.65	269.55
947.1891	2178.0473	1159.65	271.65
947.3239	2179.5494	1155.55	263
947.4587	2181.0507	1152.5	263.85
947.5934	2182.5513	1152.95	264.85
947.7281	2184.0512	1150.65	263.5
947.8628	2185.5504	1149.9	262.3
947.9974	2187.0488	1147.45	259.2
948.132	2188.5465	1148.2	259.2
948.2666	2190.0435	1150	262.2
948.4012	2191.5397	1150.45	262.45
948.5357	2193.0353	1146.45	258
948.6702	2194.5301	1150.3	260.9
948.8047	2196.0241	1146.55	256.25
948.9392	2197.5175	1146.4	258.9
949.0736	2199.0101	1152.25	260.5
949.208	2200.502	1145.05	257.55
949.3424	2201.9931	1147.35	259.95
949.4767	2203.4835	1147.05	254.75
949.611	2204.9733	1149.85	254.65
949.7453	2206.4622	1138.9	248.75
949.8796	2207.9505	1141.7	248.7
950.0138	2209.438	1139.8	250.2
950.148	2210.9248	1144.4	254
950.2822	2212.4109	1134.35	246.9
950.4164	2213.8962	1137.25	245.9
950.5505	2215.3809	1137.2	249.35
950.6846	2216.8648	1141	250.3
950.8186	2218.3479	1137.55	244.55
950.9527	2219.8304	1136.5	244.5
951.0867	2221.3121	1136.85	248.45
951.2207	2222.7931	1133.1	245.25
951.3546	2224.2733	1129.25	238.95
951.4886	2225.7529	1132.1	241.2
951.6225	2227.2317	1133.05	241.2
951.7563	2228.7098	1127.15	239.4
951.8902	2230.1872	1124.4	234.6
952.024	2231.6638	1125.15	236.55
952.1578	2233.1397	1131.9	235.95
952.2916	2234.6149	1131.4	241.6
952.4253	2236.0894	1128.3	238.4
952.559	2237.5632	1139.2	240.15
952.6927	2239.0362	1121.6	232.65
952.8263	2240.5085	1120.8	233.45
952.9599	2241.9801	1126.25	237.2
953.0935	2243.4509	1119.55	231.3
953.2271	2244.921	1118	227.95
953.3606	2246.3904	1118.55	226.95
953.4941	2247.8591	1122.25	233.2
953.6276	2249.3271	1119.4	231.3
953.7611	2250.7943	1119.15	230.65
953.8945	2252.2608	1116.7	229.75
954.0279	2253.7266	1117.7	227.8
954.1612	2255.1917	1115.7	226.5
954.2946	2256.656	1116.3	226.8
954.4279	2258.1197	1115.45	227.85
954.5612	2259.5826	1121.95	229.8
954.6944	2261.0447	1112.3	223.1
954.8276	2262.5062	1115.65	224.55
954.9608	2263.9669	1115.55	224.15
955.094	2265.4269	1110.4	223.85
955.2271	2266.8862	1111.55	222.95
955.3602	2268.3448	1111.6	222.1
955.4933	2269.8026	1116.3	224.65
955.6264	2271.2598	1111.9	223.8
955.7594	2272.7162	1107.1	219.1
955.8924	2274.1719	1110.2	221.65
956.0253	2275.6268	1104.55	215.7
956.1583	2277.0811	1115.15	225.65
956.2912	2278.5346	1109.05	219.9
956.4241	2279.9874	1109.4	221
956.5569	2281.4395	1110	221.65
956.6897	2282.8908	1115.3	223.45
956.8225	2284.3414	1113.15	219.95
956.9553	2285.7914	1110.7	222.85
957.088	2287.2406	1111.1	221.05
957.2207	2288.689	1109.2	220.3
957.3534	2290.1368	1111.6	223.45
957.486	2291.5838	1110.05	219
957.6186	2293.0302	1108.2	216.8
957.7512	2294.4758	1106.15	218.75
957.8838	2295.9206	1103.55	213.5
958.0163	2297.3648	1103.3	214.75
958.1488	2298.8082	1107.2	217.3
958.2813	2300.251	1104.85	215.75
958.4137	2301.693	1102.65	211.65
958.5461	2303.1343	1106.55	217.7
958.6785	2304.5748	1105.95	218.15
958.8108	2306.0147	1097.45	207.85
958.9432	2307.4538	1104.4	213.6
959.0754	2308.8922	1100.65	213.2
959.2077	2310.3299	1099.25	211.3
959.3399	2311.7669	1099.5	210.2
959.4721	2313.2031	1102.5	214.75
959.6043	2314.6387	1098	208.05
959.7365	2316.0735	1097.85	209.35
959.8686	2317.5076	1099.9	211.85
960.0006	2318.941	1099.1	211
960.1327	2320.3737	1100.75	210.7
960.2647	2321.8056	1099.05	208.6
960.3967	2323.2369	1100.6	212
960.5287	2324.6674	1098.95	206.45
960.6606	2326.0972	1101.75	211.1
960.7925	2327.5263	1096.6	208.2
960.9244	2328.9547	1104.45	217.15
961.0562	2330.3823	1096.65	207.35
961.1881	2331.8092	1097.75	206.8
961.3198	2333.2355	1091.5	200.3
961.4516	2334.661	1095.05	205
961.5833	2336.0858	1090.8	200.45
961.715	2337.5098	1092.95	203.3
961.8467	2338.9332	1090.75	200.5
961.9783	2340.3558	1098.65	206.7
962.1099	2341.7778	1089.7	199.4
962.2415	2343.199	1092.45	203.3
962.373	2344.6195	1086.15	196.8
962.5045	2346.0393	1087.6	199.4
962.636	2347.4583	1087.6	195.45
962.7675	2348.8767	1089.35	198.4
962.8989	2350.2943	1091.95	202.85
963.0303	2351.7113	1089.15	198.75
963.1617	2353.1275	1081.7	190.9
963.293	2354.543	1111	197.5
963.4243	2355.9578	1088.2	199.9
963.5556	2357.3718	1087.15	197.25
963.6868	2358.7852	1088.75	196.65
963.818	2360.1978	1089.05	196.6
963.9492	2361.6098	1086.45	197.95
964.0803	2363.021	1090.65	199.1
964.2114	2364.4315	1087.8	199
964.3425	2365.8413	1082.45	191.75
964.4736	2367.2504	1083	193.4
964.6046	2368.6587	1088.95	199.8
964.7356	2370.0664	1080.8	192.35
964.8666	2371.4733	1082.15	193.45
964.9975	2372.8795	1085.5	198.75
965.1284	2374.285	1083.7	193.8
965.2593	2375.6899	1086.6	198.25
965.3901	2377.0939	1081.75	191.5
965.5209	2378.4973	1084.55	195.2
965.6517	2379.9	1083.6	193.75
965.7825	2381.3019	1077.7	189.15
965.9132	2382.7032	1084.05	195.7
966.0439	2384.1037	1079.05	191.25
966.1745	2385.5035	1080.55	190.9
966.3051	2386.9027	1079.2	188.25
966.4357	2388.3011	1081.65	190.3
966.5663	2389.6987	1079.25	191.3
966.6968	2391.0957	1075	185.45
966.8273	2392.492	1076.5	187.45
966.9578	2393.8876	1074.15	185.5
967.0882	2395.2824	1072.85	183.05
967.2186	2396.6765	1071.6	182.3
967.349	2398.07	1068.5	180.5
967.4793	2399.4627	1075.9	184.55
967.6097	2400.8547	1076.8	187.5
967.7399	2402.246	1077.2	183.05
967.8702	2403.6366	1077	188.6
968.0004	2405.0265	1072.2	182.4
968.1306	2406.4156	1072.05	177.1
968.2607	2407.8041	1071.5	178.15
968.3909	2409.1918	1074.35	182.65
968.521	2410.5789	1067.15	176.7
968.651	2411.9652	1075.55	182.65
968.781	2413.3508	1069.9	180.5
968.911	2414.7358	1072.6	182.15
969.041	2416.12	1070.8	183
969.1709	2417.5035	1067.15	177.75
969.3008	2418.8863	1070	181.8
969.4307	2420.2684	1065.6	176.2
969.5606	2421.6497	1067.85	179.4
969.6904	2423.0304	1067.1	179.4
969.8201	2424.4104	1067.35	176.65
969.9499	2425.7896	1071.85	177.6
970.0796	2427.1682	1064.15	174.5
970.2093	2428.546	1066.65	176.7
970.3389	2429.9232	1063.55	173.1
970.4685	2431.2996	1067.5	178.15
970.5981	2432.6753	1067.95	179.05
970.7277	2434.0503	1061.7	173.4
970.8572	2435.4246	1066.75	177.9
970.9867	2436.7982	1060.2	168.75
971.1161	2438.1711	1056	167.4
971.2456	2439.5433	1062.95	172
971.375	2440.9148	1068.45	172.45
971.5043	2442.2856	1061.15	172.8
971.6336	2443.6557	1062.2	172.5
971.7629	2445.025	1063.05	174.9
971.8922	2446.3937	1057.3	168.6
972.0214	2447.7617	1057.7	166.6
972.1506	2449.1289	1061.1	170.95
972.2798	2450.4955	1063	173.55
972.4089	2451.8613	1060.2	171.5
972.538	2453.2265	1055.15	164.8
972.6671	2454.5909	1058.1	167.5
972.7961	2455.9546	1061.05	172.25
972.9251	2457.3177	1052.7	164.4
973.0541	2458.68	1054.6	164.45
973.1831	2460.0416	1058.7	170.65
973.312	2461.4025	1056.65	165.7
973.4408	2462.7627	1065.65	165.1
973.5697	2464.1222	1054.85	163.35
973.6985	2465.4811	1057.55	166.4
973.8273	2466.8392	1053.35	162.25
973.956	2468.1966	1057.05	166.25
974.0847	2469.5533	1058.55	166.3
974.2134	2470.9093	1052.9	160.95
974.3421	2472.2645	1054.35	163.5
974.4707	2473.6191	1051.7	162.1
974.5993	2474.973	1053.95	165.05
974.7278	2476.3262	1055.35	163.4
974.8563	2477.6787	1057.7	169.65
974.9848	2479.0305	1054.65	166.15
975.1132	2480.3816	1053.7	161.95
975.2417	2481.7319	1054.75	165.05
975.37	2483.0816	1058	166.2
975.4984	2484.4306	1055.1	166.4
975.6267	2485.7789	1054.2	164.7
975.755	2487.1264	1055.4	162.1
975.8833	2488.4733	1050.2	162
976.0115	2489.8195	1069.85	163.75
976.1397	2491.165	1056.65	162.25
976.2678	2492.5097	1054.95	162.7
976.3959	2493.8538	1055.25	163.25
976.524	2495.1972	1051.6	162.75
976.6521	2496.5398	1058	166.65
976.7801	2497.8818	1061.05	168.9
976.9081	2499.2231	1053.8	165.45
977.036	2500.5637	1050.7	159.95
977.164	2501.9035	1052.6	162.75
977.2918	2503.2427	1057.1	162.7
977.4197	2504.5812	1048	157.3
977.5475	2505.919	1054.7	162.85
977.6753	2507.256	1048.6	156.5
977.8031	2508.5924	1049.85	161.1
977.9308	2509.9281	1058.85	163.65
978.0585	2511.2631	1052.1	163.35
978.1861	2512.5974	1047.45	160.15
978.3137	2513.9309	1049.3	160.9
978.4413	2515.2638	1077.7	159.65
978.5689	2516.596	1045.8	156.2
978.6964	2517.9275	1046.1	154.75
978.8239	2519.2583	1046.45	154.75
978.9513	2520.5884	1044.95	153.2
979.0788	2521.9178	1044.45	154.25
979.2062	2523.2465	1044.3	153.6
979.3335	2524.5745	1046.9	158.75
979.4608	2525.9018	1041.85	151.7
979.5881	2527.2284	1045.05	156.65
979.7154	2528.5543	1042.85	155.7
979.8426	2529.8796	1043.1	152.85
979.9698	2531.2041	1046.05	154.55
980.0969	2532.5279	1041.65	153.65
980.224	2533.851	1045.55	154.55
980.3511	2535.1735	1038.7	150.8
980.4781	2536.4952	1043.4	153.65
980.6052	2537.8163	1044.15	152.85
980.7321	2539.1366	1036.3	147.5
980.8591	2540.4562	1039.7	148.9
980.986	2541.7752	1037.9	149.05
981.1129	2543.0935	1038.8	149.4
981.2397	2544.411	1041.7	152.1
981.3665	2545.7279	1046.4	158.15
981.4933	2547.0441	1040.9	151.55
981.62	2548.3596	1041.15	151.45
981.7467	2549.6744	1037.4	146.95
981.8734	2550.9885	1038.1	145
982.0001	2552.3019	1039.1	151.05
982.1267	2553.6146	1038.35	149.4
982.2532	2554.9266	1037.2	144.8
982.3798	2556.2379	1036.25	146.35
982.5063	2557.5485	1037.85	150.85
982.6327	2558.8585	1042.8	147.8
982.7592	2560.1677	1038.2	146.05
982.8856	2561.4762	1037.55	147.15
983.0119	2562.7841	1038.95	145.9
983.1383	2564.0913	1035.6	145.75
983.2646	2565.3977	1035.15	146.45
983.3908	2566.7035	1035.05	146.15
983.517	2568.0086	1040.55	150.35
983.6432	2569.313	1041.35	151.6
983.7694	2570.6167	1038.15	145.65
983.8955	2571.9197	1035.75	147.55
984.0216	2573.222	1038.45	146.35
984.1476	2574.5236	1038.8	147.05
984.2737	2575.8246	1033.5	140.8
984.3996	2577.1248	1038.9	146.65
984.5256	2578.4244	1035.45	147.4
984.6515	2579.7232	1038.3	147.75
984.7774	2581.0214	1066.9	148.95
984.9032	2582.3189	1037.1	149.8
985.029	2583.6157	1039.7	146.6
985.1548	2584.9118	1036.05	145.3
985.2806	2586.2072	1032.75	143.55
985.4063	2587.5019	1034.45	146.3
985.5319	2588.7959	1037.55	148.3
985.6576	2590.0893	1039.6	148.75
985.7832	2591.3819	1035.35	146.45
985.9087	2592.6739	1036.1	147.8
986.0343	2593.9652	1041.55	152.65
986.1597	2595.2557	1043.9	152.75
986.2852	2596.5456	1041.7	149.65
986.4106	2597.8348	1039	150.35
986.536	2599.1234	1048	158.8
986.6614	2600.4112	1040.45	151.85
986.7867	2601.6983	1047.25	153.55
986.912	2602.9848	1042.65	152.95
987.0372	2604.2705	1052.3	155.7
987.1624	2605.5556	1045.4	156.15
987.2876	2606.84	1045.05	157.55
987.4128	2608.1237	1044.5	153.55
987.5379	2609.4067	1042.8	153.05
987.6629	2610.689	1050.35	154.4
987.788	2611.9707	1041.3	148.4
987.913	2613.2516	1040.2	144.7
988.0379	2614.5319	1038.3	149.3
988.1629	2615.8115	1040.8	151
988.2878	2617.0903	1037.25	145.9
988.4126	2618.3685	1031.65	141.85
988.5375	2619.6461	1034.05	145.2
988.6622	2620.9229	1034.15	146.5
988.787	2622.199	1030.65	140.85
988.9117	2623.4745	1036.3	146.6
989.0364	2624.7493	1038.7	148.85
989.161	2626.0234	1032.25	144
989.2857	2627.2968	1031.65	143
989.4102	2628.5695	1032.25	140.95
989.5348	2629.8415	1033.25	143.8
989.6593	2631.1128	1033.4	143.95
989.7837	2632.3835	1029.1	140.45
989.9082	2633.6535	1033.6	144.85
990.0326	2634.9228	1031.45	142.75
990.1569	2636.1914	1031.95	142.25
990.2812	2637.4593	1042.2	147.9
990.4055	2638.7265	1035.35	145.25
990.5298	2639.9931	1029.1	139.65
990.654	2641.259	1034.2	143.75
990.7782	2642.5242	1028.6	138.7
990.9023	2643.7887	1029.4	139.95
991.0264	2645.0525	1027	137.9
991.1505	2646.3156	1029.1	139.2
991.2745	2647.5781	1025	135.45
991.3985	2648.8398	1028.85	140.2
991.5225	2650.1009	1060.9	133.55
991.6464	2651.3613	1028.9	139.85
991.7703	2652.6211	1025.05	134.45
991.8942	2653.8801	1021.7	133.8
992.018	2655.1385	1026.55	134.7
992.1418	2656.3961	1022.8	133.5
992.2655	2657.6531	1022.35	134.75
992.3892	2658.9094	1024.15	134.65
992.5129	2660.1651	1021.45	132.55
992.6366	2661.42	1023.15	132
992.7602	2662.6743	1022.3	130.4
992.8837	2663.9279	1021.8	133.95
993.0073	2665.1808	1026.7	136.3
993.1307	2666.433	1028.3	137.95
993.2542	2667.6846	1022.95	135
993.3776	2668.9354	1033.85	141.55
993.501	2670.1856	1032.95	142
993.6244	2671.4351	1028.45	139.4
993.7477	2672.6839	1035.25	145.25
993.8709	2673.9321	1029.75	141.5
993.9942	2675.1795	1033.75	145.25
994.1174	2676.4263	1035.25	146.1
994.2405	2677.6724	1030.8	144
994.3637	2678.9179	1034.75	144.2
994.4868	2680.1626	1036.6	148.3
994.6098	2681.4067	1036.65	146.25
994.7328	2682.6501	1033.3	142.8
994.8558	2683.8928	1032.65	143.05
994.9788	2685.1348	1027.75	139.15
995.1017	2686.3761	1029	140.1
995.2245	2687.6168	1026.25	136.3
995.3474	2688.8568	1027.8	139.3
995.4702	2690.0961	1023.65	136.65
995.5929	2691.3348	1021.6	133.35
995.7156	2692.5727	1019.55	131.85
995.8383	2693.81	1017.05	128.1
995.961	2695.0466	1017.1	128.1
996.0836	2696.2826	1019.7	130.75
996.2062	2697.5178	1018.05	126.45
996.3287	2698.7524	1021.2	132.9
996.4512	2699.9863	1024.55	131.1
996.5737	2701.2195	1023.9	135
996.6961	2702.452	1025.6	134.45
996.8185	2703.6839	1028.45	138.45
996.9408	2704.9151	1025.9	137.95
997.0631	2706.1456	1028.1	138.7
997.1854	2707.3755	1030.4	141.05
997.3077	2708.6046	1034.85	144.75
997.4299	2709.8331	1027.7	138.3
997.552	2711.0609	1029.75	139.45
997.6742	2712.2881	1034.5	144.9
997.7963	2713.5145	1039.15	148.15
997.9183	2714.7403	1041.3	152.6
998.0403	2715.9654	1040.3	149.35
998.1623	2717.1899	1059.35	155.55
998.2842	2718.4136	1045.45	156.6
998.4062	2719.6367	1049.55	160.15
998.528	2720.8591	1059.65	165.3
998.6498	2722.0809	1054.9	163.85
998.7716	2723.3019	1060.9	168.5
998.8934	2724.5223	1068.35	178
999.0151	2725.7421	1061.75	170.2
999.1368	2726.9611	1062.3	171.15
999.2584	2728.1795	1063.1	167.1
999.38	2729.3972	1048.6	159.45
999.5016	2730.6142	1054.1	153.1
999.6231	2731.8306	1044.8	154.75
999.7446	2733.0462	1041.95	152.35
999.8661	2734.2612	1044.75	151.3
999.9875	2735.4756	1036.7	145.5
1000.1089	2736.6892	1033.45	144.25
1000.2302	2737.9022	1028.15	140.05
1000.3515	2739.1145	1030.2	141
1000.4728	2740.3262	1035.5	138.8
1000.594	2741.5372	1026.45	137.05
1000.7152	2742.7475	1021.2	131.1
1000.8363	2743.9571	1023.5	133.9
1000.9575	2745.1661	1025.6	131.85
1001.0785	2746.3744	1015	124.5
1001.1996	2747.582	1011.65	123.4
1001.3206	2748.7889	1015.7	124.4
1001.4415	2749.9952	1012	122.8
1001.5625	2751.2008	1009.8	119.5
1001.6833	2752.4057	1014.8	121.95
1001.8042	2753.61	1007.15	115.05
1001.925	2754.8136	1009.5	117.55
1002.0458	2756.0165	1004.2	115.15
1002.1665	2757.2188	1004.8	116.2
1002.2872	2758.4204	1003.7	113.35
1002.4078	2759.6213	1006.85	114
1002.5285	2760.8215	1013.55	118.2
1002.649	2762.0211	1007.9	117.1
1002.7696	2763.22	1009.4	117.75
1002.8901	2764.4182	1007.75	118.65
1003.0106	2765.6158	1005.05	116.25
1003.131	2766.8127	1000.65	110.6
1003.2514	2768.009	1001	112.05
1003.3717	2769.2045	1003.45	112.8
1003.492	2770.3994	1001.85	112.55
1003.6123	2771.5936	1002.95	111.45
1003.7325	2772.7872	1000.15	111.85
1003.8527	2773.9801	998.5	106.1
1003.9729	2775.1723	1013.85	106.05
1004.093	2776.3639	995.75	105.7
1004.2131	2777.5548	999.4	108.8
1004.3331	2778.745	997.5	107.1
1004.4531	2779.9346	994.6	105.2
1004.5731	2781.1235	999.4	107.4
1004.693	2782.3117	992.85	103.25
1004.8129	2783.4992	995.85	106.75
1004.9328	2784.6861	998.8	106.15
1005.0526	2785.8723	999.15	109.05
1005.1723	2787.0579	1001.3	110.4
1005.2921	2788.2428	1000.8	112.2
1005.4118	2789.427	995.4	104.7
1005.5314	2790.6106	998.95	110.95
1005.651	2791.7935	999.1	109.35
1005.7706	2792.9757	999.35	108.35
1005.8902	2794.1573	1005.65	114.4
1006.0097	2795.3382	1003.65	112.75
1006.1291	2796.5184	1000.6	113.1
1006.2485	2797.698	1003.55	112.45
1006.3679	2798.8769	1006.45	117.6
1006.4873	2800.0551	1006.8	117.2
1006.6066	2801.2327	1007.9	115.9
1006.7258	2802.4096	1006.6	116.95
1006.8451	2803.5859	1011.8	122.7
1006.9642	2804.7615	1012.4	120.7
1007.0834	2805.9364	1013.25	125.95
1007.2025	2807.1106	1017.55	130.55
1007.3216	2808.2842	1019	127.35
1007.4406	2809.4572	1025.95	136.7
1007.5596	2810.6294	1023.95	131.55
1007.6785	2811.801	1031.2	143.25
1007.7975	2812.972	1035.1	145.5
1007.9163	2814.1423	1043.4	153.85
1008.0352	2815.3119	1051.5	161.1
1008.154	2816.4808	1056.05	167
1008.2727	2817.6491	1068.3	177.95
1008.3914	2818.8167	1079.3	192.4
1008.5101	2819.9837	1098.25	203.45
1008.6288	2821.15	1111.8	221.35
1008.7474	2822.3157	1128.4	240.75
1008.8659	2823.4807	1153.3	263.35
1008.9844	2824.645	1186.2	294.95
1009.1029	2825.8086	1216.5	326
1009.2214	2826.9716	1240.3	353.05
1009.3398	2828.134	1265.9	377.95
1009.4581	2829.2957	1297.9	408.65
1009.5764	2830.4567	1311.85	421.95
1009.6947	2831.617	1328.5	438.25
1009.813	2832.7767	1334.85	445.05
1009.9312	2833.9358	1335.6	449.8
1010.0493	2835.0941	1330.3	438.75
1010.1675	2836.2519	1319.15	430.7
1010.2855	2837.4089	1313.95	423.6
1010.4036	2838.5653	1296.95	408.45
1010.5216	2839.7211	1290.7	402.3
1010.6396	2840.8761	1281.95	390.2
1010.7575	2842.0306	1280.15	391
1010.8754	2843.1843	1274.75	385.05
1010.9932	2844.3374	1275.25	385.7
1011.111	2845.4899	1285.05	395.8
1011.2288	2846.6417	1286.55	396.8
1011.3465	2847.7928	1297.05	407.45
1011.4642	2848.9433	1308.45	419.35
1011.5818	2850.0931	1303.55	416.1
1011.6995	2851.2422	1309.2	418.65
1011.817	2852.3907	1306.45	415.2
1011.9345	2853.5385	1311.8	421
1012.052	2854.6857	1333	416.1
1012.1695	2855.8323	1315.8	426.3
1012.2869	2856.9781	1327.95	439.2
1012.4042	2858.1233	1331.4	442.65
1012.5216	2859.2679	1345.3	453.85
1012.6389	2860.4118	1365.05	476.7
1012.7561	2861.555	1376.15	483.05
1012.8733	2862.6976	1389.6	498.2
1012.9905	2863.8395	1391.1	502.95
1013.1076	2864.9808	1400.25	510.35
1013.2247	2866.1214	1406.2	518.3
1013.3417	2867.2614	1417	527.2
1013.4587	2868.4007	1424.3	533.2
1013.5757	2869.5393	1437.35	547.5
1013.6926	2870.6773	1441.9	550.35
1013.8095	2871.8146	1451.15	559.15
1013.9263	2872.9513	1456.7	565.05
1014.0431	2874.0874	1473.35	583.65
1014.1599	2875.2227	1468.1	578.8
1014.2766	2876.3574	1482.1	592
1014.3933	2877.4915	1487	597.65
1014.51	2878.6249	1490.5	601.2
1014.6266	2879.7577	1502.4	611.2
1014.7431	2880.8898	1526.1	624.9
1014.8596	2882.0212	1528.8	638.2
1014.9761	2883.152	1535.25	645.75
1015.0925	2884.2821	1548.05	661.2
1015.2089	2885.4116	1559.05	670.3
1015.3253	2886.5405	1554.1	665.75
1015.4416	2887.6686	1565.45	672.75
1015.5579	2888.7962	1567.95	678.25
1015.6741	2889.923	1559.6	672.25
1015.7903	2891.0493	1556.45	667.9
1015.9065	2892.1748	1562.4	671.9
1016.0226	2893.2997	1552.1	661.15
1016.1387	2894.424	1558.45	669.75
1016.2547	2895.5476	1554.7	666.05
1016.3707	2896.6706	1567.85	679.7
1016.4866	2897.7929	1564.45	674.95
1016.6025	2898.9145	1569.5	679
1016.7184	2900.0355	1559.95	670.85
1016.8342	2901.1559	1556.4	665.05
1016.95	2902.2756	1546.5	657.25
1017.0658	2903.3946	1548.4	658.05
1017.1815	2904.513	1544	648.7
1017.2971	2905.6308	1532.7	643.05
1017.4127	2906.7479	1529.75	639.15
1017.5283	2907.8643	1527.3	636.15
1017.6439	2908.9801	1530.2	640.45
1017.7594	2910.0953	1533.75	642.55
1017.8748	2911.2098	1530.65	637.8
1017.9902	2912.3236	1534.1	636.55
1018.1056	2913.4368	1529.05	637.45
1018.2209	2914.5494	1526.35	638.05
1018.3362	2915.6613	1519	623.45
1018.4515	2916.7725	1505.7	610.2
1018.5667	2917.8831	1500.75	610.2
1018.6819	2918.9931	1497.6	604.7
1018.797	2920.1024	1482.65	592.65
1018.9121	2921.211	1475.85	585.55
1019.0271	2922.319	1466.2	577.9
1019.1421	2923.4264	1462.9	573.95
1019.2571	2924.5331	1452.8	562.25
1019.372	2925.6391	1450.1	561.9
1019.4869	2926.7445	1451.95	561.9
1019.6017	2927.8493	1460.5	569.95
1019.7165	2928.9534	1455.9	565.3
1019.8313	2930.0569	1462.25	569.5
1019.946	2931.1597	1469	578
1020.0606	2932.2619	1468.25	577.3
1020.1753	2933.3634	1480.3	590.9
1020.2899	2934.4643	1484.2	587.8
1020.4044	2935.5645	1489.7	592.55
1020.5189	2936.6641	1493.45	599.4
1020.6334	2937.763	1499.55	611.75
1020.7478	2938.8613	1497	608.1
1020.8622	2939.959	1495.4	598.65
1020.9765	2941.056	1487.1	598.4
1021.0908	2942.1523	1460.95	571.5
1021.2051	2943.248	1438.95	549.35
1021.3193	2944.3431	1410.85	522.55
1021.4334	2945.4375	1385.25	495.65
1021.5476	2946.5313	1352.9	463.45
1021.6617	2947.6244	1331.7	442.4
1021.7757	2948.7169	1318.35	427.3
1021.8897	2949.8087	1283.15	394.25
1022.0037	2950.8999	1259.9	369.6
1022.1176	2951.9904	1240.35	351.9
1022.2315	2953.0803	1219.3	328.15
1022.3453	2954.1696	1208.7	320.2
1022.4591	2955.2582	1198.25	309.8
1022.5728	2956.3462	1185.85	295.65
1022.6865	2957.4335	1184.2	292.4
1022.8002	2958.5202	1182.55	289.75
1022.9138	2959.6062	1178.5	288.3
1023.0274	2960.6916	1178.25	289.2
1023.141	2961.7764	1179.2	288.15
1023.2545	2962.8605	1182.15	293.45
1023.3679	2963.9439	1180	290.75
1023.4813	2965.0267	1185.25	294.55
1023.5947	2966.1089	1199.85	288.75
1023.708	2967.1905	1177.05	288.4
1023.8213	2968.2714	1167.8	278.4
1023.9346	2969.3516	1168.1	276.3
1024.0478	2970.4312	1175.05	277.55
1024.1609	2971.5102	1164.25	274.4
1024.274	2972.5885	1168.4	278.65
1024.3871	2973.6662	1169.2	273.55
1024.5002	2974.7432	1165.6	275.15
1024.6132	2975.8196	1166.85	278.25
1024.7261	2976.8954	1169.05	280.6
1024.839	2977.9705	1170.05	280
1024.9519	2979.045	1170	281.7
1025.0647	2980.1188	1168.95	276.9
1025.1775	2981.192	1164.25	274.2
1025.2902	2982.2645	1165.65	276.15
1025.4029	2983.3364	1152.5	262.05
1025.5156	2984.4077	1142.9	253.95
1025.6282	2985.4783	1138.7	241.7
1025.7407	2986.5483	1128.95	240.2
1025.8532	2987.6177	1114.5	226.3
1025.9657	2988.6864	1111.2	222.45
1026.0782	2989.7545	1106.45	214.9
1026.1906	2990.8219	1097.2	207
1026.3029	2991.8887	1095.45	203.15
1026.4152	2992.9548	1087.1	195.3
1026.5275	2994.0204	1073.75	184.7
1026.6397	2995.0852	1064.35	176.05
1026.7519	2996.1495	1053.55	163.1
1026.864	2997.2131	1046.45	158.1
1026.9761	2998.276	1038.45	149.1
1027.0882	2999.3383	1031.4	141.4
1027.2002	3000.4	1027.15	135.6
1027.3122	3001.4611	1015.5	124.75
1027.4241	3002.5215	1009.05	118.8
1027.536	3003.5812	1010.5	120.8
1027.6478	3004.6404	1001.9	110.9
1027.7596	3005.6989	999.9	108.8
1027.8714	3006.7567	995.75	106.4
1027.9831	3007.8139	1022.7	102.15
1028.0947	3008.8705	988.9	99.8
1028.2064	3009.9264	986.5	95.1
1028.3179	3010.9818	981.45	91
1028.4295	3012.0364	982.3	90.75
1028.541	3013.0905	980.5	90.8
1028.6524	3014.1439	978.25	88.9
1028.7638	3015.1966	975.1	85.85
1028.8752	3016.2487	978.95	90.15
1028.9865	3017.3002	978.2	84.5
1029.0978	3018.3511	972.65	84.7
1029.209	3019.4013	971.5	83.85
1029.3202	3020.4509	967.7	78.45
1029.4314	3021.4998	970.95	80.1
1029.5425	3022.5481	968.7	78.3
1029.6535	3023.5958	967.45	78
1029.7645	3024.6428	969.2	79.6
1029.8755	3025.6892	964.35	76.3
1029.9864	3026.735	965.85	75.95
1030.0973	3027.7802	965.8	75.6
1030.2082	3028.8247	963.9	72.35
1030.319	3029.8685	966.75	75.95
1030.4297	3030.9118	970.25	80.3
1030.5404	3031.9544	962.1	72.6
1030.6511	3032.9963	968.8	78.25
1030.7617	3034.0376	967.1	77.95
1030.8723	3035.0783	969	76.2
1030.9829	3036.1184	971.55	80.45
1031.0934	3037.1578	968.55	81.55
1031.2038	3038.1966	971.85	80
1031.3142	3039.2348	967.65	79.7
1031.4246	3040.2723	976.95	79.4
1031.5349	3041.3092	969.65	80.8
1031.6452	3042.3455	969	80.75
1031.7554	3043.3811	972.55	81.2
1031.8656	3044.4161	970.25	79.5
1031.9758	3045.4505	969.95	81
1032.0859	3046.4842	972.05	81.65
1032.1959	3047.5173	967.1	77.7
1032.3059	3048.5498	971.4	82.55
1032.4159	3049.5816	971.55	80.7
1032.5258	3050.6128	968.7	78.5
1032.6357	3051.6434	973.15	84.4
1032.7455	3052.6734	972.15	81.05
1032.8553	3053.7027	970.75	82
1032.9651	3054.7314	969.7	81.25
1033.0748	3055.7594	968.45	78.85
1033.1845	3056.7868	971.8	82.25
1033.2941	3057.8136	969.95	81.05
1033.4037	3058.8398	973.55	85.05
1033.5132	3059.8653	972.6	81.25
1033.6227	3060.8902	978.15	88.75
1033.7321	3061.9145	977.95	87.6
1033.8415	3062.9381	976.9	86.9
1033.9509	3063.9612	993.9	89.55
1034.0602	3064.9835	978.1	90
1034.1694	3066.0053	982.75	90
1034.2787	3067.0264	980.15	92.15
1034.3878	3068.0469	983.2	92.6
1034.497	3069.0668	980.55	88.35
1034.6061	3070.086	976.15	86.7
1034.7151	3071.1046	981.35	90.5
1034.8241	3072.1226	977.6	87.05
1034.9331	3073.1399	972.1	82.9
1035.042	3074.1567	974.9	85.3
1035.1508	3075.1727	971.75	80.7
1035.2597	3076.1882	971.7	83.45
1035.3684	3077.203	970.15	79.4
1035.4772	3078.2173	967.5	76.4
1035.5859	3079.2308	967.4	72.65
1035.6945	3080.2438	962.85	70.85
1035.8031	3081.2561	960.45	71.1
1035.9117	3082.2678	957.5	68
1036.0202	3083.2789	954.45	63.55
1036.1286	3084.2893	955.45	67.05
1036.2371	3085.2991	953.05	63.05
1036.3454	3086.3083	956.15	61.55
1036.4538	3087.3169	950.25	58.4
1036.562	3088.3248	951.65	60
1036.6703	3089.3321	949.4	57.15
1036.7785	3090.3388	945.55	57.1
1036.8866	3091.3449	946.1	55.55
1036.9948	3092.3503	947.9	56.45
1037.1028	3093.3551	944.95	56.6
1037.2108	3094.3593	945.4	57.85
1037.3188	3095.3629	943.45	52.95
1037.4267	3096.3658	942.35	49.55
1037.5346	3097.3681	943.75	53.75
1037.6425	3098.3698	945.9	54.8
1037.7503	3099.3708	943.85	55.65
1037.858	3100.3713	939.65	49.3
1037.9657	3101.3711	939	49.85
1038.0734	3102.3702	1079	46
1038.181	3103.3688	944.1	50.8
1038.2886	3104.3667	938.05	49.85
1038.3961	3105.364	935.35	46.4
1038.5036	3106.3607	939.55	47.7
1038.611	3107.3568	937.05	45.75
1038.7184	3108.3522	935.3	46.5
1038.8257	3109.347	936.95	46.45
1038.933	3110.3412	937.85	44.1
1039.0403	3111.3348	931.95	42.3
1039.1475	3112.3277	930.25	42.6
1039.2547	3113.32	930.3	42.95
1039.3618	3114.3117	933.6	43.75
1039.4689	3115.3028	929.7	41
1039.5759	3116.2932	934.2	42.1
1039.6829	3117.2831	934.6	37.8
1039.7898	3118.2723	928.55	37.8
1039.8967	3119.2608	928.6	40.05
1040.0035	3120.2488	928.5	40.05
1040.1103	3121.2361	927.6	39.05
1040.2171	3122.2229	925	37.65
1040.3238	3123.209	928.95	39.7
1040.4305	3124.1944	926.85	39.35
1040.5371	3125.1793	925.35	33.9
1040.6437	3126.1635	922.45	32.85
1040.7502	3127.1471	924.45	34.45
1040.8567	3128.1301	923.6	34
1040.9631	3129.1125	923.5	35
1041.0695	3130.0942	921.7	32.05
1041.1759	3131.0753	930.7	33.6
1041.2822	3132.0558	925.6	33.1
1041.3884	3133.0357	926.1	36.05
1041.4946	3134.015	918.7	28.5
1041.6008	3134.9936	924.2	33.05
1041.7069	3135.9716	941.7	30.1
1041.813	3136.949	920.6	31.1
1041.919	3137.9258	938.4	28.95
1042.025	3138.902	925.55	31.15
1042.1309	3139.8775	920.9	32.65
1042.2368	3140.8524	919.4	30.75
1042.3427	3141.8267	918.85	27.6
1042.4485	3142.8004	917.9	29.5
1042.5542	3143.7735	925.95	29.6
1042.6599	3144.7459	920	28.55
1042.7656	3145.7178	920.85	29.65
1042.8712	3146.689	918	29.75
1042.9768	3147.6596	920.95	30.65
1043.0823	3148.6295	919.05	29.05
1043.1878	3149.5989	917.2	26.1
1043.2932	3150.5676	915.9	28.5
1043.3986	3151.5357	914.95	25.85
1043.5039	3152.5032	914.35	25.3
1043.6092	3153.4701	916.8	28.05
1043.7145	3154.4364	916.55	22.9
1043.8197	3155.402	915.75	27.45
1043.9248	3156.367	917.95	27.65
1044.03	3157.3315	953.6	26.2
1044.135	3158.2952	916.85	25.35
1044.24	3159.2584	912.95	21.4
1044.345	3160.221	917.35	27.3
1044.4499	3161.1829	914.45	24.95
1044.5548	3162.1442	914.35	24.25
1044.6596	3163.105	914	24.35
1044.7644	3164.065	914.55	23.65
1044.8692	3165.0245	915.75	22.9
1044.9739	3165.9834	913.85	26.8
1045.0785	3166.9416	913.5	22.7
1045.1831	3167.8993	912.55	21.05
1045.2877	3168.8563	914.7	25.65
1045.3922	3169.8127	912.9	22.75
1045.4966	3170.7684	913.55	23.3
1045.6011	3171.7236	914.3	23.1
1045.7054	3172.6782	912.65	22.85
1045.8098	3173.6321	914.05	23.75
1045.914	3174.5854	915.25	22.35
1046.0183	3175.5381	913.2	23.8
1046.1224	3176.4902	912.45	23.8
1046.2266	3177.4417	909.5	19.05
1046.3307	3178.3926	913.1	22.85
1046.4347	3179.3428	911.55	22.1
1046.5387	3180.2924	910.7	21.65
1046.6427	3181.2415	910.8	22.3
1046.7466	3182.1899	911.25	19.35
1046.8504	3183.1377	908.6	18.05
1046.9542	3184.0848	914.2	21.4
1047.058	3185.0314	910.9	21.05
1047.1617	3185.9773	909.8	20.5
1047.2654	3186.9227	911.65	20.95
1047.369	3187.8674	910.8	19.2
1047.4726	3188.8115	913.3	19.2
1047.5761	3189.755	909.5	19.05
1047.6796	3190.6979	909.5	19.55
1047.783	3191.6402	908	20.1
1047.8864	3192.5818	909.25	22.15
1047.9898	3193.5229	917.2	22.8
1048.0931	3194.4633	909.95	20.75
1048.1963	3195.4031	907.85	19.2
1048.2995	3196.3423	907.9	18
1048.4027	3197.2809	908.55	18.55
1048.5058	3198.2189	908.75	19.35
1048.6089	3199.1563	913.9	16.7
1048.7119	3200.0931	909.7	19
1048.8148	3201.0292	908.2	18.7
1048.9178	3201.9648	907.3	16.1
1049.0206	3202.8997	910.25	20.4
1049.1235	3203.834	908.7	20.65
1049.2262	3204.7677	907.5	17.85
1049.329	3205.7008	907.25	15.95
1049.4317	3206.6333	904.75	16.75
1049.5343	3207.5652	909.8	17.9
1049.6369	3208.4964	908	19.9
1049.7394	3209.4271	907.1	18.25
1049.8419	3210.3571	904.7	14.2
1049.9444	3211.2865	907.95	17.85
1050.0468	3212.2154	906.45	16.4
1050.1491	3213.1436	909.2	17.25
1050.2514	3214.0712	913.9	19.25
1050.3537	3214.9982	906.5	17.3
1050.4559	3215.9246	906.35	15.85
1050.5581	3216.8503	906.15	18.25
1050.6602	3217.7755	905.9	15.8
1050.7623	3218.7001	905.4	17.25
1050.8643	3219.624	906.95	17.9
1050.9663	3220.5473	904.55	14.5
1051.0682	3221.4701	907.95	16.5
1051.1701	3222.3922	908.45	16.2
1051.2719	3223.3137	905.45	15.25
1051.3737	3224.2346	904.7	16
1051.4754	3225.1549	905.35	16.25
1051.5771	3226.0746	903.7	14.7
1051.6788	3226.9937	905.25	15.45
1051.7804	3227.9121	904.05	17.05
1051.8819	3228.83	904.3	12.8
1051.9834	3229.7473	906.6	15.85
1052.0849	3230.6639	906.3	16.35
1052.1863	3231.5799	905.25	16.2
1052.2876	3232.4954	906.1	14.95
1052.3889	3233.4102	904.4	16.15
1052.4902	3234.3244	902.95	13.2
1052.5914	3235.238	903.35	13.15
1052.6926	3236.151	926.3	14.7
1052.7937	3237.0634	902.95	14.1
1052.8948	3237.9752	904.75	15
1052.9958	3238.8864	901.6	12
1053.0968	3239.797	903.6	13.8
1053.1977	3240.7069	905.2	16.2
1053.2986	3241.6163	903.95	13.3
1053.3994	3242.5251	904.45	15.2
1053.5002	3243.4332	901.45	13.1
1053.6009	3244.3408	904.25	13.8
1053.7016	3245.2477	902	13.1
1053.8022	3246.154	903.3	11.6
1053.9028	3247.0598	905.3	14.8
1054.0034	3247.9649	904.2	12.1
1054.1039	3248.8694	903.3	14.45
1054.2043	3249.7733	901.05	11.4
1054.3047	3250.6766	902.4	13.5
1054.4051	3251.5793	902.8	12.85
1054.5054	3252.4814	900.4	11.35
1054.6056	3253.3829	902.35	11.8
1054.7058	3254.2838	902.25	11.95
1054.806	3255.1841	902.15	13.7
1054.9061	3256.0838	900.8	11.95
1055.0061	3256.9829	898.75	9.2
1055.1062	3257.8814	903.15	11.05
1055.2061	3258.7792	904.35	14.65
1055.306	3259.6765	902.05	12.1
1055.4059	3260.5731	900.3	12.7
1055.5057	3261.4692	897.4	7.1
1055.6055	3262.3647	901.3	11.55
1055.7052	3263.2595	899.95	9.45
1055.8049	3264.1538	897.95	9.25
1055.9045	3265.0474	901.25	10
1056.0041	3265.9404	900.3	11.25
1056.1036	3266.8329	897.5	8.6
1056.2031	3267.7247	908.65	7.8
1056.3025	3268.616	899.05	8.6
1056.4019	3269.5066	899.7	11
1056.5013	3270.3966	900.4	10.65
1056.6005	3271.286	896.2	6.95
