Software Version:	3.9.2.0
Unit SN:	10000200
Spectrometer SN:	6960
Date:	3/14/2024 1:55:13 PM
Data Line Index:	25
Spectral Points:	2048
Integration time (ms):	125
Averages:	20
Delay (ms):	30000
Sequence Number:	1
Processing:	dark subtract
Laser Power (mW):	300
Laser Current (mA):	825
Laser Diode Temp (C):	25.1
Laser Case Temp (C):	28.9
System Temp (C):	28.9
Spectrometer Temp (C):	26.7
CCD Temp (C):	0.008
Secondary Temp (C):	20.007
Heatsink Temp (C):	24.753
CCDPCB Temp (C):	38.263
SecondaryPCB Temp (C):	35.985

Wavelength	RamanShift	Raw Counts	Dark Subtracted
787.061	30.1047	465.65	54.85
787.2016	32.3739	465.95	57.35
787.3422	34.6426	471.5	61
787.4828	36.9109	480.45	69.15
787.6235	39.1787	488.25	73.1
787.7642	41.4461	499.8	80.85
787.9049	43.7131	505.95	82.95
788.0456	45.9796	512.95	85.7
788.1863	48.2456	523.95	91.9
788.3271	50.5112	537.4	102.65
788.4679	52.7764	544.15	107
788.6087	55.0411	552.95	111.6
788.7496	57.3054	563	114.45
788.8904	59.5692	577	127.85
789.0313	61.8326	592.65	139.3
789.1722	64.0955	605.8	148.5
789.3132	66.3579	623.1	160.25
789.4541	68.6199	638.55	174.85
789.5951	70.8815	680	211.1
789.7361	73.1426	760.15	287.55
789.8771	75.4032	962.15	485.45
790.0181	77.6634	1466	983.35
790.1592	79.9231	2665.05	2176.05
790.3003	82.1824	5312.85	4813.75
790.4414	84.4412	10186.8	9674
790.5825	86.6995	17064.45	16526.3
790.7237	88.9574	23998.05	23442.05
790.8648	91.2148	28983.55	28413.55
791.006	93.4717	31388.1	30807.75
791.1472	95.7282	32017.6	31430.45
791.2885	97.9842	32093.45	31503.35
791.4297	100.2398	31601	31007.45
791.571	102.4949	31074.7	30479.3
791.7123	104.7495	30331.25	29731.05
791.8536	107.0036	29505.15	28903.45
791.9949	109.2573	28726.15	28128.45
792.1363	111.5105	27923.05	27322.1
792.2777	113.7632	27195.05	26591.15
792.4191	116.0154	26534.05	25923.35
792.5605	118.2672	26069	25460.55
792.7019	120.5185	25506.15	24901.6
792.8434	122.7693	25167.7	24558.05
792.9849	125.0197	24894.15	24277.6
793.1264	127.2696	24550.65	23935.9
793.2679	129.519	24430.7	23813.65
793.4094	131.7679	24220.95	23599.9
793.551	134.0163	24087.15	23463.8
793.6926	136.2642	23890.3	23261.45
793.8342	138.5117	23709.8	23073.45
793.9758	140.7587	23525.65	22896.35
794.1175	143.0052	23340.4	22705.6
794.2591	145.2512	23100.45	22467
794.4008	147.4967	22901.5	22267.45
794.5425	149.7417	22724.4	22084.4
794.6842	151.9863	22612.55	21971.7
794.826	154.2304	22555.25	21911.95
794.9677	156.4739	22408.5	21758.35
795.1095	158.717	22330.3	21681.3
795.2513	160.9596	22173.2	21516.55
795.3931	163.2017	21897.85	21241.45
795.535	165.4433	21555.65	20899.1
795.6768	167.6844	21208.2	20551
795.8187	169.925	20860.4	20199.75
795.9606	172.1651	20459.25	19791.4
796.1025	174.4047	20159.4	19489.25
796.2445	176.6439	19873.8	19203
796.3864	178.8825	19606.95	18937.25
796.5284	181.1206	19457.9	18782.7
796.6704	183.3582	19239.05	18561.3
796.8124	185.5954	19106	18427.55
796.9544	187.832	19005.75	18319.9
797.0965	190.0681	18942	18254.2
797.2386	192.3037	18948.65	18260.3
797.3806	194.5388	18935.1	18245.4
797.5228	196.7734	18965.75	18273.7
797.6649	199.0075	19053.85	18353.7
797.807	201.2411	19163.15	18463.45
797.9492	203.4742	19189.75	18488.6
798.0914	205.7068	19324.85	18622.5
798.2336	207.9389	19444.7	18742.65
798.3758	210.1704	19583.35	18877.95
798.518	212.4015	19689.4	18980.1
798.6603	214.632	19838.3	19125.75
798.8025	216.862	20056.85	19354.8
798.9448	219.0915	20216.7	19520.65
799.0871	221.3205	20444.25	19748.6
799.2294	223.549	20728.55	20041.8
799.3718	225.777	21067.5	20380.7
799.5141	228.0044	21465.05	20777.8
799.6565	230.2314	21984.9	21297.1
799.7989	232.4578	22489.25	21801.2
799.9413	234.6837	22884.95	22189.1
800.0837	236.909	23077.15	22379.8
800.2262	239.1339	23019.85	22300.3
800.3687	241.3582	22753.6	22048.5
800.5111	243.582	22326.25	21592.1
800.6536	245.8053	21946.4	21221.8
800.7961	248.0281	21558.1	20839.65
800.9387	250.2503	21258.35	20534.05
801.0812	252.472	21051.45	20321.35
801.2238	254.6932	20967.25	20235.45
801.3664	256.9139	20806.45	20070.5
801.509	259.134	20778.25	20041.95
801.6516	261.3536	20671	19936.05
801.7942	263.5727	20699.1	19966.8
801.9369	265.7912	20581.5	19843.6
802.0795	268.0092	20566.35	19831.35
802.2222	270.2267	20493.15	19756.65
802.3649	272.4436	20442	19703.6
802.5076	274.6601	20334.75	19589.7
802.6504	276.8759	20259.6	19518.95
802.7931	279.0913	20240.95	19494.85
802.9359	281.3061	20227.95	19481.1
803.0787	283.5204	20310.05	19559.85
803.2215	285.7341	20394.3	19644.25
803.3643	287.9473	20565.7	19807
803.5071	290.16	20830.75	20073.35
803.6499	292.3721	21162.7	20410.45
803.7928	294.5837	21587.35	20833.1
803.9357	296.7947	21970.3	21216.85
804.0786	299.0052	22188	21435.45
804.2215	301.2152	21997.6	21242.5
804.3644	303.4246	21613.6	20863.25
804.5074	305.6334	20997.05	20244.55
804.6503	307.8418	20368.5	19611.15
804.7933	310.0495	19942.1	19187.25
804.9363	312.2568	19632.25	18877
805.0793	314.4635	19395.2	18636.75
805.2223	316.6696	19333.4	18573.35
805.3653	318.8752	19255.3	18486.85
805.5084	321.0802	19310.3	18551
805.6514	323.2847	19449.35	18687.45
805.7945	325.4887	19495.4	18732.7
805.9376	327.692	19423.35	18658.3
806.0807	329.8949	19279.6	18516.05
806.2238	332.0972	18970.95	18207.5
806.367	334.2989	18676.1	17904.75
806.5101	336.5001	18390.6	17620.3
806.6533	338.7007	18174.4	17404.35
806.7965	340.9008	18041.9	17269.4
806.9397	343.1003	17902	17129.15
807.0829	345.2992	17869.1	17094.85
807.2261	347.4976	17811.4	17037.45
807.3693	349.6955	17782.2	17002.45
807.5126	351.8927	17858.35	17080.05
807.6559	354.0895	17803.6	17011.6
807.7991	356.2856	17850.85	17069.9
807.9424	358.4812	17784.15	17004.65
808.0857	360.6763	17882.65	17101.2
808.2291	362.8707	17817.9	17035.45
808.3724	365.0646	17880.95	17092.55
808.5158	367.258	17851.25	17064.35
808.6591	369.4508	17818.7	17027.95
808.8025	371.643	17859.8	17069.75
808.9459	373.8346	17824.15	17033.4
809.0893	376.0257	17813.75	17021.35
809.2327	378.2162	17711.9	16916.4
809.3762	380.4062	17568.05	16771.85
809.5196	382.5956	17408.15	16614.95
809.6631	384.7844	17272.5	16474.5
809.8066	386.9726	17130.2	16331
809.9501	389.1603	17074.15	16271.6
810.0936	391.3474	17054.1	16218.65
810.2371	393.5339	17004.05	16201.5
810.3806	395.7199	16949.05	16153.8
810.5241	397.9052	16924.35	16134.55
810.6677	400.09	16945.5	16153.2
810.8113	402.2743	16961.55	16172.05
810.9548	404.4579	17042.9	16253.45
811.0984	406.641	17153.85	16362.45
811.2421	408.8235	17375.9	16586.65
811.3857	411.0054	17720.1	16928.35
811.5293	413.1868	18235.15	17440.8
811.673	415.3675	18563.95	17767.1
811.8166	417.5477	18795.35	17998.45
811.9603	419.7273	18819.3	18022.8
812.104	421.9064	18677.95	17870.2
812.2477	424.0848	18550.1	17747.45
812.3914	426.2627	18249.05	17446.6
812.5351	428.4399	17953.4	17149.1
812.6788	430.6166	17573.05	16764.8
812.8226	432.7928	17135.5	16322.75
812.9663	434.9683	16802.45	15990.85
813.1101	437.1432	16555.95	15741.5
813.2539	439.3176	16397.15	15584.95
813.3977	441.4914	16260.45	15449
813.5415	443.6645	16225.6	15409.9
813.6853	445.8371	16141.25	15323.75
813.8291	448.0091	16064.1	15250.7
813.973	450.1806	16015.95	15201.75
814.1168	452.3514	15892	15074.45
814.2607	454.5216	15926.6	15100.25
814.4046	456.6913	15804.3	14987.9
814.5485	458.8603	15831.1	15014
814.6924	461.0288	15898.95	15083.45
814.8363	463.1967	15882.3	15064.75
814.9802	465.3639	16032.85	15214.65
815.1241	467.5306	16152.3	15331.9
815.2681	469.6967	16274.8	15450.75
815.412	471.8622	16440.3	15619.65
815.556	474.0271	16610.1	15789.85
815.7	476.1914	16680.95	15856.55
815.844	478.3551	16611.9	15791.65
815.988	480.5182	16594.2	15772.25
816.132	482.6807	16568.5	15747.8
816.276	484.8426	16649.1	15826.45
816.4201	487.0039	16888.25	16063.65
816.5641	489.1647	17320	16495.05
816.7082	491.3248	17771.85	16948.4
816.8522	493.4843	17963.8	17139.3
816.9963	495.6432	17945.9	17121.35
817.1404	497.8015	17838.1	17007.3
817.2845	499.9592	17813.5	16990.2
817.4286	502.1163	17765.4	16938.5
817.5727	504.2728	17543.45	16714.7
817.7168	506.4287	17213.6	16385.8
817.861	508.5839	16759.9	15933.15
818.0051	510.7386	16363.6	15537
818.1493	512.8927	16157.3	15322.65
818.2935	515.0461	15986.5	15157.2
818.4377	517.199	15903.4	15074.25
818.5818	519.3512	15853.4	15024.4
818.726	521.5029	15846	15009.3
818.8703	523.6539	15876	15042.65
819.0145	525.8043	15915	15081.15
819.1587	527.9541	15922.55	15089.35
819.303	530.1033	15951.6	15119.5
819.4472	532.2519	15972.8	15139.15
819.5915	534.3999	16090	15253.9
819.7357	536.5472	16459.85	15624
819.88	538.694	16959.3	16122.15
820.0243	540.8401	17619.2	16783.6
820.1686	542.9856	18174.7	17337.8
820.3129	545.1305	18292.8	17455.7
820.4572	547.2748	18124.55	17288.45
820.6016	549.4185	17680.3	16840.4
820.7459	551.5615	17255.4	16417.25
820.8902	553.704	17049.1	16210.85
821.0346	555.8458	16993	16155.1
821.1789	557.987	16948.25	16111.6
821.3233	560.1276	16841.35	16000.45
821.4677	562.2675	16742.25	15903.9
821.6121	564.4069	16690.85	15854.15
821.7565	566.5456	16622.5	15786.15
821.9009	568.6837	16484.45	15646.3
822.0453	570.8212	16212.1	15374.95
822.1897	572.958	15896.9	15056.5
822.3342	575.0942	15669.45	14832.4
822.4786	577.2299	15458.85	14618.55
822.6231	579.3648	15486.2	14646.35
822.7675	581.4992	15558.65	14717.9
822.912	583.6329	15803.45	14965.5
823.0565	585.766	16049.35	15209.05
823.201	587.8985	16143.1	15303.75
823.3454	590.0304	16163.05	15297.9
823.4899	592.1616	16074.25	15230.95
823.6345	594.2922	15970.75	15130.1
823.779	596.4222	15787.65	14944
823.9235	598.5515	15593.55	14750.4
824.068	600.6802	15380.95	14537.15
824.2126	602.8083	15185.7	14340.35
824.3571	604.9358	15139.9	14292.45
824.5017	607.0626	15038.2	14193.25
824.6462	609.1888	14924.55	14076.55
824.7908	611.3144	14835.25	13987.75
824.9354	613.4393	14663.3	13817
825.08	615.5636	14540.7	13696.6
825.2246	617.6873	14419.25	13576.1
825.3692	619.8103	14337.25	13489.9
825.5138	621.9327	14261.6	13413.45
825.6584	624.0544	14225.15	13379.95
825.803	626.1756	14196.8	13349.95
825.9477	628.2961	14171	13322.8
826.0923	630.4159	14119.7	13271.65
826.237	632.5351	14023.7	13177.95
826.3816	634.6537	13949.35	13101.65
826.5263	636.7716	13912.15	13063.3
826.6709	638.8889	13896.2	13049.15
826.8156	641.0056	13907.3	13059.15
826.9603	643.1216	13869.2	13019.2
827.105	645.237	13914.1	13063.4
827.2497	647.3518	13887.7	13036.45
827.3944	649.4659	13905.05	13054.35
827.5391	651.5793	13890.15	13038.8
827.6838	653.6922	13862.35	13013.65
827.8285	655.8043	13821.55	12972.4
827.9733	657.9159	13793	12942.15
828.118	660.0268	13706.3	12850.85
828.2627	662.137	13627.05	12775.05
828.4075	664.2466	13575	12721.6
828.5522	666.3556	13553.4	12698.75
828.697	668.4639	13529.7	12671.55
828.8418	670.5716	13582.05	12730.45
828.9865	672.6786	13632.1	12776.05
829.1313	674.785	13681.3	12825.9
829.2761	676.8907	13770.35	12917.1
829.4209	678.9958	13821.35	12968.55
829.5657	681.1002	13818.15	12961.45
829.7105	683.204	13768.7	12909.85
829.8553	685.3072	13699.65	12844.45
830.0001	687.4097	13604.75	12747.4
830.1449	689.5115	13524	12663.8
830.2898	691.6127	13470.85	12615.6
830.4346	693.7132	13331.8	12474.25
830.5794	695.8131	13320.6	12443
830.7243	697.9123	13228.8	12370.65
830.8691	700.0109	13183.05	12324.65
831.014	702.1089	13155.2	12300.2
831.1588	704.2061	13149.75	12292.35
831.3037	706.3028	13172.55	12315.15
831.4486	708.3987	13180.15	12322.35
831.5935	710.4941	13280.95	12423.45
831.7383	712.5887	13494.6	12634
831.8832	714.6827	13791.9	12929.05
832.0281	716.7761	14155.25	13292.55
832.173	718.8688	14535.75	13675.1
832.3179	720.9608	14737.2	13874.75
832.4628	723.0522	14745.7	13883.4
832.6077	725.1429	14473.4	13613.95
832.7527	727.233	14108.3	13248.15
832.8976	729.3224	13794.5	12933.85
833.0425	731.4112	13480.3	12617.2
833.1874	733.4993	13211.6	12350.35
833.3324	735.5867	13076.95	12214.05
833.4773	737.6735	12964.1	12100.35
833.6222	739.7596	12895.15	12032.6
833.7672	741.845	12864.65	12000.65
833.9122	743.9298	12812.2	11949.05
834.0571	746.014	12780.8	11920.55
834.2021	748.0974	12811.4	11946.4
834.347	750.1802	12791.45	11929.55
834.492	752.2624	12804.15	11942.5
834.637	754.3439	12806	11939.9
834.782	756.4247	12875.15	12004.1
834.9269	758.5048	12968.6	12107.7
835.0719	760.5843	13154.7	12289.75
835.2169	762.6631	13424.55	12559.35
835.3619	764.7413	13884.75	13020.5
835.5069	766.8188	14448.4	13582.45
835.6519	768.8956	14896.75	14029.95
835.7969	770.9718	15215.45	14350.75
835.9419	773.0473	15073.55	14209.6
836.0869	775.1221	14680.05	13816.55
836.232	777.1962	14275.55	13410.9
836.377	779.2697	14043.4	13177.95
836.522	781.3426	14134.8	13253.25
836.667	783.4147	14417.8	13553.15
836.8121	785.4862	14740.7	13876.1
836.9571	787.557	14744.05	13877.3
837.1021	789.6271	14320.55	13454.5
837.2472	791.6966	13754.15	12886.2
837.3922	793.7654	13197.05	12328.65
837.5373	795.8335	12861.2	11994.5
837.6823	797.901	12652.2	11786.05
837.8274	799.9678	12576.25	11708.25
837.9724	802.0339	12556.25	11693
838.1175	804.0993	12621.25	11744.75
838.2626	806.1641	12585.3	11721.95
838.4076	808.2282	12523.95	11656.75
838.5527	810.2916	12429.3	11560.55
838.6978	812.3544	12310.55	11446.6
838.8428	814.4164	12196.65	11330.45
838.9879	816.4778	12204.9	11338.2
839.133	818.5385	12194.15	11326.2
839.2781	820.5986	12209.45	11341.4
839.4232	822.658	12290.75	11424.9
839.5682	824.7166	12351.2	11484
839.7133	826.7747	12510.7	11645.35
839.8584	828.832	12672.7	11803.95
840.0035	830.8886	12779.05	11907.5
840.1486	832.9446	12899.1	12030.6
840.2937	834.9999	12959.7	12093.35
840.4388	837.0545	12980.1	12107.7
840.5839	839.1085	12992.45	12125.7
840.729	841.1618	12973.95	12100
840.8741	843.2143	12948.8	12082.05
841.0192	845.2662	12848.25	11979.2
841.1643	847.3175	12744.55	11878.9
841.3095	849.368	12614	11744.7
841.4546	851.4179	12502.5	11633.25
841.5997	853.467	12337.4	11466.6
841.7448	855.5155	12230.45	11360.35
841.8899	857.5633	12094	11223.8
842.0351	859.6105	11950.4	11081.6
842.1802	861.6569	11854.35	10985.25
842.3253	863.7027	11782.15	10913.2
842.4704	865.7478	11786.75	10916.05
842.6156	867.7922	11784.4	10913.25
842.7607	869.8359	11805.05	10933.6
842.9058	871.8789	11902.35	11031.05
843.0509	873.9212	12126.2	11222.05
843.1961	875.9629	12287.8	11415.95
843.3412	878.0039	12439.15	11567.15
843.4863	880.0441	12527.3	11657.35
843.6315	882.0837	12485.55	11611.8
843.7766	884.1226	12375.95	11503.1
843.9218	886.1609	12213.75	11345.9
844.0669	888.1984	12080.4	11208.5
844.212	890.2352	12071	11203.05
844.3572	892.2714	11978.15	11102.8
844.5023	894.3069	11944.15	11071.55
844.6475	896.3416	11838.7	10968
844.7926	898.3757	11818.35	10944.35
844.9377	900.4091	11801.6	10930.2
845.0829	902.4418	11808.4	10931.85
845.228	904.4739	11785.55	10913.4
845.3732	906.5052	11778.55	10905.35
845.5183	908.5358	11656.05	10783.9
845.6635	910.5658	11493.5	10621.2
845.8086	912.595	11322.75	10450.35
845.9538	914.6236	11130	10258.4
846.0989	916.6515	11109.7	10237.6
846.2441	918.6786	11114.1	10238.2
846.3892	920.7051	11181.05	10307.05
846.5344	922.7309	11262.65	10388.3
846.6795	924.756	11344.9	10469.9
846.8246	926.7804	11431.75	10555
846.9698	928.8041	11343.4	10467.6
847.1149	930.8272	11355.4	10482.1
847.2601	932.8495	11294.45	10419
847.4052	934.8711	11194.7	10319.5
847.5504	936.892	11052.3	10176.25
847.6955	938.9123	10880.15	10005.35
847.8407	940.9318	10730.95	9855.95
847.9858	942.9506	10593.2	9717.4
848.131	944.9688	10484.7	9609.3
848.2761	946.9862	10436.65	9564.3
848.4213	949.003	10358.6	9483.3
848.5664	951.019	10370.6	9496.3
848.7115	953.0344	10375.55	9500.5
848.8567	955.0491	10411.55	9535.6
849.0018	957.063	10458.55	9585
849.147	959.0763	10580.95	9708.85
849.2921	961.0888	10617.45	9741.3
849.4373	963.1007	10680.55	9803.95
849.5824	965.1119	10732.85	9856.6
849.7275	967.1223	10722.8	9848.6
849.8727	969.1321	10746	9872.75
850.0178	971.1412	10759.85	9883.15
850.1629	973.1495	10801.05	9925.85
850.3081	975.1572	10824.25	9913.2
850.4532	977.1641	10833.8	9958.3
850.5983	979.1704	10788.45	9914
850.7435	981.1759	10768.9	9892.35
850.8886	983.1808	10824.4	9948.75
851.0337	985.1849	10931.6	10044
851.1788	987.1884	11102.2	10224.1
851.324	989.1911	11279.65	10402.2
851.4691	991.1932	11428.25	10551.25
851.6142	993.1945	11457.4	10579.6
851.7593	995.1951	11409.7	10531.8
851.9045	997.1951	11351.35	10471.15
852.0496	999.1943	11282.15	10404.65
852.1947	1001.1928	11231.75	10354.4
852.3398	1003.1906	11199.85	10324.8
852.4849	1005.1877	11243.8	10366.05
852.63	1007.1841	11199.35	10324.15
852.7751	1009.1798	11106.9	10229.25
852.9202	1011.1748	10896.7	10022.1
853.0653	1013.1691	10691.25	9813.65
853.2104	1015.1627	10465.1	9587.25
853.3555	1017.1556	10249.1	9373.25
853.5006	1019.1477	10138.65	9262.55
853.6457	1021.1392	10051.15	9173.95
853.7908	1023.1299	10045.9	9169.45
853.9359	1025.12	10050.1	9171.4
854.081	1027.1093	10130.1	9255.05
854.2261	1029.0979	10207.3	9330.8
854.3712	1031.0859	10261.15	9385.35
854.5163	1033.0731	10241.35	9364.85
854.6613	1035.0596	10147.3	9271.75
854.8064	1037.0454	9977.3	9100.8
854.9515	1039.0304	9859.6	8980.8
855.0965	1041.0148	9731.45	8853.25
855.2416	1042.9985	9659.15	8782.3
855.3867	1044.9814	9606.75	8731.3
855.5317	1046.9636	9531.1	8652.9
855.6768	1048.9452	9476.9	8600.65
855.8219	1050.926	9496.9	8621.9
855.9669	1052.9061	9462.3	8585.65
856.112	1054.8855	9441.35	8564.5
856.257	1056.8642	9498.3	8620.85
856.4021	1058.8421	9531.3	8654.1
856.5471	1060.8194	9556.1	8678.35
856.6921	1062.7959	9566.5	8688.1
856.8372	1064.7717	9601.15	8720.9
856.9822	1066.7469	9612.05	8732.7
857.1272	1068.7213	9562.65	8682.85
857.2723	1070.695	9539.15	8664.9
857.4173	1072.6679	9472.2	8593.1
857.5623	1074.6402	9406.65	8529.2
857.7073	1076.6117	9371.75	8487.2
857.8523	1078.5826	9388.25	8511.9
857.9973	1080.5527	9435.25	8554.9
858.1423	1082.5221	9575.2	8694.65
858.2873	1084.4908	9775.15	8896.45
858.4323	1086.4587	9965.5	9085.9
858.5773	1088.426	10092.35	9214.15
858.7223	1090.3925	10101.35	9218.8
858.8673	1092.3584	10023.45	9146.7
859.0123	1094.3235	9867.1	8990.1
859.1573	1096.2879	9743.9	8863.9
859.3022	1098.2515	9703.2	8825.6
859.4472	1100.2145	9770.3	8891.2
859.5922	1102.1767	9820.95	8940.05
859.7371	1104.1382	9966.7	9087.15
859.8821	1106.099	10165.9	9284.9
860.027	1108.0591	10406.65	9529.75
860.172	1110.0185	10525.9	9646.2
860.3169	1111.9771	10515.55	9637.6
860.4619	1113.9351	10307.4	9428.8
860.6068	1115.8923	9969.95	9088
860.7517	1117.8488	9626.05	8747.15
860.8967	1119.8045	9357.25	8479.15
861.0416	1121.7596	9214.75	8333.15
861.1865	1123.7139	9134.15	8258.35
861.3314	1125.6675	9151.1	8271.6
861.4763	1127.6204	9184.7	8307.85
861.6212	1129.5726	9203.05	8322.8
861.7661	1131.524	9192	8314.5
861.911	1133.4748	9219.35	8339.35
862.0559	1135.4248	9209.3	8325.6
862.2008	1137.3741	9213.05	8334.85
862.3457	1139.3226	9192.05	8310.4
862.4905	1141.2705	9136.95	8259.15
862.6354	1143.2176	9075.55	8191.7
862.7803	1145.164	9060.95	8180.9
862.9251	1147.1097	9078.3	8199.15
863.07	1149.0546	9068.45	8186.7
863.2148	1150.9989	8951.35	8072.55
863.3597	1152.9424	8771.2	7888.6
863.5045	1154.8852	8591.05	7711.95
863.6493	1156.8272	8458.65	7579.85
863.7942	1158.7686	8395.45	7507.85
863.939	1160.7092	8336.05	7456.2
864.0838	1162.6491	8349.7	7470
864.2286	1164.5883	8441.85	7560.6
864.3734	1166.5267	8497.4	7615.5
864.5182	1168.4644	8614.15	7734.3
864.663	1170.4014	8792.3	7908.15
864.8078	1172.3377	9032.75	8155.35
864.9526	1174.2732	9250.65	8368.6
865.0974	1176.2081	9489.95	8609.9
865.2421	1178.1421	9683.35	8799.65
865.3869	1180.0755	9863.2	8983.25
865.5317	1182.0082	9906.45	9028.05
865.6764	1183.9401	9861.55	8978.45
865.8212	1185.8713	9707.6	8828
865.9659	1187.8017	9422.1	8540.9
866.1106	1189.7315	9188.2	8308.1
866.2554	1191.6605	8936.55	8028.5
866.4001	1193.5888	8701.45	7820.2
866.5448	1195.5163	8578.7	7697.5
866.6895	1197.4432	8485.7	7604.65
866.8342	1199.3693	8435.85	7557.45
866.9789	1201.2947	8397.95	7515.1
867.1236	1203.2193	8373.35	7493.85
867.2683	1205.1432	8383.95	7504.05
867.413	1207.0664	8408.4	7528.05
867.5576	1208.9889	8471.8	7587.35
867.7023	1210.9106	8526.35	7644.9
867.847	1212.8316	8579.65	7699.55
867.9916	1214.7519	8666.8	7775.2
868.1363	1216.6715	8676.3	7795.55
868.2809	1218.5903	8672.95	7791.7
868.4255	1220.5084	8619.7	7740.45
868.5701	1222.4257	8600.4	7720.85
868.7148	1224.3424	8549.35	7672.8
868.8594	1226.2583	8597.95	7710.4
869.004	1228.1735	8675.55	7792.3
869.1486	1230.0879	8808.95	7928.35
869.2932	1232.0016	8926.1	8047.2
869.4377	1233.9146	8950.85	8069.45
869.5823	1235.8269	8836.1	7955.7
869.7269	1237.7384	8689.55	7810.95
869.8715	1239.6492	8504.15	7624.25
870.016	1241.5592	8386.75	7504.65
870.1606	1243.4686	8304.55	7424.1
870.3051	1245.3772	8256.6	7374.35
870.4496	1247.285	8209.45	7328.25
870.5941	1249.1922	8171.1	7291.8
870.7387	1251.0986	8167.5	7287.85
870.8832	1253.0042	8152.4	7271.55
871.0277	1254.9092	8203	7322.65
871.1722	1256.8134	8289.15	7408.25
871.3167	1258.7169	8449	7568.3
871.4611	1260.6196	8590.9	7709.7
871.6056	1262.5216	8795.05	7911.7
871.7501	1264.4229	8954.85	8075.55
871.8945	1266.3234	9066.4	8186.35
872.039	1268.2232	9129.8	8245.35
872.1834	1270.1223	9112.25	8230.2
872.3278	1272.0207	9070.7	8189.85
872.4723	1273.9183	9049.6	8161
872.6167	1275.8151	8963.5	8084.1
872.7611	1277.7113	8877	7994.55
872.9055	1279.6067	8709.8	7830
873.0499	1281.5014	8597.65	7713.35
873.1943	1283.3953	8502.25	7618.45
873.3386	1285.2885	8404.35	7523.85
873.483	1287.181	8398.85	7516.35
873.6274	1289.0727	8413.6	7533.5
873.7717	1290.9637	8469.35	7587.9
873.9161	1292.854	8582	7701.8
874.0604	1294.7435	8734.7	7854.45
874.2047	1296.6323	8948.15	8065.85
874.349	1298.5204	9170.15	8283.25
874.4933	1300.4077	9408.7	8527.25
874.6376	1302.2943	9559.95	8677.1
874.7819	1304.1802	9614.35	8732.8
874.9262	1306.0653	9522.7	8641.65
875.0705	1307.9497	9343.6	8461.2
875.2147	1309.8333	9254.75	8371.65
875.359	1311.7162	9211.4	8326.8
875.5032	1313.5984	9286.95	8404.25
875.6475	1315.4798	9404.9	8512.15
875.7917	1317.3605	9562.5	8664.2
875.9359	1319.2405	9679.95	8797.35
876.0801	1321.1197	9674.5	8792.15
876.2243	1322.9982	9618.35	8731.85
876.3685	1324.876	9572.5	8690.45
876.5127	1326.753	9518.85	8635.25
876.6569	1328.6293	9520.65	8636.1
876.801	1330.5048	9541.15	8657.95
876.9452	1332.3796	9498.65	8619.15
877.0893	1334.2537	9478.35	8573
877.2335	1336.127	9427.4	8544.85
877.3776	1337.9996	9394.95	8513.2
877.5217	1339.8714	9353.25	8471.9
877.6658	1341.7426	9321	8395.3
877.8099	1343.6129	9245.1	8362.95
877.954	1345.4826	9201.05	8317.35
878.0981	1347.3515	9159.75	8276.05
878.2422	1349.2196	9114.4	8230.9
878.3862	1351.087	9107.05	8225.9
878.5303	1352.9537	9123.15	8239
878.6743	1354.8197	9269.4	8387.65
878.8184	1356.6849	9467.85	8586.8
878.9624	1358.5493	9546.6	8664.75
879.1064	1360.4131	9541	8658.9
879.2504	1362.276	9468.2	8582.95
879.3944	1364.1383	9316.9	8436.85
879.5384	1365.9998	9107.6	8220.4
879.6823	1367.8606	8799.85	7917.7
879.8263	1369.7206	8520.5	7636.5
879.9702	1371.5799	8341.3	7456.5
880.1142	1373.4384	8170.1	7288.35
880.2581	1375.2962	8064.3	7180.8
880.402	1377.1533	7795.05	6912.2
880.5459	1379.0096	7518.25	6636.05
880.6898	1380.8652	7228.95	6347.6
880.8337	1382.7201	6996	6113.65
880.9776	1384.5742	6764.8	5882.05
881.1215	1386.4275	6626.25	5742.15
881.2653	1388.2802	6491	5607.65
881.4092	1390.132	6407.05	5523.55
881.553	1391.9832	6352.05	5468.45
881.6968	1393.8336	6290.75	5407.85
881.8406	1395.6832	6251.1	5368.1
881.9844	1397.5322	6211.85	5329.1
882.1282	1399.3803	6193.05	5305.8
882.272	1401.2278	6171.8	5287.15
882.4158	1403.0745	6177.7	5295.1
882.5595	1404.9204	6177.5	5295.25
882.7033	1406.7656	6183.75	5303
882.847	1408.6101	6204.6	5321.8
882.9908	1410.4538	6214.55	5332.45
883.1345	1412.2968	6268.9	5386.75
883.2782	1414.139	6335.5	5452.85
883.4219	1415.9805	6407.8	5527.25
883.5656	1417.8213	6514.7	5623.05
883.7092	1419.6613	6637.4	5756.1
883.8529	1421.5006	6851.1	5968.85
883.9965	1423.3391	7091.3	6207.95
884.1402	1425.1769	7458.45	6575.55
884.2838	1427.0139	7964	7077.75
884.4274	1428.8502	8560.05	7675.9
884.571	1430.6858	9170.05	8287.8
884.7146	1432.5206	9607.1	8725.85
884.8582	1434.3547	9852.2	8969.6
885.0018	1436.188	9871.9	8990.05
885.1453	1438.0206	9795.6	8911.45
885.2889	1439.8524	9640.15	8759.8
885.4324	1441.6835	9537.45	8652.7
885.5759	1443.5139	9430.5	8543.6
885.7194	1445.3435	9353.9	8469.75
885.8629	1447.1724	9329.45	8448.15
886.0064	1449.0005	9232.6	8351.15
886.1499	1450.8279	9162.85	8279.2
886.2933	1452.6545	9127.45	8245.5
886.4368	1454.4804	9149.95	8267.85
886.5802	1456.3056	9155.5	8265.3
886.7237	1458.13	9029.95	8148.8
886.8671	1459.9536	8801.25	7915.45
887.0105	1461.7766	8447.6	7564.5
887.1539	1463.5987	8011	7126.95
887.2972	1465.4202	7623.35	6741.4
887.4406	1467.2409	7276.95	6394.3
887.584	1469.0608	6972.25	6088.75
887.7273	1470.88	6741	5855.4
887.8706	1472.6984	6502.3	5621.95
888.0139	1474.5161	6311.85	5425.8
888.1572	1476.3331	6160.25	5279.6
888.3005	1478.1493	6020	5137.05
888.4438	1479.9648	5924.5	5042.6
888.5871	1481.7795	5824.9	4941.9
888.7303	1483.5935	5778.7	4894.35
888.8736	1485.4067	5691.8	4810.25
889.0168	1487.2192	5636.7	4753.45
889.16	1489.031	5629.95	4745.5
889.3032	1490.842	5566.05	4684.25
889.4464	1492.6522	5542.7	4657.9
889.5896	1494.4618	5501.9	4619.7
889.7327	1496.2705	5475	4592.2
889.8759	1498.0785	5449.15	4566.95
890.019	1499.8858	5427.9	4543.95
890.1622	1501.6924	5407.05	4525.5
890.3053	1503.4981	5386.2	4503.85
890.4484	1505.3032	5360	4477.5
890.5914	1507.1075	5326.45	4443.6
890.7345	1508.911	5292.15	4410.35
890.8776	1510.7138	5292.35	4406.95
891.0206	1512.5159	5242.05	4359.6
891.1637	1514.3172	5201.85	4317.95
891.3067	1516.1178	5161.9	4279.25
891.4497	1517.9176	5152.55	4267.65
891.5927	1519.7166	5116.4	4233.95
891.7357	1521.515	5087.6	4198.55
891.8786	1523.3126	5076.4	4192.3
892.0216	1525.1094	5044.95	4159.45
892.1645	1526.9055	5009.6	4127.65
892.3074	1528.7008	5008.05	4123.8
892.4503	1530.4954	5006.6	4124.85
892.5932	1532.2893	4993.65	4111.5
892.7361	1534.0824	4956.65	4067.65
892.879	1535.8747	4951.85	4069.65
893.0218	1537.6663	4947.25	4063.65
893.1647	1539.4572	4932.65	4047.5
893.3075	1541.2473	4942.75	4059.2
893.4503	1543.0367	4934.75	4051.75
893.5931	1544.8253	4909.1	4021.35
893.7359	1546.6132	4939.4	4052.45
893.8787	1548.4003	4943.75	4052.25
894.0214	1550.1867	4942.55	4049.7
894.1642	1551.9723	4965.35	4077
894.3069	1553.7572	4992.2	4107.4
894.4496	1555.5414	5025.5	4142.55
894.5923	1557.3247	5069.95	4187
894.735	1559.1074	5121.7	4238.8
894.8777	1560.8893	5170.1	4288.75
895.0204	1562.6705	5250.8	4367.4
895.163	1564.4509	5324.6	4440.8
895.3056	1566.2305	5404.15	4523.8
895.4482	1568.0094	5468.05	4587.05
895.5908	1569.7876	5562.3	4681.8
895.7334	1571.565	5611.05	4728.2
895.876	1573.3417	5629.55	4746.6
896.0186	1575.1176	5612.65	4728.45
896.1611	1576.8928	5595.6	4711.35
896.3036	1578.6672	5494.85	4611.65
896.4461	1580.4409	5396.65	4516.05
896.5886	1582.2138	5305.9	4420.9
896.7311	1583.986	5194	4311.05
896.8736	1585.7575	5103.15	4222.1
897.0161	1587.5282	5011.85	4128.2
897.1585	1589.2981	4982.15	4102
897.3009	1591.0673	4943.2	4061.8
897.4433	1592.8358	4946.4	4064.05
897.5857	1594.6035	4938.15	4053.15
897.7281	1596.3704	4952	4068.4
897.8705	1598.1366	4966.75	4085.15
898.0128	1599.9021	5007.3	4125
898.1551	1601.6668	5023.5	4137.25
898.2975	1603.4308	5094.55	4213
898.4398	1605.194	5196.95	4309.1
898.5821	1606.9564	5259.15	4375.75
898.7243	1608.7182	5396.45	4510.5
898.8666	1610.4791	5546.4	4664.25
899.0088	1612.2394	5705	4820.5
899.1511	1613.9988	5902.2	5019.65
899.2933	1615.7576	6130.35	5247.55
899.4355	1617.5156	6334.55	5445.75
899.5776	1619.2728	6566.05	5682.6
899.7198	1621.0293	6706.4	5824.8
899.862	1622.785	6769	5881.55
900.0041	1624.54	6713.75	5827.35
900.1462	1626.2942	6600.9	5716.1
900.2883	1628.0477	6350.4	5464.95
900.4304	1629.8005	6115.8	5231.75
900.5725	1631.5525	5903.5	5022.05
900.7145	1633.3037	5725.15	4842.35
900.8566	1635.0542	5582.45	4698.4
900.9986	1636.804	5470.8	4586.75
901.1406	1638.553	5451.9	4498.6
901.2826	1640.3013	5358.9	4476.75
901.4245	1642.0488	5310.1	4426.3
901.5665	1643.7955	5353	4471.9
901.7085	1645.5416	5376.05	4492.4
901.8504	1647.2868	5434.45	4551.7
901.9923	1649.0313	5548.5	4667.35
902.1342	1650.7751	5680.6	4796.75
902.2761	1652.5181	5880.7	4999.1
902.4179	1654.2604	6119.35	5234.8
902.5598	1656.0019	6404.2	5525.45
902.7016	1657.7427	6750.8	5867
902.8434	1659.4828	7084.05	6201.35
902.9852	1661.222	7277.2	6394.85
903.127	1662.9606	7311.25	6428.6
903.2687	1664.6984	7123.3	6239.2
903.4105	1666.4354	6735.8	5853.4
903.5522	1668.1717	6248.5	5367.25
903.6939	1669.9072	5781.15	4900.4
903.8356	1671.642	5378.25	4494.3
903.9773	1673.3761	5061.4	4179.3
904.119	1675.1094	4828.2	3947.85
904.2606	1676.8419	4647.95	3764.9
904.4022	1678.5737	4511.65	3631.15
904.5439	1680.3048	4398.3	3517.5
904.6855	1682.0351	4290.6	3408.7
904.827	1683.7646	4235.35	3351.65
904.9686	1685.4934	4184.25	3304.2
905.1101	1687.2215	4130.8	3248.3
905.2517	1688.9488	4107.75	3225.95
905.3932	1690.6754	4066.3	3185.8
905.5347	1692.4012	4046.2	3164.45
905.6761	1694.1263	4035.65	3154.85
905.8176	1695.8506	4008	3125.2
905.9591	1697.5742	3976.7	3094.35
906.1005	1699.297	3937.9	3054.2
906.2419	1701.0191	3926.8	3045.55
906.3833	1702.7404	3903.85	3023.3
906.5246	1704.461	3869.65	2988.15
906.666	1706.1808	3851.85	2968.15
906.8073	1707.8999	3850	2965.65
906.9487	1709.6182	3820.05	2937.3
907.09	1711.3358	3821.4	2939.8
907.2313	1713.0527	3784.35	2903.05
907.3725	1714.7688	3765.4	2879.6
907.5138	1716.4841	3751.2	2869
907.655	1718.1987	3751.95	2864.9
907.7962	1719.9126	3733.8	2854.35
907.9374	1721.6257	3716	2830.35
908.0786	1723.338	3718.2	2833.95
908.2198	1725.0496	3691.95	2808.6
908.3609	1726.7605	3677.15	2797.15
908.502	1728.4706	3678.75	2796.4
908.6431	1730.18	3648.35	2764.85
908.7842	1731.8886	3639.9	2758.6
908.9253	1733.5964	3646.4	2759.9
909.0664	1735.3036	3641.85	2755.85
909.2074	1737.0099	3617.05	2736.05
909.3484	1738.7156	3608.3	2728.9
909.4894	1740.4204	3588.25	2703.2
909.6304	1742.1246	3589.55	2707.45
909.7714	1743.8279	3553.6	2674.05
909.9123	1745.5306	3560.7	2677.05
910.0532	1747.2325	3537.35	2656.7
910.1941	1748.9336	3524.3	2643.3
910.335	1750.634	3520	2636.45
910.4759	1752.3336	3518.05	2636.8
910.6168	1754.0325	3514.85	2635.05
910.7576	1755.7307	3481.8	2600.2
910.8984	1757.4281	3499.75	2619.75
911.0392	1759.1247	3500.35	2608.75
911.18	1760.8206	3493.75	2608.7
911.3208	1762.5158	3490.5	2605.25
911.4615	1764.2102	3465	2584.5
911.6022	1765.9039	3451.55	2571.05
911.7429	1767.5968	3439.75	2557.7
911.8836	1769.289	3432.75	2549.5
912.0243	1770.9804	3419.45	2534.6
912.1649	1772.6711	3423.65	2543.2
912.3056	1774.361	3409.1	2527.15
912.4462	1776.0502	3410.05	2527.2
912.5868	1777.7386	3409.35	2525.25
912.7274	1779.4263	3393.35	2512.65
912.8679	1781.1132	3400.55	2518.55
913.0084	1782.7994	3383.35	2501.45
913.149	1784.4849	3381.05	2498.8
913.2895	1786.1696	3393.2	2493.3
913.4299	1787.8535	3351.95	2471.4
913.5704	1789.5367	3346.25	2462.65
913.7108	1791.2192	3359.95	2478.7
913.8513	1792.9009	3351.45	2444.25
913.9917	1794.5818	3336.75	2454.55
914.132	1796.2621	3316.9	2435.95
914.2724	1797.9415	3312.25	2430.4
914.4128	1799.6202	3320.05	2439.75
914.5531	1801.2982	3317.8	2436.4
914.6934	1802.9755	3298.85	2416.15
914.8337	1804.6519	3299.4	2418.45
914.9739	1806.3277	3271.4	2389.9
915.1142	1808.0027	3257.2	2375.85
915.2544	1809.6769	3272.8	2390.4
915.3946	1811.3504	3262.1	2381.2
915.5348	1813.0231	3271.6	2389.3
915.675	1814.6951	3243.8	2361.8
915.8151	1816.3664	3257.2	2375.25
915.9553	1818.0369	3253.25	2370.65
916.0954	1819.7067	3233.85	2353.75
916.2355	1821.3757	3238.4	2355.55
916.3755	1823.044	3224.3	2342.1
916.5156	1824.7115	3214.3	2330.7
916.6556	1826.3783	3203.45	2323.65
916.7956	1828.0443	3204.2	2324.35
916.9356	1829.7096	3207.2	2324.9
917.0756	1831.3741	3207.5	2323.65
917.2155	1833.0379	3194.15	2313.65
917.3555	1834.701	3181.2	2297.4
917.4954	1836.3633	3174.05	2290.35
917.6353	1838.0248	3175.8	2292.1
917.7751	1839.6856	3170.1	2287.65
917.915	1841.3457	3160.8	2282.05
918.0548	1843.005	3173.35	2291.9
918.1946	1844.6636	3155.25	2277.2
918.3344	1846.3214	3146.45	2264.8
918.4742	1847.9785	3169.3	2286.95
918.6139	1849.6349	3148.65	2265.4
918.7537	1851.2904	3166.1	2275.95
918.8934	1852.9453	3139.8	2259.9
919.0331	1854.5994	3138.25	2253.8
919.1727	1856.2528	3139.1	2252.55
919.3124	1857.9054	3119.4	2238.85
919.452	1859.5572	3115.4	2233.25
919.5916	1861.2083	3120.05	2237.2
919.7312	1862.8587	3107.95	2227.35
919.8708	1864.5084	3097.9	2214.7
920.0103	1866.1572	3093.5	2214.55
920.1498	1867.8054	3095.25	2214.45
920.2893	1869.4528	3081.8	2201.45
920.4288	1871.0994	3072.15	2192.05
920.5683	1872.7453	3073.45	2192
920.7077	1874.3905	3085.95	2187.15
920.8471	1876.0349	3068.05	2184.85
920.9865	1877.6786	3043.6	2162.15
921.1259	1879.3215	3044.6	2164.95
921.2653	1880.9637	3045.25	2162.65
921.4046	1882.6051	3037	2155.75
921.5439	1884.2458	3033.15	2148.75
921.6832	1885.8858	3024.5	2141.3
921.8225	1887.525	3007.35	2126.3
921.9617	1889.1634	2998.65	2117.3
922.101	1890.8011	2996.95	2115.25
922.2402	1892.4381	2993.1	2111.4
922.3794	1894.0743	2998.15	2118.1
922.5185	1895.7098	2983.25	2103.1
922.6577	1897.3446	2969.6	2086
922.7968	1898.9786	2959.8	2076.45
922.9359	1900.6118	2969.05	2088.45
923.075	1902.2443	2951.55	2066.05
923.214	1903.8761	2957.15	2077
923.3531	1905.5071	2937.55	2055.7
923.4921	1907.1374	2941.55	2059.3
923.6311	1908.7669	2933.8	2052.45
923.77	1910.3957	2935	2050.35
923.909	1912.0237	2919.5	2037.65
924.0479	1913.651	2925.8	2043.5
924.1868	1915.2776	2915	2035.75
924.3257	1916.9034	2911.3	2031.4
924.4646	1918.5285	2894.45	2015.15
924.6034	1920.1528	2891.6	2008.5
924.7422	1921.7764	2876.75	1996.1
924.881	1923.3992	2871.6	1990.8
925.0198	1925.0213	2864.65	1982.25
925.1586	1926.6427	2853.85	1974.7
925.2973	1928.2633	3065.2	1952.45
925.436	1929.8832	2884.7	1999.1
925.5747	1931.5023	2837.8	1958.05
925.7134	1933.1207	2836.5	1956.45
925.852	1934.7383	2839.7	1957.05
925.9906	1936.3552	2817.2	1937.55
926.1292	1937.9714	2821.55	1940.45
926.2678	1939.5868	2816.75	1933.35
926.4064	1941.2015	2804.35	1923.4
926.5449	1942.8154	2793.2	1911.9
926.6834	1944.4286	2801.15	1919.7
926.8219	1946.041	2795.35	1890.25
926.9604	1947.6528	2774.1	1887.95
927.0988	1949.2637	2759.8	1879.9
927.2372	1950.8739	2752.95	1870.25
927.3756	1952.4834	2743.5	1864
927.514	1954.0921	2740.7	1858.75
927.6523	1955.7001	2738.1	1852.65
927.7907	1957.3074	2730.7	1850.35
927.929	1958.9139	2726	1844.3
928.0673	1960.5197	2718.5	1836.35
928.2055	1962.1247	2705.75	1824.85
928.3438	1963.729	2700.65	1818.95
928.482	1965.3325	2702.7	1795.9
928.6202	1966.9353	2698.4	1815.5
928.7584	1968.5374	2686.95	1804.2
928.8965	1970.1387	2667.95	1787.75
929.0346	1971.7393	2670.95	1789.5
929.1727	1973.3392	2661.75	1780.75
929.3108	1974.9383	2661.9	1779.8
929.4489	1976.5366	2641.55	1760.6
929.5869	1978.1342	2646.5	1762.9
929.7249	1979.7311	2648.05	1765.65
929.8629	1981.3273	2641.35	1759.9
930.0009	1982.9227	2635.05	1751.9
930.1388	1984.5173	2623.8	1742.95
930.2767	1986.1112	2619.45	1738.05
930.4146	1987.7044	2628.2	1746
930.5525	1989.2968	2620.6	1737.15
930.6904	1990.8885	2609.65	1725
930.8282	1992.4795	2610.25	1726.45
930.966	1994.0697	2600.55	1719.9
931.1038	1995.6592	2604.05	1722.05
931.2415	1997.2479	2585.65	1705.6
931.3793	1998.8359	2579.45	1696.6
931.517	2000.4232	2579.5	1697.75
931.6547	2002.0097	2565.25	1685.15
931.7923	2003.5955	2550.2	1667.6
931.93	2005.1805	2564.4	1680.3
932.0676	2006.7648	2552.15	1671.35
932.2052	2008.3484	2551.5	1667.55
932.3427	2009.9312	2554.2	1670.8
932.4803	2011.5133	2550.25	1669.6
932.6178	2013.0946	2541.75	1658.95
932.7553	2014.6752	2536.85	1656.25
932.8928	2016.2551	2541.05	1656.8
933.0302	2017.8342	2531.25	1650.4
933.1676	2019.4126	2519.85	1639.05
933.305	2020.9902	2512.85	1631.25
933.4424	2022.5672	2510.95	1625.7
933.5798	2024.1433	2502.25	1615
933.7171	2025.7188	2505.6	1625.2
933.8544	2027.2935	2501.35	1618.15
933.9917	2028.8674	2495.25	1613.3
934.129	2030.4406	2488.85	1607.1
934.2662	2032.0131	2487.9	1608.1
934.4034	2033.5849	2480.1	1596.35
934.5406	2035.1559	2478.2	1597.1
934.6778	2036.7261	2463.4	1581.6
934.8149	2038.2957	2453	1570.1
934.952	2039.8645	2459.6	1578.9
935.0891	2041.4325	2459.9	1574.35
935.2262	2042.9998	2463.65	1584.15
935.3632	2044.5664	2443.55	1558.6
935.5002	2046.1323	2443	1562.3
935.6372	2047.6974	2441.4	1559.05
935.7742	2049.2617	2438.55	1559.55
935.9111	2050.8254	2465.95	1548
936.048	2052.3883	2430.1	1547.6
936.1849	2053.9504	2420.95	1538.7
936.3218	2055.5118	2422.2	1538.85
936.4586	2057.0725	2410.45	1524.95
936.5955	2058.6325	2414.55	1532.5
936.7323	2060.1917	2398.45	1517.2
936.869	2061.7502	2409.35	1525.7
937.0058	2063.3079	2401.6	1517.7
937.1425	2064.8649	2392.25	1507.15
937.2792	2066.4212	2389.35	1507.45
937.4159	2067.9767	2371.95	1489.8
937.5525	2069.5315	2389.5	1507.2
937.6891	2071.0856	2383.4	1499.7
937.8257	2072.6389	2367.75	1485.7
937.9623	2074.1915	2358.2	1477.9
938.0989	2075.7433	2362.15	1477.1
938.2354	2077.2945	2340.35	1458.25
938.3719	2078.8448	2345.7	1465.3
938.5084	2080.3945	2344.2	1461.8
938.6448	2081.9434	2334.15	1452.05
938.7812	2083.4916	2330.65	1446.95
938.9176	2085.039	2323.25	1442.45
939.054	2086.5857	2316.5	1433.95
939.1903	2088.1317	2327.2	1445.95
939.3267	2089.677	2311.2	1429.2
939.463	2091.2215	2314	1432.25
939.5992	2092.7652	2309.9	1428.6
939.7355	2094.3083	2303.25	1420.8
939.8717	2095.8506	2290.45	1411.1
940.0079	2097.3921	2300.5	1418
940.1441	2098.933	2297.75	1416.95
940.2802	2100.4731	2292.45	1412.15
940.4163	2102.0124	2300.5	1412.15
940.5524	2103.5511	2284	1401.65
940.6885	2105.089	2277.5	1394.55
940.8245	2106.6261	2294.6	1412.25
940.9606	2108.1626	2281	1396.3
941.0965	2109.6983	2303.3	1394.6
941.2325	2111.2332	2270.55	1388.45
941.3684	2112.7675	2274.65	1390.95
941.5044	2114.301	2257.4	1373.2
941.6403	2115.8337	2255.1	1374.45
941.7761	2117.3657	2256	1373.25
941.912	2118.897	2257.45	1375.65
942.0478	2120.4276	2257.4	1369.15
942.1835	2121.9575	2237.7	1355.45
942.3193	2123.4866	2260.6	1363.6
942.455	2125.0149	2244.1	1359.4
942.5907	2126.5426	2238.15	1354.6
942.7264	2128.0695	2235.65	1351.95
942.8621	2129.5956	2224.35	1344.15
942.9977	2131.1211	2229.3	1341.25
943.1333	2132.6458	2212.7	1332.2
943.2689	2134.1698	2217.8	1336.8
943.4044	2135.693	2211.55	1327.15
943.54	2137.2155	2207.05	1321.8
943.6755	2138.7373	2213.25	1329.6
943.8109	2140.2584	2205.1	1321.7
943.9464	2141.7787	2207.45	1319
944.0818	2143.2983	2193.25	1314.1
944.2172	2144.8171	2175.15	1294.45
944.3526	2146.3353	2184.55	1300.25
944.4879	2147.8527	2174.15	1294.55
944.6232	2149.3693	2187.7	1304.05
944.7585	2150.8853	2173.05	1290.8
944.8938	2152.4005	2159.15	1275.25
945.029	2153.9149	2160.85	1278.85
945.1642	2155.4287	2166.25	1284.85
945.2994	2156.9417	2166.15	1281.9
945.4346	2158.454	2164	1279.8
945.5697	2159.9655	2155.45	1274.5
945.7048	2161.4764	2157.65	1276.4
945.8399	2162.9865	2146.8	1264.05
945.9749	2164.4958	2153.2	1268.6
946.1099	2166.0045	2135.75	1250.1
946.2449	2167.5124	2131.85	1249.85
946.3799	2169.0195	2145.7	1262.7
946.5148	2170.526	2143.75	1261.05
946.6498	2172.0317	2130.35	1248.8
946.7846	2173.5367	2120.55	1239.75
946.9195	2175.0409	2130	1246.95
947.0543	2176.5445	2120.7	1240.1
947.1891	2178.0473	2114.65	1232.15
947.3239	2179.5494	2116.15	1231.2
947.4587	2181.0507	2107.6	1224.3
947.5934	2182.5513	2110.5	1226.65
947.7281	2184.0512	2110.8	1226.3
947.8628	2185.5504	2105.8	1222.9
947.9974	2187.0488	2090.7	1208.35
948.132	2188.5465	2088.9	1204.15
948.2666	2190.0435	2086.9	1201.6
948.4012	2191.5397	2083.7	1203.45
948.5357	2193.0353	2081.6	1199.7
948.6702	2194.5301	2066.35	1182
948.8047	2196.0241	2073.9	1193.5
948.9392	2197.5175	2071.9	1190.85
949.0736	2199.0101	2066.85	1182.15
949.208	2200.502	2054.85	1174.05
949.3424	2201.9931	2058.75	1175.1
949.4767	2203.4835	2056.45	1174.1
949.611	2204.9733	2054.45	1166.5
949.7453	2206.4622	2041.95	1161.1
949.8796	2207.9505	2041.9	1156.1
950.0138	2209.438	2034.55	1153.8
950.148	2210.9248	2033.9	1148.75
950.2822	2212.4109	2021.65	1139.8
950.4164	2213.8962	2023.25	1138.1
950.5505	2215.3809	2020.3	1135.75
950.6846	2216.8648	2022.8	1139.3
950.8186	2218.3479	2016.65	1131.2
950.9527	2219.8304	2009.4	1126.45
951.0867	2221.3121	2009.55	1125.65
951.2207	2222.7931	1997.15	1116.1
951.3546	2224.2733	2001.05	1117.55
951.4886	2225.7529	1997.45	1117.15
951.6225	2227.2317	2003.6	1119.1
951.7563	2228.7098	1991.75	1109.35
951.8902	2230.1872	1981.65	1098.85
952.024	2231.6638	1989.1	1105.7
952.1578	2233.1397	1977.65	1087.15
952.2916	2234.6149	1975.55	1094.6
952.4253	2236.0894	1976.05	1092.45
952.559	2237.5632	1980.1	1088.55
952.6927	2239.0362	1968	1084.25
952.8263	2240.5085	1970.7	1089.4
952.9599	2241.9801	1960.9	1079.8
953.0935	2243.4509	1954.2	1071.2
953.2271	2244.921	1943.1	1059.6
953.3606	2246.3904	1942.5	1057.75
953.4941	2247.8591	1936.45	1054.4
953.6276	2249.3271	1933	1050.1
953.7611	2250.7943	1931.6	1047.65
953.8945	2252.2608	1931.95	1050.4
954.0279	2253.7266	1934.05	1050.8
954.1612	2255.1917	1918.3	1036.05
954.2946	2256.656	1917.95	1036.9
954.4279	2258.1197	1922.7	1042.5
954.5612	2259.5826	1913.35	1027.65
954.6944	2261.0447	1921.3	1037.15
954.8276	2262.5062	1906.35	1021.15
954.9608	2263.9669	1915.85	1032.5
955.094	2265.4269	1902.8	1020.95
955.2271	2266.8862	1897.1	1015
955.3602	2268.3448	1896	1012.9
955.4933	2269.8026	1907.2	1024
955.6264	2271.2598	1906.15	1023.45
955.7594	2272.7162	1901.75	1019.35
955.8924	2274.1719	1889.55	1006.75
956.0253	2275.6268	1889.55	1006.15
956.1583	2277.0811	1883.65	999.95
956.2912	2278.5346	1889.85	1009.85
956.4241	2279.9874	1878.15	994.45
956.5569	2281.4395	1875	995.55
956.6897	2282.8908	1884	994.65
956.8225	2284.3414	1878.9	995.55
956.9553	2285.7914	1866.15	983.4
957.088	2287.2406	1867.85	982.95
957.2207	2288.689	1862.55	981.15
957.3534	2290.1368	1865.25	982.2
957.486	2291.5838	1858.55	974.5
957.6186	2293.0302	1860.05	977.9
957.7512	2294.4758	1851.4	969.05
957.8838	2295.9206	1853.85	971.4
958.0163	2297.3648	1849.2	968.85
958.1488	2298.8082	1855.5	971.5
958.2813	2300.251	1844.95	963.05
958.4137	2301.693	1851.9	966.55
958.5461	2303.1343	1850	966.35
958.6785	2304.5748	1824.95	943.65
958.8108	2306.0147	1836.3	952.8
958.9432	2307.4538	1833.9	948.25
959.0754	2308.8922	1828.95	948.65
959.2077	2310.3299	1826.2	941.15
959.3399	2311.7669	1830.1	949.3
959.4721	2313.2031	1817.45	935.4
959.6043	2314.6387	1805.7	924.6
959.7365	2316.0735	1810.85	927.15
959.8686	2317.5076	1805.75	922.95
960.0006	2318.941	1801.55	920.65
960.1327	2320.3737	1803.9	919.8
960.2647	2321.8056	1802.5	917.45
960.3967	2323.2369	1793.1	910.35
960.5287	2324.6674	1791.3	907.15
960.6606	2326.0972	1794.5	911.05
960.7925	2327.5263	1796.6	914.1
960.9244	2328.9547	1798.55	918.1
961.0562	2330.3823	1788.2	904.75
961.1881	2331.8092	1779.3	894.5
961.3198	2333.2355	1779.45	897.7
961.4516	2334.661	1775.3	892.6
961.5833	2336.0858	1775	888.95
961.715	2337.5098	1774.85	894.1
961.8467	2338.9332	1773.4	889.7
961.9783	2340.3558	1772.2	886.65
962.1099	2341.7778	1769.25	884.8
962.2415	2343.199	1768.2	884.45
962.373	2344.6195	1772.5	891.3
962.5045	2346.0393	1770.8	891.4
962.636	2347.4583	1754.5	871.1
962.7675	2348.8767	1759.6	874.7
962.8989	2350.2943	1761.35	877.75
963.0303	2351.7113	1761.7	878.5
963.1617	2353.1275	1764.2	881.35
963.293	2354.543	1769.5	864.25
963.4243	2355.9578	1751.95	871.1
963.5556	2357.3718	1743.85	862.85
963.6868	2358.7852	1746	863.05
963.818	2360.1978	1739	855.4
963.9492	2361.6098	1742.65	862.8
964.0803	2363.021	1736.75	852.2
964.2114	2364.4315	1729.3	847.95
964.3425	2365.8413	1736.6	853.05
964.4736	2367.2504	1731.2	849.35
964.6046	2368.6587	1723.9	841.6
964.7356	2370.0664	1726.8	844.6
964.8666	2371.4733	1718	834.8
964.9975	2372.8795	1720.3	840.05
965.1284	2374.285	1713.5	830.4
965.2593	2375.6899	1710.3	829.35
965.3901	2377.0939	1701.8	820.1
965.5209	2378.4973	1706.4	825.55
965.6517	2379.9	1709.95	826.95
965.7825	2381.3019	1703.25	821.75
965.9132	2382.7032	1697.35	817.1
966.0439	2384.1037	1696.15	817.05
966.1745	2385.5035	1691.35	809.6
966.3051	2386.9027	1682.2	799.25
966.4357	2388.3011	1684.65	798.85
966.5663	2389.6987	1679.65	797.15
966.6968	2391.0957	1683.6	803.6
966.8273	2392.492	1679.55	798
966.9578	2393.8876	1667.9	788.35
967.0882	2395.2824	1670.1	788.3
967.2186	2396.6765	1659.45	778.95
967.349	2398.07	1660.5	780.05
967.4793	2399.4627	1664.85	783.75
967.6097	2400.8547	1659.2	779.2
967.7399	2402.246	1666.75	779.55
967.8702	2403.6366	1653.1	772.1
968.0004	2405.0265	1647.75	766
968.1306	2406.4156	1650.7	764.2
968.2607	2407.8041	1648.5	762.45
968.3909	2409.1918	1639.4	754.15
968.521	2410.5789	1641.95	759.7
968.651	2411.9652	1647.05	764.05
968.781	2413.3508	1639.8	757
968.911	2414.7358	1642.35	760.2
969.041	2416.12	1627.9	748
969.1709	2417.5035	1631.5	751.95
969.3008	2418.8863	1632.1	750.15
969.4307	2420.2684	1630	748.55
969.5606	2421.6497	1622.8	740.8
969.6904	2423.0304	1614.6	734.9
969.8201	2424.4104	1613.95	730.45
969.9499	2425.7896	1624.2	735.7
970.0796	2427.1682	1620.65	739.35
970.2093	2428.546	1621.05	738.95
970.3389	2429.9232	1616.8	731.7
970.4685	2431.2996	1610.65	728.6
970.5981	2432.6753	1606.6	726.7
970.7277	2434.0503	1609.4	727.1
970.8572	2435.4246	1598.95	719.65
970.9867	2436.7982	1605.8	722.25
971.1161	2438.1711	1591.8	711.2
971.2456	2439.5433	1604.35	723
971.375	2440.9148	1597.5	710.2
971.5043	2442.2856	1588.25	705.5
971.6336	2443.6557	1595.9	713.1
971.7629	2445.025	1590.25	709.75
971.8922	2446.3937	1587.3	704.65
972.0214	2447.7617	1586	703.75
972.1506	2449.1289	1586	705.25
972.2798	2450.4955	1584.7	698.9
972.4089	2451.8613	1577.8	695.7
972.538	2453.2265	1579.95	697.75
972.6671	2454.5909	1581.05	700
972.7961	2455.9546	1580.05	699.65
972.9251	2457.3177	1578.05	697.7
973.0541	2458.68	1574.5	692.1
973.1831	2460.0416	1575.05	691.7
973.312	2461.4025	1577.55	695.45
973.4408	2462.7627	1581.55	688.4
973.5697	2464.1222	1572.55	691.1
973.6985	2465.4811	1568.55	686
973.8273	2466.8392	1563.75	681.75
973.956	2468.1966	1562.8	680.15
974.0847	2469.5533	1577	691.3
974.2134	2470.9093	1572.85	692.25
974.3421	2472.2645	1570.05	685.35
974.4707	2473.6191	1562.55	681.95
974.5993	2474.973	1553.75	670.1
974.7278	2476.3262	1556.85	672.2
974.8563	2477.6787	1555	673.65
974.9848	2479.0305	1548.85	667.2
975.1132	2480.3816	1546.8	662.75
975.2417	2481.7319	1546.8	667.55
975.37	2483.0816	1547.95	662.4
975.4984	2484.4306	1546.4	665.4
975.6267	2485.7789	1539.5	659.3
975.755	2487.1264	1542	659.85
975.8833	2488.4733	1532.6	651
976.0115	2489.8195	1547.5	648.35
976.1397	2491.165	1534.15	648.1
976.2678	2492.5097	1537.2	653.95
976.3959	2493.8538	1518.05	633.65
976.524	2495.1972	1525	644.15
976.6521	2496.5398	1522.05	638.75
976.7801	2497.8818	1522.1	638.2
976.9081	2499.2231	1520.35	637.85
977.036	2500.5637	1516.35	631.95
977.164	2501.9035	1513.15	629.85
977.2918	2503.2427	1523	638
977.4197	2504.5812	1511.3	628.9
977.5475	2505.919	1514.3	628.2
977.6753	2507.256	1513.85	631.45
977.8031	2508.5924	1510.05	627.5
977.9308	2509.9281	1519.05	629.3
978.0585	2511.2631	1500.8	618
978.1861	2512.5974	1502.95	622.45
978.3137	2513.9309	1504.6	623.85
978.4413	2515.2638	1521.25	611.7
978.5689	2516.596	1496.65	613.5
978.6964	2517.9275	1495	612.35
978.8239	2519.2583	1490.65	606.4
978.9513	2520.5884	1501.2	617.1
979.0788	2521.9178	1493.3	611.85
979.2062	2523.2465	1483.35	600.85
979.3335	2524.5745	1478.4	597.25
979.4608	2525.9018	1484.1	600.75
979.5881	2527.2284	1489.05	608.2
979.7154	2528.5543	1491.4	609.85
979.8426	2529.8796	1470.05	587.75
979.9698	2531.2041	1483.05	600.85
980.0969	2532.5279	1474.4	594.25
980.224	2533.851	1475.9	591.2
980.3511	2535.1735	1483.7	602.4
980.4781	2536.4952	1476.65	594.2
980.6052	2537.8163	1475.5	593.95
980.7321	2539.1366	1471.35	589.6
980.8591	2540.4562	1469.6	586.5
980.986	2541.7752	1470.15	589.2
981.1129	2543.0935	1469.6	585.1
981.2397	2544.411	1469.75	587.7
981.3665	2545.7279	1465.1	583.35
981.4933	2547.0441	1459.6	577.65
981.62	2548.3596	1464.2	577.25
981.7467	2549.6744	1463.15	579.85
981.8734	2550.9885	1470.35	581.5
982.0001	2552.3019	1457.95	575.85
982.1267	2553.6146	1460.45	577.25
982.2532	2554.9266	1455.75	572.05
982.3798	2556.2379	1450.4	566
982.5063	2557.5485	1456.35	575.65
982.6327	2558.8585	1460.8	571.65
982.7592	2560.1677	1461.15	575.55
982.8856	2561.4762	1450.15	569.95
983.0119	2562.7841	1456.9	571.25
983.1383	2564.0913	1447.05	564.7
983.2646	2565.3977	1445.6	563.05
983.3908	2566.7035	1440.4	559
983.517	2568.0086	1442.6	559.05
983.6432	2569.313	1446.6	563.65
983.7694	2570.6167	1447.2	562
983.8955	2571.9197	1439.3	558.8
984.0216	2573.222	1448.7	562.55
984.1476	2574.5236	1434.65	551.3
984.2737	2575.8246	1435.7	550.35
984.3996	2577.1248	1442.05	556.8
984.5256	2578.4244	1443	561.35
984.6515	2579.7232	1443.85	560.75
984.7774	2581.0214	1469.1	557.05
984.9032	2582.3189	1448.6	567.05
985.029	2583.6157	1440.3	551.8
985.1548	2584.9118	1445.6	561.7
985.2806	2586.2072	1442.75	559.85
985.4063	2587.5019	1439.05	557.55
985.5319	2588.7959	1444.9	564.15
985.6576	2590.0893	1441.3	556.7
985.7832	2591.3819	1440.75	558.8
985.9087	2592.6739	1441.55	559.55
986.0343	2593.9652	1451.85	567.35
986.1597	2595.2557	1452	572.1
986.2852	2596.5456	1447.6	564.15
986.4106	2597.8348	1447.75	566.6
986.536	2599.1234	1451.05	568.95
986.6614	2600.4112	1446.75	563.5
986.7867	2601.6983	1455.4	569.55
986.912	2602.9848	1450.5	569.45
987.0372	2604.2705	1451.05	562.5
987.1624	2605.5556	1443.25	561.1
987.2876	2606.84	1442.5	559.2
987.4128	2608.1237	1451.1	565.65
987.5379	2609.4067	1447.95	567.05
987.6629	2610.689	1451.45	561.25
987.788	2611.9707	1444.75	558.95
987.913	2613.2516	1438.9	554.15
988.0379	2614.5319	1438.55	555.45
988.1629	2615.8115	1432.4	550.45
988.2878	2617.0903	1429.8	545
988.4126	2618.3685	1431.15	548.55
988.5375	2619.6461	1429.35	547.85
988.6622	2620.9229	1425.2	543.3
988.787	2622.199	1431.55	549
988.9117	2623.4745	1426.85	545
989.0364	2624.7493	1427.45	545.9
989.161	2626.0234	1422.75	540.5
989.2857	2627.2968	1428	547.1
989.4102	2628.5695	1433	549.9
989.5348	2629.8415	1429.2	551
989.6593	2631.1128	1430.65	546.35
989.7837	2632.3835	1425.85	543.95
989.9082	2633.6535	1425.4	542.6
990.0326	2634.9228	1429.35	544.25
990.1569	2636.1914	1428.9	544.1
990.2812	2637.4593	1420.2	536.05
990.4055	2638.7265	1423.1	539.95
990.5298	2639.9931	1424.45	542.35
990.654	2641.259	1425.85	542.85
990.7782	2642.5242	1423.35	539.7
990.9023	2643.7887	1413.65	529.6
991.0264	2645.0525	1418.35	537.75
991.1505	2646.3156	1415.5	533.05
991.2745	2647.5781	1413.75	532.2
991.3985	2648.8398	1412.75	530.8
991.5225	2650.1009	1437.9	517.2
991.6464	2651.3613	1405.75	523
991.7703	2652.6211	1404.5	520.5
991.8942	2653.8801	1405.8	524.5
992.018	2655.1385	1405.7	520.6
992.1418	2656.3961	1404.35	522.25
992.2655	2657.6531	1403.3	522.1
992.3892	2658.9094	1418.4	533.5
992.5129	2660.1651	1407.1	525.15
992.6366	2661.42	1408.25	524.5
992.7602	2662.6743	1412.25	528.4
992.8837	2663.9279	1408.5	527
993.0073	2665.1808	1410.8	527.8
993.1307	2666.433	1409.6	525.45
993.2542	2667.6846	1406.75	525.95
993.3776	2668.9354	1420.85	533.5
993.501	2670.1856	1422.2	538
993.6244	2671.4351	1415.6	533.4
993.7477	2672.6839	1427.55	542.55
993.8709	2673.9321	1423.85	540.85
993.9942	2675.1795	1430.35	547.9
994.1174	2676.4263	1427.65	544.85
994.2405	2677.6724	1431.4	548.8
994.3637	2678.9179	1432.25	547.75
994.4868	2680.1626	1432	549.95
994.6098	2681.4067	1431.9	550.05
994.7328	2682.6501	1435.35	553.1
994.8558	2683.8928	1432.45	551.35
994.9788	2685.1348	1421.75	541.15
995.1017	2686.3761	1417.4	534.25
995.2245	2687.6168	1414.75	532.35
995.3474	2688.8568	1411.8	528.6
995.4702	2690.0961	1409.75	527.8
995.5929	2691.3348	1404.85	522.85
995.7156	2692.5727	1411.45	528.3
995.8383	2693.81	1398.15	517.6
995.961	2695.0466	1405.15	523.9
996.0836	2696.2826	1406.25	522.2
996.2062	2697.5178	1406.65	519
996.3287	2698.7524	1409.9	526.85
996.4512	2699.9863	1398.8	515.4
996.5737	2701.2195	1411.3	531.45
996.6961	2702.452	1407.4	523.75
996.8185	2703.6839	1416.55	533.15
996.9408	2704.9151	1415.45	534.5
997.0631	2706.1456	1427.65	544.35
997.1854	2707.3755	1431.3	548.75
997.3077	2708.6046	1432.8	546.1
997.4299	2709.8331	1448.15	563
997.552	2711.0609	1453.5	571.8
997.6742	2712.2881	1460.7	578.45
997.7963	2713.5145	1471.6	587.7
997.9183	2714.7403	1475.4	593.1
998.0403	2715.9654	1486.2	602.5
998.1623	2717.1899	1507.5	611.95
998.2842	2718.4136	1510.9	628.75
998.4062	2719.6367	1523.3	637.9
998.528	2720.8591	1545.4	656.7
998.6498	2722.0809	1545.5	663.75
998.7716	2723.3019	1560.85	674.55
998.8934	2724.5223	1574.45	690.5
999.0151	2725.7421	1565.85	680.95
999.1368	2726.9611	1570.05	683.3
999.2584	2728.1795	1567.9	683.25
999.38	2729.3972	1566.45	683.7
999.5016	2730.6142	1559.8	664.65
999.6231	2731.8306	1543.7	661.2
999.7446	2733.0462	1530.95	646.1
999.8661	2734.2612	1517	630.5
999.9875	2735.4756	1495.25	611.75
1000.1089	2736.6892	1478	593.3
1000.2302	2737.9022	1458.25	576.45
1000.3515	2739.1145	1446.05	563.6
1000.4728	2740.3262	1441	551.35
1000.594	2741.5372	1415.15	534.45
1000.7152	2742.7475	1410.75	528.95
1000.8363	2743.9571	1407.95	523
1000.9575	2745.1661	1402.1	513.5
1001.0785	2746.3744	1379.75	496.9
1001.1996	2747.582	1370.9	487.75
1001.3206	2748.7889	1368.45	484.25
1001.4415	2749.9952	1358.85	476.15
1001.5625	2751.2008	1354.6	471.15
1001.6833	2752.4057	1353.05	470.15
1001.8042	2753.61	1355.45	471.8
1001.925	2754.8136	1352.05	467.8
1002.0458	2756.0165	1337.55	455.7
1002.1665	2757.2188	1351.45	469.7
1002.2872	2758.4204	1347.15	464.35
1002.4078	2759.6213	1335.45	452.2
1002.5285	2760.8215	1351.6	463.05
1002.649	2762.0211	1346.95	461
1002.7696	2763.22	1350.95	464.35
1002.8901	2764.4182	1344.05	461.05
1003.0106	2765.6158	1336.75	454.45
1003.131	2766.8127	1338.45	454.2
1003.2514	2768.009	1336.4	454.7
1003.3717	2769.2045	1332.85	450.25
1003.492	2770.3994	1326.95	443.8
1003.6123	2771.5936	1327.7	444.1
1003.7325	2772.7872	1325.95	444.35
1003.8527	2773.9801	1325.75	439.2
1003.9729	2775.1723	1345.15	444.45
1004.093	2776.3639	1324.85	442.35
1004.2131	2777.5548	1330.35	445.85
1004.3331	2778.745	1323.1	440.85
1004.4531	2779.9346	1330.1	447.35
1004.5731	2781.1235	1331.1	446.05
1004.693	2782.3117	1334.6	451.7
1004.8129	2783.4992	1341.5	460.05
1004.9328	2784.6861	1343.9	460.5
1005.0526	2785.8723	1348.15	463.5
1005.1723	2787.0579	1349.95	466.45
1005.2921	2788.2428	1365.75	483.8
1005.4118	2789.427	1373.35	490.95
1005.5314	2790.6106	1382.7	499.1
1005.651	2791.7935	1395.15	511.4
1005.7706	2792.9757	1401.5	519.8
1005.8902	2794.1573	1418.15	534.75
1006.0097	2795.3382	1429.35	548.45
1006.1291	2796.5184	1447.55	566.15
1006.2485	2797.698	1467.8	585.55
1006.3679	2798.8769	1480.2	598.1
1006.4873	2800.0551	1491.2	607.95
1006.6066	2801.2327	1514.5	629.95
1006.7258	2802.4096	1535.35	655.5
1006.8451	2803.5859	1557.95	674.5
1006.9642	2804.7615	1575.95	695.2
1007.0834	2805.9364	1604.15	720.15
1007.2025	2807.1106	1633.4	749.7
1007.3216	2808.2842	1655.1	772.85
1007.4406	2809.4572	1694.75	813.4
1007.5596	2810.6294	1729	844.8
1007.6785	2811.801	1769.75	889.3
1007.7975	2812.972	1815.55	931.85
1007.9163	2814.1423	1859.2	976.85
1008.0352	2815.3119	1894.2	1012.25
1008.154	2816.4808	1957.65	1077.5
1008.2727	2817.6491	2003.35	1120.7
1008.3914	2818.8167	2054.3	1171.3
1008.5101	2819.9837	2099	1212.65
1008.6288	2821.15	2148.5	1265.8
1008.7474	2822.3157	2200.45	1319
1008.8659	2823.4807	2249.5	1366.1
1008.9844	2824.645	2306.4	1424.25
1009.1029	2825.8086	2335.65	1453.95
1009.2214	2826.9716	2365.6	1483.15
1009.3398	2828.134	2400.75	1520.15
1009.4581	2829.2957	2456.9	1574.5
1009.5764	2830.4567	2474.2	1592.95
1009.6947	2831.617	2502.7	1620.95
1009.813	2832.7767	2519.3	1636.85
1009.9312	2833.9358	2514	1634.2
1010.0493	2835.0941	2494.65	1610.1
1010.1675	2836.2519	2494.35	1612.3
1010.2855	2837.4089	2475.25	1592.3
1010.4036	2838.5653	2463.8	1581.1
1010.5216	2839.7211	2463.65	1581.85
1010.6396	2840.8761	2467.25	1584.35
1010.7575	2842.0306	2491.65	1610.15
1010.8754	2843.1843	2532.85	1650.9
1010.9932	2844.3374	2590.35	1707.45
1011.111	2845.4899	2636.5	1753.45
1011.2288	2846.6417	2719.8	1838.3
1011.3465	2847.7928	2786.55	1904.1
1011.4642	2848.9433	2862.95	1981.55
1011.5818	2850.0931	2941.9	2060.05
1011.6995	2851.2422	3023.85	2140.8
1011.817	2852.3907	3103.65	2220.7
1011.9345	2853.5385	3149.9	2264.8
1012.052	2854.6857	3246.55	2338.95
1012.1695	2855.8323	3282.25	2400.15
1012.2869	2856.9781	3317.6	2436.2
1012.4042	2858.1233	3358.8	2478
1012.5216	2859.2679	3420.1	2537.95
1012.6389	2860.4118	3473.55	2589.85
1012.7561	2861.555	3511.05	2623.95
1012.8733	2862.6976	3555.5	2670.5
1012.9905	2863.8395	3569.6	2688.75
1013.1076	2864.9808	3605.05	2722.05
1013.2247	2866.1214	3615.1	2733.3
1013.3417	2867.2614	3631.55	2750.15
1013.4587	2868.4007	3640.25	2756.4
1013.5757	2869.5393	3648.85	2765.65
1013.6926	2870.6773	3680.9	2794.8
1013.8095	2871.8146	3699.05	2813.65
1013.9263	2872.9513	3687.15	2802.75
1014.0431	2874.0874	3684.2	2801.15
1014.1599	2875.2227	3673.3	2789.8
1014.2766	2876.3574	3671.05	2787.45
1014.3933	2877.4915	3641.05	2760.15
1014.51	2878.6249	3618.85	2735.2
1014.6266	2879.7577	3592.3	2708.65
1014.7431	2880.8898	3583.55	2689
1014.8596	2882.0212	3560.4	2680.2
1014.9761	2883.152	3548.75	2664.8
1015.0925	2884.2821	3533	2650.45
1015.2089	2885.4116	3532.8	2650.95
1015.3253	2886.5405	3521.2	2638.25
1015.4416	2887.6686	3533.05	2650
1015.5579	2888.7962	3527.15	2645.6
1015.6741	2889.923	3548.8	2667.85
1015.7903	2891.0493	3554.65	2672.75
1015.9065	2892.1748	3558.95	2677.05
1016.0226	2893.2997	3576.6	2692.6
1016.1387	2894.424	3601.7	2719.85
1016.2547	2895.5476	3622.35	2738.95
1016.3707	2896.6706	3656.4	2776.5
1016.4866	2897.7929	3674.55	2789.65
1016.6025	2898.9145	3701.95	2818.2
1016.7184	2900.0355	3729.6	2846.15
1016.8342	2901.1559	3751.65	2868.2
1016.95	2902.2756	3792.6	2910.5
1017.0658	2903.3946	3836.45	2953.35
1017.1815	2904.513	3873.55	2987.2
1017.2971	2905.6308	3887.95	3005.45
1017.4127	2906.7479	3907.2	3024.7
1017.5283	2907.8643	3937.85	3056.4
1017.6439	2908.9801	3942.05	3058.45
1017.7594	2910.0953	3945.3	3063.2
1017.8748	2911.2098	3950	3065.05
1017.9902	2912.3236	3952.1	3061.4
1018.1056	2913.4368	3941.3	3056.1
1018.2209	2914.5494	3916.5	3032.55
1018.3362	2915.6613	3905.5	3018.5
1018.4515	2916.7725	3876.6	2990.75
1018.5667	2917.8831	3829.1	2945.9
1018.6819	2918.9931	3808.9	2921.6
1018.797	2920.1024	3786.8	2902.4
1018.9121	2921.211	3763.85	2881.4
1019.0271	2922.319	3747	2864.25
1019.1421	2923.4264	3724.85	2844.2
1019.2571	2924.5331	3702.4	2821.2
1019.372	2925.6391	3685.5	2802.1
1019.4869	2926.7445	3676.75	2795.9
1019.6017	2927.8493	3682.2	2800.4
1019.7165	2928.9534	3683.6	2801.45
1019.8313	2930.0569	3680.2	2794.5
1019.946	2931.1597	3655	2771.45
1020.0606	2932.2619	3645.7	2764.45
1020.1753	2933.3634	3658.8	2777.05
1020.2899	2934.4643	3653.55	2764.4
1020.4044	2935.5645	3611.2	2722.05
1020.5189	2936.6641	3593.3	2705.85
1020.6334	2937.763	3551.95	2669.65
1020.7478	2938.8613	3484.15	2601.55
1020.8622	2939.959	3425.5	2538.7
1020.9765	2941.056	3365.15	2484.85
1021.0908	2942.1523	3268.2	2387.55
1021.2051	2943.248	3182.85	2300.1
1021.3193	2944.3431	3105	2223.2
1021.4334	2945.4375	2989.45	2106.6
1021.5476	2946.5313	2887.3	2006.35
1021.6617	2947.6244	2777.25	1895.4
1021.7757	2948.7169	2696.8	1814.55
1021.8897	2949.8087	2588.5	1705.5
1022.0037	2950.8999	2494.1	1610.75
1022.1176	2951.9904	2404.5	1524.7
1022.2315	2953.0803	2341.8	1457.9
1022.3453	2954.1696	2279.2	1396.45
1022.4591	2955.2582	2223.4	1342.9
1022.5728	2956.3462	2184.25	1303
1022.6865	2957.4335	2138.45	1254.6
1022.8002	2958.5202	2100.25	1214.75
1022.9138	2959.6062	2074.75	1195.05
1023.0274	2960.6916	2060.7	1180.2
1023.141	2961.7764	2031.3	1146.6
1023.2545	2962.8605	2017.1	1134.6
1023.3679	2963.9439	2000.15	1117.3
1023.4813	2965.0267	2007.7	1124.25
1023.5947	2966.1089	2001.75	1097.2
1023.708	2967.1905	1981.45	1099.05
1023.8213	2968.2714	1986.6	1104.25
1023.9346	2969.3516	1982.8	1098.95
1024.0478	2970.4312	1997.45	1107.5
1024.1609	2971.5102	1980.25	1101.3
1024.274	2972.5885	1985.65	1105.25
1024.3871	2973.6662	1989.95	1102.5
1024.5002	2974.7432	1979.95	1097.95
1024.6132	2975.8196	1970.2	1088.1
1024.7261	2976.8954	1973.7	1092.9
1024.839	2977.9705	1958.4	1074.35
1024.9519	2979.045	1944.6	1062
1025.0647	2980.1188	1930.5	1048.8
1025.1775	2981.192	1902	1020.7
1025.2902	2982.2645	1884.65	999.05
1025.4029	2983.3364	1867.7	986.05
1025.5156	2984.4077	1831.2	948.7
1025.6282	2985.4783	1806.45	919.7
1025.7407	2986.5483	1769.9	888.35
1025.8532	2987.6177	1736.4	856.45
1025.9657	2988.6864	1699.8	816.15
1026.0782	2989.7545	1666.95	782.75
1026.1906	2990.8219	1640.7	758.25
1026.3029	2991.8887	1607.75	724.35
1026.4152	2992.9548	1573.5	691.05
1026.5275	2994.0204	1533.95	654
1026.6397	2995.0852	1507.1	626.45
1026.7519	2996.1495	1489.3	608.45
1026.864	2997.2131	1459.7	575.75
1026.9761	2998.276	1436.2	556.5
1027.0882	2999.3383	1423.15	540.45
1027.2002	3000.4	1406.7	523.9
1027.3122	3001.4611	1390.5	508.8
1027.4241	3002.5215	1378.65	495.4
1027.536	3003.5812	1362.8	480
1027.6478	3004.6404	1348.6	465.65
1027.7596	3005.6989	1342.55	458.85
1027.8714	3006.7567	1334.05	452.55
1027.9831	3007.8139	1358.05	450.2
1028.0947	3008.8705	1323.15	440.8
1028.2064	3009.9264	1317.3	432.8
1028.3179	3010.9818	1308.2	426.25
1028.4295	3012.0364	1304.25	422.5
1028.541	3013.0905	1300.05	416.5
1028.6524	3014.1439	1295.7	413.55
1028.7638	3015.1966	1298.65	419.55
1028.8752	3016.2487	1298.9	416.55
1028.9865	3017.3002	1294.35	407.05
1029.0978	3018.3511	1293.75	412.05
1029.209	3019.4013	1293.5	413.35
1029.3202	3020.4509	1298.7	418.5
1029.4314	3021.4998	1299.8	417.55
1029.5425	3022.5481	1300.45	418.15
1029.6535	3023.5958	1294.05	411.55
1029.7645	3024.6428	1300.65	419.95
1029.8755	3025.6892	1298.3	418.65
1029.9864	3026.735	1305.6	423.65
1030.0973	3027.7802	1306.9	425.15
1030.2082	3028.8247	1307.75	427.1
1030.319	3029.8685	1307.9	425.6
1030.4297	3030.9118	1318.5	436.75
1030.5404	3031.9544	1319.15	439.35
1030.6511	3032.9963	1321.85	439.65
1030.7617	3034.0376	1334.15	452
1030.8723	3035.0783	1331.8	443.5
1030.9829	3036.1184	1340.15	459
1031.0934	3037.1578	1342.55	461.1
1031.2038	3038.1966	1348.75	467.1
1031.3142	3039.2348	1336.1	454
1031.4246	3040.2723	1359.5	468.8
1031.5349	3041.3092	1341.35	461.2
1031.6452	3042.3455	1337.4	456.1
1031.7554	3043.3811	1340.5	459.25
1031.8656	3044.4161	1329.4	445.1
1031.9758	3045.4505	1334.35	455.95
1032.0859	3046.4842	1325.25	442.2
1032.1959	3047.5173	1319.05	438.25
1032.3059	3048.5498	1314.25	431.35
1032.4159	3049.5816	1306.9	425.55
1032.5258	3050.6128	1303.55	421
1032.6357	3051.6434	1294.7	412.4
1032.7455	3052.6734	1292.35	407.25
1032.8553	3053.7027	1279	397.05
1032.9651	3054.7314	1277.2	397.5
1033.0748	3055.7594	1264.85	382.55
1033.1845	3056.7868	1266.9	383.7
1033.2941	3057.8136	1260.55	379.7
1033.4037	3058.8398	1252.4	371.25
1033.5132	3059.8653	1254.6	373.3
1033.6227	3060.8902	1247.45	366.4
1033.7321	3061.9145	1239.05	356.4
1033.8415	3062.9381	1234.55	352.35
1033.9509	3063.9612	1248.55	352
1034.0602	3064.9835	1224.7	342.8
1034.1694	3066.0053	1225.1	340.45
1034.2787	3067.0264	1208.2	328.3
1034.3878	3068.0469	1209	326.6
1034.497	3069.0668	1198.3	312.35
1034.6061	3070.086	1192.9	311.6
1034.7151	3071.1046	1186.9	301.7
1034.8241	3072.1226	1176.2	292.4
1034.9331	3073.1399	1167.25	286.25
1035.042	3074.1567	1151	269.4
1035.1508	3075.1727	1148.7	264.75
1035.2597	3076.1882	1139.15	257.15
1035.3684	3077.203	1128.85	248.6
1035.4772	3078.2173	1122.8	241.35
1035.5859	3079.2308	1119.4	233
1035.6945	3080.2438	1110.65	226.6
1035.8031	3081.2561	1100.5	219.4
1035.9117	3082.2678	1095.3	213.7
1036.0202	3083.2789	1083.75	202.55
1036.1286	3084.2893	1082.55	200.65
1036.2371	3085.2991	1080.5	197.7
1036.3454	3086.3083	1078.35	192.45
1036.4538	3087.3169	1070.55	186.95
1036.562	3088.3248	1063.1	179.1
1036.6703	3089.3321	1059.45	175.55
1036.7785	3090.3388	1052.4	171.2
1036.8866	3091.3449	1047.05	165.9
1036.9948	3092.3503	1052.4	168.05
1037.1028	3093.3551	1040.55	160.85
1037.2108	3094.3593	1040.15	159.55
1037.3188	3095.3629	1038.3	157.1
1037.4267	3096.3658	1034.1	152.55
1037.5346	3097.3681	1029.75	149.15
1037.6425	3098.3698	1030	146.95
1037.7503	3099.3708	1034.05	146.4
1037.858	3100.3713	1025.95	142.9
1037.9657	3101.3711	1022.5	139.55
1038.0734	3102.3702	1156.65	133.2
1038.181	3103.3688	1019.3	135.3
1038.2886	3104.3667	1017.65	136.2
1038.3961	3105.364	1014.9	135.55
1038.5036	3106.3607	1018.7	138.85
1038.611	3107.3568	1015.7	131.35
1038.7184	3108.3522	1009.4	129.65
1038.8257	3109.347	1011.35	128
1038.933	3110.3412	1010.25	124.2
1039.0403	3111.3348	1004.2	122.3
1039.1475	3112.3277	1006.55	124.65
1039.2547	3113.32	1001.1	119.45
1039.3618	3114.3117	1005.95	122.1
1039.4689	3115.3028	1005.7	124.2
1039.5759	3116.2932	1003.7	121.45
1039.6829	3117.2831	1009.45	122.45
1039.7898	3118.2723	1001.9	119.9
1039.8967	3119.2608	994.7	112.95
1040.0035	3120.2488	996.75	115
1040.1103	3121.2361	996.6	113.9
1040.2171	3122.2229	991.25	110.05
1040.3238	3123.209	995	111.65
1040.4305	3124.1944	991.35	110.05
1040.5371	3125.1793	993.05	111.5
1040.6437	3126.1635	987.45	105.35
1040.7502	3127.1471	985.9	104.25
1040.8567	3128.1301	985.25	104.75
1040.9631	3129.1125	983.25	100.7
1041.0695	3130.0942	987.9	108.6
1041.1759	3131.0753	996.25	105.6
1041.2822	3132.0558	986.25	103.75
1041.3884	3133.0357	985.5	103.95
1041.4946	3134.015	980.35	98.4
1041.6008	3134.9936	984.55	100.1
1041.7069	3135.9716	1002.5	100.05
1041.813	3136.949	980.75	98.95
1041.919	3137.9258	996.15	97.35
1042.025	3138.902	979.05	91.8
1042.1309	3139.8775	976.75	96.6
1042.2368	3140.8524	976.15	95.5
1042.3427	3141.8267	972.7	89.5
1042.4485	3142.8004	976.5	94.75
1042.5542	3143.7735	979.8	90.6
1042.6599	3144.7459	975.85	92.8
1042.7656	3145.7178	971.65	88.4
1042.8712	3146.689	967.05	87.3
1042.9768	3147.6596	970.8	86.35
1043.0823	3148.6295	968.1	85.1
1043.1878	3149.5989	965.95	84.7
1043.2932	3150.5676	965.55	86.5
1043.3986	3151.5357	963	82.75
1043.5039	3152.5032	966	85.25
1043.6092	3153.4701	964.35	82.8
1043.7145	3154.4364	967.95	84.7
1043.8197	3155.402	957.9	76.65
1043.9248	3156.367	966.55	84.05
1044.03	3157.3315	1000.15	81.35
1044.135	3158.2952	959.85	78.25
1044.24	3159.2584	961.1	81.3
1044.345	3160.221	955.2	73.75
1044.4499	3161.1829	955.55	73.8
1044.5548	3162.1442	959.5	80.05
1044.6596	3163.105	954.95	71.95
1044.7644	3164.065	953.9	71.4
1044.8692	3165.0245	957.5	73.3
1044.9739	3165.9834	955.9	77.2
1045.0785	3166.9416	955.6	74.1
1045.1831	3167.8993	953.95	73.2
1045.2877	3168.8563	952.65	70
1045.3922	3169.8127	952.15	70.95
1045.4966	3170.7684	954.2	69.8
1045.6011	3171.7236	955.6	73.1
1045.7054	3172.6782	950.95	68.9
1045.8098	3173.6321	951.1	68.7
1045.914	3174.5854	954.9	71.75
1046.0183	3175.5381	948.5	68.05
1046.1224	3176.4902	950.35	68.1
1046.2266	3177.4417	951.7	69
1046.3307	3178.3926	948.4	66.45
1046.4347	3179.3428	947.9	65.85
1046.5387	3180.2924	947	67.4
1046.6427	3181.2415	945.9	64.2
1046.7466	3182.1899	951	68.2
1046.8504	3183.1377	946.4	66.15
1046.9542	3184.0848	951.25	66.9
1047.058	3185.0314	944.55	62.7
1047.1617	3185.9773	946	63.4
1047.2654	3186.9227	943.25	61.75
1047.369	3187.8674	945	62.1
1047.4726	3188.8115	949.5	64.45
1047.5761	3189.755	943.7	62.75
1047.6796	3190.6979	946.1	64.85
1047.783	3191.6402	942.45	60.9
1047.8864	3192.5818	943.1	63.45
1047.9898	3193.5229	970.25	65.25
1048.0931	3194.4633	944.7	63.15
1048.1963	3195.4031	940.7	58.95
1048.2995	3196.3423	940.05	59.15
1048.4027	3197.2809	941	58.85
1048.5058	3198.2189	938.5	55.2
1048.6089	3199.1563	958.55	56.85
1048.7119	3200.0931	939.35	58.5
1048.8148	3201.0292	939.6	58
1048.9178	3201.9648	936.85	55.8
1049.0206	3202.8997	942.45	57.5
1049.1235	3203.834	940.35	60.85
1049.2262	3204.7677	939.4	58.3
1049.329	3205.7008	938.85	56.25
1049.4317	3206.6333	935.5	56.2
1049.5343	3207.5652	940.3	55.1
1049.6369	3208.4964	935.6	52.7
1049.7394	3209.4271	934.25	52.5
1049.8419	3210.3571	935.9	56.6
1049.9444	3211.2865	938.85	56.35
1050.0468	3212.2154	938.65	57.85
1050.1491	3213.1436	936.4	51.95
1050.2514	3214.0712	942.95	54.4
1050.3537	3214.9982	936.6	54.8
1050.4559	3215.9246	935.15	52.55
1050.5581	3216.8503	935.25	56.65
1050.6602	3217.7755	933.05	50.85
1050.7623	3218.7001	933.7	53.3
1050.8643	3219.624	935.2	54.55
1050.9663	3220.5473	933.5	51.9
1051.0682	3221.4701	936.4	52.7
1051.1701	3222.3922	935.55	53
1051.2719	3223.3137	931.8	51.7
1051.3737	3224.2346	931.6	49.75
1051.4754	3225.1549	931.75	51.15
1051.5771	3226.0746	930.45	48.05
1051.6788	3226.9937	934.05	52.9
1051.7804	3227.9121	930.95	50.95
1051.8819	3228.83	933.25	52.25
1051.9834	3229.7473	931.15	50.25
1052.0849	3230.6639	932.05	50.1
1052.1863	3231.5799	933.3	51.05
1052.2876	3232.4954	929.75	48.3
1052.3889	3233.4102	929.7	48.95
1052.4902	3234.3244	929.7	48
1052.5914	3235.238	928.95	49.1
1052.6926	3236.151	954.35	48.15
1052.7937	3237.0634	930.95	51.5
1052.8948	3237.9752	925.35	45.45
1052.9958	3238.8864	926	44.15
1053.0968	3239.797	929.15	47.6
1053.1977	3240.7069	927.6	45.75
1053.2986	3241.6163	928.85	45.45
1053.3994	3242.5251	926	46.45
1053.5002	3243.4332	928.05	48.7
1053.6009	3244.3408	924.6	43.3
1053.7016	3245.2477	925.9	46
1053.8022	3246.154	926.3	42.25
1053.9028	3247.0598	926.9	44.1
1054.0034	3247.9649	926.75	45
1054.1039	3248.8694	922.6	42.35
1054.2043	3249.7733	921.4	42.25
1054.3047	3250.6766	922.4	40.45
1054.4051	3251.5793	922.2	41.5
1054.5054	3252.4814	922.85	42.1
1054.6056	3253.3829	921.8	41.4
1054.7058	3254.2838	920.95	38.5
1054.806	3255.1841	918	37.9
1054.9061	3256.0838	923.3	42.15
1055.0061	3256.9829	920.75	40
1055.1062	3257.8814	919.95	36.4
1055.2061	3258.7792	921.85	38.55
1055.306	3259.6765	917.65	34.6
1055.4059	3260.5731	918.15	37.3
1055.5057	3261.4692	918.75	37.5
1055.6055	3262.3647	920.7	40.05
1055.7052	3263.2595	917.25	38
1055.8049	3264.1538	914.5	32.45
1055.9045	3265.0474	917.55	37.6
1056.0041	3265.9404	915.45	36.85
1056.1036	3266.8329	912.5	32.65
1056.2031	3267.7247	923.95	32.9
1056.3025	3268.616	912.45	32.4
1056.4019	3269.5066	911.25	29.4
1056.5013	3270.3966	911.7	29.35
1056.6005	3271.286	907.5	25.15
