Software Version:	3.9.2.0
Unit SN:	10000200
Spectrometer SN:	6960
Date:	3/14/2024 1:48:07 PM
Data Line Index:	25
Spectral Points:	2048
Integration time (ms):	125
Averages:	20
Delay (ms):	30000
Sequence Number:	1
Processing:	dark subtract
Laser Power (mW):	300
Laser Current (mA):	824
Laser Diode Temp (C):	25
Laser Case Temp (C):	28.8
System Temp (C):	28.8
Spectrometer Temp (C):	26.6
CCD Temp (C):	0.008
Secondary Temp (C):	20.007
Heatsink Temp (C):	24.728
CCDPCB Temp (C):	38.108
SecondaryPCB Temp (C):	35.829

Wavelength	RamanShift	Raw Counts	Dark Subtracted
787.061	30.1047	465.9	54.2
787.2016	32.3739	465.9	56.25
787.3422	34.6426	473.05	61.15
787.4828	36.9109	477.95	64.5
787.6235	39.1787	487.75	69.8
787.7642	41.4461	498.25	75.6
787.9049	43.7131	506.85	83.25
788.0456	45.9796	517.05	88.7
788.1863	48.2456	529.8	98.7
788.3271	50.5112	538.4	101.9
788.4679	52.7764	546.2	108.2
788.6087	55.0411	555.25	112.15
788.7496	57.3054	571.6	124.95
788.8904	59.5692	582.15	132.95
789.0313	61.8326	590.6	137.3
789.1722	64.0955	608.6	149.95
789.3132	66.3579	629	166.45
789.4541	68.6199	647.5	180.95
789.5951	70.8815	684.35	217.05
789.7361	73.1426	762.7	290.45
789.8771	75.4032	974.6	497.2
790.0181	77.6634	1484.8	1000.65
790.1592	79.9231	2728.3	2238.6
790.3003	82.1824	5430.35	4932
790.4414	84.4412	10438.2	9923.7
790.5825	86.6995	17479.85	16940.1
790.7237	88.9574	24579.6	24022.1
790.8648	91.2148	29591.9	29016.65
791.006	93.4717	32040.45	31455.3
791.1472	95.7282	32572	31985.85
791.2885	97.9842	32603.2	32009.5
791.4297	100.2398	32107.7	31512.35
791.571	102.4949	31507.7	30908.85
791.7123	104.7495	30700.2	30097.4
791.8536	107.0036	29875.65	29269.75
791.9949	109.2573	29146.8	28545.05
792.1363	111.5105	28377.2	27774.55
792.2777	113.7632	27669.2	27064.15
792.4191	116.0154	27058.45	26442.35
792.5605	118.2672	26606.5	25998.2
792.7019	120.5185	26128	25519.15
792.8434	122.7693	25792.4	25180.05
792.9849	125.0197	25477.7	24859.4
793.1264	127.2696	25201.45	24582.75
793.2679	129.519	25034.05	24413.6
793.4094	131.7679	24802.85	24179.6
793.551	134.0163	24650.4	24021.35
793.6926	136.2642	24431.3	23796.95
793.8342	138.5117	24213.95	23573.95
793.9758	140.7587	23926.75	23294.4
794.1175	143.0052	23713.75	23075.95
794.2591	145.2512	23455.5	22820.3
794.4008	147.4967	23215.3	22577.7
794.5425	149.7417	23059.05	22416.4
794.6842	151.9863	22904.25	22262.15
794.826	154.2304	22832.6	22184.3
794.9677	156.4739	22677.8	22023.7
795.1095	158.717	22608	21954.05
795.2513	160.9596	22428.8	21773.6
795.3931	163.2017	22155.55	21495
795.535	165.4433	21823.15	21159.2
795.6768	167.6844	21518.3	20860.35
795.8187	169.925	21166.75	20502.75
795.9606	172.1651	20768.15	20099.65
796.1025	174.4047	20466.65	19794.8
796.2445	176.6439	20211.25	19537.75
796.3864	178.8825	19959.4	19282.95
796.5284	181.1206	19795.8	19115
796.6704	183.3582	19607.95	18924.05
796.8124	185.5954	19452.2	18768.2
796.9544	187.832	19377.1	18686.15
797.0965	190.0681	19316.05	18625
797.2386	192.3037	19342.55	18650.8
797.3806	194.5388	19321.55	18626
797.5228	196.7734	19343.85	18646.25
797.6649	199.0075	19393.8	18689.5
797.807	201.2411	19548.25	18845.65
797.9492	203.4742	19594.75	18891
798.0914	205.7068	19736.65	19029.95
798.2336	207.9389	19851.65	19146.45
798.3758	210.1704	19974.15	19264.15
798.518	212.4015	20080	19366.55
798.6603	214.632	20274	19565.95
798.8025	216.862	20412.85	19708.15
798.9448	219.0915	20522.05	19826.4
799.0871	221.3205	20754.1	20058.75
799.2294	223.549	20980.85	20290.95
799.3718	225.777	21224.15	20537.55
799.5141	228.0044	21563.95	20871.3
799.6565	230.2314	22038.65	21350.8
799.7989	232.4578	22415.5	21725.3
799.9413	234.6837	22758.75	22061.4
800.0837	236.909	22948.35	22248.8
800.2262	239.1339	22922.35	22200.5
800.3687	241.3582	22718.7	22011.05
800.5111	243.582	22395.85	21658.65
800.6536	245.8053	22069.9	21342.35
800.7961	248.0281	21752.5	21031.05
800.9387	250.2503	21524.85	20795.85
801.0812	252.472	21338.15	20607.6
801.2238	254.6932	21330.4	20593.1
801.3664	256.9139	21231.7	20493.7
801.509	259.134	21228.15	20488.75
801.6516	261.3536	21275.05	20539.8
801.7942	263.5727	21366.15	20624.4
801.9369	265.7912	21346.5	20610.1
802.0795	268.0092	21409.5	20670.55
802.2222	270.2267	21335.25	20596.5
802.3649	272.4436	21295.25	20553.4
802.5076	274.6601	21233.15	20483.8
802.6504	276.8759	21137.35	20392.75
802.7931	279.0913	21069.55	20323.4
802.9359	281.3061	21004.95	20258.3
803.0787	283.5204	21067.8	20317.05
803.2215	285.7341	21099.9	20348.15
803.3643	287.9473	21228.15	20464.05
803.5071	290.16	21456.5	20697.2
803.6499	292.3721	21747.25	20992.75
803.7928	294.5837	22129.1	21374.15
803.9357	296.7947	22453.45	21699.8
804.0786	299.0052	22624.15	21868.5
804.2215	301.2152	22508.8	21748.45
804.3644	303.4246	22152.25	21394.4
804.5074	305.6334	21570.9	20819.25
804.6503	307.8418	21026.9	20266.4
804.7933	310.0495	20548.75	19786.15
804.9363	312.2568	20257.5	19497.45
805.0793	314.4635	19958.35	19198.05
805.2223	316.6696	19821.75	19059.8
805.3653	318.8752	19739.75	18969.05
805.5084	321.0802	19796.1	19034.3
805.6514	323.2847	19874.65	19110.4
805.7945	325.4887	19920.8	19158.25
805.9376	327.692	19829.45	19064.75
806.0807	329.8949	19753.35	18986.5
806.2238	332.0972	19451.75	18683.1
806.367	334.2989	19171	18396.45
806.5101	336.5001	18856.6	18084.95
806.6533	338.7007	18654.2	17883.3
806.7965	340.9008	18532.3	17760.55
806.9397	343.1003	18430.15	17655.8
807.0829	345.2992	18338.7	17559.75
807.2261	347.4976	18252.35	17473.8
807.3693	349.6955	18236.5	17452.15
807.5126	351.8927	18279.25	17495.85
807.6559	354.0895	18267.25	17478.2
807.7991	356.2856	18298.55	17514.05
807.9424	358.4812	18251.05	17470.25
808.0857	360.6763	18270.25	17484.3
808.2291	362.8707	18221.65	17434.2
808.3724	365.0646	18268.85	17479
808.5158	367.258	18254.35	17465
808.6591	369.4508	18277.75	17483.5
808.8025	371.643	18357.2	17565.15
808.9459	373.8346	18304.8	17511.85
809.0893	376.0257	18288.45	17488.95
809.2327	378.2162	18202.8	17406.75
809.3762	380.4062	18098	17296.95
809.5196	382.5956	17925.5	17125
809.6631	384.7844	17832.6	17034.25
809.8066	386.9726	17676.6	16875.3
809.9501	389.1603	17604.15	16802.6
810.0936	391.3474	17576.25	16741.25
810.2371	393.5339	17486.4	16688.45
810.3806	395.7199	17429.8	16634.5
810.5241	397.9052	17423.2	16631.75
810.6677	400.09	17417.25	16624
810.8113	402.2743	17488.4	16695.95
810.9548	404.4579	17598.7	16804.8
811.0984	406.641	17752.2	16955.35
811.2421	408.8235	17967.6	17174.9
811.3857	411.0054	18281.65	17488.35
811.5293	413.1868	18697.15	17901.1
811.673	415.3675	18942.2	18142.15
811.8166	417.5477	19106.55	18307.9
811.9603	419.7273	19165.55	18364.25
812.104	421.9064	19053.8	18245.55
812.2477	424.0848	18892	18085.4
812.3914	426.2627	18610.6	17800.65
812.5351	428.4399	18330.1	17520.55
812.6788	430.6166	17951.15	17140.45
812.8226	432.7928	17582.25	16769
812.9663	434.9683	17241.25	16426.25
813.1101	437.1432	16987.85	16174.5
813.2539	439.3176	16821.35	16006.85
813.3977	441.4914	16693.3	15878
813.5415	443.6645	16642.2	15825.7
813.6853	445.8371	16575.05	15757.5
813.8291	448.0091	16469.55	15652.75
813.973	450.1806	16443.95	15623.95
814.1168	452.3514	16355.05	15535.2
814.2607	454.5216	16341.4	15511.45
814.4046	456.6913	16276.85	15458.45
814.5485	458.8603	16304.05	15483.25
814.6924	461.0288	16368.2	15547.3
814.8363	463.1967	16343.9	15520.6
814.9802	465.3639	16468.45	15644.75
815.1241	467.5306	16531.35	15710.1
815.2681	469.6967	16602.6	15780.4
815.412	471.8622	16745.45	15924.6
815.556	474.0271	16865.7	16047.35
815.7	476.1914	16931.75	16107.4
815.844	478.3551	16916.8	16094.15
815.988	480.5182	16887.5	16065.65
816.132	482.6807	16860.65	16034.85
816.276	484.8426	16981.65	16156.4
816.4201	487.0039	17286.05	16457.55
816.5641	489.1647	17679.65	16852.7
816.7082	491.3248	18087.15	17259.5
816.8522	493.4843	18262.95	17436.15
816.9963	495.6432	18227.7	17398.05
817.1404	497.8015	18077.3	17247.35
817.2845	499.9592	18090.85	17263.55
817.4286	502.1163	17972.1	17143.7
817.5727	504.2728	17734.5	16903.95
817.7168	506.4287	17414.65	16582.35
817.861	508.5839	16941.65	16114.3
818.0051	510.7386	16607.85	15779.05
818.1493	512.8927	16474.2	15638.45
818.2935	515.0461	16330.4	15500.9
818.4377	517.199	16262.9	15429.4
818.5818	519.3512	16253.25	15422.25
818.726	521.5029	16355.05	15519
818.8703	523.6539	16416.65	15584.05
819.0145	525.8043	16453.75	15619.45
819.1587	527.9541	16458.75	15623.5
819.303	530.1033	16409.85	15576.25
819.4472	532.2519	16419.1	15585.55
819.5915	534.3999	16485.35	15647.5
819.7357	536.5472	16768.1	15932.75
819.88	538.694	17173.15	16337.9
820.0243	540.8401	17731.45	16896.05
820.1686	542.9856	18213.55	17374
820.3129	545.1305	18327.6	17487.45
820.4572	547.2748	18151.5	17313.15
820.6016	549.4185	17766.35	16927.6
820.7459	551.5615	17415.35	16577.2
820.8902	553.704	17243	16399.4
821.0346	555.8458	17224.45	16385.35
821.1789	557.987	17211.2	16370.95
821.3233	560.1276	17211.2	16368.4
821.4677	562.2675	17226.75	16387.1
821.6121	564.4069	17292.4	16450.9
821.7565	566.5456	17385.05	16544.85
821.9009	568.6837	17304.9	16463.3
822.0453	570.8212	16998.15	16157.7
822.1897	572.958	16581.15	15736.45
822.3342	575.0942	16213.3	15370.6
822.4786	577.2299	15986.8	15143.9
822.6231	579.3648	15903.45	15061.15
822.7675	581.4992	15974.55	15132.8
822.912	583.6329	16175.5	15334.05
823.0565	585.766	16381.5	15540.35
823.201	587.8985	16516.35	15676.45
823.3454	590.0304	16507.7	15642.65
823.4899	592.1616	16391.35	15544
823.6345	594.2922	16268.35	15423.5
823.779	596.4222	16072.35	15227
823.9235	598.5515	15881.15	15037.2
824.068	600.6802	15681.25	14838.25
824.2126	602.8083	15518.4	14674.3
824.3571	604.9358	15477.15	14632.3
824.5017	607.0626	15402.15	14557.5
824.6462	609.1888	15311.55	14464.05
824.7908	611.3144	15299.75	14453.3
824.9354	613.4393	15210.9	14365.3
825.08	615.5636	15137.95	14289.85
825.2246	617.6873	15026.95	14180.4
825.3692	619.8103	14965.2	14113.45
825.5138	621.9327	14852.55	14000.5
825.6584	624.0544	14757.4	13909.15
825.803	626.1756	14722.5	13873.9
825.9477	628.2961	14635.35	13786.85
826.0923	630.4159	14552.4	13702
826.237	632.5351	14494.45	13646.05
826.3816	634.6537	14436.95	13590.5
826.5263	636.7716	14445.5	13593.05
826.6709	638.8889	14392.3	13542.7
826.8156	641.0056	14436.9	13583.95
826.9603	643.1216	14360.1	13507.95
827.105	645.237	14401.3	13547.35
827.2497	647.3518	14333.45	13481
827.3944	649.4659	14338.1	13487.75
827.5391	651.5793	14309.9	13456
827.6838	653.6922	14270.85	13419.9
827.8285	655.8043	14255.55	13402.65
827.9733	657.9159	14220	13365.75
828.118	660.0268	14123.35	13266.9
828.2627	662.137	14039.95	13183.5
828.4075	664.2466	14061.9	13205.05
828.5522	666.3556	13998.2	13146.4
828.697	668.4639	13960.75	13104.55
828.8418	670.5716	14000.15	13145.2
828.9865	672.6786	14052	13195.9
829.1313	674.785	14065.05	13208.4
829.2761	676.8907	14141.5	13285.35
829.4209	678.9958	14197.7	13343.05
829.5657	681.1002	14171.95	13317.8
829.7105	683.204	14115.1	13254.8
829.8553	685.3072	14053.75	13195.8
830.0001	687.4097	13980.1	13123.55
830.1449	689.5115	13915.8	13056.75
830.2898	691.6127	13849.15	12991.75
830.4346	693.7132	13763.1	12904
830.5794	695.8131	13708	12835.9
830.7243	697.9123	13685.35	12823.8
830.8691	700.0109	13651.4	12792.25
831.014	702.1089	13646.95	12787.25
831.1588	704.2061	13610.05	12748.9
831.3037	706.3028	13608.1	12745.65
831.4486	708.3987	13661.05	12802.45
831.5935	710.4941	13717.45	12857.5
831.7383	712.5887	13880.95	13022.15
831.8832	714.6827	14149.5	13285.4
832.0281	716.7761	14464	13600.6
832.173	718.8688	14779.45	13917.65
832.3179	720.9608	14938.6	14072.5
832.4628	723.0522	15008.25	14144.65
832.6077	725.1429	14800.3	13938.9
832.7527	727.233	14567.65	13707
832.8976	729.3224	14349.2	13483.9
833.0425	731.4112	14077.85	13210.65
833.1874	733.4993	13870.75	13004.95
833.3324	735.5867	13673.1	12808.05
833.4773	737.6735	13506.65	12639.15
833.6222	739.7596	13396.8	12531.45
833.7672	741.845	13312.05	12446.45
833.9122	743.9298	13304.8	12436.55
834.0571	746.014	13253.45	12389.1
834.2021	748.0974	13273.15	12404.65
834.347	750.1802	13250.95	12387.95
834.492	752.2624	13264.2	12401.4
834.637	754.3439	13272.35	12406.95
834.782	756.4247	13361.45	12485.65
834.9269	758.5048	13438.75	12575
835.0719	760.5843	13677.5	12811.55
835.2169	762.6631	13989.5	13121.9
835.3619	764.7413	14486.55	13622.4
835.5069	766.8188	15093.75	14225.85
835.6519	768.8956	15576.2	14707.85
835.7969	770.9718	15813.35	14949.45
835.9419	773.0473	15682.05	14814.75
836.0869	775.1221	15326.6	14461.95
836.232	777.1962	14960.15	14092.3
836.377	779.2697	14755.85	13888.65
836.522	781.3426	14796.45	13911.7
836.667	783.4147	15013.6	14146.65
836.8121	785.4862	15298.9	14433.2
836.9571	787.557	15286.8	14420.45
837.1021	789.6271	14876.9	14007.4
837.2472	791.6966	14277.65	13410.15
837.3922	793.7654	13720.9	12850.85
837.5373	795.8335	13354.35	12487.35
837.6823	797.901	13137.3	12269.4
837.8274	799.9678	13018	12148.25
837.9724	802.0339	13030.9	12165.4
838.1175	804.0993	13026.2	12145.25
838.2626	806.1641	12988.3	12118.8
838.4076	808.2282	12907.65	12037.3
838.5527	810.2916	12818.5	11946.15
838.6978	812.3544	12710.1	11843.75
838.8428	814.4164	12613.65	11745.45
838.9879	816.4778	12624.45	11754.9
839.133	818.5385	12605.65	11736.9
839.2781	820.5986	12672.95	11804.95
839.4232	822.658	12781.05	11913.3
839.5682	824.7166	12932.45	12063.8
839.7133	826.7747	13144.7	12278.45
839.8584	828.832	13403.75	12533.9
840.0035	830.8886	13534.75	12662.05
840.1486	832.9446	13680.7	12810.25
840.2937	834.9999	13657.25	12788.2
840.4388	837.0545	13634.5	12758.65
840.5839	839.1085	13567.5	12697.25
840.729	841.1618	13473.05	12597.55
840.8741	843.2143	13385.3	12517.85
841.0192	845.2662	13237.25	12365.5
841.1643	847.3175	13169.15	12299.75
841.3095	849.368	13037.65	12167.4
841.4546	851.4179	12924.9	12053.95
841.5997	853.467	12739.3	11871.1
841.7448	855.5155	12650.4	11778.25
841.8899	857.5633	12517.4	11645.95
842.0351	859.6105	12406.3	11537.45
842.1802	861.6569	12335.05	11465.8
842.3253	863.7027	12241.95	11368.7
842.4704	865.7478	12196.85	11326.8
842.6156	867.7922	12182.8	11311.5
842.7607	869.8359	12195.4	11322.8
842.9058	871.8789	12305.7	11432.35
843.0509	873.9212	12453.15	11548
843.1961	875.9629	12597.5	11725.9
843.3412	878.0039	12750.75	11874.4
843.4863	880.0441	12809.25	11937.7
843.6315	882.0837	12827.5	11954.4
843.7766	884.1226	12731.65	11856.4
843.9218	886.1609	12618.3	11744.5
844.0669	888.1984	12552.45	11680.75
844.212	890.2352	12532.9	11662.9
844.3572	892.2714	12491.6	11615.15
844.5023	894.3069	12476.65	11601.05
844.6475	896.3416	12348.45	11476
844.7926	898.3757	12273.25	11398.3
844.9377	900.4091	12233.65	11359.6
845.0829	902.4418	12218.65	11338.65
845.228	904.4739	12243.75	11366.5
845.3732	906.5052	12248.65	11374.4
845.5183	908.5358	12122.6	11247.9
845.6635	910.5658	11954.95	11079.2
845.8086	912.595	11805.05	10931.2
845.9538	914.6236	11650.25	10777.45
846.0989	916.6515	11546.9	10673.6
846.2441	918.6786	11497.5	10621.35
846.3892	920.7051	11545.6	10670.45
846.5344	922.7309	11636.45	10762.8
846.6795	924.756	11663.2	10785.85
846.8246	926.7804	11770.2	10895.05
846.9698	928.8041	11746.25	10866.05
847.1149	930.8272	11762.35	10887.15
847.2601	932.8495	11680.25	10804.2
847.4052	934.8711	11610.15	10730.45
847.5504	936.892	11471.5	10595.35
847.6955	938.9123	11345.95	10470.7
847.8407	940.9318	11229	10351.7
847.9858	942.9506	11112.05	10234.25
848.131	944.9688	10999.5	10123.05
848.2761	946.9862	10931	10054.6
848.4213	949.003	10857.2	9980.35
848.5664	951.019	10840.7	9964.05
848.7115	953.0344	10832.7	9957.3
848.8567	955.0491	10865.3	9987.7
849.0018	957.063	10906.15	10030.1
849.147	959.0763	10999.05	10123.55
849.2921	961.0888	11040	10159.4
849.4373	963.1007	11093.8	10216.55
849.5824	965.1119	11126.3	10249.1
849.7275	967.1223	11138.2	10261
849.8727	969.1321	11137.45	10258.8
850.0178	971.1412	11178.05	10301
850.1629	973.1495	11185.4	10307.8
850.3081	975.1572	11210.1	10301.25
850.4532	977.1641	11206.55	10329
850.5983	979.1704	11153.4	10274.75
850.7435	981.1759	11134.4	10254.8
850.8886	983.1808	11209.8	10332.45
851.0337	985.1849	11277.8	10389.7
851.1788	987.1884	11407.45	10527.75
851.324	989.1911	11537.2	10655.7
851.4691	991.1932	11650.65	10771.85
851.6142	993.1945	11693.5	10814.4
851.7593	995.1951	11664.65	10785.6
851.9045	997.1951	11613.55	10731.8
852.0496	999.1943	11512.65	10636.25
852.1947	1001.1928	11515.2	10637.5
852.3398	1003.1906	11510.35	10632.3
852.4849	1005.1877	11516.05	10636.55
852.63	1007.1841	11526.2	10649.25
852.7751	1009.1798	11438.65	10560.45
852.9202	1011.1748	11292.95	10415.95
853.0653	1013.1691	11083.5	10204.1
853.2104	1015.1627	10854.2	9976.35
853.3555	1017.1556	10616.2	9736.85
853.5006	1019.1477	10530	9651.75
853.6457	1021.1392	10424.05	9546.15
853.7908	1023.1299	10391.5	9513.85
853.9359	1025.12	10408.15	9527.3
854.081	1027.1093	10491.55	9614.05
854.2261	1029.0979	10558.15	9681.1
854.3712	1031.0859	10630.3	9754.3
854.5163	1033.0731	10632.3	9752.85
854.6613	1035.0596	10539	9659.95
854.8064	1037.0454	10386.65	9508.8
854.9515	1039.0304	10259.9	9381.1
855.0965	1041.0148	10128.75	9251
855.2416	1042.9985	10016.25	9137.25
855.3867	1044.9814	9964.55	9088.1
855.5317	1046.9636	9927.05	9044.85
855.6768	1048.9452	9898.95	9023.2
855.8219	1050.926	9915.25	9037.8
855.9669	1052.9061	9882.25	9006.9
856.112	1054.8855	9884.05	9004.45
856.257	1056.8642	9923.4	9044.25
856.4021	1058.8421	9936.2	9057.65
856.5471	1060.8194	9974.55	9097.5
856.6921	1062.7959	9988.55	9110.3
856.8372	1064.7717	10046.4	9167.3
856.9822	1066.7469	10054.7	9175.05
857.1272	1068.7213	10021.6	9142.05
857.2723	1070.695	10045.6	9166.6
857.4173	1072.6679	9981.6	9100.5
857.5623	1074.6402	9934.2	9055.45
857.7073	1076.6117	9882.9	8997.9
857.8523	1078.5826	9877	8996.9
857.9973	1080.5527	9871.25	8989.3
858.1423	1082.5221	9928.75	9049.7
858.2873	1084.4908	10069.4	9192.05
858.4323	1086.4587	10254.6	9374.35
858.5773	1088.426	10378.65	9498.8
858.7223	1090.3925	10350.8	9466.65
858.8673	1092.3584	10322.1	9444.75
859.0123	1094.3235	10177.65	9297.25
859.1573	1096.2879	10113.1	9232.4
859.3022	1098.2515	10136.3	9257.2
859.4472	1100.2145	10210.85	9330.1
859.5922	1102.1767	10312.8	9431.5
859.7371	1104.1382	10468.65	9587.35
859.8821	1106.099	10683.2	9801.6
860.027	1108.0591	10900.7	10021.4
860.172	1110.0185	11022.25	10138.15
860.3169	1111.9771	11070.95	10191.05
860.4619	1113.9351	10856.1	9977.45
860.6068	1115.8923	10580.8	9699.05
860.7517	1117.8488	10273.3	9393.05
860.8967	1119.8045	10006.1	9124.85
861.0416	1121.7596	9884.8	9005.4
861.1865	1123.7139	9813.4	8934.55
861.3314	1125.6675	9792.15	8914.55
861.4763	1127.6204	9835.4	8956.5
861.6212	1129.5726	9820.5	8937.75
861.7661	1131.524	9778.6	8899.55
861.911	1133.4748	9761.95	8881.25
862.0559	1135.4248	9676.25	8796.7
862.2008	1137.3741	9670.15	8787
862.3457	1139.3226	9610.15	8727.35
862.4905	1141.2705	9560.7	8680.3
862.6354	1143.2176	9501.6	8613.7
862.7803	1145.164	9481.45	8598.1
862.9251	1147.1097	9443.3	8561.2
863.07	1149.0546	9399.35	8518.85
863.2148	1150.9989	9326.95	8443.15
863.3597	1152.9424	9185	8303.55
863.5045	1154.8852	9014.05	8133
863.6493	1156.8272	8893.9	8015.05
863.7942	1158.7686	8862.55	7975
863.939	1160.7092	8823.25	7939.7
864.0838	1162.6491	8814.7	7934.1
864.2286	1164.5883	8877.9	7998.1
864.3734	1166.5267	8967.5	8085.2
864.5182	1168.4644	9112.25	8229.05
864.663	1170.4014	9295.1	8410.1
864.8078	1172.3377	9553.5	8674
864.9526	1174.2732	9791.75	8911.05
865.0974	1176.2081	10062.25	9180.75
865.2421	1178.1421	10321.05	9435.6
865.3869	1180.0755	10587.9	9711
865.5317	1182.0082	10738.95	9855.15
865.6764	1183.9401	10750.55	9868.95
865.8212	1185.8713	10574.85	9692.65
865.9659	1187.8017	10321.6	9441.7
866.1106	1189.7315	10063.35	9182.85
866.2554	1191.6605	9787.5	8877.3
866.4001	1193.5888	9548.6	8666.45
866.5448	1195.5163	9421.05	8540.95
866.6895	1197.4432	9321.4	8435.85
866.8342	1199.3693	9299.45	8419.25
866.9789	1201.2947	9272.6	8383.9
867.1236	1203.2193	9225	8345.05
867.2683	1205.1432	9232.35	8348.2
867.413	1207.0664	9240.75	8360.4
867.5576	1208.9889	9282.7	8397.15
867.7023	1210.9106	9315.4	8434.4
867.847	1212.8316	9344.1	8462.8
867.9916	1214.7519	9401.7	8509.95
868.1363	1216.6715	9421.5	8540.2
868.2809	1218.5903	9415.3	8533.75
868.4255	1220.5084	9420.05	8539.8
868.5701	1222.4257	9429.8	8548.55
868.7148	1224.3424	9379.35	8499.3
868.8594	1226.2583	9457.5	8569.85
869.004	1228.1735	9522.35	8638.65
869.1486	1230.0879	9613.85	8731.4
869.2932	1232.0016	9763.6	8881.75
869.4377	1233.9146	9796.3	8914.1
869.5823	1235.8269	9707.5	8827.3
869.7269	1237.7384	9581.15	8699.15
869.8715	1239.6492	9371.2	8489.85
870.016	1241.5592	9267.35	8383.35
870.1606	1243.4686	9211.8	8330.85
870.3051	1245.3772	9212.5	8330.55
870.4496	1247.285	9191.25	8309.6
870.5941	1249.1922	9203.4	8322.35
870.7387	1251.0986	9214.05	8332.65
870.8832	1253.0042	9204.45	8322.45
871.0277	1254.9092	9234	8351.25
871.1722	1256.8134	9318.35	8435.8
871.3167	1258.7169	9485.1	8601.35
871.4611	1260.6196	9632.5	8752.05
871.6056	1262.5216	9844.45	8962.8
871.7501	1264.4229	10020.95	9139.75
871.8945	1266.3234	10176.9	9293.55
872.039	1268.2232	10237	9352
872.1834	1270.1223	10235.85	9353.25
872.3278	1272.0207	10228	9345
872.4723	1273.9183	10178.65	9286.15
872.6167	1275.8151	10107.85	9224.7
872.7611	1277.7113	10024.95	9139.85
872.9055	1279.6067	9909.15	9028.6
873.0499	1281.5014	9853.8	8970.5
873.1943	1283.3953	9861.9	8975.5
873.3386	1285.2885	9934.2	9053.55
873.483	1287.181	10016.6	9134.5
873.6274	1289.0727	10147.55	9266
873.7717	1290.9637	10236.7	9353.75
873.9161	1292.854	10368.15	9485.9
874.0604	1294.7435	10435.95	9553.1
874.2047	1296.6323	10564.95	9681.3
874.349	1298.5204	10698.4	9812.65
874.4933	1300.4077	10846.5	9962.95
874.6376	1302.2943	10947.35	10066.05
874.7819	1304.1802	10950.85	10067.95
874.9262	1306.0653	10804.95	9920.9
875.0705	1307.9497	10572.7	9690.2
875.2147	1309.8333	10380.25	9499.45
875.359	1311.7162	10269.7	9386.95
875.5032	1313.5984	10272.15	9386.05
875.6475	1315.4798	10336.25	9443.15
875.7917	1317.3605	10433.2	9534.3
875.9359	1319.2405	10509.85	9627.15
876.0801	1321.1197	10465.5	9578.75
876.2243	1322.9982	10324.65	9438.9
876.3685	1324.876	10249.2	9368.55
876.5127	1326.753	10130.1	9249.8
876.6569	1328.6293	10103.15	9215.6
876.801	1330.5048	10077.45	9191.1
876.9452	1332.3796	10011.3	9130.05
877.0893	1334.2537	10008.1	9099.85
877.2335	1336.127	9943.35	9059.45
877.3776	1337.9996	9926.5	9042.4
877.5217	1339.8714	9919.05	9035.15
877.6658	1341.7426	9906.3	8977.7
877.8099	1343.6129	9866.2	8981.15
877.954	1345.4826	9810.2	8928.05
878.0981	1347.3515	9806.05	8920.9
878.2422	1349.2196	9741.4	8858.3
878.3862	1351.087	9792.7	8910.25
878.5303	1352.9537	9839.75	8954.75
878.6743	1354.8197	9953.4	9069
878.8184	1356.6849	10115.65	9230.7
878.9624	1358.5493	10228.55	9343.75
879.1064	1360.4131	10297.3	9413.1
879.2504	1362.276	10255.6	9371.55
879.3944	1364.1383	10130.45	9248.65
879.5384	1365.9998	9913.1	9023.1
879.6823	1367.8606	9583.95	8701.7
879.8263	1369.7206	9286.15	8402
879.9702	1371.5799	9043	8157.45
880.1142	1373.4384	8838.6	7953.1
880.2581	1375.2962	8676	7789.35
880.402	1377.1533	8399.05	7514.95
880.5459	1379.0096	8122.7	7234.8
880.6898	1380.8652	7795.5	6912.25
880.8337	1382.7201	7541.6	6657.2
880.9776	1384.5742	7335.75	6452
881.1215	1386.4275	7153.6	6270.5
881.2653	1388.2802	7009.25	6125.5
881.4092	1390.132	6905.55	6022.65
881.553	1391.9832	6862.15	5979.2
881.6968	1393.8336	6795.65	5910.35
881.8406	1395.6832	6741.45	5855.7
881.9844	1397.5322	6718.1	5835.5
882.1282	1399.3803	6711.2	5823.35
882.272	1401.2278	6683.15	5798.8
882.4158	1403.0745	6664.45	5778.6
882.5595	1404.9204	6648.05	5766.95
882.7033	1406.7656	6687.8	5803.75
882.847	1408.6101	6712	5828.8
882.9908	1410.4538	6727.25	5845.25
883.1345	1412.2968	6796.75	5911.7
883.2782	1414.139	6838.05	5953.5
883.4219	1415.9805	6949.65	6066.6
883.5656	1417.8213	7049.05	6156.6
883.7092	1419.6613	7157.15	6273.45
883.8529	1421.5006	7318.05	6433
883.9965	1423.3391	7558.2	6675.65
884.1402	1425.1769	7895.6	7008.85
884.2838	1427.0139	8374.35	7491.35
884.4274	1428.8502	8966.5	8080.6
884.571	1430.6858	9542.8	8659.65
884.7146	1432.5206	9971.65	9086.6
884.8582	1434.3547	10187.85	9303.9
885.0018	1436.188	10219.05	9334.6
885.1453	1438.0206	10133.7	9249
885.2889	1439.8524	9982.75	9097.6
885.4324	1441.6835	9877.5	8992.9
885.5759	1443.5139	9767.7	8880.95
885.7194	1445.3435	9686.45	8803.95
885.8629	1447.1724	9627.4	8741.85
886.0064	1449.0005	9562.25	8677.25
886.1499	1450.8279	9500.5	8615.35
886.2933	1452.6545	9459.3	8577.05
886.4368	1454.4804	9494.35	8610.35
886.5802	1456.3056	9475.9	8584.5
886.7237	1458.13	9401.8	8517.75
886.8671	1459.9536	9187.55	8303.35
887.0105	1461.7766	8828.65	7945.05
887.1539	1463.5987	8429.85	7544.15
887.2972	1465.4202	8075.9	7192.65
887.4406	1467.2409	7700.5	6814.7
887.584	1469.0608	7422.25	6537.55
887.7273	1470.88	7175.8	6289.3
887.8706	1472.6984	6949.8	6064.55
888.0139	1474.5161	6743.35	5857.05
888.1572	1476.3331	6582.4	5701.2
888.3005	1478.1493	6472.05	5587
888.4438	1479.9648	6381.5	5499.65
888.5871	1481.7795	6270.3	5387.1
888.7303	1483.5935	6216.15	5332
888.8736	1485.4067	6154.5	5270.2
889.0168	1487.2192	6113.65	5228.95
889.16	1489.031	6067	5180.55
889.3032	1490.842	5996.3	5109.7
889.4464	1492.6522	5982.6	5100.5
889.5896	1494.4618	5952.75	5066.85
889.7327	1496.2705	5920.1	5035.55
889.8759	1498.0785	5874.55	4988.1
890.019	1499.8858	5846.85	4963.35
890.1622	1501.6924	5823.1	4939.3
890.3053	1503.4981	5813.5	4932.05
890.4484	1505.3032	5765.7	4881.75
890.5914	1507.1075	5727.05	4844.5
890.7345	1508.911	5716.9	4832.8
890.8776	1510.7138	5668.15	4783.45
891.0206	1512.5159	5635.7	4753.8
891.1637	1514.3172	5612.55	4729.9
891.3067	1516.1178	5581.2	4700.65
891.4497	1517.9176	5559.35	4674.55
891.5927	1519.7166	5507.6	4623.55
891.7357	1521.515	5490.85	4601.05
891.8786	1523.3126	5463.1	4579.3
892.0216	1525.1094	5446.8	4561.75
892.1645	1526.9055	5409.2	4525
892.3074	1528.7008	5386.65	4504.3
892.4503	1530.4954	5377.2	4490.15
892.5932	1532.2893	5378.3	4497.8
892.7361	1534.0824	5355.8	4467.65
892.879	1535.8747	5351.95	4469.85
893.0218	1537.6663	5331.15	4448.4
893.1647	1539.4572	5313.2	4426
893.3075	1541.2473	5325.1	4442.45
893.4503	1543.0367	5307.45	4423
893.5931	1544.8253	5325.55	4437.25
893.7359	1546.6132	5313.6	4424.8
893.8787	1548.4003	5318	4423.65
894.0214	1550.1867	5365.35	4473.7
894.1642	1551.9723	5381.9	4495.35
894.3069	1553.7572	5435.95	4554.2
894.4496	1555.5414	5455.05	4571
894.5923	1557.3247	5530.45	4645.2
894.735	1559.1074	5617.3	4733.6
894.8777	1560.8893	5694.7	4811.75
895.0204	1562.6705	5809.45	4927.15
895.163	1564.4509	5896.85	5012.45
895.3056	1566.2305	5978.25	5095.6
895.4482	1568.0094	6032.1	5150.25
895.5908	1569.7876	6055.55	5171.95
895.7334	1571.565	6085.5	5201.95
895.876	1573.3417	6070.05	5185.85
896.0186	1575.1176	6074.2	5193.2
896.1611	1576.8928	6050.95	5168.25
896.3036	1578.6672	5994.2	5112.25
896.4461	1580.4409	5896.05	5014.25
896.5886	1582.2138	5811.05	4924.35
896.7311	1583.986	5725.45	4840.6
896.8736	1585.7575	5667.85	4786.95
897.0161	1587.5282	5632	4748.25
897.1585	1589.2981	5632.45	4750.2
897.3009	1591.0673	5612.25	4728.85
897.4433	1592.8358	5642.7	4761.1
897.5857	1594.6035	5666.7	4781.65
897.7281	1596.3704	5688.75	4804.9
897.8705	1598.1366	5729.4	4846.45
898.0128	1599.9021	5776.2	4894.1
898.1551	1601.6668	5837	4950.35
898.2975	1603.4308	5918.7	5033.05
898.4398	1605.194	6023.25	5134.3
898.5821	1606.9564	6153.7	5269.85
898.7243	1608.7182	6306.2	5418.2
898.8666	1610.4791	6504.7	5621.1
899.0088	1612.2394	6696.55	5812.9
899.1511	1613.9988	6922.95	6039.25
899.2933	1615.7576	7125.1	6242.25
899.4355	1617.5156	7334.45	6445.85
899.5776	1619.2728	7529.1	6645.75
899.7198	1621.0293	7622.1	6741.45
899.862	1622.785	7609.2	6720.75
900.0041	1624.54	7525.25	6636.6
900.1462	1626.2942	7357.7	6472.45
900.2883	1628.0477	7103.45	6217.2
900.4304	1629.8005	6886.75	5997.55
900.5725	1631.5525	6667.75	5786.1
900.7145	1633.3037	6486.95	5603
900.8566	1635.0542	6355.65	5474.8
900.9986	1636.804	6253.75	5369.45
901.1406	1638.553	6232.6	5269
901.2826	1640.3013	6145.8	5263.25
901.4245	1642.0488	6123.3	5238.95
901.5665	1643.7955	6141	5258.95
901.7085	1645.5416	6210.7	5328.35
901.8504	1647.2868	6318.05	5433.85
901.9923	1649.0313	6416.45	5533.55
902.1342	1650.7751	6574.6	5688.9
902.2761	1652.5181	6744.45	5861.7
902.4179	1654.2604	6954.9	6072.2
902.5598	1656.0019	7225.75	6343.9
902.7016	1657.7427	7553	6668.5
902.8434	1659.4828	7834.2	6952.2
902.9852	1661.222	8009.25	7125.25
903.127	1662.9606	8010.7	7128.6
903.2687	1664.6984	7802.95	6919
903.4105	1666.4354	7390.75	6510.05
903.5522	1668.1717	6853.5	5971.05
903.6939	1669.9072	6347.15	5463
903.8356	1671.642	5913.35	5029.4
903.9773	1673.3761	5565.85	4684.7
904.119	1675.1094	5299.2	4416.25
904.2606	1676.8419	5079.2	4196.55
904.4022	1678.5737	4920.3	4038.85
904.5439	1680.3048	4808.5	3926.4
904.6855	1682.0351	4707.75	3824.85
904.827	1683.7646	4638.7	3751.25
904.9686	1685.4934	4566.6	3685.7
905.1101	1687.2215	4517.6	3636.7
905.2517	1688.9488	4458.35	3574.65
905.3932	1690.6754	4411.85	3529.95
905.5347	1692.4012	4399.8	3517.65
905.6761	1694.1263	4363.75	3481.6
905.8176	1695.8506	4333.15	3451.2
905.9591	1697.5742	4299.9	3417.4
906.1005	1699.297	4278.3	3395.4
906.2419	1701.0191	4237.1	3355.9
906.3833	1702.7404	4214.85	3332.05
906.5246	1704.461	4200.25	3317.25
906.666	1706.1808	4170.45	3287.1
906.8073	1707.8999	4152.6	3268
906.9487	1709.6182	4139.2	3257
907.09	1711.3358	4112.8	3229.6
907.2313	1713.0527	4087.4	3204.45
907.3725	1714.7688	4083.3	3195.05
907.5138	1716.4841	4045.4	3161.9
907.655	1718.1987	4054.3	3167.8
907.7962	1719.9126	4017.55	3136.25
907.9374	1721.6257	4005.3	3119.8
908.0786	1723.338	3997.7	3113.75
908.2198	1725.0496	3979.25	3096.4
908.3609	1726.7605	3962.05	3079.55
908.502	1728.4706	3957.95	3073.25
908.6431	1730.18	3940.65	3055.2
908.7842	1731.8886	3915.4	3032
908.9253	1733.5964	3921.85	3036.05
909.0664	1735.3036	3903.75	3018.6
909.2074	1737.0099	3891.6	3009.3
909.3484	1738.7156	3874.5	2992.25
909.4894	1740.4204	3849.5	2961.15
909.6304	1742.1246	3845.1	2959.2
909.7714	1743.8279	3830.6	2949.7
909.9123	1745.5306	3831.1	2948.75
910.0532	1747.2325	3804.8	2922.45
910.1941	1748.9336	3783.4	2902.9
910.335	1750.634	3766.65	2882.4
910.4759	1752.3336	3758.75	2878.05
910.6168	1754.0325	3768.85	2884.45
910.7576	1755.7307	3741.55	2859.9
910.8984	1757.4281	3752.55	2868.45
911.0392	1759.1247	3729.85	2839.85
911.18	1760.8206	3720.65	2834.05
911.3208	1762.5158	3725.7	2839.3
911.4615	1764.2102	3696.6	2815.15
911.6022	1765.9039	3686.65	2802.95
911.7429	1767.5968	3688.65	2805.65
911.8836	1769.289	3681.1	2798.8
912.0243	1770.9804	3667.55	2784.65
912.1649	1772.6711	3669.1	2786.7
912.3056	1774.361	3656.25	2772.8
912.4462	1776.0502	3646.6	2765.75
912.5868	1777.7386	3633.1	2746.5
912.7274	1779.4263	3621.4	2738.2
912.8679	1781.1132	3635.1	2751.55
913.0084	1782.7994	3611.85	2725.15
913.149	1784.4849	3616.7	2736.8
913.2895	1786.1696	3613.15	2713.2
913.4299	1787.8535	3605.8	2721.95
913.5704	1789.5367	3593.05	2708.65
913.7108	1791.2192	3577.3	2695
913.8513	1792.9009	3579.95	2683.2
913.9917	1794.5818	3575.3	2692.1
914.132	1796.2621	3549.4	2666.5
914.2724	1797.9415	3544.45	2661.85
914.4128	1799.6202	3542.65	2661.55
914.5531	1801.2982	3521.9	2641.7
914.6934	1802.9755	3528.65	2645.2
914.8337	1804.6519	3515.2	2633.75
914.9739	1806.3277	3505.75	2621.5
915.1142	1808.0027	3495.9	2614.2
915.2544	1809.6769	3494.15	2610.15
915.3946	1811.3504	3500.35	2613.9
915.5348	1813.0231	3491.3	2608.4
915.675	1814.6951	3479.5	2596.6
915.8151	1816.3664	3477.9	2594
915.9553	1818.0369	3465.3	2584.75
916.0954	1819.7067	3467.45	2586.15
916.2355	1821.3757	3459.1	2573.4
916.3755	1823.044	3454.4	2572
916.5156	1824.7115	3450.55	2568.55
916.6556	1826.3783	3439.15	2558.9
916.7956	1828.0443	3420.85	2537.8
916.9356	1829.7096	3426.35	2542.85
917.0756	1831.3741	3425.15	2537
917.2155	1833.0379	3404.5	2523.7
917.3555	1834.701	3399.15	2513.4
917.4954	1836.3633	3398.15	2515.4
917.6353	1838.0248	3404.7	2520.3
917.7751	1839.6856	3396.75	2516.7
917.915	1841.3457	3380.35	2500.45
918.0548	1843.005	3375.2	2490.55
918.1946	1844.6636	3366.75	2485.35
918.3344	1846.3214	3365.85	2482.9
918.4742	1847.9785	3367.4	2487.25
918.6139	1849.6349	3357.4	2474.1
918.7537	1851.2904	3374.55	2483.65
918.8934	1852.9453	3344.45	2462.2
919.0331	1854.5994	3344.25	2462.25
919.1727	1856.2528	3343	2454.6
919.3124	1857.9054	3342.9	2461.55
919.452	1859.5572	3331.7	2449.05
919.5916	1861.2083	3308.4	2425.9
919.7312	1862.8587	3321.65	2440.35
919.8708	1864.5084	3306.4	2422.85
920.0103	1866.1572	3298.45	2418.35
920.1498	1867.8054	3279.9	2396.5
920.2893	1869.4528	3274.25	2392.6
920.4288	1871.0994	3270.1	2389.95
920.5683	1872.7453	3268.85	2386.3
920.7077	1874.3905	3298.35	2399.7
920.8471	1876.0349	3263.65	2381.6
920.9865	1877.6786	3274.55	2391.6
921.1259	1879.3215	3261.7	2379.45
921.2653	1880.9637	3248.7	2364.7
921.4046	1882.6051	3240.35	2359.3
921.5439	1884.2458	3235.85	2351.6
921.6832	1885.8858	3218.55	2334.95
921.8225	1887.525	3213.75	2329.3
921.9617	1889.1634	3202.5	2322.25
922.101	1890.8011	3183.3	2299.6
922.2402	1892.4381	3202	2321.7
922.3794	1894.0743	3190.25	2306.1
922.5185	1895.7098	3189.2	2307.4
922.6577	1897.3446	3177.3	2293.35
922.7968	1898.9786	3178.35	2294.65
922.9359	1900.6118	3169.4	2288
923.075	1902.2443	3156.95	2271.9
923.214	1903.8761	3159.1	2276.45
923.3531	1905.5071	3144.1	2259
923.4921	1907.1374	3141.95	2259.7
923.6311	1908.7669	3136.4	2254.05
923.77	1910.3957	3125.2	2241.55
923.909	1912.0237	3111.8	2228.8
924.0479	1913.651	3114.4	2230.6
924.1868	1915.2776	3110.65	2229.75
924.3257	1916.9034	3095.9	2215.8
924.4646	1918.5285	3093.2	2212.15
924.6034	1920.1528	3084.5	2201.1
924.7422	1921.7764	3088.9	2206.25
924.881	1923.3992	3075.5	2192.65
925.0198	1925.0213	3055.85	2174.1
925.1586	1926.6427	3049.3	2167.3
925.2973	1928.2633	3157.85	2153.4
925.436	1929.8832	3059.05	2175.5
925.5747	1931.5023	3027.85	2146.55
925.7134	1933.1207	3022.55	2141.2
925.852	1934.7383	3024.2	2140.45
925.9906	1936.3552	3025.1	2143.8
926.1292	1937.9714	3003.2	2119.4
926.2678	1939.5868	3002.8	2117.9
926.4064	1941.2015	2983.45	2099.65
926.5449	1942.8154	2973.35	2091.25
926.6834	1944.4286	2981.25	2099.75
926.8219	1946.041	2977.1	2073.1
926.9604	1947.6528	2961.85	2075.65
927.0988	1949.2637	2951.9	2068.75
927.2372	1950.8739	2938.9	2056.15
927.3756	1952.4834	2931.8	2049.55
927.514	1954.0921	2928.75	2044.35
927.6523	1955.7001	2925.55	2038.9
927.7907	1957.3074	2910.15	2028
927.929	1958.9139	2909.55	2028.1
928.0673	1960.5197	2908.4	2024.2
928.2055	1962.1247	2886.95	2005.5
928.3438	1963.729	2882.25	1998.7
928.482	1965.3325	2898.65	1993.2
928.6202	1966.9353	2856.5	1976.6
928.7584	1968.5374	2853.8	1970.55
928.8965	1970.1387	2858	1974.45
929.0346	1971.7393	2838.75	1955.45
929.1727	1973.3392	2841.4	1959.45
929.3108	1974.9383	2828.9	1946.4
929.4489	1976.5366	2821.8	1939.1
929.5869	1978.1342	2815.05	1931.45
929.7249	1979.7311	2810.9	1929.6
929.8629	1981.3273	2802.65	1920.95
930.0009	1982.9227	2803.95	1920.3
930.1388	1984.5173	2790.6	1908.75
930.2767	1986.1112	2789.75	1906.4
930.4146	1987.7044	2785.3	1903.4
930.5525	1989.2968	2776.7	1894.45
930.6904	1990.8885	2785.05	1896.8
930.8282	1992.4795	2785.2	1900.6
930.966	1994.0697	2772.35	1889.9
931.1038	1995.6592	2764.45	1881.65
931.2415	1997.2479	2759.85	1876.5
931.3793	1998.8359	2750.7	1868.25
931.517	2000.4232	2730.05	1847.6
931.6547	2002.0097	2746.1	1864.4
931.7923	2003.5955	2728.8	1844.15
931.93	2005.1805	2728.55	1846.05
932.0676	2006.7648	2727.1	1843.65
932.2052	2008.3484	2720.1	1835.55
932.3427	2009.9312	2723.4	1837.8
932.4803	2011.5133	2709.1	1828.3
932.6178	2013.0946	2698.35	1815.35
932.7553	2014.6752	2701.5	1819.2
932.8928	2016.2551	2700	1817.65
933.0302	2017.8342	2683.8	1800.3
933.1676	2019.4126	2675	1791.45
933.305	2020.9902	2675.7	1793.6
933.4424	2022.5672	2685.1	1801.25
933.5798	2024.1433	2667.85	1779.45
933.7171	2025.7188	2661.35	1779.5
933.8544	2027.2935	2661.05	1776.25
933.9917	2028.8674	2656.6	1774.2
934.129	2030.4406	2636.5	1754.7
934.2662	2032.0131	2629.45	1746.05
934.4034	2033.5849	2636.55	1750
934.5406	2035.1559	2630.05	1747.5
934.6778	2036.7261	2630.75	1746.8
934.8149	2038.2957	2613.45	1730.55
934.952	2039.8645	2612.1	1727.85
935.0891	2041.4325	2613.15	1725.4
935.2262	2042.9998	2598.45	1716.4
935.3632	2044.5664	2603.6	1721.6
935.5002	2046.1323	2592.3	1710.2
935.6372	2047.6974	2589.1	1708.7
935.7742	2049.2617	2590.5	1705.8
935.9111	2050.8254	2605.85	1689.55
936.048	2052.3883	2582.2	1697.2
936.1849	2053.9504	2585.8	1703.15
936.3218	2055.5118	2586	1701.95
936.4586	2057.0725	2569	1681.7
936.5955	2058.6325	2551.75	1668.6
936.7323	2060.1917	2543.75	1660.7
936.869	2061.7502	2562.1	1677.55
937.0058	2063.3079	2552.05	1671.45
937.1425	2064.8649	2547.1	1659.75
937.2792	2066.4212	2550.8	1665.9
937.4159	2067.9767	2533.7	1651.75
937.5525	2069.5315	2526	1642.55
937.6891	2071.0856	2518.55	1636.15
937.8257	2072.6389	2524.1	1638.25
937.9623	2074.1915	2502.25	1622.35
938.0989	2075.7433	2492.8	1608.85
938.2354	2077.2945	2503.3	1622
938.3719	2078.8448	2483.5	1602.15
938.5084	2080.3945	2479.7	1596.75
938.6448	2081.9434	2472.5	1588.7
938.7812	2083.4916	2479.45	1597.15
938.9176	2085.039	2470.45	1587.2
939.054	2086.5857	2463.8	1580.2
939.1903	2088.1317	2463.25	1579.2
939.3267	2089.677	2457.5	1574.8
939.463	2091.2215	2449.2	1568.7
939.5992	2092.7652	2447.2	1562.75
939.7355	2094.3083	2445.75	1560.25
939.8717	2095.8506	2448.65	1568.4
940.0079	2097.3921	2444.1	1561.15
940.1441	2098.933	2433.2	1551.65
940.2802	2100.4731	2433.05	1551.15
940.4163	2102.0124	2434.6	1534.75
940.5524	2103.5511	2430.8	1546.95
940.6885	2105.089	2420.15	1535.7
940.8245	2106.6261	2415.05	1529.75
940.9606	2108.1626	2420.1	1534.85
941.0965	2109.6983	2444.35	1533.65
941.2325	2111.2332	2410.3	1527.8
941.3684	2112.7675	2408.2	1524.9
941.5044	2114.301	2405.65	1520.75
941.6403	2115.8337	2403.85	1522.95
941.7761	2117.3657	2392.7	1509.2
941.912	2118.897	2391.3	1507.6
942.0478	2120.4276	2392.2	1506.55
942.1835	2121.9575	2371.05	1488.25
942.3193	2123.4866	2382.45	1486
942.455	2125.0149	2381.2	1495.1
942.5907	2126.5426	2356.25	1473.5
942.7264	2128.0695	2358.6	1468.45
942.8621	2129.5956	2362.75	1479.25
942.9977	2131.1211	2352.85	1465.5
943.1333	2132.6458	2345.4	1463.3
943.2689	2134.1698	2344.45	1459.95
943.4044	2135.693	2343.15	1459.5
943.54	2137.2155	2354.2	1469.95
943.6755	2138.7373	2343.5	1461.4
943.8109	2140.2584	2339.35	1454.4
943.9464	2141.7787	2340.8	1452.1
944.0818	2143.2983	2326.2	1443
944.2172	2144.8171	2314.1	1432.4
944.3526	2146.3353	2317.4	1432.85
944.4879	2147.8527	2301.75	1420.6
944.6232	2149.3693	2297.55	1415.05
944.7585	2150.8853	2300.5	1416.7
944.8938	2152.4005	2299.95	1417.55
945.029	2153.9149	2295.2	1412.7
945.1642	2155.4287	2292.2	1407.3
945.2994	2156.9417	2288.35	1401.55
945.4346	2158.454	2282.9	1398.5
945.5697	2159.9655	2278.2	1395.45
945.7048	2161.4764	2292.5	1409.1
945.8399	2162.9865	2273.05	1390.45
945.9749	2164.4958	2268.65	1382.75
946.1099	2166.0045	2272.4	1386
946.2449	2167.5124	2257.5	1375.1
946.3799	2169.0195	2267.3	1382.85
946.5148	2170.526	2254.8	1371.35
946.6498	2172.0317	2251.45	1368.15
946.7846	2173.5367	2255.4	1372
946.9195	2175.0409	2246.55	1361.95
947.0543	2176.5445	2249.95	1367.55
947.1891	2178.0473	2249.8	1364.1
947.3239	2179.5494	2238.4	1351
947.4587	2181.0507	2228.55	1345.35
947.5934	2182.5513	2227.75	1343.4
947.7281	2184.0512	2223.85	1342.8
947.8628	2185.5504	2223.55	1339.85
947.9974	2187.0488	2216.3	1332.65
948.132	2188.5465	2209.1	1326.25
948.2666	2190.0435	2196.25	1312.25
948.4012	2191.5397	2203.55	1320.65
948.5357	2193.0353	2193.55	1311.4
948.6702	2194.5301	2190.55	1306.2
948.8047	2196.0241	2190.3	1304.8
948.9392	2197.5175	2185.6	1304.15
949.0736	2199.0101	2188.8	1302.25
949.208	2200.502	2172.5	1292
949.3424	2201.9931	2169.85	1286.7
949.4767	2203.4835	2169.35	1285.3
949.611	2204.9733	2167.5	1277.9
949.7453	2206.4622	2164.9	1281.4
949.8796	2207.9505	2145.15	1260.2
950.0138	2209.438	2142	1259.2
950.148	2210.9248	2139.7	1255.65
950.2822	2212.4109	2137.05	1255.1
950.4164	2213.8962	2144.8	1257.5
950.5505	2215.3809	2125.2	1240.3
950.6846	2216.8648	2140.55	1256.35
950.8186	2218.3479	2132.65	1242.65
950.9527	2219.8304	2119.2	1234.25
951.0867	2221.3121	2117.85	1230.15
951.2207	2222.7931	2107.45	1226.25
951.3546	2224.2733	2098.1	1216.3
951.4886	2225.7529	2111.35	1229.35
951.6225	2227.2317	2104.05	1218.05
951.7563	2228.7098	2107.7	1225
951.8902	2230.1872	2094.2	1210.6
952.024	2231.6638	2097.05	1212.75
952.1578	2233.1397	2100.7	1212.8
952.2916	2234.6149	2086.75	1201.95
952.4253	2236.0894	2076.2	1192.2
952.559	2237.5632	2081.3	1189.05
952.6927	2239.0362	2078.45	1196.95
952.8263	2240.5085	2065.65	1181.15
952.9599	2241.9801	2057.45	1174.7
953.0935	2243.4509	2053.9	1170.8
953.2271	2244.921	2050.9	1166.5
953.3606	2246.3904	2049.5	1162.8
953.4941	2247.8591	2045.65	1163.35
953.6276	2249.3271	2041.05	1157.25
953.7611	2250.7943	2035.6	1152.2
953.8945	2252.2608	2027.45	1144.15
954.0279	2253.7266	2017.15	1134.05
954.1612	2255.1917	2018.55	1135.35
954.2946	2256.656	2023.8	1138.9
954.4279	2258.1197	2023.25	1139.05
954.5612	2259.5826	2019.4	1135.55
954.6944	2261.0447	2016.95	1131.7
954.8276	2262.5062	2018.4	1132.55
954.9608	2263.9669	2008.5	1125.8
955.094	2265.4269	2007.1	1123.2
955.2271	2266.8862	2005.7	1121.45
955.3602	2268.3448	1993.45	1108.5
955.4933	2269.8026	1999.8	1115.65
955.6264	2271.2598	1990.05	1106.1
955.7594	2272.7162	1998.35	1116.3
955.8924	2274.1719	1983	1099.35
956.0253	2275.6268	1980.8	1099.8
956.1583	2277.0811	1986.4	1105.4
956.2912	2278.5346	1980.55	1099.4
956.4241	2279.9874	1990.25	1106.85
956.5569	2281.4395	1976.15	1091.85
956.6897	2282.8908	1985.3	1096.55
956.8225	2284.3414	1976.4	1090.75
956.9553	2285.7914	1971	1089
957.088	2287.2406	1966.25	1080.25
957.2207	2288.689	1969.7	1087.85
957.3534	2290.1368	1960.4	1076.45
957.486	2291.5838	1960.8	1075.25
957.6186	2293.0302	1956.65	1072.75
957.7512	2294.4758	1947.2	1063.8
957.8838	2295.9206	1948.55	1062.3
958.0163	2297.3648	1951.2	1069
958.1488	2298.8082	1940.7	1057.55
958.2813	2300.251	1934.2	1052.45
958.4137	2301.693	1934.65	1049.4
958.5461	2303.1343	1935.4	1050
958.6785	2304.5748	1931.2	1048.6
958.8108	2306.0147	1940.05	1053.55
958.9432	2307.4538	1926.6	1042.5
959.0754	2308.8922	1925	1041.95
959.2077	2310.3299	1920.4	1036.85
959.3399	2311.7669	1912.65	1030.45
959.4721	2313.2031	1909.3	1024.6
959.6043	2314.6387	1905.25	1022.45
959.7365	2316.0735	1904.55	1020.65
959.8686	2317.5076	1906.4	1024.15
960.0006	2318.941	1897.45	1014.5
960.1327	2320.3737	1901.6	1018.95
960.2647	2321.8056	1889.65	1005.05
960.3967	2323.2369	1893.1	1010.6
960.5287	2324.6674	1886.25	997.75
960.6606	2326.0972	1890.9	1005.2
960.7925	2327.5263	1894.9	1011.6
960.9244	2328.9547	1883.8	1000.8
961.0562	2330.3823	1874.95	992.95
961.1881	2331.8092	1882.75	996.05
961.3198	2333.2355	1859.3	976.4
961.4516	2334.661	1859.2	977.6
961.5833	2336.0858	1867.65	982.35
961.715	2337.5098	1865.55	982.05
961.8467	2338.9332	1868.4	984.8
961.9783	2340.3558	1858.55	971.4
962.1099	2341.7778	1856.5	972.95
962.2415	2343.199	1854.35	967.3
962.373	2344.6195	1855.3	972.8
962.5045	2346.0393	1849.45	964.4
962.636	2347.4583	1844.7	961.65
962.7675	2348.8767	1844.75	959.2
962.8989	2350.2943	1837.75	953.35
963.0303	2351.7113	1846.05	959.9
963.1617	2353.1275	1846.4	962
963.293	2354.543	1859.55	952.85
963.4243	2355.9578	1842	960.95
963.5556	2357.3718	1823.4	939.6
963.6868	2358.7852	1813.2	930.25
963.818	2360.1978	1828.45	945.4
963.9492	2361.6098	1835.1	951.55
964.0803	2363.021	1821.85	933.1
964.2114	2364.4315	1829.45	946.25
964.3425	2365.8413	1814.35	931.95
964.4736	2367.2504	1800.9	919.1
964.6046	2368.6587	1800.65	917
964.7356	2370.0664	1804.35	920.95
964.8666	2371.4733	1802.15	918.65
964.9975	2372.8795	1801.35	918.75
965.1284	2374.285	1794.05	910.95
965.2593	2375.6899	1794	911.65
965.3901	2377.0939	1786.85	904.05
965.5209	2378.4973	1777.4	895.65
965.6517	2379.9	1787.05	903.95
965.7825	2381.3019	1778.85	896.2
965.9132	2382.7032	1784.7	902.7
966.0439	2384.1037	1772.55	891.8
966.1745	2385.5035	1777	893.15
966.3051	2386.9027	1761.85	880.5
966.4357	2388.3011	1768.2	883.5
966.5663	2389.6987	1756.8	875.3
966.6968	2391.0957	1757.5	876.3
966.8273	2392.492	1754.65	869.95
966.9578	2393.8876	1749.35	865.65
967.0882	2395.2824	1753.2	870.75
967.2186	2396.6765	1742.45	859.85
967.349	2398.07	1733.4	852.2
967.4793	2399.4627	1737.7	853.55
967.6097	2400.8547	1740.45	859.55
967.7399	2402.246	1743.85	856.55
967.8702	2403.6366	1730.2	848.55
968.0004	2405.0265	1728.5	843.6
968.1306	2406.4156	1725.3	839.45
968.2607	2407.8041	1722	838.05
968.3909	2409.1918	1722.75	840.3
968.521	2410.5789	1712.5	827.65
968.651	2411.9652	1718.4	833.15
968.781	2413.3508	1723.55	840.35
968.911	2414.7358	1715.55	833.2
969.041	2416.12	1704.25	821
969.1709	2417.5035	1712.65	829.4
969.3008	2418.8863	1704.6	821.95
969.4307	2420.2684	1698	814.45
969.5606	2421.6497	1700.45	818.6
969.6904	2423.0304	1697.7	816.95
969.8201	2424.4104	1696.25	811.9
969.9499	2425.7896	1700.4	816.25
970.0796	2427.1682	1686.95	805.7
970.2093	2428.546	1687.8	804.85
970.3389	2429.9232	1681	795.5
970.4685	2431.2996	1682.9	800.45
970.5981	2432.6753	1677.95	797.45
970.7277	2434.0503	1681.45	799.8
970.8572	2435.4246	1665.5	782.35
970.9867	2436.7982	1673.9	788.5
971.1161	2438.1711	1662.6	780.45
971.2456	2439.5433	1659.1	775.05
971.375	2440.9148	1671.35	782.5
971.5043	2442.2856	1663.45	781.7
971.6336	2443.6557	1665.5	782.15
971.7629	2445.025	1653.7	771.9
971.8922	2446.3937	1657.85	774.75
972.0214	2447.7617	1655.65	771.8
972.1506	2449.1289	1653.05	770.5
972.2798	2450.4955	1657.85	772.75
972.4089	2451.8613	1648.7	767.9
972.538	2453.2265	1643.2	762.65
972.6671	2454.5909	1644.55	760.7
972.7961	2455.9546	1648.95	767.9
972.9251	2457.3177	1639.75	758.95
973.0541	2458.68	1643.7	759.4
973.1831	2460.0416	1638.65	757.2
973.312	2461.4025	1633.2	749.25
973.4408	2462.7627	1642.6	749.65
973.5697	2464.1222	1640.05	757.65
973.6985	2465.4811	1634.3	749.45
973.8273	2466.8392	1634.1	751.05
973.956	2468.1966	1630.55	744.05
974.0847	2469.5533	1637.45	752.55
974.2134	2470.9093	1627.45	745
974.3421	2472.2645	1636.5	752.55
974.4707	2473.6191	1628.25	745.6
974.5993	2474.973	1623.35	738.75
974.7278	2476.3262	1625.2	739.45
974.8563	2477.6787	1617.4	737.45
974.9848	2479.0305	1615.6	733.05
975.1132	2480.3816	1610.4	726.05
975.2417	2481.7319	1607.25	726.95
975.37	2483.0816	1611.95	723.95
975.4984	2484.4306	1615	731.15
975.6267	2485.7789	1604.8	722.05
975.755	2487.1264	1601.5	716.7
975.8833	2488.4733	1598.55	717.2
976.0115	2489.8195	1605.25	704.7
976.1397	2491.165	1599.05	711.85
976.2678	2492.5097	1589.45	703.95
976.3959	2493.8538	1582.55	700.7
976.524	2495.1972	1589.65	705.8
976.6521	2496.5398	1588.8	705.25
976.7801	2497.8818	1581.8	695.9
976.9081	2499.2231	1578.2	695.9
977.036	2500.5637	1582.7	699.5
977.164	2501.9035	1578.85	695.8
977.2918	2503.2427	1581.05	692.55
977.4197	2504.5812	1576.65	694.25
977.5475	2505.919	1567.1	682.9
977.6753	2507.256	1570	687.4
977.8031	2508.5924	1562.65	679.75
977.9308	2509.9281	1568.3	678.6
978.0585	2511.2631	1567.7	683.15
978.1861	2512.5974	1562.6	679.6
978.3137	2513.9309	1560.95	677.1
978.4413	2515.2638	1587.1	677.25
978.5689	2516.596	1555.95	673
978.6964	2517.9275	1557.55	674.7
978.8239	2519.2583	1556.4	671.1
978.9513	2520.5884	1556.15	670.45
979.0788	2521.9178	1545.15	662.25
979.2062	2523.2465	1543.6	659
979.3335	2524.5745	1544.15	661.05
979.4608	2525.9018	1539.5	653.85
979.5881	2527.2284	1540.9	659.8
979.7154	2528.5543	1537.55	655.25
979.8426	2529.8796	1535.6	651.25
979.9698	2531.2041	1536	652.55
980.0969	2532.5279	1540.9	658.05
980.224	2533.851	1532.35	649
980.3511	2535.1735	1538.8	656.8
980.4781	2536.4952	1534.95	652.05
980.6052	2537.8163	1518.2	633.35
980.7321	2539.1366	1525.05	642.95
980.8591	2540.4562	1521.55	636.35
980.986	2541.7752	1526.5	643.45
981.1129	2543.0935	1521.95	637.95
981.2397	2544.411	1534.8	650.65
981.3665	2545.7279	1526.2	644.55
981.4933	2547.0441	1524.4	640.4
981.62	2548.3596	1526.6	642.85
981.7467	2549.6744	1517.05	635.55
981.8734	2550.9885	1518.5	632.3
982.0001	2552.3019	1517.7	637.15
982.1267	2553.6146	1514	628.1
982.2532	2554.9266	1509.75	628.5
982.3798	2556.2379	1505.25	618.85
982.5063	2557.5485	1508.2	627.1
982.6327	2558.8585	1520.35	629.8
982.7592	2560.1677	1507.6	620.1
982.8856	2561.4762	1506.45	624.9
983.0119	2562.7841	1500.15	612.4
983.1383	2564.0913	1502.4	617
983.2646	2565.3977	1502.65	621.3
983.3908	2566.7035	1501	617.3
983.517	2568.0086	1502.95	619
983.6432	2569.313	1499.45	615.5
983.7694	2570.6167	1499.6	612.1
983.8955	2571.9197	1495.3	612.75
984.0216	2573.222	1501.35	614.7
984.1476	2574.5236	1494.75	612.8
984.2737	2575.8246	1486.6	600.2
984.3996	2577.1248	1497.7	611.55
984.5256	2578.4244	1491.05	610
984.6515	2579.7232	1493.2	611
984.7774	2581.0214	1522.5	605.5
984.9032	2582.3189	1494	612.6
985.029	2583.6157	1502.1	614.45
985.1548	2584.9118	1495.95	613.7
985.2806	2586.2072	1486.55	604.05
985.4063	2587.5019	1495.5	611.85
985.5319	2588.7959	1489.5	604.75
985.6576	2590.0893	1491.75	606.7
985.7832	2591.3819	1492.85	613
985.9087	2592.6739	1489.4	607.65
986.0343	2593.9652	1497.85	612.35
986.1597	2595.2557	1498.35	614.35
986.2852	2596.5456	1498.95	613.25
986.4106	2597.8348	1495.25	613.15
986.536	2599.1234	1492.7	610.25
986.6614	2600.4112	1500.45	615.7
986.7867	2601.6983	1501.2	614.65
986.912	2602.9848	1502.2	617.75
987.0372	2604.2705	1504.75	614.55
987.1624	2605.5556	1497.1	614.2
987.2876	2606.84	1491.5	608.5
987.4128	2608.1237	1489.5	606.8
987.5379	2609.4067	1492.85	608.8
987.6629	2610.689	1489	597.45
987.788	2611.9707	1483	596.15
987.913	2613.2516	1485.55	599.05
988.0379	2614.5319	1483.55	601.25
988.1629	2615.8115	1479.2	595.3
988.2878	2617.0903	1480.4	593.5
988.4126	2618.3685	1475.2	591.7
988.5375	2619.6461	1473.8	588.1
988.6622	2620.9229	1466.9	587.7
988.787	2622.199	1471.05	587.2
988.9117	2623.4745	1477.55	593.1
989.0364	2624.7493	1474.8	592.9
989.161	2626.0234	1478.8	597.5
989.2857	2627.2968	1464	582.35
989.4102	2628.5695	1466.25	580.4
989.5348	2629.8415	1468.6	586.2
989.6593	2631.1128	1471.5	587.35
989.7837	2632.3835	1472.15	588.8
989.9082	2633.6535	1467.25	585.7
990.0326	2634.9228	1470.25	587
990.1569	2636.1914	1467.35	582.7
990.2812	2637.4593	1465.55	581.05
990.4055	2638.7265	1458.4	573.65
990.5298	2639.9931	1461.85	579.1
990.654	2641.259	1465.4	581.4
990.7782	2642.5242	1457.25	572.8
990.9023	2643.7887	1465.9	582.8
991.0264	2645.0525	1452.25	568.8
991.1505	2646.3156	1448.1	563.65
991.2745	2647.5781	1449	563.8
991.3985	2648.8398	1448.45	566.65
991.5225	2650.1009	1476.1	554.35
991.6464	2651.3613	1445.65	560.8
991.7703	2652.6211	1443.5	559.95
991.8942	2653.8801	1439.9	559.1
992.018	2655.1385	1445.25	559.05
992.1418	2656.3961	1446.95	563.95
992.2655	2657.6531	1443.25	557.5
992.3892	2658.9094	1443.25	557.45
992.5129	2660.1651	1438.55	556.3
992.6366	2661.42	1448.35	563.75
992.7602	2662.6743	1450.2	563.7
992.8837	2663.9279	1447.6	562.55
993.0073	2665.1808	1453.15	572
993.1307	2666.433	1451.85	568.5
993.2542	2667.6846	1448.85	566.35
993.3776	2668.9354	1451.85	566.05
993.501	2670.1856	1452.25	566.95
993.6244	2671.4351	1449.5	566.45
993.7477	2672.6839	1456.8	571.55
993.8709	2673.9321	1461.9	577.75
993.9942	2675.1795	1473.6	590.3
994.1174	2676.4263	1464.05	580.45
994.2405	2677.6724	1473.2	591.75
994.3637	2678.9179	1465.45	580.05
994.4868	2680.1626	1470.45	587.25
994.6098	2681.4067	1469.35	584.4
994.7328	2682.6501	1461.45	578.4
994.8558	2683.8928	1465.55	581.6
994.9788	2685.1348	1463	581.95
995.1017	2686.3761	1457.2	574.9
995.2245	2687.6168	1453.15	570.15
995.3474	2688.8568	1461.1	577.1
995.4702	2690.0961	1443.65	561.85
995.5929	2691.3348	1444.15	561
995.7156	2692.5727	1436.9	551.3
995.8383	2693.81	1445.6	562.15
995.961	2695.0466	1444.05	562.75
996.0836	2696.2826	1437.05	548.8
996.2062	2697.5178	1439.3	554.1
996.3287	2698.7524	1442.55	560.55
996.4512	2699.9863	1435.5	549.6
996.5737	2701.2195	1441.5	558.1
996.6961	2702.452	1444.6	558.95
996.8185	2703.6839	1452.9	568.7
996.9408	2704.9151	1449.35	567.75
997.0631	2706.1456	1459.65	574.95
997.1854	2707.3755	1458.7	573.4
997.3077	2708.6046	1472.5	587.95
997.4299	2709.8331	1477.55	594.7
997.552	2711.0609	1480.65	596.4
997.6742	2712.2881	1490.45	608.7
997.7963	2713.5145	1500.75	615.15
997.9183	2714.7403	1510.4	627.3
998.0403	2715.9654	1511.7	627
998.1623	2717.1899	1533.9	636.5
998.2842	2718.4136	1545.55	661.35
998.4062	2719.6367	1549.35	663.9
998.528	2720.8591	1573.7	682.75
998.6498	2722.0809	1578.4	694.4
998.7716	2723.3019	1587.45	700.6
998.8934	2724.5223	1595.75	710.5
999.0151	2725.7421	1585.15	701.3
999.1368	2726.9611	1603.7	717.3
999.2584	2728.1795	1600.5	713.55
999.38	2729.3972	1588.05	704.7
999.5016	2730.6142	1595.25	698.95
999.6231	2731.8306	1570.9	687.45
999.7446	2733.0462	1560.1	673.95
999.8661	2734.2612	1540.5	652.7
999.9875	2735.4756	1515.35	629.9
1000.1089	2736.6892	1503.15	619.05
1000.2302	2737.9022	1484.25	600.95
1000.3515	2739.1145	1474.1	589.75
1000.4728	2740.3262	1466.2	574.25
1000.594	2741.5372	1454	571.5
1000.7152	2742.7475	1439.9	555.85
1000.8363	2743.9571	1430.95	547.65
1000.9575	2745.1661	1422.3	532.75
1001.0785	2746.3744	1413.1	528.65
1001.1996	2747.582	1407	523.9
1001.3206	2748.7889	1398.05	514.55
1001.4415	2749.9952	1388.25	503.95
1001.5625	2751.2008	1386.7	500.8
1001.6833	2752.4057	1383.6	497.2
1001.8042	2753.61	1375.9	490.85
1001.925	2754.8136	1371.85	484.55
1002.0458	2756.0165	1372	488.65
1002.1665	2757.2188	1378.55	494.1
1002.2872	2758.4204	1370.4	489.15
1002.4078	2759.6213	1374.4	488.55
1002.5285	2760.8215	1384.95	496.1
1002.649	2762.0211	1369.5	482.55
1002.7696	2763.22	1371.75	487.5
1002.8901	2764.4182	1364.8	481.45
1003.0106	2765.6158	1359.95	475.9
1003.131	2766.8127	1359.5	474.75
1003.2514	2768.009	1362.65	479.05
1003.3717	2769.2045	1352.65	468.05
1003.492	2770.3994	1366.55	480.8
1003.6123	2771.5936	1349.65	464.2
1003.7325	2772.7872	1349.55	467.05
1003.8527	2773.9801	1343.45	456.85
1003.9729	2775.1723	1363.55	463.1
1004.093	2776.3639	1347.65	468.3
1004.2131	2777.5548	1352.8	467.35
1004.3331	2778.745	1351.95	466.25
1004.4531	2779.9346	1346.1	464.2
1004.5731	2781.1235	1356.45	470.15
1004.693	2782.3117	1355.8	472.6
1004.8129	2783.4992	1359.9	478.5
1004.9328	2784.6861	1365.65	481.35
1005.0526	2785.8723	1366.5	483
1005.1723	2787.0579	1373.5	487.15
1005.2921	2788.2428	1386.95	504.2
1005.4118	2789.427	1386.5	506.15
1005.5314	2790.6106	1399.05	518.05
1005.651	2791.7935	1399.35	514.5
1005.7706	2792.9757	1418.4	534.1
1005.8902	2794.1573	1425.9	541.95
1006.0097	2795.3382	1436.95	554.8
1006.1291	2796.5184	1454.35	570.85
1006.2485	2797.698	1475.6	591.1
1006.3679	2798.8769	1482.9	598.1
1006.4873	2800.0551	1505.6	621.2
1006.6066	2801.2327	1510.2	625.05
1006.7258	2802.4096	1533.65	651.65
1006.8451	2803.5859	1559.1	676.15
1006.9642	2804.7615	1572.8	688.65
1007.0834	2805.9364	1593.05	709.35
1007.2025	2807.1106	1626.8	744.1
1007.3216	2808.2842	1652.35	768.3
1007.4406	2809.4572	1675.3	789.95
1007.5596	2810.6294	1724.4	838.2
1007.6785	2811.801	1770.45	888.2
1007.7975	2812.972	1801.45	919.3
1007.9163	2814.1423	1831.25	948.55
1008.0352	2815.3119	1880.1	996.1
1008.154	2816.4808	1932.65	1050.45
1008.2727	2817.6491	1980.7	1094.65
1008.3914	2818.8167	2027.2	1143.8
1008.5101	2819.9837	2093.95	1204.95
1008.6288	2821.15	2130.75	1249.7
1008.7474	2822.3157	2175.3	1293.4
1008.8659	2823.4807	2236	1350.85
1008.9844	2824.645	2277.35	1389.35
1009.1029	2825.8086	2326	1443.9
1009.2214	2826.9716	2368.45	1486.9
1009.3398	2828.134	2408.05	1524.4
1009.4581	2829.2957	2439.95	1555.25
1009.5764	2830.4567	2493	1611.35
1009.6947	2831.617	2507.65	1622
1009.813	2832.7767	2515.55	1633.9
1009.9312	2833.9358	2512.1	1629.3
1010.0493	2835.0941	2498.65	1615.95
1010.1675	2836.2519	2486.7	1603.7
1010.2855	2837.4089	2484.4	1600.15
1010.4036	2838.5653	2467.9	1583.55
1010.5216	2839.7211	2467.65	1585.4
1010.6396	2840.8761	2462.25	1577.9
1010.7575	2842.0306	2480.7	1598.15
1010.8754	2843.1843	2520	1636.9
1010.9932	2844.3374	2565.5	1683.25
1011.111	2845.4899	2606.9	1723.95
1011.2288	2846.6417	2677.4	1795.45
1011.3465	2847.7928	2747.05	1862.8
1011.4642	2848.9433	2823.55	1942.35
1011.5818	2850.0931	2888.3	2003.2
1011.6995	2851.2422	2964.2	2080.85
1011.817	2852.3907	3050.45	2166.3
1011.9345	2853.5385	3099.55	2214.6
1012.052	2854.6857	3178.7	2266.6
1012.1695	2855.8323	3212.6	2331.3
1012.2869	2856.9781	3265.55	2378.9
1012.4042	2858.1233	3307.85	2425.45
1012.5216	2859.2679	3355	2474.3
1012.6389	2860.4118	3405.65	2520.35
1012.7561	2861.555	3450.45	2561.9
1012.8733	2862.6976	3480.05	2595.8
1012.9905	2863.8395	3512.35	2629.35
1013.1076	2864.9808	3535.9	2652.9
1013.2247	2866.1214	3562.4	2679.9
1013.3417	2867.2614	3586.75	2701.85
1013.4587	2868.4007	3599.85	2714.9
1013.5757	2869.5393	3609	2723.55
1013.6926	2870.6773	3629.85	2742.9
1013.8095	2871.8146	3635.25	2749.1
1013.9263	2872.9513	3634.35	2749.05
1014.0431	2874.0874	3634.4	2750.8
1014.1599	2875.2227	3633.1	2748.95
1014.2766	2876.3574	3607.1	2723.25
1014.3933	2877.4915	3581.4	2699.05
1014.51	2878.6249	3560.05	2677.3
1014.6266	2879.7577	3520.7	2636.65
1014.7431	2880.8898	3522.65	2628.5
1014.8596	2882.0212	3493.95	2610.85
1014.9761	2883.152	3480.7	2596.35
1015.0925	2884.2821	3472.3	2590.7
1015.2089	2885.4116	3453.05	2570.8
1015.3253	2886.5405	3462.15	2579.2
1015.4416	2887.6686	3474.15	2587.95
1015.5579	2888.7962	3479.25	2598.55
1015.6741	2889.923	3489.1	2608.05
1015.7903	2891.0493	3496.95	2615.8
1015.9065	2892.1748	3506.75	2623.9
1016.0226	2893.2997	3527.25	2645.75
1016.1387	2894.424	3540.85	2658
1016.2547	2895.5476	3551.85	2668.9
1016.3707	2896.6706	3582.6	2699.5
1016.4866	2897.7929	3592.8	2710.15
1016.6025	2898.9145	3622.35	2736.05
1016.7184	2900.0355	3643.3	2759.7
1016.8342	2901.1559	3693.1	2809.1
1016.95	2902.2756	3729.55	2846.55
1017.0658	2903.3946	3763.05	2878.2
1017.1815	2904.513	3787.85	2904.2
1017.2971	2905.6308	3811.85	2929.75
1017.4127	2906.7479	3823.1	2936.9
1017.5283	2907.8643	3862.85	2979.7
1017.6439	2908.9801	3867.45	2984.35
1017.7594	2910.0953	3884.15	3000.65
1017.8748	2911.2098	3882.45	2995.65
1017.9902	2912.3236	3875.85	2984.35
1018.1056	2913.4368	3861.5	2975.5
1018.2209	2914.5494	3837	2955.75
1018.3362	2915.6613	3816.95	2926.55
1018.4515	2916.7725	3792.4	2906.9
1018.5667	2917.8831	3760.85	2876.7
1018.6819	2918.9931	3733.25	2846.55
1018.797	2920.1024	3686.15	2802.7
1018.9121	2921.211	3670.9	2787.45
1019.0271	2922.319	3658.6	2773.85
1019.1421	2923.4264	3628.85	2744.75
1019.2571	2924.5331	3623.05	2740.95
1019.372	2925.6391	3633.4	2749.35
1019.4869	2926.7445	3620.3	2740.2
1019.6017	2927.8493	3632	2750.05
1019.7165	2928.9534	3620.3	2736.4
1019.8313	2930.0569	3604.9	2718.3
1019.946	2931.1597	3611.5	2725.3
1020.0606	2932.2619	3594.95	2711.05
1020.1753	2933.3634	3587.7	2704.7
1020.2899	2934.4643	3576.9	2686.85
1020.4044	2935.5645	3575.55	2683.9
1020.5189	2936.6641	3550.15	2661.45
1020.6334	2937.763	3506.35	2623
1020.7478	2938.8613	3464.05	2580.55
1020.8622	2939.959	3403.1	2515.1
1020.9765	2941.056	3341.95	2462.15
1021.0908	2942.1523	3254.1	2367.6
1021.2051	2943.248	3165.1	2281.55
1021.3193	2944.3431	3074.95	2192.45
1021.4334	2945.4375	2987.05	2105.1
1021.5476	2946.5313	2892.05	2008.3
1021.6617	2947.6244	2778.15	1894.95
1021.7757	2948.7169	2676.35	1792.35
1021.8897	2949.8087	2580.45	1698
1022.0037	2950.8999	2494.3	1612.2
1022.1176	2951.9904	2419.65	1536.25
1022.2315	2953.0803	2334.3	1451.6
1022.3453	2954.1696	2274.25	1387.85
1022.4591	2955.2582	2221.9	1338.85
1022.5728	2956.3462	2177.3	1294.5
1022.6865	2957.4335	2128.5	1244.2
1022.8002	2958.5202	2097.5	1212.65
1022.9138	2959.6062	2077.65	1192.35
1023.0274	2960.6916	2051.9	1168.6
1023.141	2961.7764	2037.95	1154.3
1023.2545	2962.8605	2020.5	1136.5
1023.3679	2963.9439	2011.8	1129.35
1023.4813	2965.0267	1995.8	1110.6
1023.5947	2966.1089	2013.5	1107.15
1023.708	2967.1905	1985.4	1104
1023.8213	2968.2714	1974.9	1093
1023.9346	2969.3516	1985.1	1102.4
1024.0478	2970.4312	1991.6	1099.95
1024.1609	2971.5102	1985.9	1101.8
1024.274	2972.5885	1989.05	1105
1024.3871	2973.6662	1986.65	1099.45
1024.5002	2974.7432	1980.65	1099.35
1024.6132	2975.8196	1972.75	1088.75
1024.7261	2976.8954	1963.9	1082.55
1024.839	2977.9705	1963.75	1080.5
1024.9519	2979.045	1944.15	1061.15
1025.0647	2980.1188	1924.4	1043.15
1025.1775	2981.192	1912.4	1028.8
1025.2902	2982.2645	1895.95	1011.9
1025.4029	2983.3364	1868.65	984.65
1025.5156	2984.4077	1834.75	950.5
1025.6282	2985.4783	1813.15	924.75
1025.7407	2986.5483	1778.55	896.4
1025.8532	2987.6177	1751.8	869.85
1025.9657	2988.6864	1706.65	824.65
1026.0782	2989.7545	1675.8	792.7
1026.1906	2990.8219	1646.9	765.2
1026.3029	2991.8887	1600.9	714.2
1026.4152	2992.9548	1584.15	700.1
1026.5275	2994.0204	1553.55	670.35
1026.6397	2995.0852	1521.35	639.95
1026.7519	2996.1495	1501.4	616.55
1026.864	2997.2131	1469.4	585.15
1026.9761	2998.276	1454.85	571.3
1027.0882	2999.3383	1431.9	548
1027.2002	3000.4	1415.15	532.45
1027.3122	3001.4611	1401.8	517.55
1027.4241	3002.5215	1388.35	504.2
1027.536	3003.5812	1370.4	487.3
1027.6478	3004.6404	1364.1	480.05
1027.7596	3005.6989	1351	465.65
1027.8714	3006.7567	1337.75	455.7
1027.9831	3007.8139	1358.75	450.65
1028.0947	3008.8705	1323	439.6
1028.2064	3009.9264	1338.25	439.3
1028.3179	3010.9818	1312.35	430.8
1028.4295	3012.0364	1308.5	425.15
1028.541	3013.0905	1308.6	425.1
1028.6524	3014.1439	1301.1	420.55
1028.7638	3015.1966	1300.6	421
1028.8752	3016.2487	1302.3	420.85
1028.9865	3017.3002	1301.25	413.65
1029.0978	3018.3511	1294.05	412.7
1029.209	3019.4013	1290.55	406.3
1029.3202	3020.4509	1286.65	404.55
1029.4314	3021.4998	1302.9	419.95
1029.5425	3022.5481	1285.75	402.6
1029.6535	3023.5958	1295.2	413.05
1029.7645	3024.6428	1296.4	411.8
1029.8755	3025.6892	1303.15	421.15
1029.9864	3026.735	1293.45	411.75
1030.0973	3027.7802	1297.95	415.75
1030.2082	3028.8247	1305.35	422.95
1030.319	3029.8685	1305.35	422
1030.4297	3030.9118	1297.7	414.9
1030.5404	3031.9544	1307	427.25
1030.6511	3032.9963	1315.35	431.65
1030.7617	3034.0376	1326.25	444.85
1030.8723	3035.0783	1321.4	435.05
1030.9829	3036.1184	1323.85	440.2
1031.0934	3037.1578	1331.75	449.6
1031.2038	3038.1966	1332.3	448.8
1031.3142	3039.2348	1335.2	452
1031.4246	3040.2723	1336.95	444.7
1031.5349	3041.3092	1330.6	449.9
1031.6452	3042.3455	1331.1	447.85
1031.7554	3043.3811	1329.9	446.75
1031.8656	3044.4161	1326.35	442.65
1031.9758	3045.4505	1319.35	436.75
1032.0859	3046.4842	1319.95	435.6
1032.1959	3047.5173	1308.6	427.4
1032.3059	3048.5498	1303.9	420.1
1032.4159	3049.5816	1295.4	411.15
1032.5258	3050.6128	1302.45	416.65
1032.6357	3051.6434	1294.15	409.7
1032.7455	3052.6734	1290.15	405.35
1032.8553	3053.7027	1284.1	400.45
1032.9651	3054.7314	1268.6	386.7
1033.0748	3055.7594	1266.75	383.6
1033.1845	3056.7868	1265	380.15
1033.2941	3057.8136	1261.45	378.4
1033.4037	3058.8398	1260.15	378.85
1033.5132	3059.8653	1253.75	371.4
1033.6227	3060.8902	1248.3	365.35
1033.7321	3061.9145	1240.05	357.6
1033.8415	3062.9381	1237.8	355
1033.9509	3063.9612	1250.35	353.05
1034.0602	3064.9835	1225.1	342.2
1034.1694	3066.0053	1227	341.55
1034.2787	3067.0264	1212.35	330.5
1034.3878	3068.0469	1211.6	327.45
1034.497	3069.0668	1206.3	319.45
1034.6061	3070.086	1199.8	316.2
1034.7151	3071.1046	1193.7	308
1034.8241	3072.1226	1184.3	299.5
1034.9331	3073.1399	1170.55	287.8
1035.042	3074.1567	1167.45	283.35
1035.1508	3075.1727	1156.4	272.9
1035.2597	3076.1882	1147.75	263.75
1035.3684	3077.203	1139	256.35
1035.4772	3078.2173	1131.75	248.05
1035.5859	3079.2308	1128.85	241.95
1035.6945	3080.2438	1124.5	238.85
1035.8031	3081.2561	1110.35	227.5
1035.9117	3082.2678	1105.9	222.05
1036.0202	3083.2789	1096	212.45
1036.1286	3084.2893	1090.35	207
1036.2371	3085.2991	1093.15	211.45
1036.3454	3086.3083	1091.4	205.1
1036.4538	3087.3169	1081.1	198.65
1036.562	3088.3248	1078.25	193.2
1036.6703	3089.3321	1071.15	186.95
1036.7785	3090.3388	1067.15	186
1036.8866	3091.3449	1067.9	183.8
1036.9948	3092.3503	1057.75	172.9
1037.1028	3093.3551	1052.95	170.6
1037.2108	3094.3593	1049.3	168.9
1037.3188	3095.3629	1052.3	171.65
1037.4267	3096.3658	1045.95	163.4
1037.5346	3097.3681	1044.6	163.7
1037.6425	3098.3698	1046.95	164.5
1037.7503	3099.3708	1044.25	157.6
1037.858	3100.3713	1039.25	156.4
1037.9657	3101.3711	1035.85	152.1
1038.0734	3102.3702	1172.25	150.25
1038.181	3103.3688	1028.45	142.35
1038.2886	3104.3667	1023.65	142.45
1038.3961	3105.364	1026.2	145.45
1038.5036	3106.3607	1025.6	141.55
1038.611	3107.3568	1024.8	141.3
1038.7184	3108.3522	1022.15	140.7
1038.8257	3109.347	1022.65	137.7
1038.933	3110.3412	1023.6	137.6
1039.0403	3111.3348	1017.85	133.3
1039.1475	3112.3277	1013.55	133.55
1039.2547	3113.32	1015.45	133.5
1039.3618	3114.3117	1012.1	129.65
1039.4689	3115.3028	1014.6	133.85
1039.5759	3116.2932	1008.35	124.35
1039.6829	3117.2831	1011.05	125.85
1039.7898	3118.2723	1007.95	126.1
1039.8967	3119.2608	1004.9	123.25
1040.0035	3120.2488	1005.6	122.8
1040.1103	3121.2361	1003.55	121
1040.2171	3122.2229	1001.65	119.25
1040.3238	3123.209	1008.7	126.7
1040.4305	3124.1944	1003.5	124.7
1040.5371	3125.1793	1002.4	118.2
1040.6437	3126.1635	1002.8	121.8
1040.7502	3127.1471	997.4	115.1
1040.8567	3128.1301	994.75	114
1040.9631	3129.1125	994.85	114.05
1041.0695	3130.0942	997.75	114.5
1041.1759	3131.0753	1005.5	114.55
1041.2822	3132.0558	996.7	110.65
1041.3884	3133.0357	992.15	109.65
1041.4946	3134.015	990.5	107.65
1041.6008	3134.9936	992.2	108.55
1041.7069	3135.9716	1010.25	106.35
1041.813	3136.949	988.85	107.25
1041.919	3137.9258	1008.7	108.3
1042.025	3138.902	994.35	104.95
1042.1309	3139.8775	984.25	101.3
1042.2368	3140.8524	986.6	104.65
1042.3427	3141.8267	982.7	98.4
1042.4485	3142.8004	983.55	102.4
1042.5542	3143.7735	982.7	94.65
1042.6599	3144.7459	984.35	101.05
1042.7656	3145.7178	981.4	99.1
1042.8712	3146.689	980.75	99.6
1042.9768	3147.6596	978.15	94.55
1043.0823	3148.6295	980.15	97.6
1043.1878	3149.5989	975.85	93.35
1043.2932	3150.5676	977.5	95.3
1043.3986	3151.5357	974.55	92.15
1043.5039	3152.5032	972	93.3
1043.6092	3153.4701	973.65	90.55
1043.7145	3154.4364	974.85	90.3
1043.8197	3155.402	970.4	91
1043.9248	3156.367	971.9	88.8
1044.03	3157.3315	1004.4	86.95
1044.135	3158.2952	969.9	87.9
1044.24	3159.2584	968.7	86.75
1044.345	3160.221	969.25	86.7
1044.4499	3161.1829	968.15	84.65
1044.5548	3162.1442	964.95	83.1
1044.6596	3163.105	963.9	80.95
1044.7644	3164.065	964.8	79.7
1044.8692	3165.0245	967.15	83.3
1044.9739	3165.9834	965.3	83.55
1045.0785	3166.9416	962.5	81.3
1045.1831	3167.8993	963.95	80.85
1045.2877	3168.8563	959.65	78.3
1045.3922	3169.8127	963.15	79.8
1045.4966	3170.7684	962.5	77.6
1045.6011	3171.7236	961.7	75.35
1045.7054	3172.6782	959.6	78.9
1045.8098	3173.6321	960.85	78.55
1045.914	3174.5854	965.35	81.65
1046.0183	3175.5381	960.05	78.25
1046.1224	3176.4902	958.95	77.6
1046.2266	3177.4417	957.5	76.3
1046.3307	3178.3926	955.85	74.75
1046.4347	3179.3428	952.6	71.25
1046.5387	3180.2924	956.75	75.85
1046.6427	3181.2415	955.65	73.75
1046.7466	3182.1899	956	73
1046.8504	3183.1377	955.2	74
1046.9542	3184.0848	954.4	68.15
1047.058	3185.0314	955.75	73.55
1047.1617	3185.9773	953.25	71.95
1047.2654	3186.9227	953.8	70.05
1047.369	3187.8674	953.2	71.45
1047.4726	3188.8115	953.9	68.05
1047.5761	3189.755	953.05	72.35
1047.6796	3190.6979	950.45	68.5
1047.783	3191.6402	950.6	70.35
1047.8864	3192.5818	950.55	68.05
1047.9898	3193.5229	971.15	68.45
1048.0931	3194.4633	948.9	66.55
1048.1963	3195.4031	949	67.85
1048.2995	3196.3423	949.05	68.15
1048.4027	3197.2809	945.2	63.4
1048.5058	3198.2189	949.25	65.8
1048.6089	3199.1563	966.55	67.6
1048.7119	3200.0931	946.25	66.8
1048.8148	3201.0292	946.4	64.75
1048.9178	3201.9648	943.2	62
1049.0206	3202.8997	950.45	63.6
1049.1235	3203.834	945	63.1
1049.2262	3204.7677	947.75	65.85
1049.329	3205.7008	949.3	66
1049.4317	3206.6333	943.4	60.65
1049.5343	3207.5652	946.05	61.2
1049.6369	3208.4964	943.4	60.55
1049.7394	3209.4271	943.3	60.55
1049.8419	3210.3571	942.05	60.25
1049.9444	3211.2865	944.35	60.35
1050.0468	3212.2154	943.65	63
1050.1491	3213.1436	941.25	56.8
1050.2514	3214.0712	948.2	60.25
1050.3537	3214.9982	941.55	60.55
1050.4559	3215.9246	941.9	57.9
1050.5581	3216.8503	939.1	58.45
1050.6602	3217.7755	940.85	60.15
1050.7623	3218.7001	940.25	56
1050.8643	3219.624	938.95	58.4
1050.9663	3220.5473	941.85	61.1
1051.0682	3221.4701	940.4	57.05
1051.1701	3222.3922	943.4	59.45
1051.2719	3223.3137	937.3	55.4
1051.3737	3224.2346	942.7	60.2
1051.4754	3225.1549	935.95	55
1051.5771	3226.0746	936.85	55.2
1051.6788	3226.9937	940.15	57.45
1051.7804	3227.9121	936.5	54.2
1051.8819	3228.83	938.6	57.2
1051.9834	3229.7473	938.75	58.4
1052.0849	3230.6639	940.45	58.55
1052.1863	3231.5799	935.7	55.25
1052.2876	3232.4954	938.5	53.55
1052.3889	3233.4102	934.4	51.75
1052.4902	3234.3244	939.1	57.25
1052.5914	3235.238	934.25	55.4
1052.6926	3236.151	959.35	52
1052.7937	3237.0634	934.8	52.65
1052.8948	3237.9752	934.25	51
1052.9958	3238.8864	932.35	50.45
1053.0968	3239.797	933.7	51.55
1053.1977	3240.7069	933.65	50.45
1053.2986	3241.6163	934.35	48
1053.3994	3242.5251	931.3	48.85
1053.5002	3243.4332	933.3	51.3
1053.6009	3244.3408	932.45	49
1053.7016	3245.2477	931.1	49.3
1053.8022	3246.154	934.1	50.4
1053.9028	3247.0598	932.2	49.8
1054.0034	3247.9649	929.9	47.6
1054.1039	3248.8694	928.1	45.35
1054.2043	3249.7733	928.95	44
1054.3047	3250.6766	929.85	49
1054.4051	3251.5793	929.35	45.1
1054.5054	3252.4814	928.8	46.55
1054.6056	3253.3829	926.2	45
1054.7058	3254.2838	926.9	45.45
1054.806	3255.1841	927.55	46.45
1054.9061	3256.0838	923.65	41.3
1055.0061	3256.9829	923.4	42.6
1055.1062	3257.8814	925.75	42.4
1055.2061	3258.7792	922.8	39.5
1055.306	3259.6765	926.85	44.15
1055.4059	3260.5731	926.05	45.95
1055.5057	3261.4692	924.9	41.95
1055.6055	3262.3647	925.85	43.55
1055.7052	3263.2595	920.95	37.65
1055.8049	3264.1538	920.05	38.9
1055.9045	3265.0474	921.65	39.4
1056.0041	3265.9404	921.25	39.4
1056.1036	3266.8329	919.15	39.5
1056.2031	3267.7247	928.55	36.65
1056.3025	3268.616	918.5	38.8
1056.4019	3269.5066	916.35	33.15
1056.5013	3270.3966	918.05	33
1056.6005	3271.286	914.9	34.35
