Software Version:	3.9.2.0
Unit SN:	10000200
Spectrometer SN:	6960
Date:	3/14/2024 2:18:02 PM
Data Line Index:	25
Spectral Points:	2048
Integration time (ms):	125
Averages:	20
Delay (ms):	30000
Sequence Number:	1
Processing:	dark subtract
Laser Power (mW):	300
Laser Current (mA):	825
Laser Diode Temp (C):	25
Laser Case Temp (C):	29.2
System Temp (C):	29.1
Spectrometer Temp (C):	26.9
CCD Temp (C):	0.008
Secondary Temp (C):	20.008
Heatsink Temp (C):	24.928
CCDPCB Temp (C):	38.063
SecondaryPCB Temp (C):	36.04

Wavelength	RamanShift	Raw Counts	Dark Subtracted
787.061	30.1047	457.8	47.95
787.2016	32.3739	456.35	47.8
787.3422	34.6426	464.5	55.1
787.4828	36.9109	467.75	55.25
787.6235	39.1787	477.25	61.3
787.7642	41.4461	488.15	68.45
787.9049	43.7131	496.9	71.2
788.0456	45.9796	506.1	79.45
788.1863	48.2456	515	84.2
788.3271	50.5112	524.1	89.35
788.4679	52.7764	532.6	94.5
788.6087	55.0411	539.3	97.8
788.7496	57.3054	552.75	104.5
788.8904	59.5692	563.35	113.75
789.0313	61.8326	576.55	123.75
789.1722	64.0955	590.25	131.25
789.3132	66.3579	604.85	142.1
789.4541	68.6199	618.65	155.7
789.5951	70.8815	652.25	182.95
789.7361	73.1426	725.4	252.75
789.8771	75.4032	916.3	439.25
790.0181	77.6634	1370.15	887.8
790.1592	79.9231	2463.55	1976.45
790.3003	82.1824	4863.55	4366.95
790.4414	84.4412	9273.8	8760.75
790.5825	86.6995	15573.3	15036.2
790.7237	88.9574	21892.3	21338.3
790.8648	91.2148	26431.7	25869.6
791.006	93.4717	28693.25	28117.5
791.1472	95.7282	29239.7	28659.2
791.2885	97.9842	29284.15	28703.4
791.4297	100.2398	28824.45	28237.45
791.571	102.4949	28267.8	27679.45
791.7123	104.7495	27474.45	26879.8
791.8536	107.0036	26698.2	26105.55
791.9949	109.2573	25876.1	25282.95
792.1363	111.5105	25050.5	24456.25
792.2777	113.7632	24219.8	23625.05
792.4191	116.0154	23511.5	22903.15
792.5605	118.2672	22983.35	22383.1
792.7019	120.5185	22437.65	21839.7
792.8434	122.7693	22029.9	21425.1
792.9849	125.0197	21675.3	21066.05
793.1264	127.2696	21344.2	20735.95
793.2679	129.519	21228.65	20616.15
793.4094	131.7679	21029.35	20417
793.551	134.0163	20900.9	20280.15
793.6926	136.2642	20752.3	20128.2
793.8342	138.5117	20593.4	19961.4
793.9758	140.7587	20424.95	19796.4
794.1175	143.0052	20228.45	19599.5
794.2591	145.2512	20057.15	19427.35
794.4008	147.4967	19851	19222.55
794.5425	149.7417	19678.5	19044.6
794.6842	151.9863	19553.95	18920.15
794.826	154.2304	19470.35	18835.15
794.9677	156.4739	19374.15	18732.65
795.1095	158.717	19272.1	18630.1
795.2513	160.9596	19127.4	18480.3
795.3931	163.2017	18855.95	18208.8
795.535	165.4433	18550.45	17898.3
795.6768	167.6844	18184.3	17533.1
795.8187	169.925	17844.35	17186.75
795.9606	172.1651	17400.3	16740.9
796.1025	174.4047	17097.2	16434.1
796.2445	176.6439	16834.05	16169.9
796.3864	178.8825	16514.55	15849.65
796.5284	181.1206	16324.05	15654.25
796.6704	183.3582	16114.6	15438.8
796.8124	185.5954	16011.8	15335.35
796.9544	187.832	15881	15201.15
797.0965	190.0681	15821.45	15141.55
797.2386	192.3037	15838.25	15151.5
797.3806	194.5388	15794.15	15106.05
797.5228	196.7734	15803.5	15114.6
797.6649	199.0075	15890.45	15200.2
797.807	201.2411	16010.15	15314.1
797.9492	203.4742	16034.55	15340.15
798.0914	205.7068	16155.6	15459.7
798.2336	207.9389	16270.85	15575.5
798.3758	210.1704	16409.6	15711.4
798.518	212.4015	16541.65	15836.15
798.6603	214.632	16677.95	15970.55
798.8025	216.862	16907.5	16207.8
798.9448	219.0915	17100.8	16411.3
799.0871	221.3205	17326.6	16638.85
799.2294	223.549	17659.6	16975.4
799.3718	225.777	18015.1	17333.55
799.5141	228.0044	18503.5	17821.2
799.6565	230.2314	19057.65	18373.05
799.7989	232.4578	19610.4	18926.75
799.9413	234.6837	20089.05	19397.2
800.0837	236.909	20299.95	19606.55
800.2262	239.1339	20279.7	19562.95
800.3687	241.3582	19910.15	19206.6
800.5111	243.582	19477.55	18749.9
800.6536	245.8053	19030.95	18310.55
800.7961	248.0281	18560.9	17847.15
800.9387	250.2503	18203.45	17484.8
801.0812	252.472	17970.85	17249.6
801.2238	254.6932	17828	17102.4
801.3664	256.9139	17629.05	16898.4
801.509	259.134	17555.4	16823.15
801.6516	261.3536	17443	16711.1
801.7942	263.5727	17410.1	16675.95
801.9369	265.7912	17232.25	16500.15
802.0795	268.0092	17176.6	16445.3
802.2222	270.2267	17057.75	16325.2
802.3649	272.4436	16954.95	16220.15
802.5076	274.6601	16895.15	16151.6
802.6504	276.8759	16813.4	16075.4
802.7931	279.0913	16824.95	16086.8
802.9359	281.3061	16867.2	16126.35
803.0787	283.5204	16993.55	16250.65
803.2215	285.7341	17118.6	16370.15
803.3643	287.9473	17300.3	16540.05
803.5071	290.16	17622.6	16868.7
803.6499	292.3721	17950.05	17200.95
803.7928	294.5837	18444.65	17698.35
803.9357	296.7947	18864.35	18113.4
804.0786	299.0052	19087.6	18340.65
804.2215	301.2152	18898.2	18145.45
804.3644	303.4246	18457.7	17708.25
804.5074	305.6334	17807.3	17062.05
804.6503	307.8418	17243	16492.5
804.7933	310.0495	16791.1	16038.5
804.9363	312.2568	16467.65	15716.8
805.0793	314.4635	16244.6	15493.85
805.2223	316.6696	16151.45	15398
805.3653	318.8752	16153.75	15388.35
805.5084	321.0802	16221.85	15466.8
805.6514	323.2847	16354	15598.2
805.7945	325.4887	16389.15	15638.2
805.9376	327.692	16331.55	15573.2
806.0807	329.8949	16217.25	15458.75
806.2238	332.0972	15922.6	15162
806.367	334.2989	15599.35	14835.85
806.5101	336.5001	15265.4	14503.25
806.6533	338.7007	15045.2	14281.75
806.7965	340.9008	14871.7	14104.4
806.9397	343.1003	14767.8	14000.2
807.0829	345.2992	14677.25	13908.2
807.2261	347.4976	14649.8	13879.45
807.3693	349.6955	14666.35	13893
807.5126	351.8927	14713.15	13940.25
807.6559	354.0895	14707.35	13921.7
807.7991	356.2856	14770.45	13992.6
807.9424	358.4812	14730.55	13956.6
808.0857	360.6763	14740.2	13961.85
808.2291	362.8707	14704.6	13924.25
808.3724	365.0646	14708.85	13927.95
808.5158	367.258	14709.55	13928.8
808.6591	369.4508	14714.9	13929.6
808.8025	371.643	14777.7	13993.25
808.9459	373.8346	14748.15	13959.8
809.0893	376.0257	14677.65	13885.25
809.2327	378.2162	14576.25	13784.45
809.3762	380.4062	14444.15	13649.65
809.5196	382.5956	14263.3	13469.2
809.6631	384.7844	14135	13341.45
809.8066	386.9726	14020.35	13220.95
809.9501	389.1603	13936.7	13140.15
810.0936	391.3474	13927.3	13092.65
810.2371	393.5339	13879.95	13085.45
810.3806	395.7199	13818.75	13030.65
810.5241	397.9052	13827.25	13040.4
810.6677	400.09	13832.3	13045.95
810.8113	402.2743	13878.25	13091.75
810.9548	404.4579	13870.15	13086.4
811.0984	406.641	14033.3	13249
811.2421	408.8235	14260.55	13472
811.3857	411.0054	14650.6	13860.9
811.5293	413.1868	15145.55	14352.85
811.673	415.3675	15582	14789.4
811.8166	417.5477	15842.1	15050.15
811.9603	419.7273	15896.9	15101.1
812.104	421.9064	15762	14958.75
812.2477	424.0848	15559.05	14759.2
812.3914	426.2627	15309.35	14509.05
812.5351	428.4399	15001.65	14196.6
812.6788	430.6166	14572.1	13766.2
812.8226	432.7928	14170.9	13363.25
812.9663	434.9683	13840.2	13034.35
813.1101	437.1432	13591.65	12781.45
813.2539	439.3176	13407.65	12599.9
813.3977	441.4914	13290.45	12477.4
813.5415	443.6645	13265.25	12452.8
813.6853	445.8371	13180	12368.55
813.8291	448.0091	13088.05	12278.25
813.973	450.1806	13024.2	12211.85
814.1168	452.3514	12947.55	12134.45
814.2607	454.5216	12922.75	12097
814.4046	456.6913	12844.45	12030.45
814.5485	458.8603	12870.25	12056.3
814.6924	461.0288	12922.45	12107.4
814.8363	463.1967	12968.25	12153.25
814.9802	465.3639	13097.35	12280.6
815.1241	467.5306	13216.9	12397.9
815.2681	469.6967	13405.65	12587.75
815.412	471.8622	13615.9	12800.1
815.556	474.0271	13777.45	12961.5
815.7	476.1914	13845.5	13027.8
815.844	478.3551	13826.15	13007.8
815.988	480.5182	13726.75	12907.9
816.132	482.6807	13716.7	12896.9
816.276	484.8426	13728.8	12911.3
816.4201	487.0039	14000.1	13180
816.5641	489.1647	14407.3	13588.85
816.7082	491.3248	14849.25	14028.45
816.8522	493.4843	15091.7	14271.3
816.9963	495.6432	15129.15	14307.65
817.1404	497.8015	15050.7	14223.35
817.2845	499.9592	15088.7	14267.35
817.4286	502.1163	15069.25	14246.95
817.5727	504.2728	14827.5	14001.95
817.7168	506.4287	14495.4	13671.15
817.861	508.5839	14003.15	13178.2
818.0051	510.7386	13623.8	12797.7
818.1493	512.8927	13336.65	12508
818.2935	515.0461	13176.85	12352.7
818.4377	517.199	13052.7	12225.85
818.5818	519.3512	12952.95	12124.7
818.726	521.5029	12918.8	12087.2
818.8703	523.6539	12927.3	12097.35
819.0145	525.8043	12956.3	12128.25
819.1587	527.9541	12956.3	12124
819.303	530.1033	13022.35	12189.5
819.4472	532.2519	13083.9	12251.4
819.5915	534.3999	13293.05	12460.3
819.7357	536.5472	13628.6	12797.75
819.88	538.694	14163.35	13331.9
820.0243	540.8401	14859.05	14025.2
820.1686	542.9856	15447.3	14614.15
820.3129	545.1305	15679	14844.6
820.4572	547.2748	15503.15	14669.95
820.6016	549.4185	15023.3	14187.85
820.7459	551.5615	14576.6	13742.45
820.8902	553.704	14358.6	13525.1
821.0346	555.8458	14219.55	13385.65
821.1789	557.987	14143.3	13310.5
821.3233	560.1276	14019.2	13185.3
821.4677	562.2675	13892.85	13060.15
821.6121	564.4069	13747.7	12915.3
821.7565	566.5456	13589.45	12754.7
821.9009	568.6837	13408.2	12572
822.0453	570.8212	13177.5	12344
822.1897	572.958	12925.35	12089.05
822.3342	575.0942	12739	11904.45
822.4786	577.2299	12641.05	11804.2
822.6231	579.3648	12673.25	11836.7
822.7675	581.4992	12765.05	11924.15
822.912	583.6329	13020.4	12184.2
823.0565	585.766	13296.7	12455.7
823.201	587.8985	13411.35	12575.1
823.3454	590.0304	13411.75	12561.75
823.4899	592.1616	13339.2	12499.5
823.6345	594.2922	13227.65	12387.95
823.779	596.4222	13073.15	12233.25
823.9235	598.5515	12917.65	12077
824.068	600.6802	12693.95	11853.15
824.2126	602.8083	12522.5	11682.45
824.3571	604.9358	12423.35	11580.2
824.5017	607.0626	12308.25	11466.75
824.6462	609.1888	12203.9	11364.7
824.7908	611.3144	12092.3	11247.9
824.9354	613.4393	11870.35	11030.2
825.08	615.5636	11705.15	10861.8
825.2246	617.6873	11572.75	10732.1
825.3692	619.8103	11465.8	10621.6
825.5138	621.9327	11439.6	10595.95
825.6584	624.0544	11423.15	10578.15
825.803	626.1756	11438.85	10594.3
825.9477	628.2961	11406.9	10562.2
826.0923	630.4159	11324.9	10481.1
826.237	632.5351	11274.1	10428.35
826.3816	634.6537	11186.05	10340.2
826.5263	636.7716	11160.8	10314.9
826.6709	638.8889	11123.15	10277.65
826.8156	641.0056	11149.05	10303.25
826.9603	643.1216	11120.2	10272
827.105	645.237	11166.15	10316.85
827.2497	647.3518	11151.25	10303.2
827.3944	649.4659	11186.25	10338.5
827.5391	651.5793	11193.3	10343.35
827.6838	653.6922	11179.15	10331.55
827.8285	655.8043	11155.95	10308.55
827.9733	657.9159	11096.4	10245.15
828.118	660.0268	10977.65	10125.75
828.2627	662.137	10900.65	10051.15
828.4075	664.2466	10876.45	10023.05
828.5522	666.3556	10832.7	9982.45
828.697	668.4639	10831.4	9977
828.8418	670.5716	10882.15	10030.55
828.9865	672.6786	10960.35	10108.2
829.1313	674.785	11039.3	10188.9
829.2761	676.8907	11117.75	10265.85
829.4209	678.9958	11214.35	10363.9
829.5657	681.1002	11180.85	10326.6
829.7105	683.204	11165.45	10309.7
829.8553	685.3072	11096.25	10243.15
830.0001	687.4097	10964.85	10111.25
830.1449	689.5115	10915.5	10060.3
830.2898	691.6127	10814.95	9962.25
830.4346	693.7132	10726.95	9874.9
830.5794	695.8131	10642.95	9763.1
830.7243	697.9123	10598.5	9744.35
830.8691	700.0109	10518.3	9662.65
831.014	702.1089	10482.45	9629.3
831.1588	704.2061	10450.5	9597.75
831.3037	706.3028	10498.4	9641.6
831.4486	708.3987	10536.35	9682.5
831.5935	710.4941	10649.6	9795
831.7383	712.5887	10872.9	10015.7
831.8832	714.6827	11178.85	10318.7
832.0281	716.7761	11594.8	10736.5
832.173	718.8688	12036.3	11178.4
832.3179	720.9608	12225.1	11362.75
832.4628	723.0522	12231	11369.3
832.6077	725.1429	11935.05	11077.65
832.7527	727.233	11554.15	10696.4
832.8976	729.3224	11143.45	10283.75
833.0425	731.4112	10796.75	9934.75
833.1874	733.4993	10575.85	9715.55
833.3324	735.5867	10401.5	9541.85
833.4773	737.6735	10318.1	9457.5
833.6222	739.7596	10275	9414.2
833.7672	741.845	10225.3	9363.4
833.9122	743.9298	10214.8	9354.1
834.0571	746.014	10220.15	9360.75
834.2021	748.0974	10207.15	9345.45
834.347	750.1802	10217.35	9357.6
834.492	752.2624	10189.3	9327.65
834.637	754.3439	10208.5	9346.8
834.782	756.4247	10289.6	9419.15
834.9269	758.5048	10356	9495.3
835.0719	760.5843	10551.6	9690.2
835.2169	762.6631	10817	9955
835.3619	764.7413	11243.65	10384.9
835.5069	766.8188	11799.05	10934.75
835.6519	768.8956	12306	11441.75
835.7969	770.9718	12623.4	11761.35
835.9419	773.0473	12503.6	11641.3
836.0869	775.1221	12129.7	11270.55
836.232	777.1962	11739.5	10877.05
836.377	779.2697	11539.3	10674.75
836.522	781.3426	11618.75	10739.95
836.667	783.4147	11934.5	11073.45
836.8121	785.4862	12255	11394
836.9571	787.557	12265.35	11402.45
837.1021	789.6271	11904	11039.4
837.2472	791.6966	11332.95	10469.95
837.3922	793.7654	10797.1	9931.95
837.5373	795.8335	10471.8	9608.65
837.6823	797.901	10234.15	9373.4
837.8274	799.9678	10180.3	9315.9
837.9724	802.0339	10181.5	9318.5
838.1175	804.0993	10251.2	9377.3
838.2626	806.1641	10255.15	9389.05
838.4076	808.2282	10190.1	9325.65
838.5527	810.2916	10063.55	9196.7
838.6978	812.3544	9962.25	9099.4
838.8428	814.4164	9836.45	8975.05
838.9879	816.4778	9822.5	8957.7
839.133	818.5385	9811.25	8949.2
839.2781	820.5986	9822.15	8955.85
839.4232	822.658	9883.45	9016.45
839.5682	824.7166	9888.4	9022.3
839.7133	826.7747	10022	9157.2
839.8584	828.832	10112.15	9246.7
840.0035	830.8886	10200.35	9330.85
840.1486	832.9446	10349.1	9480.9
840.2937	834.9999	10472.05	9608.15
840.4388	837.0545	10565.25	9696.05
840.5839	839.1085	10624.35	9756
840.729	841.1618	10639.8	9767.35
840.8741	843.2143	10654.85	9790.95
841.0192	845.2662	10587.25	9721.35
841.1643	847.3175	10504.95	9638
841.3095	849.368	10375.3	9507.1
841.4546	851.4179	10243.25	9376.8
841.5997	853.467	10090.6	9224.75
841.7448	855.5155	9961.6	9095.35
841.8899	857.5633	9835.65	8969.7
842.0351	859.6105	9725.8	8860
842.1802	861.6569	9643.7	8774.9
842.3253	863.7027	9568.6	8702.65
842.4704	865.7478	9544.6	8674
842.6156	867.7922	9534.3	8666.4
842.7607	869.8359	9605.5	8738.1
842.9058	871.8789	9720.15	8850.2
843.0509	873.9212	9922.65	9018.8
843.1961	875.9629	10090.3	9223.55
843.3412	878.0039	10246.15	9376.2
843.4863	880.0441	10378.1	9509.15
843.6315	882.0837	10346.65	9477.6
843.7766	884.1226	10210.35	9341
843.9218	886.1609	10005.45	9140.6
844.0669	888.1984	9874.5	9006.9
844.212	890.2352	9816.6	8946.75
844.3572	892.2714	9729.4	8856.25
844.5023	894.3069	9676.45	8807.95
844.6475	896.3416	9617	8745.75
844.7926	898.3757	9599.05	8729.55
844.9377	900.4091	9582.5	8711.25
845.0829	902.4418	9593.95	8720.45
845.228	904.4739	9583.5	8711.45
845.3732	906.5052	9552.85	8681.15
845.5183	908.5358	9468.6	8596.45
845.6635	910.5658	9304.6	8433.05
845.8086	912.595	9134.7	8265
845.9538	914.6236	8996.6	8126.1
846.0989	916.6515	8953.95	8083.75
846.2441	918.6786	8962.25	8089.85
846.3892	920.7051	9018.1	8148.35
846.5344	922.7309	9165.75	8294.35
846.6795	924.756	9217.8	8345.9
846.8246	926.7804	9286.25	8411.65
846.9698	928.8041	9266.45	8392.25
847.1149	930.8272	9263.3	8391.6
847.2601	932.8495	9238.9	8367.3
847.4052	934.8711	9121.4	8247
847.5504	936.892	8961.95	8090.65
847.6955	938.9123	8766.9	7893.8
847.8407	940.9318	8604.9	7732.6
847.9858	942.9506	8466.4	7594.25
848.131	944.9688	8381.6	7507.05
848.2761	946.9862	8340.7	7468.45
848.4213	949.003	8303.85	7429.25
848.5664	951.019	8305	7430.45
848.7115	953.0344	8285.3	7412.8
848.8567	955.0491	8332.6	7460.25
849.0018	957.063	8435.4	7563.45
849.147	959.0763	8539.25	7668.5
849.2921	961.0888	8577.65	7701.9
849.4373	963.1007	8681.05	7808.25
849.5824	965.1119	8688.4	7813.75
849.7275	967.1223	8735.3	7859.85
849.8727	969.1321	8760.1	7887.45
850.0178	971.1412	8784.4	7909.55
850.1629	973.1495	8834.15	7959.1
850.3081	975.1572	8856.5	7942.4
850.4532	977.1641	8862.35	7987.4
850.5983	979.1704	8856.55	7982.55
850.7435	981.1759	8852.8	7973.95
850.8886	983.1808	8907.85	8032.55
851.0337	985.1849	9020.65	8135.15
851.1788	987.1884	9179.75	8304.5
851.324	989.1911	9403.35	8526.25
851.4691	991.1932	9555.95	8678.35
851.6142	993.1945	9619.3	8744.05
851.7593	995.1951	9593.5	8718.45
851.9045	997.1951	9524.85	8644.6
852.0496	999.1943	9465.75	8592.5
852.1947	1001.1928	9376.1	8500.75
852.3398	1003.1906	9382.35	8508.4
852.4849	1005.1877	9387.85	8511.7
852.63	1007.1841	9349.9	8477.75
852.7751	1009.1798	9256.8	8381.25
852.9202	1011.1748	9062.8	8188.15
853.0653	1013.1691	8824.8	7948.9
853.2104	1015.1627	8606.65	7731.05
853.3555	1017.1556	8407.2	7532.15
853.5006	1019.1477	8314.4	7439.95
853.6457	1021.1392	8226.6	7354.25
853.7908	1023.1299	8251.4	7374.35
853.9359	1025.12	8261.2	7385.65
854.081	1027.1093	8328.2	7453.15
854.2261	1029.0979	8391.45	7518.25
854.3712	1031.0859	8476.15	7599.35
854.5163	1033.0731	8454.5	7576.6
854.6613	1035.0596	8377.75	7502.9
854.8064	1037.0454	8223.65	7348.4
854.9515	1039.0304	8106.85	7231.15
855.0965	1041.0148	7980.25	7104.45
855.2416	1042.9985	7878.85	7002.3
855.3867	1044.9814	7845.55	6971.35
855.5317	1046.9636	7791.95	6913.75
855.6768	1048.9452	7762.65	6887.5
855.8219	1050.926	7754.25	6878.65
855.9669	1052.9061	7740.3	6865.6
856.112	1054.8855	7726.75	6850.7
856.257	1056.8642	7781.8	6904.3
856.4021	1058.8421	7809.9	6929.6
856.5471	1060.8194	7822.15	6944.95
856.6921	1062.7959	7850.65	6974.55
856.8372	1064.7717	7862.45	6984.35
856.9822	1066.7469	7863.85	6986.45
857.1272	1068.7213	7821.9	6941.1
857.2723	1070.695	7787.7	6913.55
857.4173	1072.6679	7723	6846.95
857.5623	1074.6402	7679.3	6803.8
857.7073	1076.6117	7656.5	6774.2
857.8523	1078.5826	7674.35	6799.75
857.9973	1080.5527	7743.7	6865.55
858.1423	1082.5221	7902.2	7027.05
858.2873	1084.4908	8134.45	7255.8
858.4323	1086.4587	8377.75	7501.7
858.5773	1088.426	8535.55	7660.3
858.7223	1090.3925	8539.35	7658.9
858.8673	1092.3584	8463.2	7586
859.0123	1094.3235	8264.15	7387.65
859.1573	1096.2879	8163.3	7285
859.3022	1098.2515	8103.9	7228.1
859.4472	1100.2145	8124.2	7246.1
859.5922	1102.1767	8186.7	7307
859.7371	1104.1382	8329.7	7452.55
859.8821	1106.099	8545.9	7666.05
860.027	1108.0591	8754.8	7877.65
860.172	1110.0185	8882.9	8003.9
860.3169	1111.9771	8873.7	7995.45
860.4619	1113.9351	8645.85	7770.35
860.6068	1115.8923	8292.1	7413.95
860.7517	1117.8488	7963.2	7082.65
860.8967	1119.8045	7663.45	6785.35
861.0416	1121.7596	7505.35	6628
861.1865	1123.7139	7437.1	6558.65
861.3314	1125.6675	7436.4	6558.65
861.4763	1127.6204	7513.55	6634.75
861.6212	1129.5726	7530.95	6652.4
861.7661	1131.524	7543.8	6669.45
861.911	1133.4748	7604.85	6726.55
862.0559	1135.4248	7635.2	6755.5
862.2008	1137.3741	7678.45	6801.05
862.3457	1139.3226	7653.55	6772.95
862.4905	1141.2705	7618.35	6740.3
862.6354	1143.2176	7551.05	6665.55
862.7803	1145.164	7578.15	6697.4
862.9251	1147.1097	7603.95	6726.1
863.07	1149.0546	7589.95	6709.9
863.2148	1150.9989	7469.25	6592.25
863.3597	1152.9424	7284.55	6407.2
863.5045	1154.8852	7092.25	6215.5
863.6493	1156.8272	6965.9	6088
863.7942	1158.7686	6869.7	5985.8
863.939	1160.7092	6808.55	5928.4
864.0838	1162.6491	6804.7	5922.45
864.2286	1164.5883	6872.75	5993.7
864.3734	1166.5267	6950.6	6070.15
864.5182	1168.4644	7112.15	6231.75
864.663	1170.4014	7295.05	6415.45
864.8078	1172.3377	7527.9	6649.75
864.9526	1174.2732	7715.95	6836.95
865.0974	1176.2081	7942.75	7062.2
865.2421	1178.1421	8106.1	7225.05
865.3869	1180.0755	8223.25	7348.1
865.5317	1182.0082	8220.45	7341.45
865.6764	1183.9401	8156.8	7277.55
865.8212	1185.8713	7944.15	7066.6
865.9659	1187.8017	7686.65	6806.9
866.1106	1189.7315	7425.1	6548.3
866.2554	1191.6605	7196.85	6286.55
866.4001	1193.5888	6962.75	6083.6
866.5448	1195.5163	6836.7	5957.95
866.6895	1197.4432	6750.95	5869.55
866.8342	1199.3693	6659.9	5781.4
866.9789	1201.2947	6618.3	5736.9
867.1236	1203.2193	6594.1	5714.45
867.2683	1205.1432	6644.95	5765.25
867.413	1207.0664	6692.1	5811.65
867.5576	1208.9889	6778.45	5897.3
867.7023	1210.9106	6845.05	5963.6
867.847	1212.8316	6949.15	6071.8
867.9916	1214.7519	7046.25	6156.75
868.1363	1216.6715	7034.1	6154.1
868.2809	1218.5903	7023.8	6144.15
868.4255	1220.5084	6963.65	6082.4
868.5701	1222.4257	6948.3	6069.85
868.7148	1224.3424	6891.75	6014.15
868.8594	1226.2583	6943.45	6057.05
869.004	1228.1735	7043.45	6164.35
869.1486	1230.0879	7183.4	6302.25
869.2932	1232.0016	7326.9	6446.85
869.4377	1233.9146	7357	6476.9
869.5823	1235.8269	7265.25	6387.2
869.7269	1237.7384	7151.7	6272.5
869.8715	1239.6492	6938.35	6061.7
870.016	1241.5592	6816.2	5934.85
870.1606	1243.4686	6744.9	5863.9
870.3051	1245.3772	6665.15	5785.35
870.4496	1247.285	6601.15	5720.7
870.5941	1249.1922	6560.45	5681.85
870.7387	1251.0986	6569.9	5688.1
870.8832	1253.0042	6548.25	5668.55
871.0277	1254.9092	6628.75	5747.8
871.1722	1256.8134	6746.65	5867.05
871.3167	1258.7169	6877.25	5996.3
871.4611	1260.6196	7051.25	6172.3
871.6056	1262.5216	7238.75	6358.7
871.7501	1264.4229	7366	6489.1
871.8945	1266.3234	7453.8	6572.7
872.039	1268.2232	7506.3	6627.25
872.1834	1270.1223	7481.05	6600.8
872.3278	1272.0207	7474.35	6592.45
872.4723	1273.9183	7406.65	6520.75
872.6167	1275.8151	7329.8	6450.1
872.7611	1277.7113	7224.05	6344.45
872.9055	1279.6067	7069.45	6189.05
873.0499	1281.5014	6927.05	6044.55
873.1943	1283.3953	6764.35	5881.05
873.3386	1285.2885	6661.5	5781.4
873.483	1287.181	6585.4	5704.45
873.6274	1289.0727	6602.15	5721.35
873.7717	1290.9637	6640.35	5757.9
873.9161	1292.854	6743.75	5865.2
874.0604	1294.7435	6899.55	6020.25
874.2047	1296.6323	7141.15	6260.85
874.349	1298.5204	7411.7	6526.9
874.4933	1300.4077	7670.5	6789.05
874.6376	1302.2943	7877.55	6999.95
874.7819	1304.1802	7977.35	7097.4
874.9262	1306.0653	7892.15	7009.5
875.0705	1307.9497	7796.3	6914
875.2147	1309.8333	7715.4	6836.15
875.359	1311.7162	7703.85	6825.05
875.5032	1313.5984	7805.7	6922.25
875.6475	1315.4798	7952.95	7070.7
875.7917	1317.3605	8167.6	7271.35
875.9359	1319.2405	8319.35	7438.05
876.0801	1321.1197	8347.2	7463.7
876.2243	1322.9982	8295.15	7407.8
876.3685	1324.876	8308.4	7427
876.5127	1326.753	8255.7	7373.55
876.6569	1328.6293	8305.1	7423.3
876.801	1330.5048	8316.3	7431.8
876.9452	1332.3796	8286	7404.7
877.0893	1334.2537	8273.95	7365.05
877.2335	1336.127	8221.55	7341.25
877.3776	1337.9996	8174.5	7293.05
877.5217	1339.8714	8101.45	7217.85
877.6658	1341.7426	8089.25	7164.7
877.8099	1343.6129	7984.8	7104.3
877.954	1345.4826	7920	7038.45
878.0981	1347.3515	7845.5	6961.75
878.2422	1349.2196	7813.7	6933.15
878.3862	1351.087	7808	6926.9
878.5303	1352.9537	7824.9	6943.5
878.6743	1354.8197	7955.3	7074.25
878.8184	1356.6849	8132.05	7248.9
878.9624	1358.5493	8202.45	7320.9
879.1064	1360.4131	8177.2	7295.9
879.2504	1362.276	8112.25	7231.3
879.3944	1364.1383	7945.5	7067.1
879.5384	1365.9998	7720.05	6833.75
879.6823	1367.8606	7441.7	6559.45
879.8263	1369.7206	7224.25	6343.75
879.9702	1371.5799	7056.1	6172.2
880.1142	1373.4384	6952.75	6072.9
880.2581	1375.2962	6818.85	5935
880.402	1377.1533	6582.75	5700.6
880.5459	1379.0096	6284.6	5401.6
880.6898	1380.8652	6010.5	5125.1
880.8337	1382.7201	5804.4	4922.25
880.9776	1384.5742	5620.3	4738.7
881.1215	1386.4275	5474.5	4592.4
881.2653	1388.2802	5361.15	4481.55
881.4092	1390.132	5266.15	4385.85
881.553	1391.9832	5214.9	4332.5
881.6968	1393.8336	5152.55	4271.1
881.8406	1395.6832	5127.15	4243.2
881.9844	1397.5322	5085.05	4204.3
882.1282	1399.3803	5076.15	4187.15
882.272	1401.2278	5051.8	4171.1
882.4158	1403.0745	5058.8	4177.3
882.5595	1404.9204	5075.95	4192.95
882.7033	1406.7656	5083.6	4202.55
882.847	1408.6101	5088.1	4205.5
882.9908	1410.4538	5114.5	4231.3
883.1345	1412.2968	5145.25	4260.55
883.2782	1414.139	5192.65	4311.6
883.4219	1415.9805	5287.95	4406.45
883.5656	1417.8213	5392.75	4504.4
883.7092	1419.6613	5530.6	4650.35
883.8529	1421.5006	5701.45	4817.4
883.9965	1423.3391	6006.5	5122.8
884.1402	1425.1769	6372.85	5488.3
884.2838	1427.0139	6887.8	6005.55
884.4274	1428.8502	7516.9	6634.25
884.571	1430.6858	8123.05	7240.05
884.7146	1432.5206	8620.4	7736.3
884.8582	1434.3547	8902.25	8019.65
885.0018	1436.188	8920.9	8039.6
885.1453	1438.0206	8860.35	7977.25
885.2889	1439.8524	8751	7871.7
885.4324	1441.6835	8613.85	7731
885.5759	1443.5139	8526.6	7642.7
885.7194	1445.3435	8457.2	7576.6
885.8629	1447.1724	8414.65	7531.05
886.0064	1449.0005	8323.7	7441.85
886.1499	1450.8279	8265.8	7382.95
886.2933	1452.6545	8215.15	7333.2
886.4368	1454.4804	8222.55	7341.45
886.5802	1456.3056	8223.75	7332.75
886.7237	1458.13	8108.05	7227.7
886.8671	1459.9536	7896.55	7015.05
887.0105	1461.7766	7519.3	6639.2
887.1539	1463.5987	7088.55	6205.5
887.2972	1465.4202	6687.45	5805.85
887.4406	1467.2409	6326.45	5445.3
887.584	1469.0608	6055.15	5171.9
887.7273	1470.88	5797.5	4911.6
887.8706	1472.6984	5570.7	4689.95
888.0139	1474.5161	5384.45	4497.25
888.1572	1476.3331	5215.3	4334.5
888.3005	1478.1493	5082.85	4199.5
888.4438	1479.9648	4985.4	4104.15
888.5871	1481.7795	4889.45	4008.45
888.7303	1483.5935	4800.5	3917.9
888.8736	1485.4067	4747.35	3866.2
889.0168	1487.2192	4689.25	3806.15
889.16	1489.031	4648.6	3764.15
889.3032	1490.842	4624.1	3741.8
889.4464	1492.6522	4588.35	3706.95
889.5896	1494.4618	4553.3	3674.7
889.7327	1496.2705	4515.9	3635
889.8759	1498.0785	4504.05	3620.8
890.019	1499.8858	4493.8	3609.3
890.1622	1501.6924	4479.45	3598.85
890.3053	1503.4981	4454.85	3571.9
890.4484	1505.3032	4420.05	3537.75
890.5914	1507.1075	4428.75	3545
890.7345	1508.911	4389.35	3506.3
890.8776	1510.7138	4395.7	3513
891.0206	1512.5159	4331.8	3450.2
891.1637	1514.3172	4312.05	3429.1
891.3067	1516.1178	4274.8	3391.9
891.4497	1517.9176	4255.85	3371.55
891.5927	1519.7166	4211.05	3330.65
891.7357	1521.515	4218.45	3328.25
891.8786	1523.3126	4207.5	3324.2
892.0216	1525.1094	4176.5	3290.1
892.1645	1526.9055	4155.25	3274.5
892.3074	1528.7008	4138.2	3255.1
892.4503	1530.4954	4119.75	3231.6
892.5932	1532.2893	4125.25	3244.95
892.7361	1534.0824	4092.05	3206.3
892.879	1535.8747	4091.9	3207.75
893.0218	1537.6663	4065.5	3180.95
893.1647	1539.4572	4074.05	3188.95
893.3075	1541.2473	4073.9	3189.1
893.4503	1543.0367	4068.5	3187.95
893.5931	1544.8253	4080.5	3195.1
893.7359	1546.6132	4078	3194.1
893.8787	1548.4003	4073.4	3181.95
894.0214	1550.1867	4079.1	3188.55
894.1642	1551.9723	4100.95	3214.85
894.3069	1553.7572	4114.8	3232
894.4496	1555.5414	4144.25	3260.6
894.5923	1557.3247	4163.3	3281.75
894.735	1559.1074	4232.55	3350.95
894.8777	1560.8893	4271.9	3390.7
895.0204	1562.6705	4323.9	3441.4
895.163	1564.4509	4402.3	3521.15
895.3056	1566.2305	4496.95	3614.05
895.4482	1568.0094	4585.7	3706.65
895.5908	1569.7876	4669.6	3785.35
895.7334	1571.565	4720.4	3837.45
895.876	1573.3417	4801.85	3920.75
896.0186	1575.1176	4810.2	3928.8
896.1611	1576.8928	4785	3904.6
896.3036	1578.6672	4706.65	3824.25
896.4461	1580.4409	4588.15	3705.1
896.5886	1582.2138	4457.9	3576
896.7311	1583.986	4336.45	3454
896.8736	1585.7575	4253.05	3373.75
897.0161	1587.5282	4162.45	3281.35
897.1585	1589.2981	4107.9	3225.95
897.3009	1591.0673	4058.45	3176.2
897.4433	1592.8358	4049.6	3168.15
897.5857	1594.6035	4017.05	3132.45
897.7281	1596.3704	4034.9	3153.8
897.8705	1598.1366	4035.25	3152.35
898.0128	1599.9021	4061.95	3180.45
898.1551	1601.6668	4092.35	3205.7
898.2975	1603.4308	4137.35	3254.75
898.4398	1605.194	4208.1	3319.95
898.5821	1606.9564	4292.8	3411.6
898.7243	1608.7182	4395.5	3510.55
898.8666	1610.4791	4530.6	3647.85
899.0088	1612.2394	4676.05	3797.4
899.1511	1613.9988	4850.2	3968
899.2933	1615.7576	5091.85	4209.7
899.4355	1617.5156	5357.1	4467.4
899.5776	1619.2728	5571.95	4692.25
899.7198	1621.0293	5767	4886.2
899.862	1622.785	5833.45	4948.6
900.0041	1624.54	5802.85	4917.25
900.1462	1626.2942	5666.65	4784.35
900.2883	1628.0477	5413.3	4529.75
900.4304	1629.8005	5180.75	4293.8
900.5725	1631.5525	4941.8	4059
900.7145	1633.3037	4723.35	3841.15
900.8566	1635.0542	4563.55	3681.3
900.9986	1636.804	4443.3	3561.55
901.1406	1638.553	4410	3454.6
901.2826	1640.3013	4288.25	3408.15
901.4245	1642.0488	4247.3	3365.4
901.5665	1643.7955	4234.55	3354.7
901.7085	1645.5416	4249.5	3367.2
901.8504	1647.2868	4306.6	3425.7
901.9923	1649.0313	4392.75	3511.55
902.1342	1650.7751	4548.55	3664.45
902.2761	1652.5181	4720.85	3838.25
902.4179	1654.2604	4965.15	4084.75
902.5598	1656.0019	5291.25	4409.65
902.7016	1657.7427	5648.4	4768.15
902.8434	1659.4828	6003.05	5121.6
902.9852	1661.222	6239.6	5358.75
903.127	1662.9606	6283.55	5404.2
903.2687	1664.6984	6138.25	5255.35
903.4105	1666.4354	5811.3	4930.9
903.5522	1668.1717	5349.8	4471.45
903.6939	1669.9072	4897.5	4017.3
903.8356	1671.642	4545.3	3659.9
903.9773	1673.3761	4261.5	3383
904.119	1675.1094	4036.6	3154.95
904.2606	1676.8419	3875.3	2997.2
904.4022	1678.5737	3723.25	2842.05
904.5439	1680.3048	3641.4	2760.95
904.6855	1682.0351	3567.4	2686.45
904.827	1683.7646	3499.85	2616.4
904.9686	1685.4934	3458.75	2578.85
905.1101	1687.2215	3430.2	2547.9
905.2517	1688.9488	3391.1	2512.1
905.3932	1690.6754	3366.6	2486.45
905.5347	1692.4012	3351.05	2471.15
905.6761	1694.1263	3323.75	2443.75
905.8176	1695.8506	3309.65	2429.55
905.9591	1697.5742	3291.2	2410.25
906.1005	1699.297	3260.85	2380.4
906.2419	1701.0191	3251.65	2372.3
906.3833	1702.7404	3223.5	2345
906.5246	1704.461	3210.6	2330.5
906.666	1706.1808	3201.5	2319.3
906.8073	1707.8999	3179.3	2298
906.9487	1709.6182	3168	2285.45
907.09	1711.3358	3153.1	2271.05
907.2313	1713.0527	3144.65	2263.35
907.3725	1714.7688	3130.1	2243.7
907.5138	1716.4841	3100.7	2219.25
907.655	1718.1987	3111.45	2226.5
907.7962	1719.9126	3106.95	2227.25
907.9374	1721.6257	3083.5	2200.1
908.0786	1723.338	3085.35	2204.4
908.2198	1725.0496	3063.4	2180.1
908.3609	1726.7605	3057.85	2176.4
908.502	1728.4706	3042.25	2162.1
908.6431	1730.18	3028.2	2145
908.7842	1731.8886	3017.15	2137.5
908.9253	1733.5964	3013.25	2126.85
909.0664	1735.3036	3013.55	2131.3
909.2074	1737.0099	3006.4	2125.25
909.3484	1738.7156	3001.7	2121.6
909.4894	1740.4204	2981.75	2096.8
909.6304	1742.1246	2982.85	2101.9
909.7714	1743.8279	2976	2097.45
909.9123	1745.5306	2959.65	2077.05
910.0532	1747.2325	2950.95	2071.8
910.1941	1748.9336	2945.35	2063.85
910.335	1750.634	2929.75	2046.55
910.4759	1752.3336	2928.25	2047.1
910.6168	1754.0325	2926.65	2047.5
910.7576	1755.7307	2921.9	2040.85
910.8984	1757.4281	2925.7	2043.6
911.0392	1759.1247	2928.4	2040.05
911.18	1760.8206	2910.05	2025.1
911.3208	1762.5158	2910.15	2025.95
911.4615	1764.2102	2888.55	2009.6
911.6022	1765.9039	2891.5	2011.75
911.7429	1767.5968	2891.95	2011.4
911.8836	1769.289	2873.8	1991.65
912.0243	1770.9804	2864.55	1982.3
912.1649	1772.6711	2854.6	1973
912.3056	1774.361	2851.1	1971.8
912.4462	1776.0502	2852.5	1970.75
912.5868	1777.7386	2853	1970.9
912.7274	1779.4263	2841.95	1958.6
912.8679	1781.1132	2831.95	1951.55
913.0084	1782.7994	2831.4	1948.4
913.149	1784.4849	2834.85	1953.7
913.2895	1786.1696	2830.7	1930.55
913.4299	1787.8535	2807.75	1927.4
913.5704	1789.5367	2796.85	1917.35
913.7108	1791.2192	2804.8	1924.55
913.8513	1792.9009	2812.35	1906.9
913.9917	1794.5818	2794	1912.25
914.132	1796.2621	2791.05	1913.7
914.2724	1797.9415	2775.25	1894.15
914.4128	1799.6202	2774.7	1892.45
914.5531	1801.2982	2776.2	1895.8
914.6934	1802.9755	2762.85	1881.45
914.8337	1804.6519	2759.3	1878.35
914.9739	1806.3277	2743.6	1864.15
915.1142	1808.0027	2740.6	1859.2
915.2544	1809.6769	2746.45	1864.5
915.3946	1811.3504	2739.55	1856.95
915.5348	1813.0231	2730.95	1850.45
915.675	1814.6951	2736.3	1855.1
915.8151	1816.3664	2732.65	1849.55
915.9553	1818.0369	2738	1856.45
916.0954	1819.7067	2733.1	1852.7
916.2355	1821.3757	2715	1830.25
916.3755	1823.044	2709.45	1831.6
916.5156	1824.7115	2716.35	1833.8
916.6556	1826.3783	2694.9	1816.15
916.7956	1828.0443	2689.1	1809.15
916.9356	1829.7096	2688.75	1807.7
917.0756	1831.3741	2696.15	1813.95
917.2155	1833.0379	2693.7	1812.3
917.3555	1834.701	2694.8	1812.1
917.4954	1836.3633	2672.5	1789.2
917.6353	1838.0248	2672.5	1789.3
917.7751	1839.6856	2670.1	1790.85
917.915	1841.3457	2673.1	1792.2
918.0548	1843.005	2664.35	1784.9
918.1946	1844.6636	2654.3	1774.35
918.3344	1846.3214	2654.5	1774.8
918.4742	1847.9785	2660.45	1780.95
918.6139	1849.6349	2646.2	1763.75
918.7537	1851.2904	2659.65	1770.8
918.8934	1852.9453	2642.4	1761.2
919.0331	1854.5994	2644.4	1761.1
919.1727	1856.2528	2646.3	1760.65
919.3124	1857.9054	2629.9	1749.5
919.452	1859.5572	2635.3	1754.5
919.5916	1861.2083	2628.25	1747.9
919.7312	1862.8587	2611.65	1730.75
919.8708	1864.5084	2614.25	1732.5
920.0103	1866.1572	2601.85	1722.1
920.1498	1867.8054	2607.2	1725.35
920.2893	1869.4528	2599.95	1720.2
920.4288	1871.0994	2595.25	1714.9
920.5683	1872.7453	2596.45	1714.35
920.7077	1874.3905	2597.15	1700.2
920.8471	1876.0349	2587.2	1706.4
920.9865	1877.6786	2572.2	1689.2
921.1259	1879.3215	2567.4	1685.9
921.2653	1880.9637	2565.5	1684.05
921.4046	1882.6051	2562.6	1682
921.5439	1884.2458	2560.9	1679.05
921.6832	1885.8858	2559.25	1678.6
921.8225	1887.525	2548.35	1666.1
921.9617	1889.1634	2537.95	1657.3
922.101	1890.8011	2533.1	1651
922.2402	1892.4381	2516.9	1637.85
922.3794	1894.0743	2518.95	1638.6
922.5185	1895.7098	2514.45	1633.9
922.6577	1897.3446	2531.65	1647.9
922.7968	1898.9786	2511.75	1625.5
922.9359	1900.6118	2519.05	1639.1
923.075	1902.2443	2497.25	1611.95
923.214	1903.8761	2507.45	1626.85
923.3531	1905.5071	2503.55	1620.65
923.4921	1907.1374	2478.45	1597.25
923.6311	1908.7669	2477.45	1594.45
923.77	1910.3957	2476.25	1594.05
923.909	1912.0237	2481.8	1602
924.0479	1913.651	2469.9	1587.25
924.1868	1915.2776	2464.9	1586.25
924.3257	1916.9034	2464.4	1586.1
924.4646	1918.5285	2462.2	1583.9
924.6034	1920.1528	2448.7	1566.85
924.7422	1921.7764	2457.5	1578.15
924.881	1923.3992	2437.45	1556.7
925.0198	1925.0213	2433.9	1552.2
925.1586	1926.6427	2426.6	1547.75
925.2973	1928.2633	2508.1	1522.5
925.436	1929.8832	2431.35	1549.1
925.5747	1931.5023	2420.05	1540.25
925.7134	1933.1207	2414.55	1532.9
925.852	1934.7383	2402.95	1522.35
925.9906	1936.3552	2397.45	1516.55
926.1292	1937.9714	2400.2	1517.5
926.2678	1939.5868	2391.35	1510.7
926.4064	1941.2015	2372.15	1490.3
926.5449	1942.8154	2374.75	1494
926.6834	1944.4286	2364.05	1482.1
926.8219	1946.041	2379.3	1474.7
926.9604	1947.6528	2358.05	1473.25
927.0988	1949.2637	2366.85	1486.6
927.2372	1950.8739	2344.3	1464.4
927.3756	1952.4834	2347.6	1463.85
927.514	1954.0921	2339.35	1459.8
927.6523	1955.7001	2333	1446.15
927.7907	1957.3074	2323.4	1443.65
927.929	1958.9139	2308.5	1427.65
928.0673	1960.5197	2316.25	1433.95
928.2055	1962.1247	2315.2	1433.85
928.3438	1963.729	2302.8	1423.85
928.482	1965.3325	2321.1	1417.3
928.6202	1966.9353	2288.25	1408.85
928.7584	1968.5374	2283.05	1402.4
928.8965	1970.1387	2283.1	1403.15
929.0346	1971.7393	2281	1400.45
929.1727	1973.3392	2278.75	1396.8
929.3108	1974.9383	2270.5	1389.85
929.4489	1976.5366	2270.75	1388.4
929.5869	1978.1342	2266.55	1386.5
929.7249	1979.7311	2250.4	1368.4
929.8629	1981.3273	2256.45	1374.65
930.0009	1982.9227	2253.35	1370.65
930.1388	1984.5173	2251.3	1371.55
930.2767	1986.1112	2245.55	1364.5
930.4146	1987.7044	2236	1356.15
930.5525	1989.2968	2229.95	1347.35
930.6904	1990.8885	2239.2	1353.2
930.8282	1992.4795	2226	1343.95
930.966	1994.0697	2218.15	1338.7
931.1038	1995.6592	2216.75	1338.8
931.2415	1997.2479	2218.9	1338.75
931.3793	1998.8359	2203.15	1322.75
931.517	2000.4232	2204.25	1325.5
931.6547	2002.0097	2196.9	1317.6
931.7923	2003.5955	2182.75	1301.95
931.93	2005.1805	2202.65	1317.3
932.0676	2006.7648	2193.15	1311.35
932.2052	2008.3484	2185.9	1303.2
932.3427	2009.9312	2196.3	1312.9
932.4803	2011.5133	2193.15	1314.25
932.6178	2013.0946	2181.8	1300.45
932.7553	2014.6752	2182.6	1301.4
932.8928	2016.2551	2177.9	1297.1
933.0302	2017.8342	2173	1291.45
933.1676	2019.4126	2160.65	1280.6
933.305	2020.9902	2153.25	1271.9
933.4424	2022.5672	2160.35	1276.15
933.5798	2024.1433	2158.75	1273.65
933.7171	2025.7188	2152.35	1273.45
933.8544	2027.2935	2146.65	1264.25
933.9917	2028.8674	2144.05	1262.85
934.129	2030.4406	2135.65	1255.2
934.2662	2032.0131	2135.8	1255.95
934.4034	2033.5849	2130.7	1246.3
934.5406	2035.1559	2125	1244.85
934.6778	2036.7261	2117.9	1235.65
934.8149	2038.2957	2121.55	1242.15
934.952	2039.8645	2111.75	1232
935.0891	2041.4325	2118	1234.05
935.2262	2042.9998	2104.8	1226.8
935.3632	2044.5664	2106.4	1223.05
935.5002	2046.1323	2102.25	1220.6
935.6372	2047.6974	2089	1208.6
935.7742	2049.2617	2093.95	1214.15
935.9111	2050.8254	2116.75	1213.45
936.048	2052.3883	2100.95	1219.45
936.1849	2053.9504	2086.7	1206.05
936.3218	2055.5118	2090.1	1208.9
936.4586	2057.0725	2085.1	1199.55
936.5955	2058.6325	2080.35	1196.65
936.7323	2060.1917	2068.6	1188.15
936.869	2061.7502	2069.8	1185.7
937.0058	2063.3079	2071.45	1190
937.1425	2064.8649	2057.65	1174.05
937.2792	2066.4212	2063.2	1180.9
937.4159	2067.9767	2057.65	1175.35
937.5525	2069.5315	2051.6	1169.6
937.6891	2071.0856	2044.15	1162.85
937.8257	2072.6389	2040.2	1159.6
937.9623	2074.1915	2045.15	1165.7
938.0989	2075.7433	2038.55	1155.55
938.2354	2077.2945	2033.7	1151.9
938.3719	2078.8448	2022.9	1142.8
938.5084	2080.3945	2015.7	1135
938.6448	2081.9434	2015.8	1135.9
938.7812	2083.4916	2027	1146.4
938.9176	2085.039	2014.65	1131.6
939.054	2086.5857	2010.3	1128.05
939.1903	2088.1317	2003.6	1122.7
939.3267	2089.677	2000.15	1117.1
939.463	2091.2215	2014.2	1132.9
939.5992	2092.7652	1993	1109.1
939.7355	2094.3083	2002.25	1122.05
939.8717	2095.8506	1999.65	1119.1
940.0079	2097.3921	1991.15	1111.5
940.1441	2098.933	1990.6	1110.85
940.2802	2100.4731	1981.5	1098.9
940.4163	2102.0124	1987.9	1099.6
940.5524	2103.5511	1988.25	1111.75
940.6885	2105.089	1987.45	1104.65
940.8245	2106.6261	1966	1085.3
940.9606	2108.1626	1979.2	1095.75
941.0965	2109.6983	2001.75	1090.4
941.2325	2111.2332	1982.4	1101.2
941.3684	2112.7675	1965.65	1082.3
941.5044	2114.301	1961.2	1078.6
941.6403	2115.8337	1963.05	1081.45
941.7761	2117.3657	1958.6	1078.55
941.912	2118.897	1965	1083.8
942.0478	2120.4276	1955.65	1068.95
942.1835	2121.9575	1948.45	1066.2
942.3193	2123.4866	1964.95	1069.85
942.455	2125.0149	1946.65	1059.7
942.5907	2126.5426	1933.4	1051.75
942.7264	2128.0695	1941.6	1054.95
942.8621	2129.5956	1929.1	1049.4
942.9977	2131.1211	1938.65	1055
943.1333	2132.6458	1927.9	1045.55
943.2689	2134.1698	1938.65	1059.15
943.4044	2135.693	1924.55	1040
943.54	2137.2155	1918.95	1034.35
943.6755	2138.7373	1921.45	1040
943.8109	2140.2584	1912.9	1031.4
943.9464	2141.7787	1918.5	1031.8
944.0818	2143.2983	1908.2	1026
944.2172	2144.8171	1903.9	1024.5
944.3526	2146.3353	1907.5	1023.9
944.4879	2147.8527	1894.7	1014.6
944.6232	2149.3693	1905.3	1024
944.7585	2150.8853	1896.15	1014.25
944.8938	2152.4005	1900.35	1018.95
945.029	2153.9149	1899	1017
945.1642	2155.4287	1880.05	997.85
945.2994	2156.9417	1893.2	1009.85
945.4346	2158.454	1888.35	1004
945.5697	2159.9655	1879.3	997.1
945.7048	2161.4764	1885.95	1004.25
945.8399	2162.9865	1873.35	991.7
945.9749	2164.4958	1872.05	988.6
946.1099	2166.0045	1877.6	992.3
946.2449	2167.5124	1868.25	988.75
946.3799	2169.0195	1876.4	996.1
946.5148	2170.526	1871.4	989.65
946.6498	2172.0317	1865.85	984.4
946.7846	2173.5367	1862.5	979.25
946.9195	2175.0409	1860.25	979
947.0543	2176.5445	1850.8	970.55
947.1891	2178.0473	1846.9	964
947.3239	2179.5494	1854.55	968.65
947.4587	2181.0507	1841.1	959.1
947.5934	2182.5513	1836.65	954.4
947.7281	2184.0512	1843.55	962.4
947.8628	2185.5504	1840.55	960.2
947.9974	2187.0488	1836.85	954.4
948.132	2188.5465	1838.45	957.1
948.2666	2190.0435	1832.15	948.9
948.4012	2191.5397	1832.15	952.95
948.5357	2193.0353	1824.75	943.65
948.6702	2194.5301	1826	944.55
948.8047	2196.0241	1814.7	930.85
948.9392	2197.5175	1816.8	932.2
949.0736	2199.0101	1819.75	935.95
949.208	2200.502	1807.5	926.55
949.3424	2201.9931	1808.2	926.45
949.4767	2203.4835	1809.15	927.75
949.611	2204.9733	1805.5	917.4
949.7453	2206.4622	1800.35	919.85
949.8796	2207.9505	1793.4	909.35
950.0138	2209.438	1791.45	912.4
950.148	2210.9248	1787.45	903.85
950.2822	2212.4109	1785.65	905.2
950.4164	2213.8962	1787.1	903.9
950.5505	2215.3809	1782.7	899.55
950.6846	2216.8648	1785.9	905.05
950.8186	2218.3479	1777.8	894.3
950.9527	2219.8304	1780.05	895.35
951.0867	2221.3121	1768.9	887.1
951.2207	2222.7931	1758.5	877.2
951.3546	2224.2733	1760.95	878.7
951.4886	2225.7529	1760.4	879.6
951.6225	2227.2317	1755.65	870.2
951.7563	2228.7098	1753.1	872.6
951.8902	2230.1872	1753.95	872
952.024	2231.6638	1753.95	872.25
952.1578	2233.1397	1754.55	867.85
952.2916	2234.6149	1744.7	860.7
952.4253	2236.0894	1740.45	856.6
952.559	2237.5632	1745.95	862.15
952.6927	2239.0362	1741.45	859.8
952.8263	2240.5085	1732.1	849.85
952.9599	2241.9801	1728.3	844
953.0935	2243.4509	1730.2	849.4
953.2271	2244.921	1725.2	845.2
953.3606	2246.3904	1724.25	836.15
953.4941	2247.8591	1714.75	832.7
953.6276	2249.3271	1717.9	836.25
953.7611	2250.7943	1708.75	826.45
953.8945	2252.2608	1710.95	831.6
954.0279	2253.7266	1707.5	825.6
954.1612	2255.1917	1698.15	816.5
954.2946	2256.656	1700.95	818.75
954.4279	2258.1197	1692.85	811.9
954.5612	2259.5826	1692.95	806.9
954.6944	2261.0447	1699.7	815.8
954.8276	2262.5062	1692.2	809.7
954.9608	2263.9669	1703.45	822.75
955.094	2265.4269	1680.8	798.05
955.2271	2266.8862	1689.55	808.45
955.3602	2268.3448	1693.35	811.45
955.4933	2269.8026	1687.4	803.65
955.6264	2271.2598	1685.05	802.85
955.7594	2272.7162	1677.6	797.35
955.8924	2274.1719	1680.35	800.45
956.0253	2275.6268	1675.55	793.05
956.1583	2277.0811	1675.6	795.9
956.2912	2278.5346	1675.1	794.15
956.4241	2279.9874	1675.4	793.25
956.5569	2281.4395	1671.3	788.6
956.6897	2282.8908	1671.25	784.8
956.8225	2284.3414	1674.4	790.6
956.9553	2285.7914	1669.65	788.35
957.088	2287.2406	1666	782.3
957.2207	2288.689	1656.75	774.35
957.3534	2290.1368	1655.8	775.05
957.486	2291.5838	1659.75	776.95
957.6186	2293.0302	1657.75	775.95
957.7512	2294.4758	1657.05	775.65
957.8838	2295.9206	1659.05	774.7
958.0163	2297.3648	1650	767.2
958.1488	2298.8082	1642.8	758.55
958.2813	2300.251	1644.05	761.85
958.4137	2301.693	1640.05	757.6
958.5461	2303.1343	1633.05	750.95
958.6785	2304.5748	1638.55	757.15
958.8108	2306.0147	1635.8	753.6
958.9432	2307.4538	1635.9	751.5
959.0754	2308.8922	1637.9	757.9
959.2077	2310.3299	1625.75	741.8
959.3399	2311.7669	1623.5	741.7
959.4721	2313.2031	1621.75	740.2
959.6043	2314.6387	1619.25	737.2
959.7365	2316.0735	1613.1	730.35
959.8686	2317.5076	1615	731.7
960.0006	2318.941	1610.4	727
960.1327	2320.3737	1608.3	726.05
960.2647	2321.8056	1618.25	731.8
960.3967	2323.2369	1609.05	727.6
960.5287	2324.6674	1607.8	724.8
960.6606	2326.0972	1611.9	728.95
960.7925	2327.5263	1598.45	719.6
960.9244	2328.9547	1597.55	715.15
961.0562	2330.3823	1598.3	714.9
961.1881	2331.8092	1606.95	720.55
961.3198	2333.2355	1595.45	713.1
961.4516	2334.661	1597	715.35
961.5833	2336.0858	1591.95	707.7
961.715	2337.5098	1581.75	699.7
961.8467	2338.9332	1594.2	711.55
961.9783	2340.3558	1594.25	709.3
962.1099	2341.7778	1588.95	708.8
962.2415	2343.199	1582.2	698.55
962.373	2344.6195	1586.25	704.2
962.5045	2346.0393	1586.25	705.05
962.636	2347.4583	1583.8	700.55
962.7675	2348.8767	1586.95	704.3
962.8989	2350.2943	1585.95	703.1
963.0303	2351.7113	1581.55	697.7
963.1617	2353.1275	1573.2	694.6
963.293	2354.543	1603.45	695.4
963.4243	2355.9578	1576.1	694
963.5556	2357.3718	1570.65	691.2
963.6868	2358.7852	1570.75	686.9
963.818	2360.1978	1562.45	678.9
963.9492	2361.6098	1565.4	685.3
964.0803	2363.021	1570.85	686.6
964.2114	2364.4315	1563.3	680.7
964.3425	2365.8413	1566.5	683.6
964.4736	2367.2504	1559.2	680
964.6046	2368.6587	1550.05	668.5
964.7356	2370.0664	1557.5	675.95
964.8666	2371.4733	1552.1	669.75
964.9975	2372.8795	1546.1	665.8
965.1284	2374.285	1546.2	665.05
965.2593	2375.6899	1541.7	659.6
965.3901	2377.0939	1538.2	656.55
965.5209	2378.4973	1542.3	662.65
965.6517	2379.9	1534.9	652.35
965.7825	2381.3019	1534.2	654.5
965.9132	2382.7032	1537.65	655.25
966.0439	2384.1037	1529.15	649.7
966.1745	2385.5035	1530.85	651.1
966.3051	2386.9027	1519.45	639.05
966.4357	2388.3011	1526.1	641.75
966.5663	2389.6987	1523.45	644.7
966.6968	2391.0957	1523.25	642.15
966.8273	2392.492	1514.75	636.4
966.9578	2393.8876	1512.8	632.1
967.0882	2395.2824	1510.75	631.4
967.2186	2396.6765	1509.4	629.8
967.349	2398.07	1497.8	619.65
967.4793	2399.4627	1504.25	622.2
967.6097	2400.8547	1500.45	619.9
967.7399	2402.246	1504.95	619.9
967.8702	2403.6366	1511.5	629.2
968.0004	2405.0265	1493.7	613.8
968.1306	2406.4156	1496.9	611.15
968.2607	2407.8041	1495.85	611.05
968.3909	2409.1918	1500.1	616.85
968.521	2410.5789	1497.95	615.85
968.651	2411.9652	1493.7	608
968.781	2413.3508	1493.4	613.7
968.911	2414.7358	1481.8	598.8
969.041	2416.12	1491.55	613.05
969.1709	2417.5035	1485.65	607.5
969.3008	2418.8863	1489.15	607.75
969.4307	2420.2684	1479.4	600.2
969.5606	2421.6497	1478.45	595.85
969.6904	2423.0304	1473.65	595
969.8201	2424.4104	1479.2	598.8
969.9499	2425.7896	1471.4	584.4
970.0796	2427.1682	1472.75	592.5
970.2093	2428.546	1469	586.9
970.3389	2429.9232	1472.4	590.1
970.4685	2431.2996	1465.95	587.65
970.5981	2432.6753	1471.35	590.85
970.7277	2434.0503	1463.3	583.15
970.8572	2435.4246	1456.1	577.6
970.9867	2436.7982	1463.1	577.9
971.1161	2438.1711	1458.65	579.45
971.2456	2439.5433	1457.9	577.25
971.375	2440.9148	1460.5	574.8
971.5043	2442.2856	1450.7	569
971.6336	2443.6557	1458.9	578.35
971.7629	2445.025	1448.5	570.25
971.8922	2446.3937	1448	566.7
972.0214	2447.7617	1449.85	567.65
972.1506	2449.1289	1456.85	575.7
972.2798	2450.4955	1453.7	569.95
972.4089	2451.8613	1447.9	568.9
972.538	2453.2265	1440.85	558.25
972.6671	2454.5909	1443.1	561.35
972.7961	2455.9546	1436.7	555.3
972.9251	2457.3177	1440.25	557.8
973.0541	2458.68	1443.95	563.4
973.1831	2460.0416	1437.95	556.3
973.312	2461.4025	1439.05	556.8
973.4408	2462.7627	1449.3	556.55
973.5697	2464.1222	1435.2	553.7
973.6985	2465.4811	1431.35	548.25
973.8273	2466.8392	1433.05	551.15
973.956	2468.1966	1439.35	556.75
974.0847	2469.5533	1445.25	561.05
974.2134	2470.9093	1430.1	549.05
974.3421	2472.2645	1436.6	552.8
974.4707	2473.6191	1435.75	555.45
974.5993	2474.973	1424.3	542.2
974.7278	2476.3262	1431.8	549.7
974.8563	2477.6787	1422.5	540.3
974.9848	2479.0305	1420.65	540.05
975.1132	2480.3816	1428.35	545.9
975.2417	2481.7319	1421.55	539.95
975.37	2483.0816	1420.15	536.8
975.4984	2484.4306	1420.3	537.45
975.6267	2485.7789	1422.3	538.8
975.755	2487.1264	1413.3	530.15
975.8833	2488.4733	1414.8	534.35
976.0115	2489.8195	1425	527.7
976.1397	2491.165	1409.55	522.5
976.2678	2492.5097	1404.65	521.15
976.3959	2493.8538	1409.5	526.9
976.524	2495.1972	1402.65	520.5
976.6521	2496.5398	1403	521.2
976.7801	2497.8818	1406.2	521.35
976.9081	2499.2231	1402.15	521.65
977.036	2500.5637	1397.8	515.25
977.164	2501.9035	1389.2	505.75
977.2918	2503.2427	1396.15	511
977.4197	2504.5812	1396	514.35
977.5475	2505.919	1399.3	519
977.6753	2507.256	1398.25	516.1
977.8031	2508.5924	1391.8	510.85
977.9308	2509.9281	1395.2	509
978.0585	2511.2631	1393.15	512.55
978.1861	2512.5974	1388.5	507.05
978.3137	2513.9309	1387.55	506.85
978.4413	2515.2638	1411.8	498.65
978.5689	2516.596	1380.65	501.6
978.6964	2517.9275	1384.8	501.05
978.8239	2519.2583	1385.25	503.05
978.9513	2520.5884	1382.45	500.35
979.0788	2521.9178	1377.55	493.85
979.2062	2523.2465	1374.6	493.6
979.3335	2524.5745	1377.35	494.8
979.4608	2525.9018	1381.1	499.45
979.5881	2527.2284	1372.2	491.6
979.7154	2528.5543	1373.65	492.1
979.8426	2529.8796	1371	489.3
979.9698	2531.2041	1373.45	493
980.0969	2532.5279	1369.95	489.15
980.224	2533.851	1375.95	494.75
980.3511	2535.1735	1371.55	492.15
980.4781	2536.4952	1372.75	492
980.6052	2537.8163	1363.3	479.85
980.7321	2539.1366	1361.95	481.5
980.8591	2540.4562	1366.5	483.55
980.986	2541.7752	1363.05	481
981.1129	2543.0935	1358.45	478.85
981.2397	2544.411	1359.85	477.5
981.3665	2545.7279	1360.45	479.85
981.4933	2547.0441	1359.1	479.05
981.62	2548.3596	1353.4	468.5
981.7467	2549.6744	1356.75	475.7
981.8734	2550.9885	1363.9	480.3
982.0001	2552.3019	1350.8	469.7
982.1267	2553.6146	1349.45	468.95
982.2532	2554.9266	1352.05	469.85
982.3798	2556.2379	1351.4	468.3
982.5063	2557.5485	1354.1	472.05
982.6327	2558.8585	1353.75	464.4
982.7592	2560.1677	1349.45	464.45
982.8856	2561.4762	1351.55	466.5
983.0119	2562.7841	1347.95	462.9
983.1383	2564.0913	1339.45	458.45
983.2646	2565.3977	1344.8	464.55
983.3908	2566.7035	1338.15	455.05
983.517	2568.0086	1341.55	456.65
983.6432	2569.313	1344.95	463.6
983.7694	2570.6167	1343.45	459.8
983.8955	2571.9197	1334.65	453.4
984.0216	2573.222	1347.1	462.45
984.1476	2574.5236	1344.45	462.4
984.2737	2575.8246	1339.35	455.4
984.3996	2577.1248	1341.4	457.35
984.5256	2578.4244	1330.1	445.55
984.6515	2579.7232	1341.3	459.6
984.7774	2581.0214	1373.65	461.05
984.9032	2582.3189	1343.5	463.3
985.029	2583.6157	1346.85	460.5
985.1548	2584.9118	1342.65	461.85
985.2806	2586.2072	1342.6	463.8
985.4063	2587.5019	1337.2	455.95
985.5319	2588.7959	1342.45	461.3
985.6576	2590.0893	1348.95	465.55
985.7832	2591.3819	1347.15	467.15
985.9087	2592.6739	1349.1	469.65
986.0343	2593.9652	1356.2	471.65
986.1597	2595.2557	1351.45	470.45
986.2852	2596.5456	1352.4	468
986.4106	2597.8348	1352.35	469.5
986.536	2599.1234	1354	473.25
986.6614	2600.4112	1360.8	479.15
986.7867	2601.6983	1359.9	476.75
986.912	2602.9848	1360.55	480.6
987.0372	2604.2705	1356.95	466.7
987.1624	2605.5556	1364.45	483.65
987.2876	2606.84	1354.85	473.65
987.4128	2608.1237	1360.25	477.05
987.5379	2609.4067	1354.2	473.3
987.6629	2610.689	1366.75	474.75
987.788	2611.9707	1352.25	467.4
987.913	2613.2516	1356.45	470.05
988.0379	2614.5319	1351.75	470.25
988.1629	2615.8115	1349.4	466.2
988.2878	2617.0903	1353	470.85
988.4126	2618.3685	1348.4	466
988.5375	2619.6461	1347.85	466.4
988.6622	2620.9229	1344.1	462.55
988.787	2622.199	1344.6	462.35
988.9117	2623.4745	1346.2	462.6
989.0364	2624.7493	1342.7	459.35
989.161	2626.0234	1340.55	458.3
989.2857	2627.2968	1349.45	466.4
989.4102	2628.5695	1347.15	463.75
989.5348	2629.8415	1345.9	464.7
989.6593	2631.1128	1346.25	462.85
989.7837	2632.3835	1343.5	462.5
989.9082	2633.6535	1338.5	455.95
990.0326	2634.9228	1350.8	471.45
990.1569	2636.1914	1346	463.3
990.2812	2637.4593	1351.25	469.45
990.4055	2638.7265	1350.3	467.3
990.5298	2639.9931	1346.3	464.9
990.654	2641.259	1349.75	468.15
990.7782	2642.5242	1341.9	458.75
990.9023	2643.7887	1338.95	456.1
991.0264	2645.0525	1338.3	455.35
991.1505	2646.3156	1338.65	454.75
991.2745	2647.5781	1331.15	450.45
991.3985	2648.8398	1331.9	451
991.5225	2650.1009	1339	447.85
991.6464	2651.3613	1326.85	445.95
991.7703	2652.6211	1331.55	450.05
991.8942	2653.8801	1330.1	450.1
992.018	2655.1385	1336.55	451
992.1418	2656.3961	1331.85	450.1
992.2655	2657.6531	1329.85	449.95
992.3892	2658.9094	1331.05	446.2
992.5129	2660.1651	1330.1	449.15
992.6366	2661.42	1331.95	449.4
992.7602	2662.6743	1339.7	458
992.8837	2663.9279	1338.75	459
993.0073	2665.1808	1335.8	452.4
993.1307	2666.433	1345.4	463.7
993.2542	2667.6846	1337.7	457.8
993.3776	2668.9354	1352.8	466.15
993.501	2670.1856	1336.5	451.35
993.6244	2671.4351	1346.4	463
993.7477	2672.6839	1353.2	470.2
993.8709	2673.9321	1350.8	469.6
993.9942	2675.1795	1353.6	471.35
994.1174	2676.4263	1352.85	471.45
994.2405	2677.6724	1360.7	479.3
994.3637	2678.9179	1361.55	479.45
994.4868	2680.1626	1361.25	478.2
994.6098	2681.4067	1363.6	480.9
994.7328	2682.6501	1364.75	484.55
994.8558	2683.8928	1354.2	473.3
994.9788	2685.1348	1359.35	479
995.1017	2686.3761	1356.4	475.8
995.2245	2687.6168	1351.35	469
995.3474	2688.8568	1351.05	470.8
995.4702	2690.0961	1349.45	469.5
995.5929	2691.3348	1339.85	455.6
995.7156	2692.5727	1343.45	460.9
995.8383	2693.81	1340.1	456.8
995.961	2695.0466	1332.75	452.7
996.0836	2696.2826	1337.1	451.95
996.2062	2697.5178	1344.65	457.45
996.3287	2698.7524	1334.4	452.7
996.4512	2699.9863	1343.55	457.1
996.5737	2701.2195	1339.75	459.95
996.6961	2702.452	1344.95	461.8
996.8185	2703.6839	1352.6	469.9
996.9408	2704.9151	1351.45	471.15
997.0631	2706.1456	1358.75	475.5
997.1854	2707.3755	1358.35	477.8
997.3077	2708.6046	1373.55	489.15
997.4299	2709.8331	1383.35	501.55
997.552	2711.0609	1390.1	508.15
997.6742	2712.2881	1398.75	515.95
997.7963	2713.5145	1410.35	526.8
997.9183	2714.7403	1420	540.4
998.0403	2715.9654	1428.95	548.5
998.1623	2717.1899	1453.65	559.55
998.2842	2718.4136	1464.75	581.9
998.4062	2719.6367	1462	579.55
998.528	2720.8591	1481.3	591.55
998.6498	2722.0809	1485.95	603.7
998.7716	2723.3019	1504.8	617.8
998.8934	2724.5223	1505.75	621.7
999.0151	2725.7421	1516.9	632.75
999.1368	2726.9611	1521	636
999.2584	2728.1795	1526.4	639.55
999.38	2729.3972	1516.85	635.75
999.5016	2730.6142	1500.4	604.2
999.6231	2731.8306	1484.95	601.55
999.7446	2733.0462	1474.4	590.7
999.8661	2734.2612	1455.95	570.05
999.9875	2735.4756	1435.2	551.1
1000.1089	2736.6892	1417.95	534.65
1000.2302	2737.9022	1412.95	531.65
1000.3515	2739.1145	1391.1	510.5
1000.4728	2740.3262	1382.05	492.6
1000.594	2741.5372	1365.55	484.7
1000.7152	2742.7475	1355.35	472.9
1000.8363	2743.9571	1347.6	464.4
1000.9575	2745.1661	1340.25	453
1001.0785	2746.3744	1332.7	449.95
1001.1996	2747.582	1322.45	440.7
1001.3206	2748.7889	1315.75	431.95
1001.4415	2749.9952	1303.9	421.05
1001.5625	2751.2008	1303.8	420.65
1001.6833	2752.4057	1299.65	415.15
1001.8042	2753.61	1289.55	407.45
1001.925	2754.8136	1296.9	412.2
1002.0458	2756.0165	1291.45	410.55
1002.1665	2757.2188	1292.95	412.85
1002.2872	2758.4204	1288.9	406.4
1002.4078	2759.6213	1299.05	414.45
1002.5285	2760.8215	1306.4	417.15
1002.649	2762.0211	1296.05	411.5
1002.7696	2763.22	1297.8	414.45
1002.8901	2764.4182	1286.5	403.1
1003.0106	2765.6158	1291.95	409.5
1003.131	2766.8127	1283.9	400.65
1003.2514	2768.009	1279.8	397.8
1003.3717	2769.2045	1285.6	401
1003.492	2770.3994	1280.5	396.3
1003.6123	2771.5936	1283.9	401.1
1003.7325	2772.7872	1279.05	397.8
1003.8527	2773.9801	1273.95	390.3
1003.9729	2775.1723	1294.15	393.25
1004.093	2776.3639	1281.55	399.4
1004.2131	2777.5548	1274.35	391.5
1004.3331	2778.745	1274.55	391.2
1004.4531	2779.9346	1277.95	395.5
1004.5731	2781.1235	1286.2	404.5
1004.693	2782.3117	1287.7	406.4
1004.8129	2783.4992	1296.7	414.55
1004.9328	2784.6861	1295.6	412.85
1005.0526	2785.8723	1307.65	423.45
1005.1723	2787.0579	1313.25	430.9
1005.2921	2788.2428	1323.05	439.6
1005.4118	2789.427	1334.35	453.25
1005.5314	2790.6106	1339.2	456.05
1005.651	2791.7935	1349.6	467.25
1005.7706	2792.9757	1367.95	485.4
1005.8902	2794.1573	1376.7	493.1
1006.0097	2795.3382	1390.4	509.8
1006.1291	2796.5184	1408.4	527.75
1006.2485	2797.698	1436.8	552.85
1006.3679	2798.8769	1443.85	561.8
1006.4873	2800.0551	1468.7	586.3
1006.6066	2801.2327	1489.3	603.5
1006.7258	2802.4096	1507.1	624.9
1006.8451	2803.5859	1526	641.85
1006.9642	2804.7615	1546.2	664.95
1007.0834	2805.9364	1579.65	698.6
1007.2025	2807.1106	1613.1	732
1007.3216	2808.2842	1631.55	750
1007.4406	2809.4572	1671.55	789
1007.5596	2810.6294	1709.05	828.3
1007.6785	2811.801	1757.35	875.15
1007.7975	2812.972	1797.1	915.65
1007.9163	2814.1423	1843.55	961.55
1008.0352	2815.3119	1890.1	1007.2
1008.154	2816.4808	1936.05	1055.3
1008.2727	2817.6491	2005	1121.5
1008.3914	2818.8167	2039.4	1159
1008.5101	2819.9837	2097.1	1211.45
1008.6288	2821.15	2126.05	1245.85
1008.7474	2822.3157	2179.05	1297.5
1008.8659	2823.4807	2231.45	1349.1
1008.9844	2824.645	2266.35	1381.55
1009.1029	2825.8086	2313.6	1431.7
1009.2214	2826.9716	2353.6	1473.05
1009.3398	2828.134	2401.55	1518.2
1009.4581	2829.2957	2429.3	1548.65
1009.5764	2830.4567	2451.65	1568.6
1009.6947	2831.617	2472.25	1591.35
1009.813	2832.7767	2485.7	1603.85
1009.9312	2833.9358	2487.4	1606
1010.0493	2835.0941	2484.7	1603.1
1010.1675	2836.2519	2476.55	1594.8
1010.2855	2837.4089	2465.25	1581.75
1010.4036	2838.5653	2439.95	1557.6
1010.5216	2839.7211	2452.1	1571.95
1010.6396	2840.8761	2465.75	1580.6
1010.7575	2842.0306	2488.15	1607.9
1010.8754	2843.1843	2524.95	1643.1
1010.9932	2844.3374	2571	1687.7
1011.111	2845.4899	2632.1	1747
1011.2288	2846.6417	2704.95	1823.35
1011.3465	2847.7928	2781	1898.9
1011.4642	2848.9433	2863.85	1982.75
1011.5818	2850.0931	2948.7	2065.6
1011.6995	2851.2422	3047.75	2167
1011.817	2852.3907	3100.5	2219.3
1011.9345	2853.5385	3173.95	2291
1012.052	2854.6857	3256.65	2343.65
1012.1695	2855.8323	3288.2	2407.6
1012.2869	2856.9781	3347.15	2464.4
1012.4042	2858.1233	3396.3	2514.2
1012.5216	2859.2679	3445.6	2563.4
1012.6389	2860.4118	3493.15	2611.55
1012.7561	2861.555	3528.45	2642.85
1012.8733	2862.6976	3561.85	2680.6
1012.9905	2863.8395	3609.2	2729.45
1013.1076	2864.9808	3630.4	2746.75
1013.2247	2866.1214	3623.8	2741.35
1013.3417	2867.2614	3653.1	2769.7
1013.4587	2868.4007	3663.5	2776.95
1013.5757	2869.5393	3683.75	2801.8
1013.6926	2870.6773	3703.6	2817.65
1013.8095	2871.8146	3721.95	2836.9
1013.9263	2872.9513	3718.35	2834.3
1014.0431	2874.0874	3706.75	2824.3
1014.1599	2875.2227	3694.45	2812.15
1014.2766	2876.3574	3706.8	2825.2
1014.3933	2877.4915	3671.7	2791.3
1014.51	2878.6249	3624.05	2741.7
1014.6266	2879.7577	3627.4	2743.7
1014.7431	2880.8898	3611.05	2717.25
1014.8596	2882.0212	3593.1	2713.1
1014.9761	2883.152	3571.3	2687.55
1015.0925	2884.2821	3556.85	2677.25
1015.2089	2885.4116	3562.85	2680.25
1015.3253	2886.5405	3557.15	2675.15
1015.4416	2887.6686	3562.45	2677
1015.5579	2888.7962	3559.25	2679.25
1015.6741	2889.923	3558.25	2677.85
1015.7903	2891.0493	3591.65	2711.75
1015.9065	2892.1748	3590.7	2710.6
1016.0226	2893.2997	3613.95	2731.65
1016.1387	2894.424	3620.65	2740.75
1016.2547	2895.5476	3634.5	2751.2
1016.3707	2896.6706	3681.65	2801.8
1016.4866	2897.7929	3693.3	2808.5
1016.6025	2898.9145	3728.6	2847.3
1016.7184	2900.0355	3760.85	2877.6
1016.8342	2901.1559	3791.65	2910.1
1016.95	2902.2756	3835.15	2953
1017.0658	2903.3946	3865.9	2984.2
1017.1815	2904.513	3879.65	2993.85
1017.2971	2905.6308	3916.8	3035.15
1017.4127	2906.7479	3940.6	3058.3
1017.5283	2907.8643	3974.65	3092
1017.6439	2908.9801	3987.95	3105.05
1017.7594	2910.0953	3992.15	3111.55
1017.8748	2911.2098	3992.6	3108.75
1017.9902	2912.3236	3987.3	3096.4
1018.1056	2913.4368	3988.65	3104.4
1018.2209	2914.5494	3966.8	3084.6
1018.3362	2915.6613	3954.4	3065.4
1018.4515	2916.7725	3910.35	3026.45
1018.5667	2917.8831	3883.8	2999.45
1018.6819	2918.9931	3856.75	2969.8
1018.797	2920.1024	3824.4	2942.1
1018.9121	2921.211	3810.15	2926.85
1019.0271	2922.319	3790.7	2906.95
1019.1421	2923.4264	3773.95	2893
1019.2571	2924.5331	3770.85	2890.3
1019.372	2925.6391	3744.2	2862.15
1019.4869	2926.7445	3739.25	2859.7
1019.6017	2927.8493	3724.6	2842.25
1019.7165	2928.9534	3728	2846.6
1019.8313	2930.0569	3709.1	2822.4
1019.946	2931.1597	3706.8	2822.55
1020.0606	2932.2619	3681.35	2800.55
1020.1753	2933.3634	3687.05	2803.8
1020.2899	2934.4643	3671.5	2783.4
1020.4044	2935.5645	3641.2	2751.85
1020.5189	2936.6641	3613.6	2730
1020.6334	2937.763	3566.3	2686.25
1020.7478	2938.8613	3529.8	2648.8
1020.8622	2939.959	3451.65	2564.4
1020.9765	2941.056	3377.05	2497.8
1021.0908	2942.1523	3287.45	2404.7
1021.2051	2943.248	3210.25	2327
1021.3193	2944.3431	3123.9	2242.45
1021.4334	2945.4375	3012.2	2129.6
1021.5476	2946.5313	2889.5	2010.15
1021.6617	2947.6244	2802.65	1922.15
1021.7757	2948.7169	2692.85	1809.55
1021.8897	2949.8087	2595.9	1714.6
1022.0037	2950.8999	2513.4	1632.05
1022.1176	2951.9904	2409.9	1529.15
1022.2315	2953.0803	2343.35	1462.25
1022.3453	2954.1696	2276.6	1395.2
1022.4591	2955.2582	2222.35	1340.65
1022.5728	2956.3462	2178.45	1297.6
1022.6865	2957.4335	2135.05	1250.75
1022.8002	2958.5202	2105.75	1221.95
1022.9138	2959.6062	2074.05	1192.5
1023.0274	2960.6916	2044.15	1161.85
1023.141	2961.7764	2029.25	1144.25
1023.2545	2962.8605	2004.35	1122.9
1023.3679	2963.9439	2004.35	1124.1
1023.4813	2965.0267	1993.7	1111.15
1023.5947	2966.1089	1996.15	1091.5
1023.708	2967.1905	1980.5	1097.9
1023.8213	2968.2714	1973.65	1093.2
1023.9346	2969.3516	1972.4	1091.65
1024.0478	2970.4312	1981.25	1093.05
1024.1609	2971.5102	1968.55	1085.65
1024.274	2972.5885	1975.25	1093.4
1024.3871	2973.6662	1985.5	1099.15
1024.5002	2974.7432	1967.95	1086.3
1024.6132	2975.8196	1963.1	1081.25
1024.7261	2976.8954	1952.45	1071.3
1024.839	2977.9705	1939.7	1056.9
1024.9519	2979.045	1928.65	1048.1
1025.0647	2980.1188	1916.6	1035.6
1025.1775	2981.192	1893.8	1013.25
1025.2902	2982.2645	1868.05	985.2
1025.4029	2983.3364	1852.85	969.9
1025.5156	2984.4077	1811.05	929.8
1025.6282	2985.4783	1796.75	908
1025.7407	2986.5483	1745.25	863.55
1025.8532	2987.6177	1716.5	833.65
1025.9657	2988.6864	1679.05	798
1026.0782	2989.7545	1652.3	768.65
1026.1906	2990.8219	1618	739.65
1026.3029	2991.8887	1585.6	699.25
1026.4152	2992.9548	1552.35	669.5
1026.5275	2994.0204	1526.2	646.95
1026.6397	2995.0852	1495.45	616.55
1026.7519	2996.1495	1472.6	588.6
1026.864	2997.2131	1446.9	563.8
1026.9761	2998.276	1427.8	546.85
1027.0882	2999.3383	1410.05	528.85
1027.2002	3000.4	1392	510.25
1027.3122	3001.4611	1375.15	493.9
1027.4241	3002.5215	1363.15	481.85
1027.536	3003.5812	1344.3	460.75
1027.6478	3004.6404	1338.25	457.2
1027.7596	3005.6989	1335.25	451.15
1027.8714	3006.7567	1318.8	435.8
1027.9831	3007.8139	1329.95	427.3
1028.0947	3008.8705	1303.05	420.75
1028.2064	3009.9264	1304.45	421.3
1028.3179	3010.9818	1302.5	419.55
1028.4295	3012.0364	1296.65	415.6
1028.541	3013.0905	1290.8	410.35
1028.6524	3014.1439	1289.85	407.35
1028.7638	3015.1966	1291.65	408.95
1028.8752	3016.2487	1282.8	400.6
1028.9865	3017.3002	1291.8	404.1
1029.0978	3018.3511	1293	413.95
1029.209	3019.4013	1291.65	410.25
1029.3202	3020.4509	1293.05	413.4
1029.4314	3021.4998	1288.55	408.5
1029.5425	3022.5481	1288.15	407.8
1029.6535	3023.5958	1295.75	414.45
1029.7645	3024.6428	1293.95	410.15
1029.8755	3025.6892	1302.5	421.85
1029.9864	3026.735	1301.75	419.45
1030.0973	3027.7802	1301.05	418.85
1030.2082	3028.8247	1304	420.2
1030.319	3029.8685	1313	429.75
1030.4297	3030.9118	1315.85	434.2
1030.5404	3031.9544	1314.55	433.1
1030.6511	3032.9963	1319.9	438.35
1030.7617	3034.0376	1322.55	440.1
1030.8723	3035.0783	1335.95	450.9
1030.9829	3036.1184	1337.1	455.8
1031.0934	3037.1578	1337.8	458.7
1031.2038	3038.1966	1346.65	464.3
1031.3142	3039.2348	1342.6	462.9
1031.4246	3040.2723	1351.75	459.45
1031.5349	3041.3092	1341.7	461.2
1031.6452	3042.3455	1347.35	465.7
1031.7554	3043.3811	1341.25	456.7
1031.8656	3044.4161	1332.25	451.25
1031.9758	3045.4505	1326.35	445.15
1032.0859	3046.4842	1322.85	442
1032.1959	3047.5173	1314.45	432.15
1032.3059	3048.5498	1307.5	426.7
1032.4159	3049.5816	1296.75	413.7
1032.5258	3050.6128	1296.85	413
1032.6357	3051.6434	1295.05	413.25
1032.7455	3052.6734	1286.15	403.35
1032.8553	3053.7027	1282	399.2
1032.9651	3054.7314	1273.4	390.9
1033.0748	3055.7594	1265.25	384.85
1033.1845	3056.7868	1262.8	381.75
1033.2941	3057.8136	1253.65	372.5
1033.4037	3058.8398	1249.7	368.05
1033.5132	3059.8653	1245.05	363.5
1033.6227	3060.8902	1241.85	360.1
1033.7321	3061.9145	1238.45	356.4
1033.8415	3062.9381	1226.55	345.2
1033.9509	3063.9612	1235.85	335.45
1034.0602	3064.9835	1222.3	339.35
1034.1694	3066.0053	1213.95	330.8
1034.2787	3067.0264	1202.75	322.75
1034.3878	3068.0469	1196.55	314.45
1034.497	3069.0668	1191	305.95
1034.6061	3070.086	1183.7	306
1034.7151	3071.1046	1170.75	286.1
1034.8241	3072.1226	1160.5	277.85
1034.9331	3073.1399	1154	275
1035.042	3074.1567	1145.3	264.25
1035.1508	3075.1727	1136.45	253.15
1035.2597	3076.1882	1123.65	244.7
1035.3684	3077.203	1120.15	237.85
1035.4772	3078.2173	1114.25	230.85
1035.5859	3079.2308	1100.75	216.65
1035.6945	3080.2438	1094.95	211.35
1035.8031	3081.2561	1087.1	206.95
1035.9117	3082.2678	1079.75	197.3
1036.0202	3083.2789	1073.8	192.3
1036.1286	3084.2893	1066.1	184.9
1036.2371	3085.2991	1056.4	174.75
1036.3454	3086.3083	1062.9	178
1036.4538	3087.3169	1056.2	171.5
1036.562	3088.3248	1053.45	171.7
1036.6703	3089.3321	1044.6	160.85
1036.7785	3090.3388	1033.75	152.8
1036.8866	3091.3449	1036.15	154.75
1036.9948	3092.3503	1036.6	151.5
1037.1028	3093.3551	1024.7	146.5
1037.2108	3094.3593	1024.1	143.75
1037.3188	3095.3629	1023.05	143.65
1037.4267	3096.3658	1019.9	138.4
1037.5346	3097.3681	1016.15	134.7
1037.6425	3098.3698	1016.95	133.35
1037.7503	3099.3708	1015.1	127.35
1037.858	3100.3713	1009.45	129.05
1037.9657	3101.3711	1007.55	124.1
1038.0734	3102.3702	1147.2	127.95
1038.181	3103.3688	1007.65	126.05
1038.2886	3104.3667	999.65	120.15
1038.3961	3105.364	998.9	119.75
1038.5036	3106.3607	998.65	116.4
1038.611	3107.3568	996.7	113.65
1038.7184	3108.3522	996.45	115.3
1038.8257	3109.347	998.5	115
1038.933	3110.3412	996.2	109.55
1039.0403	3111.3348	992.6	112.95
1039.1475	3112.3277	993.65	112.9
1039.2547	3113.32	987.95	106.65
1039.3618	3114.3117	987.75	105.35
1039.4689	3115.3028	986.3	104.1
1039.5759	3116.2932	989.2	107.6
1039.6829	3117.2831	989.05	102
1039.7898	3118.2723	986.15	105.3
1039.8967	3119.2608	984.9	104.15
1040.0035	3120.2488	982.2	99.45
1040.1103	3121.2361	980.8	98.5
1040.2171	3122.2229	984.8	102.85
1040.3238	3123.209	979.85	95.35
1040.4305	3124.1944	979.35	100.5
1040.5371	3125.1793	979.85	97.4
1040.6437	3126.1635	980.15	100.4
1040.7502	3127.1471	977.35	97.85
1040.8567	3128.1301	971.25	90.2
1040.9631	3129.1125	975.7	94.55
1041.0695	3130.0942	973	93.8
1041.1759	3131.0753	982.05	95.2
1041.2822	3132.0558	975.65	92.05
1041.3884	3133.0357	972.25	90.3
1041.4946	3134.015	973.35	91
1041.6008	3134.9936	970.85	87.15
1041.7069	3135.9716	989.9	85.05
1041.813	3136.949	967.8	86.65
1041.919	3137.9258	980.8	81.85
1042.025	3138.902	969.5	84.05
1042.1309	3139.8775	963.75	83.1
1042.2368	3140.8524	965.75	85.45
1042.3427	3141.8267	965.45	80.65
1042.4485	3142.8004	962.2	80.1
1042.5542	3143.7735	966.6	80.7
1042.6599	3144.7459	962.4	79.35
1042.7656	3145.7178	960.05	78.4
1042.8712	3146.689	957.8	78.25
1042.9768	3147.6596	960.05	73.6
1043.0823	3148.6295	955.4	73.5
1043.1878	3149.5989	957.9	75.65
1043.2932	3150.5676	957.1	79.5
1043.3986	3151.5357	956.65	78.25
1043.5039	3152.5032	952.45	72.45
1043.6092	3153.4701	952.4	71.95
1043.7145	3154.4364	953.7	70
1043.8197	3155.402	952.5	70.95
1043.9248	3156.367	952.7	68.55
1044.03	3157.3315	998.05	74.6
1044.135	3158.2952	949.35	69.35
1044.24	3159.2584	949.15	68.55
1044.345	3160.221	947.45	65.8
1044.4499	3161.1829	947.5	67.7
1044.5548	3162.1442	944.9	63
1044.6596	3163.105	946.15	63.65
1044.7644	3164.065	945.95	66.05
1044.8692	3165.0245	945.7	60.4
1044.9739	3165.9834	943.75	64.7
1045.0785	3166.9416	947.2	66.2
1045.1831	3167.8993	946.35	66.1
1045.2877	3168.8563	944.4	62.95
1045.3922	3169.8127	942.3	62.7
1045.4966	3170.7684	943.9	61.9
1045.6011	3171.7236	942.35	57.5
1045.7054	3172.6782	942.1	61.9
1045.8098	3173.6321	941.7	60.1
1045.914	3174.5854	943.65	59.2
1046.0183	3175.5381	940.4	60.95
1046.1224	3176.4902	936.9	56.45
1046.2266	3177.4417	938.3	58.35
1046.3307	3178.3926	938	56.85
1046.4347	3179.3428	934.95	53.25
1046.5387	3180.2924	936.1	55.4
1046.6427	3181.2415	936.85	56.55
1046.7466	3182.1899	940.85	58.35
1046.8504	3183.1377	939.1	56.85
1046.9542	3184.0848	940.4	56.75
1047.058	3185.0314	939	58.75
1047.1617	3185.9773	937.65	55.5
1047.2654	3186.9227	936.85	52.75
1047.369	3187.8674	930.95	48.2
1047.4726	3188.8115	939.7	52.05
1047.5761	3189.755	935.4	55.3
1047.6796	3190.6979	934	50.7
1047.783	3191.6402	931.2	51.9
1047.8864	3192.5818	936.1	56.25
1047.9898	3193.5229	951.75	50.55
1048.0931	3194.4633	934.6	53.65
1048.1963	3195.4031	930.55	49.65
1048.2995	3196.3423	932.1	51.4
1048.4027	3197.2809	932.6	48.75
1048.5058	3198.2189	928.25	48.1
1048.6089	3199.1563	949.95	51.65
1048.7119	3200.0931	932.35	53.9
1048.8148	3201.0292	930.75	49.55
1048.9178	3201.9648	932.95	52.1
1049.0206	3202.8997	933.45	50.45
1049.1235	3203.834	928.95	49.05
1049.2262	3204.7677	929.35	49.65
1049.329	3205.7008	931.45	49.15
1049.4317	3206.6333	926.75	47.6
1049.5343	3207.5652	930.3	47.45
1049.6369	3208.4964	929.65	47.75
1049.7394	3209.4271	929.65	51
1049.8419	3210.3571	926.6	46.8
1049.9444	3211.2865	928.65	47
1050.0468	3212.2154	929.6	48.4
1050.1491	3213.1436	930.55	47.65
1050.2514	3214.0712	933.85	47.4
1050.3537	3214.9982	927.8	47.95
1050.4559	3215.9246	925.85	43.75
1050.5581	3216.8503	922.95	41.65
1050.6602	3217.7755	925.25	44.6
1050.7623	3218.7001	926.9	46.5
1050.8643	3219.624	925.75	44.95
1050.9663	3220.5473	923.1	45.95
1051.0682	3221.4701	928.65	45.1
1051.1701	3222.3922	927.75	45.2
1051.2719	3223.3137	927.35	46.7
1051.3737	3224.2346	924.4	45.45
1051.4754	3225.1549	923.1	43.4
1051.5771	3226.0746	923.7	43.35
1051.6788	3226.9937	924.25	44.05
1051.7804	3227.9121	919.85	41.2
1051.8819	3228.83	921.9	41.05
1051.9834	3229.7473	924.45	43.9
1052.0849	3230.6639	923.6	41.75
1052.1863	3231.5799	921.05	40.65
1052.2876	3232.4954	923.55	41.55
1052.3889	3233.4102	920.75	41.95
1052.4902	3234.3244	922.9	42.7
1052.5914	3235.238	920.35	39.4
1052.6926	3236.151	950.4	44.75
1052.7937	3237.0634	921.6	41.45
1052.8948	3237.9752	921.85	41.5
1052.9958	3238.8864	920.45	40.85
1053.0968	3239.797	920.15	40.65
1053.1977	3240.7069	920.6	38.05
1053.2986	3241.6163	922	38.75
1053.3994	3242.5251	917.75	37.9
1053.5002	3243.4332	919.05	39.75
1053.6009	3244.3408	917.7	37.05
1053.7016	3245.2477	918.8	38.2
1053.8022	3246.154	920.3	39.45
1053.9028	3247.0598	919.3	38.75
1054.0034	3247.9649	918.45	37.6
1054.1039	3248.8694	917.1	37.8
1054.2043	3249.7733	917.4	36.85
1054.3047	3250.6766	918.25	39.7
1054.4051	3251.5793	916.8	33.2
1054.5054	3252.4814	916.9	39.45
1054.6056	3253.3829	916.6	36.7
1054.7058	3254.2838	914.7	34.45
1054.806	3255.1841	915.5	34
1054.9061	3256.0838	913.15	32.2
1055.0061	3256.9829	911.8	34.05
1055.1062	3257.8814	919.4	36
1055.2061	3258.7792	912.3	31.25
1055.306	3259.6765	915.2	33.4
1055.4059	3260.5731	913.15	32.25
1055.5057	3261.4692	913.9	32.4
1055.6055	3262.3647	910.35	28.6
1055.7052	3263.2595	911.65	31.95
1055.8049	3264.1538	912.6	31.65
1055.9045	3265.0474	912.2	30.65
1056.0041	3265.9404	908.85	29
1056.1036	3266.8329	908.8	28.05
1056.2031	3267.7247	917.85	28.8
1056.3025	3268.616	906.7	28.9
1056.4019	3269.5066	905.5	24.9
1056.5013	3270.3966	908.7	27
1056.6005	3271.286	904.5	25.55
