Software Version:	3.9.2.0
Unit SN:	10000200
Spectrometer SN:	6960
Date:	3/14/2024 1:44:58 PM
Data Line Index:	25
Spectral Points:	2048
Integration time (ms):	125
Averages:	20
Delay (ms):	30000
Sequence Number:	1
Processing:	dark subtract
Laser Power (mW):	300
Laser Current (mA):	825
Laser Diode Temp (C):	25
Laser Case Temp (C):	28.8
System Temp (C):	28.8
Spectrometer Temp (C):	26.6
CCD Temp (C):	0.005
Secondary Temp (C):	20.013
Heatsink Temp (C):	24.807
CCDPCB Temp (C):	38.074
SecondaryPCB Temp (C):	35.784

Wavelength	RamanShift	Raw Counts	Dark Subtracted
787.061	30.1047	465.7	54.25
787.2016	32.3739	464.65	54.3
787.3422	34.6426	473.15	60.05
787.4828	36.9109	478.15	66.05
787.6235	39.1787	484.65	67
787.7642	41.4461	498.1	78.55
787.9049	43.7131	507.5	82
788.0456	45.9796	519.6	91.55
788.1863	48.2456	529.9	97.7
788.3271	50.5112	540.3	103.95
788.4679	52.7764	548.7	110.3
788.6087	55.0411	560.4	121.55
788.7496	57.3054	573.95	128.9
788.8904	59.5692	581.35	132.7
789.0313	61.8326	596.5	142.3
789.1722	64.0955	611.75	153.55
789.3132	66.3579	632.85	170.3
789.4541	68.6199	654.6	190
789.5951	70.8815	687.5	218.75
789.7361	73.1426	771.3	298.9
789.8771	75.4032	987.6	511.6
790.0181	77.6634	1532.9	1050.1
790.1592	79.9231	2799.55	2311.95
790.3003	82.1824	5589.4	5089.45
790.4414	84.4412	10755	10240.75
790.5825	86.6995	18032.35	17491.6
790.7237	88.9574	25310.9	24748
790.8648	91.2148	30408.95	29835.4
791.006	93.4717	32897.5	32308.55
791.1472	95.7282	33481.9	32888.55
791.2885	97.9842	33441.7	32848.6
791.4297	100.2398	32863.35	32265.95
791.571	102.4949	32263.9	31666.15
791.7123	104.7495	31419.25	30816.05
791.8536	107.0036	30584.65	29978.65
791.9949	109.2573	29782.55	29178.6
792.1363	111.5105	29028.45	28421.3
792.2777	113.7632	28307.1	27698.1
792.4191	116.0154	27682.25	27061.3
792.5605	118.2672	27246.9	26635.35
792.7019	120.5185	26785.2	26173.45
792.8434	122.7693	26439.7	25821.5
792.9849	125.0197	26145.75	25526.6
793.1264	127.2696	25838.25	25215.85
793.2679	129.519	25673.6	25048.85
793.4094	131.7679	25435.75	24809.4
793.551	134.0163	25247.45	24616.3
793.6926	136.2642	25013.15	24379.8
793.8342	138.5117	24736.65	24091.05
793.9758	140.7587	24457.35	23818.1
794.1175	143.0052	24212.55	23571.1
794.2591	145.2512	23937.35	23299.1
794.4008	147.4967	23669.4	23027.9
794.5425	149.7417	23501.1	22857.45
794.6842	151.9863	23335.7	22687.2
794.826	154.2304	23290.65	22639.6
794.9677	156.4739	23100.8	22443.45
795.1095	158.717	23019.05	22365.55
795.2513	160.9596	22836.1	22177.95
795.3931	163.2017	22554.85	21892.55
795.535	165.4433	22239.65	21574.55
795.6768	167.6844	21875.6	21208.75
795.8187	169.925	21549.95	20882.1
795.9606	172.1651	21183.35	20511.05
796.1025	174.4047	20857.85	20182.75
796.2445	176.6439	20587.55	19909.6
796.3864	178.8825	20324.55	19649.4
796.5284	181.1206	20178.1	19496.7
796.6704	183.3582	19986.9	19300
796.8124	185.5954	19856.4	19168.6
796.9544	187.832	19742.1	19053.15
797.0965	190.0681	19720.75	19025.35
797.2386	192.3037	19682.8	18986.95
797.3806	194.5388	19669.95	18974.4
797.5228	196.7734	19682.65	18982.95
797.6649	199.0075	19813.15	19106.2
797.807	201.2411	19950.95	19244.8
797.9492	203.4742	20001.05	19294.35
798.0914	205.7068	20154.1	19445
798.2336	207.9389	20238.65	19530.65
798.3758	210.1704	20388.15	19679.15
798.518	212.4015	20488	19777.7
798.6603	214.632	20636.9	19922.15
798.8025	216.862	20812.85	20106
798.9448	219.0915	20954.1	20254.4
799.0871	221.3205	21133.05	20435.4
799.2294	223.549	21323.4	20632.2
799.3718	225.777	21577	20886.5
799.5141	228.0044	21901.4	21206.35
799.6565	230.2314	22264.1	21572.05
799.7989	232.4578	22650.85	21955.55
799.9413	234.6837	22939.15	22236.15
800.0837	236.909	23127.5	22425.5
800.2262	239.1339	23110.75	22382.55
800.3687	241.3582	22916.45	22204.1
800.5111	243.582	22616.75	21878.1
800.6536	245.8053	22346.4	21615.3
800.7961	248.0281	22049.55	21325.35
800.9387	250.2503	21875.9	21146.45
801.0812	252.472	21778.15	21039.6
801.2238	254.6932	21750	21013.6
801.3664	256.9139	21696.9	20959.05
801.509	259.134	21744.9	21005.55
801.6516	261.3536	21750.3	21015
801.7942	263.5727	21924.3	21182.2
801.9369	265.7912	21944.35	21203.45
802.0795	268.0092	22009.85	21265.5
802.2222	270.2267	22051.5	21311.05
802.3649	272.4436	22028.75	21282.1
802.5076	274.6601	22025.85	21270
802.6504	276.8759	21851.4	21105
802.7931	279.0913	21753.55	21005.85
802.9359	281.3061	21670	20923.1
803.0787	283.5204	21674.95	20921.35
803.2215	285.7341	21715.85	20962.1
803.3643	287.9473	21842.05	21075.15
803.5071	290.16	22032.25	21270.1
803.6499	292.3721	22301.25	21544.2
803.7928	294.5837	22687.75	21929.6
803.9357	296.7947	22998.25	22236.15
804.0786	299.0052	23187.75	22430.8
804.2215	301.2152	23046.5	22287.25
804.3644	303.4246	22739.9	21982.25
804.5074	305.6334	22174.4	21417.3
804.6503	307.8418	21601.55	20840.95
804.7933	310.0495	21166.55	20407.1
804.9363	312.2568	20771.35	20011.25
805.0793	314.4635	20462.65	19700.15
805.2223	316.6696	20315	19550.25
805.3653	318.8752	20192.6	19420.65
805.5084	321.0802	20227.3	19462.45
805.6514	323.2847	20311.25	19544.9
805.7945	325.4887	20367.25	19599.75
805.9376	327.692	20291.15	19524.6
806.0807	329.8949	20226.25	19454.95
806.2238	332.0972	19884.15	19114.35
806.367	334.2989	19591.05	18818.25
806.5101	336.5001	19315.5	18543.8
806.6533	338.7007	19109.2	18337.65
806.7965	340.9008	19007.2	18229.65
806.9397	343.1003	18816.5	18037.75
807.0829	345.2992	18734.35	17957.8
807.2261	347.4976	18709.3	17926.55
807.3693	349.6955	18655.65	17871.6
807.5126	351.8927	18681.6	17900.7
807.6559	354.0895	18641.4	17847.9
807.7991	356.2856	18663.45	17875.35
807.9424	358.4812	18647.55	17862.45
808.0857	360.6763	18658.6	17873.95
808.2291	362.8707	18604.05	17819.25
808.3724	365.0646	18655.45	17865.2
808.5158	367.258	18690.15	17900.3
808.6591	369.4508	18680.5	17885.85
808.8025	371.643	18757.2	17963.1
808.9459	373.8346	18751.7	17956
809.0893	376.0257	18732.25	17931.75
809.2327	378.2162	18679.75	17879.55
809.3762	380.4062	18584.05	17781.95
809.5196	382.5956	18386.8	17588.1
809.6631	384.7844	18270.1	17471.1
809.8066	386.9726	18142.5	17342.65
809.9501	389.1603	18061.75	17261.95
810.0936	391.3474	17992.35	17156.5
810.2371	393.5339	17940.55	17136.6
810.3806	395.7199	17851.05	17053.45
810.5241	397.9052	17877.55	17084.25
810.6677	400.09	17881.25	17085.7
810.8113	402.2743	17977.6	17182.8
810.9548	404.4579	18083.15	17290.7
811.0984	406.641	18252.45	17456.7
811.2421	408.8235	18415.55	17618.1
811.3857	411.0054	18688.2	17892.1
811.5293	413.1868	19078.2	18279.6
811.673	415.3675	19339.65	18539
811.8166	417.5477	19508.25	18708.6
811.9603	419.7273	19537.55	18732.6
812.104	421.9064	19393.5	18581.3
812.2477	424.0848	19246.55	18439.2
812.3914	426.2627	19025.7	18216.3
812.5351	428.4399	18735.8	17923.95
812.6788	430.6166	18349.65	17534.65
812.8226	432.7928	17981.2	17164.85
812.9663	434.9683	17621	16807.65
813.1101	437.1432	17352.75	16537.6
813.2539	439.3176	17158.95	16343.45
813.3977	441.4914	17040.05	16224.15
813.5415	443.6645	17000.75	16181.55
813.6853	445.8371	16955.35	16135.3
813.8291	448.0091	16826.5	16006.35
813.973	450.1806	16802.5	15983.35
814.1168	452.3514	16707.2	15885.15
814.2607	454.5216	16739.85	15907.25
814.4046	456.6913	16627.1	15804
814.5485	458.8603	16652.25	15829.8
814.6924	461.0288	16740	15917.35
814.8363	463.1967	16722	15900.2
814.9802	465.3639	16827.25	16001.6
815.1241	467.5306	16837.85	16011.1
815.2681	469.6967	16977.2	16152.8
815.412	471.8622	17057.15	16233.65
815.556	474.0271	17176.9	16354.55
815.7	476.1914	17212	16387.1
815.844	478.3551	17214.8	16393
815.988	480.5182	17195.3	16367.9
816.132	482.6807	17199.35	16373.1
816.276	484.8426	17351.25	16527.2
816.4201	487.0039	17608.55	16780.9
816.5641	489.1647	18040.4	17211.4
816.7082	491.3248	18424.5	17596.65
816.8522	493.4843	18535.15	17705
816.9963	495.6432	18574.3	17746.05
817.1404	497.8015	18475.85	17643.25
817.2845	499.9592	18379.9	17553.6
817.4286	502.1163	18235.35	17406.8
817.5727	504.2728	17997.65	17163.8
817.7168	506.4287	17691.7	16859.7
817.861	508.5839	17230.3	16396.5
818.0051	510.7386	16903.1	16070.8
818.1493	512.8927	16727.9	15888.65
818.2935	515.0461	16616.35	15783.35
818.4377	517.199	16612.7	15780.6
818.5818	519.3512	16632.85	15799.4
818.726	521.5029	16742.3	15901.7
818.8703	523.6539	16820	15982.9
819.0145	525.8043	16883.9	16048.2
819.1587	527.9541	16861.3	16021.4
819.303	530.1033	16765.05	15927.25
819.4472	532.2519	16770.45	15932
819.5915	534.3999	16851.3	16012.75
819.7357	536.5472	17063.5	16225.15
819.88	538.694	17451.2	16613
820.0243	540.8401	17953.45	17113.85
820.1686	542.9856	18398.85	17559.85
820.3129	545.1305	18526.4	17685.25
820.4572	547.2748	18387.3	17547.75
820.6016	549.4185	18008.35	17167.05
820.7459	551.5615	17677.7	16836.1
820.8902	553.704	17522	16680.5
821.0346	555.8458	17498.05	16658
821.1789	557.987	17532.65	16693.1
821.3233	560.1276	17534.75	16693.85
821.4677	562.2675	17665.05	16824.85
821.6121	564.4069	17796	16955.85
821.7565	566.5456	17872	17030
821.9009	568.6837	17869.15	17025
822.0453	570.8212	17511.95	16667.5
822.1897	572.958	17090.45	16247.3
822.3342	575.0942	16678.3	15835.75
822.4786	577.2299	16359	15515.6
822.6231	579.3648	16293.25	15448.85
822.7675	581.4992	16332.25	15489.15
822.912	583.6329	16515.4	15670.85
823.0565	585.766	16719.5	15873.75
823.201	587.8985	16822.4	15977.95
823.3454	590.0304	16828.9	15959.6
823.4899	592.1616	16717.1	15871.05
823.6345	594.2922	16604.6	15758.5
823.779	596.4222	16456.95	15610
823.9235	598.5515	16228.9	15383.1
824.068	600.6802	16030.3	15183.8
824.2126	602.8083	15840.95	14994.15
824.3571	604.9358	15763.7	14914.55
824.5017	607.0626	15705.5	14859.25
824.6462	609.1888	15721.95	14870.9
824.7908	611.3144	15680.9	14832.35
824.9354	613.4393	15604.35	14758.5
825.08	615.5636	15543.75	14696.5
825.2246	617.6873	15470.55	14620.8
825.3692	619.8103	15418.65	14569.15
825.5138	621.9327	15277.6	14426.1
825.6584	624.0544	15170.7	14320.45
825.803	626.1756	15077.55	14226.3
825.9477	628.2961	14982.65	14131.2
826.0923	630.4159	14903.6	14052.25
826.237	632.5351	14858.45	14007.9
826.3816	634.6537	14804.2	13952.5
826.5263	636.7716	14767.6	13914.25
826.6709	638.8889	14777.45	13923.95
826.8156	641.0056	14804.2	13951.1
826.9603	643.1216	14765.5	13910.5
827.105	645.237	14763.25	13910.15
827.2497	647.3518	14724.6	13871.85
827.3944	649.4659	14688.6	13834.9
827.5391	651.5793	14662	13806.6
827.6838	653.6922	14614	13761.25
827.8285	655.8043	14586.6	13730.9
827.9733	657.9159	14565.4	13708.1
828.118	660.0268	14492.15	13633.6
828.2627	662.137	14424.55	13568.4
828.4075	664.2466	14391.9	13536.1
828.5522	666.3556	14365.55	13510.05
828.697	668.4639	14348.7	13490.9
828.8418	670.5716	14341.7	13483.8
828.9865	672.6786	14371.6	13514.75
829.1313	674.785	14396.9	13539.25
829.2761	676.8907	14445.1	13586.35
829.4209	678.9958	14483.55	13626.3
829.5657	681.1002	14462.75	13600.35
829.7105	683.204	14433.45	13570.85
829.8553	685.3072	14357.7	13498.35
830.0001	687.4097	14254.45	13395.95
830.1449	689.5115	14242.4	13382.2
830.2898	691.6127	14174.85	13316.25
830.4346	693.7132	14075.85	13216.2
830.5794	695.8131	14081.45	13210.9
830.7243	697.9123	14048.55	13187.85
830.8691	700.0109	13989.7	13128.25
831.014	702.1089	13965.45	13103.75
831.1588	704.2061	13969.85	13109.4
831.3037	706.3028	14003.3	13142.75
831.4486	708.3987	14032.15	13171.85
831.5935	710.4941	14084	13223.7
831.7383	712.5887	14219.75	13359.65
831.8832	714.6827	14459.85	13593.55
832.0281	716.7761	14745.05	13882.3
832.173	718.8688	15065.65	14201.4
832.3179	720.9608	15250.5	14384
832.4628	723.0522	15312.2	14446.75
832.6077	725.1429	15167.1	14304.15
832.7527	727.233	14954	14090.55
832.8976	729.3224	14764.15	13899.45
833.0425	731.4112	14498.2	13630.2
833.1874	733.4993	14290.45	13421.25
833.3324	735.5867	14087.95	13221.35
833.4773	737.6735	13928.4	13061.25
833.6222	739.7596	13795.65	12925.8
833.7672	741.845	13724.65	12859.15
833.9122	743.9298	13656.15	12788.5
834.0571	746.014	13655.95	12790.55
834.2021	748.0974	13651.25	12781.95
834.347	750.1802	13636.4	12769.65
834.492	752.2624	13599.75	12734.6
834.637	754.3439	13620.4	12751.8
834.782	756.4247	13727.6	12851.65
834.9269	758.5048	13813.05	12947.6
835.0719	760.5843	14054.6	13186.65
835.2169	762.6631	14411.6	13543.7
835.3619	764.7413	14909	14040.5
835.5069	766.8188	15565.4	14697.65
835.6519	768.8956	16061.65	15191.85
835.7969	770.9718	16338.55	15472.1
835.9419	773.0473	16197.85	15329.55
836.0869	775.1221	15911.35	15042.05
836.232	777.1962	15520.55	14650.8
836.377	779.2697	15325.45	14454.95
836.522	781.3426	15323.4	14445.4
836.667	783.4147	15522.9	14656.4
836.8121	785.4862	15790.3	14922.3
836.9571	787.557	15731.7	14861.2
837.1021	789.6271	15317.35	14450.05
837.2472	791.6966	14700.95	13832
837.3922	793.7654	14117.1	13249.55
837.5373	795.8335	13731.7	12861.6
837.6823	797.901	13500.5	12631.7
837.8274	799.9678	13386.55	12515.4
837.9724	802.0339	13319.6	12451.75
838.1175	804.0993	13355.6	12475.35
838.2626	806.1641	13293.9	12425.65
838.4076	808.2282	13225.3	12355.95
838.5527	810.2916	13112.6	12240.45
838.6978	812.3544	13001.55	12129.65
838.8428	814.4164	12916.8	12046.7
838.9879	816.4778	12906.05	12035.5
839.133	818.5385	12936.95	12067.3
839.2781	820.5986	13028.2	12159.55
839.4232	822.658	13116.1	12244.1
839.5682	824.7166	13314.95	12447.35
839.7133	826.7747	13585.05	12714.1
839.8584	828.832	13864.5	12995.9
840.0035	830.8886	14074.9	13205.65
840.1486	832.9446	14222.3	13348.5
840.2937	834.9999	14196.75	13327.5
840.4388	837.0545	14078.25	13203.4
840.5839	839.1085	13974.35	13104.15
840.729	841.1618	13839.3	12962
840.8741	843.2143	13751.25	12879.35
841.0192	845.2662	13578.5	12703.6
841.1643	847.3175	13472.85	12602.75
841.3095	849.368	13364.95	12492.1
841.4546	851.4179	13225	12353.45
841.5997	853.467	13090	12216.65
841.7448	855.5155	12982	12105.65
841.8899	857.5633	12873.15	12003.2
842.0351	859.6105	12720.1	11849.8
842.1802	861.6569	12634.2	11763.45
842.3253	863.7027	12569.2	11696.35
842.4704	865.7478	12523.6	11649.85
842.6156	867.7922	12522.3	11650.75
842.7607	869.8359	12531	11657.4
842.9058	871.8789	12605.95	11732.95
843.0509	873.9212	12758.15	11849.2
843.1961	875.9629	12883.2	12009.2
843.3412	878.0039	13045.5	12172.45
843.4863	880.0441	13114.7	12241.25
843.6315	882.0837	13144.1	12271.9
843.7766	884.1226	13070.5	12194.35
843.9218	886.1609	12987	12116.6
844.0669	888.1984	12914.2	12037.8
844.212	890.2352	12917.15	12044.8
844.3572	892.2714	12865	11986.55
844.5023	894.3069	12824.6	11952
844.6475	896.3416	12708.7	11832.95
844.7926	898.3757	12612.45	11737.75
844.9377	900.4091	12579.25	11701.05
845.0829	902.4418	12574.45	11696.1
845.228	904.4739	12580.8	11702.95
845.3732	906.5052	12638.45	11763
845.5183	908.5358	12507.35	11631.45
845.6635	910.5658	12345.3	11468.75
845.8086	912.595	12131.6	11257.75
845.9538	914.6236	11966.65	11091.6
846.0989	916.6515	11894	11017.05
846.2441	918.6786	11818.7	10941.05
846.3892	920.7051	11837.2	10959.9
846.5344	922.7309	11917.5	11039.5
846.6795	924.756	11997.95	11123.55
846.8246	926.7804	12047.75	11171.6
846.9698	928.8041	12012.3	11132.8
847.1149	930.8272	12044.35	11169.5
847.2601	932.8495	12008.7	11131.35
847.4052	934.8711	11925.9	11048.4
847.5504	936.892	11798.4	10922.7
847.6955	938.9123	11646.35	10767.6
847.8407	940.9318	11563.25	10687.05
847.9858	942.9506	11469.9	10594.4
848.131	944.9688	11347.1	10470.05
848.2761	946.9862	11326.1	10448.6
848.4213	949.003	11190.6	10313.85
848.5664	951.019	11150.7	10273.7
848.7115	953.0344	11139.3	10263.6
848.8567	955.0491	11141.75	10264.1
849.0018	957.063	11209.45	10332.65
849.147	959.0763	11321	10445.1
849.2921	961.0888	11340.2	10460.7
849.4373	963.1007	11402.45	10525.45
849.5824	965.1119	11433.75	10557.5
849.7275	967.1223	11447.3	10569.15
849.8727	969.1321	11445.15	10566.45
850.0178	971.1412	11451.4	10572.8
850.1629	973.1495	11427.1	10549.15
850.3081	975.1572	11459.1	10548.6
850.4532	977.1641	11462.75	10585.25
850.5983	979.1704	11443.1	10565.05
850.7435	981.1759	11416.15	10535.25
850.8886	983.1808	11467.75	10589.45
851.0337	985.1849	11520.75	10641.45
851.1788	987.1884	11633.2	10752.8
851.324	989.1911	11783.75	10901.1
851.4691	991.1932	11914.75	11034.1
851.6142	993.1945	11939.55	11058.15
851.7593	995.1951	11905.55	11026.65
851.9045	997.1951	11847.9	10963.8
852.0496	999.1943	11770.25	10893
852.1947	1001.1928	11740.8	10862.2
852.3398	1003.1906	11736.75	10857.8
852.4849	1005.1877	11792.3	10912.75
852.63	1007.1841	11795.75	10915.5
852.7751	1009.1798	11746.7	10869.6
852.9202	1011.1748	11571.75	10692.6
853.0653	1013.1691	11371.9	10490.7
853.2104	1015.1627	11167.4	10287.55
853.3555	1017.1556	10928.4	10049.4
853.5006	1019.1477	10821.95	9943.55
853.6457	1021.1392	10700.25	9820.25
853.7908	1023.1299	10681.65	9805.3
853.9359	1025.12	10692.05	9807.1
854.081	1027.1093	10722.65	9841.7
854.2261	1029.0979	10811.4	9932.3
854.3712	1031.0859	10889.35	10009.85
854.5163	1033.0731	10896	10014.65
854.6613	1035.0596	10835.1	9956.95
854.8064	1037.0454	10706	9828.4
854.9515	1039.0304	10570.25	9689.7
855.0965	1041.0148	10424.45	9545.45
855.2416	1042.9985	10321.65	9439.3
855.3867	1044.9814	10264.6	9387.2
855.5317	1046.9636	10210.3	9328.05
855.6768	1048.9452	10174.5	9298.5
855.8219	1050.926	10179.8	9299.95
855.9669	1052.9061	10184.25	9308.3
856.112	1054.8855	10148.9	9268.9
856.257	1056.8642	10204.5	9326.65
856.4021	1058.8421	10228.5	9346.95
856.5471	1060.8194	10284.55	9402.7
856.6921	1062.7959	10327.5	9449.15
856.8372	1064.7717	10359.9	9481.4
856.9822	1066.7469	10348.9	9469.5
857.1272	1068.7213	10366.2	9483.65
857.2723	1070.695	10367.9	9484.05
857.4173	1072.6679	10316.4	9436.85
857.5623	1074.6402	10295.65	9415.5
857.7073	1076.6117	10250.65	9366.15
857.8523	1078.5826	10208.3	9328.45
857.9973	1080.5527	10177.55	9295.05
858.1423	1082.5221	10249.2	9367.95
858.2873	1084.4908	10341.2	9460.35
858.4323	1086.4587	10504.95	9623.35
858.5773	1088.426	10614.15	9732.45
858.7223	1090.3925	10615	9730.1
858.8673	1092.3584	10564.7	9682.75
859.0123	1094.3235	10460.15	9581.55
859.1573	1096.2879	10418	9537.35
859.3022	1098.2515	10442.85	9561
859.4472	1100.2145	10517.9	9637.15
859.5922	1102.1767	10639.65	9757.95
859.7371	1104.1382	10817.55	9938.6
859.8821	1106.099	11040.8	10156.95
860.027	1108.0591	11259.8	10379.35
860.172	1110.0185	11410.8	10529.35
860.3169	1111.9771	11452.7	10574.75
860.4619	1113.9351	11250.6	10366.8
860.6068	1115.8923	10984.55	10100.75
860.7517	1117.8488	10750.8	9866.5
860.8967	1119.8045	10467.65	9587.55
861.0416	1121.7596	10327.75	9443.95
861.1865	1123.7139	10233.65	9352.3
861.3314	1125.6675	10212.65	9333.05
861.4763	1127.6204	10237.35	9357.35
861.6212	1129.5726	10246.1	9363.4
861.7661	1131.524	10196.35	9315.7
861.911	1133.4748	10137.3	9255.95
862.0559	1135.4248	10045.1	9161.85
862.2008	1137.3741	9999.25	9116.1
862.3457	1139.3226	9925.8	9043.2
862.4905	1141.2705	9873.3	8993
862.6354	1143.2176	9775.75	8889.85
862.7803	1145.164	9742.3	8858.1
862.9251	1147.1097	9727.4	8846.7
863.07	1149.0546	9693.2	8810.6
863.2148	1150.9989	9587.9	8705.2
863.3597	1152.9424	9447.45	8565.45
863.5045	1154.8852	9288.55	8407.2
863.6493	1156.8272	9190.4	8308.15
863.7942	1158.7686	9177.9	8288.2
863.939	1160.7092	9135.8	8252.55
864.0838	1162.6491	9164.95	8279.95
864.2286	1164.5883	9206.9	8326.2
864.3734	1166.5267	9304.75	8423.15
864.5182	1168.4644	9478.3	8594.7
864.663	1170.4014	9653.6	8770.55
864.8078	1172.3377	9901.3	9019.55
864.9526	1174.2732	10173.25	9291.25
865.0974	1176.2081	10456.5	9573.6
865.2421	1178.1421	10768.7	9884.55
865.3869	1180.0755	11071.15	10189.05
865.5317	1182.0082	11273.15	10392.3
865.6764	1183.9401	11296.2	10414.7
865.8212	1185.8713	11182.15	10300.5
865.9659	1187.8017	10905.9	10024.9
866.1106	1189.7315	10580.4	9696.8
866.2554	1191.6605	10295.1	9387.75
866.4001	1193.5888	10048.95	9167.1
866.5448	1195.5163	9904.3	9021.75
866.6895	1197.4432	9814.65	8931.75
866.8342	1199.3693	9762.7	8880.4
866.9789	1201.2947	9736.4	8846.6
867.1236	1203.2193	9720.15	8838.55
867.2683	1205.1432	9722.6	8842.15
867.413	1207.0664	9750.9	8866.95
867.5576	1208.9889	9738.55	8853.75
867.7023	1210.9106	9751.2	8871.4
867.847	1212.8316	9797.6	8916.35
867.9916	1214.7519	9837.15	8946.05
868.1363	1216.6715	9868.65	8984.95
868.2809	1218.5903	9877.25	8996.05
868.4255	1220.5084	9876.35	8991.6
868.5701	1222.4257	9908.65	9026
868.7148	1224.3424	9909.9	9027.15
868.8594	1226.2583	9986.45	9097.1
869.004	1228.1735	10063.65	9177.45
869.1486	1230.0879	10167.1	9286.4
869.2932	1232.0016	10305.45	9423
869.4377	1233.9146	10335.25	9449.55
869.5823	1235.8269	10284.35	9404.35
869.7269	1237.7384	10142.75	9260.2
869.8715	1239.6492	9935.15	9054.85
870.016	1241.5592	9837.25	8951.25
870.1606	1243.4686	9785.1	8901.3
870.3051	1245.3772	9808.45	8924.8
870.4496	1247.285	9824.05	8940.25
870.5941	1249.1922	9843.5	8960.7
870.7387	1251.0986	9890.3	9009.25
870.8832	1253.0042	9878	8994.35
871.0277	1254.9092	9936.05	9053.9
871.1722	1256.8134	10009.1	9126.55
871.3167	1258.7169	10163	9280.25
871.4611	1260.6196	10339.9	9456.9
871.6056	1262.5216	10552.8	9669.3
871.7501	1264.4229	10720.85	9840.6
871.8945	1266.3234	10884.25	9999.85
872.039	1268.2232	10996.4	10113.7
872.1834	1270.1223	11015.8	10133.05
872.3278	1272.0207	10990.8	10108.5
872.4723	1273.9183	10953.75	10064.65
872.6167	1275.8151	10887.3	10003.4
872.7611	1277.7113	10826	9941.9
872.9055	1279.6067	10730.3	9848.3
873.0499	1281.5014	10723.05	9834.85
873.1943	1283.3953	10798.75	9913.75
873.3386	1285.2885	10901	10018.85
873.483	1287.181	11081.4	10198.4
873.6274	1289.0727	11241.25	10360.55
873.7717	1290.9637	11382.55	10500.05
873.9161	1292.854	11514.7	10634.65
874.0604	1294.7435	11574.8	10692.25
874.2047	1296.6323	11673.05	10789.25
874.349	1298.5204	11808.1	10920.2
874.4933	1300.4077	11898.5	11013.95
874.6376	1302.2943	11896.75	11012.1
874.7819	1304.1802	11859.25	10977.05
874.9262	1306.0653	11649.4	10764.75
875.0705	1307.9497	11409.55	10527.5
875.2147	1309.8333	11181.45	10297.5
875.359	1311.7162	11014.85	10131.45
875.5032	1313.5984	11001.7	10114.85
875.6475	1315.4798	10997.7	10113.65
875.7917	1317.3605	11083.4	10183.65
875.9359	1319.2405	11104.3	10219.45
876.0801	1321.1197	11031.35	10145.8
876.2243	1322.9982	10905.75	10016.45
876.3685	1324.876	10768.8	9883.85
876.5127	1326.753	10613.8	9729.15
876.6569	1328.6293	10568.95	9680.3
876.801	1330.5048	10537.6	9653.2
876.9452	1332.3796	10439.3	9555.8
877.0893	1334.2537	10404.05	9491.6
877.2335	1336.127	10366.1	9481.5
877.3776	1337.9996	10327.05	9442.9
877.5217	1339.8714	10311.4	9426.25
877.6658	1341.7426	10328.1	9400.8
877.8099	1343.6129	10295.25	9411.25
877.954	1345.4826	10260.25	9375.95
878.0981	1347.3515	10232	9344.65
878.2422	1349.2196	10201.75	9316.6
878.3862	1351.087	10214.9	9333.4
878.5303	1352.9537	10306.2	9421.25
878.6743	1354.8197	10413.2	9529.15
878.8184	1356.6849	10557.9	9672.4
878.9624	1358.5493	10697.85	9812.85
879.1064	1360.4131	10769.05	9886.15
879.2504	1362.276	10808.25	9922.9
879.3944	1364.1383	10683.8	9800.45
879.5384	1365.9998	10464.3	9573.9
879.6823	1367.8606	10113.7	9230.15
879.8263	1369.7206	9786.2	8901.75
879.9702	1371.5799	9506.9	8623.1
880.1142	1373.4384	9324.95	8441.35
880.2581	1375.2962	9111.3	8223.4
880.402	1377.1533	8821.15	7936.1
880.5459	1379.0096	8500.5	7614.9
880.6898	1380.8652	8178.8	7293.25
880.8337	1382.7201	7913.8	7030.2
880.9776	1384.5742	7655.7	6772.8
881.1215	1386.4275	7481.1	6593.7
881.2653	1388.2802	7366.9	6482.3
881.4092	1390.132	7248.45	6365.2
881.553	1391.9832	7178.55	6293.25
881.6968	1393.8336	7089.6	6204.9
881.8406	1395.6832	7063.35	6176.3
881.9844	1397.5322	7047.65	6163.65
882.1282	1399.3803	7016.2	6129.3
882.272	1401.2278	6993.5	6108.75
882.4158	1403.0745	6994.1	6107.7
882.5595	1404.9204	6971.8	6087.2
882.7033	1406.7656	6988.2	6104.75
882.847	1408.6101	7023.85	6138
882.9908	1410.4538	7051.3	6165.9
883.1345	1412.2968	7119.9	6236.8
883.2782	1414.139	7151.15	6266.5
883.4219	1415.9805	7266.35	6381.6
883.5656	1417.8213	7350.95	6460.85
883.7092	1419.6613	7484.9	6601.7
883.8529	1421.5006	7649.4	6762.05
883.9965	1423.3391	7894.75	7011.65
884.1402	1425.1769	8218.35	7331.95
884.2838	1427.0139	8683.75	7797.6
884.4274	1428.8502	9304.25	8417.6
884.571	1430.6858	9889.45	9006.45
884.7146	1432.5206	10288.05	9402.05
884.8582	1434.3547	10540.85	9655.05
885.0018	1436.188	10535.75	9649.8
885.1453	1438.0206	10445.6	9559.9
885.2889	1439.8524	10305.8	9422.05
885.4324	1441.6835	10172.75	9287.2
885.5759	1443.5139	10084	9195.9
885.7194	1445.3435	9976.3	9091.75
885.8629	1447.1724	9964	9079.65
886.0064	1449.0005	9902.35	9016.1
886.1499	1450.8279	9819.85	8933.2
886.2933	1452.6545	9789.85	8904.55
886.4368	1454.4804	9802.95	8917.85
886.5802	1456.3056	9810.65	8917.45
886.7237	1458.13	9705	8821.35
886.8671	1459.9536	9516.2	8630.55
887.0105	1461.7766	9182.6	8298.05
887.1539	1463.5987	8770.7	7886.3
887.2972	1465.4202	8377.55	7493.15
887.4406	1467.2409	8028.9	7142.25
887.584	1469.0608	7745.05	6860.15
887.7273	1470.88	7480.4	6593.85
887.8706	1472.6984	7242.4	6357.55
888.0139	1474.5161	7046.75	6159.7
888.1572	1476.3331	6875.7	5993.6
888.3005	1478.1493	6757.5	5871.35
888.4438	1479.9648	6665.15	5782.45
888.5871	1481.7795	6568.45	5682.95
888.7303	1483.5935	6505.25	5621.5
888.8736	1485.4067	6433.25	5548.25
889.0168	1487.2192	6403.7	5517.1
889.16	1489.031	6340.75	5454.05
889.3032	1490.842	6299.75	5413.25
889.4464	1492.6522	6260.5	5376.7
889.5896	1494.4618	6221.5	5335.55
889.7327	1496.2705	6186.9	5304.1
889.8759	1498.0785	6144.4	5260.7
890.019	1499.8858	6140.8	5256.45
890.1622	1501.6924	6076.3	5191.5
890.3053	1503.4981	6045.5	5160.85
890.4484	1505.3032	6047.65	5162.1
890.5914	1507.1075	6007.9	5122.65
890.7345	1508.911	5991	5106.35
890.8776	1510.7138	5931.15	5046.25
891.0206	1512.5159	5919.15	5034.7
891.1637	1514.3172	5861.75	4977.3
891.3067	1516.1178	5821.7	4940.6
891.4497	1517.9176	5797.8	4910.55
891.5927	1519.7166	5768.65	4884.9
891.7357	1521.515	5741.65	4849.65
891.8786	1523.3126	5728.8	4842.75
892.0216	1525.1094	5699.55	4814
892.1645	1526.9055	5675.4	4792.1
892.3074	1528.7008	5669.1	4784.4
892.4503	1530.4954	5625.45	4740.05
892.5932	1532.2893	5615.4	4730.2
892.7361	1534.0824	5603	4713.15
892.879	1535.8747	5596.2	4712.9
893.0218	1537.6663	5583.35	4697.5
893.1647	1539.4572	5557.25	4672.25
893.3075	1541.2473	5552.45	4666.85
893.4503	1543.0367	5558.4	4676.85
893.5931	1544.8253	5529	4640.5
893.7359	1546.6132	5575.65	4688.95
893.8787	1548.4003	5584.55	4691.25
894.0214	1550.1867	5603.95	4709.9
894.1642	1551.9723	5654.5	4763.8
894.3069	1553.7572	5689	4802.7
894.4496	1555.5414	5771.6	4887.25
894.5923	1557.3247	5834.9	4952.4
894.735	1559.1074	5943	5061.15
894.8777	1560.8893	6058.95	5174.65
895.0204	1562.6705	6167.65	5284.05
895.163	1564.4509	6262.95	5378.8
895.3056	1566.2305	6326.65	5443.55
895.4482	1568.0094	6387.95	5503.05
895.5908	1569.7876	6409.2	5524.85
895.7334	1571.565	6417.4	5533.25
895.876	1573.3417	6422.3	5537.55
896.0186	1575.1176	6410.5	5528.7
896.1611	1576.8928	6383.1	5496.35
896.3036	1578.6672	6325.9	5441.45
896.4461	1580.4409	6250	5368.95
896.5886	1582.2138	6177.35	5289.85
896.7311	1583.986	6111.1	5227
896.8736	1585.7575	6085.45	5201.7
897.0161	1587.5282	6064.6	5180.95
897.1585	1589.2981	6069.15	5185.7
897.3009	1591.0673	6076.2	5189.45
897.4433	1592.8358	6103.5	5219.9
897.5857	1594.6035	6157.35	5270.05
897.7281	1596.3704	6190.35	5306.75
897.8705	1598.1366	6237.65	5354
898.0128	1599.9021	6290.7	5407.9
898.1551	1601.6668	6360.55	5475.2
898.2975	1603.4308	6444.1	5559.4
898.4398	1605.194	6582.7	5694.95
898.5821	1606.9564	6730.1	5847.85
898.7243	1608.7182	6906.95	6016.55
898.8666	1610.4791	7110.1	6226.8
899.0088	1612.2394	7339.9	6456.95
899.1511	1613.9988	7554.2	6669.65
899.2933	1615.7576	7826.3	6946
899.4355	1617.5156	8018.4	7127.8
899.5776	1619.2728	8171.2	7286.25
899.7198	1621.0293	8227.8	7345.9
899.862	1622.785	8216	7327.25
900.0041	1624.54	8112.9	7227.4
900.1462	1626.2942	7912.95	7027.2
900.2883	1628.0477	7646.7	6760.5
900.4304	1629.8005	7395.55	6507.9
900.5725	1631.5525	7150.25	6265.6
900.7145	1633.3037	6956.05	6073.35
900.8566	1635.0542	6804.65	5920.55
900.9986	1636.804	6685.2	5803.2
901.1406	1638.553	6680.55	5716.85
901.2826	1640.3013	6597.45	5715.8
901.4245	1642.0488	6576.6	5694.3
901.5665	1643.7955	6625.9	5743.6
901.7085	1645.5416	6677.75	5792.7
901.8504	1647.2868	6780.15	5896.65
901.9923	1649.0313	6873	5989.2
902.1342	1650.7751	7031.95	6145.65
902.2761	1652.5181	7222.5	6341.3
902.4179	1654.2604	7421.4	6535.45
902.5598	1656.0019	7687.7	6805.65
902.7016	1657.7427	7978.1	7093.55
902.8434	1659.4828	8278	7395.45
902.9852	1661.222	8459.8	7575.95
903.127	1662.9606	8457.3	7574.85
903.2687	1664.6984	8195.1	7314.55
903.4105	1666.4354	7800.7	6917.5
903.5522	1668.1717	7246.3	6364.1
903.6939	1669.9072	6711.25	5830.7
903.8356	1671.642	6257.4	5371.3
903.9773	1673.3761	5878	4996.65
904.119	1675.1094	5593.55	4708.45
904.2606	1676.8419	5361.4	4479.2
904.4022	1678.5737	5188.4	4306.45
904.5439	1680.3048	5074.8	4190.15
904.6855	1682.0351	4948.05	4064.95
904.827	1683.7646	4884.4	3999.05
904.9686	1685.4934	4797.7	3916.95
905.1101	1687.2215	4744.3	3859.4
905.2517	1688.9488	4682.5	3798.75
905.3932	1690.6754	4637.05	3754.85
905.5347	1692.4012	4595.7	3712.3
905.6761	1694.1263	4567.05	3683.75
905.8176	1695.8506	4526.65	3644.2
905.9591	1697.5742	4503.5	3621.85
906.1005	1699.297	4485	3603.25
906.2419	1701.0191	4449.1	3566.95
906.3833	1702.7404	4411.35	3529.05
906.5246	1704.461	4375	3489.25
906.666	1706.1808	4358.5	3476.5
906.8073	1707.8999	4328.65	3444.55
906.9487	1709.6182	4321.75	3439.4
907.09	1711.3358	4299.9	3416.05
907.2313	1713.0527	4274.2	3392.4
907.3725	1714.7688	4248.1	3359.85
907.5138	1716.4841	4226.7	3343.4
907.655	1718.1987	4225.15	3337.1
907.7962	1719.9126	4192.35	3310.7
907.9374	1721.6257	4177.65	3291.55
908.0786	1723.338	4163.8	3279.6
908.2198	1725.0496	4165.75	3281.6
908.3609	1726.7605	4145.3	3263.3
908.502	1728.4706	4132	3248
908.6431	1730.18	4120.5	3234.5
908.7842	1731.8886	4099.1	3215.3
908.9253	1733.5964	4088.8	3200.55
909.0664	1735.3036	4070.65	3185.7
909.2074	1737.0099	4072.95	3187.95
909.3484	1738.7156	4048.35	3165.2
909.4894	1740.4204	4022.45	3137.25
909.6304	1742.1246	4003	3119.9
909.7714	1743.8279	3987.5	3104.25
909.9123	1745.5306	3987.45	3101.65
910.0532	1747.2325	3949.6	3066.15
910.1941	1748.9336	3930.1	3048.35
910.335	1750.634	3915.85	3032.1
910.4759	1752.3336	3912.75	3029.25
910.6168	1754.0325	3907.05	3025.05
910.7576	1755.7307	3902.2	3018.25
910.8984	1757.4281	3883.6	3000.2
911.0392	1759.1247	3885.8	2994.2
911.18	1760.8206	3878.9	2989.75
911.3208	1762.5158	3867.85	2980.65
911.4615	1764.2102	3849.7	2970.5
911.6022	1765.9039	3846.95	2965.15
911.7429	1767.5968	3831.65	2949.25
911.8836	1769.289	3813.7	2930.6
912.0243	1770.9804	3821.55	2936.95
912.1649	1772.6711	3807.75	2926.15
912.3056	1774.361	3795.5	2910.5
912.4462	1776.0502	3799.9	2917.1
912.5868	1777.7386	3788.2	2900.4
912.7274	1779.4263	3773.5	2889.75
912.8679	1781.1132	3773.8	2890.6
913.0084	1782.7994	3756.05	2870
913.149	1784.4849	3760.05	2878.3
913.2895	1786.1696	3754.9	2851.75
913.4299	1787.8535	3734.5	2851.5
913.5704	1789.5367	3727	2841.1
913.7108	1791.2192	3733.9	2852.3
913.8513	1792.9009	3718.75	2819.25
913.9917	1794.5818	3705.7	2820.75
914.132	1796.2621	3685.3	2805.05
914.2724	1797.9415	3671.15	2787.45
914.4128	1799.6202	3670.4	2789
914.5531	1801.2982	3675.8	2792.7
914.6934	1802.9755	3667.2	2783.25
914.8337	1804.6519	3662.3	2779.4
914.9739	1806.3277	3640.65	2759.65
915.1142	1808.0027	3630.75	2749.5
915.2544	1809.6769	3638.15	2754.1
915.3946	1811.3504	3622.6	2739
915.5348	1813.0231	3619.45	2735.95
915.675	1814.6951	3619.45	2738.2
915.8151	1816.3664	3621.6	2736
915.9553	1818.0369	3608.85	2723.75
916.0954	1819.7067	3588.9	2705.75
916.2355	1821.3757	3596	2711.7
916.3755	1823.044	3583.1	2700.75
916.5156	1824.7115	3563.2	2680.15
916.6556	1826.3783	3559.05	2677.9
916.7956	1828.0443	3549.45	2668.55
916.9356	1829.7096	3565.85	2680.9
917.0756	1831.3741	3561.8	2674.6
917.2155	1833.0379	3543.15	2661.5
917.3555	1834.701	3534.75	2648.45
917.4954	1836.3633	3534.05	2648.75
917.6353	1838.0248	3541.5	2655.2
917.7751	1839.6856	3523.7	2641.4
917.915	1841.3457	3526.7	2643.75
918.0548	1843.005	3513.55	2631.4
918.1946	1844.6636	3515.65	2632.4
918.3344	1846.3214	3503.7	2622.4
918.4742	1847.9785	3482.15	2599
918.6139	1849.6349	3494.45	2610.75
918.7537	1851.2904	3498.95	2606.45
918.8934	1852.9453	3488.8	2606.9
919.0331	1854.5994	3480.1	2594.9
919.1727	1856.2528	3481.6	2591.6
919.3124	1857.9054	3473.85	2591.8
919.452	1859.5572	3463.1	2582.55
919.5916	1861.2083	3453.8	2570.65
919.7312	1862.8587	3464.05	2581.3
919.8708	1864.5084	3447.95	2563.95
920.0103	1866.1572	3437.5	2554
920.1498	1867.8054	3430.25	2547.45
920.2893	1869.4528	3412.8	2531.9
920.4288	1871.0994	3399.2	2516.95
920.5683	1872.7453	3410.5	2527.2
920.7077	1874.3905	3411.1	2509.85
920.8471	1876.0349	3386.3	2503.45
920.9865	1877.6786	3391.35	2507.9
921.1259	1879.3215	3391.8	2511.25
921.2653	1880.9637	3368.8	2485.7
921.4046	1882.6051	3371.4	2489.9
921.5439	1884.2458	3362.5	2477.55
921.6832	1885.8858	3352.15	2468.4
921.8225	1887.525	3343.15	2458.2
921.9617	1889.1634	3311.55	2428.65
922.101	1890.8011	3323.3	2439.85
922.2402	1892.4381	3314.45	2431.8
922.3794	1894.0743	3325.6	2445.1
922.5185	1895.7098	3315.2	2432.8
922.6577	1897.3446	3314.75	2430.55
922.7968	1898.9786	3304.2	2418.45
922.9359	1900.6118	3295.2	2413.6
923.075	1902.2443	3289.2	2403.7
923.214	1903.8761	3273.5	2391.7
923.3531	1905.5071	3271.75	2388.55
923.4921	1907.1374	3265.7	2381.45
923.6311	1908.7669	3272.25	2388.9
923.77	1910.3957	3257.6	2373.4
923.909	1912.0237	3239.05	2357.1
924.0479	1913.651	3234.7	2352.55
924.1868	1915.2776	3227.9	2348
924.3257	1916.9034	3214.55	2334.2
924.4646	1918.5285	3212.25	2329.3
924.6034	1920.1528	3197.75	2316.4
924.7422	1921.7764	3196.55	2313.35
924.881	1923.3992	3188.85	2308
925.0198	1925.0213	3176	2292.05
925.1586	1926.6427	3167.65	2285.55
925.2973	1928.2633	3263.1	2257.8
925.436	1929.8832	3168.35	2284.25
925.5747	1931.5023	3144.9	2261.75
925.7134	1933.1207	3141.35	2260.15
925.852	1934.7383	3139.7	2256.65
925.9906	1936.3552	3126.75	2244
926.1292	1937.9714	3118.5	2236.9
926.2678	1939.5868	3113.05	2230.45
926.4064	1941.2015	3102.7	2221.5
926.5449	1942.8154	3092.9	2211.3
926.6834	1944.4286	3092	2209.5
926.8219	1946.041	3094.3	2185.4
926.9604	1947.6528	3057.55	2169.55
927.0988	1949.2637	3057.5	2175.4
927.2372	1950.8739	3055.05	2171.8
927.3756	1952.4834	3041.2	2160.1
927.514	1954.0921	3032.95	2151.95
927.6523	1955.7001	3033.85	2148.2
927.7907	1957.3074	3023.6	2140.75
927.929	1958.9139	3021.25	2136.65
928.0673	1960.5197	3006.85	2123.05
928.2055	1962.1247	3004.25	2120.45
928.3438	1963.729	2976.55	2094.45
928.482	1965.3325	3006.55	2097.45
928.6202	1966.9353	2980.7	2097.9
928.7584	1968.5374	2971.05	2086.8
928.8965	1970.1387	2953.6	2070.7
929.0346	1971.7393	2965.7	2083.55
929.1727	1973.3392	2954.15	2073.5
929.3108	1974.9383	2945.55	2064.2
929.4489	1976.5366	2929	2046.75
929.5869	1978.1342	2924.95	2042.7
929.7249	1979.7311	2921.4	2036.95
929.8629	1981.3273	2914.25	2031.65
930.0009	1982.9227	2904	2020.25
930.1388	1984.5173	2891.7	2008.45
930.2767	1986.1112	2890.1	2007.7
930.4146	1987.7044	2885.5	2003.25
930.5525	1989.2968	2899.45	2018.5
930.6904	1990.8885	2882.35	1994.6
930.8282	1992.4795	2874.5	1990.4
930.966	1994.0697	2863.15	1981.05
931.1038	1995.6592	2862.65	1978.9
931.2415	1997.2479	2854.35	1970.6
931.3793	1998.8359	2856.2	1973.25
931.517	2000.4232	2848.25	1966.25
931.6547	2002.0097	2831.85	1949.1
931.7923	2003.5955	2837.9	1954.85
931.93	2005.1805	2833.35	1948.4
932.0676	2006.7648	2821.4	1939.7
932.2052	2008.3484	2818.05	1934.55
932.3427	2009.9312	2821.8	1938.4
932.4803	2011.5133	2807.95	1926
932.6178	2013.0946	2807.85	1925.35
932.7553	2014.6752	2800.7	1918.9
932.8928	2016.2551	2794.15	1909.3
933.0302	2017.8342	2778.9	1896.1
933.1676	2019.4126	2784.3	1900.75
933.305	2020.9902	2781.6	1899.15
933.4424	2022.5672	2773.95	1889.75
933.5798	2024.1433	2785.5	1896.3
933.7171	2025.7188	2766.7	1886.95
933.8544	2027.2935	2762.35	1879.65
933.9917	2028.8674	2751.95	1868.25
934.129	2030.4406	2745.5	1862.2
934.2662	2032.0131	2729.5	1847.3
934.4034	2033.5849	2735.85	1847.35
934.5406	2035.1559	2735.7	1852.2
934.6778	2036.7261	2734.2	1851.55
934.8149	2038.2957	2715	1832.95
934.952	2039.8645	2698.4	1816.8
935.0891	2041.4325	2709.5	1825.55
935.2262	2042.9998	2701.7	1820
935.3632	2044.5664	2709.45	1824.65
935.5002	2046.1323	2683.15	1800.85
935.6372	2047.6974	2695.05	1812.8
935.7742	2049.2617	2688.7	1808.6
935.9111	2050.8254	2705.45	1787.55
936.048	2052.3883	2683.5	1800.75
936.1849	2053.9504	2682.15	1800.3
936.3218	2055.5118	2676.3	1791.6
936.4586	2057.0725	2655.6	1769.3
936.5955	2058.6325	2661.2	1776.6
936.7323	2060.1917	2649.9	1767.95
936.869	2061.7502	2647.85	1762.5
937.0058	2063.3079	2625.95	1742.9
937.1425	2064.8649	2636.35	1752.2
937.2792	2066.4212	2623	1739.9
937.4159	2067.9767	2630.9	1748.05
937.5525	2069.5315	2615.4	1733.6
937.6891	2071.0856	2611.3	1727.2
937.8257	2072.6389	2602.2	1717.9
937.9623	2074.1915	2595	1712.85
938.0989	2075.7433	2583.05	1698.15
938.2354	2077.2945	2584.35	1701.9
938.3719	2078.8448	2572.75	1688.2
938.5084	2080.3945	2576.7	1694.1
938.6448	2081.9434	2564.25	1680.75
938.7812	2083.4916	2565.45	1682.65
938.9176	2085.039	2563.15	1679.25
939.054	2086.5857	2572.5	1687.85
939.1903	2088.1317	2543.3	1659.9
939.3267	2089.677	2545.2	1663
939.463	2091.2215	2531.6	1650.55
939.5992	2092.7652	2540.8	1656.4
939.7355	2094.3083	2534.35	1650.4
939.8717	2095.8506	2533.15	1650
940.0079	2097.3921	2526.75	1644.4
940.1441	2098.933	2526	1643.5
940.2802	2100.4731	2528.3	1647.2
940.4163	2102.0124	2543.6	1642.7
940.5524	2103.5511	2505.1	1621.95
940.6885	2105.089	2501.8	1616.9
940.8245	2106.6261	2505	1621.45
940.9606	2108.1626	2505.2	1622.7
941.0965	2109.6983	2531.95	1618.25
941.2325	2111.2332	2502.4	1618.9
941.3684	2112.7675	2495.3	1611.15
941.5044	2114.301	2482.45	1595.05
941.6403	2115.8337	2481.95	1599.85
941.7761	2117.3657	2478.2	1596.4
941.912	2118.897	2475.25	1592.05
942.0478	2120.4276	2470.75	1582.8
942.1835	2121.9575	2459.7	1576.9
942.3193	2123.4866	2466.3	1570.6
942.455	2125.0149	2454.9	1568.25
942.5907	2126.5426	2450.45	1566.6
942.7264	2128.0695	2453.5	1566.5
942.8621	2129.5956	2442.55	1561.2
942.9977	2131.1211	2443.75	1555.5
943.1333	2132.6458	2438	1556
943.2689	2134.1698	2430.65	1547.05
943.4044	2135.693	2434.7	1550.4
943.54	2137.2155	2427.25	1541.65
943.6755	2138.7373	2422.25	1538.35
943.8109	2140.2584	2414	1532.2
943.9464	2141.7787	2415.55	1525.75
944.0818	2143.2983	2406.75	1524.1
944.2172	2144.8171	2397.45	1515.4
944.3526	2146.3353	2397.95	1509.8
944.4879	2147.8527	2393	1510.3
944.6232	2149.3693	2386.35	1502.75
944.7585	2150.8853	2368.85	1485
944.8938	2152.4005	2372.25	1488.35
945.029	2153.9149	2372.25	1489.2
945.1642	2155.4287	2378.3	1494.4
945.2994	2156.9417	2363.9	1479.55
945.4346	2158.454	2366	1479.85
945.5697	2159.9655	2360.7	1476.5
945.7048	2161.4764	2361.6	1478.35
945.8399	2162.9865	2353.65	1470.4
945.9749	2164.4958	2352.2	1467.55
946.1099	2166.0045	2346.35	1460.65
946.2449	2167.5124	2336.1	1453.25
946.3799	2169.0195	2336.95	1453.75
946.5148	2170.526	2341.2	1459.4
946.6498	2172.0317	2323	1440.45
946.7846	2173.5367	2331.9	1448.25
946.9195	2175.0409	2329.75	1445.65
947.0543	2176.5445	2323.45	1441.2
947.1891	2178.0473	2323.05	1438.4
947.3239	2179.5494	2306	1417.6
947.4587	2181.0507	2305.2	1421.3
947.5934	2182.5513	2298	1415.55
947.7281	2184.0512	2305.5	1423.2
947.8628	2185.5504	2298.25	1414.8
947.9974	2187.0488	2284.5	1401.45
948.132	2188.5465	2282.2	1397.4
948.2666	2190.0435	2275.75	1393.45
948.4012	2191.5397	2270.25	1385.25
948.5357	2193.0353	2271.35	1389.1
948.6702	2194.5301	2263.05	1377.65
948.8047	2196.0241	2256.4	1371.1
948.9392	2197.5175	2262.4	1379.8
949.0736	2199.0101	2263.65	1377.05
949.208	2200.502	2248.3	1367.95
949.3424	2201.9931	2246.6	1362.65
949.4767	2203.4835	2237.2	1350.7
949.611	2204.9733	2242.55	1352.2
949.7453	2206.4622	2229.85	1347.1
949.8796	2207.9505	2226.85	1340.1
950.0138	2209.438	2212.25	1330.25
950.148	2210.9248	2212.9	1327.8
950.2822	2212.4109	2216.8	1332.5
950.4164	2213.8962	2223.65	1337.55
950.5505	2215.3809	2208.05	1323.45
950.6846	2216.8648	2196.2	1312.05
950.8186	2218.3479	2206.65	1320.3
950.9527	2219.8304	2192.9	1307.45
951.0867	2221.3121	2194.6	1309.9
951.2207	2222.7931	2176.4	1294
951.3546	2224.2733	2178.05	1295.75
951.4886	2225.7529	2186.3	1301.75
951.6225	2227.2317	2166.75	1282.25
951.7563	2228.7098	2167.9	1286.05
951.8902	2230.1872	2163.15	1280.2
952.024	2231.6638	2153.85	1268.8
952.1578	2233.1397	2159.65	1269.65
952.2916	2234.6149	2146.75	1263.45
952.4253	2236.0894	2156.6	1272.8
952.559	2237.5632	2153.85	1260.9
952.6927	2239.0362	2135.3	1252.1
952.8263	2240.5085	2130.6	1246.55
952.9599	2241.9801	2126.5	1243.65
953.0935	2243.4509	2116.3	1233.9
953.2271	2244.921	2124.35	1241.35
953.3606	2246.3904	2106.65	1218.9
953.4941	2247.8591	2114.45	1231.3
953.6276	2249.3271	2112.75	1229.8
953.7611	2250.7943	2100.75	1216.75
953.8945	2252.2608	2097.15	1215
954.0279	2253.7266	2091.45	1207.7
954.1612	2255.1917	2094.5	1211.2
954.2946	2256.656	2084.2	1201.35
954.4279	2258.1197	2077.15	1193.6
954.5612	2259.5826	2073.45	1188.1
954.6944	2261.0447	2078.6	1192.75
954.8276	2262.5062	2074.95	1189
954.9608	2263.9669	2075	1188
955.094	2265.4269	2067.2	1184.75
955.2271	2266.8862	2061.1	1178.2
955.3602	2268.3448	2061.8	1176.55
955.4933	2269.8026	2060.95	1176.35
955.6264	2271.2598	2050.15	1165.6
955.7594	2272.7162	2053.6	1171.6
955.8924	2274.1719	2062.55	1179.7
956.0253	2275.6268	2046.9	1162.6
956.1583	2277.0811	2045.65	1161.95
956.2912	2278.5346	2036.8	1152.9
956.4241	2279.9874	2048.45	1164
956.5569	2281.4395	2031.35	1148.55
956.6897	2282.8908	2034.55	1146.55
956.8225	2284.3414	2039.4	1154.35
956.9553	2285.7914	2025.75	1143.85
957.088	2287.2406	2036.5	1149.45
957.2207	2288.689	2026.45	1143.45
957.3534	2290.1368	2016.2	1131.65
957.486	2291.5838	2020	1135.45
957.6186	2293.0302	2011.8	1127.2
957.7512	2294.4758	2021.75	1139.1
957.8838	2295.9206	2012	1125.65
958.0163	2297.3648	2003.6	1118.55
958.1488	2298.8082	1998.5	1115.15
958.2813	2300.251	1994.2	1112.45
958.4137	2301.693	1997.3	1110.45
958.5461	2303.1343	2008.4	1124.05
958.6785	2304.5748	1992.4	1109.6
958.8108	2306.0147	1997.8	1113.65
958.9432	2307.4538	1978.65	1092.3
959.0754	2308.8922	1985.15	1102.4
959.2077	2310.3299	1981.75	1098
959.3399	2311.7669	1970.1	1087
959.4721	2313.2031	1972.75	1089.85
959.6043	2314.6387	1965.45	1079.15
959.7365	2316.0735	1965.85	1081.4
959.8686	2317.5076	1959.1	1074.75
960.0006	2318.941	1968.15	1083.6
960.1327	2320.3737	1953.1	1070.3
960.2647	2321.8056	1946.4	1060.4
960.3967	2323.2369	1945.6	1060.9
960.5287	2324.6674	1939.05	1052.8
960.6606	2326.0972	1944.5	1060.85
960.7925	2327.5263	1947.05	1063.1
960.9244	2328.9547	1941.3	1058.55
961.0562	2330.3823	1934.7	1049.35
961.1881	2331.8092	1942.15	1055.4
961.3198	2333.2355	1935.95	1052.7
961.4516	2334.661	1925.05	1042
961.5833	2336.0858	1919.55	1033.95
961.715	2337.5098	1924.05	1040.6
961.8467	2338.9332	1916.9	1034.45
961.9783	2340.3558	1923.65	1037.9
962.1099	2341.7778	1917.6	1034.95
962.2415	2343.199	1911.55	1025.3
962.373	2344.6195	1904.95	1020.85
962.5045	2346.0393	1908.9	1026.45
962.636	2347.4583	1909.15	1023.35
962.7675	2348.8767	1900.35	1015
962.8989	2350.2943	1900.7	1017.55
963.0303	2351.7113	1893.45	1009
963.1617	2353.1275	1893.9	1009.9
963.293	2354.543	1915.5	1008.55
963.4243	2355.9578	1898.95	1015.15
963.5556	2357.3718	1871.9	988.15
963.6868	2358.7852	1890.15	1003.8
963.818	2360.1978	1878.55	994.85
963.9492	2361.6098	1884.2	1000.6
964.0803	2363.021	1876.9	989.75
964.2114	2364.4315	1876.1	994.15
964.3425	2365.8413	1869.15	983.35
964.4736	2367.2504	1863.2	981.8
964.6046	2368.6587	1868.3	984
964.7356	2370.0664	1862.6	979.65
964.8666	2371.4733	1862.8	977.75
964.9975	2372.8795	1852.35	969.75
965.1284	2374.285	1850.35	966.2
965.2593	2375.6899	1844.85	961.05
965.3901	2377.0939	1842.35	958.8
965.5209	2378.4973	1846.1	961.4
965.6517	2379.9	1839.9	957.2
965.7825	2381.3019	1831.1	948.2
965.9132	2382.7032	1831.35	950.35
966.0439	2384.1037	1831.9	951.6
966.1745	2385.5035	1823.15	939.25
966.3051	2386.9027	1818	936.35
966.4357	2388.3011	1831.15	943.5
966.5663	2389.6987	1818.65	934.6
966.6968	2391.0957	1817	934.3
966.8273	2392.492	1813.1	930.35
966.9578	2393.8876	1802.5	917.95
967.0882	2395.2824	1800.75	917.75
967.2186	2396.6765	1801.05	920
967.349	2398.07	1782.45	899.1
967.4793	2399.4627	1798	915.05
967.6097	2400.8547	1795.05	912.8
967.7399	2402.246	1786.5	898.35
967.8702	2403.6366	1779.6	897.55
968.0004	2405.0265	1786.45	903.3
968.1306	2406.4156	1769.4	880.85
968.2607	2407.8041	1771.25	884.1
968.3909	2409.1918	1764.95	878.45
968.521	2410.5789	1770.85	888.2
968.651	2411.9652	1769.85	882.95
968.781	2413.3508	1766.9	884.9
968.911	2414.7358	1758.2	872.25
969.041	2416.12	1753.6	872.55
969.1709	2417.5035	1753.45	872.05
969.3008	2418.8863	1758.85	875.35
969.4307	2420.2684	1752.8	868.55
969.5606	2421.6497	1743.3	859.6
969.6904	2423.0304	1744.2	862.65
969.8201	2424.4104	1747.05	864.65
969.9499	2425.7896	1739.15	855.7
970.0796	2427.1682	1730.2	847.7
970.2093	2428.546	1732.05	849
970.3389	2429.9232	1731.85	844.4
970.4685	2431.2996	1732.15	848.3
970.5981	2432.6753	1725.35	842.2
970.7277	2434.0503	1721.6	838.1
970.8572	2435.4246	1722.05	840.3
970.9867	2436.7982	1720	834.35
971.1161	2438.1711	1714.05	831.65
971.2456	2439.5433	1716.35	833.5
971.375	2440.9148	1719.45	830.2
971.5043	2442.2856	1709.5	827.15
971.6336	2443.6557	1705.55	820.65
971.7629	2445.025	1702.1	820.1
971.8922	2446.3937	1694.6	808.75
972.0214	2447.7617	1694.15	811.5
972.1506	2449.1289	1700.25	817
972.2798	2450.4955	1707.1	818.3
972.4089	2451.8613	1688.5	806.45
972.538	2453.2265	1694.55	813.1
972.6671	2454.5909	1684.3	800
972.7961	2455.9546	1690.25	806.6
972.9251	2457.3177	1688.4	805.65
973.0541	2458.68	1688.35	803.5
973.1831	2460.0416	1679.95	796.2
973.312	2461.4025	1689	805.4
973.4408	2462.7627	1691.35	797.6
973.5697	2464.1222	1684.9	803.3
973.6985	2465.4811	1682.05	797.55
973.8273	2466.8392	1677.55	795.4
973.956	2468.1966	1675.15	792.05
974.0847	2469.5533	1673.25	785.7
974.2134	2470.9093	1678.7	793.65
974.3421	2472.2645	1672.75	787.55
974.4707	2473.6191	1667.1	782.35
974.5993	2474.973	1664.55	782.3
974.7278	2476.3262	1660.65	775.75
974.8563	2477.6787	1658.5	773.15
974.9848	2479.0305	1656.9	774.45
975.1132	2480.3816	1656.75	772.7
975.2417	2481.7319	1650.4	766.5
975.37	2483.0816	1654	768.5
975.4984	2484.4306	1646.15	762.75
975.6267	2485.7789	1645.3	764.7
975.755	2487.1264	1639.75	751.45
975.8833	2488.4733	1642.95	760.85
976.0115	2489.8195	1658.45	759.2
976.1397	2491.165	1640.9	752.55
976.2678	2492.5097	1643.4	760.65
976.3959	2493.8538	1630.8	747.55
976.524	2495.1972	1620.6	737.65
976.6521	2496.5398	1626.4	741.2
976.7801	2497.8818	1615	728.15
976.9081	2499.2231	1622.95	738.1
977.036	2500.5637	1612.7	728.8
977.164	2501.9035	1611.25	726.85
977.2918	2503.2427	1613.3	726.55
977.4197	2504.5812	1612.15	729.95
977.5475	2505.919	1618.7	735.3
977.6753	2507.256	1608.6	723.7
977.8031	2508.5924	1605	721.9
977.9308	2509.9281	1607.3	718.2
978.0585	2511.2631	1603.4	719.35
978.1861	2512.5974	1599.5	717.75
978.3137	2513.9309	1595.55	712.55
978.4413	2515.2638	1617.85	707.4
978.5689	2516.596	1605.35	722.1
978.6964	2517.9275	1594.4	709.1
978.8239	2519.2583	1587.55	703.6
978.9513	2520.5884	1592.2	707.95
979.0788	2521.9178	1590.2	705.95
979.2062	2523.2465	1588.25	705.25
979.3335	2524.5745	1588.4	703.7
979.4608	2525.9018	1577.55	696.05
979.5881	2527.2284	1570.55	690.05
979.7154	2528.5543	1577.4	694.9
979.8426	2529.8796	1573.4	691.45
979.9698	2531.2041	1571.85	687.85
980.0969	2532.5279	1577.1	695.05
980.224	2533.851	1568.45	687
980.3511	2535.1735	1577.6	692.95
980.4781	2536.4952	1564.4	680.9
980.6052	2537.8163	1570.85	686.65
980.7321	2539.1366	1562.65	680.85
980.8591	2540.4562	1565.05	680.8
980.986	2541.7752	1565.15	680.3
981.1129	2543.0935	1561.9	679.7
981.2397	2544.411	1563	677.75
981.3665	2545.7279	1563.35	681.7
981.4933	2547.0441	1554.95	672.3
981.62	2548.3596	1561.65	676.2
981.7467	2549.6744	1554.4	671.95
981.8734	2550.9885	1556.6	672.15
982.0001	2552.3019	1551.75	671.55
982.1267	2553.6146	1549.35	666.45
982.2532	2554.9266	1548.5	664.15
982.3798	2556.2379	1547.3	663.05
982.5063	2557.5485	1551.15	669.7
982.6327	2558.8585	1552.8	661.25
982.7592	2560.1677	1545.3	658.35
982.8856	2561.4762	1549.7	666.05
983.0119	2562.7841	1545.05	658.9
983.1383	2564.0913	1533.45	652
983.2646	2565.3977	1536.7	653.8
983.3908	2566.7035	1535.2	650.8
983.517	2568.0086	1534.95	650.1
983.6432	2569.313	1534.9	652.6
983.7694	2570.6167	1540.15	652.65
983.8955	2571.9197	1527.95	645.8
984.0216	2573.222	1528.3	642.25
984.1476	2574.5236	1524.9	640.55
984.2737	2575.8246	1524.1	640.4
984.3996	2577.1248	1523.8	637.65
984.5256	2578.4244	1527.25	642.2
984.6515	2579.7232	1531.95	650.35
984.7774	2581.0214	1556.1	638.3
984.9032	2582.3189	1528.3	646.15
985.029	2583.6157	1533.55	646.65
985.1548	2584.9118	1534.9	651.65
985.2806	2586.2072	1533.55	653
985.4063	2587.5019	1529.6	647.25
985.5319	2588.7959	1525.05	639.95
985.6576	2590.0893	1533.95	648.3
985.7832	2591.3819	1532.5	648.5
985.9087	2592.6739	1535.5	653
986.0343	2593.9652	1538.95	653.3
986.1597	2595.2557	1528.7	645.65
986.2852	2596.5456	1528.9	642.8
986.4106	2597.8348	1529.8	647.5
986.536	2599.1234	1535.5	653.35
986.6614	2600.4112	1537	654.7
986.7867	2601.6983	1533.75	646.6
986.912	2602.9848	1536.25	652.2
987.0372	2604.2705	1539.45	649.4
987.1624	2605.5556	1536.55	653.25
987.2876	2606.84	1515.85	632.6
987.4128	2608.1237	1521.4	639
987.5379	2609.4067	1520.3	636.35
987.6629	2610.689	1523.4	629.55
987.788	2611.9707	1524.35	637
987.913	2613.2516	1517.35	630.7
988.0379	2614.5319	1512.4	628.65
988.1629	2615.8115	1509.95	627.25
988.2878	2617.0903	1512.5	627.85
988.4126	2618.3685	1503.25	619.6
988.5375	2619.6461	1505.2	621.7
988.6622	2620.9229	1509.25	624.5
988.787	2622.199	1505	622.75
988.9117	2623.4745	1511.05	626.1
989.0364	2624.7493	1499.15	617.2
989.161	2626.0234	1500.3	619.15
989.2857	2627.2968	1499.7	617.1
989.4102	2628.5695	1499.95	613
989.5348	2629.8415	1494.95	612
989.6593	2631.1128	1494.9	610.3
989.7837	2632.3835	1499.85	618.25
989.9082	2633.6535	1494.8	612.55
990.0326	2634.9228	1501.9	618.55
990.1569	2636.1914	1490.25	607.05
990.2812	2637.4593	1504.95	619.35
990.4055	2638.7265	1494.6	610.3
990.5298	2639.9931	1489.55	606.4
990.654	2641.259	1491.95	608.25
990.7782	2642.5242	1489.4	605.95
990.9023	2643.7887	1488.35	606.2
991.0264	2645.0525	1489.8	608.65
991.1505	2646.3156	1482.95	600.75
991.2745	2647.5781	1472.3	589.95
991.3985	2648.8398	1479.6	596.25
991.5225	2650.1009	1508.1	586.8
991.6464	2651.3613	1471.6	587.3
991.7703	2652.6211	1478.35	594
991.8942	2653.8801	1476.15	592.95
992.018	2655.1385	1481.05	594.5
992.1418	2656.3961	1472.05	587.8
992.2655	2657.6531	1475	593.7
992.3892	2658.9094	1473.2	590
992.5129	2660.1651	1470.25	588.85
992.6366	2661.42	1473.65	591.45
992.7602	2662.6743	1479.2	595.2
992.8837	2663.9279	1478.15	593.35
993.0073	2665.1808	1479.3	593.5
993.1307	2666.433	1486.65	602.05
993.2542	2667.6846	1480.75	597.7
993.3776	2668.9354	1483.9	595.65
993.501	2670.1856	1485.55	603.4
993.6244	2671.4351	1484.65	599.3
993.7477	2672.6839	1483	598.3
993.8709	2673.9321	1493.9	611.05
993.9942	2675.1795	1486	601.6
994.1174	2676.4263	1494.4	610.9
994.2405	2677.6724	1489.85	605.35
994.3637	2678.9179	1498.8	617.1
994.4868	2680.1626	1499.85	617
994.6098	2681.4067	1487.5	603.6
994.7328	2682.6501	1487.8	603.95
994.8558	2683.8928	1493.95	610.75
994.9788	2685.1348	1493.6	609.6
995.1017	2686.3761	1485.45	603.75
995.2245	2687.6168	1480.35	596.95
995.3474	2688.8568	1474.95	591.9
995.4702	2690.0961	1468.15	585.65
995.5929	2691.3348	1470.1	585.55
995.7156	2692.5727	1471.7	588.75
995.8383	2693.81	1465.6	583
995.961	2695.0466	1457.6	576.4
996.0836	2696.2826	1458.5	571.65
996.2062	2697.5178	1467.95	563.35
996.3287	2698.7524	1460.6	576.9
996.4512	2699.9863	1470.95	585.95
996.5737	2701.2195	1466.55	584.1
996.6961	2702.452	1472.9	588.8
996.8185	2703.6839	1481.2	596.95
996.9408	2704.9151	1478.6	595.5
997.0631	2706.1456	1488.15	604.9
997.1854	2707.3755	1490.55	606.9
997.3077	2708.6046	1502.2	617.2
997.4299	2709.8331	1504.35	620.3
997.552	2711.0609	1510.15	626.15
997.6742	2712.2881	1513.55	632.6
997.7963	2713.5145	1528.1	641.55
997.9183	2714.7403	1528.1	646.55
998.0403	2715.9654	1537.55	653.15
998.1623	2717.1899	1566.65	667.1
998.2842	2718.4136	1566.9	684.6
998.4062	2719.6367	1581.4	699.2
998.528	2720.8591	1591.25	702.1
998.6498	2722.0809	1599.85	716.05
998.7716	2723.3019	1623.1	735.55
998.8934	2724.5223	1618.65	732.45
999.0151	2725.7421	1630.25	745.55
999.1368	2726.9611	1626.3	740.55
999.2584	2728.1795	1624.5	734.95
999.38	2729.3972	1613.65	729.65
999.5016	2730.6142	1615.9	721
999.6231	2731.8306	1591	706.6
999.7446	2733.0462	1571.7	685.8
999.8661	2734.2612	1572	682.6
999.9875	2735.4756	1546.9	662.95
1000.1089	2736.6892	1526.55	643.35
1000.2302	2737.9022	1511.75	630.55
1000.3515	2739.1145	1502.75	618.45
1000.4728	2740.3262	1494.55	602.5
1000.594	2741.5372	1479.1	595.25
1000.7152	2742.7475	1466.5	583.15
1000.8363	2743.9571	1457.75	572.7
1000.9575	2745.1661	1442.15	554.1
1001.0785	2746.3744	1436.05	550.05
1001.1996	2747.582	1424.5	540.2
1001.3206	2748.7889	1415.55	528.8
1001.4415	2749.9952	1413.05	529.7
1001.5625	2751.2008	1408	521.25
1001.6833	2752.4057	1404.5	518.6
1001.8042	2753.61	1403.3	518.2
1001.925	2754.8136	1396.75	509
1002.0458	2756.0165	1394.1	511.5
1002.1665	2757.2188	1396.05	513.85
1002.2872	2758.4204	1396.2	515.05
1002.4078	2759.6213	1394.8	509.95
1002.5285	2760.8215	1404.85	515.3
1002.649	2762.0211	1392.8	507.7
1002.7696	2763.22	1397.45	512
1002.8901	2764.4182	1385.7	499.45
1003.0106	2765.6158	1391.95	508.2
1003.131	2766.8127	1387.4	503.75
1003.2514	2768.009	1378.75	495.85
1003.3717	2769.2045	1377.75	493.5
1003.492	2770.3994	1372.25	486.8
1003.6123	2771.5936	1380.75	494.75
1003.7325	2772.7872	1372.2	488.35
1003.8527	2773.9801	1376.2	489.9
1003.9729	2775.1723	1389.85	490.15
1004.093	2776.3639	1368.25	485.65
1004.2131	2777.5548	1372.1	488.4
1004.3331	2778.745	1369.1	483.95
1004.4531	2779.9346	1369.5	487.45
1004.5731	2781.1235	1374.45	489.15
1004.693	2782.3117	1377.8	494.45
1004.8129	2783.4992	1376.55	494.15
1004.9328	2784.6861	1379.05	494.1
1005.0526	2785.8723	1389.1	503.6
1005.1723	2787.0579	1393.85	509.9
1005.2921	2788.2428	1393.3	509.4
1005.4118	2789.427	1404.8	523.4
1005.5314	2790.6106	1420.05	537.1
1005.651	2791.7935	1428.15	542.45
1005.7706	2792.9757	1429.4	547.5
1005.8902	2794.1573	1441.05	555.55
1006.0097	2795.3382	1455.1	571.35
1006.1291	2796.5184	1473	589.95
1006.2485	2797.698	1478.3	594
1006.3679	2798.8769	1495.5	614.35
1006.4873	2800.0551	1513.85	630
1006.6066	2801.2327	1528.35	641.9
1006.7258	2802.4096	1540.1	657.45
1006.8451	2803.5859	1575.2	689.9
1006.9642	2804.7615	1590.55	705.15
1007.0834	2805.9364	1604.05	721.2
1007.2025	2807.1106	1641.3	757.3
1007.3216	2808.2842	1658.65	773.65
1007.4406	2809.4572	1691.75	809.4
1007.5596	2810.6294	1738.4	854.5
1007.6785	2811.801	1771.25	888.25
1007.7975	2812.972	1803.25	920.1
1007.9163	2814.1423	1858.3	974.25
1008.0352	2815.3119	1903.6	1020.6
1008.154	2816.4808	1944.55	1062.9
1008.2727	2817.6491	1988.6	1104.55
1008.3914	2818.8167	2049.2	1166.65
1008.5101	2819.9837	2094.45	1207.8
1008.6288	2821.15	2141.95	1258.2
1008.7474	2822.3157	2202.95	1322.05
1008.8659	2823.4807	2260.35	1376.15
1008.9844	2824.645	2316.8	1431.45
1009.1029	2825.8086	2352.5	1468.7
1009.2214	2826.9716	2391.5	1508.95
1009.3398	2828.134	2436.5	1552.7
1009.4581	2829.2957	2489.7	1605.15
1009.5764	2830.4567	2528.85	1647.2
1009.6947	2831.617	2538.95	1656.5
1009.813	2832.7767	2552.85	1669.3
1009.9312	2833.9358	2548.65	1665.6
1010.0493	2835.0941	2534.55	1650.05
1010.1675	2836.2519	2530.5	1646.75
1010.2855	2837.4089	2519.6	1637.65
1010.4036	2838.5653	2501.55	1617.2
1010.5216	2839.7211	2491.2	1608.05
1010.6396	2840.8761	2491.15	1607.7
1010.7575	2842.0306	2517.6	1635.2
1010.8754	2843.1843	2553.85	1671.75
1010.9932	2844.3374	2583.25	1700.6
1011.111	2845.4899	2644.35	1760.4
1011.2288	2846.6417	2703.3	1821.55
1011.3465	2847.7928	2775.1	1892.6
1011.4642	2848.9433	2847.05	1965
1011.5818	2850.0931	2931.35	2048.6
1011.6995	2851.2422	2997.1	2111.05
1011.817	2852.3907	3064.4	2180.75
1011.9345	2853.5385	3133.05	2247.35
1012.052	2854.6857	3208.75	2298.45
1012.1695	2855.8323	3229.6	2345.65
1012.2869	2856.9781	3287.85	2404
1012.4042	2858.1233	3329.75	2446.35
1012.5216	2859.2679	3382	2498.65
1012.6389	2860.4118	3438.45	2556.65
1012.7561	2861.555	3476.95	2588.35
1012.8733	2862.6976	3526.05	2640.35
1012.9905	2863.8395	3558	2678
1013.1076	2864.9808	3581	2696.15
1013.2247	2866.1214	3596.5	2713
1013.3417	2867.2614	3617.9	2736.3
1013.4587	2868.4007	3626	2739
1013.5757	2869.5393	3642.05	2758.2
1013.6926	2870.6773	3647.85	2761.8
1013.8095	2871.8146	3669.25	2781.15
1013.9263	2872.9513	3681.15	2793.5
1014.0431	2874.0874	3671.55	2789.4
1014.1599	2875.2227	3654.4	2770.15
1014.2766	2876.3574	3643.45	2758.2
1014.3933	2877.4915	3621.75	2738.5
1014.51	2878.6249	3584.8	2702.55
1014.6266	2879.7577	3551.25	2667.1
1014.7431	2880.8898	3550.75	2657.1
1014.8596	2882.0212	3526.8	2644.15
1014.9761	2883.152	3528.05	2643.05
1015.0925	2884.2821	3510.55	2628.15
1015.2089	2885.4116	3482.6	2600.15
1015.3253	2886.5405	3487.1	2601.95
1015.4416	2887.6686	3508	2620.65
1015.5579	2888.7962	3495.7	2615.7
1015.6741	2889.923	3508.35	2626.7
1015.7903	2891.0493	3527.85	2644.9
1015.9065	2892.1748	3541.3	2655.3
1016.0226	2893.2997	3562.45	2680.05
1016.1387	2894.424	3568.75	2685.85
1016.2547	2895.5476	3578.6	2694.4
1016.3707	2896.6706	3597.65	2714.15
1016.4866	2897.7929	3623.4	2739.95
1016.6025	2898.9145	3653.6	2770.9
1016.7184	2900.0355	3696.45	2811.75
1016.8342	2901.1559	3720.9	2837.45
1016.95	2902.2756	3755.15	2871.5
1017.0658	2903.3946	3778	2895.05
1017.1815	2904.513	3806.25	2919
1017.2971	2905.6308	3835.5	2951.3
1017.4127	2906.7479	3870.8	2986.6
1017.5283	2907.8643	3904.55	3022.3
1017.6439	2908.9801	3927.4	3042.65
1017.7594	2910.0953	3917.75	3034
1017.8748	2911.2098	3917.75	3031.55
1017.9902	2912.3236	3928.55	3035.45
1018.1056	2913.4368	3899.2	3012
1018.2209	2914.5494	3883.05	3000.55
1018.3362	2915.6613	3853.4	2963
1018.4515	2916.7725	3812.85	2924.65
1018.5667	2917.8831	3795.85	2912.25
1018.6819	2918.9931	3771.95	2886.95
1018.797	2920.1024	3725.65	2840.5
1018.9121	2921.211	3716.45	2834.1
1019.0271	2922.319	3681.75	2798.4
1019.1421	2923.4264	3677.9	2796.2
1019.2571	2924.5331	3668.55	2788.95
1019.372	2925.6391	3659.4	2775.85
1019.4869	2926.7445	3659.8	2777
1019.6017	2927.8493	3639	2755.65
1019.7165	2928.9534	3647	2763.3
1019.8313	2930.0569	3647.55	2761.55
1019.946	2931.1597	3628.25	2743.15
1020.0606	2932.2619	3633.15	2751.55
1020.1753	2933.3634	3623.6	2739.1
1020.2899	2934.4643	3642.1	2751.05
1020.4044	2935.5645	3621.7	2733.2
1020.5189	2936.6641	3593.4	2706.6
1020.6334	2937.763	3558.8	2678.25
1020.7478	2938.8613	3512.5	2628.15
1020.8622	2939.959	3457.8	2569.85
1020.9765	2941.056	3374.65	2493.3
1021.0908	2942.1523	3302.15	2415.95
1021.2051	2943.248	3223.8	2344.1
1021.3193	2944.3431	3130.75	2246.85
1021.4334	2945.4375	3031.65	2149
1021.5476	2946.5313	2930.2	2047.45
1021.6617	2947.6244	2816.35	1932.25
1021.7757	2948.7169	2720.45	1840.55
1021.8897	2949.8087	2627.85	1744.35
1022.0037	2950.8999	2531.1	1647.25
1022.1176	2951.9904	2441.5	1560.6
1022.2315	2953.0803	2368.35	1482.6
1022.3453	2954.1696	2303.2	1421.65
1022.4591	2955.2582	2255.35	1371.75
1022.5728	2956.3462	2199.05	1316.6
1022.6865	2957.4335	2165.1	1282.65
1022.8002	2958.5202	2130.85	1244.95
1022.9138	2959.6062	2104.85	1221.65
1023.0274	2960.6916	2081.35	1198.35
1023.141	2961.7764	2062.8	1180.55
1023.2545	2962.8605	2031.15	1147.75
1023.3679	2963.9439	2034.25	1153
1023.4813	2965.0267	2017.65	1134.05
1023.5947	2966.1089	2033.6	1126.85
1023.708	2967.1905	2005.65	1121.4
1023.8213	2968.2714	1992.75	1110.3
1023.9346	2969.3516	1996.1	1112.85
1024.0478	2970.4312	2014.85	1123
1024.1609	2971.5102	2011.6	1129.2
1024.274	2972.5885	2007.15	1124.6
1024.3871	2973.6662	2011.2	1121.85
1024.5002	2974.7432	2011.9	1127.35
1024.6132	2975.8196	1997.35	1116
1024.7261	2976.8954	1992.35	1110.15
1024.839	2977.9705	1985.9	1102.1
1024.9519	2979.045	1973.8	1092.6
1025.0647	2980.1188	1955.6	1071.2
1025.1775	2981.192	1941.7	1061.1
1025.2902	2982.2645	1924.4	1039.3
1025.4029	2983.3364	1895.2	1012.8
1025.5156	2984.4077	1875.25	992.75
1025.6282	2985.4783	1841.05	951.6
1025.7407	2986.5483	1807.7	923.6
1025.8532	2987.6177	1776.45	895
1025.9657	2988.6864	1744.7	861.45
1026.0782	2989.7545	1704.55	821.2
1026.1906	2990.8219	1662.6	779.05
1026.3029	2991.8887	1646.3	760.45
1026.4152	2992.9548	1610.45	727.55
1026.5275	2994.0204	1572.65	690.5
1026.6397	2995.0852	1544.8	665.9
1026.7519	2996.1495	1515	631.65
1026.864	2997.2131	1492.05	608.35
1026.9761	2998.276	1478.3	595.45
1027.0882	2999.3383	1452.65	569.2
1027.2002	3000.4	1430	547.9
1027.3122	3001.4611	1417.8	533.35
1027.4241	3002.5215	1404.05	519.5
1027.536	3003.5812	1383.05	500.45
1027.6478	3004.6404	1364.3	480.95
1027.7596	3005.6989	1361.5	474.05
1027.8714	3006.7567	1345.05	462.6
1027.9831	3007.8139	1368.9	461.1
1028.0947	3008.8705	1335.15	453.05
1028.2064	3009.9264	1347.5	448.25
1028.3179	3010.9818	1327.95	444.8
1028.4295	3012.0364	1323.6	441.75
1028.541	3013.0905	1317.95	436
1028.6524	3014.1439	1313.45	430
1028.7638	3015.1966	1306.8	425.3
1028.8752	3016.2487	1306.25	423.65
1028.9865	3017.3002	1308.3	421.75
1029.0978	3018.3511	1301.4	419.5
1029.209	3019.4013	1303.8	420.35
1029.3202	3020.4509	1301.65	419.3
1029.4314	3021.4998	1298.3	413.4
1029.5425	3022.5481	1295.8	413.75
1029.6535	3023.5958	1295.2	412.5
1029.7645	3024.6428	1303.2	421
1029.8755	3025.6892	1297.3	415.85
1029.9864	3026.735	1303.2	419.7
1030.0973	3027.7802	1305.6	421.5
1030.2082	3028.8247	1304.95	423.7
1030.319	3029.8685	1309.25	425.7
1030.4297	3030.9118	1310.85	427.15
1030.5404	3031.9544	1313.45	431.45
1030.6511	3032.9963	1314.7	430.5
1030.7617	3034.0376	1321.6	439.55
1030.8723	3035.0783	1331.85	445.6
1030.9829	3036.1184	1333.15	450.5
1031.0934	3037.1578	1328.85	446.45
1031.2038	3038.1966	1336.55	455
1031.3142	3039.2348	1330	446.7
1031.4246	3040.2723	1338.85	445.95
1031.5349	3041.3092	1329.6	445.15
1031.6452	3042.3455	1329.5	447.25
1031.7554	3043.3811	1325.1	439.85
1031.8656	3044.4161	1329.75	446.75
1031.9758	3045.4505	1325.9	444.45
1032.0859	3046.4842	1322.8	441.2
1032.1959	3047.5173	1313.8	432.75
1032.3059	3048.5498	1315.1	431.5
1032.4159	3049.5816	1302.85	419.75
1032.5258	3050.6128	1301.9	417.5
1032.6357	3051.6434	1293.65	408.6
1032.7455	3052.6734	1291.75	407.7
1032.8553	3053.7027	1285.55	405.7
1032.9651	3054.7314	1283.5	402.65
1033.0748	3055.7594	1274.4	390.5
1033.1845	3056.7868	1276	392.85
1033.2941	3057.8136	1270.85	387.5
1033.4037	3058.8398	1265.5	381.55
1033.5132	3059.8653	1257.4	375.1
1033.6227	3060.8902	1260.3	377.7
1033.7321	3061.9145	1250.8	367.35
1033.8415	3062.9381	1243.9	360.55
1033.9509	3063.9612	1260.35	362.55
1034.0602	3064.9835	1241.2	358.5
1034.1694	3066.0053	1235.9	352
1034.2787	3067.0264	1229.35	347.9
1034.3878	3068.0469	1224.9	339.75
1034.497	3069.0668	1221.4	336.1
1034.6061	3070.086	1205.45	323.55
1034.7151	3071.1046	1208.2	322.85
1034.8241	3072.1226	1195.5	311.8
1034.9331	3073.1399	1182.05	299.85
1035.042	3074.1567	1176.05	293.45
1035.1508	3075.1727	1173	289.3
1035.2597	3076.1882	1162.25	281.45
1035.3684	3077.203	1152.1	268.4
1035.4772	3078.2173	1149.25	266.6
1035.5859	3079.2308	1142	254.65
1035.6945	3080.2438	1139.7	254.55
1035.8031	3081.2561	1122.4	240.05
1035.9117	3082.2678	1117.95	235.7
1036.0202	3083.2789	1113.2	229.15
1036.1286	3084.2893	1103.3	220.4
1036.2371	3085.2991	1101.5	218
1036.3454	3086.3083	1101.55	214
1036.4538	3087.3169	1092.7	209.15
1036.562	3088.3248	1089.7	202.55
1036.6703	3089.3321	1085.15	199.4
1036.7785	3090.3388	1075.9	193.2
1036.8866	3091.3449	1073.8	190.3
1036.9948	3092.3503	1074.65	188.95
1037.1028	3093.3551	1065.2	183.9
1037.2108	3094.3593	1066	184.25
1037.3188	3095.3629	1060.75	178.7
1037.4267	3096.3658	1058.25	174.3
1037.5346	3097.3681	1059.5	176.15
1037.6425	3098.3698	1055.8	170.55
1037.7503	3099.3708	1057.4	169.35
1037.858	3100.3713	1050.85	168.45
1037.9657	3101.3711	1048.8	165.3
1038.0734	3102.3702	1183.75	161.55
1038.181	3103.3688	1043.75	159.25
1038.2886	3104.3667	1040.55	157.5
1038.3961	3105.364	1036.8	156.8
1038.5036	3106.3607	1038.15	153.25
1038.611	3107.3568	1035.3	150.45
1038.7184	3108.3522	1032.55	149.45
1038.8257	3109.347	1032.3	148.55
1038.933	3110.3412	1036.4	150.5
1039.0403	3111.3348	1025.8	141.95
1039.1475	3112.3277	1023.7	141.2
1039.2547	3113.32	1022.75	141.9
1039.3618	3114.3117	1018.9	134.2
1039.4689	3115.3028	1018.7	136.8
1039.5759	3116.2932	1025.1	141.95
1039.6829	3117.2831	1026.7	138.7
1039.7898	3118.2723	1020.45	138.85
1039.8967	3119.2608	1016.3	135.5
1040.0035	3120.2488	1016.4	132.45
1040.1103	3121.2361	1013.65	129.9
1040.2171	3122.2229	1013.2	132.2
1040.3238	3123.209	1013	130.8
1040.4305	3124.1944	1012.15	128.6
1040.5371	3125.1793	1007.25	124.3
1040.6437	3126.1635	1009.6	126.05
1040.7502	3127.1471	1007.1	124.1
1040.8567	3128.1301	1002.55	120.45
1040.9631	3129.1125	1002.3	121.7
1041.0695	3130.0942	1003.9	120.6
1041.1759	3131.0753	1008.95	117.2
1041.2822	3132.0558	1000.55	116.95
1041.3884	3133.0357	999	116.15
1041.4946	3134.015	1000.4	117
1041.6008	3134.9936	1000.6	116.9
1041.7069	3135.9716	1017.65	115.7
1041.813	3136.949	998.3	116.15
1041.919	3137.9258	1011.05	111.25
1042.025	3138.902	1001.3	114.75
1042.1309	3139.8775	990.65	107.15
1042.2368	3140.8524	991.5	109.15
1042.3427	3141.8267	990.15	106.25
1042.4485	3142.8004	990.3	106.65
1042.5542	3143.7735	992.35	103.6
1042.6599	3144.7459	992.3	108.45
1042.7656	3145.7178	987.55	104.3
1042.8712	3146.689	987.3	105.85
1042.9768	3147.6596	987.7	102.55
1043.0823	3148.6295	988.1	105.8
1043.1878	3149.5989	981.05	96.95
1043.2932	3150.5676	981.95	100.75
1043.3986	3151.5357	980.7	98.95
1043.5039	3152.5032	981.05	100.2
1043.6092	3153.4701	983	101.35
1043.7145	3154.4364	983.2	99.05
1043.8197	3155.402	974.1	92.85
1043.9248	3156.367	979.4	94.05
1044.03	3157.3315	1005.15	89.9
1044.135	3158.2952	974.3	91.3
1044.24	3159.2584	974.15	92.45
1044.345	3160.221	978	93.9
1044.4499	3161.1829	974.7	92.7
1044.5548	3162.1442	973.55	89.8
1044.6596	3163.105	971.75	88
1044.7644	3164.065	973.7	89.85
1044.8692	3165.0245	975.05	90.7
1044.9739	3165.9834	968.05	88.85
1045.0785	3166.9416	969.45	87.25
1045.1831	3167.8993	967.35	84.4
1045.2877	3168.8563	968.65	84.1
1045.3922	3169.8127	964.6	80.95
1045.4966	3170.7684	967.5	84.1
1045.6011	3171.7236	971.1	87.45
1045.7054	3172.6782	967	83.6
1045.8098	3173.6321	967.65	86
1045.914	3174.5854	970.2	83.35
1046.0183	3175.5381	965.6	84.1
1046.1224	3176.4902	959.35	77.35
1046.2266	3177.4417	963.2	80.25
1046.3307	3178.3926	965.5	80.8
1046.4347	3179.3428	964.6	84.05
1046.5387	3180.2924	962.85	80.05
1046.6427	3181.2415	963	79.9
1046.7466	3182.1899	962.85	79.75
1046.8504	3183.1377	962.45	80.05
1046.9542	3184.0848	965.6	79.9
1047.058	3185.0314	961.5	80.85
1047.1617	3185.9773	959.9	78.2
1047.2654	3186.9227	960.9	76.45
1047.369	3187.8674	957	74.7
1047.4726	3188.8115	964.6	77.75
1047.5761	3189.755	958.1	75.8
1047.6796	3190.6979	959.05	75.9
1047.783	3191.6402	957	73.3
1047.8864	3192.5818	956.95	76.7
1047.9898	3193.5229	975.7	72.4
1048.0931	3194.4633	957.75	77.25
1048.1963	3195.4031	954.45	71.35
1048.2995	3196.3423	950.6	68.9
1048.4027	3197.2809	951	69.95
1048.5058	3198.2189	957.55	77.3
1048.6089	3199.1563	971.45	71
1048.7119	3200.0931	955.3	73.9
1048.8148	3201.0292	952.05	69.6
1048.9178	3201.9648	952.9	70.9
1049.0206	3202.8997	953.95	69.95
1049.1235	3203.834	951.65	67.85
1049.2262	3204.7677	952.45	71.95
1049.329	3205.7008	952.25	67
1049.4317	3206.6333	948.45	69.45
1049.5343	3207.5652	952.55	69.05
1049.6369	3208.4964	950.6	67.6
1049.7394	3209.4271	946.3	67.45
1049.8419	3210.3571	945.55	62.45
1049.9444	3211.2865	951.55	68.85
1050.0468	3212.2154	947.9	63
1050.1491	3213.1436	951.6	67.15
1050.2514	3214.0712	956.7	67.5
1050.3537	3214.9982	946.45	66.3
1050.4559	3215.9246	948.85	65.6
1050.5581	3216.8503	944.5	62.7
1050.6602	3217.7755	948.75	64.3
1050.7623	3218.7001	945	63.85
1050.8643	3219.624	946.4	63.25
1050.9663	3220.5473	946.7	64.8
1051.0682	3221.4701	946.95	65.1
1051.1701	3222.3922	943.6	61.25
1051.2719	3223.3137	940.75	58.2
1051.3737	3224.2346	944.4	62.8
1051.4754	3225.1549	946.55	65
1051.5771	3226.0746	941.25	59.9
1051.6788	3226.9937	945.6	61.45
1051.7804	3227.9121	939.8	59.1
1051.8819	3228.83	940.55	58.95
1051.9834	3229.7473	942.35	60.55
1052.0849	3230.6639	940.45	57.35
1052.1863	3231.5799	941.95	59.5
1052.2876	3232.4954	943.45	59.25
1052.3889	3233.4102	941.3	59.2
1052.4902	3234.3244	943.4	59.55
1052.5914	3235.238	938.85	56.65
1052.6926	3236.151	963.8	58.9
1052.7937	3237.0634	940.3	60.8
1052.8948	3237.9752	939.65	58.35
1052.9958	3238.8864	939.4	57.5
1053.0968	3239.797	938.55	56.35
1053.1977	3240.7069	938.9	56.1
1053.2986	3241.6163	938.8	53.6
1053.3994	3242.5251	936.45	55.6
1053.5002	3243.4332	936.4	56.85
1053.6009	3244.3408	932.8	50.9
1053.7016	3245.2477	933.75	52.35
1053.8022	3246.154	936.65	53.5
1053.9028	3247.0598	936.65	54.75
1054.0034	3247.9649	935.6	55.05
1054.1039	3248.8694	934.8	52.65
1054.2043	3249.7733	932.25	51.05
1054.3047	3250.6766	935	52.9
1054.4051	3251.5793	932.35	50
1054.5054	3252.4814	933.2	53.3
1054.6056	3253.3829	931.35	50.6
1054.7058	3254.2838	930.8	49.05
1054.806	3255.1841	929.15	47.95
1054.9061	3256.0838	931.4	47.1
1055.0061	3256.9829	926.55	44.75
1055.1062	3257.8814	931.1	46.45
1055.2061	3258.7792	929.4	47
1055.306	3259.6765	927.95	43.5
1055.4059	3260.5731	926.9	45.35
1055.5057	3261.4692	926.15	42.45
1055.6055	3262.3647	929.95	47.65
1055.7052	3263.2595	926.85	45.35
1055.8049	3264.1538	923.45	42.4
1055.9045	3265.0474	924.1	41.6
1056.0041	3265.9404	922.15	41.25
1056.1036	3266.8329	922.65	43.15
1056.2031	3267.7247	932.3	40.2
1056.3025	3268.616	920.15	38.9
1056.4019	3269.5066	920.1	37.35
1056.5013	3270.3966	921.5	38
1056.6005	3271.286	917.85	40.25
