Software Version:	3.9.2.0
Unit SN:	10000200
Spectrometer SN:	6960
Date:	3/14/2024 12:40:02 PM
Data Line Index:	25
Spectral Points:	2048
Integration time (ms):	125
Averages:	20
Delay (ms):	30000
Sequence Number:	1
Processing:	dark subtract
Laser Power (mW):	305
Laser Current (mA):	823
Laser Diode Temp (C):	25
Laser Case Temp (C):	27
System Temp (C):	27
Spectrometer Temp (C):	24.5
CCD Temp (C):	0.009
Secondary Temp (C):	20
Heatsink Temp (C):	23.076
CCDPCB Temp (C):	36.796
SecondaryPCB Temp (C):	34.106

Wavelength	RamanShift	Raw Counts	Dark Subtracted
787.061	30.1047	418.25	7.85
787.2016	32.3739	415.25	6.4
787.3422	34.6426	418.15	6.25
787.4828	36.9109	421.8	8.05
787.6235	39.1787	424.2	7
787.7642	41.4461	430.05	10.4
787.9049	43.7131	431.6	6.55
788.0456	45.9796	437.3	8.2
788.1863	48.2456	439	4.95
788.3271	50.5112	447.95	12.4
788.4679	52.7764	449.3	11.35
788.6087	55.0411	455.5	14.25
788.7496	57.3054	458.5	13.6
788.8904	59.5692	461.95	12.8
789.0313	61.8326	467.6	14.8
789.1722	64.0955	471.95	15.7
789.3132	66.3579	478.95	17.2
789.4541	68.6199	485.1	19.65
789.5951	70.8815	490.75	22.1
789.7361	73.1426	505.75	33.45
789.8771	75.4032	536	60.45
790.0181	77.6634	601.65	120.45
790.1592	79.9231	741.65	257.5
790.3003	82.1824	1039.55	549.85
790.4414	84.4412	1538.4	1043.5
790.5825	86.6995	2218.1	1713.05
790.7237	88.9574	2850.8	2339.5
790.8648	91.2148	3333	2818.65
791.006	93.4717	3544.7	3022.5
791.1472	95.7282	3596.8	3073.4
791.2885	97.9842	3614.5	3090.05
791.4297	100.2398	3582.45	3053.45
791.571	102.4949	3543.75	3009
791.7123	104.7495	3541.05	3004.85
791.8536	107.0036	3508.25	2972.35
791.9949	109.2573	3467.45	2932.05
792.1363	111.5105	3412.75	2875.35
792.2777	113.7632	3354.1	2815
792.4191	116.0154	3296.05	2747.55
792.5605	118.2672	3221.7	2677.35
792.7019	120.5185	3157.65	2613.2
792.8434	122.7693	3104.5	2557.5
792.9849	125.0197	3048.35	2498.5
793.1264	127.2696	2989.85	2438.7
793.2679	129.519	2957.9	2404.2
793.4094	131.7679	2949.1	2392.8
793.551	134.0163	2937.8	2377.2
793.6926	136.2642	2935.55	2369.6
793.8342	138.5117	2925.05	2354.4
793.9758	140.7587	2916.5	2345.1
794.1175	143.0052	2877.9	2305.45
794.2591	145.2512	2845.7	2273.05
794.4008	147.4967	2813.3	2240
794.5425	149.7417	2788.45	2213
794.6842	151.9863	2755.5	2175.35
794.826	154.2304	2745.2	2164.45
794.9677	156.4739	2740.35	2150.75
795.1095	158.717	2748.9	2160.45
795.2513	160.9596	2758.1	2164.85
795.3931	163.2017	2772.25	2176.3
795.535	165.4433	2784.8	2186.75
795.6768	167.6844	2778.95	2180.1
795.8187	169.925	2764.1	2160.9
795.9606	172.1651	2728.3	2123.3
796.1025	174.4047	2692.5	2083
796.2445	176.6439	2658.85	2046.9
796.3864	178.8825	2648.75	2034.85
796.5284	181.1206	2647.25	2029
796.6704	183.3582	2627.7	2006.15
796.8124	185.5954	2622	1997.9
796.9544	187.832	2611.15	1982.05
797.0965	190.0681	2613.1	1983
797.2386	192.3037	2617.65	1985.05
797.3806	194.5388	2622	1987.65
797.5228	196.7734	2623.8	1985.55
797.6649	199.0075	2636.85	1995.25
797.807	201.2411	2654.6	2011.45
797.9492	203.4742	2669.7	2023.9
798.0914	205.7068	2682.65	2038
798.2336	207.9389	2703.1	2060.2
798.3758	210.1704	2701.7	2054.7
798.518	212.4015	2707	2055.35
798.6603	214.632	2704.7	2050.75
798.8025	216.862	2704.95	2054.75
798.9448	219.0915	2690.5	2048.25
799.0871	221.3205	2700.25	2063.2
799.2294	223.549	2696.1	2065.15
799.3718	225.777	2705.7	2074
799.5141	228.0044	2696.25	2060.65
799.6565	230.2314	2674	2041.85
799.7989	232.4578	2672.95	2040.4
799.9413	234.6837	2659.4	2018.45
800.0837	236.909	2648.85	2006.35
800.2262	239.1339	2675.4	2011.6
800.3687	241.3582	2638.25	1987.7
800.5111	243.582	2661.25	1985
800.6536	245.8053	2664.4	1993.85
800.7961	248.0281	2650.9	1984.5
800.9387	250.2503	2655.25	1985.75
801.0812	252.472	2660.15	1983.8
801.2238	254.6932	2674.75	1996.65
801.3664	256.9139	2663.1	1981.65
801.509	259.134	2682.8	1996.1
801.6516	261.3536	2694.85	2012.9
801.7942	263.5727	2707.7	2025.05
801.9369	265.7912	2740.2	2057.1
802.0795	268.0092	2772.75	2088.15
802.2222	270.2267	2802.9	2114.95
802.3649	272.4436	2839.05	2152.75
802.5076	274.6601	2854.7	2157.35
802.6504	276.8759	2878.95	2188.7
802.7931	279.0913	2883.35	2196
802.9359	281.3061	2899.85	2207.25
803.0787	283.5204	2903.65	2207.65
803.2215	285.7341	2926.2	2225.8
803.3643	287.9473	2932.95	2231.05
803.5071	290.16	2932.45	2225.75
803.6499	292.3721	2898.7	2197.9
803.7928	294.5837	2865.75	2161.15
803.9357	296.7947	2840.45	2140.1
804.0786	299.0052	2838.6	2136.15
804.2215	301.2152	2817	2111.55
804.3644	303.4246	2800.95	2097.8
804.5074	305.6334	2787.3	2083.25
804.6503	307.8418	2776.8	2069.65
804.7933	310.0495	2773.8	2064.2
804.9363	312.2568	2752.3	2044.1
805.0793	314.4635	2712.45	2003.25
805.2223	316.6696	2688.15	1976.5
805.3653	318.8752	2651.55	1931.9
805.5084	321.0802	2623.65	1911
805.6514	323.2847	2604.25	1889.95
805.7945	325.4887	2613.9	1900.2
805.9376	327.692	2619.45	1904.3
806.0807	329.8949	2633.95	1914.8
806.2238	332.0972	2668.95	1949.05
806.367	334.2989	2707.65	1983.05
806.5101	336.5001	2702.8	1978.55
806.6533	338.7007	2676.8	1954.1
806.7965	340.9008	2651.05	1926.2
806.9397	343.1003	2604.65	1877.4
807.0829	345.2992	2578.25	1849.2
807.2261	347.4976	2530.4	1801.3
807.3693	349.6955	2506.95	1773.85
807.5126	351.8927	2493.95	1758.5
807.6559	354.0895	2497.45	1751.5
807.7991	356.2856	2471.55	1735.95
807.9424	358.4812	2461.45	1725.85
808.0857	360.6763	2458.25	1721
808.2291	362.8707	2445.7	1709.55
808.3724	365.0646	2448.05	1706.85
808.5158	367.258	2463.4	1722.6
808.6591	369.4508	2470.8	1723
808.8025	371.643	2490.95	1745.15
808.9459	373.8346	2494	1743.45
809.0893	376.0257	2527.95	1773.85
809.2327	378.2162	2541.3	1789.3
809.3762	380.4062	2559.6	1805.9
809.5196	382.5956	2546.45	1789.3
809.6631	384.7844	2505.1	1749.6
809.8066	386.9726	2474.7	1717.35
809.9501	389.1603	2447.85	1690.2
810.0936	391.3474	2455.45	1665.6
810.2371	393.5339	2427.1	1669.45
810.3806	395.7199	2420.05	1669.1
810.5241	397.9052	2437.8	1690.5
810.6677	400.09	2468.55	1720.3
810.8113	402.2743	2489.3	1742.25
810.9548	404.4579	2509.3	1761.45
811.0984	406.641	2541.1	1789.35
811.2421	408.8235	2564.15	1812.1
811.3857	411.0054	2609.05	1856.65
811.5293	413.1868	2669.9	1914.6
811.673	415.3675	2749.8	1993.05
811.8166	417.5477	2765.1	2004.8
811.9603	419.7273	2693.5	1933.75
812.104	421.9064	2624.1	1857.15
812.2477	424.0848	2555.7	1790.65
812.3914	426.2627	2502.05	1733.8
812.5351	428.4399	2455.9	1685.55
812.6788	430.6166	2427.15	1652.9
812.8226	432.7928	2384.05	1609.3
812.9663	434.9683	2348.5	1574.1
813.1101	437.1432	2334.75	1558.7
813.2539	439.3176	2308.15	1533.7
813.3977	441.4914	2292.45	1514.85
813.5415	443.6645	2304.15	1524.35
813.6853	445.8371	2300.55	1519.05
813.8291	448.0091	2303.45	1522.4
813.973	450.1806	2291.1	1511.85
814.1168	452.3514	2274	1491.8
814.2607	454.5216	2296.05	1504.35
814.4046	456.6913	2275.45	1490.95
814.5485	458.8603	2272.25	1489.65
814.6924	461.0288	2273.95	1490.05
814.8363	463.1967	2268.9	1484.15
814.9802	465.3639	2279.55	1492.25
815.1241	467.5306	2264.8	1479
815.2681	469.6967	2255.8	1470.25
815.412	471.8622	2252.05	1464.9
815.556	474.0271	2243.05	1456.75
815.7	476.1914	2250.45	1460.75
815.844	478.3551	2246.5	1457.55
815.988	480.5182	2239.5	1449.8
816.132	482.6807	2249.7	1457.05
816.276	484.8426	2254.15	1462.55
816.4201	487.0039	2284.6	1494.45
816.5641	489.1647	2318.55	1526.5
816.7082	491.3248	2352.55	1560.25
816.8522	493.4843	2355.55	1563.45
816.9963	495.6432	2350.2	1556.4
817.1404	497.8015	2333.85	1537.95
817.2845	499.9592	2313.55	1520.25
817.4286	502.1163	2265.4	1470.1
817.5727	504.2728	2241.55	1444.55
817.7168	506.4287	2224.9	1431.65
817.861	508.5839	2207.75	1411.75
818.0051	510.7386	2197.35	1403.05
818.1493	512.8927	2207.7	1403.4
818.2935	515.0461	2198.95	1400.55
818.4377	517.199	2209.95	1412.5
818.5818	519.3512	2233.75	1435.55
818.726	521.5029	2285.1	1478.8
818.8703	523.6539	2325.2	1523.95
819.0145	525.8043	2329.45	1527.3
819.1587	527.9541	2306.5	1504.05
819.303	530.1033	2246.5	1443.8
819.4472	532.2519	2199.65	1397.45
819.5915	534.3999	2203.95	1398.9
819.7357	536.5472	2187.05	1380.8
819.88	538.694	2180	1375.65
820.0243	540.8401	2193.3	1386.75
820.1686	542.9856	2200.4	1394.1
820.3129	545.1305	2216.25	1408.4
820.4572	547.2748	2225.85	1417.7
820.6016	549.4185	2228	1418.75
820.7459	551.5615	2216.25	1408.55
820.8902	553.704	2234.7	1424.4
821.0346	555.8458	2247.15	1437.45
821.1789	557.987	2262.6	1451.85
821.3233	560.1276	2272.85	1461.7
821.4677	562.2675	2308.25	1497.75
821.6121	564.4069	2373.25	1561.55
821.7565	566.5456	2393.1	1582.55
821.9009	568.6837	2388.1	1575.95
822.0453	570.8212	2312.15	1499.25
822.1897	572.958	2266	1453
822.3342	575.0942	2243.95	1433.25
822.4786	577.2299	2225.2	1412.75
822.6231	579.3648	2189.1	1375.7
822.7675	581.4992	2171.45	1358.4
822.912	583.6329	2179.45	1364.15
823.0565	585.766	2183.85	1370.95
823.201	587.8985	2214.95	1400.8
823.3454	590.0304	2262.9	1436.5
823.4899	592.1616	2275.2	1458.35
823.6345	594.2922	2286.5	1470.5
823.779	596.4222	2251.4	1433.2
823.9235	598.5515	2198.25	1381.25
824.068	600.6802	2164.8	1345.4
824.2126	602.8083	2127.3	1309.6
824.3571	604.9358	2127.95	1307.65
824.5017	607.0626	2103.35	1282.7
824.6462	609.1888	2123.15	1302.95
824.7908	611.3144	2136.25	1313.75
824.9354	613.4393	2164.65	1344.55
825.08	615.5636	2197.8	1376.4
825.2246	617.6873	2220.5	1399.1
825.3692	619.8103	2254	1430.25
825.5138	621.9327	2251.65	1425.5
825.6584	624.0544	2236.5	1414.7
825.803	626.1756	2188.05	1366.35
825.9477	628.2961	2155.1	1333.5
826.0923	630.4159	2123.85	1298.95
826.237	632.5351	2123.4	1297.85
826.3816	634.6537	2124.85	1299.6
826.5263	636.7716	2117.4	1291.9
826.6709	638.8889	2121.8	1295.45
826.8156	641.0056	2120.15	1294.55
826.9603	643.1216	2127.55	1299.5
827.105	645.237	2143.6	1313.2
827.2497	647.3518	2107.05	1277.65
827.3944	649.4659	2089.15	1262.5
827.5391	651.5793	2085.5	1255.85
827.6838	653.6922	2069	1242.45
827.8285	655.8043	2063.95	1234.2
827.9733	657.9159	2052.6	1220.45
828.118	660.0268	2048	1216.1
828.2627	662.137	2047	1214.7
828.4075	664.2466	2049.4	1216.4
828.5522	666.3556	2029.25	1196.9
828.697	668.4639	2033.35	1195.35
828.8418	670.5716	2036.55	1204.25
828.9865	672.6786	2035.1	1200.95
829.1313	674.785	2023.4	1188.75
829.2761	676.8907	2006.1	1173.55
829.4209	678.9958	2020.25	1186.65
829.5657	681.1002	2006.95	1172.1
829.7105	683.204	2012.2	1173.8
829.8553	685.3072	2010.4	1171.6
830.0001	687.4097	2014.3	1178.4
830.1449	689.5115	2015.5	1178.35
830.2898	691.6127	2010.05	1174.05
830.4346	693.7132	2008.2	1171.8
830.5794	695.8131	2029.95	1178
830.7243	697.9123	2015.5	1176.7
830.8691	700.0109	2017.85	1180
831.014	702.1089	2015.8	1178.4
831.1588	704.2061	2028.45	1191
831.3037	706.3028	2037.7	1197.1
831.4486	708.3987	2067.5	1227
831.5935	710.4941	2074.55	1235.05
831.7383	712.5887	2066.5	1224.3
831.8832	714.6827	2075	1232.5
832.0281	716.7761	2060.15	1220.1
832.173	718.8688	2054.45	1213.4
832.3179	720.9608	2059.25	1214.45
832.4628	723.0522	2063.05	1219.1
832.6077	725.1429	2064.75	1226.4
832.7527	727.233	2103.45	1259.9
832.8976	729.3224	2145.65	1301.45
833.0425	731.4112	2188.25	1345.95
833.1874	733.4993	2188.1	1341.2
833.3324	735.5867	2164.15	1318.75
833.4773	737.6735	2110.9	1265.1
833.6222	739.7596	2083.35	1237.25
833.7672	741.845	2054.8	1210
833.9122	743.9298	2057.4	1208.95
834.0571	746.014	2064.55	1220.4
834.2021	748.0974	2090	1242.8
834.347	750.1802	2065.7	1219
834.492	752.2624	2069.7	1222.95
834.637	754.3439	2051	1202.5
834.782	756.4247	2053.8	1196
834.9269	758.5048	2036.85	1191.05
835.0719	760.5843	2042.3	1195.85
835.2169	762.6631	2053.8	1205.55
835.3619	764.7413	2089.15	1242.35
835.5069	766.8188	2135.3	1283.5
835.6519	768.8956	2202.2	1353
835.7969	770.9718	2239.45	1388.9
835.9419	773.0473	2230.65	1384.15
836.0869	775.1221	2199.95	1351.8
836.232	777.1962	2186.5	1339.6
836.377	779.2697	2236.75	1386
836.522	781.3426	2311	1449.45
836.667	783.4147	2367.25	1516.5
836.8121	785.4862	2350.8	1502.25
836.9571	787.557	2290.95	1440.95
837.1021	789.6271	2195.25	1341.7
837.2472	791.6966	2097.05	1246.45
837.3922	793.7654	2037.15	1184.4
837.5373	795.8335	2003.9	1153
837.6823	797.901	1967.8	1115.5
837.8274	799.9678	1972.8	1118.45
837.9724	802.0339	1972.05	1120.6
838.1175	804.0993	1975.1	1114.8
838.2626	806.1641	1958.25	1103.4
838.4076	808.2282	1953.7	1102.4
838.5527	810.2916	1941	1085.6
838.6978	812.3544	1927.8	1075.95
838.8428	814.4164	1913.75	1063.3
838.9879	816.4778	1934.8	1081.6
839.133	818.5385	1935.9	1082.5
839.2781	820.5986	1952.65	1100.85
839.4232	822.658	1986.05	1129.6
839.5682	824.7166	2041.5	1189.8
839.7133	826.7747	2098.6	1243.8
839.8584	828.832	2139.85	1286.7
840.0035	830.8886	2185.55	1329.9
840.1486	832.9446	2201.15	1346.2
840.2937	834.9999	2180.45	1326.55
840.4388	837.0545	2143.65	1284.85
840.5839	839.1085	2068.25	1212.5
840.729	841.1618	2024.8	1167.45
840.8741	843.2143	1977.3	1122.3
841.0192	845.2662	1952.35	1098.3
841.1643	847.3175	1945.4	1089.7
841.3095	849.368	1931.35	1073.75
841.4546	851.4179	1924	1068.7
841.5997	853.467	1925.1	1067.7
841.7448	855.5155	1925.65	1068.4
841.8899	857.5633	1937.65	1079.9
842.0351	859.6105	1925.05	1068.3
842.1802	861.6569	1921.95	1066.25
842.3253	863.7027	1902.45	1041.8
842.4704	865.7478	1892.45	1036.05
842.6156	867.7922	1895.9	1039.1
842.7607	869.8359	1885.75	1028.75
842.9058	871.8789	1878.1	1020.1
843.0509	873.9212	1905.4	1012.25
843.1961	875.9629	1869.75	1011.7
843.3412	878.0039	1886.35	1025.5
843.4863	880.0441	1889.1	1029.2
843.6315	882.0837	1897.1	1036.5
843.7766	884.1226	1923.35	1061.25
843.9218	886.1609	1947.9	1088.45
844.0669	888.1984	1981.9	1122.25
844.212	890.2352	2017.15	1157.25
844.3572	892.2714	2024.95	1162.45
844.5023	894.3069	2008.4	1147.3
844.6475	896.3416	1966.85	1104.25
844.7926	898.3757	1941.4	1081
844.9377	900.4091	1914.8	1051.8
845.0829	902.4418	1920.6	1054.15
845.228	904.4739	1928.3	1065.05
845.3732	906.5052	1944.55	1081.6
845.5183	908.5358	1935.45	1076.7
845.6635	910.5658	1931.75	1068.85
845.8086	912.595	1899.5	1038.2
845.9538	914.6236	1868.15	1006.3
846.0989	916.6515	1858.35	997.7
846.2441	918.6786	1837.55	975.55
846.3892	920.7051	1826	960.75
846.5344	922.7309	1831.7	968.85
846.6795	924.756	1827.1	964.3
846.8246	926.7804	1830.5	964.1
846.9698	928.8041	1829.4	964.75
847.1149	930.8272	1851.3	989.5
847.2601	932.8495	1849.3	983.1
847.4052	934.8711	1860.25	998.5
847.5504	936.892	1867.15	1003.15
847.6955	938.9123	1868.85	1004.15
847.8407	940.9318	1884.55	1019.85
847.9858	942.9506	1891.85	1025.55
848.131	944.9688	1892.35	1027.75
848.2761	946.9862	1875.9	1011.15
848.4213	949.003	1845.65	979.6
848.5664	951.019	1826.6	960.9
848.7115	953.0344	1816.85	950.35
848.8567	955.0491	1808.9	942.4
849.0018	957.063	1812.05	944.4
849.147	959.0763	1801.6	934.8
849.2921	961.0888	1803.55	935.2
849.4373	963.1007	1796.15	929.2
849.5824	965.1119	1789	923.45
849.7275	967.1223	1780.2	914.1
849.8727	969.1321	1778.85	914.05
850.0178	971.1412	1781.65	914.7
850.1629	973.1495	1761.1	892.8
850.3081	975.1572	1811.2	889.65
850.4532	977.1641	1770.9	906.9
850.5983	979.1704	1768.7	899.2
850.7435	981.1759	1765.25	895.2
850.8886	983.1808	1756.7	889.15
851.0337	985.1849	1752.3	872.3
851.1788	987.1884	1748.2	878.1
851.324	989.1911	1754.6	883.4
851.4691	991.1932	1756.75	886.3
851.6142	993.1945	1758.25	891.25
851.7593	995.1951	1749.2	882.4
851.9045	997.1951	1756.9	882.8
852.0496	999.1943	1748.9	881.35
852.1947	1001.1928	1738.45	870.45
852.3398	1003.1906	1750.55	882.75
852.4849	1005.1877	1767.85	898.55
852.63	1007.1841	1779.3	910.1
852.7751	1009.1798	1794	926.55
852.9202	1011.1748	1785.35	915.95
853.0653	1013.1691	1764.45	892.65
853.2104	1015.1627	1741.5	871.75
853.3555	1017.1556	1721.85	851.15
853.5006	1019.1477	1716.45	845.05
853.6457	1021.1392	1685.45	816.45
853.7908	1023.1299	1676.45	807
853.9359	1025.12	1685.4	815.05
854.081	1027.1093	1683.8	812.4
854.2261	1029.0979	1688.75	822.05
854.3712	1031.0859	1710.55	840
854.5163	1033.0731	1721.65	849.05
854.6613	1035.0596	1709.6	839.7
854.8064	1037.0454	1707.1	834.65
854.9515	1039.0304	1695.8	826.35
855.0965	1041.0148	1683.05	813.05
855.2416	1042.9985	1661.05	789.35
855.3867	1044.9814	1660.25	790.55
855.5317	1046.9636	1651.9	779.35
855.6768	1048.9452	1652.1	782.3
855.8219	1050.926	1661.4	792.7
855.9669	1052.9061	1673.1	803.4
856.112	1054.8855	1677.25	805.9
856.257	1056.8642	1675.4	805.35
856.4021	1058.8421	1677.2	801.9
856.5471	1060.8194	1676.25	804.5
856.6921	1062.7959	1667.75	797.2
856.8372	1064.7717	1673.95	801.05
856.9822	1066.7469	1667.6	795.7
857.1272	1068.7213	1666.05	791.2
857.2723	1070.695	1671	797.95
857.4173	1072.6679	1682.9	808.9
857.5623	1074.6402	1699.3	827.05
857.7073	1076.6117	1701.65	826.65
857.8523	1078.5826	1694	821.1
857.9973	1080.5527	1669.4	793.65
858.1423	1082.5221	1648.15	776.1
858.2873	1084.4908	1628.4	754.4
858.4323	1086.4587	1615.6	741.25
858.5773	1088.426	1603.4	728.95
858.7223	1090.3925	1600.95	722.2
858.8673	1092.3584	1611.65	740.4
859.0123	1094.3235	1611.3	737.05
859.1573	1096.2879	1618.45	742.9
859.3022	1098.2515	1629.6	754.4
859.4472	1100.2145	1649.15	774.75
859.5922	1102.1767	1664.05	786.1
859.7371	1104.1382	1689.15	817.7
859.8821	1106.099	1733.3	858.8
860.027	1108.0591	1760.7	887.7
860.172	1110.0185	1778.1	902.85
860.3169	1111.9771	1804.9	931.1
860.4619	1113.9351	1847.25	972.35
860.6068	1115.8923	1889.6	1015.7
860.7517	1117.8488	1909.3	1033.1
860.8967	1119.8045	1883.05	1010.1
861.0416	1121.7596	1817.4	942
861.1865	1123.7139	1740.35	864.4
861.3314	1125.6675	1697.05	822.15
861.4763	1127.6204	1688.75	813.2
861.6212	1129.5726	1700.55	823.9
861.7661	1131.524	1713.2	838.25
861.911	1133.4748	1681.8	805.5
862.0559	1135.4248	1634.55	756.65
862.2008	1137.3741	1606.95	733.3
862.3457	1139.3226	1581.65	706
862.4905	1141.2705	1580	704.9
862.6354	1143.2176	1588.9	707.5
862.7803	1145.164	1596.65	718.75
862.9251	1147.1097	1593.35	717.8
863.07	1149.0546	1582.65	705.55
863.2148	1150.9989	1567.7	692.25
863.3597	1152.9424	1551.7	673.4
863.5045	1154.8852	1544.6	667.75
863.6493	1156.8272	1537.45	662.5
863.7942	1158.7686	1541.65	657.95
863.939	1160.7092	1529.3	652.85
864.0838	1162.6491	1540.1	662.4
864.2286	1164.5883	1534.15	660.1
864.3734	1166.5267	1551.75	673.2
864.5182	1168.4644	1566.2	689.5
864.663	1170.4014	1573	691.2
864.8078	1172.3377	1597.55	721.6
864.9526	1174.2732	1624.45	748.7
865.0974	1176.2081	1676	799.8
865.2421	1178.1421	1772.15	891
865.3869	1180.0755	1848.3	972.3
865.5317	1182.0082	1892.2	1014.1
865.6764	1183.9401	1890.3	1012.65
865.8212	1185.8713	1828.5	950.75
865.9659	1187.8017	1736.3	861.25
866.1106	1189.7315	1666.7	791.75
866.2554	1191.6605	1637.25	730.35
866.4001	1193.5888	1579.65	701.4
866.5448	1195.5163	1558.45	680.55
866.6895	1197.4432	1537.4	659.75
866.8342	1199.3693	1529.85	653.7
866.9789	1201.2947	1519.5	637.7
867.1236	1203.2193	1505.05	626.65
867.2683	1205.1432	1511.2	632.65
867.413	1207.0664	1506.4	627.45
867.5576	1208.9889	1510	629.7
867.7023	1210.9106	1502.85	625.4
867.847	1212.8316	1496.6	618.5
867.9916	1214.7519	1510.15	621.8
868.1363	1216.6715	1510.55	632.2
868.2809	1218.5903	1515.35	638.85
868.4255	1220.5084	1526	648.25
868.5701	1222.4257	1540	661
868.7148	1224.3424	1548.45	670.25
868.8594	1226.2583	1558	674.8
869.004	1228.1735	1560.25	683.35
869.1486	1230.0879	1589.15	709.45
869.2932	1232.0016	1612	734.85
869.4377	1233.9146	1636.3	755.6
869.5823	1235.8269	1644.2	766.65
869.7269	1237.7384	1645.65	767.65
869.8715	1239.6492	1648.5	769.8
870.016	1241.5592	1658.1	778.95
870.1606	1243.4686	1683.55	805.65
870.3051	1245.3772	1720.4	839.3
870.4496	1247.285	1779.3	899.45
870.5941	1249.1922	1822.65	944.2
870.7387	1251.0986	1873.3	995.15
870.8832	1253.0042	1922.8	1041.1
871.0277	1254.9092	1978.4	1099.5
871.1722	1256.8134	2030.1	1151.8
871.3167	1258.7169	2085.65	1205.7
871.4611	1260.6196	2134.2	1256
871.6056	1262.5216	2149.6	1267.35
871.7501	1264.4229	2145.05	1267.5
871.8945	1266.3234	2123.95	1244.6
872.039	1268.2232	2083.15	1202.7
872.1834	1270.1223	2057.2	1175.25
872.3278	1272.0207	2012.9	1133.65
872.4723	1273.9183	1995.55	1109.9
872.6167	1275.8151	1999.75	1120
872.7611	1277.7113	2032.2	1150.05
872.9055	1279.6067	2086	1206.45
873.0499	1281.5014	2172.4	1287.8
873.1943	1283.3953	2293.6	1414.05
873.3386	1285.2885	2418.1	1537.35
873.483	1287.181	2526.5	1645.6
873.6274	1289.0727	2569.05	1689.85
873.7717	1290.9637	2530.1	1648.6
873.9161	1292.854	2447.7	1567.15
874.0604	1294.7435	2360.4	1479.15
874.2047	1296.6323	2293.45	1413.45
874.349	1298.5204	2210.9	1325.45
874.4933	1300.4077	2159.8	1278.85
874.6376	1302.2943	2111	1230.4
874.7819	1304.1802	2097.6	1217.85
874.9262	1306.0653	2063.65	1180.85
875.0705	1307.9497	2053.45	1172.15
875.2147	1309.8333	2034.65	1152.85
875.359	1311.7162	2017.4	1137
875.5032	1313.5984	1997.75	1113.15
875.6475	1315.4798	1998.8	1109.55
875.7917	1317.3605	1996.1	1099.4
875.9359	1319.2405	1991.2	1108
876.0801	1321.1197	1992	1108.8
876.2243	1322.9982	1961.7	1073.5
876.3685	1324.876	1931.4	1049.25
876.5127	1326.753	1866.15	985.75
876.6569	1328.6293	1804.75	920.5
876.801	1330.5048	1743	860.55
876.9452	1332.3796	1696.25	815.15
877.0893	1334.2537	1676	769.4
877.2335	1336.127	1620.25	739.4
877.3776	1337.9996	1597.35	716.5
877.5217	1339.8714	1586	704.5
877.6658	1341.7426	1615.2	690.8
877.8099	1343.6129	1560.95	678.75
877.954	1345.4826	1548	666.95
878.0981	1347.3515	1539.5	655.9
878.2422	1349.2196	1528.55	647.1
878.3862	1351.087	1529.35	647.55
878.5303	1352.9537	1524.25	643.35
878.6743	1354.8197	1523.05	639.75
878.8184	1356.6849	1531.1	650.15
878.9624	1358.5493	1532.25	648.95
879.1064	1360.4131	1544.35	661.4
879.2504	1362.276	1575.75	694.3
879.3944	1364.1383	1602.95	724.5
879.5384	1365.9998	1614.85	727.15
879.6823	1367.8606	1595.05	713.55
879.8263	1369.7206	1596.1	714.15
879.9702	1371.5799	1594.1	713.25
880.1142	1373.4384	1596.35	714
880.2581	1375.2962	1567.65	682.1
880.402	1377.1533	1541.1	658.2
880.5459	1379.0096	1510.7	627.5
880.6898	1380.8652	1490.8	608.6
880.8337	1382.7201	1469	587.5
880.9776	1384.5742	1449	566.95
881.1215	1386.4275	1432.8	548.7
881.2653	1388.2802	1427.25	546.55
881.4092	1390.132	1416.2	532.6
881.553	1391.9832	1415.6	533.95
881.6968	1393.8336	1398.6	516.6
881.8406	1395.6832	1406.7	522.3
881.9844	1397.5322	1393.5	510.95
882.1282	1399.3803	1391.7	504
882.272	1401.2278	1379.65	497.15
882.4158	1403.0745	1376	494.55
882.5595	1404.9204	1369.05	487.7
882.7033	1406.7656	1365.3	483.5
882.847	1408.6101	1363.65	478.8
882.9908	1410.4538	1353.7	471.85
883.1345	1412.2968	1358.15	476.4
883.2782	1414.139	1353.45	472.15
883.4219	1415.9805	1360.7	479.55
883.5656	1417.8213	1375.7	487.6
883.7092	1419.6613	1381.05	498.4
883.8529	1421.5006	1393.7	510.5
883.9965	1423.3391	1426.1	542.35
884.1402	1425.1769	1454.8	569.75
884.2838	1427.0139	1495.45	612.15
884.4274	1428.8502	1553.9	668.25
884.571	1430.6858	1607.85	727.2
884.7146	1432.5206	1615.85	731.6
884.8582	1434.3547	1613.95	730.55
885.0018	1436.188	1598.85	715.75
885.1453	1438.0206	1582.1	699.75
885.2889	1439.8524	1586.1	701.3
885.4324	1441.6835	1578	694.4
885.5759	1443.5139	1581.7	691.35
885.7194	1445.3435	1584.15	701
885.8629	1447.1724	1578.6	695.55
886.0064	1449.0005	1577.3	696.75
886.1499	1450.8279	1566.9	680.9
886.2933	1452.6545	1565.6	684.6
886.4368	1454.4804	1568.15	685.35
886.5802	1456.3056	1558.6	670.4
886.7237	1458.13	1543.1	661.65
886.8671	1459.9536	1538.4	654.3
887.0105	1461.7766	1518.85	634.5
887.1539	1463.5987	1485.25	599.75
887.2972	1465.4202	1463.05	579.15
887.4406	1467.2409	1434.5	550.3
887.584	1469.0608	1407.3	523.95
887.7273	1470.88	1390.25	505.2
887.8706	1472.6984	1369.35	486.75
888.0139	1474.5161	1369.8	484
888.1572	1476.3331	1354.05	471.2
888.3005	1478.1493	1338.45	454.2
888.4438	1479.9648	1346.55	463.05
888.5871	1481.7795	1342.85	459.1
888.7303	1483.5935	1343.3	459.1
888.8736	1485.4067	1339.6	457
889.0168	1487.2192	1338.65	454.6
889.16	1489.031	1343.45	458
889.3032	1490.842	1342.95	458.65
889.4464	1492.6522	1338.9	456.15
889.5896	1494.4618	1338	454.05
889.7327	1496.2705	1335.25	451.15
889.8759	1498.0785	1329.9	447.15
890.019	1499.8858	1327.15	441.8
890.1622	1501.6924	1318	434.8
890.3053	1503.4981	1316.35	432.2
890.4484	1505.3032	1318.7	434.75
890.5914	1507.1075	1311.3	426.35
890.7345	1508.911	1306.8	423.8
890.8776	1510.7138	1301.25	416.5
891.0206	1512.5159	1294.65	411.8
891.1637	1514.3172	1295.1	411.4
891.3067	1516.1178	1286.85	403.65
891.4497	1517.9176	1285.45	399.55
891.5927	1519.7166	1279.7	396.75
891.7357	1521.515	1284.6	392.4
891.8786	1523.3126	1278.25	391.65
892.0216	1525.1094	1276.65	391.15
892.1645	1526.9055	1267.1	384.2
892.3074	1528.7008	1265.85	381.2
892.4503	1530.4954	1265.7	374.55
892.5932	1532.2893	1258.2	374.4
892.7361	1534.0824	1264.4	374.8
892.879	1535.8747	1252.55	366.05
893.0218	1537.6663	1255	369.5
893.1647	1539.4572	1258.7	374.3
893.3075	1541.2473	1250	366.3
893.4503	1543.0367	1248.2	364.15
893.5931	1544.8253	1254.55	363.75
893.7359	1546.6132	1256.95	369.25
893.8787	1548.4003	1268	373.85
894.0214	1550.1867	1268.15	376.6
894.1642	1551.9723	1268.75	380.35
894.3069	1553.7572	1270.7	383.05
894.4496	1555.5414	1282	397.1
894.5923	1557.3247	1299.95	412.4
894.735	1559.1074	1316.75	431.05
894.8777	1560.8893	1339.8	454.9
895.0204	1562.6705	1365.2	478.75
895.163	1564.4509	1378.95	495.3
895.3056	1566.2305	1390.1	505.5
895.4482	1568.0094	1390	506.1
895.5908	1569.7876	1392.35	507.05
895.7334	1571.565	1385	500.85
895.876	1573.3417	1385.35	500.6
896.0186	1575.1176	1386.9	501.3
896.1611	1576.8928	1394.5	510.25
896.3036	1578.6672	1408.15	522.1
896.4461	1580.4409	1426.5	542.45
896.5886	1582.2138	1438.9	551.75
896.7311	1583.986	1467.7	584.15
896.8736	1585.7575	1481.35	596.7
897.0161	1587.5282	1511.25	628.6
897.1585	1589.2981	1534.2	649.85
897.3009	1591.0673	1540.3	656.05
897.4433	1592.8358	1547.2	663.2
897.5857	1594.6035	1544.1	656
897.7281	1596.3704	1534.1	649.3
897.8705	1598.1366	1517.2	632.05
898.0128	1599.9021	1501.55	619.15
898.1551	1601.6668	1487.35	598.75
898.2975	1603.4308	1471.15	585.65
898.4398	1605.194	1470.7	581.55
898.5821	1606.9564	1485.45	602
898.7243	1608.7182	1516.25	625.55
898.8666	1610.4791	1560.8	675.1
899.0088	1612.2394	1618.45	734.55
899.1511	1613.9988	1679.05	795.7
899.2933	1615.7576	1742.4	855.4
899.4355	1617.5156	1769.5	878.7
899.5776	1619.2728	1751.9	865.7
899.7198	1621.0293	1694.85	812.1
899.862	1622.785	1631.15	741.1
900.0041	1624.54	1561.25	672.45
900.1462	1626.2942	1487.4	600.4
900.2883	1628.0477	1417.35	530.8
900.4304	1629.8005	1368.95	480.9
900.5725	1631.5525	1326.85	440
900.7145	1633.3037	1299.6	412.15
900.8566	1635.0542	1268.8	384.35
900.9986	1636.804	1249.8	363.8
901.1406	1638.553	1300.1	348.5
901.2826	1640.3013	1221.75	336.45
901.4245	1642.0488	1214.15	328.25
901.5665	1643.7955	1196.85	312.95
901.7085	1645.5416	1194.7	309.6
901.8504	1647.2868	1192.3	307.1
901.9923	1649.0313	1184.05	301.45
902.1342	1650.7751	1183.75	292.9
902.2761	1652.5181	1179.2	293.2
902.4179	1654.2604	1176.55	291.15
902.5598	1656.0019	1177.1	292.15
902.7016	1657.7427	1179.7	294.65
902.8434	1659.4828	1194.4	309.45
902.9852	1661.222	1206.35	319.65
903.127	1662.9606	1230.6	345.45
903.2687	1664.6984	1250.6	363.95
903.4105	1666.4354	1260.25	374.6
903.5522	1668.1717	1250.85	363.45
903.6939	1669.9072	1226.05	341.05
903.8356	1671.642	1204.4	316.4
903.9773	1673.3761	1177	291.4
904.119	1675.1094	1159.5	273.6
904.2606	1676.8419	1146.2	260.55
904.4022	1678.5737	1138.6	252.45
904.5439	1680.3048	1129.25	243.55
904.6855	1682.0351	1125.4	240.25
904.827	1683.7646	1119.6	231.6
904.9686	1685.4934	1114.45	230.1
905.1101	1687.2215	1116.2	230.7
905.2517	1688.9488	1107.45	222.6
905.3932	1690.6754	1106.55	222.3
905.5347	1692.4012	1108	224.55
905.6761	1694.1263	1106.55	220.1
905.8176	1695.8506	1103.65	217.3
905.9591	1697.5742	1105.55	218.95
906.1005	1699.297	1101.8	214.6
906.2419	1701.0191	1098.65	212.1
906.3833	1702.7404	1097.65	212.15
906.5246	1704.461	1100.55	213.2
906.666	1706.1808	1092.05	206.1
906.8073	1707.8999	1098.1	211.35
906.9487	1709.6182	1092.45	207.25
907.09	1711.3358	1095.95	210.5
907.2313	1713.0527	1090.2	205.1
907.3725	1714.7688	1092.85	201.65
907.5138	1716.4841	1086.65	198.25
907.655	1718.1987	1093.7	200.9
907.7962	1719.9126	1087.65	200.95
907.9374	1721.6257	1089.1	200.15
908.0786	1723.338	1081.15	193.7
908.2198	1725.0496	1086.9	198.6
908.3609	1726.7605	1085.15	199.65
908.502	1728.4706	1079.95	191.65
908.6431	1730.18	1084.95	196.4
908.7842	1731.8886	1080.85	194
908.9253	1733.5964	1099.7	193.35
909.0664	1735.3036	1080.65	191.4
909.2074	1737.0099	1079.95	193.25
909.3484	1738.7156	1077.75	191.55
909.4894	1740.4204	1082.2	193.5
909.6304	1742.1246	1076.65	189.25
909.7714	1743.8279	1077.9	191.5
909.9123	1745.5306	1081.05	194
910.0532	1747.2325	1074	186.75
910.1941	1748.9336	1074.05	188.35
910.335	1750.634	1075.75	189.15
910.4759	1752.3336	1075.5	187.25
910.6168	1754.0325	1073.65	186.1
910.7576	1755.7307	1072.6	185.65
910.8984	1757.4281	1080.4	194.75
911.0392	1759.1247	1083.9	189.65
911.18	1760.8206	1076.95	186.5
911.3208	1762.5158	1074.45	187.25
911.4615	1764.2102	1072.1	187.45
911.6022	1765.9039	1065.35	179.45
911.7429	1767.5968	1072.95	185.65
911.8836	1769.289	1068.25	184
912.0243	1770.9804	1067.2	179.85
912.1649	1772.6711	1068.3	182.15
912.3056	1774.361	1068	180.6
912.4462	1776.0502	1066.55	180.55
912.5868	1777.7386	1070.45	180.95
912.7274	1779.4263	1069.1	181.65
912.8679	1781.1132	1068.75	181.85
913.0084	1782.7994	1068.85	181.55
913.149	1784.4849	1062.45	178.45
913.2895	1786.1696	1084.45	180.95
913.4299	1787.8535	1067.3	180.6
913.5704	1789.5367	1064.9	178.8
913.7108	1791.2192	1064.3	179.1
913.8513	1792.9009	1076.8	176.35
913.9917	1794.5818	1067.65	180.8
914.132	1796.2621	1058.8	175.2
914.2724	1797.9415	1062.3	173.85
914.4128	1799.6202	1060.6	174
914.5531	1801.2982	1059.55	172.15
914.6934	1802.9755	1056.4	169.1
914.8337	1804.6519	1062.85	177.05
914.9739	1806.3277	1056.2	171.15
915.1142	1808.0027	1060.95	174.95
915.2544	1809.6769	1058.45	173
915.3946	1811.3504	1054.9	165.15
915.5348	1813.0231	1060.15	172
915.675	1814.6951	1056	171.3
915.8151	1816.3664	1056.3	166.9
915.9553	1818.0369	1057.15	169.8
916.0954	1819.7067	1058.3	171.05
916.2355	1821.3757	1055.45	169.3
916.3755	1823.044	1053.85	167.3
916.5156	1824.7115	1055.95	169.7
916.6556	1826.3783	1049.85	166.9
916.7956	1828.0443	1052.5	168.85
916.9356	1829.7096	1055.6	169.3
917.0756	1831.3741	1060.05	170.65
917.2155	1833.0379	1052.3	165.9
917.3555	1834.701	1054.85	166.6
917.4954	1836.3633	1052.05	164
917.6353	1838.0248	1051.5	162.9
917.7751	1839.6856	1045.4	159.25
917.915	1841.3457	1046.85	160.95
918.0548	1843.005	1047.45	161.9
918.1946	1844.6636	1045.6	161.8
918.3344	1846.3214	1052.15	165.6
918.4742	1847.9785	1043.85	158.1
918.6139	1849.6349	1044.55	157.5
918.7537	1851.2904	1059.95	165.1
918.8934	1852.9453	1050.15	163.2
919.0331	1854.5994	1045.2	158.65
919.1727	1856.2528	1051.2	160
919.3124	1857.9054	1047.65	161.2
919.452	1859.5572	1045.85	160.55
919.5916	1861.2083	1047.25	161.35
919.7312	1862.8587	1043	156.35
919.8708	1864.5084	1039.4	151.5
920.0103	1866.1572	1042	156.45
920.1498	1867.8054	1042.65	157
920.2893	1869.4528	1037.55	152.7
920.4288	1871.0994	1042.25	156.65
920.5683	1872.7453	1046.65	159.85
920.7077	1874.3905	1050.45	155.55
920.8471	1876.0349	1044.25	158.55
920.9865	1877.6786	1043.85	155.85
921.1259	1879.3215	1040.6	155.2
921.2653	1880.9637	1038.55	150.6
921.4046	1882.6051	1042.3	155.55
921.5439	1884.2458	1046.25	156.75
921.6832	1885.8858	1040.85	153.35
921.8225	1887.525	1039.9	152.9
921.9617	1889.1634	1039.7	153
922.101	1890.8011	1037.9	151.05
922.2402	1892.4381	1037.85	153.3
922.3794	1894.0743	1036.75	150.25
922.5185	1895.7098	1037.95	152.4
922.6577	1897.3446	1040.35	153.3
922.7968	1898.9786	1041.65	152.45
922.9359	1900.6118	1039.45	153.35
923.075	1902.2443	1039.15	148.45
923.214	1903.8761	1033.9	148.4
923.3531	1905.5071	1037.05	149.4
923.4921	1907.1374	1034.2	147.1
923.6311	1908.7669	1035.1	149.2
923.77	1910.3957	1030.3	143.95
923.909	1912.0237	1030.6	144.8
924.0479	1913.651	1035.6	148.65
924.1868	1915.2776	1029.5	142.85
924.3257	1916.9034	1031.95	148.2
924.4646	1918.5285	1028.4	141.6
924.6034	1920.1528	1029.1	140.6
924.7422	1921.7764	1032.45	147.9
924.881	1923.3992	1030.5	145.05
925.0198	1925.0213	1028.05	141.55
925.1586	1926.6427	1024.35	138.6
925.2973	1928.2633	1134.95	143.3
925.436	1929.8832	1029.9	141.45
925.5747	1931.5023	1028.55	142.25
925.7134	1933.1207	1028.6	143.7
925.852	1934.7383	1028.05	141.55
925.9906	1936.3552	1026.95	139.3
926.1292	1937.9714	1025	139.6
926.2678	1939.5868	1024.55	135.95
926.4064	1941.2015	1025.35	138.6
926.5449	1942.8154	1024.8	138
926.6834	1944.4286	1019.85	133
926.8219	1946.041	1050	141.65
926.9604	1947.6528	1027.55	134.95
927.0988	1949.2637	1019.9	135.75
927.2372	1950.8739	1025.45	139.15
927.3756	1952.4834	1021.8	136.85
927.514	1954.0921	1022.55	135.85
927.6523	1955.7001	1028.15	138.3
927.7907	1957.3074	1021.25	134.75
927.929	1958.9139	1022.4	136
928.0673	1960.5197	1023.4	134
928.2055	1962.1247	1019.15	132.95
928.3438	1963.729	1018	132.45
928.482	1965.3325	1041.2	129.65
928.6202	1966.9353	1020.4	135.4
928.7584	1968.5374	1019.75	131.8
928.8965	1970.1387	1018.15	132.1
929.0346	1971.7393	1015.6	128.4
929.1727	1973.3392	1014.05	128.1
929.3108	1974.9383	1014.5	127.5
929.4489	1976.5366	1018.05	129.3
929.5869	1978.1342	1014.55	128.45
929.7249	1979.7311	1017.4	129.15
929.8629	1981.3273	1015.25	128.8
930.0009	1982.9227	1016.65	127.6
930.1388	1984.5173	1016.45	130.6
930.2767	1986.1112	1012.9	125.45
930.4146	1987.7044	1013.1	128.4
930.5525	1989.2968	1015.5	126.7
930.6904	1990.8885	1014.65	124.75
930.8282	1992.4795	1020.95	131.2
930.966	1994.0697	1012.35	125.3
931.1038	1995.6592	1011.15	124.5
931.2415	1997.2479	1015.45	129.3
931.3793	1998.8359	1014.25	126.85
931.517	2000.4232	1011.85	124.7
931.6547	2002.0097	1007.7	120.35
931.7923	2003.5955	1007.2	120.95
931.93	2005.1805	1015.1	126.8
932.0676	2006.7648	1011.45	126.55
932.2052	2008.3484	1012.15	125.35
932.3427	2009.9312	1014.4	124.15
932.4803	2011.5133	1013.95	127.75
932.6178	2013.0946	1011.8	125.5
932.7553	2014.6752	1010.15	126.25
932.8928	2016.2551	1010.8	122.2
933.0302	2017.8342	1010.1	123.7
933.1676	2019.4126	1009.95	124.5
933.305	2020.9902	1004.95	117.4
933.4424	2022.5672	1008.8	122.1
933.5798	2024.1433	1016.5	124.2
933.7171	2025.7188	1008.35	121.45
933.8544	2027.2935	1013.25	126.25
933.9917	2028.8674	1011.1	124.25
934.129	2030.4406	1004.75	117.6
934.2662	2032.0131	1008	121.95
934.4034	2033.5849	1009.65	117.45
934.5406	2035.1559	1006.4	121.1
934.6778	2036.7261	1007.75	122.9
934.8149	2038.2957	1004.95	120.6
934.952	2039.8645	1009.55	124.35
935.0891	2041.4325	1012.3	122.5
935.2262	2042.9998	1004.8	117
935.3632	2044.5664	1015.55	127.55
935.5002	2046.1323	1005.1	118.3
935.6372	2047.6974	1007.85	121.1
935.7742	2049.2617	1003.35	116.1
935.9111	2050.8254	1035.75	114.95
936.048	2052.3883	1006.65	118.75
936.1849	2053.9504	1003.85	116.3
936.3218	2055.5118	1006.05	118
936.4586	2057.0725	1009.75	117.6
936.5955	2058.6325	1002.75	114.8
936.7323	2060.1917	1001.95	113.95
936.869	2061.7502	1006.15	117.65
937.0058	2063.3079	1001.55	116.25
937.1425	2064.8649	1008.2	115.95
937.2792	2066.4212	1004.55	116.6
937.4159	2067.9767	1001.9	117
937.5525	2069.5315	1002.15	116.1
937.6891	2071.0856	1005.6	119.2
937.8257	2072.6389	1002.85	113.4
937.9623	2074.1915	1004.25	120.3
938.0989	2075.7433	1007.3	117.6
938.2354	2077.2945	1001.7	115.65
938.3719	2078.8448	1001.25	115.25
938.5084	2080.3945	1000.35	115.2
938.6448	2081.9434	1006.85	121.45
938.7812	2083.4916	1003.1	117.5
938.9176	2085.039	1000.2	110.7
939.054	2086.5857	1005.45	118.1
939.1903	2088.1317	1001.1	114.8
939.3267	2089.677	1003.65	118.2
939.463	2091.2215	999.95	114.05
939.5992	2092.7652	1001.1	115.5
939.7355	2094.3083	1000	113.4
939.8717	2095.8506	996.7	110
940.0079	2097.3921	1001.45	115.95
940.1441	2098.933	1001.3	113.05
940.2802	2100.4731	996.55	110.6
940.4163	2102.0124	1004.6	110.9
940.5524	2103.5511	1001.85	115.95
940.6885	2105.089	1000.15	114
940.8245	2106.6261	1001.4	115.35
940.9606	2108.1626	1002.4	114.95
941.0965	2109.6983	1031.35	115.8
941.2325	2111.2332	1001.95	115.4
941.3684	2112.7675	999.35	113.2
941.5044	2114.301	1001.8	113.8
941.6403	2115.8337	999.1	113.7
941.7761	2117.3657	998.2	111.1
941.912	2118.897	1000.4	111.25
942.0478	2120.4276	1007	115.8
942.1835	2121.9575	1001.7	116.8
942.3193	2123.4866	1012.05	111.65
942.455	2125.0149	999.15	110.45
942.5907	2126.5426	997.25	109.7
942.7264	2128.0695	1001.75	113.5
942.8621	2129.5956	997.35	113
942.9977	2131.1211	1006.35	115.3
943.1333	2132.6458	998.4	113.2
943.2689	2134.1698	999.3	113
943.4044	2135.693	996.5	106.4
943.54	2137.2155	996.05	107.3
943.6755	2138.7373	999.5	112.75
943.8109	2140.2584	995.6	109.3
943.9464	2141.7787	1001.55	111.05
944.0818	2143.2983	1001.1	115.05
944.2172	2144.8171	996.1	111.6
944.3526	2146.3353	999.75	109.4
944.4879	2147.8527	994.5	108.6
944.6232	2149.3693	999.7	112.6
944.7585	2150.8853	993.05	105.45
944.8938	2152.4005	995.45	110.45
945.029	2153.9149	996.5	108.7
945.1642	2155.4287	992.5	107.55
945.2994	2156.9417	993.35	104.25
945.4346	2158.454	999.05	108.25
945.5697	2159.9655	996.15	110.7
945.7048	2161.4764	992.75	105.9
945.8399	2162.9865	996.65	111.05
945.9749	2164.4958	995.15	107.4
946.1099	2166.0045	996.75	106.15
946.2449	2167.5124	994.15	105.55
946.3799	2169.0195	994.6	108.8
946.5148	2170.526	996.25	109.7
946.6498	2172.0317	991.5	105.1
946.7846	2173.5367	993.1	104.95
946.9195	2175.0409	989.45	104.4
947.0543	2176.5445	996.15	110.55
947.1891	2178.0473	993.6	107.75
947.3239	2179.5494	999.9	109.45
947.4587	2181.0507	992.6	105.9
947.5934	2182.5513	995.4	109.15
947.7281	2184.0512	989.35	103.6
947.8628	2185.5504	991.85	105.35
947.9974	2187.0488	991.25	105.75
948.132	2188.5465	992.35	105.15
948.2666	2190.0435	992.25	105.4
948.4012	2191.5397	989.6	102.6
948.5357	2193.0353	989.3	103.1
948.6702	2194.5301	988.75	101.25
948.8047	2196.0241	990.6	102.4
948.9392	2197.5175	988	100.35
949.0736	2199.0101	994.6	104.15
949.208	2200.502	982.35	96.55
949.3424	2201.9931	992.05	106.2
949.4767	2203.4835	993.45	105.05
949.611	2204.9733	995.3	102.8
949.7453	2206.4622	992.35	105.7
949.8796	2207.9505	991.15	100
950.0138	2209.438	984.3	98.95
950.148	2210.9248	987.1	100.15
950.2822	2212.4109	988	102.1
950.4164	2213.8962	984.25	96.5
950.5505	2215.3809	988.25	99.2
950.6846	2216.8648	983.5	98.6
950.8186	2218.3479	991.15	98.15
950.9527	2219.8304	989.5	100.7
951.0867	2221.3121	987.5	99
951.2207	2222.7931	984.35	96.7
951.3546	2224.2733	984.85	99.35
951.4886	2225.7529	986.05	100.5
951.6225	2227.2317	987.15	97.95
951.7563	2228.7098	986	101.7
951.8902	2230.1872	982.4	94.2
952.024	2231.6638	985.6	98.9
952.1578	2233.1397	987.9	96.95
952.2916	2234.6149	982.15	94.4
952.4253	2236.0894	987.2	98.9
952.559	2237.5632	992.8	94.85
952.6927	2239.0362	981.6	94.85
952.8263	2240.5085	982.5	96.55
952.9599	2241.9801	979.8	94.15
953.0935	2243.4509	979.6	95.25
953.2271	2244.921	979.9	92.85
953.3606	2246.3904	983.9	94.15
953.4941	2247.8591	975.6	90.7
953.6276	2249.3271	978.2	91.35
953.7611	2250.7943	981.95	94.7
953.8945	2252.2608	980	94.9
954.0279	2253.7266	977.15	91.25
954.1612	2255.1917	980.8	95
954.2946	2256.656	979	95.25
954.4279	2258.1197	977.9	92.55
954.5612	2259.5826	981.5	92.35
954.6944	2261.0447	979.5	91.15
954.8276	2262.5062	982.2	92.45
954.9608	2263.9669	982.2	95.4
955.094	2265.4269	975.75	88.65
955.2271	2266.8862	974.55	87.2
955.3602	2268.3448	976.1	90.5
955.4933	2269.8026	979.85	92.9
955.6264	2271.2598	978.1	90.3
955.7594	2272.7162	972.85	87
955.8924	2274.1719	972.65	85.65
956.0253	2275.6268	977.55	90
956.1583	2277.0811	976.85	90.2
956.2912	2278.5346	974.2	87
956.4241	2279.9874	975.5	89.3
956.5569	2281.4395	976.75	90.15
956.6897	2282.8908	979.6	88.15
956.8225	2284.3414	977.55	89.15
956.9553	2285.7914	970.9	83.35
957.088	2287.2406	971.9	82.8
957.2207	2288.689	973.1	87.5
957.3534	2290.1368	971.5	84.05
957.486	2291.5838	974.8	87.15
957.6186	2293.0302	978.05	88.9
957.7512	2294.4758	976.9	90.6
957.8838	2295.9206	975.75	87.25
958.0163	2297.3648	971.3	84.3
958.1488	2298.8082	973.4	85.4
958.2813	2300.251	972.05	85.8
958.4137	2301.693	972.85	84.25
958.5461	2303.1343	973.95	86.55
958.6785	2304.5748	973.6	85.55
958.8108	2306.0147	972.25	85.8
958.9432	2307.4538	973.65	84.25
959.0754	2308.8922	971.85	86.1
959.2077	2310.3299	972.9	83.65
959.3399	2311.7669	970.6	84.65
959.4721	2313.2031	972.5	86.55
959.6043	2314.6387	969.75	83.2
959.7365	2316.0735	968.85	81.75
959.8686	2317.5076	969.25	81.45
960.0006	2318.941	971.3	85.9
960.1327	2320.3737	972.4	85.3
960.2647	2321.8056	973.45	85.95
960.3967	2323.2369	974.2	87.9
960.5287	2324.6674	975.85	87.3
960.6606	2326.0972	974.25	83.8
960.7925	2327.5263	977.2	91.5
960.9244	2328.9547	976.85	87.8
961.0562	2330.3823	980.35	93.45
961.1881	2331.8092	975	83.9
961.3198	2333.2355	972.4	85.9
961.4516	2334.661	969.6	82.65
961.5833	2336.0858	966.75	79.55
961.715	2337.5098	970.25	82.3
961.8467	2338.9332	965.95	79.4
961.9783	2340.3558	969.4	77.8
962.1099	2341.7778	967.75	80.35
962.2415	2343.199	970.4	80.95
962.373	2344.6195	971.45	83.55
962.5045	2346.0393	967.15	80.45
962.636	2347.4583	968.1	81.95
962.7675	2348.8767	968.05	81.25
962.8989	2350.2943	965.4	77.7
963.0303	2351.7113	965.8	76
963.1617	2353.1275	965.35	78.85
963.293	2354.543	970.7	73.15
963.4243	2355.9578	962.9	76.05
963.5556	2357.3718	963.7	76.5
963.6868	2358.7852	967.4	76.05
963.818	2360.1978	964.9	77.65
963.9492	2361.6098	964.05	77.1
964.0803	2363.021	965.95	74.2
964.2114	2364.4315	961.1	73.8
964.3425	2365.8413	965.3	76.65
964.4736	2367.2504	962.2	74.9
964.6046	2368.6587	963.95	78.9
964.7356	2370.0664	964.05	74.8
964.8666	2371.4733	961.8	74.3
964.9975	2372.8795	960.9	74.55
965.1284	2374.285	963.7	77.55
965.2593	2375.6899	961.85	75.2
965.3901	2377.0939	964.35	76.25
965.5209	2378.4973	960.25	72.9
965.6517	2379.9	960.5	73.7
965.7825	2381.3019	960.05	70.2
965.9132	2382.7032	960.7	76.15
966.0439	2384.1037	960.75	77.35
966.1745	2385.5035	963.35	77.1
966.3051	2386.9027	957.45	70.45
966.4357	2388.3011	966.15	73.75
966.5663	2389.6987	959	70.2
966.6968	2391.0957	958.65	73.65
966.8273	2392.492	958.15	71.6
966.9578	2393.8876	957.15	69.25
967.0882	2395.2824	960.7	73.6
967.2186	2396.6765	956.55	72.05
967.349	2398.07	952.85	65.9
967.4793	2399.4627	960	72.5
967.6097	2400.8547	957.65	69.65
967.7399	2402.246	964.95	73.15
967.8702	2403.6366	958.55	70.7
968.0004	2405.0265	956.85	71.85
968.1306	2406.4156	962.35	71.25
968.2607	2407.8041	959.15	69.6
968.3909	2409.1918	957.1	67.65
968.521	2410.5789	953.25	66.15
968.651	2411.9652	957.5	66.6
968.781	2413.3508	953.65	67.75
968.911	2414.7358	955.65	68.35
969.041	2416.12	953.3	67.5
969.1709	2417.5035	954.35	68.05
969.3008	2418.8863	955.5	68
969.4307	2420.2684	953.4	67.65
969.5606	2421.6497	954.9	68
969.6904	2423.0304	953.6	67.95
969.8201	2424.4104	954	67.2
969.9499	2425.7896	957.35	62.9
970.0796	2427.1682	952.15	65.6
970.2093	2428.546	953.35	65.6
970.3389	2429.9232	951.7	63.85
970.4685	2431.2996	953.8	68.65
970.5981	2432.6753	953.8	66.4
970.7277	2434.0503	956.5	70.95
970.8572	2435.4246	948.95	62.95
970.9867	2436.7982	954.1	66.15
971.1161	2438.1711	953.05	69.45
971.2456	2439.5433	951.6	63.25
971.375	2440.9148	956.3	65.75
971.5043	2442.2856	950.1	62.55
971.6336	2443.6557	951.5	63.6
971.7629	2445.025	949.75	63.25
971.8922	2446.3937	950.65	63.3
972.0214	2447.7617	950.45	62.5
972.1506	2449.1289	950.15	63.15
972.2798	2450.4955	955.4	63.9
972.4089	2451.8613	949.65	64.65
972.538	2453.2265	953.45	67
972.6671	2454.5909	949.8	61.3
972.7961	2455.9546	949.55	62.55
972.9251	2457.3177	946.1	57.75
973.0541	2458.68	950.85	63.25
973.1831	2460.0416	948.9	62.55
973.312	2461.4025	951.6	62.25
973.4408	2462.7627	962.3	64.5
973.5697	2464.1222	948.15	61.75
973.6985	2465.4811	951.5	62.6
973.8273	2466.8392	948.85	62.85
973.956	2468.1966	948.2	59.05
974.0847	2469.5533	953.15	64.05
974.2134	2470.9093	946.9	60.35
974.3421	2472.2645	948.25	58.75
974.4707	2473.6191	944.1	58.35
974.5993	2474.973	950.4	63.2
974.7278	2476.3262	951.35	62.5
974.8563	2477.6787	948.9	62.5
974.9848	2479.0305	950.35	64.1
975.1132	2480.3816	947.75	58.85
975.2417	2481.7319	944.95	57.25
975.37	2483.0816	947.95	60.7
975.4984	2484.4306	946	57.8
975.6267	2485.7789	947.3	61.35
975.755	2487.1264	949.7	62.1
975.8833	2488.4733	945	58.2
976.0115	2489.8195	965.85	60.95
976.1397	2491.165	950.6	61.15
976.2678	2492.5097	948.15	59.85
976.3959	2493.8538	944.85	59
976.524	2495.1972	947.65	59.9
976.6521	2496.5398	945.25	56.95
976.7801	2497.8818	946.45	56.1
976.9081	2499.2231	942.75	57.45
977.036	2500.5637	946.95	56.65
977.164	2501.9035	942.65	54.1
977.2918	2503.2427	950.05	60.7
977.4197	2504.5812	944.65	57.5
977.5475	2505.919	945.05	56.55
977.6753	2507.256	946.25	57
977.8031	2508.5924	944.05	56.5
977.9308	2509.9281	949.95	58.55
978.0585	2511.2631	941.7	54.35
978.1861	2512.5974	940.4	56.6
978.3137	2513.9309	944.05	55.25
978.4413	2515.2638	972.35	53.4
978.5689	2516.596	941.15	54.9
978.6964	2517.9275	944.7	56.75
978.8239	2519.2583	941.85	54.6
978.9513	2520.5884	944.85	56.05
979.0788	2521.9178	942.9	52.9
979.2062	2523.2465	943.3	54.7
979.3335	2524.5745	942.55	54.1
979.4608	2525.9018	944.15	58.85
979.5881	2527.2284	941.65	55.45
979.7154	2528.5543	939.65	53.15
979.8426	2529.8796	940.35	55.3
979.9698	2531.2041	941.1	53.8
980.0969	2532.5279	937.55	51.35
980.224	2533.851	941.85	54.2
980.3511	2535.1735	941.3	54.6
980.4781	2536.4952	939.45	52.2
980.6052	2537.8163	941.15	55.95
980.7321	2539.1366	939.9	53.75
980.8591	2540.4562	940	51.15
980.986	2541.7752	938.6	50.5
981.1129	2543.0935	939.85	53.4
981.2397	2544.411	943	55.15
981.3665	2545.7279	940.25	53.45
981.4933	2547.0441	939.9	52.55
981.62	2548.3596	941.8	52.05
981.7467	2549.6744	940.25	55.1
981.8734	2550.9885	942.5	52.85
982.0001	2552.3019	939.55	53.9
982.1267	2553.6146	939.05	51.7
982.2532	2554.9266	936.65	51.7
982.3798	2556.2379	939.85	51.2
982.5063	2557.5485	938.4	54.6
982.6327	2558.8585	944.95	51.75
982.7592	2560.1677	941.35	50.45
982.8856	2561.4762	937.9	50.1
983.0119	2562.7841	940.1	51.45
983.1383	2564.0913	936.15	50.95
983.2646	2565.3977	937.8	50.85
983.3908	2566.7035	934.4	47.35
983.517	2568.0086	938.55	50.55
983.6432	2569.313	938.35	49.55
983.7694	2570.6167	939	49
983.8955	2571.9197	935.15	50.75
984.0216	2573.222	941.55	53.05
984.1476	2574.5236	937.85	51.05
984.2737	2575.8246	938.85	48.9
984.3996	2577.1248	941.5	50.7
984.5256	2578.4244	931.5	43.05
984.6515	2579.7232	934.1	47.05
984.7774	2581.0214	971.55	52.25
984.9032	2582.3189	936.25	50.85
985.029	2583.6157	940.9	49.8
985.1548	2584.9118	937.45	50.85
985.2806	2586.2072	934.5	47.9
985.4063	2587.5019	934.75	50.05
985.5319	2588.7959	934.05	48.15
985.6576	2590.0893	937.45	49.25
985.7832	2591.3819	938.35	51.3
985.9087	2592.6739	933.8	48.75
986.0343	2593.9652	938.3	51.3
986.1597	2595.2557	937.65	49.2
986.2852	2596.5456	939.7	50.05
986.4106	2597.8348	935.45	51.05
986.536	2599.1234	936.55	50.45
986.6614	2600.4112	935.6	49.35
986.7867	2601.6983	939.35	49.35
986.912	2602.9848	936.25	51.4
987.0372	2604.2705	943.65	50.2
987.1624	2605.5556	933.7	48.7
987.2876	2606.84	933.45	46.15
987.4128	2608.1237	935	47.05
987.5379	2609.4067	933.6	48.85
987.6629	2610.689	943.35	47.25
987.788	2611.9707	938.4	48.85
987.913	2613.2516	939.85	47.95
988.0379	2614.5319	931.9	45.7
988.1629	2615.8115	933.25	49.15
988.2878	2617.0903	935.8	46.45
988.4126	2618.3685	932.5	43.9
988.5375	2619.6461	932.3	43.95
988.6622	2620.9229	934.8	50.4
988.787	2622.199	932.45	45.75
988.9117	2623.4745	935.25	46.3
989.0364	2624.7493	933.65	46.1
989.161	2626.0234	931.15	43.15
989.2857	2627.2968	930.9	43.8
989.4102	2628.5695	932.1	44.3
989.5348	2629.8415	931.65	44.45
989.6593	2631.1128	931.8	41.25
989.7837	2632.3835	931.65	45.05
989.9082	2633.6535	931.15	44.6
990.0326	2634.9228	930.95	43.65
990.1569	2636.1914	931.6	44.05
990.2812	2637.4593	937	44.1
990.4055	2638.7265	933.7	47.1
990.5298	2639.9931	931.25	44.8
990.654	2641.259	931.75	44
990.7782	2642.5242	930.65	42.55
990.9023	2643.7887	930.3	43.5
991.0264	2645.0525	929.35	41.6
991.1505	2646.3156	933.15	43.9
991.2745	2647.5781	928.3	42.2
991.3985	2648.8398	929.35	42.5
991.5225	2650.1009	968.2	43.95
991.6464	2651.3613	933.1	45.3
991.7703	2652.6211	927	38.85
991.8942	2653.8801	927.55	40.1
992.018	2655.1385	933	41.8
992.1418	2656.3961	928.05	41.6
992.2655	2657.6531	930.45	44.05
992.3892	2658.9094	926.55	38.95
992.5129	2660.1651	928.85	42.55
992.6366	2661.42	928.15	42.95
992.7602	2662.6743	929.8	40.55
992.8837	2663.9279	927.9	41.05
993.0073	2665.1808	928.85	40.9
993.1307	2666.433	928.3	40.05
993.2542	2667.6846	927.15	41.6
993.3776	2668.9354	929.35	38.45
993.501	2670.1856	930.45	43.35
993.6244	2671.4351	929.2	42.7
993.7477	2672.6839	930.2	42.15
993.8709	2673.9321	927.4	41.6
993.9942	2675.1795	927.35	39
994.1174	2676.4263	929.95	43.55
994.2405	2677.6724	929.15	43
994.3637	2678.9179	929.5	42.3
994.4868	2680.1626	925.9	41.55
994.6098	2681.4067	929.3	43.8
994.7328	2682.6501	929.6	42.4
994.8558	2683.8928	927.45	39.8
994.9788	2685.1348	924.55	40
995.1017	2686.3761	926.9	41.35
995.2245	2687.6168	927.55	41.2
995.3474	2688.8568	925.2	37.45
995.4702	2690.0961	923.85	36.95
995.5929	2691.3348	925.6	37.8
995.7156	2692.5727	927	41.5
995.8383	2693.81	925.6	39.15
995.961	2695.0466	922.8	37.45
996.0836	2696.2826	926.9	38.75
996.2062	2697.5178	927.25	37.5
996.3287	2698.7524	923	36.35
996.4512	2699.9863	926.9	39.35
996.5737	2701.2195	927.2	43.25
996.6961	2702.452	928.4	39.35
996.8185	2703.6839	925.8	38.1
996.9408	2704.9151	926.3	41.75
997.0631	2706.1456	927.8	42.85
997.1854	2707.3755	924.85	37.05
997.3077	2708.6046	931.7	43.7
997.4299	2709.8331	928.9	43.4
997.552	2711.0609	924.4	37.15
997.6742	2712.2881	924.95	38.9
997.7963	2713.5145	930.8	41.8
997.9183	2714.7403	927.9	41.15
998.0403	2715.9654	930.5	43.1
998.1623	2717.1899	933.5	45.7
998.2842	2718.4136	928.75	41.3
998.4062	2719.6367	931.15	44.45
998.528	2720.8591	935.2	40.75
998.6498	2722.0809	933.25	44.05
998.7716	2723.3019	935.95	45.35
998.8934	2724.5223	933	44.8
999.0151	2725.7421	930.25	42.3
999.1368	2726.9611	932.1	43.4
999.2584	2728.1795	936.65	46.1
999.38	2729.3972	929	43.1
999.5016	2730.6142	941	40.85
999.6231	2731.8306	928.5	39.1
999.7446	2733.0462	924.95	36.15
999.8661	2734.2612	928.75	37
999.9875	2735.4756	926.05	37.5
1000.1089	2736.6892	925.6	40
1000.2302	2737.9022	925.65	40.2
1000.3515	2739.1145	924.5	37
1000.4728	2740.3262	933.2	39.9
1000.594	2741.5372	926.95	39.6
1000.7152	2742.7475	922.75	33.7
1000.8363	2743.9571	924.45	35.85
1000.9575	2745.1661	926.35	33.95
1001.0785	2746.3744	922.85	33.2
1001.1996	2747.582	921.85	35.05
1001.3206	2748.7889	920.5	30.3
1001.4415	2749.9952	921	33.5
1001.5625	2751.2008	920.45	32.05
1001.6833	2752.4057	920.8	32.2
1001.8042	2753.61	921.95	33.6
1001.925	2754.8136	922.7	31.55
1002.0458	2756.0165	920.45	34.4
1002.1665	2757.2188	919.3	32.65
1002.2872	2758.4204	920.3	34.8
1002.4078	2759.6213	920.8	31.05
1002.5285	2760.8215	925.5	31.85
1002.649	2762.0211	918.85	28.3
1002.7696	2763.22	921.95	32.45
1002.8901	2764.4182	918.8	29.7
1003.0106	2765.6158	918.9	30.6
1003.131	2766.8127	918.1	32.4
1003.2514	2768.009	919.25	33.55
1003.3717	2769.2045	918.65	30
1003.492	2770.3994	922.6	33.05
1003.6123	2771.5936	919.1	31.35
1003.7325	2772.7872	917	31.35
1003.8527	2773.9801	917.7	29
1003.9729	2775.1723	933	29.15
1004.093	2776.3639	915.7	29.85
1004.2131	2777.5548	920.1	29.55
1004.3331	2778.745	920	32.7
1004.4531	2779.9346	918.35	33.5
1004.5731	2781.1235	917.75	28.3
1004.693	2782.3117	917.05	29.85
1004.8129	2783.4992	914.95	28.35
1004.9328	2784.6861	916.7	30.25
1005.0526	2785.8723	919.1	30.9
1005.1723	2787.0579	917.75	29.25
1005.2921	2788.2428	919.25	31.8
1005.4118	2789.427	916.1	29.95
1005.5314	2790.6106	916.05	29.9
1005.651	2791.7935	919.05	32.1
1005.7706	2792.9757	915.9	30.6
1005.8902	2794.1573	919.85	32.4
1006.0097	2795.3382	917.05	29.5
1006.1291	2796.5184	915.4	29.6
1006.2485	2797.698	919.4	32.05
1006.3679	2798.8769	915.05	28.35
1006.4873	2800.0551	917.7	30.25
1006.6066	2801.2327	918.6	28
1006.7258	2802.4096	918.7	33.65
1006.8451	2803.5859	918.55	31.7
1006.9642	2804.7615	916.75	29.55
1007.0834	2805.9364	917.75	31.3
1007.2025	2807.1106	918.25	31.85
1007.3216	2808.2842	921.35	32.75
1007.4406	2809.4572	921.85	34.8
1007.5596	2810.6294	922.15	34.65
1007.6785	2811.801	917.85	31.6
1007.7975	2812.972	922.75	36.7
1007.9163	2814.1423	924.55	38.05
1008.0352	2815.3119	926.2	39.45
1008.154	2816.4808	924.9	38.75
1008.2727	2817.6491	929.85	43.15
1008.3914	2818.8167	926.05	39.9
1008.5101	2819.9837	935.6	42.1
1008.6288	2821.15	937.65	51.3
1008.7474	2822.3157	937.3	53.7
1008.8659	2823.4807	941.6	54.95
1008.9844	2824.645	945.6	57.4
1009.1029	2825.8086	948.1	61.65
1009.2214	2826.9716	952.55	66.35
1009.3398	2828.134	956.4	67.7
1009.4581	2829.2957	962.95	77.1
1009.5764	2830.4567	965.6	79.4
1009.6947	2831.617	970.1	80.7
1009.813	2832.7767	971.45	85.8
1009.9312	2833.9358	971.05	85.35
1010.0493	2835.0941	972.7	82.25
1010.1675	2836.2519	969.85	84.6
1010.2855	2837.4089	966.25	79.7
1010.4036	2838.5653	963.85	77.45
1010.5216	2839.7211	960.75	73.35
1010.6396	2840.8761	961.6	73.25
1010.7575	2842.0306	956.1	69.15
1010.8754	2843.1843	961.55	74.3
1010.9932	2844.3374	960.75	73.15
1011.111	2845.4899	963.4	74.75
1011.2288	2846.6417	959.95	73.9
1011.3465	2847.7928	961.15	73.75
1011.4642	2848.9433	964.15	76.45
1011.5818	2850.0931	966.7	80.35
1011.6995	2851.2422	966.95	79
1011.817	2852.3907	966.55	78.3
1011.9345	2853.5385	966.85	77.6
1012.052	2854.6857	992.4	78.65
1012.1695	2855.8323	967.3	80.3
1012.2869	2856.9781	970.9	84.85
1012.4042	2858.1233	966.45	79.9
1012.5216	2859.2679	972.45	87.5
1012.6389	2860.4118	974.2	89.05
1012.7561	2861.555	982.9	89.7
1012.8733	2862.6976	978.45	88.95
1012.9905	2863.8395	981.05	94.35
1013.1076	2864.9808	977.65	89.05
1013.2247	2866.1214	978.75	94.15
1013.3417	2867.2614	984.35	96.85
1013.4587	2868.4007	982.95	92.4
1013.5757	2869.5393	987.25	99.65
1013.6926	2870.6773	990	102.3
1013.8095	2871.8146	991.65	102.2
1013.9263	2872.9513	993.15	103.5
1014.0431	2874.0874	987.7	99.7
1014.1599	2875.2227	992.35	104.45
1014.2766	2876.3574	990.7	103
1014.3933	2877.4915	995.75	110.2
1014.51	2878.6249	993.75	107.15
1014.6266	2879.7577	995.6	107.4
1014.7431	2880.8898	1005.3	106.55
1014.8596	2882.0212	994.75	109.8
1014.9761	2883.152	999.05	111.7
1015.0925	2884.2821	1000.75	115
1015.2089	2885.4116	998.85	113
1015.3253	2886.5405	1002.55	115.5
1015.4416	2887.6686	1007.6	118.25
1015.5579	2888.7962	1005.5	119.2
1015.6741	2889.923	1005.75	119.6
1015.7903	2891.0493	1002.75	117.25
1015.9065	2892.1748	1003.1	116.35
1016.0226	2893.2997	1002.65	115.45
1016.1387	2894.424	999.5	115.65
1016.2547	2895.5476	1003.25	115.25
1016.3707	2896.6706	1002.25	116.75
1016.4866	2897.7929	1002.25	114.85
1016.6025	2898.9145	1001.9	116
1016.7184	2900.0355	1003.4	113.65
1016.8342	2901.1559	1002.5	115.65
1016.95	2902.2756	1003.15	118.1
1017.0658	2903.3946	1000.5	113.85
1017.1815	2904.513	1002.15	112.75
1017.2971	2905.6308	1000.1	112.8
1017.4127	2906.7479	999.4	110.25
1017.5283	2907.8643	1001.85	115.1
1017.6439	2908.9801	998.25	110.85
1017.7594	2910.0953	997.1	109.1
1017.8748	2911.2098	1003.9	115.3
1017.9902	2912.3236	1004.7	107.5
1018.1056	2913.4368	1003.55	113.2
1018.2209	2914.5494	998.25	110.35
1018.3362	2915.6613	1003.95	110.75
1018.4515	2916.7725	1000.2	110.85
1018.5667	2917.8831	994.7	106.95
1018.6819	2918.9931	996.6	106.9
1018.797	2920.1024	992.05	104.45
1018.9121	2921.211	989.5	102.65
1019.0271	2922.319	989.15	101.95
1019.1421	2923.4264	987.35	98.95
1019.2571	2924.5331	987.5	101.45
1019.372	2925.6391	983.6	97.55
1019.4869	2926.7445	986.1	99.85
1019.6017	2927.8493	986.95	101.7
1019.7165	2928.9534	987.9	99.55
1019.8313	2930.0569	990.05	101.05
1019.946	2931.1597	987.9	100.25
1020.0606	2932.2619	984.85	96.7
1020.1753	2933.3634	988.65	100.8
1020.2899	2934.4643	999.2	106
1020.4044	2935.5645	998.15	103.5
1020.5189	2936.6641	996.2	103.7
1020.6334	2937.763	992.65	106.05
1020.7478	2938.8613	995.75	108.15
1020.8622	2939.959	995.25	104.4
1020.9765	2941.056	989.85	103.75
1021.0908	2942.1523	991.35	101.5
1021.2051	2943.248	983.2	97.15
1021.3193	2944.3431	975.15	90.25
1021.4334	2945.4375	977.85	90.2
1021.5476	2946.5313	969.9	84.65
1021.6617	2947.6244	966.4	80
1021.7757	2948.7169	960.5	74.05
1021.8897	2949.8087	956.9	70.5
1022.0037	2950.8999	953.45	65.6
1022.1176	2951.9904	948.45	61.55
1022.2315	2953.0803	948.85	61.4
1022.3453	2954.1696	946.65	60.55
1022.4591	2955.2582	944.65	57.3
1022.5728	2956.3462	944.95	58.4
1022.6865	2957.4335	940.75	55.1
1022.8002	2958.5202	944.75	56.7
1022.9138	2959.6062	941.8	56.1
1023.0274	2960.6916	939.2	52.5
1023.141	2961.7764	944.1	56.6
1023.2545	2962.8605	938.75	50.8
1023.3679	2963.9439	942.4	55.9
1023.4813	2965.0267	939.4	52.35
1023.5947	2966.1089	964.2	54.9
1023.708	2967.1905	940.25	53.1
1023.8213	2968.2714	937.7	52.1
1023.9346	2969.3516	939	52.3
1024.0478	2970.4312	946.8	53.25
1024.1609	2971.5102	936.25	48.45
1024.274	2972.5885	937.55	53.2
1024.3871	2973.6662	942.4	49.2
1024.5002	2974.7432	937.95	50.35
1024.6132	2975.8196	937.6	52.4
1024.7261	2976.8954	935.8	50.5
1024.839	2977.9705	937.05	50.25
1024.9519	2979.045	938.65	49.05
1025.0647	2980.1188	937.05	49.8
1025.1775	2981.192	936.6	50.05
1025.2902	2982.2645	939.55	51.65
1025.4029	2983.3364	935.9	48.75
1025.5156	2984.4077	934.95	49.1
1025.6282	2985.4783	940.3	46.35
1025.7407	2986.5483	932.25	46.95
1025.8532	2987.6177	929.9	42.75
1025.9657	2988.6864	928.05	40.6
1026.0782	2989.7545	929	41
1026.1906	2990.8219	924.7	38.65
1026.3029	2991.8887	927.65	38.5
1026.4152	2992.9548	924.5	36.1
1026.5275	2994.0204	919.55	33.7
1026.6397	2995.0852	917.85	31.15
1026.7519	2996.1495	920.1	31.8
1026.864	2997.2131	917.9	29.85
1026.9761	2998.276	916.1	29.7
1027.0882	2999.3383	916.85	28.65
1027.2002	3000.4	913.25	24.65
1027.3122	3001.4611	911.8	24.8
1027.4241	3002.5215	911.55	25.25
1027.536	3003.5812	912.8	24.75
1027.6478	3004.6404	912.65	26.7
1027.7596	3005.6989	912.4	24
1027.8714	3006.7567	909.65	23.15
1027.9831	3007.8139	938.9	21.75
1028.0947	3008.8705	906.65	17.85
1028.2064	3009.9264	925.15	20.5
1028.3179	3010.9818	907.05	19.85
1028.4295	3012.0364	906.85	19.55
1028.541	3013.0905	908.85	21.3
1028.6524	3014.1439	907.45	20.5
1028.7638	3015.1966	905.2	18.7
1028.8752	3016.2487	906.9	19.6
1028.9865	3017.3002	909.5	18.2
1029.0978	3018.3511	904.3	18.8
1029.209	3019.4013	905.15	18.85
1029.3202	3020.4509	904	19.2
1029.4314	3021.4998	906.65	18.45
1029.5425	3022.5481	903.45	16.25
1029.6535	3023.5958	905.75	19
1029.7645	3024.6428	904.45	14.6
1029.8755	3025.6892	904.7	18.25
1029.9864	3026.735	902.9	15.6
1030.0973	3027.7802	905.2	17.65
1030.2082	3028.8247	903.7	17.8
1030.319	3029.8685	904.05	16.85
1030.4297	3030.9118	906.55	19.25
1030.5404	3031.9544	904.5	16.45
1030.6511	3032.9963	906.55	20.6
1030.7617	3034.0376	904.65	17.3
1030.8723	3035.0783	907.1	16.55
1030.9829	3036.1184	905.55	17.85
1031.0934	3037.1578	902.95	18
1031.2038	3038.1966	907.1	18.65
1031.3142	3039.2348	902.6	17.1
1031.4246	3040.2723	912.4	15.9
1031.5349	3041.3092	904.8	19.25
1031.6452	3042.3455	903.4	16.05
1031.7554	3043.3811	905.1	17
1031.8656	3044.4161	906.55	18.7
1031.9758	3045.4505	903.35	15.75
1032.0859	3046.4842	904.7	17.75
1032.1959	3047.5173	904.5	20.15
1032.3059	3048.5498	902.9	15.95
1032.4159	3049.5816	903.85	17.6
1032.5258	3050.6128	904.8	15.2
1032.6357	3051.6434	906.9	18.45
1032.7455	3052.6734	907.2	20.3
1032.8553	3053.7027	905.75	18.5
1032.9651	3054.7314	907.2	19.25
1033.0748	3055.7594	905.35	18.45
1033.1845	3056.7868	908.2	19
1033.2941	3057.8136	904.8	18.4
1033.4037	3058.8398	904.5	19.2
1033.5132	3059.8653	906	18.15
1033.6227	3060.8902	906.75	20.05
1033.7321	3061.9145	906	20.75
1033.8415	3062.9381	906.25	19.65
1033.9509	3063.9612	922.1	18.8
1034.0602	3064.9835	906.55	17.85
1034.1694	3066.0053	908.35	18.65
1034.2787	3067.0264	906.7	21.05
1034.3878	3068.0469	906.75	17.15
1034.497	3069.0668	910.75	21.15
1034.6061	3070.086	904.4	18.9
1034.7151	3071.1046	906.6	16.05
1034.8241	3072.1226	905.95	16.95
1034.9331	3073.1399	905.8	20
1035.042	3074.1567	906.1	19.1
1035.1508	3075.1727	904.85	16.4
1035.2597	3076.1882	903.85	15.7
1035.3684	3077.203	904.85	18.6
1035.4772	3078.2173	903.15	13.3
1035.5859	3079.2308	906.3	16.2
1035.6945	3080.2438	907.4	19.35
1035.8031	3081.2561	904.45	17.1
1035.9117	3082.2678	901.35	14.55
1036.0202	3083.2789	900.75	12.25
1036.1286	3084.2893	902.2	15.6
1036.2371	3085.2991	900.7	13.05
1036.3454	3086.3083	905.95	15.95
1036.4538	3087.3169	902	15.05
1036.562	3088.3248	901.2	12.6
1036.6703	3089.3321	901.45	13.15
1036.7785	3090.3388	897.65	9.9
1036.8866	3091.3449	898.35	11.2
1036.9948	3092.3503	903.35	13.9
1037.1028	3093.3551	898.65	13.45
1037.2108	3094.3593	899.85	12.6
1037.3188	3095.3629	898.8	13.6
1037.4267	3096.3658	901.9	14.9
1037.5346	3097.3681	901.25	15.25
1037.6425	3098.3698	901.85	14.8
1037.7503	3099.3708	900.15	12.3
1037.858	3100.3713	897.15	10.95
1037.9657	3101.3711	898.75	10.9
1038.0734	3102.3702	1037.65	6.2
1038.181	3103.3688	900.6	10.85
1038.2886	3104.3667	898.8	12.45
1038.3961	3105.364	898.15	11.1
1038.5036	3106.3607	899.95	13.7
1038.611	3107.3568	898.95	10.25
1038.7184	3108.3522	897.45	12.3
1038.8257	3109.347	898.55	9.85
1038.933	3110.3412	900.6	11.05
1039.0403	3111.3348	897.85	11.1
1039.1475	3112.3277	898.75	13.15
1039.2547	3113.32	896.85	11.65
1039.3618	3114.3117	899.9	11.8
1039.4689	3115.3028	897.05	10.05
1039.5759	3116.2932	897.45	6.55
1039.6829	3117.2831	901.15	7.45
1039.7898	3118.2723	899.95	13.55
1039.8967	3119.2608	898.1	12.6
1040.0035	3120.2488	895.9	7.95
1040.1103	3121.2361	897.8	10.6
1040.2171	3122.2229	898.45	10.9
1040.3238	3123.209	897.9	12.4
1040.4305	3124.1944	896.75	10.8
1040.5371	3125.1793	896.95	6.5
1040.6437	3126.1635	894.1	6.85
1040.7502	3127.1471	895.2	8.4
1040.8567	3128.1301	896.45	10.6
1040.9631	3129.1125	897.45	10.85
1041.0695	3130.0942	896.8	9.55
1041.1759	3131.0753	905.05	10.75
1041.2822	3132.0558	897.4	7.4
1041.3884	3133.0357	894.15	8.5
1041.4946	3134.015	895.75	7.05
1041.6008	3134.9936	895.95	7.4
1041.7069	3135.9716	916.9	10
1041.813	3136.949	895.9	7.15
1041.919	3137.9258	914.25	9.7
1042.025	3138.902	900.6	7.7
1042.1309	3139.8775	893.3	7.55
1042.2368	3140.8524	896.05	10.85
1042.3427	3141.8267	895.3	5.5
1042.4485	3142.8004	894.45	8.4
1042.5542	3143.7735	899.45	7.6
1042.6599	3144.7459	898.4	11.05
1042.7656	3145.7178	897	11.25
1042.8712	3146.689	891.8	4.95
1042.9768	3147.6596	895.95	7.9
1043.0823	3148.6295	896.5	10.5
1043.1878	3149.5989	893.6	5.15
1043.2932	3150.5676	893.7	8.8
1043.3986	3151.5357	892.9	6.9
1043.5039	3152.5032	894.35	8.95
1043.6092	3153.4701	893.7	6.35
1043.7145	3154.4364	898.8	10.4
1043.8197	3155.402	893.7	9.25
1043.9248	3156.367	898.7	9.65
1044.03	3157.3315	924.7	5.75
1044.135	3158.2952	894.4	8
1044.24	3159.2584	893.2	6.3
1044.345	3160.221	894.95	6
1044.4499	3161.1829	896.7	10
1044.5548	3162.1442	894.3	5.55
1044.6596	3163.105	893.4	6.4
1044.7644	3164.065	895.7	7.9
1044.8692	3165.0245	897.85	7.4
1044.9739	3165.9834	891.7	6.15
1045.0785	3166.9416	891.6	4.65
1045.1831	3167.8993	892.55	4.05
1045.2877	3168.8563	894.4	7.45
1045.3922	3169.8127	892.25	5.2
1045.4966	3170.7684	893.1	4.65
1045.6011	3171.7236	895.7	7.75
1045.7054	3172.6782	893.5	7.5
1045.8098	3173.6321	893.1	6.25
1045.914	3174.5854	898	6.95
1046.0183	3175.5381	893.3	5.95
1046.1224	3176.4902	891.65	5.05
1046.2266	3177.4417	893.8	6.8
1046.3307	3178.3926	894.6	7.85
1046.4347	3179.3428	891.55	4.3
1046.5387	3180.2924	891.85	6.55
1046.6427	3181.2415	894.75	8.55
1046.7466	3182.1899	893.45	5.45
1046.8504	3183.1377	893.55	6.65
1046.9542	3184.0848	896.1	6.3
1047.058	3185.0314	894	7.3
1047.1617	3185.9773	893.75	5.5
1047.2654	3186.9227	895	6.75
1047.369	3187.8674	893.3	4.6
1047.4726	3188.8115	896.4	7.15
1047.5761	3189.755	891.95	5.15
1047.6796	3190.6979	893.15	5.85
1047.783	3191.6402	891.95	5.7
1047.8864	3192.5818	890.55	4.4
1047.9898	3193.5229	899.85	7.65
1048.0931	3194.4633	893.55	5.3
1048.1963	3195.4031	893.3	5.7
1048.2995	3196.3423	894	9.2
1048.4027	3197.2809	892.7	4.1
1048.5058	3198.2189	893.25	4.15
1048.6089	3199.1563	899.45	7.3
1048.7119	3200.0931	891.4	4.9
1048.8148	3201.0292	892.25	7.8
1048.9178	3201.9648	890.7	3.65
1049.0206	3202.8997	894.65	4.65
1049.1235	3203.834	892.85	5.8
1049.2262	3204.7677	893.65	5.5
1049.329	3205.7008	894	4.2
1049.4317	3206.6333	890.65	4.9
1049.5343	3207.5652	895.6	5.25
1049.6369	3208.4964	893.3	8
1049.7394	3209.4271	892.7	6.75
1049.8419	3210.3571	892.9	7.8
1049.9444	3211.2865	892.2	5.5
1050.0468	3212.2154	892.05	4.35
1050.1491	3213.1436	894.2	3.1
1050.2514	3214.0712	898.25	4.3
1050.3537	3214.9982	891.95	3.85
1050.4559	3215.9246	892.4	3.3
1050.5581	3216.8503	892.15	7.1
1050.6602	3217.7755	891.9	4.2
1050.7623	3218.7001	892.15	5
1050.8643	3219.624	892	4.75
1050.9663	3220.5473	892.25	4.45
1051.0682	3221.4701	894.5	7.2
1051.1701	3222.3922	895.65	5.55
1051.2719	3223.3137	891.9	4.55
1051.3737	3224.2346	890.95	3.6
1051.4754	3225.1549	891.65	7.15
1051.5771	3226.0746	892.4	4.6
1051.6788	3226.9937	894.55	6.9
1051.7804	3227.9121	890.55	4.2
1051.8819	3228.83	891.9	6.15
1051.9834	3229.7473	891.55	3.45
1052.0849	3230.6639	893.25	5.55
1052.1863	3231.5799	890.55	2.65
1052.2876	3232.4954	892.75	3.75
1052.3889	3233.4102	891.85	4.3
1052.4902	3234.3244	890.45	0.55
1052.5914	3235.238	893.05	7.3
1052.6926	3236.151	915.6	4.7
1052.7937	3237.0634	889.35	2.8
1052.8948	3237.9752	891.15	5.6
1052.9958	3238.8864	893.65	5.6
1053.0968	3239.797	893.05	5.3
1053.1977	3240.7069	892.35	4.85
1053.2986	3241.6163	892.05	3.75
1053.3994	3242.5251	890.25	4
1053.5002	3243.4332	891.95	6.45
1053.6009	3244.3408	891.05	3.65
1053.7016	3245.2477	891.15	5.05
1053.8022	3246.154	892.3	4.35
1053.9028	3247.0598	892.75	6
1054.0034	3247.9649	892.95	7.7
1054.1039	3248.8694	891.2	3.1
1054.2043	3249.7733	890.8	2.05
1054.3047	3250.6766	891.2	5.25
1054.4051	3251.5793	890.35	2.6
1054.5054	3252.4814	891.2	5.5
1054.6056	3253.3829	890.7	3.6
1054.7058	3254.2838	891.45	4.95
1054.806	3255.1841	891.05	2.45
1054.9061	3256.0838	891.6	4.8
1055.0061	3256.9829	891.25	5.6
1055.1062	3257.8814	892.65	3.1
1055.2061	3258.7792	891.85	1.75
1055.306	3259.6765	891.95	3.6
1055.4059	3260.5731	891.5	6.85
1055.5057	3261.4692	892.15	3.45
1055.6055	3262.3647	890	1.1
1055.7052	3263.2595	890.95	4.45
1055.8049	3264.1538	889.45	2.2
1055.9045	3265.0474	890.6	3.05
1056.0041	3265.9404	890.05	3.85
1056.1036	3266.8329	890.75	4.35
1056.2031	3267.7247	900.05	3.35
1056.3025	3268.616	889.75	3.7
1056.4019	3269.5066	890.55	3.85
1056.5013	3270.3966	892.6	2.8
1056.6005	3271.286	887.6	2.35
