Software Version:	3.9.2.0
Unit SN:	10000200
Spectrometer SN:	6960
Date:	3/14/2024 12:37:41 PM
Data Line Index:	25
Spectral Points:	2048
Integration time (ms):	125
Averages:	20
Delay (ms):	30000
Sequence Number:	1
Processing:	dark subtract
Laser Power (mW):	300
Laser Current (mA):	823
Laser Diode Temp (C):	25
Laser Case Temp (C):	26.8
System Temp (C):	26.8
Spectrometer Temp (C):	24.3
CCD Temp (C):	0.002
Secondary Temp (C):	20.006
Heatsink Temp (C):	22.997
CCDPCB Temp (C):	36.763
SecondaryPCB Temp (C):	34.139

Wavelength	RamanShift	Raw Counts	Dark Subtracted
787.061	30.1047	417.7	6.75
787.2016	32.3739	416.6	7.65
787.3422	34.6426	418.2	7.75
787.4828	36.9109	419.9	5.3
787.6235	39.1787	425.4	8.55
787.7642	41.4461	432.3	9.85
787.9049	43.7131	434.15	8.45
788.0456	45.9796	438.9	9.9
788.1863	48.2456	443.7	10.65
788.3271	50.5112	446.6	9.1
788.4679	52.7764	448	8.65
788.6087	55.0411	453.5	11.6
788.7496	57.3054	459.35	11.3
788.8904	59.5692	460.25	11.3
789.0313	61.8326	466.45	14.75
789.1722	64.0955	471.85	14.65
789.3132	66.3579	479.65	18.15
789.4541	68.6199	483.8	19.25
789.5951	70.8815	492.4	25.75
789.7361	73.1426	509.3	37.1
789.8771	75.4032	536.3	59.9
790.0181	77.6634	596.95	119.35
790.1592	79.9231	737.7	252.3
790.3003	82.1824	1033.9	544.7
790.4414	84.4412	1534.45	1040.55
790.5825	86.6995	2182.45	1677.85
790.7237	88.9574	2817.85	2308.55
790.8648	91.2148	3291.2	2776.65
791.006	93.4717	3494.05	2975.15
791.1472	95.7282	3550.55	3030.65
791.2885	97.9842	3561.35	3037.05
791.4297	100.2398	3546.95	3020.35
791.571	102.4949	3523.1	2992.95
791.7123	104.7495	3505.75	2971.15
791.8536	107.0036	3475.8	2938.45
791.9949	109.2573	3429.35	2896.95
792.1363	111.5105	3377.3	2841.35
792.2777	113.7632	3318.85	2781.2
792.4191	116.0154	3266.35	2715.55
792.5605	118.2672	3216.8	2674.45
792.7019	120.5185	3140.75	2594.2
792.8434	122.7693	3090.6	2546.45
792.9849	125.0197	3025.8	2478.35
793.1264	127.2696	2981.85	2431.05
793.2679	129.519	2951.65	2399.9
793.4094	131.7679	2915.3	2359.75
793.551	134.0163	2912.6	2354.05
793.6926	136.2642	2902.05	2336.65
793.8342	138.5117	2911.25	2341.15
793.9758	140.7587	2895.75	2327.3
794.1175	143.0052	2870.55	2299.6
794.2591	145.2512	2841.6	2272.2
794.4008	147.4967	2800.95	2227.1
794.5425	149.7417	2748.4	2170.35
794.6842	151.9863	2745.55	2167.8
794.826	154.2304	2723.35	2141.6
794.9677	156.4739	2723.8	2135.85
795.1095	158.717	2734.95	2148.75
795.2513	160.9596	2754.4	2162.25
795.3931	163.2017	2756.7	2164.85
795.535	165.4433	2769.3	2173.8
795.6768	167.6844	2776.4	2177.2
795.8187	169.925	2748.8	2147.65
795.9606	172.1651	2724.45	2118.65
796.1025	174.4047	2694.15	2086.7
796.2445	176.6439	2665.3	2052.85
796.3864	178.8825	2651.5	2040.45
796.5284	181.1206	2619.95	2002.35
796.6704	183.3582	2608.85	1988.75
796.8124	185.5954	2614.6	1993.55
796.9544	187.832	2624.1	1998.05
797.0965	190.0681	2615.6	1988.35
797.2386	192.3037	2611.35	1981.4
797.3806	194.5388	2621.95	1988.5
797.5228	196.7734	2623.3	1986.6
797.6649	199.0075	2634.95	1993.45
797.807	201.2411	2645.95	2003.7
797.9492	203.4742	2660.6	2018.55
798.0914	205.7068	2671.2	2027.9
798.2336	207.9389	2689.15	2045.4
798.3758	210.1704	2706.55	2059.7
798.518	212.4015	2691.15	2039.05
798.6603	214.632	2704.95	2052.45
798.8025	216.862	2690.5	2043.5
798.9448	219.0915	2692.15	2051.75
799.0871	221.3205	2687.2	2049.95
799.2294	223.549	2697.9	2067.05
799.3718	225.777	2698.6	2069.6
799.5141	228.0044	2688.25	2053.75
799.6565	230.2314	2678.5	2046.15
799.7989	232.4578	2665.7	2034.45
799.9413	234.6837	2652	2008.75
800.0837	236.909	2655.6	2013.85
800.2262	239.1339	2655.75	1992.1
800.3687	241.3582	2642	1990.65
800.5111	243.582	2656.1	1979.45
800.6536	245.8053	2659	1987.4
800.7961	248.0281	2652.3	1987.2
800.9387	250.2503	2674.25	2004.7
801.0812	252.472	2665.85	1990.45
801.2238	254.6932	2677.15	1998.6
801.3664	256.9139	2657.95	1976.7
801.509	259.134	2672.55	1989.4
801.6516	261.3536	2685.45	2004.7
801.7942	263.5727	2707.5	2024
801.9369	265.7912	2719	2036.45
802.0795	268.0092	2769.65	2086.25
802.2222	270.2267	2792.25	2108
802.3649	272.4436	2818.8	2134.1
802.5076	274.6601	2860.5	2165.25
802.6504	276.8759	2848.55	2159.55
802.7931	279.0913	2877.1	2187.15
802.9359	281.3061	2879.55	2189.05
803.0787	283.5204	2891.4	2196.55
803.2215	285.7341	2911.55	2211.85
803.3643	287.9473	2924	2220.9
803.5071	290.16	2930.5	2224.35
803.6499	292.3721	2885.75	2186.1
803.7928	294.5837	2852.5	2148.8
803.9357	296.7947	2828.35	2125.15
804.0786	299.0052	2822.85	2120.85
804.2215	301.2152	2809.5	2105.35
804.3644	303.4246	2796.75	2095.3
804.5074	305.6334	2781.3	2078.25
804.6503	307.8418	2775.1	2068.25
804.7933	310.0495	2756.5	2049.85
804.9363	312.2568	2732.85	2026.65
805.0793	314.4635	2698.75	1989.9
805.2223	316.6696	2667	1956.85
805.3653	318.8752	2654.5	1935.3
805.5084	321.0802	2615.55	1902.55
805.6514	323.2847	2606.65	1895.15
805.7945	325.4887	2593	1878.5
805.9376	327.692	2604.9	1889.4
806.0807	329.8949	2637.6	1920.5
806.2238	332.0972	2659.85	1941.7
806.367	334.2989	2691.7	1970.55
806.5101	336.5001	2686.55	1965.4
806.6533	338.7007	2666.45	1945.35
806.7965	340.9008	2630.35	1905.6
806.9397	343.1003	2592.65	1865.65
807.0829	345.2992	2564.35	1837.4
807.2261	347.4976	2535.45	1805.65
807.3693	349.6955	2505.1	1773.7
807.5126	351.8927	2488.95	1756.1
807.6559	354.0895	2493.4	1748.05
807.7991	356.2856	2472.65	1738.5
807.9424	358.4812	2459.75	1724.95
808.0857	360.6763	2459.25	1723.8
808.2291	362.8707	2445.7	1707.5
808.3724	365.0646	2448.3	1706.75
808.5158	367.258	2449.45	1709.85
808.6591	369.4508	2464.65	1721.2
808.8025	371.643	2474.8	1730.5
808.9459	373.8346	2496.9	1749.2
809.0893	376.0257	2513.45	1762.3
809.2327	378.2162	2542.6	1790.65
809.3762	380.4062	2543.25	1791.4
809.5196	382.5956	2521.25	1765.9
809.6631	384.7844	2504.75	1750.25
809.8066	386.9726	2468.25	1712.5
809.9501	389.1603	2439.8	1682.7
810.0936	391.3474	2451.25	1662.25
810.2371	393.5339	2430.3	1672.05
810.3806	395.7199	2422.7	1670.2
810.5241	397.9052	2429.25	1679.3
810.6677	400.09	2447.95	1697.55
810.8113	402.2743	2475	1724.75
810.9548	404.4579	2492.7	1745
811.0984	406.641	2520.35	1767.7
811.2421	408.8235	2553.75	1803.25
811.3857	411.0054	2593.15	1841.35
811.5293	413.1868	2653.2	1898.8
811.673	415.3675	2717.55	1960.4
811.8166	417.5477	2749.35	1992.8
811.9603	419.7273	2700.7	1939.1
812.104	421.9064	2599.7	1831.7
812.2477	424.0848	2537.55	1772.85
812.3914	426.2627	2485.75	1717.85
812.5351	428.4399	2447.65	1679.65
812.6788	430.6166	2406.25	1633.95
812.8226	432.7928	2374.8	1601.25
812.9663	434.9683	2354.6	1582.9
813.1101	437.1432	2326.3	1551.8
813.2539	439.3176	2305.95	1530.75
813.3977	441.4914	2296.05	1521.8
813.5415	443.6645	2300.4	1522.95
813.6853	445.8371	2302.35	1522.7
813.8291	448.0091	2288.4	1509.9
813.973	450.1806	2294.95	1516.8
814.1168	452.3514	2286.95	1505.55
814.2607	454.5216	2290.3	1499.8
814.4046	456.6913	2272.2	1490.85
814.5485	458.8603	2282.25	1500.95
814.6924	461.0288	2282	1501.35
814.8363	463.1967	2279.1	1496.4
814.9802	465.3639	2270.05	1485.25
815.1241	467.5306	2266.9	1481.65
815.2681	469.6967	2268.45	1482.25
815.412	471.8622	2242.35	1456.6
815.556	474.0271	2247.35	1462.45
815.7	476.1914	2248.5	1459.75
815.844	478.3551	2238.95	1453.85
815.988	480.5182	2232.9	1443.95
816.132	482.6807	2242.65	1453.6
816.276	484.8426	2255.75	1465.9
816.4201	487.0039	2266.4	1476.05
816.5641	489.1647	2306	1515.5
816.7082	491.3248	2341.2	1549.7
816.8522	493.4843	2356.65	1566.6
816.9963	495.6432	2348.55	1556.55
817.1404	497.8015	2327.05	1531.5
817.2845	499.9592	2289.65	1496.95
817.4286	502.1163	2259	1467.1
817.5727	504.2728	2234.05	1439.95
817.7168	506.4287	2220.8	1426.85
817.861	508.5839	2198.3	1402.75
818.0051	510.7386	2189.8	1393.45
818.1493	512.8927	2199.95	1394.9
818.2935	515.0461	2180.55	1382.6
818.4377	517.199	2200.65	1403.3
818.5818	519.3512	2219.9	1422.1
818.726	521.5029	2265.5	1460.75
818.8703	523.6539	2312.45	1512.1
819.0145	525.8043	2325	1525.9
819.1587	527.9541	2288.3	1483.65
819.303	530.1033	2244.8	1441.8
819.4472	532.2519	2211.05	1407.75
819.5915	534.3999	2193.1	1387
819.7357	536.5472	2188	1383.6
819.88	538.694	2186.8	1380.9
820.0243	540.8401	2196.35	1390.65
820.1686	542.9856	2204.95	1398.05
820.3129	545.1305	2201.25	1394.45
820.4572	547.2748	2213.55	1405.85
820.6016	549.4185	2225.75	1417.3
820.7459	551.5615	2217.6	1411.25
820.8902	553.704	2230.55	1423
821.0346	555.8458	2242.8	1436.1
821.1789	557.987	2247.3	1439.3
821.3233	560.1276	2276.85	1465.85
821.4677	562.2675	2309.35	1501.55
821.6121	564.4069	2349.6	1540.45
821.7565	566.5456	2386.5	1576.65
821.9009	568.6837	2373.65	1560.3
822.0453	570.8212	2326.65	1513.95
822.1897	572.958	2273	1458.65
822.3342	575.0942	2239.65	1427.6
822.4786	577.2299	2218.1	1405.25
822.6231	579.3648	2192.1	1378.9
822.7675	581.4992	2168.9	1355.05
822.912	583.6329	2162.9	1348.1
823.0565	585.766	2173.4	1359.75
823.201	587.8985	2213.75	1400.3
823.3454	590.0304	2238.95	1412.15
823.4899	592.1616	2258.45	1440.55
823.6345	594.2922	2258.55	1444.05
823.779	596.4222	2238.85	1421.8
823.9235	598.5515	2203.15	1385.35
824.068	600.6802	2168.8	1349.8
824.2126	602.8083	2129.75	1312.8
824.3571	604.9358	2119.65	1299.2
824.5017	607.0626	2111	1290.7
824.6462	609.1888	2121.7	1299.5
824.7908	611.3144	2132.15	1310.45
824.9354	613.4393	2149.3	1331.1
825.08	615.5636	2191.5	1371.6
825.2246	617.6873	2219.7	1397.9
825.3692	619.8103	2240.9	1418.15
825.5138	621.9327	2248.5	1424.8
825.6584	624.0544	2226	1402.35
825.803	626.1756	2189.75	1365.8
825.9477	628.2961	2154.55	1330.55
826.0923	630.4159	2131.85	1308.35
826.237	632.5351	2118.95	1294.25
826.3816	634.6537	2117.15	1294.55
826.5263	636.7716	2111.75	1284.7
826.6709	638.8889	2106.65	1280
826.8156	641.0056	2108.45	1281.65
826.9603	643.1216	2118.4	1289.4
827.105	645.237	2118.65	1289.55
827.2497	647.3518	2109.9	1281.3
827.3944	649.4659	2086.55	1260.55
827.5391	651.5793	2078.55	1250.75
827.6838	653.6922	2071.55	1243.05
827.8285	655.8043	2062.75	1235.65
827.9733	657.9159	2043	1211.45
828.118	660.0268	2046	1214.75
828.2627	662.137	2045.45	1214.3
828.4075	664.2466	2040.6	1209.3
828.5522	666.3556	2045.2	1215.15
828.697	668.4639	2033.35	1199.75
828.8418	670.5716	2031.05	1199.75
828.9865	672.6786	2031.2	1198.2
829.1313	674.785	2009.85	1174.1
829.2761	676.8907	2008.5	1175.35
829.4209	678.9958	2014	1181.75
829.5657	681.1002	2013.95	1176.75
829.7105	683.204	2006	1165.95
829.8553	685.3072	2020.9	1183.35
830.0001	687.4097	2003.6	1167.1
830.1449	689.5115	2017.6	1179.1
830.2898	691.6127	2001.2	1165.6
830.4346	693.7132	2009.2	1173.75
830.5794	695.8131	2008.7	1165.85
830.7243	697.9123	2005.6	1166.3
830.8691	700.0109	2004.25	1167.05
831.014	702.1089	2020.85	1183.45
831.1588	704.2061	2019.65	1181.15
831.3037	706.3028	2042.75	1202.15
831.4486	708.3987	2057	1217.1
831.5935	710.4941	2055.1	1217.05
831.7383	712.5887	2067.6	1227.85
831.8832	714.6827	2062.55	1220.55
832.0281	716.7761	2052.95	1213.2
832.173	718.8688	2043.45	1201.15
832.3179	720.9608	2044.2	1202
832.4628	723.0522	2057.6	1214.15
832.6077	725.1429	2073.05	1231.5
832.7527	727.233	2091.1	1248.8
832.8976	729.3224	2127.1	1285.3
833.0425	731.4112	2176.5	1332.9
833.1874	733.4993	2183.5	1338.85
833.3324	735.5867	2159.95	1317.2
833.4773	737.6735	2111.35	1265.7
833.6222	739.7596	2074	1228.3
833.7672	741.845	2059.2	1214.9
833.9122	743.9298	2062.95	1214.85
834.0571	746.014	2067.8	1224.05
834.2021	748.0974	2081.35	1234.6
834.347	750.1802	2082.7	1235.2
834.492	752.2624	2068.7	1222.95
834.637	754.3439	2052.25	1205.7
834.782	756.4247	2061.7	1205
834.9269	758.5048	2031.1	1184.2
835.0719	760.5843	2032.55	1184.35
835.2169	762.6631	2051.45	1204.85
835.3619	764.7413	2078.1	1231.55
835.5069	766.8188	2131.95	1283.35
835.6519	768.8956	2185.6	1335.9
835.7969	770.9718	2228.55	1378.45
835.9419	773.0473	2217.45	1369.4
836.0869	775.1221	2202.4	1355.65
836.232	777.1962	2177.6	1327.7
836.377	779.2697	2214.25	1364.6
836.522	781.3426	2296.2	1435.35
836.667	783.4147	2345.6	1494.15
836.8121	785.4862	2332.55	1484.5
836.9571	787.557	2282.75	1431.2
837.1021	789.6271	2200.05	1349.2
837.2472	791.6966	2107	1255.75
837.3922	793.7654	2025.3	1171.65
837.5373	795.8335	2002.4	1152.8
837.6823	797.901	1974.3	1122.7
837.8274	799.9678	1968.2	1113.25
837.9724	802.0339	1965.6	1115.8
838.1175	804.0993	1974.4	1113.7
838.2626	806.1641	1960.3	1106.7
838.4076	808.2282	1953.1	1100.35
838.5527	810.2916	1937.5	1082
838.6978	812.3544	1922.65	1072.65
838.8428	814.4164	1920.95	1068.15
838.9879	816.4778	1927.05	1074.6
839.133	818.5385	1925	1074.8
839.2781	820.5986	1947.55	1094.5
839.4232	822.658	1984.25	1129.4
839.5682	824.7166	2023.8	1171.1
839.7133	826.7747	2082.7	1229.7
839.8584	828.832	2134	1280.65
840.0035	830.8886	2164.45	1308.1
840.1486	832.9446	2201.2	1343.55
840.2937	834.9999	2172.35	1317.4
840.4388	837.0545	2135.7	1277.6
840.5839	839.1085	2072.2	1218.4
840.729	841.1618	2019.7	1160.65
840.8741	843.2143	1976.8	1120.75
841.0192	845.2662	1951.45	1097.3
841.1643	847.3175	1927.65	1074.2
841.3095	849.368	1933	1077.9
841.4546	851.4179	1929.5	1071.95
841.5997	853.467	1918.35	1063.35
841.7448	855.5155	1923.65	1066.85
841.8899	857.5633	1924.1	1066.25
842.0351	859.6105	1923.6	1065.65
842.1802	861.6569	1918.35	1063.35
842.3253	863.7027	1903.3	1046.15
842.4704	865.7478	1906.05	1047.9
842.6156	867.7922	1890	1032.65
842.7607	869.8359	1886.15	1026.15
842.9058	871.8789	1871.55	1013.2
843.0509	873.9212	1900.8	1008.9
843.1961	875.9629	1873.85	1015.75
843.3412	878.0039	1880.9	1020.75
843.4863	880.0441	1893.35	1036.25
843.6315	882.0837	1897.65	1037.05
843.7766	884.1226	1931.1	1068.4
843.9218	886.1609	1932.9	1073.9
844.0669	888.1984	1974.6	1116.6
844.212	890.2352	2007.55	1149.6
844.3572	892.2714	2021.65	1159.4
844.5023	894.3069	2001.2	1140.7
844.6475	896.3416	1952.75	1091.85
844.7926	898.3757	1928.8	1068.35
844.9377	900.4091	1907.4	1046.45
845.0829	902.4418	1915.95	1050.4
845.228	904.4739	1927.05	1065.7
845.3732	906.5052	1934.75	1073.55
845.5183	908.5358	1932.85	1073.85
845.6635	910.5658	1928.95	1064.2
845.8086	912.595	1888.55	1029
845.9538	914.6236	1867.75	1007.35
846.0989	916.6515	1850	989.75
846.2441	918.6786	1841.2	977.25
846.3892	920.7051	1826.5	961.85
846.5344	922.7309	1824.3	962.45
846.6795	924.756	1825.9	962.6
846.8246	926.7804	1833.3	967.1
846.9698	928.8041	1834.8	970.1
847.1149	930.8272	1844.7	982.2
847.2601	932.8495	1845.85	982.65
847.4052	934.8711	1852	988.05
847.5504	936.892	1853.8	989.3
847.6955	938.9123	1875.8	1010.85
847.8407	940.9318	1896.55	1032.1
847.9858	942.9506	1901.2	1037.35
848.131	944.9688	1892.25	1028.3
848.2761	946.9862	1878.6	1014.65
848.4213	949.003	1850.35	985.6
848.5664	951.019	1828.7	963.05
848.7115	953.0344	1813.3	947.4
848.8567	955.0491	1805.75	939.1
849.0018	957.063	1809.2	942.9
849.147	959.0763	1794.35	929.7
849.2921	961.0888	1798.75	931.45
849.4373	963.1007	1799.25	931.65
849.5824	965.1119	1783.3	916.55
849.7275	967.1223	1774.3	908.2
849.8727	969.1321	1773.15	907.15
850.0178	971.1412	1769.3	902.95
850.1629	973.1495	1766.15	899.25
850.3081	975.1572	1814.55	895.9
850.4532	977.1641	1779.5	913.5
850.5983	979.1704	1770.2	902.15
850.7435	981.1759	1766.2	896.2
850.8886	983.1808	1760.4	892.8
851.0337	985.1849	1751.8	873.6
851.1788	987.1884	1756.2	885.8
851.324	989.1911	1759.7	888.8
851.4691	991.1932	1760.1	890.6
851.6142	993.1945	1754.45	886.65
851.7593	995.1951	1752.25	885
851.9045	997.1951	1762.3	888
852.0496	999.1943	1745.65	877.3
852.1947	1001.1928	1740.8	873.35
852.3398	1003.1906	1750.35	883.3
852.4849	1005.1877	1760.05	891.05
852.63	1007.1841	1775.8	908.3
852.7751	1009.1798	1787.85	918.25
852.9202	1011.1748	1783.2	913.9
853.0653	1013.1691	1765.9	895.2
853.2104	1015.1627	1737.05	867.15
853.3555	1017.1556	1707.2	835.8
853.5006	1019.1477	1702.95	829.6
853.6457	1021.1392	1688.75	821.7
853.7908	1023.1299	1674.75	806.2
853.9359	1025.12	1683.35	810.75
854.081	1027.1093	1683.95	814.4
854.2261	1029.0979	1694.1	827.4
854.3712	1031.0859	1699.05	828.4
854.5163	1033.0731	1710.4	838.85
854.6613	1035.0596	1719.5	850.5
854.8064	1037.0454	1710.25	839.9
854.9515	1039.0304	1696.2	824.7
855.0965	1041.0148	1679	808.95
855.2416	1042.9985	1679.05	808.5
855.3867	1044.9814	1656.65	787.8
855.5317	1046.9636	1650.25	777.05
855.6768	1048.9452	1650.05	780.15
855.8219	1050.926	1670.6	800.4
855.9669	1052.9061	1676.45	806.2
856.112	1054.8855	1671.85	800.4
856.257	1056.8642	1678.55	807.75
856.4021	1058.8421	1679.35	804.1
856.5471	1060.8194	1676.6	806.2
856.6921	1062.7959	1663.85	794
856.8372	1064.7717	1662.6	791.2
856.9822	1066.7469	1655.8	782.8
857.1272	1068.7213	1664.5	788.25
857.2723	1070.695	1670.95	799.55
857.4173	1072.6679	1678.25	804.95
857.5623	1074.6402	1695	820.1
857.7073	1076.6117	1713.4	835.35
857.8523	1078.5826	1688.05	815.35
857.9973	1080.5527	1675.1	800.55
858.1423	1082.5221	1646.3	774.5
858.2873	1084.4908	1625.6	752.85
858.4323	1086.4587	1617.1	743.85
858.5773	1088.426	1607.15	732.6
858.7223	1090.3925	1609.45	730.2
858.8673	1092.3584	1600.35	727.15
859.0123	1094.3235	1593.9	721.15
859.1573	1096.2879	1612.1	740.2
859.3022	1098.2515	1631.45	759.3
859.4472	1100.2145	1640.75	767.9
859.5922	1102.1767	1661.35	784.6
859.7371	1104.1382	1683.65	811.35
859.8821	1106.099	1715.05	838.45
860.027	1108.0591	1753.5	878.85
860.172	1110.0185	1774.35	899.8
860.3169	1111.9771	1800.45	928.2
860.4619	1113.9351	1826.85	951.9
860.6068	1115.8923	1868.85	994.4
860.7517	1117.8488	1897.25	1020.4
860.8967	1119.8045	1878.6	1005.7
861.0416	1121.7596	1815.5	940.85
861.1865	1123.7139	1728.95	854.8
861.3314	1125.6675	1688.45	812.9
861.4763	1127.6204	1689.4	815.2
861.6212	1129.5726	1708.05	830.45
861.7661	1131.524	1701.75	827.45
861.911	1133.4748	1682.4	805.4
862.0559	1135.4248	1639.75	763.2
862.2008	1137.3741	1609.7	735.4
862.3457	1139.3226	1585.05	707
862.4905	1141.2705	1576.05	699.6
862.6354	1143.2176	1581.7	702.25
862.7803	1145.164	1599.3	723.3
862.9251	1147.1097	1587.1	712
863.07	1149.0546	1573.65	694.95
863.2148	1150.9989	1566.5	689.75
863.3597	1152.9424	1550.3	673.6
863.5045	1154.8852	1536.65	658.2
863.6493	1156.8272	1534.45	657.8
863.7942	1158.7686	1535.45	652.65
863.939	1160.7092	1533.15	659.05
864.0838	1162.6491	1528.7	651.25
864.2286	1164.5883	1524.6	648.7
864.3734	1166.5267	1541.6	663.3
864.5182	1168.4644	1552.05	676.1
864.663	1170.4014	1582.7	701.65
864.8078	1172.3377	1593.35	718.75
864.9526	1174.2732	1620.8	745.95
865.0974	1176.2081	1673.85	796.35
865.2421	1178.1421	1754.05	872.65
865.3869	1180.0755	1831.05	955.4
865.5317	1182.0082	1877.6	999.5
865.6764	1183.9401	1879.55	1003.5
865.8212	1185.8713	1816.9	938.5
865.9659	1187.8017	1744.45	865.95
866.1106	1189.7315	1666.2	792.05
866.2554	1191.6605	1632.3	725.05
866.4001	1193.5888	1579.25	702.5
866.5448	1195.5163	1556.1	678.4
866.6895	1197.4432	1542.65	663.25
866.8342	1199.3693	1521.45	643.75
866.9789	1201.2947	1516.8	632.45
867.1236	1203.2193	1505.15	627.35
867.2683	1205.1432	1507.75	630.9
867.413	1207.0664	1497.65	619.55
867.5576	1208.9889	1503.85	621.75
867.7023	1210.9106	1503.15	626.65
867.847	1212.8316	1496	619.55
867.9916	1214.7519	1509.95	623.65
868.1363	1216.6715	1513.05	635.5
868.2809	1218.5903	1513.1	636.2
868.4255	1220.5084	1524.4	646.6
868.5701	1222.4257	1537.35	658.9
868.7148	1224.3424	1533.35	657.55
868.8594	1226.2583	1550.9	669.55
869.004	1228.1735	1558.95	677.35
869.1486	1230.0879	1576.3	698.45
869.2932	1232.0016	1603.6	726.35
869.4377	1233.9146	1628.1	748
869.5823	1235.8269	1638.35	759.6
869.7269	1237.7384	1640.2	761.4
869.8715	1239.6492	1629.55	751.35
870.016	1241.5592	1637.5	758.05
870.1606	1243.4686	1665	788.1
870.3051	1245.3772	1702.35	822.65
870.4496	1247.285	1756.85	877.7
870.5941	1249.1922	1806	927.15
870.7387	1251.0986	1850.35	971.85
870.8832	1253.0042	1903.3	1024.5
871.0277	1254.9092	1940.8	1060.95
871.1722	1256.8134	2001.5	1125.25
871.3167	1258.7169	2064.85	1185.35
871.4611	1260.6196	2106.1	1226.9
871.6056	1262.5216	2131.85	1250.15
871.7501	1264.4229	2136.4	1256.45
871.8945	1266.3234	2112.4	1233.95
872.039	1268.2232	2069.8	1190.15
872.1834	1270.1223	2043.75	1162.6
872.3278	1272.0207	2001.85	1123.95
872.4723	1273.9183	1992.25	1106.3
872.6167	1275.8151	1979.4	1099.85
872.7611	1277.7113	2005.5	1124.9
872.9055	1279.6067	2056.55	1177.65
873.0499	1281.5014	2141.2	1258.25
873.1943	1283.3953	2265.85	1383
873.3386	1285.2885	2392.9	1512.25
873.483	1287.181	2487.05	1607.6
873.6274	1289.0727	2542.7	1662.35
873.7717	1290.9637	2519.65	1639.5
873.9161	1292.854	2435.25	1554.6
874.0604	1294.7435	2344.85	1462.05
874.2047	1296.6323	2261.3	1380.7
874.349	1298.5204	2197.2	1312.5
874.4933	1300.4077	2130.2	1249
874.6376	1302.2943	2095.05	1215.95
874.7819	1304.1802	2080.8	1201
874.9262	1306.0653	2049.7	1165.65
875.0705	1307.9497	2029.2	1147.75
875.2147	1309.8333	2011.1	1131.95
875.359	1311.7162	1995.15	1115
875.5032	1313.5984	1979.9	1096.75
875.6475	1315.4798	1988.15	1091.05
875.7917	1317.3605	1978.75	1080.15
875.9359	1319.2405	1981.85	1100.35
876.0801	1321.1197	1970.95	1088.05
876.2243	1322.9982	1954.5	1066.35
876.3685	1324.876	1910.75	1031.15
876.5127	1326.753	1855.05	972.8
876.6569	1328.6293	1795.5	914.3
876.801	1330.5048	1739.25	856.25
876.9452	1332.3796	1689.2	811.85
877.0893	1334.2537	1664.9	758.7
877.2335	1336.127	1615.8	733.95
877.3776	1337.9996	1598.45	716.45
877.5217	1339.8714	1577	695.35
877.6658	1341.7426	1614.95	688.5
877.8099	1343.6129	1553.75	672.5
877.954	1345.4826	1545.95	662.95
878.0981	1347.3515	1544.65	661.5
878.2422	1349.2196	1528.75	645.6
878.3862	1351.087	1516.7	633.85
878.5303	1352.9537	1517.4	636.35
878.6743	1354.8197	1507.15	625.75
878.8184	1356.6849	1518.8	636.95
878.9624	1358.5493	1527.05	646.65
879.1064	1360.4131	1545.2	663.8
879.2504	1362.276	1563.45	681.45
879.3944	1364.1383	1584.15	703.5
879.5384	1365.9998	1607.35	719.8
879.6823	1367.8606	1589.1	708.55
879.8263	1369.7206	1591.1	709.5
879.9702	1371.5799	1586.65	702.8
880.1142	1373.4384	1588.95	707.45
880.2581	1375.2962	1570.9	687.05
880.402	1377.1533	1539.8	659.65
880.5459	1379.0096	1507.25	624.4
880.6898	1380.8652	1488.2	606.1
880.8337	1382.7201	1462.25	579.4
880.9776	1384.5742	1445.2	562.5
881.1215	1386.4275	1434	549.8
881.2653	1388.2802	1421.8	539
881.4092	1390.132	1411.05	526.25
881.553	1391.9832	1412.2	528.65
881.6968	1393.8336	1407.9	523.05
881.8406	1395.6832	1403.3	517.95
881.9844	1397.5322	1385.85	503.75
882.1282	1399.3803	1391.5	505
882.272	1401.2278	1372.7	489.05
882.4158	1403.0745	1374.1	494.8
882.5595	1404.9204	1367.6	484.15
882.7033	1406.7656	1356.5	474.2
882.847	1408.6101	1355	471.65
882.9908	1410.4538	1351.7	468.95
883.1345	1412.2968	1358.15	474.65
883.2782	1414.139	1352.8	470.1
883.4219	1415.9805	1359.5	476.8
883.5656	1417.8213	1367.05	479.05
883.7092	1419.6613	1373.95	491.65
883.8529	1421.5006	1392.7	507.05
883.9965	1423.3391	1413.05	531.65
884.1402	1425.1769	1446.9	562.95
884.2838	1427.0139	1503.75	621.5
884.4274	1428.8502	1552.95	668.85
884.571	1430.6858	1585.5	702.95
884.7146	1432.5206	1607.4	723.7
884.8582	1434.3547	1604.4	719.65
885.0018	1436.188	1594.4	709.6
885.1453	1438.0206	1567.8	684.25
885.2889	1439.8524	1575.3	691.55
885.4324	1441.6835	1566.1	681.25
885.5759	1443.5139	1578.45	692.3
885.7194	1445.3435	1565.15	681.15
885.8629	1447.1724	1580.35	697.3
886.0064	1449.0005	1569.7	686.25
886.1499	1450.8279	1563.6	680.25
886.2933	1452.6545	1555.9	673.8
886.4368	1454.4804	1564.95	680.45
886.5802	1456.3056	1559.5	667
886.7237	1458.13	1542.95	658.6
886.8671	1459.9536	1523.6	642.05
887.0105	1461.7766	1498	614.9
887.1539	1463.5987	1479.6	596
887.2972	1465.4202	1460.6	575.9
887.4406	1467.2409	1429.8	545.45
887.584	1469.0608	1408.7	526.9
887.7273	1470.88	1394.75	510.55
887.8706	1472.6984	1375.95	494.95
888.0139	1474.5161	1367.1	479.95
888.1572	1476.3331	1350.1	466.4
888.3005	1478.1493	1337.85	456.05
888.4438	1479.9648	1332.6	449.2
888.5871	1481.7795	1337.1	454.5
888.7303	1483.5935	1334.3	451.35
888.8736	1485.4067	1343.15	457.9
889.0168	1487.2192	1340.1	456.6
889.16	1489.031	1344.25	458.45
889.3032	1490.842	1341.95	459.4
889.4464	1492.6522	1333.35	450.05
889.5896	1494.4618	1333.6	448.05
889.7327	1496.2705	1334.3	449.4
889.8759	1498.0785	1328.4	445.35
890.019	1499.8858	1321.85	434.6
890.1622	1501.6924	1319.5	436.65
890.3053	1503.4981	1314.2	429.65
890.4484	1505.3032	1309.15	425.3
890.5914	1507.1075	1304.8	420.65
890.7345	1508.911	1308.9	425.85
890.8776	1510.7138	1298.65	412.55
891.0206	1512.5159	1302.15	417.8
891.1637	1514.3172	1291	406.85
891.3067	1516.1178	1291.95	408.8
891.4497	1517.9176	1285.35	396.45
891.5927	1519.7166	1278.65	395.55
891.7357	1521.515	1282.65	392.3
891.8786	1523.3126	1274.3	389.95
892.0216	1525.1094	1273.3	387.6
892.1645	1526.9055	1264.2	381.9
892.3074	1528.7008	1264.85	379.9
892.4503	1530.4954	1264.4	373.95
892.5932	1532.2893	1268.9	387.7
892.7361	1534.0824	1260.15	369.75
892.879	1535.8747	1254.85	371.15
893.0218	1537.6663	1255.55	369.75
893.1647	1539.4572	1255.5	370.15
893.3075	1541.2473	1252.4	367.3
893.4503	1543.0367	1247.95	365.65
893.5931	1544.8253	1255.3	365.2
893.7359	1546.6132	1253.95	368.25
893.8787	1548.4003	1262	366.55
894.0214	1550.1867	1264.9	372.1
894.1642	1551.9723	1273.2	382.8
894.3069	1553.7572	1271.45	384.15
894.4496	1555.5414	1278.05	392.5
894.5923	1557.3247	1295.75	409.9
894.735	1559.1074	1312.15	427.3
894.8777	1560.8893	1330.8	447.9
895.0204	1562.6705	1355.1	468.2
895.163	1564.4509	1376.25	491
895.3056	1566.2305	1381.55	498.05
895.4482	1568.0094	1384.1	501.75
895.5908	1569.7876	1380.25	496.2
895.7334	1571.565	1379.65	492.1
895.876	1573.3417	1375.7	489.4
896.0186	1575.1176	1383.15	498.15
896.1611	1576.8928	1390.6	504.25
896.3036	1578.6672	1400.65	515.45
896.4461	1580.4409	1416.3	533.4
896.5886	1582.2138	1435.45	548.3
896.7311	1583.986	1462.45	577
896.8736	1585.7575	1485.95	600.2
897.0161	1587.5282	1508	624
897.1585	1589.2981	1514.9	631.25
897.3009	1591.0673	1524.7	638.9
897.4433	1592.8358	1537.15	654.05
897.5857	1594.6035	1541.75	655
897.7281	1596.3704	1519.4	636.25
897.8705	1598.1366	1504.6	619.9
898.0128	1599.9021	1485.95	603.35
898.1551	1601.6668	1476.3	588.85
898.2975	1603.4308	1458.7	571.95
898.4398	1605.194	1458.2	568.8
898.5821	1606.9564	1464.8	579.55
898.7243	1608.7182	1502	612.55
898.8666	1610.4791	1544.05	659.7
899.0088	1612.2394	1597.3	711.5
899.1511	1613.9988	1663	777.85
899.2933	1615.7576	1724.3	839.45
899.4355	1617.5156	1749.7	858.25
899.5776	1619.2728	1731.4	846
899.7198	1621.0293	1682.9	799.5
899.862	1622.785	1622.85	732.95
900.0041	1624.54	1545.7	657.4
900.1462	1626.2942	1475.55	588.3
900.2883	1628.0477	1419.6	530.4
900.4304	1629.8005	1364.1	474.1
900.5725	1631.5525	1324.8	439.7
900.7145	1633.3037	1294.55	409.1
900.8566	1635.0542	1270	382.85
900.9986	1636.804	1246.35	362.7
901.1406	1638.553	1292	340.25
901.2826	1640.3013	1222.3	337.5
901.4245	1642.0488	1208.25	321.25
901.5665	1643.7955	1201.9	316.55
901.7085	1645.5416	1194.85	307.9
901.8504	1647.2868	1187.05	301.85
901.9923	1649.0313	1180.8	295.4
902.1342	1650.7751	1189.6	301.45
902.2761	1652.5181	1179	293.9
902.4179	1654.2604	1177.6	291.1
902.5598	1656.0019	1178.25	291.2
902.7016	1657.7427	1183.65	298.25
902.8434	1659.4828	1188.6	303.4
902.9852	1661.222	1206.65	318.9
903.127	1662.9606	1230	345.45
903.2687	1664.6984	1242.85	357.1
903.4105	1666.4354	1259.75	375.5
903.5522	1668.1717	1255.65	370.3
903.6939	1669.9072	1225.95	339.4
903.8356	1671.642	1202.85	312.55
903.9773	1673.3761	1177	293.55
904.119	1675.1094	1155.65	270.4
904.2606	1676.8419	1148.15	262.75
904.4022	1678.5737	1141.6	258.1
904.5439	1680.3048	1128.85	242.7
904.6855	1682.0351	1122.25	236.1
904.827	1683.7646	1127.35	239.2
904.9686	1685.4934	1114.45	229.55
905.1101	1687.2215	1115.4	228.45
905.2517	1688.9488	1109.35	224.65
905.3932	1690.6754	1109.3	223.4
905.5347	1692.4012	1107.95	223.9
905.6761	1694.1263	1104.15	219.4
905.8176	1695.8506	1103.6	216.65
905.9591	1697.5742	1106.55	222.05
906.1005	1699.297	1101.65	214.75
906.2419	1701.0191	1099.7	213.05
906.3833	1702.7404	1100.15	214
906.5246	1704.461	1097.85	209.95
906.666	1706.1808	1099.1	211.6
906.8073	1707.8999	1094.7	207.55
906.9487	1709.6182	1093.15	206
907.09	1711.3358	1094.45	209.1
907.2313	1713.0527	1086.8	200.5
907.3725	1714.7688	1093.15	202
907.5138	1716.4841	1088.35	200.65
907.655	1718.1987	1095.75	204.15
907.7962	1719.9126	1083.3	199.15
907.9374	1721.6257	1084.3	194.85
908.0786	1723.338	1088.6	200.7
908.2198	1725.0496	1085.4	198.85
908.3609	1726.7605	1084.95	198.8
908.502	1728.4706	1084.25	197.9
908.6431	1730.18	1081.3	192.25
908.7842	1731.8886	1085.95	199.4
908.9253	1733.5964	1102.3	194.75
909.0664	1735.3036	1079.3	189.9
909.2074	1737.0099	1079.45	194.05
909.3484	1738.7156	1078.35	192.75
909.4894	1740.4204	1078.9	186.95
909.6304	1742.1246	1081.6	195.05
909.7714	1743.8279	1077.5	190.9
909.9123	1745.5306	1075.95	187.2
910.0532	1747.2325	1079.25	191.2
910.1941	1748.9336	1076.55	189.45
910.335	1750.634	1079.2	192.9
910.4759	1752.3336	1076.85	188.8
910.6168	1754.0325	1073.3	187.9
910.7576	1755.7307	1074.4	187.15
910.8984	1757.4281	1075.8	187.85
911.0392	1759.1247	1078.2	184.4
911.18	1760.8206	1076.95	185.6
911.3208	1762.5158	1077.25	186.35
911.4615	1764.2102	1070.15	185.6
911.6022	1765.9039	1071.25	186.2
911.7429	1767.5968	1073.45	188.25
911.8836	1769.289	1072.7	185.45
912.0243	1770.9804	1066.35	178.3
912.1649	1772.6711	1069.8	184.85
912.3056	1774.361	1073.15	186.25
912.4462	1776.0502	1069.15	183.85
912.5868	1777.7386	1071.3	182.95
912.7274	1779.4263	1069.05	184.7
912.8679	1781.1132	1068.55	183.3
913.0084	1782.7994	1066.8	176.85
913.149	1784.4849	1067.9	179.3
913.2895	1786.1696	1082.35	176.85
913.4299	1787.8535	1060.8	173.05
913.5704	1789.5367	1065.45	178.9
913.7108	1791.2192	1066.15	178.4
913.8513	1792.9009	1076.4	174.95
913.9917	1794.5818	1063.35	175.8
914.132	1796.2621	1061.25	177
914.2724	1797.9415	1061	174.95
914.4128	1799.6202	1061.55	175.2
914.5531	1801.2982	1061.2	175.2
914.6934	1802.9755	1058.55	169.95
914.8337	1804.6519	1063.4	176.55
914.9739	1806.3277	1056.4	169.45
915.1142	1808.0027	1058	171.2
915.2544	1809.6769	1059.25	172.9
915.3946	1811.3504	1057.2	169.95
915.5348	1813.0231	1053.15	165.65
915.675	1814.6951	1056.9	170.05
915.8151	1816.3664	1059.55	170.8
915.9553	1818.0369	1058.35	171.5
916.0954	1819.7067	1057.6	171.85
916.2355	1821.3757	1052.85	164.65
916.3755	1823.044	1054.1	168.7
916.5156	1824.7115	1055.25	168.25
916.6556	1826.3783	1045.75	160.3
916.7956	1828.0443	1049.9	166.35
916.9356	1829.7096	1054.25	167.95
917.0756	1831.3741	1055.2	167.7
917.2155	1833.0379	1051.75	164.25
917.3555	1834.701	1052.75	164.05
917.4954	1836.3633	1050.45	163.55
917.6353	1838.0248	1050.4	160.7
917.7751	1839.6856	1048.85	161.9
917.915	1841.3457	1047.05	161.45
918.0548	1843.005	1046.65	158.3
918.1946	1844.6636	1045.65	161.95
918.3344	1846.3214	1047.6	160.55
918.4742	1847.9785	1049.25	164.45
918.6139	1849.6349	1048.4	161.1
918.7537	1851.2904	1052.85	157.65
918.8934	1852.9453	1043.05	155.75
919.0331	1854.5994	1046.3	158.2
919.1727	1856.2528	1048.15	157.55
919.3124	1857.9054	1048.7	161.6
919.452	1859.5572	1045.2	160
919.5916	1861.2083	1046.5	159.7
919.7312	1862.8587	1049.35	162.85
919.8708	1864.5084	1046	160.15
920.0103	1866.1572	1042.95	157.65
920.1498	1867.8054	1045.9	161.05
920.2893	1869.4528	1041.4	155.5
920.4288	1871.0994	1043.55	157.55
920.5683	1872.7453	1046.9	159.4
920.7077	1874.3905	1051.7	158.65
920.8471	1876.0349	1044.45	158.2
920.9865	1877.6786	1044.9	157.5
921.1259	1879.3215	1040.8	155.45
921.2653	1880.9637	1043.05	153.7
921.4046	1882.6051	1036.55	150.95
921.5439	1884.2458	1038.15	150.35
921.6832	1885.8858	1036.9	149.9
921.8225	1887.525	1037.15	148.65
921.9617	1889.1634	1040.7	154.85
922.101	1890.8011	1038.5	152.4
922.2402	1892.4381	1039.6	154.55
922.3794	1894.0743	1035.3	150.35
922.5185	1895.7098	1035.5	147.65
922.6577	1897.3446	1038.05	150.25
922.7968	1898.9786	1038.85	149.3
922.9359	1900.6118	1037.25	152.1
923.075	1902.2443	1037.45	147.65
923.214	1903.8761	1038.4	153.85
923.3531	1905.5071	1033.95	146.5
923.4921	1907.1374	1033.3	146.85
923.6311	1908.7669	1031.65	144.4
923.77	1910.3957	1036.3	148.1
923.909	1912.0237	1029.35	141.35
924.0479	1913.651	1035.2	148.8
924.1868	1915.2776	1032.9	148.55
924.3257	1916.9034	1028.55	143.5
924.4646	1918.5285	1030.7	143.75
924.6034	1920.1528	1029.25	142.65
924.7422	1921.7764	1029.05	143.55
924.881	1923.3992	1031.9	146.35
925.0198	1925.0213	1029.15	142.5
925.1586	1926.6427	1026.8	140.85
925.2973	1928.2633	1139.7	137.95
925.436	1929.8832	1031.3	141.3
925.5747	1931.5023	1027.85	140.3
925.7134	1933.1207	1029.25	141.65
925.852	1934.7383	1027.5	139.1
925.9906	1936.3552	1027.75	140.65
926.1292	1937.9714	1028.75	141.95
926.2678	1939.5868	1029.4	139.8
926.4064	1941.2015	1025.35	136.85
926.5449	1942.8154	1022	136.55
926.6834	1944.4286	1025.2	137.9
926.8219	1946.041	1047.25	137.1
926.9604	1947.6528	1027.05	136.6
927.0988	1949.2637	1021.8	135.95
927.2372	1950.8739	1025.8	138.15
927.3756	1952.4834	1024.6	140.15
927.514	1954.0921	1027.95	140.55
927.6523	1955.7001	1029.45	140.3
927.7907	1957.3074	1021.25	134.8
927.929	1958.9139	1017.1	130.1
928.0673	1960.5197	1024.6	137.1
928.2055	1962.1247	1021.9	135.5
928.3438	1963.729	1020.2	134.25
928.482	1965.3325	1045.65	133.25
928.6202	1966.9353	1018.8	133.1
928.7584	1968.5374	1021.45	135
928.8965	1970.1387	1017.7	131.1
929.0346	1971.7393	1015.65	129.3
929.1727	1973.3392	1017.8	130.1
929.3108	1974.9383	1016.15	128.8
929.4489	1976.5366	1018.6	132.65
929.5869	1978.1342	1016.35	130
929.7249	1979.7311	1015.25	128.05
929.8629	1981.3273	1016.8	127.95
930.0009	1982.9227	1013.75	125.3
930.1388	1984.5173	1016.05	130.15
930.2767	1986.1112	1015.3	126.35
930.4146	1987.7044	1013	127.35
930.5525	1989.2968	1015.15	126.4
930.6904	1990.8885	1016.8	126.85
930.8282	1992.4795	1015.5	126.75
930.966	1994.0697	1015.55	126.8
931.1038	1995.6592	1014.15	127.45
931.2415	1997.2479	1013.7	126.35
931.3793	1998.8359	1012.45	128.15
931.517	2000.4232	1013.45	129.35
931.6547	2002.0097	1011.6	124.45
931.7923	2003.5955	1012.85	124.05
931.93	2005.1805	1014.05	125.95
932.0676	2006.7648	1013.6	126.95
932.2052	2008.3484	1013.6	125.4
932.3427	2009.9312	1013.55	126.1
932.4803	2011.5133	1010.65	126.3
932.6178	2013.0946	1012.7	126.5
932.7553	2014.6752	1007.65	121.95
932.8928	2016.2551	1007.1	118.2
933.0302	2017.8342	1010.5	122.05
933.1676	2019.4126	1005.15	118.15
933.305	2020.9902	1007.8	121.15
933.4424	2022.5672	1008.65	119.3
933.5798	2024.1433	1016.45	123.6
933.7171	2025.7188	1008.55	122.35
933.8544	2027.2935	1010.5	120.6
933.9917	2028.8674	1005.1	118.25
934.129	2030.4406	1007	121.65
934.2662	2032.0131	1007.15	122
934.4034	2033.5849	1011.9	119.1
934.5406	2035.1559	1006.2	119.4
934.6778	2036.7261	1007	119.3
934.8149	2038.2957	1010.15	124.05
934.952	2039.8645	1005.3	118.5
935.0891	2041.4325	1008.8	120.15
935.2262	2042.9998	1005.2	120.1
935.3632	2044.5664	1007.7	118.8
935.5002	2046.1323	1005.5	118.15
935.6372	2047.6974	1007.25	120.75
935.7742	2049.2617	1006.4	119.55
935.9111	2050.8254	1043.05	121.35
936.048	2052.3883	1008.8	119.95
936.1849	2053.9504	1006.35	119.45
936.3218	2055.5118	1006.7	120.15
936.4586	2057.0725	1007.5	116.65
936.5955	2058.6325	1004.5	116.55
936.7323	2060.1917	1004.8	117.75
936.869	2061.7502	1010.15	120.6
937.0058	2063.3079	1005.05	116.3
937.1425	2064.8649	1011.95	122.7
937.2792	2066.4212	1005.5	119.2
937.4159	2067.9767	1005.65	117.65
937.5525	2069.5315	999.2	114.45
937.6891	2071.0856	1003.8	116.15
937.8257	2072.6389	1004.9	116.55
937.9623	2074.1915	1003.45	117.5
938.0989	2075.7433	1006.4	117.7
938.2354	2077.2945	999.65	113.5
938.3719	2078.8448	1001.35	114.45
938.5084	2080.3945	1004.1	116.45
938.6448	2081.9434	1001.55	114.7
938.7812	2083.4916	1003.95	116.65
938.9176	2085.039	1002.9	115.85
939.054	2086.5857	1000.9	114.55
939.1903	2088.1317	1002.3	117.15
939.3267	2089.677	1003.35	116.7
939.463	2091.2215	999.35	113.75
939.5992	2092.7652	1005.4	117.2
939.7355	2094.3083	1001.1	113
939.8717	2095.8506	998.5	112.75
940.0079	2097.3921	1000	114.95
940.1441	2098.933	999.4	113.6
940.2802	2100.4731	1000.5	114.05
940.4163	2102.0124	1011.05	117.75
940.5524	2103.5511	999.9	114.3
940.6885	2105.089	1003.45	117.3
940.8245	2106.6261	996.6	111
940.9606	2108.1626	1005.4	117.25
941.0965	2109.6983	1031.5	115.3
941.2325	2111.2332	1002	114.4
941.3684	2112.7675	998.9	111.75
941.5044	2114.301	1000.75	112.95
941.6403	2115.8337	1000.25	111.8
941.7761	2117.3657	999.25	112.3
941.912	2118.897	997.25	109.95
942.0478	2120.4276	1002.9	108.95
942.1835	2121.9575	999	112.4
942.3193	2123.4866	1012.6	112
942.455	2125.0149	1001	112.8
942.5907	2126.5426	999.55	112.2
942.7264	2128.0695	1002.55	110.55
942.8621	2129.5956	999.4	112.95
942.9977	2131.1211	1003.8	111.9
943.1333	2132.6458	1001.65	116.4
943.2689	2134.1698	1001.65	115.25
943.4044	2135.693	997.05	108.65
943.54	2137.2155	1001.85	113.75
943.6755	2138.7373	998.6	110.15
943.8109	2140.2584	1001.05	113.45
943.9464	2141.7787	1004.35	109.8
944.0818	2143.2983	996.85	108.8
944.2172	2144.8171	997.65	114.25
944.3526	2146.3353	998.65	108.2
944.4879	2147.8527	992.7	108.6
944.6232	2149.3693	995.2	109.1
944.7585	2150.8853	999.15	111.1
944.8938	2152.4005	995.7	108.2
945.029	2153.9149	996.65	108.55
945.1642	2155.4287	994.75	109.25
945.2994	2156.9417	998.5	110.65
945.4346	2158.454	999.45	109.5
945.5697	2159.9655	999.65	111.25
945.7048	2161.4764	993.95	106.4
945.8399	2162.9865	992.85	106.25
945.9749	2164.4958	992.3	103.55
946.1099	2166.0045	999.1	106.85
946.2449	2167.5124	993.75	110
946.3799	2169.0195	991.15	104.35
946.5148	2170.526	991.8	104.6
946.6498	2172.0317	996.8	110.95
946.7846	2173.5367	992.95	105.75
946.9195	2175.0409	996.55	110.5
947.0543	2176.5445	994.15	108.3
947.1891	2178.0473	992.7	105.95
947.3239	2179.5494	997.4	108.25
947.4587	2181.0507	991.85	104.35
947.5934	2182.5513	993.05	106.25
947.7281	2184.0512	991.55	105.65
947.8628	2185.5504	993.75	107.85
947.9974	2187.0488	990.75	105
948.132	2188.5465	992.25	103.7
948.2666	2190.0435	991.15	105.65
948.4012	2191.5397	989.95	105.8
948.5357	2193.0353	990.25	104.2
948.6702	2194.5301	992.7	106.05
948.8047	2196.0241	988.7	101.45
948.9392	2197.5175	990.2	103.7
949.0736	2199.0101	993.45	103.1
949.208	2200.502	986.2	100.9
949.3424	2201.9931	989.25	101.65
949.4767	2203.4835	989.5	101.45
949.611	2204.9733	995.15	100.7
949.7453	2206.4622	987.3	101
949.8796	2207.9505	988.9	98.05
950.0138	2209.438	985	97.5
950.148	2210.9248	988.1	99.45
950.2822	2212.4109	987	99.4
950.4164	2213.8962	989.3	100.3
950.5505	2215.3809	988.2	99.85
950.6846	2216.8648	988.15	102.35
950.8186	2218.3479	989.75	100
950.9527	2219.8304	987	97.55
951.0867	2221.3121	989.35	100.4
951.2207	2222.7931	986.8	99.15
951.3546	2224.2733	987.55	102.55
951.4886	2225.7529	984.35	96.1
951.6225	2227.2317	989.4	99.9
951.7563	2228.7098	987.55	99.75
951.8902	2230.1872	985.15	99.05
952.024	2231.6638	983.45	96.7
952.1578	2233.1397	988.45	96.5
952.2916	2234.6149	984.6	96.85
952.4253	2236.0894	988.9	103.3
952.559	2237.5632	989.6	92.95
952.6927	2239.0362	983.9	97.6
952.8263	2240.5085	981.2	93.5
952.9599	2241.9801	980.45	93.65
953.0935	2243.4509	984.05	98.1
953.2271	2244.921	979.5	92.65
953.3606	2246.3904	981.9	92.75
953.4941	2247.8591	981.35	94.1
953.6276	2249.3271	979.2	91.35
953.7611	2250.7943	982.25	95.1
953.8945	2252.2608	977.7	90.5
954.0279	2253.7266	978.2	91.9
954.1612	2255.1917	980.25	93.4
954.2946	2256.656	980.05	93.55
954.4279	2258.1197	979.85	94.05
954.5612	2259.5826	978.8	89.9
954.6944	2261.0447	982.3	94.3
954.8276	2262.5062	978.55	91.05
954.9608	2263.9669	982.6	93.85
955.094	2265.4269	976.55	92.55
955.2271	2266.8862	978.35	91.6
955.3602	2268.3448	975.25	87.1
955.4933	2269.8026	977.25	88.35
955.6264	2271.2598	976.7	89.65
955.7594	2272.7162	976.95	92.75
955.8924	2274.1719	978.7	91.9
956.0253	2275.6268	976.2	88.1
956.1583	2277.0811	978.4	90.9
956.2912	2278.5346	973.8	88.4
956.4241	2279.9874	978.8	92.5
956.5569	2281.4395	976.15	89
956.6897	2282.8908	980.7	88.95
956.8225	2284.3414	974.35	85.85
956.9553	2285.7914	977	90.35
957.088	2287.2406	977.15	90.25
957.2207	2288.689	973.75	85.85
957.3534	2290.1368	974.7	88.55
957.486	2291.5838	975.55	86.75
957.6186	2293.0302	976.2	87.6
957.7512	2294.4758	972.4	86.75
957.8838	2295.9206	974.85	86.7
958.0163	2297.3648	975.55	89.85
958.1488	2298.8082	972.95	87.4
958.2813	2300.251	972.75	86.25
958.4137	2301.693	976.5	88.55
958.5461	2303.1343	973.8	86.8
958.6785	2304.5748	973.45	85.4
958.8108	2306.0147	974.4	86.25
958.9432	2307.4538	973.9	83.85
959.0754	2308.8922	971	83.5
959.2077	2310.3299	970.6	83.2
959.3399	2311.7669	970.1	83.3
959.4721	2313.2031	970.3	85.15
959.6043	2314.6387	969.9	83.1
959.7365	2316.0735	970.25	83.5
959.8686	2317.5076	971.3	84.45
960.0006	2318.941	968.65	82.35
960.1327	2320.3737	973.5	85.05
960.2647	2321.8056	973.55	84.9
960.3967	2323.2369	973.75	86.3
960.5287	2324.6674	974.85	86.35
960.6606	2326.0972	975.75	87.3
960.7925	2327.5263	976.9	89.9
960.9244	2328.9547	978.5	90.1
961.0562	2330.3823	979.25	92.15
961.1881	2331.8092	978.05	88.35
961.3198	2333.2355	971.95	86.05
961.4516	2334.661	969.3	82.95
961.5833	2336.0858	969.8	80.7
961.715	2337.5098	969.05	83.05
961.8467	2338.9332	971.35	82.6
961.9783	2340.3558	970.3	79.75
962.1099	2341.7778	967.45	80.7
962.2415	2343.199	971.55	81.9
962.373	2344.6195	966.8	80.75
962.5045	2346.0393	963.65	75.35
962.636	2347.4583	967.25	78.7
962.7675	2348.8767	968.15	79.35
962.8989	2350.2943	965.4	78.95
963.0303	2351.7113	968.25	81.3
963.1617	2353.1275	968.55	82.5
963.293	2354.543	973.75	77.8
963.4243	2355.9578	960.75	73.95
963.5556	2357.3718	961.9	75.35
963.6868	2358.7852	968.85	77.95
963.818	2360.1978	964.05	74.65
963.9492	2361.6098	962.1	75.35
964.0803	2363.021	968.05	77.1
964.2114	2364.4315	968.75	82.4
964.3425	2365.8413	965.3	78
964.4736	2367.2504	965.35	80.05
964.6046	2368.6587	963.2	75.8
964.7356	2370.0664	963.9	78.3
964.8666	2371.4733	963.3	75.6
964.9975	2372.8795	959.3	70.9
965.1284	2374.285	963.75	76.95
965.2593	2375.6899	959.65	73.3
965.3901	2377.0939	962.5	75.6
965.5209	2378.4973	961.55	75.5
965.6517	2379.9	961.7	73.5
965.7825	2381.3019	963.35	76.45
965.9132	2382.7032	963.3	78.4
966.0439	2384.1037	958.8	72.95
966.1745	2385.5035	961.55	73.05
966.3051	2386.9027	961.2	75.05
966.4357	2388.3011	965.15	76.35
966.5663	2389.6987	961.1	73.65
966.6968	2391.0957	958.55	71.45
966.8273	2392.492	960.15	75.05
966.9578	2393.8876	960.65	71.45
967.0882	2395.2824	958.9	70.5
967.2186	2396.6765	960.75	75.1
967.349	2398.07	958.5	72.6
967.4793	2399.4627	958.35	69.35
967.6097	2400.8547	960.1	73.45
967.7399	2402.246	961.25	69.55
967.8702	2403.6366	959.3	72.35
968.0004	2405.0265	956.8	68.65
968.1306	2406.4156	961.5	69.5
968.2607	2407.8041	960.9	71.3
968.3909	2409.1918	958.05	67.1
968.521	2410.5789	957.6	70.1
968.651	2411.9652	959.5	70.3
968.781	2413.3508	956.25	68.2
968.911	2414.7358	954	65.95
969.041	2416.12	953.55	66.05
969.1709	2417.5035	953.35	66.95
969.3008	2418.8863	956.5	67.9
969.4307	2420.2684	956.55	67.85
969.5606	2421.6497	956.1	67.95
969.6904	2423.0304	952.3	65
969.8201	2424.4104	954.9	67.55
969.9499	2425.7896	960.35	67.45
970.0796	2427.1682	954.35	68.35
970.2093	2428.546	954.95	66.95
970.3389	2429.9232	953.1	64.65
970.4685	2431.2996	949.95	64.4
970.5981	2432.6753	951	63.3
970.7277	2434.0503	952.65	65.4
970.8572	2435.4246	951.5	63.75
970.9867	2436.7982	953.55	63.25
971.1161	2438.1711	950.8	63.9
971.2456	2439.5433	951.45	61.75
971.375	2440.9148	961	69.85
971.5043	2442.2856	951.1	66.3
971.6336	2443.6557	953.05	66.8
971.7629	2445.025	949.75	65.15
971.8922	2446.3937	954.9	67.8
972.0214	2447.7617	950.05	63.65
972.1506	2449.1289	950.15	63.55
972.2798	2450.4955	957.1	64.8
972.4089	2451.8613	951	64.85
972.538	2453.2265	949.9	61.6
972.6671	2454.5909	953.3	64.6
972.7961	2455.9546	950.45	63.1
972.9251	2457.3177	950	64.1
973.0541	2458.68	951.35	63.85
973.1831	2460.0416	951.35	64.45
973.312	2461.4025	951.4	62.5
973.4408	2462.7627	959.9	60.15
973.5697	2464.1222	951.7	64.2
973.6985	2465.4811	950.85	63.65
973.8273	2466.8392	946.3	58.8
973.956	2468.1966	948.8	60.1
974.0847	2469.5533	951.4	62.9
974.2134	2470.9093	948.95	60.25
974.3421	2472.2645	948.45	59.45
974.4707	2473.6191	946.4	59.55
974.5993	2474.973	948	60.4
974.7278	2476.3262	949.8	61.05
974.8563	2477.6787	950.05	63.05
974.9848	2479.0305	946.25	59.8
975.1132	2480.3816	951.75	63.4
975.2417	2481.7319	947.95	59.75
975.37	2483.0816	949.65	60.15
975.4984	2484.4306	947.2	56.1
975.6267	2485.7789	947.4	62.1
975.755	2487.1264	947.75	58.4
975.8833	2488.4733	946.6	60.25
976.0115	2489.8195	963.4	59.45
976.1397	2491.165	950.3	56.3
976.2678	2492.5097	945.55	56.35
976.3959	2493.8538	945.75	58.3
976.524	2495.1972	947	60.3
976.6521	2496.5398	947.9	59
976.7801	2497.8818	948.3	61.3
976.9081	2499.2231	946.1	59.5
977.036	2500.5637	943	54.45
977.164	2501.9035	948.85	61.95
977.2918	2503.2427	949.95	57.45
977.4197	2504.5812	945.6	58.65
977.5475	2505.919	944.6	55.6
977.6753	2507.256	944.5	59.4
977.8031	2508.5924	945.1	59.25
977.9308	2509.9281	949.4	56.05
978.0585	2511.2631	940.2	52.2
978.1861	2512.5974	942.7	56.7
978.3137	2513.9309	944	57.1
978.4413	2515.2638	978.85	58.55
978.5689	2516.596	942.65	57.85
978.6964	2517.9275	944.1	57
978.8239	2519.2583	940.95	52.8
978.9513	2520.5884	944.65	54.3
979.0788	2521.9178	943.95	56.75
979.2062	2523.2465	939.85	53.3
979.3335	2524.5745	945.4	58.4
979.4608	2525.9018	943.15	55.85
979.5881	2527.2284	938.15	51.5
979.7154	2528.5543	941.95	54.25
979.8426	2529.8796	942.4	54.45
979.9698	2531.2041	939.45	51.9
980.0969	2532.5279	939.4	53.75
980.224	2533.851	940.9	53.6
980.3511	2535.1735	942.2	53.4
980.4781	2536.4952	940.15	56
980.6052	2537.8163	939.6	51.35
980.7321	2539.1366	936.6	50.75
980.8591	2540.4562	940.4	53.7
980.986	2541.7752	940.5	53.45
981.1129	2543.0935	939.25	52.5
981.2397	2544.411	942.9	54.35
981.3665	2545.7279	941.55	55
981.4933	2547.0441	940.45	52.7
981.62	2548.3596	941	50.2
981.7467	2549.6744	941.45	57.15
981.8734	2550.9885	939.95	51.1
982.0001	2552.3019	939.15	52.1
982.1267	2553.6146	937.5	51.15
982.2532	2554.9266	936.6	48.6
982.3798	2556.2379	938.75	51
982.5063	2557.5485	937.65	51.45
982.6327	2558.8585	945.95	52.4
982.7592	2560.1677	943.3	51.5
982.8856	2561.4762	939.6	50.7
983.0119	2562.7841	937.75	46.25
983.1383	2564.0913	936.6	52.7
983.2646	2565.3977	936.6	50.6
983.3908	2566.7035	936.3	50.15
983.517	2568.0086	936.55	47.35
983.6432	2569.313	937.25	49
983.7694	2570.6167	940.15	49.85
983.8955	2571.9197	934.75	48.25
984.0216	2573.222	941.6	51.95
984.1476	2574.5236	939.5	52.65
984.2737	2575.8246	942.55	53.85
984.3996	2577.1248	938.6	48.65
984.5256	2578.4244	938.9	51.9
984.6515	2579.7232	937.55	49.7
984.7774	2581.0214	963.75	43.7
984.9032	2582.3189	937.75	50.15
985.029	2583.6157	943.25	51.25
985.1548	2584.9118	936.65	49.5
985.2806	2586.2072	934.8	47.75
985.4063	2587.5019	934.5	48.55
985.5319	2588.7959	935.9	49.35
985.6576	2590.0893	937.55	50.2
985.7832	2591.3819	936.4	50.75
985.9087	2592.6739	932.95	46.6
986.0343	2593.9652	938.05	50.9
986.1597	2595.2557	934.45	48.9
986.2852	2596.5456	939.65	50.15
986.4106	2597.8348	934.55	47.1
986.536	2599.1234	933.7	48.15
986.6614	2600.4112	936	49.8
986.7867	2601.6983	937.1	47
986.912	2602.9848	938	51.3
987.0372	2604.2705	942.2	48.45
987.1624	2605.5556	935.35	46.8
987.2876	2606.84	936.5	47.5
987.4128	2608.1237	933.95	45.55
987.5379	2609.4067	934.5	48.15
987.6629	2610.689	943.15	48.15
987.788	2611.9707	937.15	46.8
987.913	2613.2516	936.9	45.65
988.0379	2614.5319	933.45	46.5
988.1629	2615.8115	933.35	47.55
988.2878	2617.0903	933.15	44.4
988.4126	2618.3685	931.65	44.8
988.5375	2619.6461	934.1	46.95
988.6622	2620.9229	933.25	47.75
988.787	2622.199	933.95	45.95
988.9117	2623.4745	933.95	44.8
989.0364	2624.7493	935.35	49.6
989.161	2626.0234	931.8	45.55
989.2857	2627.2968	931.45	45.4
989.4102	2628.5695	931.2	41.8
989.5348	2629.8415	931.35	44.75
989.6593	2631.1128	934.2	47
989.7837	2632.3835	931.5	46.4
989.9082	2633.6535	929.5	42.9
990.0326	2634.9228	927.8	41.55
990.1569	2636.1914	932.75	44.55
990.2812	2637.4593	938.35	46.1
990.4055	2638.7265	931.75	42.9
990.5298	2639.9931	929.85	41.85
990.654	2641.259	931.85	44.55
990.7782	2642.5242	931.55	44.5
990.9023	2643.7887	930.3	43.05
991.0264	2645.0525	929.05	42.25
991.1505	2646.3156	931.1	43.25
991.2745	2647.5781	928.15	42.75
991.3985	2648.8398	930.5	44.25
991.5225	2650.1009	965.5	41.05
991.6464	2651.3613	928.4	40.1
991.7703	2652.6211	931.7	45.4
991.8942	2653.8801	927.7	43.7
992.018	2655.1385	930.55	40.95
992.1418	2656.3961	929.5	43.9
992.2655	2657.6531	930.8	44.25
992.3892	2658.9094	926.35	37.45
992.5129	2660.1651	926.25	40.85
992.6366	2661.42	931.75	45.6
992.7602	2662.6743	928.9	41.35
992.8837	2663.9279	929.15	43.85
993.0073	2665.1808	929.2	42
993.1307	2666.433	929.1	39.75
993.2542	2667.6846	927.75	40.05
993.3776	2668.9354	932.75	41.4
993.501	2670.1856	929.4	41.85
993.6244	2671.4351	930.75	42.4
993.7477	2672.6839	930.8	42.5
993.8709	2673.9321	930.15	43.25
993.9942	2675.1795	930	43.95
994.1174	2676.4263	928.25	41.45
994.2405	2677.6724	928.7	42.35
994.3637	2678.9179	927.85	41.1
994.4868	2680.1626	925.55	39.3
994.6098	2681.4067	926.15	39.95
994.7328	2682.6501	928.9	42.85
994.8558	2683.8928	928.95	41
994.9788	2685.1348	927.2	41.45
995.1017	2686.3761	926.4	39.55
995.2245	2687.6168	924.95	36.65
995.3474	2688.8568	926.9	40.2
995.4702	2690.0961	924.8	37.2
995.5929	2691.3348	924.3	36.95
995.7156	2692.5727	925.05	36.65
995.8383	2693.81	924.55	37.85
995.961	2695.0466	924.35	37.9
996.0836	2696.2826	924.6	36.65
996.2062	2697.5178	930.65	43.2
996.3287	2698.7524	924.9	37.1
996.4512	2699.9863	927.25	39.25
996.5737	2701.2195	925.8	39.55
996.6961	2702.452	927	39.85
996.8185	2703.6839	928.45	38.95
996.9408	2704.9151	924.05	38.9
997.0631	2706.1456	926.15	40.55
997.1854	2707.3755	926.15	38.15
997.3077	2708.6046	928.95	38.85
997.4299	2709.8331	925.45	39.95
997.552	2711.0609	927	38.1
997.6742	2712.2881	926.25	39.45
997.7963	2713.5145	928.6	40.15
997.9183	2714.7403	926.65	40.7
998.0403	2715.9654	927	40.05
998.1623	2717.1899	929.4	39.45
998.2842	2718.4136	926.9	39.95
998.4062	2719.6367	926.45	39.65
998.528	2720.8591	935.6	42
998.6498	2722.0809	931.9	44.5
998.7716	2723.3019	935.15	44.15
998.8934	2724.5223	930.75	41.85
999.0151	2725.7421	932.3	44.75
999.1368	2726.9611	932.65	43.95
999.2584	2728.1795	937.75	46.6
999.38	2729.3972	930.45	43.4
999.5016	2730.6142	940	40.4
999.6231	2731.8306	927.45	40.5
999.7446	2733.0462	926.35	37.05
999.8661	2734.2612	927.15	34.55
999.9875	2735.4756	927.05	37.4
1000.1089	2736.6892	926.3	37.3
1000.2302	2737.9022	923.6	37.3
1000.3515	2739.1145	924.8	38.15
1000.4728	2740.3262	929.7	34.15
1000.594	2741.5372	922.65	36.5
1000.7152	2742.7475	926.3	38.4
1000.8363	2743.9571	925.15	36.55
1000.9575	2745.1661	926	36.15
1001.0785	2746.3744	921.4	34.7
1001.1996	2747.582	919.3	33.1
1001.3206	2748.7889	921.3	32.95
1001.4415	2749.9952	919.6	33
1001.5625	2751.2008	919.45	31
1001.6833	2752.4057	922.05	30.9
1001.8042	2753.61	922.55	35.05
1001.925	2754.8136	921.15	28.55
1002.0458	2756.0165	919.9	33.05
1002.1665	2757.2188	922.9	36.45
1002.2872	2758.4204	918.4	30.95
1002.4078	2759.6213	922.7	34.95
1002.5285	2760.8215	926.5	34.4
1002.649	2762.0211	920.5	31.5
1002.7696	2763.22	921.8	31.6
1002.8901	2764.4182	919.45	32.7
1003.0106	2765.6158	919.8	32.9
1003.131	2766.8127	919.95	33.5
1003.2514	2768.009	920.7	31.9
1003.3717	2769.2045	919.85	31.5
1003.492	2770.3994	921.65	32.65
1003.6123	2771.5936	920	31.45
1003.7325	2772.7872	917	31.85
1003.8527	2773.9801	919.3	29.3
1003.9729	2775.1723	933.85	30.65
1004.093	2776.3639	918.75	31.45
1004.2131	2777.5548	918.45	29.05
1004.3331	2778.745	917.1	27.2
1004.4531	2779.9346	917.7	29.35
1004.5731	2781.1235	918.65	31.15
1004.693	2782.3117	914.6	25.85
1004.8129	2783.4992	913.9	27.15
1004.9328	2784.6861	916.7	30.3
1005.0526	2785.8723	918.6	29.2
1005.1723	2787.0579	916.65	27.9
1005.2921	2788.2428	916.9	28.95
1005.4118	2789.427	914.9	28.15
1005.5314	2790.6106	915.25	28.9
1005.651	2791.7935	916.1	28.35
1005.7706	2792.9757	918	32.1
1005.8902	2794.1573	918.75	30
1006.0097	2795.3382	915.15	29.9
1006.1291	2796.5184	915.8	28.6
1006.2485	2797.698	919.05	30.5
1006.3679	2798.8769	915.35	30.3
1006.4873	2800.0551	920.55	33.7
1006.6066	2801.2327	920.95	32.65
1006.7258	2802.4096	916.85	31.15
1006.8451	2803.5859	918.85	30.05
1006.9642	2804.7615	919.3	31.75
1007.0834	2805.9364	917.6	32.15
1007.2025	2807.1106	916.3	30.75
1007.3216	2808.2842	918.35	30.65
1007.4406	2809.4572	918.5	29.85
1007.5596	2810.6294	921.15	33.3
1007.6785	2811.801	920.7	33.7
1007.7975	2812.972	920.8	33.4
1007.9163	2814.1423	925.2	39.35
1008.0352	2815.3119	922.9	35.9
1008.154	2816.4808	923.75	38.4
1008.2727	2817.6491	927.45	38.95
1008.3914	2818.8167	926.85	40.15
1008.5101	2819.9837	936.6	46.1
1008.6288	2821.15	934	46.8
1008.7474	2822.3157	935.85	50.65
1008.8659	2823.4807	940.05	53.45
1008.9844	2824.645	948.2	59.65
1009.1029	2825.8086	950.2	64.95
1009.2214	2826.9716	955.2	69.75
1009.3398	2828.134	956.25	70.95
1009.4581	2829.2957	962.7	76.8
1009.5764	2830.4567	964.7	77.7
1009.6947	2831.617	963.55	76.15
1009.813	2832.7767	968	80.25
1009.9312	2833.9358	967.85	82.75
1010.0493	2835.0941	967.25	78.65
1010.1675	2836.2519	964.1	76.3
1010.2855	2837.4089	966.15	78.65
1010.4036	2838.5653	959.95	74.2
1010.5216	2839.7211	958.35	69.3
1010.6396	2840.8761	963.4	73.3
1010.7575	2842.0306	959.5	75.8
1010.8754	2843.1843	959.1	73.2
1010.9932	2844.3374	957.65	69.55
1011.111	2845.4899	963.2	75.2
1011.2288	2846.6417	958.65	73.8
1011.3465	2847.7928	961.7	75.5
1011.4642	2848.9433	963.15	77.6
1011.5818	2850.0931	963.9	76.25
1011.6995	2851.2422	966.95	78.35
1011.817	2852.3907	962.05	75.05
1011.9345	2853.5385	964.7	74.7
1012.052	2854.6857	992.15	77.1
1012.1695	2855.8323	966.1	79.75
1012.2869	2856.9781	967	80.7
1012.4042	2858.1233	969.2	82.95
1012.5216	2859.2679	968.35	82.3
1012.6389	2860.4118	973.6	87.15
1012.7561	2861.555	981.4	90.2
1012.8733	2862.6976	978.75	88.7
1012.9905	2863.8395	978.65	92.35
1013.1076	2864.9808	976.5	89.65
1013.2247	2866.1214	977.55	91.75
1013.3417	2867.2614	979.6	91.15
1013.4587	2868.4007	986.3	98.2
1013.5757	2869.5393	981.65	93.65
1013.6926	2870.6773	986.05	97.95
1013.8095	2871.8146	987.65	98.25
1013.9263	2872.9513	988.75	98.9
1014.0431	2874.0874	984.45	96.95
1014.1599	2875.2227	987.9	101.7
1014.2766	2876.3574	989.8	102.15
1014.3933	2877.4915	989.8	103.45
1014.51	2878.6249	991.6	106
1014.6266	2879.7577	994.45	107
1014.7431	2880.8898	1004.45	108.2
1014.8596	2882.0212	995.6	109.6
1014.9761	2883.152	998	110.8
1015.0925	2884.2821	994.35	109.65
1015.2089	2885.4116	997.35	111.1
1015.3253	2886.5405	1001.5	114.8
1015.4416	2887.6686	1006.3	116.2
1015.5579	2888.7962	997.6	111.3
1015.6741	2889.923	1004.6	117.1
1015.7903	2891.0493	1000	113.15
1015.9065	2892.1748	998.85	109.4
1016.0226	2893.2997	1004.15	116.7
1016.1387	2894.424	999.5	113.45
1016.2547	2895.5476	1002.2	117.15
1016.3707	2896.6706	1003.1	115.9
1016.4866	2897.7929	999.45	111.4
1016.6025	2898.9145	1004.1	117.1
1016.7184	2900.0355	1002.75	116.2
1016.8342	2901.1559	1001.3	114.1
1016.95	2902.2756	999.1	113.2
1017.0658	2903.3946	997.25	110.1
1017.1815	2904.513	1000.3	108.5
1017.2971	2905.6308	995.45	107.65
1017.4127	2906.7479	998.15	111.15
1017.5283	2907.8643	997.7	108.95
1017.6439	2908.9801	994.75	108.35
1017.7594	2910.0953	996.05	108.65
1017.8748	2911.2098	1001.1	111.05
1017.9902	2912.3236	1003.2	108.45
1018.1056	2913.4368	999.6	108.95
1018.2209	2914.5494	998.65	110.4
1018.3362	2915.6613	997	101.95
1018.4515	2916.7725	993.05	104.05
1018.5667	2917.8831	991.3	102.4
1018.6819	2918.9931	993.7	104.85
1018.797	2920.1024	988.6	100.25
1018.9121	2921.211	986.8	100.85
1019.0271	2922.319	982.65	94.8
1019.1421	2923.4264	983.1	96.75
1019.2571	2924.5331	983.4	96.25
1019.372	2925.6391	981.45	93.65
1019.4869	2926.7445	985.55	99.1
1019.6017	2927.8493	983.8	95.15
1019.7165	2928.9534	983.05	95.3
1019.8313	2930.0569	986.55	97
1019.946	2931.1597	987.95	99.65
1020.0606	2932.2619	986.75	99
1020.1753	2933.3634	987.7	99.5
1020.2899	2934.4643	996.15	103.7
1020.4044	2935.5645	992.55	98.1
1020.5189	2936.6641	993.2	101.9
1020.6334	2937.763	988.1	101.35
1020.7478	2938.8613	988.6	100.7
1020.8622	2939.959	994.5	103.1
1020.9765	2941.056	990.3	103.2
1021.0908	2942.1523	986	97.9
1021.2051	2943.248	980.25	92.9
1021.3193	2944.3431	978.05	92.65
1021.4334	2945.4375	973.8	86.2
1021.5476	2946.5313	966	79.3
1021.6617	2947.6244	962.45	74.7
1021.7757	2948.7169	961.6	73.6
1021.8897	2949.8087	955.4	68.9
1022.0037	2950.8999	952.55	66.5
1022.1176	2951.9904	948.55	60.9
1022.2315	2953.0803	949.55	61.25
1022.3453	2954.1696	945.1	58.45
1022.4591	2955.2582	944.05	58.65
1022.5728	2956.3462	940.15	54
1022.6865	2957.4335	940.45	54.65
1022.8002	2958.5202	944	55.35
1022.9138	2959.6062	938.1	51.15
1023.0274	2960.6916	940.1	54.1
1023.141	2961.7764	938.4	50.65
1023.2545	2962.8605	941.65	53.6
1023.3679	2963.9439	939.9	54
1023.4813	2965.0267	941	52.55
1023.5947	2966.1089	961.5	51.65
1023.708	2967.1905	938.75	52.75
1023.8213	2968.2714	937.55	52.1
1023.9346	2969.3516	937.55	48.75
1024.0478	2970.4312	942.5	49.1
1024.1609	2971.5102	934.8	45.4
1024.274	2972.5885	935.25	48.9
1024.3871	2973.6662	941.85	48.75
1024.5002	2974.7432	936.3	51.05
1024.6132	2975.8196	937.25	49.7
1024.7261	2976.8954	936.6	51.15
1024.839	2977.9705	937.2	51.85
1024.9519	2979.045	935.45	47.05
1025.0647	2980.1188	937.8	50
1025.1775	2981.192	934.2	49
1025.2902	2982.2645	936	46.8
1025.4029	2983.3364	934.8	47.9
1025.5156	2984.4077	932.15	45.7
1025.6282	2985.4783	936.9	42.4
1025.7407	2986.5483	929.85	42.85
1025.8532	2987.6177	927.9	40.85
1025.9657	2988.6864	928.15	40.9
1026.0782	2989.7545	928.6	40.45
1026.1906	2990.8219	925.9	39.95
1026.3029	2991.8887	926.95	39
1026.4152	2992.9548	923.6	37.85
1026.5275	2994.0204	921.95	35.1
1026.6397	2995.0852	919.75	31.6
1026.7519	2996.1495	920	32.55
1026.864	2997.2131	917.4	31
1026.9761	2998.276	918.4	31.3
1027.0882	2999.3383	915.4	26.95
1027.2002	3000.4	915.4	27.85
1027.3122	3001.4611	915.5	29.3
1027.4241	3002.5215	911.6	25.2
1027.536	3003.5812	909.9	24.85
1027.6478	3004.6404	911.15	22.3
1027.7596	3005.6989	912.55	24.1
1027.8714	3006.7567	910.45	23.65
1027.9831	3007.8139	938.85	20.75
1028.0947	3008.8705	907.8	21.1
1028.2064	3009.9264	923.4	17.55
1028.3179	3010.9818	907.1	20.95
1028.4295	3012.0364	907.05	20.6
1028.541	3013.0905	907.85	20.2
1028.6524	3014.1439	907.75	21.1
1028.7638	3015.1966	902.9	14.1
1028.8752	3016.2487	905.1	19.1
1028.9865	3017.3002	910.3	20.3
1029.0978	3018.3511	904.85	19.9
1029.209	3019.4013	907.65	19.55
1029.3202	3020.4509	904.95	18.1
1029.4314	3021.4998	905	18.05
1029.5425	3022.5481	905.85	20.05
1029.6535	3023.5958	905.6	19.25
1029.7645	3024.6428	905.7	18.6
1029.8755	3025.6892	904.75	19
1029.9864	3026.735	904.65	19.05
1030.0973	3027.7802	904.7	15.65
1030.2082	3028.8247	904.4	18.9
1030.319	3029.8685	904.2	17.1
1030.4297	3030.9118	905.45	16.85
1030.5404	3031.9544	903.65	18.2
1030.6511	3032.9963	903.7	14.75
1030.7617	3034.0376	905.1	17.85
1030.8723	3035.0783	906.2	17.7
1030.9829	3036.1184	905.95	17.3
1031.0934	3037.1578	903.45	17.85
1031.2038	3038.1966	906.15	18.85
1031.3142	3039.2348	903	18.3
1031.4246	3040.2723	911.9	16.45
1031.5349	3041.3092	903.05	17.35
1031.6452	3042.3455	907	20.85
1031.7554	3043.3811	906.2	18.05
1031.8656	3044.4161	905.05	17.05
1031.9758	3045.4505	903.6	19.95
1032.0859	3046.4842	905.7	17.15
1032.1959	3047.5173	902.05	16.35
1032.3059	3048.5498	907.2	19.35
1032.4159	3049.5816	905.15	17.9
1032.5258	3050.6128	904.8	15.45
1032.6357	3051.6434	905.5	15.95
1032.7455	3052.6734	905.05	17.3
1032.8553	3053.7027	904.7	17.9
1032.9651	3054.7314	904.95	19.3
1033.0748	3055.7594	905.6	19.95
1033.1845	3056.7868	904.2	16.3
1033.2941	3057.8136	904.25	17.15
1033.4037	3058.8398	904.15	19
1033.5132	3059.8653	905	18
1033.6227	3060.8902	903.05	16.25
1033.7321	3061.9145	904.85	19.35
1033.8415	3062.9381	906.8	20.4
1033.9509	3063.9612	923.05	19.4
1034.0602	3064.9835	907.35	19.8
1034.1694	3066.0053	906.55	17.1
1034.2787	3067.0264	906.3	19.75
1034.3878	3068.0469	906.45	18.4
1034.497	3069.0668	907.65	17.1
1034.6061	3070.086	905.2	18.15
1034.7151	3071.1046	908.85	17.5
1034.8241	3072.1226	906.3	16.9
1034.9331	3073.1399	901.9	15.4
1035.042	3074.1567	907.25	19.7
1035.1508	3075.1727	906.8	17.6
1035.2597	3076.1882	905.35	20.75
1035.3684	3077.203	904	16.8
1035.4772	3078.2173	902.6	12.35
1035.5859	3079.2308	907.55	18.2
1035.6945	3080.2438	905.45	16.5
1035.8031	3081.2561	901.95	16.65
1035.9117	3082.2678	902.1	16.9
1036.0202	3083.2789	901.8	15.75
1036.1286	3084.2893	899.55	13.95
1036.2371	3085.2991	903.35	17.1
1036.3454	3086.3083	907.1	16.4
1036.4538	3087.3169	904.05	11.7
1036.562	3088.3248	901.85	13.4
1036.6703	3089.3321	902.15	13.7
1036.7785	3090.3388	899.1	13.15
1036.8866	3091.3449	900.2	13.1
1036.9948	3092.3503	903.45	14.4
1037.1028	3093.3551	899.5	12.5
1037.2108	3094.3593	899.45	14.15
1037.3188	3095.3629	898.75	12.8
1037.4267	3096.3658	901.35	11.95
1037.5346	3097.3681	900.65	16.25
1037.6425	3098.3698	901.2	14.15
1037.7503	3099.3708	900.85	13.65
1037.858	3100.3713	900.25	14.35
1037.9657	3101.3711	899.95	12.3
1038.0734	3102.3702	1041.55	14.75
1038.181	3103.3688	901	12.1
1038.2886	3104.3667	898.45	10.95
1038.3961	3105.364	895.9	10.1
1038.5036	3106.3607	899.65	11.75
1038.611	3107.3568	901.4	13.65
1038.7184	3108.3522	897.45	10.05
1038.8257	3109.347	900	12.15
1038.933	3110.3412	902.8	13.05
1039.0403	3111.3348	896.9	10.15
1039.1475	3112.3277	897.8	11.85
1039.2547	3113.32	894.75	7.45
1039.3618	3114.3117	897.3	9.35
1039.4689	3115.3028	898.05	11.25
1039.5759	3116.2932	898	8.9
1039.6829	3117.2831	904	9.55
1039.7898	3118.2723	898	10.05
1039.8967	3119.2608	895.85	8.7
1040.0035	3120.2488	897.8	11.9
1040.1103	3121.2361	896.5	8.4
1040.2171	3122.2229	897.85	10.85
1040.3238	3123.209	898.1	10.7
1040.4305	3124.1944	895.7	8.1
1040.5371	3125.1793	898.85	11.5
1040.6437	3126.1635	896.25	8.65
1040.7502	3127.1471	896.25	9.45
1040.8567	3128.1301	895.85	9.5
1040.9631	3129.1125	896.1	9.5
1041.0695	3130.0942	896.7	10.1
1041.1759	3131.0753	904.95	8.55
1041.2822	3132.0558	899.85	10.2
1041.3884	3133.0357	898.15	10.85
1041.4946	3134.015	896.05	9.75
1041.6008	3134.9936	897	7.25
1041.7069	3135.9716	915.85	7.6
1041.813	3136.949	895.5	8.95
1041.919	3137.9258	914.05	10
1042.025	3138.902	901.3	8.3
1042.1309	3139.8775	895.3	9.15
1042.2368	3140.8524	895	8.25
1042.3427	3141.8267	895.95	8.05
1042.4485	3142.8004	896.7	9.5
1042.5542	3143.7735	902.5	8.45
1042.6599	3144.7459	897.6	7.65
1042.7656	3145.7178	896.7	8.6
1042.8712	3146.689	891.3	4.1
1042.9768	3147.6596	894.7	7.45
1043.0823	3148.6295	898.45	11.4
1043.1878	3149.5989	894.55	8.25
1043.2932	3150.5676	893.65	7.9
1043.3986	3151.5357	895.9	11.65
1043.5039	3152.5032	895.3	8.9
1043.6092	3153.4701	894.25	7
1043.7145	3154.4364	898.1	7.75
1043.8197	3155.402	893.55	7.1
1043.9248	3156.367	895.85	8.5
1044.03	3157.3315	924.7	8
1044.135	3158.2952	894.2	5.85
1044.24	3159.2584	894.1	8.5
1044.345	3160.221	896.45	8.9
1044.4499	3161.1829	896.45	7
1044.5548	3162.1442	894.7	9
1044.6596	3163.105	894.65	7.65
1044.7644	3164.065	894.75	8.35
1044.8692	3165.0245	897	6.1
1044.9739	3165.9834	892.95	7.95
1045.0785	3166.9416	894.4	8.45
1045.1831	3167.8993	895.25	9.05
1045.2877	3168.8563	894.2	6.75
1045.3922	3169.8127	894.2	7.35
1045.4966	3170.7684	893.95	6.05
1045.6011	3171.7236	896	8.3
1045.7054	3172.6782	893.6	7.35
1045.8098	3173.6321	895	8
1045.914	3174.5854	899.15	7.2
1046.0183	3175.5381	893.25	5.8
1046.1224	3176.4902	893.2	6.05
1046.2266	3177.4417	892.45	5
1046.3307	3178.3926	893.75	6.7
1046.4347	3179.3428	891.8	4.35
1046.5387	3180.2924	893.2	4.45
1046.6427	3181.2415	895.8	8.55
1046.7466	3182.1899	895.85	8.15
1046.8504	3183.1377	894.35	8.65
1046.9542	3184.0848	899.45	9.35
1047.058	3185.0314	893.6	5.55
1047.1617	3185.9773	896.25	7.7
1047.2654	3186.9227	895.75	6.5
1047.369	3187.8674	891.4	3.25
1047.4726	3188.8115	897.8	5.75
1047.5761	3189.755	891.3	3.25
1047.6796	3190.6979	893.65	7.5
1047.783	3191.6402	891.95	4.85
1047.8864	3192.5818	892.95	5.75
1047.9898	3193.5229	898.8	6.1
1048.0931	3194.4633	894.6	7.3
1048.1963	3195.4031	894.85	8.8
1048.2995	3196.3423	892.5	5.65
1048.4027	3197.2809	892.15	4.25
1048.5058	3198.2189	894.4	5
1048.6089	3199.1563	899.7	4.6
1048.7119	3200.0931	893.45	6.2
1048.8148	3201.0292	892.55	7.85
1048.9178	3201.9648	894.35	7.3
1049.0206	3202.8997	895.75	7.2
1049.1235	3203.834	894.6	9.65
1049.2262	3204.7677	892.55	7.15
1049.329	3205.7008	894.8	5.2
1049.4317	3206.6333	891.9	5.5
1049.5343	3207.5652	894.7	3.6
1049.6369	3208.4964	894.3	8.55
1049.7394	3209.4271	892.4	7
1049.8419	3210.3571	892	2.9
1049.9444	3211.2865	893.5	6.05
1050.0468	3212.2154	891.9	5.4
1050.1491	3213.1436	896.4	3.95
1050.2514	3214.0712	900.6	7.6
1050.3537	3214.9982	891.75	4.75
1050.4559	3215.9246	891.3	4.4
1050.5581	3216.8503	891.5	5.45
1050.6602	3217.7755	894.1	7.05
1050.7623	3218.7001	892.55	6.3
1050.8643	3219.624	892.8	5.6
1050.9663	3220.5473	893.2	5.65
1051.0682	3221.4701	895.95	5.05
1051.1701	3222.3922	894.4	4.5
1051.2719	3223.3137	892.45	6.5
1051.3737	3224.2346	893.35	8.15
1051.4754	3225.1549	892.8	6.85
1051.5771	3226.0746	891.6	5.8
1051.6788	3226.9937	890.8	3.1
1051.7804	3227.9121	891.85	4.55
1051.8819	3228.83	891.95	6.2
1051.9834	3229.7473	890.95	4.5
1052.0849	3230.6639	892.55	5.8
1052.1863	3231.5799	890.65	3.85
1052.2876	3232.4954	893.2	4.05
1052.3889	3233.4102	891.15	4.4
1052.4902	3234.3244	892.1	4.45
1052.5914	3235.238	892.35	5.45
1052.6926	3236.151	912.9	0.4
1052.7937	3237.0634	891.25	5.7
1052.8948	3237.9752	891.5	4.95
1052.9958	3238.8864	891.65	4.45
1053.0968	3239.797	892.75	5.45
1053.1977	3240.7069	892.75	5.75
1053.2986	3241.6163	893.4	5.8
1053.3994	3242.5251	891.7	4.8
1053.5002	3243.4332	889.4	1.2
1053.6009	3244.3408	892.45	3.25
1053.7016	3245.2477	892.3	5.65
1053.8022	3246.154	892.95	6.3
1053.9028	3247.0598	891.7	3.05
1054.0034	3247.9649	891.65	4.4
1054.1039	3248.8694	891.5	4.8
1054.2043	3249.7733	891.75	5
1054.3047	3250.6766	892.2	5.1
1054.4051	3251.5793	891.1	2.95
1054.5054	3252.4814	894.1	6.7
1054.6056	3253.3829	891.6	2.65
1054.7058	3254.2838	891.05	5.1
1054.806	3255.1841	890.7	4.95
1054.9061	3256.0838	893.4	6.9
1055.0061	3256.9829	889.7	2.9
1055.1062	3257.8814	892.15	4.35
1055.2061	3258.7792	893.85	6.25
1055.306	3259.6765	891.75	3.95
1055.4059	3260.5731	892.7	6.5
1055.5057	3261.4692	892.75	4.7
1055.6055	3262.3647	892	4.4
1055.7052	3263.2595	892.3	4.7
1055.8049	3264.1538	891.05	3.3
1055.9045	3265.0474	892.35	3.1
1056.0041	3265.9404	889.35	2.1
1056.1036	3266.8329	890.5	3.45
1056.2031	3267.7247	900.4	4.45
1056.3025	3268.616	889.7	2.05
1056.4019	3269.5066	892.1	5.6
1056.5013	3270.3966	894.25	5.15
1056.6005	3271.286	890.55	6.2
