Software Version:	3.9.2.0
Unit SN:	10000200
Spectrometer SN:	6960
Date:	3/14/2024 2:23:33 PM
Data Line Index:	25
Spectral Points:	2048
Integration time (ms):	125
Averages:	20
Delay (ms):	30000
Sequence Number:	1
Processing:	dark subtract
Laser Power (mW):	300
Laser Current (mA):	824
Laser Diode Temp (C):	25
Laser Case Temp (C):	29.2
System Temp (C):	29.2
Spectrometer Temp (C):	26.9
CCD Temp (C):	0.007
Secondary Temp (C):	20.004
Heatsink Temp (C):	25.174
CCDPCB Temp (C):	38.274
SecondaryPCB Temp (C):	36.196

Wavelength	RamanShift	Raw Counts	Dark Subtracted
787.061	30.1047	454.1	45.05
787.2016	32.3739	458.85	51.85
787.3422	34.6426	458.55	51.1
787.4828	36.9109	465.1	56.2
787.6235	39.1787	475.3	61
787.7642	41.4461	485	65.75
787.9049	43.7131	492.75	69.75
788.0456	45.9796	505.2	79.8
788.1863	48.2456	513.65	81.9
788.3271	50.5112	526.25	90.45
788.4679	52.7764	527.95	92.5
788.6087	55.0411	539.05	97.4
788.7496	57.3054	551.45	101.45
788.8904	59.5692	564.5	112.15
789.0313	61.8326	571.25	119.05
789.1722	64.0955	590.5	133.25
789.3132	66.3579	603.5	142.3
789.4541	68.6199	621.35	156.55
789.5951	70.8815	651.1	182.2
789.7361	73.1426	723.45	250.8
789.8771	75.4032	909.05	431.95
790.0181	77.6634	1362.35	878.65
790.1592	79.9231	2459.95	1972.4
790.3003	82.1824	4841.05	4344.3
790.4414	84.4412	9251.25	8737
790.5825	86.6995	15471.65	14937.85
790.7237	88.9574	21761.5	21209.7
790.8648	91.2148	26291.1	25724
791.006	93.4717	28521.45	27946.4
791.1472	95.7282	29057.65	28479
791.2885	97.9842	29103.6	28519.75
791.4297	100.2398	28598.65	28011.55
791.571	102.4949	28072.6	27483.5
791.7123	104.7495	27296.65	26703.55
791.8536	107.0036	26426.75	25831.25
791.9949	109.2573	25658.8	25066
792.1363	111.5105	24814.15	24218.8
792.2777	113.7632	23987.6	23391.75
792.4191	116.0154	23290.65	22682.1
792.5605	118.2672	22733.75	22134.2
792.7019	120.5185	22176.45	21576.3
792.8434	122.7693	21734.7	21131.8
792.9849	125.0197	21384.3	20772.6
793.1264	127.2696	21056.55	20445.05
793.2679	129.519	20899.2	20286.2
793.4094	131.7679	20731.3	20116.55
793.551	134.0163	20608.8	19992.45
793.6926	136.2642	20448.05	19825.2
793.8342	138.5117	20289.2	19655.7
793.9758	140.7587	20088.35	19460.15
794.1175	143.0052	19921.7	19293.5
794.2591	145.2512	19754.1	19125.25
794.4008	147.4967	19502.05	18869
794.5425	149.7417	19363.05	18731.3
794.6842	151.9863	19244.45	18608.5
794.826	154.2304	19205.7	18567.35
794.9677	156.4739	19047.95	18403.55
795.1095	158.717	18953.05	18310.15
795.2513	160.9596	18812.75	18166.1
795.3931	163.2017	18564.1	17914.05
795.535	165.4433	18257.9	17609.65
795.6768	167.6844	17888.55	17234.85
795.8187	169.925	17554.4	16895.6
795.9606	172.1651	17114.45	16456.85
796.1025	174.4047	16828.55	16163.45
796.2445	176.6439	16506.25	15841.35
796.3864	178.8825	16204	15533.75
796.5284	181.1206	16036.6	15364.35
796.6704	183.3582	15811.55	15133.7
796.8124	185.5954	15671.65	14993.75
796.9544	187.832	15578.55	14897.3
797.0965	190.0681	15554.8	14873.35
797.2386	192.3037	15463.95	14778.4
797.3806	194.5388	15467.75	14779.6
797.5228	196.7734	15474.05	14783.9
797.6649	199.0075	15557.05	14860.05
797.807	201.2411	15673.5	14976.55
797.9492	203.4742	15705.85	15010.1
798.0914	205.7068	15851.65	15151.65
798.2336	207.9389	15943.75	15245
798.3758	210.1704	16085.85	15383.65
798.518	212.4015	16213.95	15509.2
798.6603	214.632	16386.15	15681.65
798.8025	216.862	16582.55	15885.75
798.9448	219.0915	16745.75	16057.1
799.0871	221.3205	17033.8	16343.6
799.2294	223.549	17331.4	16647.2
799.3718	225.777	17672.65	16987.9
799.5141	228.0044	18188	17498.65
799.6565	230.2314	18796.05	18113.15
799.7989	232.4578	19241.85	18555.95
799.9413	234.6837	19729.15	19035.55
800.0837	236.909	20027.05	19335.3
800.2262	239.1339	19937.35	19220
800.3687	241.3582	19661.75	18962.5
800.5111	243.582	19217.9	18492.4
800.6536	245.8053	18739.3	18017.15
800.7961	248.0281	18288.85	17572
800.9387	250.2503	17939.15	17216.15
801.0812	252.472	17713.45	16986.6
801.2238	254.6932	17537.45	16809.7
801.3664	256.9139	17362.95	16632.8
801.509	259.134	17306.45	16576.55
801.6516	261.3536	17183.65	16449.9
801.7942	263.5727	17126.5	16390.85
801.9369	265.7912	16947.3	16214.95
802.0795	268.0092	16890.75	16156.3
802.2222	270.2267	16747.7	16011.95
802.3649	272.4436	16698.5	15962.5
802.5076	274.6601	16596.2	15853
802.6504	276.8759	16544.9	15806.05
802.7931	279.0913	16547.85	15809
802.9359	281.3061	16550.5	15811.25
803.0787	283.5204	16670	15928.35
803.2215	285.7341	16789.2	16041.7
803.3643	287.9473	17011.05	16260.5
803.5071	290.16	17324.85	16569.8
803.6499	292.3721	17689.9	16943.85
803.7928	294.5837	18150.25	17402.85
803.9357	296.7947	18554.15	17806.2
804.0786	299.0052	18776	18026.45
804.2215	301.2152	18633.7	17881.95
804.3644	303.4246	18213.85	17466.9
804.5074	305.6334	17576.1	16828
804.6503	307.8418	16998.95	16248.6
804.7933	310.0495	16488.3	15738.35
804.9363	312.2568	16156.8	15404.1
805.0793	314.4635	15950.15	15198
805.2223	316.6696	15872	15117.75
805.3653	318.8752	15862.5	15099.2
805.5084	321.0802	15948.65	15189.25
805.6514	323.2847	16070.55	15313.55
805.7945	325.4887	16112.9	15357.65
805.9376	327.692	16035.15	15277.15
806.0807	329.8949	15926.3	15163.35
806.2238	332.0972	15616.75	14854.15
806.367	334.2989	15289.85	14525.8
806.5101	336.5001	15014.55	14248.75
806.6533	338.7007	14758	13992.55
806.7965	340.9008	14612	13847.1
806.9397	343.1003	14479.15	13710
807.0829	345.2992	14386.55	13613.55
807.2261	347.4976	14345.75	13572.2
807.3693	349.6955	14340.75	13565.85
807.5126	351.8927	14424.4	13650.55
807.6559	354.0895	14414.95	13626.75
807.7991	356.2856	14469.7	13691.55
807.9424	358.4812	14448.35	13672.6
808.0857	360.6763	14506.8	13731.7
808.2291	362.8707	14443.8	13662.05
808.3724	365.0646	14450.7	13666.25
808.5158	367.258	14428.55	13644.85
808.6591	369.4508	14423.3	13636.6
808.8025	371.643	14494.55	13709.25
808.9459	373.8346	14447.75	13660
809.0893	376.0257	14397.3	13605.1
809.2327	378.2162	14273.9	13482.6
809.3762	380.4062	14164.2	13367.65
809.5196	382.5956	13989.3	13191.7
809.6631	384.7844	13878.5	13082.8
809.8066	386.9726	13748.75	12955.3
809.9501	389.1603	13681.25	12888.05
810.0936	391.3474	13664.1	12831.75
810.2371	393.5339	13631.05	12837.7
810.3806	395.7199	13538.7	12746.5
810.5241	397.9052	13546.75	12759.05
810.6677	400.09	13542.75	12755.65
810.8113	402.2743	13582.65	12796.5
810.9548	404.4579	13611.2	12827.85
811.0984	406.641	13757.25	12971.7
811.2421	408.8235	13990.4	13203.5
811.3857	411.0054	14343.9	13555.05
811.5293	413.1868	14838.25	14049.65
811.673	415.3675	15310.05	14516.7
811.8166	417.5477	15537.8	14747.75
811.9603	419.7273	15586.35	14787.05
812.104	421.9064	15472.7	14670.75
812.2477	424.0848	15305.35	14506.55
812.3914	426.2627	15073.25	14273
812.5351	428.4399	14745.15	13940.95
812.6788	430.6166	14320.5	13514.1
812.8226	432.7928	13947.35	13139.05
812.9663	434.9683	13593.95	12784.25
813.1101	437.1432	13327.95	12518.2
813.2539	439.3176	13128	12320
813.3977	441.4914	13004.65	12194.4
813.5415	443.6645	12971.55	12158.2
813.6853	445.8371	12906.45	12093.95
813.8291	448.0091	12823.05	12011.55
813.973	450.1806	12772.05	11960.1
814.1168	452.3514	12683.1	11868.4
814.2607	454.5216	12687.9	11865.5
814.4046	456.6913	12597.15	11781.35
814.5485	458.8603	12606.55	11789.55
814.6924	461.0288	12655.55	11839.8
814.8363	463.1967	12674.9	11858.5
814.9802	465.3639	12815.75	11999.95
815.1241	467.5306	12997.3	12176.4
815.2681	469.6967	13168.6	12353.05
815.412	471.8622	13348.15	12533.35
815.556	474.0271	13514.4	12700.2
815.7	476.1914	13599.25	12780.25
815.844	478.3551	13579.05	12762.15
815.988	480.5182	13506.15	12686.4
816.132	482.6807	13440.35	12619.75
816.276	484.8426	13481.95	12660.45
816.4201	487.0039	13724.45	12903.85
816.5641	489.1647	14116.55	13295.95
816.7082	491.3248	14603.15	13780.8
816.8522	493.4843	14861.4	14042.75
816.9963	495.6432	14893.6	14070.5
817.1404	497.8015	14790	13965.3
817.2845	499.9592	14799.95	13977.3
817.4286	502.1163	14806.3	13983.95
817.5727	504.2728	14594.05	13767.15
817.7168	506.4287	14267.45	13445.05
817.861	508.5839	13778.45	12951.45
818.0051	510.7386	13374.85	12548.95
818.1493	512.8927	13130.5	12298.95
818.2935	515.0461	12920	12093.7
818.4377	517.199	12800.8	11975.9
818.5818	519.3512	12705.75	11877.5
818.726	521.5029	12672.3	11840.8
818.8703	523.6539	12658.2	11828.85
819.0145	525.8043	12693.6	11862.1
819.1587	527.9541	12726.15	11894.6
819.303	530.1033	12763.8	11933.55
819.4472	532.2519	12843.9	12013.5
819.5915	534.3999	13017.15	12182.6
819.7357	536.5472	13378.35	12546.5
819.88	538.694	13907.35	13072.15
820.0243	540.8401	14589.65	13752.85
820.1686	542.9856	15222.55	14389.2
820.3129	545.1305	15446.85	14611.9
820.4572	547.2748	15267.3	14432.55
820.6016	549.4185	14798.15	13960.7
820.7459	551.5615	14355.8	13520.7
820.8902	553.704	14141.55	13306.7
821.0346	555.8458	13993.65	13159.65
821.1789	557.987	13910.8	13076.4
821.3233	560.1276	13760.8	12923.5
821.4677	562.2675	13610.45	12779.85
821.6121	564.4069	13484.95	12649.3
821.7565	566.5456	13338.75	12504.45
821.9009	568.6837	13175.95	12339.95
822.0453	570.8212	12943.05	12109.3
822.1897	572.958	12687.35	11851.25
822.3342	575.0942	12515.5	11682.1
822.4786	577.2299	12386.25	11549.4
822.6231	579.3648	12423.95	11586.35
822.7675	581.4992	12519	11680.7
822.912	583.6329	12742.2	11905
823.0565	585.766	12997.4	12160.75
823.201	587.8985	13143.85	12308.2
823.3454	590.0304	13157.05	12309.75
823.4899	592.1616	13075	12235.35
823.6345	594.2922	12977.65	12137.65
823.779	596.4222	12839.6	11997.35
823.9235	598.5515	12635.3	11794.65
824.068	600.6802	12471.85	11631.6
824.2126	602.8083	12271.85	11430
824.3571	604.9358	12160.95	11318.35
824.5017	607.0626	12025.8	11183.75
824.6462	609.1888	11928.6	11085.25
824.7908	611.3144	11814.7	10971.45
824.9354	613.4393	11615.4	10773.75
825.08	615.5636	11442.7	10600.25
825.2246	617.6873	11330.6	10487.1
825.3692	619.8103	11231.35	10386
825.5138	621.9327	11167.7	10319.05
825.6584	624.0544	11155.95	10311.75
825.803	626.1756	11132.4	10288.6
825.9477	628.2961	11132.4	10289.6
826.0923	630.4159	11073.75	10228.15
826.237	632.5351	11016.35	10171.85
826.3816	634.6537	10945	10099.7
826.5263	636.7716	10927.4	10076.95
826.6709	638.8889	10882.85	10035.25
826.8156	641.0056	10885.35	10036.2
826.9603	643.1216	10881.65	10035.45
827.105	645.237	10885.35	10035.75
827.2497	647.3518	10899.55	10049.95
827.3944	649.4659	10930.4	10082.55
827.5391	651.5793	10943.25	10095.55
827.6838	653.6922	10939.25	10090
827.8285	655.8043	10878.35	10028.95
827.9733	657.9159	10834.2	9983.4
828.118	660.0268	10757	9905.65
828.2627	662.137	10662.1	9809.35
828.4075	664.2466	10606.55	9754
828.5522	666.3556	10584.55	9732.5
828.697	668.4639	10544.2	9690.4
828.8418	670.5716	10621.15	9770.6
828.9865	672.6786	10689.05	9837.2
829.1313	674.785	10787.75	9932.65
829.2761	676.8907	10846.15	9993.6
829.4209	678.9958	10954.15	10102.1
829.5657	681.1002	10936.05	10081.2
829.7105	683.204	10874.35	10016.15
829.8553	685.3072	10825.5	9970.8
830.0001	687.4097	10746.45	9891.75
830.1449	689.5115	10639.4	9782.9
830.2898	691.6127	10561.05	9708.1
830.4346	693.7132	10451.8	9596.3
830.5794	695.8131	10377.2	9498
830.7243	697.9123	10335.7	9480.6
830.8691	700.0109	10275.45	9417.5
831.014	702.1089	10242.35	9386.6
831.1588	704.2061	10228.15	9372.5
831.3037	706.3028	10224.75	9365
831.4486	708.3987	10292.2	9434.5
831.5935	710.4941	10392.15	9535.2
831.7383	712.5887	10584.05	9726.85
831.8832	714.6827	10909.7	10049.2
832.0281	716.7761	11329.55	10471.75
832.173	718.8688	11752.85	10895.5
832.3179	720.9608	11971.4	11110.35
832.4628	723.0522	11981.05	11120.25
832.6077	725.1429	11686.3	10831.2
832.7527	727.233	11285.45	10425.45
832.8976	729.3224	10913.1	10057.2
833.0425	731.4112	10569.95	9709.75
833.1874	733.4993	10343.7	9481.7
833.3324	735.5867	10155.5	9295.3
833.4773	737.6735	10068.35	9205.65
833.6222	739.7596	10000.25	9139.8
833.7672	741.845	9962.35	9102.65
833.9122	743.9298	9933.5	9069.3
834.0571	746.014	9941.6	9081.7
834.2021	748.0974	9956.3	9096.35
834.347	750.1802	9946.7	9086.15
834.492	752.2624	9950.9	9089.9
834.637	754.3439	9965.25	9101.4
834.782	756.4247	10024.75	9153.45
834.9269	758.5048	10095.6	9236.75
835.0719	760.5843	10279.2	9415.7
835.2169	762.6631	10565.9	9702.9
835.3619	764.7413	10994.05	10132.55
835.5069	766.8188	11545.85	10686.45
835.6519	768.8956	12032.55	11167.4
835.7969	770.9718	12378.75	11515
835.9419	773.0473	12251.3	11392.85
836.0869	775.1221	11919.05	11054.55
836.232	777.1962	11508.45	10643.8
836.377	779.2697	11321.05	10456
836.522	781.3426	11399.65	10518.5
836.667	783.4147	11681.75	10816.1
836.8121	785.4862	12019.65	11156.55
836.9571	787.557	12069.5	11207.75
837.1021	789.6271	11698.15	10833.45
837.2472	791.6966	11109.9	10247.4
837.3922	793.7654	10572.65	9706.45
837.5373	795.8335	10193	9328.15
837.6823	797.901	9986.65	9121.25
837.8274	799.9678	9898.45	9030.15
837.9724	802.0339	9929.05	9067.5
838.1175	804.0993	9987.7	9114.75
838.2626	806.1641	9976.8	9111.1
838.4076	808.2282	9922.45	9057.15
838.5527	810.2916	9811.45	8943.5
838.6978	812.3544	9700.4	8836.3
838.8428	814.4164	9600.75	8738.25
838.9879	816.4778	9569.55	8704.15
839.133	818.5385	9568.1	8703.6
839.2781	820.5986	9561.45	8696.15
839.4232	822.658	9587.55	8719.6
839.5682	824.7166	9646.95	8781.95
839.7133	826.7747	9760.8	8895.2
839.8584	828.832	9863.9	8999.8
840.0035	830.8886	9935.15	9068.1
840.1486	832.9446	10102.75	9235.6
840.2937	834.9999	10186.65	9320.5
840.4388	837.0545	10298	9426.45
840.5839	839.1085	10382.9	9516.85
840.729	841.1618	10395.25	9525.15
840.8741	843.2143	10404.4	9538.8
841.0192	845.2662	10313.75	9446.7
841.1643	847.3175	10250.1	9382.5
841.3095	849.368	10106.7	9239.05
841.4546	851.4179	9998.65	9132.8
841.5997	853.467	9829.65	8960.4
841.7448	855.5155	9693.9	8828.15
841.8899	857.5633	9593.8	8726.5
842.0351	859.6105	9449.45	8583.35
842.1802	861.6569	9376.25	8505.2
842.3253	863.7027	9318.5	8447.8
842.4704	865.7478	9264.45	8395.8
842.6156	867.7922	9260.6	8390.55
842.7607	869.8359	9329.35	8457.65
842.9058	871.8789	9456.8	8588.05
843.0509	873.9212	9676.35	8770.3
843.1961	875.9629	9822.55	8955.45
843.3412	878.0039	10009.15	9139.7
843.4863	880.0441	10124.7	9256.05
843.6315	882.0837	10097.05	9229
843.7766	884.1226	9961.95	9090.15
843.9218	886.1609	9802.2	8932.6
844.0669	888.1984	9650.15	8782.2
844.212	890.2352	9577.65	8709.15
844.3572	892.2714	9492.35	8615
844.5023	894.3069	9431	8558.7
844.6475	896.3416	9372.05	8499
844.7926	898.3757	9340.75	8470.3
844.9377	900.4091	9341	8470.7
845.0829	902.4418	9351.5	8475.8
845.228	904.4739	9346.5	8474.85
845.3732	906.5052	9327.75	8457.3
845.5183	908.5358	9182.65	8312.75
845.6635	910.5658	9029.7	8156.75
845.8086	912.595	8890.6	8018.75
845.9538	914.6236	8766.2	7894.8
846.0989	916.6515	8709.1	7837.1
846.2441	918.6786	8700.95	7827.8
846.3892	920.7051	8776.35	7904.15
846.5344	922.7309	8881.75	8012.25
846.6795	924.756	8982.85	8109.8
846.8246	926.7804	9062.3	8187.5
846.9698	928.8041	9026.5	8153
847.1149	930.8272	9050.7	8175.85
847.2601	932.8495	8962.4	8089.45
847.4052	934.8711	8881.3	8006.9
847.5504	936.892	8707.25	7836.15
847.6955	938.9123	8547.7	7671.4
847.8407	940.9318	8391.1	7518.85
847.9858	942.9506	8234.5	7359.95
848.131	944.9688	8153.85	7279
848.2761	946.9862	8111.8	7240.75
848.4213	949.003	8051.6	7178.3
848.5664	951.019	8042.15	7170.55
848.7115	953.0344	8071.45	7197.4
848.8567	955.0491	8100.5	7226.7
849.0018	957.063	8205.2	7330.9
849.147	959.0763	8279.65	7409.1
849.2921	961.0888	8364.45	7491.45
849.4373	963.1007	8436.8	7561.75
849.5824	965.1119	8482.35	7610.7
849.7275	967.1223	8493.85	7619.5
849.8727	969.1321	8514.35	7643.15
850.0178	971.1412	8552.75	7676.8
850.1629	973.1495	8561.15	7687.95
850.3081	975.1572	8648.35	7739.7
850.4532	977.1641	8654.3	7781.75
850.5983	979.1704	8651.35	7775.35
850.7435	981.1759	8619.3	7745.35
850.8886	983.1808	8672.55	7797.15
851.0337	985.1849	8781.15	7896.15
851.1788	987.1884	8967.3	8090.55
851.324	989.1911	9158.8	8281.5
851.4691	991.1932	9296.8	8419.2
851.6142	993.1945	9374.65	8502.05
851.7593	995.1951	9378.05	8501.95
851.9045	997.1951	9300.05	8418.4
852.0496	999.1943	9222.7	8348.25
852.1947	1001.1928	9179.1	8304.3
852.3398	1003.1906	9155.6	8281.85
852.4849	1005.1877	9177.75	8303.85
852.63	1007.1841	9126.6	8251.8
852.7751	1009.1798	9042.45	8168.1
852.9202	1011.1748	8844.15	7968.95
853.0653	1013.1691	8625.4	7749.35
853.2104	1015.1627	8388.35	7514.8
853.3555	1017.1556	8176.15	7302.05
853.5006	1019.1477	8081.8	7207.8
853.6457	1021.1392	8037.65	7163.1
853.7908	1023.1299	8017.9	7142.2
853.9359	1025.12	8057.5	7179.2
854.081	1027.1093	8116.3	7241.9
854.2261	1029.0979	8193.1	7317.8
854.3712	1031.0859	8243	7368.8
854.5163	1033.0731	8230.2	7353.55
854.6613	1035.0596	8170.4	7297.4
854.8064	1037.0454	8010.3	7133.15
854.9515	1039.0304	7889.7	7012.95
855.0965	1041.0148	7760.65	6884.25
855.2416	1042.9985	7675.8	6800.6
855.3867	1044.9814	7640.1	6765.15
855.5317	1046.9636	7596.6	6718.25
855.6768	1048.9452	7580.05	6705
855.8219	1050.926	7566.8	6690.85
855.9669	1052.9061	7538.25	6663.7
856.112	1054.8855	7513.95	6638
856.257	1056.8642	7552.65	6674.7
856.4021	1058.8421	7605.4	6727.9
856.5471	1060.8194	7631.75	6756.8
856.6921	1062.7959	7643.35	6765.95
856.8372	1064.7717	7674.35	6797.05
856.9822	1066.7469	7660.2	6783.35
857.1272	1068.7213	7618.15	6737.35
857.2723	1070.695	7577.5	6701.05
857.4173	1072.6679	7514.3	6637.5
857.5623	1074.6402	7467.95	6593.2
857.7073	1076.6117	7439.25	6557.45
857.8523	1078.5826	7472.25	6593.9
857.9973	1080.5527	7530.5	6650.95
858.1423	1082.5221	7677.55	6801.95
858.2873	1084.4908	7928.1	7050.8
858.4323	1086.4587	8168.9	7291.65
858.5773	1088.426	8341.1	7463.55
858.7223	1090.3925	8332.9	7449.85
858.8673	1092.3584	8272	7394.9
859.0123	1094.3235	8078.95	7203.55
859.1573	1096.2879	7986.25	7107.95
859.3022	1098.2515	7938	7062.25
859.4472	1100.2145	7946.1	7067.75
859.5922	1102.1767	8002.75	7123.6
859.7371	1104.1382	8122	7244.35
859.8821	1106.099	8344.35	7466.15
860.027	1108.0591	8560.8	7683
860.172	1110.0185	8699.85	7820.95
860.3169	1111.9771	8695.55	7818.2
860.4619	1113.9351	8463.35	7586.05
860.6068	1115.8923	8129.15	7250.1
860.7517	1117.8488	7782.75	6903.4
860.8967	1119.8045	7471.5	6595.6
861.0416	1121.7596	7311.85	6433.15
861.1865	1123.7139	7246.35	6369.2
861.3314	1125.6675	7250.05	6374.15
861.4763	1127.6204	7317.8	6441
861.6212	1129.5726	7336.5	6457.6
861.7661	1131.524	7380.55	6503.45
861.911	1133.4748	7422.75	6544.8
862.0559	1135.4248	7469.45	6590.7
862.2008	1137.3741	7488.9	6611.05
862.3457	1139.3226	7471.75	6592.85
862.4905	1141.2705	7445.5	6566
862.6354	1143.2176	7347.6	6462.8
862.7803	1145.164	7383.2	6503.8
862.9251	1147.1097	7400.35	6520.75
863.07	1149.0546	7416.55	6536.9
863.2148	1150.9989	7308.2	6428.8
863.3597	1152.9424	7113.2	6234.2
863.5045	1154.8852	6922.65	6042.85
863.6493	1156.8272	6779.75	5901.3
863.7942	1158.7686	6693.65	5809.8
863.939	1160.7092	6637.75	5758
864.0838	1162.6491	6625.55	5745.25
864.2286	1164.5883	6713.55	5833.45
864.3734	1166.5267	6765	5885.25
864.5182	1168.4644	6912.7	6033.4
864.663	1170.4014	7111.45	6229.3
864.8078	1172.3377	7333	6455.8
864.9526	1174.2732	7541.25	6665.05
865.0974	1176.2081	7751.75	6872.65
865.2421	1178.1421	7925.6	7041.35
865.3869	1180.0755	8055.75	7179.8
865.5317	1182.0082	8056.55	7178.6
865.6764	1183.9401	7972.2	7094
865.8212	1185.8713	7773.15	6894.65
865.9659	1187.8017	7510.05	6630
866.1106	1189.7315	7270.75	6390.95
866.2554	1191.6605	7020.1	6112.2
866.4001	1193.5888	6815.05	5936.9
866.5448	1195.5163	6684.15	5803.1
866.6895	1197.4432	6588.75	5708.35
866.8342	1199.3693	6508.05	5630.45
866.9789	1201.2947	6456.1	5574.45
867.1236	1203.2193	6435.5	5554.25
867.2683	1205.1432	6467.7	5587.55
867.413	1207.0664	6509.8	5630.65
867.5576	1208.9889	6595.15	5712.05
867.7023	1210.9106	6686.25	5809.3
867.847	1212.8316	6783.05	5902.9
867.9916	1214.7519	6861.65	5970.9
868.1363	1216.6715	6885.6	6007.05
868.2809	1218.5903	6885.3	6006.45
868.4255	1220.5084	6815.8	5937.4
868.5701	1222.4257	6766.65	5885.9
868.7148	1224.3424	6737.75	5857.9
868.8594	1226.2583	6785.95	5905
869.004	1228.1735	6874.7	5994.1
869.1486	1230.0879	7024.5	6145.45
869.2932	1232.0016	7142.8	6261.5
869.4377	1233.9146	7185.95	6302.15
869.5823	1235.8269	7099.7	6220.45
869.7269	1237.7384	6962.65	6083.05
869.8715	1239.6492	6790.2	5912.7
870.016	1241.5592	6693.2	5812.8
870.1606	1243.4686	6585.25	5706.35
870.3051	1245.3772	6539.1	5659.95
870.4496	1247.285	6463.9	5586.5
870.5941	1249.1922	6400.2	5517.9
870.7387	1251.0986	6401.25	5522.15
870.8832	1253.0042	6404.15	5523.2
871.0277	1254.9092	6475.05	5594.55
871.1722	1256.8134	6577.05	5698.35
871.3167	1258.7169	6709.95	5828.05
871.4611	1260.6196	6877.85	5999
871.6056	1262.5216	7063.05	6180.8
871.7501	1264.4229	7207.85	6329.35
871.8945	1266.3234	7320.45	6442.2
872.039	1268.2232	7349.5	6467.45
872.1834	1270.1223	7331.75	6450.7
872.3278	1272.0207	7312.75	6432.8
872.4723	1273.9183	7285.4	6400.1
872.6167	1275.8151	7203.95	6323.45
872.7611	1277.7113	7090.8	6209.15
872.9055	1279.6067	6942.65	6063.3
873.0499	1281.5014	6779.75	5896.3
873.1943	1283.3953	6648	5764.2
873.3386	1285.2885	6537.95	5659.75
873.483	1287.181	6475.05	5596
873.6274	1289.0727	6472.75	5593.95
873.7717	1290.9637	6481.35	5602.1
873.9161	1292.854	6608.1	5727.25
874.0604	1294.7435	6764.9	5884.85
874.2047	1296.6323	6990.8	6108.05
874.349	1298.5204	7281.35	6395.95
874.4933	1300.4077	7510.2	6629.85
874.6376	1302.2943	7731.4	6851.8
874.7819	1304.1802	7809.65	6930.4
874.9262	1306.0653	7758.1	6876
875.0705	1307.9497	7655.2	6773.65
875.2147	1309.8333	7579.3	6697.95
875.359	1311.7162	7579.4	6698.1
875.5032	1313.5984	7655.4	6773.5
875.6475	1315.4798	7816.85	6926.4
875.7917	1317.3605	8004.7	7107.2
875.9359	1319.2405	8148.4	7265.9
876.0801	1321.1197	8232.95	7349.7
876.2243	1322.9982	8198.35	7311.95
876.3685	1324.876	8163.4	7281.7
876.5127	1326.753	8137.1	7255.75
876.6569	1328.6293	8151.4	7266.65
876.801	1330.5048	8200.35	7316.15
876.9452	1332.3796	8160.15	7280
877.0893	1334.2537	8151.45	7245.15
877.2335	1336.127	8081.3	7201.8
877.3776	1337.9996	8053.45	7172.3
877.5217	1339.8714	7980	7099.55
877.6658	1341.7426	7938.45	7014.3
877.8099	1343.6129	7864.05	6982.75
877.954	1345.4826	7812.15	6931.7
878.0981	1347.3515	7755.65	6871.75
878.2422	1349.2196	7666.1	6784.65
878.3862	1351.087	7678.15	6797.8
878.5303	1352.9537	7716.05	6833.05
878.6743	1354.8197	7829.2	6947.4
878.8184	1356.6849	7980.75	7099.7
878.9624	1358.5493	8074.25	7192.3
879.1064	1360.4131	8063.4	7182.15
879.2504	1362.276	7960.1	7077.5
879.3944	1364.1383	7820.9	6939.4
879.5384	1365.9998	7622.45	6735.5
879.6823	1367.8606	7340.55	6457.25
879.8263	1369.7206	7099.1	6217.65
879.9702	1371.5799	6939.7	6054.4
880.1142	1373.4384	6810.65	5930.25
880.2581	1375.2962	6695.3	5813
880.402	1377.1533	6462.15	5579.75
880.5459	1379.0096	6189.85	5308.25
880.6898	1380.8652	5899.65	5017.2
880.8337	1382.7201	5669.45	4788.65
880.9776	1384.5742	5484.45	4601.5
881.1215	1386.4275	5333.55	4452.35
881.2653	1388.2802	5238.3	4358.65
881.4092	1390.132	5141.45	4258.55
881.553	1391.9832	5078.7	4195.65
881.6968	1393.8336	5010.65	4127.95
881.8406	1395.6832	4986.35	4103.25
881.9844	1397.5322	4937	4055.95
882.1282	1399.3803	4952	4062.65
882.272	1401.2278	4929.6	4045.9
882.4158	1403.0745	4925.8	4042.75
882.5595	1404.9204	4918.85	4038.3
882.7033	1406.7656	4931.25	4047.85
882.847	1408.6101	4963.45	4080.7
882.9908	1410.4538	4979.1	4096
883.1345	1412.2968	5024.3	4142.8
883.2782	1414.139	5074.65	4190.65
883.4219	1415.9805	5166.35	4285.8
883.5656	1417.8213	5261	4372.5
883.7092	1419.6613	5393	4512.2
883.8529	1421.5006	5608.65	4726.2
883.9965	1423.3391	5865.25	4984.35
884.1402	1425.1769	6236	5353.5
884.2838	1427.0139	6746.1	5862.2
884.4274	1428.8502	7379.9	6497.9
884.571	1430.6858	8009.8	7127.95
884.7146	1432.5206	8487.25	7604.45
884.8582	1434.3547	8757.95	7872.4
885.0018	1436.188	8816.75	7937.15
885.1453	1438.0206	8776.25	7893
885.2889	1439.8524	8609.55	7727.55
885.4324	1441.6835	8515.1	7631.5
885.5759	1443.5139	8454.7	7568.5
885.7194	1445.3435	8372.1	7488.7
885.8629	1447.1724	8343.35	7461.5
886.0064	1449.0005	8240.6	7357
886.1499	1450.8279	8157.6	7274.5
886.2933	1452.6545	8125.85	7243.2
886.4368	1454.4804	8149.75	7267.2
886.5802	1456.3056	8138.2	7247.75
886.7237	1458.13	8007	7123.5
886.8671	1459.9536	7798.1	6913
887.0105	1461.7766	7423.15	6543.7
887.1539	1463.5987	7033.6	6149.3
887.2972	1465.4202	6609.6	5725.85
887.4406	1467.2409	6235.5	5354.8
887.584	1469.0608	5948.95	5067.75
887.7273	1470.88	5700.05	4815.85
887.8706	1472.6984	5471.5	4589.05
888.0139	1474.5161	5273.85	4388.1
888.1572	1476.3331	5098.25	4217.35
888.3005	1478.1493	4986.5	4101.45
888.4438	1479.9648	4872.5	3991.4
888.5871	1481.7795	4782.2	3900.8
888.7303	1483.5935	4720.45	3839.2
888.8736	1485.4067	4631.45	3750.05
889.0168	1487.2192	4597.3	3715.6
889.16	1489.031	4553.95	3669.4
889.3032	1490.842	4499.3	3618.3
889.4464	1492.6522	4490	3609.1
889.5896	1494.4618	4447.55	3565.95
889.7327	1496.2705	4432.85	3549.1
889.8759	1498.0785	4399.8	3517.3
890.019	1499.8858	4403.2	3520.3
890.1622	1501.6924	4358.9	3476.55
890.3053	1503.4981	4367.45	3485.65
890.4484	1505.3032	4322.8	3440.1
890.5914	1507.1075	4309.75	3426.2
890.7345	1508.911	4295.7	3412.3
890.8776	1510.7138	4266.75	3385.15
891.0206	1512.5159	4242.1	3359.25
891.1637	1514.3172	4197.8	3316.2
891.3067	1516.1178	4141.25	3260.3
891.4497	1517.9176	4140.6	3257.75
891.5927	1519.7166	4115.8	3232.05
891.7357	1521.515	4116.7	3226.65
891.8786	1523.3126	4086.7	3203.7
892.0216	1525.1094	4073	3191.15
892.1645	1526.9055	4050.3	3170.25
892.3074	1528.7008	4024.95	3141.85
892.4503	1530.4954	4013.3	3127.6
892.5932	1532.2893	3998.95	3117.9
892.7361	1534.0824	3982.7	3094.55
892.879	1535.8747	3986.6	3102.2
893.0218	1537.6663	3985.5	3102.6
893.1647	1539.4572	3973.05	3088.4
893.3075	1541.2473	3962.25	3078.55
893.4503	1543.0367	3959	3078.9
893.5931	1544.8253	3963.4	3077.7
893.7359	1546.6132	3968.95	3086.4
893.8787	1548.4003	3958.6	3066.05
894.0214	1550.1867	3982.5	3092.9
894.1642	1551.9723	3992.25	3102.25
894.3069	1553.7572	4012.45	3129.8
894.4496	1555.5414	4046.2	3163.6
894.5923	1557.3247	4078	3193.3
894.735	1559.1074	4110.1	3228.95
894.8777	1560.8893	4160.45	3277.1
895.0204	1562.6705	4213.2	3331.05
895.163	1564.4509	4292.35	3411.65
895.3056	1566.2305	4381.75	3497.9
895.4482	1568.0094	4472.8	3591.6
895.5908	1569.7876	4554.95	3672.05
895.7334	1571.565	4629.3	3747.45
895.876	1573.3417	4678.85	3795.3
896.0186	1575.1176	4690.35	3807.95
896.1611	1576.8928	4658.2	3774.45
896.3036	1578.6672	4597.7	3716.3
896.4461	1580.4409	4493.85	3612
896.5886	1582.2138	4379.75	3494.6
896.7311	1583.986	4243.2	3359.7
896.8736	1585.7575	4158.2	3276.65
897.0161	1587.5282	4081.55	3201.05
897.1585	1589.2981	4006.8	3126.3
897.3009	1591.0673	3958.35	3076.35
897.4433	1592.8358	3943.8	3061.6
897.5857	1594.6035	3930.55	3045.15
897.7281	1596.3704	3947.65	3065.55
897.8705	1598.1366	3941.3	3057.65
898.0128	1599.9021	3961.45	3080.2
898.1551	1601.6668	4011.45	3125.7
898.2975	1603.4308	4044.35	3162.25
898.4398	1605.194	4104.65	3218.7
898.5821	1606.9564	4189.55	3307.95
898.7243	1608.7182	4290.6	3405.95
898.8666	1610.4791	4434.4	3551.65
899.0088	1612.2394	4567.3	3687.45
899.1511	1613.9988	4755.1	3872.85
899.2933	1615.7576	4983.45	4101.25
899.4355	1617.5156	5240.65	4353.15
899.5776	1619.2728	5466.1	4583.2
899.7198	1621.0293	5639.9	4761.15
899.862	1622.785	5745.2	4857.7
900.0041	1624.54	5709.45	4825.3
900.1462	1626.2942	5573.9	4689.9
900.2883	1628.0477	5332.7	4447.2
900.4304	1629.8005	5093.95	4207.35
900.5725	1631.5525	4847.75	3965.45
900.7145	1633.3037	4660.15	3776.85
900.8566	1635.0542	4493.2	3610.25
900.9986	1636.804	4342.4	3460.3
901.1406	1638.553	4321.5	3358.75
901.2826	1640.3013	4205.5	3323.7
901.4245	1642.0488	4153.6	3272.85
901.5665	1643.7955	4143.65	3260.15
901.7085	1645.5416	4168.3	3286.35
901.8504	1647.2868	4225.4	3344.5
901.9923	1649.0313	4299.95	3419.25
902.1342	1650.7751	4430.7	3545.9
902.2761	1652.5181	4635.35	3754.95
902.4179	1654.2604	4877.7	3995.3
902.5598	1656.0019	5197.85	4315.6
902.7016	1657.7427	5558.5	4675.55
902.8434	1659.4828	5913.95	5032.8
902.9852	1661.222	6158.75	5276.8
903.127	1662.9606	6203.3	5320.35
903.2687	1664.6984	6074.8	5192.4
903.4105	1666.4354	5735.05	4854.3
903.5522	1668.1717	5287.95	4406.85
903.6939	1669.9072	4858.05	3975.75
903.8356	1671.642	4480.45	3598.95
903.9773	1673.3761	4176.55	3296.55
904.119	1675.1094	3950.55	3071.5
904.2606	1676.8419	3777.35	2895.7
904.4022	1678.5737	3646.1	2766.9
904.5439	1680.3048	3570.4	2689.2
904.6855	1682.0351	3479.05	2600.15
904.827	1683.7646	3415.05	2532.35
904.9686	1685.4934	3379.95	2497.5
905.1101	1687.2215	3341.85	2460.7
905.2517	1688.9488	3305.15	2422.35
905.3932	1690.6754	3287.4	2405.85
905.5347	1692.4012	3260.95	2382.35
905.6761	1694.1263	3248.2	2366.85
905.8176	1695.8506	3223.15	2341.65
905.9591	1697.5742	3201.95	2321.95
906.1005	1699.297	3196.15	2315.05
906.2419	1701.0191	3166.75	2285.8
906.3833	1702.7404	3159.2	2276.3
906.5246	1704.461	3129.3	2246.9
906.666	1706.1808	3101.1	2220.1
906.8073	1707.8999	3086.65	2203.6
906.9487	1709.6182	3085.25	2203.95
907.09	1711.3358	3069.75	2189.3
907.2313	1713.0527	3056.25	2176.4
907.3725	1714.7688	3047	2161
907.5138	1716.4841	3031.75	2149.05
907.655	1718.1987	3027.3	2142.15
907.7962	1719.9126	3002.6	2119.6
907.9374	1721.6257	3010.15	2127.75
908.0786	1723.338	2991.05	2109.3
908.2198	1725.0496	2982.85	2101.55
908.3609	1726.7605	2970.05	2089.05
908.502	1728.4706	2946.6	2066
908.6431	1730.18	2953.8	2069.7
908.7842	1731.8886	2930.15	2048.45
908.9253	1733.5964	2931.85	2046.4
909.0664	1735.3036	2936.25	2052.5
909.2074	1737.0099	2917.65	2038.5
909.3484	1738.7156	2908.65	2030.1
909.4894	1740.4204	2904.55	2021.55
909.6304	1742.1246	2901.55	2019.45
909.7714	1743.8279	2895.15	2016.6
909.9123	1745.5306	2886.7	2004.75
910.0532	1747.2325	2877.55	1996.55
910.1941	1748.9336	2862.4	1982.65
910.335	1750.634	2859.95	1977.15
910.4759	1752.3336	2849.2	1969.3
910.6168	1754.0325	2839.15	1958.35
910.7576	1755.7307	2847.95	1967.9
910.8984	1757.4281	2835.55	1953.75
911.0392	1759.1247	2844.25	1955.55
911.18	1760.8206	2827.15	1940.7
911.3208	1762.5158	2820.25	1934.65
911.4615	1764.2102	2818.25	1938.45
911.6022	1765.9039	2803.15	1921.35
911.7429	1767.5968	2782.6	1900.15
911.8836	1769.289	2791.25	1911.05
912.0243	1770.9804	2791	1910.45
912.1649	1772.6711	2787.9	1907.1
912.3056	1774.361	2785.4	1902.95
912.4462	1776.0502	2777.55	1897
912.5868	1777.7386	2772.5	1888.5
912.7274	1779.4263	2772.25	1889.25
912.8679	1781.1132	2767.55	1886.6
913.0084	1782.7994	2752.9	1867
913.149	1784.4849	2734.75	1853.6
913.2895	1786.1696	2744.8	1844.75
913.4299	1787.8535	2736.35	1856.4
913.5704	1789.5367	2717.8	1835.95
913.7108	1791.2192	2726.05	1845.5
913.8513	1792.9009	2739.8	1830.9
913.9917	1794.5818	2709.25	1826.95
914.132	1796.2621	2711.9	1831.1
914.2724	1797.9415	2706.85	1825.55
914.4128	1799.6202	2696.35	1815.55
914.5531	1801.2982	2687.25	1804.35
914.6934	1802.9755	2686.55	1806.45
914.8337	1804.6519	2696.5	1814.95
914.9739	1806.3277	2685.15	1804.55
915.1142	1808.0027	2666	1786.3
915.2544	1809.6769	2670.1	1789.1
915.3946	1811.3504	2665.8	1783.05
915.5348	1813.0231	2655.65	1772.2
915.675	1814.6951	2652.05	1770.85
915.8151	1816.3664	2646.1	1762.65
915.9553	1818.0369	2653.35	1772.8
916.0954	1819.7067	2649.3	1767.75
916.2355	1821.3757	2641.15	1757.05
916.3755	1823.044	2638.5	1757.15
916.5156	1824.7115	2640.35	1760.9
916.6556	1826.3783	2636.75	1756.75
916.7956	1828.0443	2619.95	1741.25
916.9356	1829.7096	2620.7	1737.25
917.0756	1831.3741	2617.85	1733.55
917.2155	1833.0379	2608.75	1728.2
917.3555	1834.701	2605.3	1720.2
917.4954	1836.3633	2595.55	1712.65
917.6353	1838.0248	2594.95	1709.9
917.7751	1839.6856	2600.9	1719.35
917.915	1841.3457	2598.95	1719.4
918.0548	1843.005	2592.6	1711.7
918.1946	1844.6636	2580.15	1700
918.3344	1846.3214	2586.65	1705.8
918.4742	1847.9785	2583.7	1703
918.6139	1849.6349	2579.35	1700
918.7537	1851.2904	2591.3	1702.15
918.8934	1852.9453	2580.3	1700.65
919.0331	1854.5994	2564.2	1679.15
919.1727	1856.2528	2561.05	1675.85
919.3124	1857.9054	2553.8	1670.8
919.452	1859.5572	2552.05	1671.35
919.5916	1861.2083	2541.25	1657.6
919.7312	1862.8587	2549.05	1670.25
919.8708	1864.5084	2540.8	1659.95
920.0103	1866.1572	2537.55	1660
920.1498	1867.8054	2521.7	1641.6
920.2893	1869.4528	2516.6	1636.3
920.4288	1871.0994	2517.3	1635.95
920.5683	1872.7453	2526.85	1645.65
920.7077	1874.3905	2526.35	1628
920.8471	1876.0349	2503.35	1622
920.9865	1877.6786	2506.1	1622.25
921.1259	1879.3215	2499	1618.05
921.2653	1880.9637	2490.55	1608.7
921.4046	1882.6051	2494.45	1613.5
921.5439	1884.2458	2489.4	1607.7
921.6832	1885.8858	2491.3	1610.9
921.8225	1887.525	2488.3	1605.15
921.9617	1889.1634	2466.95	1585.3
922.101	1890.8011	2454	1573.7
922.2402	1892.4381	2463.5	1580.55
922.3794	1894.0743	2461.45	1581.55
922.5185	1895.7098	2454.45	1574.4
922.6577	1897.3446	2449.25	1567.5
922.7968	1898.9786	2455	1569.5
922.9359	1900.6118	2445.65	1566.5
923.075	1902.2443	2418.8	1536.25
923.214	1903.8761	2426.2	1545.7
923.3531	1905.5071	2425.45	1544.05
923.4921	1907.1374	2426.15	1545.1
923.6311	1908.7669	2409.6	1527.1
923.77	1910.3957	2428.85	1548.45
923.909	1912.0237	2406.75	1524.85
924.0479	1913.651	2400.25	1517.95
924.1868	1915.2776	2398.65	1518.4
924.3257	1916.9034	2397.45	1515.9
924.4646	1918.5285	2387.15	1507.2
924.6034	1920.1528	2381	1498.45
924.7422	1921.7764	2379	1496.55
924.881	1923.3992	2379	1497.95
925.0198	1925.0213	2362.9	1482.05
925.1586	1926.6427	2351.55	1472.1
925.2973	1928.2633	2444.15	1458.6
925.436	1929.8832	2368.2	1486.15
925.5747	1931.5023	2341.35	1461.15
925.7134	1933.1207	2349.5	1467.9
925.852	1934.7383	2350.85	1469
925.9906	1936.3552	2338.4	1459.8
926.1292	1937.9714	2334.15	1453.8
926.2678	1939.5868	2334.25	1451.7
926.4064	1941.2015	2307.3	1426.4
926.5449	1942.8154	2316.45	1435.3
926.6834	1944.4286	2301.6	1420.5
926.8219	1946.041	2314.95	1409.45
926.9604	1947.6528	2305	1418.4
927.0988	1949.2637	2286.35	1405.75
927.2372	1950.8739	2276.35	1394.4
927.3756	1952.4834	2283.3	1402.4
927.514	1954.0921	2277.85	1395.9
927.6523	1955.7001	2283.1	1396.35
927.7907	1957.3074	2267.55	1388.4
927.929	1958.9139	2254.55	1372.65
928.0673	1960.5197	2257.55	1374.65
928.2055	1962.1247	2235.35	1352.95
928.3438	1963.729	2240.05	1361.45
928.482	1965.3325	2265.65	1361.5
928.6202	1966.9353	2233.45	1353.6
928.7584	1968.5374	2224.55	1343.4
928.8965	1970.1387	2225.15	1345.5
929.0346	1971.7393	2224.35	1342.4
929.1727	1973.3392	2215.3	1334.75
929.3108	1974.9383	2202.7	1323.35
929.4489	1976.5366	2190.65	1309.65
929.5869	1978.1342	2206.95	1324.8
929.7249	1979.7311	2195.45	1313.4
929.8629	1981.3273	2193.5	1311.25
930.0009	1982.9227	2185.4	1303.9
930.1388	1984.5173	2188.2	1308.95
930.2767	1986.1112	2178.95	1297.9
930.4146	1987.7044	2180.05	1298.9
930.5525	1989.2968	2180.45	1299.95
930.6904	1990.8885	2175.8	1291.5
930.8282	1992.4795	2180.8	1298.2
930.966	1994.0697	2160.95	1280.1
931.1038	1995.6592	2155.9	1273.95
931.2415	1997.2479	2157.5	1275.5
931.3793	1998.8359	2147.3	1265.5
931.517	2000.4232	2144.6	1263.15
931.6547	2002.0097	2138.25	1260.35
931.7923	2003.5955	2137.45	1254
931.93	2005.1805	2147.15	1264.55
932.0676	2006.7648	2127.8	1247.95
932.2052	2008.3484	2137.85	1255.4
932.3427	2009.9312	2140.6	1257.35
932.4803	2011.5133	2130	1246.95
932.6178	2013.0946	2122.3	1242.3
932.7553	2014.6752	2112.8	1231.7
932.8928	2016.2551	2104.9	1224.05
933.0302	2017.8342	2110.75	1229.4
933.1676	2019.4126	2098.7	1216.8
933.305	2020.9902	2103.55	1222
933.4424	2022.5672	2106	1223.1
933.5798	2024.1433	2098.35	1213.1
933.7171	2025.7188	2088.85	1208.55
933.8544	2027.2935	2090.55	1206.85
933.9917	2028.8674	2085.35	1203.45
934.129	2030.4406	2078.95	1199.15
934.2662	2032.0131	2074.05	1194
934.4034	2033.5849	2075.65	1190.05
934.5406	2035.1559	2066.6	1187.45
934.6778	2036.7261	2065.5	1184.8
934.8149	2038.2957	2067.2	1186.7
934.952	2039.8645	2061.55	1180.25
935.0891	2041.4325	2063.8	1180.75
935.2262	2042.9998	2054.8	1173.75
935.3632	2044.5664	2051.05	1166.15
935.5002	2046.1323	2051	1169.15
935.6372	2047.6974	2053.8	1172.6
935.7742	2049.2617	2048.7	1167.25
935.9111	2050.8254	2051.3	1165.45
936.048	2052.3883	2044.75	1162.45
936.1849	2053.9504	2044.4	1163.25
936.3218	2055.5118	2034.1	1151.75
936.4586	2057.0725	2031.2	1145.85
936.5955	2058.6325	2022.45	1139.8
936.7323	2060.1917	2015.35	1135
936.869	2061.7502	2019.5	1133.35
937.0058	2063.3079	2004.55	1123.4
937.1425	2064.8649	2019.05	1135.35
937.2792	2066.4212	2013.4	1131.2
937.4159	2067.9767	2009.75	1128.4
937.5525	2069.5315	2008.55	1127.55
937.6891	2071.0856	2005.25	1122.1
937.8257	2072.6389	1988.6	1105.8
937.9623	2074.1915	1987.55	1106.8
938.0989	2075.7433	1971.75	1088.35
938.2354	2077.2945	1974.05	1094.3
938.3719	2078.8448	1965.8	1083.5
938.5084	2080.3945	1967.35	1086.2
938.6448	2081.9434	1969.65	1087.35
938.7812	2083.4916	1964.45	1083.6
938.9176	2085.039	1960.25	1076.6
939.054	2086.5857	1963	1080.15
939.1903	2088.1317	1957.15	1077.3
939.3267	2089.677	1950.45	1067.8
939.463	2091.2215	1946.15	1065.7
939.5992	2092.7652	1950.6	1067.6
939.7355	2094.3083	1947.55	1067.15
939.8717	2095.8506	1942.2	1063
940.0079	2097.3921	1945.25	1062.25
940.1441	2098.933	1934.35	1053
940.2802	2100.4731	1937.65	1055.35
940.4163	2102.0124	1940.55	1052.6
940.5524	2103.5511	1929.8	1050.2
940.6885	2105.089	1931.7	1050.3
940.8245	2106.6261	1930.2	1048.45
940.9606	2108.1626	1937	1057.05
941.0965	2109.6983	1942.85	1032.4
941.2325	2111.2332	1926.5	1046.75
941.3684	2112.7675	1919.1	1037.6
941.5044	2114.301	1925.7	1042.4
941.6403	2115.8337	1916.75	1035.75
941.7761	2117.3657	1912.85	1030.65
941.912	2118.897	1911.4	1029.7
942.0478	2120.4276	1908.95	1020.55
942.1835	2121.9575	1907.6	1025.8
942.3193	2123.4866	1916.55	1020.05
942.455	2125.0149	1898.25	1015.2
942.5907	2126.5426	1891.25	1011.75
942.7264	2128.0695	1893.2	1006.55
942.8621	2129.5956	1893.05	1011.6
942.9977	2131.1211	1889.6	1002.45
943.1333	2132.6458	1891.5	1011.4
943.2689	2134.1698	1887.8	1005.75
943.4044	2135.693	1882	998.4
943.54	2137.2155	1875.55	990.5
943.6755	2138.7373	1877.6	996.55
943.8109	2140.2584	1875.3	993.85
943.9464	2141.7787	1874.35	990.45
944.0818	2143.2983	1861.1	981.95
944.2172	2144.8171	1855.2	975.75
944.3526	2146.3353	1863.1	981.55
944.4879	2147.8527	1846.2	966.35
944.6232	2149.3693	1863.7	981.75
944.7585	2150.8853	1852.05	970.5
944.8938	2152.4005	1852.1	971.6
945.029	2153.9149	1852.35	969.5
945.1642	2155.4287	1841.05	959.85
945.2994	2156.9417	1837.1	952.7
945.4346	2158.454	1846.5	962.85
945.5697	2159.9655	1835.9	952.05
945.7048	2161.4764	1831.3	949.15
945.8399	2162.9865	1834.35	951.75
945.9749	2164.4958	1822.2	939.45
946.1099	2166.0045	1834.1	950.05
946.2449	2167.5124	1817.65	937.05
946.3799	2169.0195	1820.9	939.35
946.5148	2170.526	1825.75	942.9
946.6498	2172.0317	1816.75	933.55
946.7846	2173.5367	1810.5	926.8
946.9195	2175.0409	1805.8	926.2
947.0543	2176.5445	1815.7	935.2
947.1891	2178.0473	1818.65	937.45
947.3239	2179.5494	1821.75	936.8
947.4587	2181.0507	1803.6	921.4
947.5934	2182.5513	1801.25	920.65
947.7281	2184.0512	1796.2	915.05
947.8628	2185.5504	1794.15	913.15
947.9974	2187.0488	1793.15	909.3
948.132	2188.5465	1781.6	899.55
948.2666	2190.0435	1778.8	897.15
948.4012	2191.5397	1781.7	900.95
948.5357	2193.0353	1778.1	896.45
948.6702	2194.5301	1773.75	890.05
948.8047	2196.0241	1770.45	888.75
948.9392	2197.5175	1777.45	898.4
949.0736	2199.0101	1774.25	888.1
949.208	2200.502	1765.4	886.25
949.3424	2201.9931	1761.3	877.55
949.4767	2203.4835	1770.85	885.7
949.611	2204.9733	1766.55	878.85
949.7453	2206.4622	1749.75	869.4
949.8796	2207.9505	1755	866.3
950.0138	2209.438	1744.7	864.75
950.148	2210.9248	1750.2	866.5
950.2822	2212.4109	1746.85	868.35
950.4164	2213.8962	1748	865.2
950.5505	2215.3809	1747.7	866.35
950.6846	2216.8648	1736.65	855.3
950.8186	2218.3479	1735.25	848.6
950.9527	2219.8304	1734.3	848.95
951.0867	2221.3121	1722	835.6
951.2207	2222.7931	1729.75	849.2
951.3546	2224.2733	1721.4	837.35
951.4886	2225.7529	1716.2	834.5
951.6225	2227.2317	1725	840.2
951.7563	2228.7098	1719.85	837.65
951.8902	2230.1872	1706.05	824.15
952.024	2231.6638	1709.05	827.4
952.1578	2233.1397	1704	818.35
952.2916	2234.6149	1709.5	828.25
952.4253	2236.0894	1703.55	819
952.559	2237.5632	1712.65	830.1
952.6927	2239.0362	1695.85	813.95
952.8263	2240.5085	1695.15	811.85
952.9599	2241.9801	1690.3	807.9
953.0935	2243.4509	1687.75	806.95
953.2271	2244.921	1680.35	798.8
953.3606	2246.3904	1681.15	798.35
953.4941	2247.8591	1676.7	794.9
953.6276	2249.3271	1677.35	797.5
953.7611	2250.7943	1679	797.1
953.8945	2252.2608	1668.1	786.55
954.0279	2253.7266	1672.3	793.15
954.1612	2255.1917	1657.25	775.7
954.2946	2256.656	1664.65	782.65
954.4279	2258.1197	1659.55	777
954.5612	2259.5826	1665.2	779.6
954.6944	2261.0447	1665.05	781
954.8276	2262.5062	1655.8	772.45
954.9608	2263.9669	1653.4	770.6
955.094	2265.4269	1652.25	771.3
955.2271	2266.8862	1652.85	769.5
955.3602	2268.3448	1656.8	774.5
955.4933	2269.8026	1655.55	771.95
955.6264	2271.2598	1648.3	766.25
955.7594	2272.7162	1648.3	768.2
955.8924	2274.1719	1642	760
956.0253	2275.6268	1644.4	765.55
956.1583	2277.0811	1641.2	757.75
956.2912	2278.5346	1634.5	753.55
956.4241	2279.9874	1641.2	759.2
956.5569	2281.4395	1640.8	758.6
956.6897	2282.8908	1634.55	749.45
956.8225	2284.3414	1634.15	749.6
956.9553	2285.7914	1625.85	744.75
957.088	2287.2406	1624.45	742.3
957.2207	2288.689	1618.75	736.1
957.3534	2290.1368	1623.2	741.1
957.486	2291.5838	1621.25	736.9
957.6186	2293.0302	1627.8	745.7
957.7512	2294.4758	1610.6	730.8
957.8838	2295.9206	1611.25	728.2
958.0163	2297.3648	1608.4	727.85
958.1488	2298.8082	1611.35	727.55
958.2813	2300.251	1602.1	719.75
958.4137	2301.693	1610.8	725.05
958.5461	2303.1343	1615.65	733.35
958.6785	2304.5748	1601.25	720.3
958.8108	2306.0147	1597.2	712.85
958.9432	2307.4538	1600.05	717.3
959.0754	2308.8922	1600.7	720.15
959.2077	2310.3299	1602.95	718.95
959.3399	2311.7669	1591.15	708.2
959.4721	2313.2031	1598.05	715.85
959.6043	2314.6387	1588.2	705.9
959.7365	2316.0735	1584.45	701.7
959.8686	2317.5076	1575.85	693.75
960.0006	2318.941	1575.6	693.05
960.1327	2320.3737	1574.9	692.3
960.2647	2321.8056	1581.8	697.3
960.3967	2323.2369	1576	694.6
960.5287	2324.6674	1570.95	685.3
960.6606	2326.0972	1573.25	689
960.7925	2327.5263	1568.1	687.35
960.9244	2328.9547	1564.4	683.35
961.0562	2330.3823	1563.45	681.6
961.1881	2331.8092	1573.8	688.6
961.3198	2333.2355	1553.35	671.2
961.4516	2334.661	1550.55	668.15
961.5833	2336.0858	1552.15	668.75
961.715	2337.5098	1559.15	678.05
961.8467	2338.9332	1564.3	680.6
961.9783	2340.3558	1555.4	670.3
962.1099	2341.7778	1556.55	673.5
962.2415	2343.199	1561.55	676.3
962.373	2344.6195	1553.75	671.6
962.5045	2346.0393	1548.55	666.3
962.636	2347.4583	1549.1	666.65
962.7675	2348.8767	1553.75	669.9
962.8989	2350.2943	1546.45	664
963.0303	2351.7113	1550.7	670.25
963.1617	2353.1275	1551.85	669.8
963.293	2354.543	1575.2	668.4
963.4243	2355.9578	1542.05	662.35
963.5556	2357.3718	1537.75	656.1
963.6868	2358.7852	1539.75	655.8
963.818	2360.1978	1528.85	645.75
963.9492	2361.6098	1537.4	657.85
964.0803	2363.021	1540.4	657.1
964.2114	2364.4315	1528.3	645.8
964.3425	2365.8413	1532.15	645.75
964.4736	2367.2504	1526.05	645.4
964.6046	2368.6587	1514.6	632.55
964.7356	2370.0664	1517.2	636.3
964.8666	2371.4733	1515.45	631.8
964.9975	2372.8795	1522	641.7
965.1284	2374.285	1516.45	635.2
965.2593	2375.6899	1512.35	633.1
965.3901	2377.0939	1514.75	632.9
965.5209	2378.4973	1512.1	631.55
965.6517	2379.9	1513.9	631.45
965.7825	2381.3019	1499.75	619.15
965.9132	2382.7032	1501.8	620.15
966.0439	2384.1037	1500.35	620.45
966.1745	2385.5035	1496.05	614
966.3051	2386.9027	1489.7	610.05
966.4357	2388.3011	1501.1	617.2
966.5663	2389.6987	1494.9	613.5
966.6968	2391.0957	1493.2	611.55
966.8273	2392.492	1493	613.5
966.9578	2393.8876	1484.65	605.4
967.0882	2395.2824	1476.6	596.5
967.2186	2396.6765	1476.9	597.35
967.349	2398.07	1477.45	596.85
967.4793	2399.4627	1476.75	596.55
967.6097	2400.8547	1473.95	592.8
967.7399	2402.246	1479.55	592.25
967.8702	2403.6366	1479.5	599.2
968.0004	2405.0265	1465.3	585.15
968.1306	2406.4156	1476.7	592.85
968.2607	2407.8041	1468.75	584
968.3909	2409.1918	1470.45	588.75
968.521	2410.5789	1468.8	587.6
968.651	2411.9652	1471.05	587
968.781	2413.3508	1465.6	586.2
968.911	2414.7358	1457.85	574.65
969.041	2416.12	1460.4	581.75
969.1709	2417.5035	1464.5	583.7
969.3008	2418.8863	1462.3	579.65
969.4307	2420.2684	1459.4	578.05
969.5606	2421.6497	1455.4	574.65
969.6904	2423.0304	1453.05	572
969.8201	2424.4104	1458.15	574.7
969.9499	2425.7896	1463.55	574.9
970.0796	2427.1682	1449.4	568.7
970.2093	2428.546	1449.3	565.3
970.3389	2429.9232	1443.6	561
970.4685	2431.2996	1438.65	558.05
970.5981	2432.6753	1441.65	562.35
970.7277	2434.0503	1439	559.65
970.8572	2435.4246	1434.1	553.85
970.9867	2436.7982	1440.05	557.3
971.1161	2438.1711	1431.55	552.55
971.2456	2439.5433	1434.8	552.45
971.375	2440.9148	1434.35	549.15
971.5043	2442.2856	1431.6	551.05
971.6336	2443.6557	1434.45	552.75
971.7629	2445.025	1418	537.1
971.8922	2446.3937	1418.75	537.35
972.0214	2447.7617	1426.2	543.4
972.1506	2449.1289	1425.5	544.6
972.2798	2450.4955	1423.55	537.5
972.4089	2451.8613	1419.25	539.1
972.538	2453.2265	1421.65	541.3
972.6671	2454.5909	1421.8	539.5
972.7961	2455.9546	1421.75	541.95
972.9251	2457.3177	1419.25	539.35
973.0541	2458.68	1419.3	537.65
973.1831	2460.0416	1417.65	537.55
973.312	2461.4025	1423.4	540.2
973.4408	2462.7627	1423.05	529.75
973.5697	2464.1222	1410.95	531.55
973.6985	2465.4811	1417.7	535.6
973.8273	2466.8392	1413.65	531.05
973.956	2468.1966	1412.5	530.05
974.0847	2469.5533	1420.35	535.7
974.2134	2470.9093	1411.15	529.4
974.3421	2472.2645	1414.9	530.35
974.4707	2473.6191	1407.95	527.65
974.5993	2474.973	1410.55	527.5
974.7278	2476.3262	1409.8	527.5
974.8563	2477.6787	1402.6	523.1
974.9848	2479.0305	1399	517.45
975.1132	2480.3816	1396.3	514.1
975.2417	2481.7319	1396.9	514.35
975.37	2483.0816	1397.4	515
975.4984	2484.4306	1399.3	517.1
975.6267	2485.7789	1393.85	513.05
975.755	2487.1264	1390.35	507.05
975.8833	2488.4733	1393.65	513.85
976.0115	2489.8195	1409.4	510.75
976.1397	2491.165	1396.7	512.65
976.2678	2492.5097	1386.9	503.05
976.3959	2493.8538	1382.7	501.35
976.524	2495.1972	1378.4	497.1
976.6521	2496.5398	1388.35	505.25
976.7801	2497.8818	1377.75	495.7
976.9081	2499.2231	1383	499.85
977.036	2500.5637	1373.25	492.4
977.164	2501.9035	1377.9	497.75
977.2918	2503.2427	1378.6	494.65
977.4197	2504.5812	1373.7	492.8
977.5475	2505.919	1378.3	493.75
977.6753	2507.256	1375.15	494.3
977.8031	2508.5924	1369	486.5
977.9308	2509.9281	1380.65	492.2
978.0585	2511.2631	1371.6	491.95
978.1861	2512.5974	1362.05	482.25
978.3137	2513.9309	1360.75	478.35
978.4413	2515.2638	1395.05	482.5
978.5689	2516.596	1361.2	480.3
978.6964	2517.9275	1361.75	479
978.8239	2519.2583	1360	478.45
978.9513	2520.5884	1367.8	484.6
979.0788	2521.9178	1358.55	477.15
979.2062	2523.2465	1351.8	473.25
979.3335	2524.5745	1354	473.15
979.4608	2525.9018	1353.1	472.25
979.5881	2527.2284	1352.5	472.2
979.7154	2528.5543	1354.75	476.2
979.8426	2529.8796	1362.8	480.25
979.9698	2531.2041	1348.35	465.25
980.0969	2532.5279	1354.7	475.55
980.224	2533.851	1346.7	465.15
980.3511	2535.1735	1352.2	472.2
980.4781	2536.4952	1340.8	460.2
980.6052	2537.8163	1348.7	467.55
980.7321	2539.1366	1342.75	462.2
980.8591	2540.4562	1347.25	466.4
980.986	2541.7752	1343.05	463.4
981.1129	2543.0935	1346.9	462.25
981.2397	2544.411	1339.8	458.45
981.3665	2545.7279	1338.65	456.25
981.4933	2547.0441	1346.85	464.8
981.62	2548.3596	1343.8	459.45
981.7467	2549.6744	1339.65	457.35
981.8734	2550.9885	1345.25	463.65
982.0001	2552.3019	1331.45	452.2
982.1267	2553.6146	1340.65	459.3
982.2532	2554.9266	1336.85	454.7
982.3798	2556.2379	1331.2	446.75
982.5063	2557.5485	1331	452.6
982.6327	2558.8585	1336	444.6
982.7592	2560.1677	1329.3	444.45
982.8856	2561.4762	1327.65	445.95
983.0119	2562.7841	1331.5	447.3
983.1383	2564.0913	1317.85	438.45
983.2646	2565.3977	1324.5	442.4
983.3908	2566.7035	1321.95	441.45
983.517	2568.0086	1319.85	436.7
983.6432	2569.313	1325.3	443.3
983.7694	2570.6167	1326.05	442.3
983.8955	2571.9197	1325.25	444.35
984.0216	2573.222	1322.1	436.8
984.1476	2574.5236	1325.35	444.25
984.2737	2575.8246	1322.2	438.05
984.3996	2577.1248	1318.45	435.05
984.5256	2578.4244	1326.45	445.5
984.6515	2579.7232	1318.8	438.4
984.7774	2581.0214	1359.2	439.1
984.9032	2582.3189	1327.4	447.65
985.029	2583.6157	1331.9	444.3
985.1548	2584.9118	1322.85	441.9
985.2806	2586.2072	1322.9	442.15
985.4063	2587.5019	1328	446.55
985.5319	2588.7959	1332.5	451.05
985.6576	2590.0893	1335.35	450.1
985.7832	2591.3819	1331.05	450.65
985.9087	2592.6739	1332	451.5
986.0343	2593.9652	1336.85	454.45
986.1597	2595.2557	1336.65	452.75
986.2852	2596.5456	1337.75	455.35
986.4106	2597.8348	1336.1	454.7
986.536	2599.1234	1334.2	453
986.6614	2600.4112	1344.5	461.65
986.7867	2601.6983	1345.95	461.05
986.912	2602.9848	1344.4	460.75
987.0372	2604.2705	1345.55	458.45
987.1624	2605.5556	1344.15	462.6
987.2876	2606.84	1340.4	459.5
987.4128	2608.1237	1336.65	454.95
987.5379	2609.4067	1338.3	455.3
987.6629	2610.689	1348.2	459.15
987.788	2611.9707	1336.35	452.8
987.913	2613.2516	1336.7	451.45
988.0379	2614.5319	1331.15	451.25
988.1629	2615.8115	1331.25	449.15
988.2878	2617.0903	1333.75	451.65
988.4126	2618.3685	1331.15	449.6
988.5375	2619.6461	1331.4	448.2
988.6622	2620.9229	1328.2	448.15
988.787	2622.199	1336.1	453.9
988.9117	2623.4745	1333.9	453.2
989.0364	2624.7493	1326.15	445.9
989.161	2626.0234	1326	446.35
989.2857	2627.2968	1325.3	444.55
989.4102	2628.5695	1330.75	447.8
989.5348	2629.8415	1325.2	443.05
989.6593	2631.1128	1328.6	444.55
989.7837	2632.3835	1330.2	446.35
989.9082	2633.6535	1329.5	448.15
990.0326	2634.9228	1327.35	445.25
990.1569	2636.1914	1329.3	447.55
990.2812	2637.4593	1330.8	447.95
990.4055	2638.7265	1330.25	446.15
990.5298	2639.9931	1326.6	445
990.654	2641.259	1330.6	448.15
990.7782	2642.5242	1320.95	438.25
990.9023	2643.7887	1319.45	438.25
991.0264	2645.0525	1327.35	444.2
991.1505	2646.3156	1322.65	442.05
991.2745	2647.5781	1323.25	442.7
991.3985	2648.8398	1315.15	435.4
991.5225	2650.1009	1317.95	428.2
991.6464	2651.3613	1311.4	429.55
991.7703	2652.6211	1321.1	440.05
991.8942	2653.8801	1316.15	435.8
992.018	2655.1385	1319.3	433.45
992.1418	2656.3961	1317.5	436.25
992.2655	2657.6531	1317.8	435.5
992.3892	2658.9094	1316.75	435.55
992.5129	2660.1651	1320.15	438.7
992.6366	2661.42	1315.85	432.85
992.7602	2662.6743	1325.55	440.95
992.8837	2663.9279	1325.85	446.2
993.0073	2665.1808	1325.4	441.2
993.1307	2666.433	1329.9	445.95
993.2542	2667.6846	1327.1	444.5
993.3776	2668.9354	1334.75	446.5
993.501	2670.1856	1334.35	450.6
993.6244	2671.4351	1336.8	455.05
993.7477	2672.6839	1341.15	458.25
993.8709	2673.9321	1341.4	459.95
993.9942	2675.1795	1342	461.3
994.1174	2676.4263	1342.95	461.9
994.2405	2677.6724	1346.65	466.25
994.3637	2678.9179	1353.25	473.8
994.4868	2680.1626	1345.7	463.55
994.6098	2681.4067	1347.85	465.55
994.7328	2682.6501	1349.55	466.5
994.8558	2683.8928	1351.4	469.5
994.9788	2685.1348	1342.1	462.35
995.1017	2686.3761	1339.1	458.2
995.2245	2687.6168	1346.4	465.9
995.3474	2688.8568	1338.6	456.5
995.4702	2690.0961	1335.8	456.4
995.5929	2691.3348	1338.6	456.35
995.7156	2692.5727	1332.05	448.8
995.8383	2693.81	1328	447.05
995.961	2695.0466	1326.85	447.45
996.0836	2696.2826	1324.55	441.6
996.2062	2697.5178	1331.95	445.7
996.3287	2698.7524	1329.05	448.6
996.4512	2699.9863	1332.3	447.95
996.5737	2701.2195	1324.35	442.6
996.6961	2702.452	1339.1	456.25
996.8185	2703.6839	1337.6	452.85
996.9408	2704.9151	1344.6	462.7
997.0631	2706.1456	1345.75	464.55
997.1854	2707.3755	1357.95	473.9
997.3077	2708.6046	1360.35	474.9
997.4299	2709.8331	1372.95	491.05
997.552	2711.0609	1382	499.35
997.6742	2712.2881	1385.2	503.3
997.7963	2713.5145	1397.55	515.65
997.9183	2714.7403	1405.45	524.6
998.0403	2715.9654	1419.3	535.95
998.1623	2717.1899	1441	544.55
998.2842	2718.4136	1443.3	563.55
998.4062	2719.6367	1454.15	571.8
998.528	2720.8591	1475.8	585.25
998.6498	2722.0809	1477.8	596.2
998.7716	2723.3019	1484.05	597.65
998.8934	2724.5223	1495.25	613.45
999.0151	2725.7421	1504.65	622.15
999.1368	2726.9611	1506.15	621.15
999.2584	2728.1795	1507.95	621.55
999.38	2729.3972	1497.25	614.9
999.5016	2730.6142	1498.7	604.05
999.6231	2731.8306	1475.6	592.95
999.7446	2733.0462	1461.85	577.75
999.8661	2734.2612	1451.45	563.5
999.9875	2735.4756	1428.9	545.75
1000.1089	2736.6892	1412.4	531.95
1000.2302	2737.9022	1393	511.5
1000.3515	2739.1145	1387.6	506.3
1000.4728	2740.3262	1378.85	487.9
1000.594	2741.5372	1357.2	475.1
1000.7152	2742.7475	1346.2	462
1000.8363	2743.9571	1340.45	457.9
1000.9575	2745.1661	1333.85	447.25
1001.0785	2746.3744	1318.8	436.5
1001.1996	2747.582	1308.7	426.45
1001.3206	2748.7889	1306.25	422.3
1001.4415	2749.9952	1300.75	419.4
1001.5625	2751.2008	1296.25	411.5
1001.6833	2752.4057	1291.65	408.55
1001.8042	2753.61	1287.65	404.25
1001.925	2754.8136	1285.85	402.2
1002.0458	2756.0165	1288.15	406.9
1002.1665	2757.2188	1282.45	401.85
1002.2872	2758.4204	1287.35	404.45
1002.4078	2759.6213	1286	401.1
1002.5285	2760.8215	1294.2	407.2
1002.649	2762.0211	1286.7	400.55
1002.7696	2763.22	1284.35	398.15
1002.8901	2764.4182	1283.05	400
1003.0106	2765.6158	1274.1	390.95
1003.131	2766.8127	1279.55	398.55
1003.2514	2768.009	1274.95	393.95
1003.3717	2769.2045	1276.65	391.3
1003.492	2770.3994	1271.25	387.1
1003.6123	2771.5936	1265.05	383.8
1003.7325	2772.7872	1262.95	382.25
1003.8527	2773.9801	1264.75	380.2
1003.9729	2775.1723	1284.5	383.85
1004.093	2776.3639	1264.05	383.75
1004.2131	2777.5548	1268.65	383.4
1004.3331	2778.745	1265.05	381.3
1004.4531	2779.9346	1265.45	383.15
1004.5731	2781.1235	1279.65	396.7
1004.693	2782.3117	1279	396.1
1004.8129	2783.4992	1285.6	404.45
1004.9328	2784.6861	1287.65	405.25
1005.0526	2785.8723	1293.3	410.9
1005.1723	2787.0579	1304.4	422.35
1005.2921	2788.2428	1308.3	425.7
1005.4118	2789.427	1318.9	438.2
1005.5314	2790.6106	1334.05	453.45
1005.651	2791.7935	1337.6	453.45
1005.7706	2792.9757	1357.2	476.45
1005.8902	2794.1573	1376.3	489.4
1006.0097	2795.3382	1387.05	506.9
1006.1291	2796.5184	1397.95	516.8
1006.2485	2797.698	1427.7	543.3
1006.3679	2798.8769	1439.25	557.05
1006.4873	2800.0551	1457.55	576.75
1006.6066	2801.2327	1477.45	593.6
1006.7258	2802.4096	1499.55	618.95
1006.8451	2803.5859	1518.8	635.9
1006.9642	2804.7615	1537.4	653.8
1007.0834	2805.9364	1562	681.75
1007.2025	2807.1106	1598.1	715.6
1007.3216	2808.2842	1635.25	753.7
1007.4406	2809.4572	1661.4	779.95
1007.5596	2810.6294	1711.55	826.85
1007.6785	2811.801	1738.2	856.15
1007.7975	2812.972	1784.15	903.4
1007.9163	2814.1423	1829.25	948.8
1008.0352	2815.3119	1878.85	997.6
1008.154	2816.4808	1934.5	1053.8
1008.2727	2817.6491	1976.45	1094
1008.3914	2818.8167	2031.7	1148.95
1008.5101	2819.9837	2077	1190.45
1008.6288	2821.15	2125.05	1243
1008.7474	2822.3157	2173.9	1294
1008.8659	2823.4807	2219.55	1335.2
1008.9844	2824.645	2270.45	1387.6
1009.1029	2825.8086	2311.1	1430.4
1009.2214	2826.9716	2338.1	1457.6
1009.3398	2828.134	2387.6	1506.3
1009.4581	2829.2957	2420.35	1538.5
1009.5764	2830.4567	2460.5	1579.8
1009.6947	2831.617	2469.55	1586.6
1009.813	2832.7767	2482.05	1601.1
1009.9312	2833.9358	2476.5	1595.9
1010.0493	2835.0941	2485.8	1604.55
1010.1675	2836.2519	2469.7	1587.05
1010.2855	2837.4089	2454.8	1571.75
1010.4036	2838.5653	2452.95	1570.65
1010.5216	2839.7211	2443.85	1562.55
1010.6396	2840.8761	2463.45	1580
1010.7575	2842.0306	2482.1	1601.95
1010.8754	2843.1843	2515.4	1634.75
1010.9932	2844.3374	2559.75	1678.15
1011.111	2845.4899	2624.55	1741.4
1011.2288	2846.6417	2691.05	1809.25
1011.3465	2847.7928	2772.9	1892.1
1011.4642	2848.9433	2860.35	1978.45
1011.5818	2850.0931	2949.85	2069.05
1011.6995	2851.2422	3025.5	2142.35
1011.817	2852.3907	3101.05	2216.9
1011.9345	2853.5385	3181.65	2298.8
1012.052	2854.6857	3257.9	2348.8
1012.1695	2855.8323	3293.4	2411.4
1012.2869	2856.9781	3329.85	2449.5
1012.4042	2858.1233	3392.25	2511
1012.5216	2859.2679	3444.7	2563.5
1012.6389	2860.4118	3482.65	2600.6
1012.7561	2861.555	3540.5	2652.85
1012.8733	2862.6976	3574.25	2688.9
1012.9905	2863.8395	3605.25	2724.95
1013.1076	2864.9808	3634.8	2753.75
1013.2247	2866.1214	3631.3	2748.65
1013.3417	2867.2614	3669.15	2787.4
1013.4587	2868.4007	3669	2786.55
1013.5757	2869.5393	3673	2789.75
1013.6926	2870.6773	3695.25	2810.65
1013.8095	2871.8146	3715.05	2829.9
1013.9263	2872.9513	3712.45	2829.35
1014.0431	2874.0874	3721.05	2840.35
1014.1599	2875.2227	3725.25	2842
1014.2766	2876.3574	3692.7	2811.25
1014.3933	2877.4915	3684.35	2803.75
1014.51	2878.6249	3644.35	2761.45
1014.6266	2879.7577	3635.15	2751.6
1014.7431	2880.8898	3623.15	2728.95
1014.8596	2882.0212	3588.25	2707
1014.9761	2883.152	3567.65	2686.9
1015.0925	2884.2821	3562.35	2681.9
1015.2089	2885.4116	3553.55	2674
1015.3253	2886.5405	3556.95	2675.15
1015.4416	2887.6686	3570.5	2685.8
1015.5579	2888.7962	3569.85	2687.7
1015.6741	2889.923	3578.45	2697.95
1015.7903	2891.0493	3592.3	2712
1015.9065	2892.1748	3595.9	2713.5
1016.0226	2893.2997	3605.85	2722.45
1016.1387	2894.424	3629.8	2749.15
1016.2547	2895.5476	3645.4	2762.9
1016.3707	2896.6706	3682	2801.65
1016.4866	2897.7929	3696.7	2812.5
1016.6025	2898.9145	3719.3	2837.05
1016.7184	2900.0355	3762.05	2878.45
1016.8342	2901.1559	3792.55	2907.65
1016.95	2902.2756	3839.8	2958.3
1017.0658	2903.3946	3863.35	2981.9
1017.1815	2904.513	3894.5	3011.05
1017.2971	2905.6308	3912.95	3031.25
1017.4127	2906.7479	3945.8	3063
1017.5283	2907.8643	3978.05	3097.65
1017.6439	2908.9801	3985.05	3103.8
1017.7594	2910.0953	4003.3	3123.65
1017.8748	2911.2098	4002.5	3117.4
1017.9902	2912.3236	4017.15	3127.2
1018.1056	2913.4368	3995.2	3109.95
1018.2209	2914.5494	3974.6	3093.95
1018.3362	2915.6613	3947.65	3059.9
1018.4515	2916.7725	3927.2	3043.85
1018.5667	2917.8831	3906.25	3023.35
1018.6819	2918.9931	3872	2986.55
1018.797	2920.1024	3849.45	2966.15
1018.9121	2921.211	3818.3	2936.6
1019.0271	2922.319	3784.45	2903.7
1019.1421	2923.4264	3777.85	2895.85
1019.2571	2924.5331	3767.4	2886.8
1019.372	2925.6391	3745.05	2864.1
1019.4869	2926.7445	3750.7	2870.55
1019.6017	2927.8493	3714.4	2832.7
1019.7165	2928.9534	3732.25	2850.7
1019.8313	2930.0569	3707.3	2819.75
1019.946	2931.1597	3700.9	2818.4
1020.0606	2932.2619	3690.35	2809.7
1020.1753	2933.3634	3680.85	2799.05
1020.2899	2934.4643	3694.05	2805.35
1020.4044	2935.5645	3668.35	2782.1
1020.5189	2936.6641	3635.6	2750.6
1020.6334	2937.763	3570.75	2688.75
1020.7478	2938.8613	3527.15	2645.05
1020.8622	2939.959	3473.35	2586
1020.9765	2941.056	3387	2506.4
1021.0908	2942.1523	3308.4	2424.2
1021.2051	2943.248	3228.75	2346.25
1021.3193	2944.3431	3134.8	2255.95
1021.4334	2945.4375	3009.55	2127.35
1021.5476	2946.5313	2916.45	2034.25
1021.6617	2947.6244	2810.9	1928.15
1021.7757	2948.7169	2713.55	1830.2
1021.8897	2949.8087	2610	1729.15
1022.0037	2950.8999	2516.6	1635.4
1022.1176	2951.9904	2425.15	1544.4
1022.2315	2953.0803	2355.3	1472.55
1022.3453	2954.1696	2292.6	1411.25
1022.4591	2955.2582	2235.95	1354.85
1022.5728	2956.3462	2183.2	1298.9
1022.6865	2957.4335	2141.45	1257.55
1022.8002	2958.5202	2107.95	1224.9
1022.9138	2959.6062	2076.65	1194.3
1023.0274	2960.6916	2050.85	1171.65
1023.141	2961.7764	2049.2	1166.3
1023.2545	2962.8605	2014.8	1132.3
1023.3679	2963.9439	2001.45	1119.15
1023.4813	2965.0267	1989.5	1106.5
1023.5947	2966.1089	1998.45	1092.5
1023.708	2967.1905	1983.9	1101.1
1023.8213	2968.2714	1968.05	1085.85
1023.9346	2969.3516	1979.45	1099.6
1024.0478	2970.4312	1988	1099.05
1024.1609	2971.5102	1969.05	1087.45
1024.274	2972.5885	1975.95	1093.3
1024.3871	2973.6662	1987.3	1099.75
1024.5002	2974.7432	1976.4	1098.05
1024.6132	2975.8196	1966.5	1085.05
1024.7261	2976.8954	1961.15	1079.95
1024.839	2977.9705	1952.4	1071.4
1024.9519	2979.045	1927.55	1047.8
1025.0647	2980.1188	1918.2	1036.15
1025.1775	2981.192	1896.25	1014.6
1025.2902	2982.2645	1877.9	995.85
1025.4029	2983.3364	1840.7	956.35
1025.5156	2984.4077	1819.35	937.3
1025.6282	2985.4783	1787.35	898.45
1025.7407	2986.5483	1756.5	873.25
1025.8532	2987.6177	1721.95	840.85
1025.9657	2988.6864	1688.75	806.9
1026.0782	2989.7545	1646.8	762.85
1026.1906	2990.8219	1622.85	742.2
1026.3029	2991.8887	1593.85	708.9
1026.4152	2992.9548	1553	672.15
1026.5275	2994.0204	1525.4	643.9
1026.6397	2995.0852	1497.5	615.9
1026.7519	2996.1495	1474.7	593.3
1026.864	2997.2131	1447.45	565.3
1026.9761	2998.276	1427.3	543.25
1027.0882	2999.3383	1404.9	522.2
1027.2002	3000.4	1393.85	511.55
1027.3122	3001.4611	1381.15	502
1027.4241	3002.5215	1361.05	478.7
1027.536	3003.5812	1351.15	469.15
1027.6478	3004.6404	1334.5	454.8
1027.7596	3005.6989	1333.75	448.8
1027.8714	3006.7567	1313.65	433.15
1027.9831	3007.8139	1338.65	436.35
1028.0947	3008.8705	1305.2	424.35
1028.2064	3009.9264	1300.65	415.75
1028.3179	3010.9818	1302.4	421.85
1028.4295	3012.0364	1291.85	409.6
1028.541	3013.0905	1291.85	409.2
1028.6524	3014.1439	1288.1	405.4
1028.7638	3015.1966	1285.45	404.85
1028.8752	3016.2487	1283.2	400.55
1028.9865	3017.3002	1289.45	404.85
1029.0978	3018.3511	1289.15	410.2
1029.209	3019.4013	1288.35	407
1029.3202	3020.4509	1288.6	407.1
1029.4314	3021.4998	1288.95	406.4
1029.5425	3022.5481	1289.95	407.9
1029.6535	3023.5958	1289.9	409.05
1029.7645	3024.6428	1290.15	405.1
1029.8755	3025.6892	1294.15	412.85
1029.9864	3026.735	1297.05	415.85
1030.0973	3027.7802	1299.05	416.35
1030.2082	3028.8247	1298.55	417
1030.319	3029.8685	1306.3	424.75
1030.4297	3030.9118	1314.15	434.15
1030.5404	3031.9544	1314.7	433.75
1030.6511	3032.9963	1322.35	441.35
1030.7617	3034.0376	1324.15	444.3
1030.8723	3035.0783	1331.15	446.55
1030.9829	3036.1184	1334.95	451.9
1031.0934	3037.1578	1333.7	452.6
1031.2038	3038.1966	1339.5	456
1031.3142	3039.2348	1343.05	463.85
1031.4246	3040.2723	1355.3	464.1
1031.5349	3041.3092	1337.75	458.15
1031.6452	3042.3455	1337.9	455.25
1031.7554	3043.3811	1342.4	462.1
1031.8656	3044.4161	1340.65	458.9
1031.9758	3045.4505	1328.15	445.65
1032.0859	3046.4842	1322.75	443.2
1032.1959	3047.5173	1318.05	436.2
1032.3059	3048.5498	1305.8	424.25
1032.4159	3049.5816	1303.85	422.85
1032.5258	3050.6128	1293.7	410.25
1032.6357	3051.6434	1292.85	409.35
1032.7455	3052.6734	1282.85	399.55
1032.8553	3053.7027	1278.15	398.05
1032.9651	3054.7314	1268.55	389
1033.0748	3055.7594	1259.7	378.7
1033.1845	3056.7868	1259.4	378.3
1033.2941	3057.8136	1250.7	368.4
1033.4037	3058.8398	1241.65	361.5
1033.5132	3059.8653	1243	360.65
1033.6227	3060.8902	1240.65	361.2
1033.7321	3061.9145	1234.55	353.35
1033.8415	3062.9381	1226.1	342.65
1033.9509	3063.9612	1239.5	343.45
1034.0602	3064.9835	1215.7	333.75
1034.1694	3066.0053	1210.5	326.9
1034.2787	3067.0264	1204.45	322.5
1034.3878	3068.0469	1197.9	315.1
1034.497	3069.0668	1185.3	301.6
1034.6061	3070.086	1174.25	294.9
1034.7151	3071.1046	1172.5	289.3
1034.8241	3072.1226	1165.5	284.25
1034.9331	3073.1399	1151.6	270.25
1035.042	3074.1567	1142.9	262.1
1035.1508	3075.1727	1140	257.9
1035.2597	3076.1882	1123.15	242.25
1035.3684	3077.203	1112.55	230.35
1035.4772	3078.2173	1109.8	227
1035.5859	3079.2308	1099.15	216.15
1035.6945	3080.2438	1090.8	208.9
1035.8031	3081.2561	1086.65	203.15
1035.9117	3082.2678	1076.7	195
1036.0202	3083.2789	1071.15	190.65
1036.1286	3084.2893	1066.7	185.35
1036.2371	3085.2991	1060.6	178.3
1036.3454	3086.3083	1059	174.45
1036.4538	3087.3169	1049.8	167.55
1036.562	3088.3248	1049.75	168
1036.6703	3089.3321	1045.6	162.5
1036.7785	3090.3388	1032.65	152.75
1036.8866	3091.3449	1034.15	151.85
1036.9948	3092.3503	1030.15	146.7
1037.1028	3093.3551	1023.3	146.2
1037.2108	3094.3593	1022.3	143.4
1037.3188	3095.3629	1021.5	141.5
1037.4267	3096.3658	1017.6	134.5
1037.5346	3097.3681	1014.75	133.4
1037.6425	3098.3698	1008.4	126.1
1037.7503	3099.3708	1014.1	127.35
1037.858	3100.3713	1005	125.15
1037.9657	3101.3711	1006.55	123.35
1038.0734	3102.3702	1146	121.35
1038.181	3103.3688	1002.05	119
1038.2886	3104.3667	1001.9	120.4
1038.3961	3105.364	995.1	113.4
1038.5036	3106.3607	998.95	117.25
1038.611	3107.3568	998.15	115.6
1038.7184	3108.3522	990.5	110.95
1038.8257	3109.347	996.2	111.3
1038.933	3110.3412	997.1	110.8
1039.0403	3111.3348	987.45	106.3
1039.1475	3112.3277	990.2	109.6
1039.2547	3113.32	988.95	107.3
1039.3618	3114.3117	987.6	104.3
1039.4689	3115.3028	985.8	104.45
1039.5759	3116.2932	985.3	101.6
1039.6829	3117.2831	991.75	106.7
1039.7898	3118.2723	983.15	103.3
1039.8967	3119.2608	984.3	103.4
1040.0035	3120.2488	980.15	100.15
1040.1103	3121.2361	978.55	98.35
1040.2171	3122.2229	980.25	97.3
1040.3238	3123.209	977.8	95.05
1040.4305	3124.1944	977.4	95.8
1040.5371	3125.1793	979.55	96
1040.6437	3126.1635	974.45	94
1040.7502	3127.1471	974	93.75
1040.8567	3128.1301	971.65	92.35
1040.9631	3129.1125	973	92.3
1041.0695	3130.0942	971.9	90.5
1041.1759	3131.0753	980.3	90.95
1041.2822	3132.0558	973.45	89.4
1041.3884	3133.0357	968.1	86.7
1041.4946	3134.015	966.8	85.75
1041.6008	3134.9936	968.6	86.35
1041.7069	3135.9716	987.8	85.7
1041.813	3136.949	965.9	83.6
1041.919	3137.9258	982.85	82.7
1042.025	3138.902	969.65	84.15
1042.1309	3139.8775	960.85	80.55
1042.2368	3140.8524	960.6	80.95
1042.3427	3141.8267	963.05	79.05
1042.4485	3142.8004	961.65	78.75
1042.5542	3143.7735	966.95	78.95
1042.6599	3144.7459	962.25	79.2
1042.7656	3145.7178	960.25	80.5
1042.8712	3146.689	956	77.2
1042.9768	3147.6596	957.15	72.75
1043.0823	3148.6295	956.1	74.35
1043.1878	3149.5989	954.75	72.75
1043.2932	3150.5676	953.2	73.9
1043.3986	3151.5357	951.15	71.7
1043.5039	3152.5032	948.9	71.6
1043.6092	3153.4701	948.75	69.35
1043.7145	3154.4364	952.65	70.05
1043.8197	3155.402	950	70.4
1043.9248	3156.367	954.95	69.65
1044.03	3157.3315	993.1	70
1044.135	3158.2952	948.85	68.4
1044.24	3159.2584	945.3	64
1044.345	3160.221	946.8	63.55
1044.4499	3161.1829	945.35	64.1
1044.5548	3162.1442	947.1	66.1
1044.6596	3163.105	943	62.7
1044.7644	3164.065	946	66.1
1044.8692	3165.0245	945.75	62.1
1044.9739	3165.9834	941	62.25
1045.0785	3166.9416	944.45	64.25
1045.1831	3167.8993	944.25	63.65
1045.2877	3168.8563	942.75	61.85
1045.3922	3169.8127	940.65	62.3
1045.4966	3170.7684	937	54.45
1045.6011	3171.7236	942.75	60.95
1045.7054	3172.6782	939.7	57.3
1045.8098	3173.6321	941.55	59.9
1045.914	3174.5854	945.5	58.75
1046.0183	3175.5381	936.2	54.15
1046.1224	3176.4902	937.25	56.35
1046.2266	3177.4417	935.5	54.85
1046.3307	3178.3926	935.25	53.1
1046.4347	3179.3428	936.3	56.75
1046.5387	3180.2924	937.15	57.15
1046.6427	3181.2415	934.9	54.65
1046.7466	3182.1899	936.5	54.75
1046.8504	3183.1377	934.5	53.2
1046.9542	3184.0848	940.2	56.6
1047.058	3185.0314	935.4	55.95
1047.1617	3185.9773	937.3	54.35
1047.2654	3186.9227	939.8	55.85
1047.369	3187.8674	934.15	52.65
1047.4726	3188.8115	938.35	53.65
1047.5761	3189.755	931.55	50.8
1047.6796	3190.6979	931.85	51.55
1047.783	3191.6402	932.4	51.45
1047.8864	3192.5818	932.75	51.6
1047.9898	3193.5229	953.1	53.4
1048.0931	3194.4633	932.3	51.6
1048.1963	3195.4031	932.65	51.2
1048.2995	3196.3423	929.8	49.05
1048.4027	3197.2809	929.45	49.1
1048.5058	3198.2189	930.45	48.95
1048.6089	3199.1563	949.15	52.3
1048.7119	3200.0931	930.95	50.15
1048.8148	3201.0292	930.8	49.8
1048.9178	3201.9648	929	49.5
1049.0206	3202.8997	934.4	50.7
1049.1235	3203.834	928.55	46.35
1049.2262	3204.7677	928.7	47.55
1049.329	3205.7008	927.8	48.15
1049.4317	3206.6333	927.35	47.3
1049.5343	3207.5652	928.65	45
1049.6369	3208.4964	928.4	47.35
1049.7394	3209.4271	923.6	42.95
1049.8419	3210.3571	922.45	42.8
1049.9444	3211.2865	928.1	46.15
1050.0468	3212.2154	928.15	47.95
1050.1491	3213.1436	929.35	45.85
1050.2514	3214.0712	933.1	44.65
1050.3537	3214.9982	927.25	45.65
1050.4559	3215.9246	926.05	44.15
1050.5581	3216.8503	922.8	43.55
1050.6602	3217.7755	921.75	40.9
1050.7623	3218.7001	925.05	44.15
1050.8643	3219.624	923.7	41.4
1050.9663	3220.5473	924.65	44.9
1051.0682	3221.4701	926.55	44.1
1051.1701	3222.3922	925.6	43.55
1051.2719	3223.3137	923.25	41.55
1051.3737	3224.2346	921.2	40.8
1051.4754	3225.1549	923.2	42.9
1051.5771	3226.0746	925.35	46.4
1051.6788	3226.9937	922.65	43.2
1051.7804	3227.9121	923	43.85
1051.8819	3228.83	920.2	41.25
1051.9834	3229.7473	921.2	37.6
1052.0849	3230.6639	922.1	42.05
1052.1863	3231.5799	924.2	43.8
1052.2876	3232.4954	921.65	40.3
1052.3889	3233.4102	920.65	40.75
1052.4902	3234.3244	926	43.25
1052.5914	3235.238	919.35	39.15
1052.6926	3236.151	944.35	38.55
1052.7937	3237.0634	919.85	39.65
1052.8948	3237.9752	921.15	39.55
1052.9958	3238.8864	920.6	40.35
1053.0968	3239.797	921.3	41.05
1053.1977	3240.7069	921.6	39.1
1053.2986	3241.6163	921.25	41.2
1053.3994	3242.5251	920.05	41.7
1053.5002	3243.4332	916.9	36.95
1053.6009	3244.3408	919.1	38.5
1053.7016	3245.2477	919.9	39.65
1053.8022	3246.154	920.2	38.7
1053.9028	3247.0598	917.2	37.2
1054.0034	3247.9649	913.05	31.8
1054.1039	3248.8694	915.25	35.55
1054.2043	3249.7733	915.45	35.3
1054.3047	3250.6766	916.1	36.4
1054.4051	3251.5793	917.4	34.5
1054.5054	3252.4814	913.65	35
1054.6056	3253.3829	913.2	31.65
1054.7058	3254.2838	914.75	36.1
1054.806	3255.1841	911.85	30.4
1054.9061	3256.0838	913.25	33.7
1055.0061	3256.9829	914.25	35
1055.1062	3257.8814	916.5	33.35
1055.2061	3258.7792	911.05	28.5
1055.306	3259.6765	912.7	31.55
1055.4059	3260.5731	911.1	31.3
1055.5057	3261.4692	911.6	31.4
1055.6055	3262.3647	911.3	29.35
1055.7052	3263.2595	910.9	32.75
1055.8049	3264.1538	908.75	27.9
1055.9045	3265.0474	907.7	24.9
1056.0041	3265.9404	909.45	31.85
1056.1036	3266.8329	909.7	28.6
1056.2031	3267.7247	917.15	26.35
1056.3025	3268.616	904.95	26.6
1056.4019	3269.5066	905.1	23.8
1056.5013	3270.3966	907.75	24.75
1056.6005	3271.286	902.85	23.2
