Software Version:	3.9.2.0
Unit SN:	10000200
Spectrometer SN:	6960
Date:	3/14/2024 12:50:15 PM
Data Line Index:	25
Spectral Points:	2048
Integration time (ms):	125
Averages:	20
Delay (ms):	30000
Sequence Number:	1
Processing:	dark subtract
Laser Power (mW):	300
Laser Current (mA):	823
Laser Diode Temp (C):	25
Laser Case Temp (C):	27.6
System Temp (C):	27.6
Spectrometer Temp (C):	25.4
CCD Temp (C):	0.005
Secondary Temp (C):	20.008
Heatsink Temp (C):	23.471
CCDPCB Temp (C):	37.096
SecondaryPCB Temp (C):	34.528

Wavelength	RamanShift	Raw Counts	Dark Subtracted
787.061	30.1047	418.15	5.05
787.2016	32.3739	418.3	6.5
787.3422	34.6426	417.35	3.3
787.4828	36.9109	422.9	7.75
787.6235	39.1787	424.55	4.65
787.7642	41.4461	429.45	6.15
787.9049	43.7131	433.85	8.8
788.0456	45.9796	437.5	8.2
788.1863	48.2456	443.35	9.85
788.3271	50.5112	446.85	8.45
788.4679	52.7764	448.35	10.5
788.6087	55.0411	451.3	9.15
788.7496	57.3054	458.6	13
788.8904	59.5692	461.9	12.1
789.0313	61.8326	469.7	14.85
789.1722	64.0955	473.35	16.4
789.3132	66.3579	480.8	18.65
789.4541	68.6199	484.8	19.05
789.5951	70.8815	494.3	25.85
789.7361	73.1426	508.25	35.9
789.8771	75.4032	535.9	61.45
790.0181	77.6634	598.15	117.55
790.1592	79.9231	732.35	245.85
790.3003	82.1824	1027.65	537.05
790.4414	84.4412	1517.25	1019.85
790.5825	86.6995	2168.15	1657.6
790.7237	88.9574	2794.9	2277.65
790.8648	91.2148	3248.7	2726.35
791.006	93.4717	3475.85	2946.25
791.1472	95.7282	3519.55	2988.65
791.2885	97.9842	3531.25	2995.3
791.4297	100.2398	3519.5	2980.5
791.571	102.4949	3491.35	2951
791.7123	104.7495	3487.4	2941.05
791.8536	107.0036	3459.8	2911.7
791.9949	109.2573	3408.6	2865.65
792.1363	111.5105	3352.45	2804.85
792.2777	113.7632	3301.75	2751.65
792.4191	116.0154	3256.85	2699.1
792.5605	118.2672	3198.1	2643.7
792.7019	120.5185	3132.45	2576.45
792.8434	122.7693	3085.95	2531.4
792.9849	125.0197	3025.65	2466.45
793.1264	127.2696	2993.05	2431.5
793.2679	129.519	2970.95	2405.9
793.4094	131.7679	2951.05	2383.45
793.551	134.0163	2948.55	2376.95
793.6926	136.2642	2932.5	2354.95
793.8342	138.5117	2936.9	2357.55
793.9758	140.7587	2917.55	2338.65
794.1175	143.0052	2896.35	2310.95
794.2591	145.2512	2850.3	2268.2
794.4008	147.4967	2821.6	2237.7
794.5425	149.7417	2799.95	2214
794.6842	151.9863	2774.05	2185.25
794.826	154.2304	2781.8	2188.95
794.9677	156.4739	2758.25	2160.2
795.1095	158.717	2771.75	2175.15
795.2513	160.9596	2775.85	2171.6
795.3931	163.2017	2795.95	2190.75
795.535	165.4433	2800.75	2193.65
795.6768	167.6844	2783	2174.25
795.8187	169.925	2771.55	2158.4
795.9606	172.1651	2735.75	2121.4
796.1025	174.4047	2713.75	2093.4
796.2445	176.6439	2690	2070.25
796.3864	178.8825	2658.9	2034.3
796.5284	181.1206	2663.8	2036.45
796.6704	183.3582	2657.65	2025.75
796.8124	185.5954	2651.3	2019.65
796.9544	187.832	2646.2	2011.2
797.0965	190.0681	2643.55	2004.15
797.2386	192.3037	2654.1	2013
797.3806	194.5388	2644.5	1999.95
797.5228	196.7734	2650.1	2004.55
797.6649	199.0075	2664.95	2014.1
797.807	201.2411	2687.45	2035
797.9492	203.4742	2691.9	2040.6
798.0914	205.7068	2704.2	2049.95
798.2336	207.9389	2716.9	2063.45
798.3758	210.1704	2729.4	2071.7
798.518	212.4015	2735.3	2072.3
798.6603	214.632	2734.45	2076.55
798.8025	216.862	2719.45	2063.5
798.9448	219.0915	2710.3	2062.15
799.0871	221.3205	2714.2	2068.3
799.2294	223.549	2703.5	2063.1
799.3718	225.777	2715.1	2075.75
799.5141	228.0044	2698.95	2056.05
799.6565	230.2314	2688.8	2047.7
799.7989	232.4578	2686.5	2043.15
799.9413	234.6837	2678.2	2026.3
800.0837	236.909	2673.15	2022.95
800.2262	239.1339	2682.3	2005.75
800.3687	241.3582	2665.9	2007.4
800.5111	243.582	2681.2	1995.55
800.6536	245.8053	2684.85	2002.65
800.7961	248.0281	2673.65	1997.8
800.9387	250.2503	2680.3	2001.3
801.0812	252.472	2690.3	2003.3
801.2238	254.6932	2687.75	1998.7
801.3664	256.9139	2681.55	1992.6
801.509	259.134	2699.65	2008.75
801.6516	261.3536	2702.95	2013.3
801.7942	263.5727	2720.85	2028.15
801.9369	265.7912	2734.95	2042.7
802.0795	268.0092	2774.6	2079.8
802.2222	270.2267	2792.05	2096
802.3649	272.4436	2831.45	2137.85
802.5076	274.6601	2845.05	2143.05
802.6504	276.8759	2861.8	2163.15
802.7931	279.0913	2859.55	2162.05
802.9359	281.3061	2871.35	2171.15
803.0787	283.5204	2877.7	2172.65
803.2215	285.7341	2897.2	2190.85
803.3643	287.9473	2917.25	2204.6
803.5071	290.16	2908.75	2193.6
803.6499	292.3721	2876.55	2167.3
803.7928	294.5837	2844.45	2133.45
803.9357	296.7947	2820.45	2111.35
804.0786	299.0052	2815.35	2104.05
804.2215	301.2152	2796.25	2082.1
804.3644	303.4246	2790.95	2080.75
804.5074	305.6334	2781.9	2069.1
804.6503	307.8418	2781.35	2067
804.7933	310.0495	2750.95	2035.65
804.9363	312.2568	2711.95	1995.95
805.0793	314.4635	2688.95	1974.15
805.2223	316.6696	2662.35	1943.7
805.3653	318.8752	2636.45	1910.65
805.5084	321.0802	2600.3	1883.6
805.6514	323.2847	2605.4	1884.3
805.7945	325.4887	2605.2	1884.5
805.9376	327.692	2608.4	1886.05
806.0807	329.8949	2623.65	1901.1
806.2238	332.0972	2640.15	1914.45
806.367	334.2989	2671.65	1942.05
806.5101	336.5001	2658.4	1928.7
806.6533	338.7007	2648.15	1918.55
806.7965	340.9008	2613.75	1883.6
806.9397	343.1003	2585.15	1851.4
807.0829	345.2992	2542.6	1806.9
807.2261	347.4976	2508.25	1770
807.3693	349.6955	2506.2	1765.45
807.5126	351.8927	2488.4	1747.75
807.6559	354.0895	2481.3	1729.75
807.7991	356.2856	2472.4	1728.9
807.9424	358.4812	2446.5	1705.3
808.0857	360.6763	2453.55	1709.45
808.2291	362.8707	2446.7	1703.4
808.3724	365.0646	2456.7	1708.55
808.5158	367.258	2451.8	1702.35
808.6591	369.4508	2453.75	1700.85
808.8025	371.643	2471.65	1720.35
808.9459	373.8346	2479.9	1724.25
809.0893	376.0257	2505.2	1747
809.2327	378.2162	2519.1	1762.25
809.3762	380.4062	2521.6	1760.6
809.5196	382.5956	2509.85	1747.95
809.6631	384.7844	2482.55	1719.2
809.8066	386.9726	2459.25	1694.7
809.9501	389.1603	2436.4	1672.85
810.0936	391.3474	2445.55	1649.85
810.2371	393.5339	2413.65	1648.95
810.3806	395.7199	2403.45	1644.15
810.5241	397.9052	2414.8	1659.85
810.6677	400.09	2428.3	1672.75
810.8113	402.2743	2457.95	1702.85
810.9548	404.4579	2478.25	1723.2
811.0984	406.641	2500.65	1743.35
811.2421	408.8235	2527.35	1769.75
811.3857	411.0054	2565.3	1806.5
811.5293	413.1868	2621.65	1860.4
811.673	415.3675	2699.2	1935.5
811.8166	417.5477	2718.9	1955.4
811.9603	419.7273	2646.15	1878.7
812.104	421.9064	2554.15	1782.25
812.2477	424.0848	2504.7	1734.9
812.3914	426.2627	2458.7	1686.45
812.5351	428.4399	2424	1649.5
812.6788	430.6166	2388.3	1609.55
812.8226	432.7928	2343	1561.8
812.9663	434.9683	2323.1	1542.7
813.1101	437.1432	2311.05	1530.3
813.2539	439.3176	2287.35	1505.25
813.3977	441.4914	2275.35	1493.3
813.5415	443.6645	2277.45	1491.55
813.6853	445.8371	2282.35	1498.5
813.8291	448.0091	2280.75	1495.65
813.973	450.1806	2279.85	1495.5
814.1168	452.3514	2258.05	1469.65
814.2607	454.5216	2258.15	1464.2
814.4046	456.6913	2252.8	1465.05
814.5485	458.8603	2251.2	1462.55
814.6924	461.0288	2254.45	1466.8
814.8363	463.1967	2241.3	1452.55
814.9802	465.3639	2242.6	1450.8
815.1241	467.5306	2233.9	1442.3
815.2681	469.6967	2232.35	1440.55
815.412	471.8622	2225.9	1433.6
815.556	474.0271	2222.8	1431.6
815.7	476.1914	2221.6	1427.7
815.844	478.3551	2221.2	1426.5
815.988	480.5182	2210.05	1415.65
816.132	482.6807	2222.4	1425.1
816.276	484.8426	2225.45	1433.1
816.4201	487.0039	2246.45	1450.8
816.5641	489.1647	2268	1468.3
816.7082	491.3248	2303.15	1506.9
816.8522	493.4843	2312.95	1514.45
816.9963	495.6432	2307.4	1508.6
817.1404	497.8015	2286	1486.4
817.2845	499.9592	2251.7	1453
817.4286	502.1163	2225.7	1426.25
817.5727	504.2728	2200	1397.4
817.7168	506.4287	2175.6	1374.95
817.861	508.5839	2166.15	1363.9
818.0051	510.7386	2167.4	1366.2
818.1493	512.8927	2168.9	1360.05
818.2935	515.0461	2157.9	1356.65
818.4377	517.199	2173.05	1369.2
818.5818	519.3512	2184	1381.5
818.726	521.5029	2230.05	1420
818.8703	523.6539	2256.95	1451.65
819.0145	525.8043	2270.4	1464.7
819.1587	527.9541	2234.4	1425.65
819.303	530.1033	2195.65	1387.3
819.4472	532.2519	2166.65	1360.15
819.5915	534.3999	2154.8	1346.25
819.7357	536.5472	2131.35	1323.4
819.88	538.694	2149.7	1338.65
820.0243	540.8401	2154.75	1345.55
820.1686	542.9856	2166.4	1356.7
820.3129	545.1305	2171.7	1360.4
820.4572	547.2748	2165.7	1354.65
820.6016	549.4185	2177.95	1363.55
820.7459	551.5615	2188.35	1375.9
820.8902	553.704	2198.5	1383.75
821.0346	555.8458	2190.6	1377.75
821.1789	557.987	2204.6	1390.7
821.3233	560.1276	2223.1	1407.3
821.4677	562.2675	2237.95	1423.85
821.6121	564.4069	2290.25	1476.6
821.7565	566.5456	2320.3	1507
821.9009	568.6837	2305.15	1489.45
822.0453	570.8212	2262.75	1446.9
822.1897	572.958	2210.8	1393.15
822.3342	575.0942	2194.15	1379.7
822.4786	577.2299	2175.75	1359.45
822.6231	579.3648	2146.05	1329.25
822.7675	581.4992	2123.35	1305
822.912	583.6329	2135.75	1317.05
823.0565	585.766	2138.1	1320.5
823.201	587.8985	2158.5	1341.35
823.3454	590.0304	2193.85	1362.8
823.4899	592.1616	2205.5	1382
823.6345	594.2922	2205.4	1386.05
823.779	596.4222	2176.05	1353.1
823.9235	598.5515	2141.25	1318.95
824.068	600.6802	2113.8	1294.2
824.2126	602.8083	2083.6	1261.85
824.3571	604.9358	2077.45	1254.35
824.5017	607.0626	2064.75	1241.9
824.6462	609.1888	2072.7	1247.55
824.7908	611.3144	2077.95	1253.1
824.9354	613.4393	2104.35	1279.3
825.08	615.5636	2131.85	1307.8
825.2246	617.6873	2157.25	1332.2
825.3692	619.8103	2168.55	1341.3
825.5138	621.9327	2177.05	1345.7
825.6584	624.0544	2152.55	1324.6
825.803	626.1756	2116.95	1289.2
825.9477	628.2961	2094.05	1266.65
826.0923	630.4159	2070.05	1243.3
826.237	632.5351	2068.75	1240.25
826.3816	634.6537	2067.3	1238.2
826.5263	636.7716	2072.55	1240.95
826.6709	638.8889	2056.85	1225.65
826.8156	641.0056	2046.1	1215.3
826.9603	643.1216	2065.6	1236.05
827.105	645.237	2061.95	1229.25
827.2497	647.3518	2057.5	1225.1
827.3944	649.4659	2038.65	1207.2
827.5391	651.5793	2027.25	1195.95
827.6838	653.6922	2011.2	1180.85
827.8285	655.8043	2008.2	1176.05
827.9733	657.9159	2000.8	1168.55
828.118	660.0268	1995.5	1159.15
828.2627	662.137	1993.55	1156.45
828.4075	664.2466	1995.35	1158.6
828.5522	666.3556	1987.3	1152.6
828.697	668.4639	1983.5	1145.2
828.8418	670.5716	1980.85	1148.35
828.9865	672.6786	1976.05	1139.8
829.1313	674.785	1975.1	1136.1
829.2761	676.8907	1976.6	1137.5
829.4209	678.9958	1959.75	1122.95
829.5657	681.1002	1961.85	1122.95
829.7105	683.204	1969.45	1128.6
829.8553	685.3072	1966.15	1127.85
830.0001	687.4097	1964.75	1127.75
830.1449	689.5115	1958.35	1118.45
830.2898	691.6127	1954.5	1115.05
830.4346	693.7132	1949.5	1107.5
830.5794	695.8131	1966.15	1117.55
830.7243	697.9123	1961.45	1117.85
830.8691	700.0109	1965.8	1124.35
831.014	702.1089	1959.75	1120.85
831.1588	704.2061	1969.45	1127.7
831.3037	706.3028	1976.85	1134.95
831.4486	708.3987	1996.1	1155.15
831.5935	710.4941	1994.35	1153.35
831.7383	712.5887	2002.6	1157.8
831.8832	714.6827	2006.25	1160
832.0281	716.7761	1987.75	1143.35
832.173	718.8688	2002.65	1156.25
832.3179	720.9608	1995.55	1149.2
832.4628	723.0522	2005.85	1160.2
832.6077	725.1429	2013.5	1170.95
832.7527	727.233	2032.45	1187.45
832.8976	729.3224	2079.45	1234.8
833.0425	731.4112	2100.85	1253.7
833.1874	733.4993	2106.8	1258
833.3324	735.5867	2086.2	1238.25
833.4773	737.6735	2041.1	1192.15
833.6222	739.7596	2011.85	1166.1
833.7672	741.845	1991.85	1143.1
833.9122	743.9298	2001.85	1153.8
834.0571	746.014	2006.6	1161.85
834.2021	748.0974	2012.25	1164.85
834.347	750.1802	2030.5	1181.6
834.492	752.2624	2014.35	1167.05
834.637	754.3439	1995.95	1145.95
834.782	756.4247	1992	1133.45
834.9269	758.5048	1977.75	1129.4
835.0719	760.5843	1976.6	1126.9
835.2169	762.6631	1985.7	1135.25
835.3619	764.7413	2027	1179
835.5069	766.8188	2069.8	1217.45
835.6519	768.8956	2118.75	1267.5
835.7969	770.9718	2141.45	1292.65
835.9419	773.0473	2126.15	1276.55
836.0869	775.1221	2116.3	1267.55
836.232	777.1962	2103.45	1253
836.377	779.2697	2132.85	1278.4
836.522	781.3426	2204.3	1339.55
836.667	783.4147	2244.4	1391.55
836.8121	785.4862	2234.8	1385.35
836.9571	787.557	2168.85	1318.1
837.1021	789.6271	2096.05	1241.2
837.2472	791.6966	2017.45	1162.45
837.3922	793.7654	1969.2	1114.7
837.5373	795.8335	1936.7	1083.55
837.6823	797.901	1912.45	1058.4
837.8274	799.9678	1912.6	1057.2
837.9724	802.0339	1913	1061.55
838.1175	804.0993	1911.3	1048.05
838.2626	806.1641	1908.45	1054.9
838.4076	808.2282	1896.7	1043.25
838.5527	810.2916	1880.65	1025.5
838.6978	812.3544	1864.7	1012.9
838.8428	814.4164	1865.15	1009.85
838.9879	816.4778	1877.85	1021.5
839.133	818.5385	1878.4	1024.5
839.2781	820.5986	1887.95	1033.95
839.4232	822.658	1927.2	1071.65
839.5682	824.7166	1947.8	1091.1
839.7133	826.7747	2009.15	1153.9
839.8584	828.832	2048.3	1192.7
840.0035	830.8886	2082.85	1224.55
840.1486	832.9446	2094	1234.3
840.2937	834.9999	2077	1222.05
840.4388	837.0545	2032.25	1170.35
840.5839	839.1085	1983.05	1123.8
840.729	841.1618	1935.55	1073.75
840.8741	843.2143	1911.1	1053.4
841.0192	845.2662	1879.85	1023.95
841.1643	847.3175	1865.4	1008.95
841.3095	849.368	1861.25	1004
841.4546	851.4179	1859.45	1000.6
841.5997	853.467	1863.55	1007.75
841.7448	855.5155	1867.1	1008.55
841.8899	857.5633	1867.35	1006.6
842.0351	859.6105	1867.5	1008.3
842.1802	861.6569	1849.85	992.3
842.3253	863.7027	1850.4	990.9
842.4704	865.7478	1840.55	979.85
842.6156	867.7922	1824.55	963.65
842.7607	869.8359	1823.2	963.05
842.9058	871.8789	1813.1	951.95
843.0509	873.9212	1847.85	954.1
843.1961	875.9629	1828.8	971
843.3412	878.0039	1827.5	966.4
843.4863	880.0441	1837.2	978.95
843.6315	882.0837	1850.45	989.65
843.7766	884.1226	1853.5	991.45
843.9218	886.1609	1879.1	1018.9
844.0669	888.1984	1901.15	1041.9
844.212	890.2352	1925.65	1066.5
844.3572	892.2714	1949.05	1082.2
844.5023	894.3069	1920.1	1057.6
844.6475	896.3416	1898.95	1037.05
844.7926	898.3757	1865.05	1002.4
844.9377	900.4091	1845.9	983.6
845.0829	902.4418	1847.8	981.3
845.228	904.4739	1870.7	1005.9
845.3732	906.5052	1867.55	1003.2
845.5183	908.5358	1861.5	996.85
845.6635	910.5658	1849.55	983.9
845.8086	912.595	1828.15	966.4
845.9538	914.6236	1804.05	941.2
846.0989	916.6515	1786.55	924.15
846.2441	918.6786	1770.3	905.35
846.3892	920.7051	1767.9	903.05
846.5344	922.7309	1782.6	919.2
846.6795	924.756	1762.25	897.05
846.8246	926.7804	1771.35	905.7
846.9698	928.8041	1783.7	916.55
847.1149	930.8272	1779.65	913.85
847.2601	932.8495	1784.9	919.35
847.4052	934.8711	1787.05	922.25
847.5504	936.892	1791.7	927.05
847.6955	938.9123	1808.25	942.25
847.8407	940.9318	1812.9	947
847.9858	942.9506	1821	955.6
848.131	944.9688	1805.95	939.8
848.2761	946.9862	1804.6	937.4
848.4213	949.003	1766.15	897.9
848.5664	951.019	1757.75	891.95
848.7115	953.0344	1753.35	886.95
848.8567	955.0491	1743.65	878.25
849.0018	957.063	1735.4	869.15
849.147	959.0763	1730.75	864.15
849.2921	961.0888	1728.1	860.1
849.4373	963.1007	1730.95	863.6
849.5824	965.1119	1733	867.3
849.7275	967.1223	1718.3	850.5
849.8727	969.1321	1719.6	854.05
850.0178	971.1412	1716.05	849.7
850.1629	973.1495	1714.65	848.5
850.3081	975.1572	1744.95	838.25
850.4532	977.1641	1710.35	843.05
850.5983	979.1704	1706.15	838.3
850.7435	981.1759	1700.55	829.95
850.8886	983.1808	1700.65	830.55
851.0337	985.1849	1703.1	824
851.1788	987.1884	1689.65	817.5
851.324	989.1911	1697.7	824
851.4691	991.1932	1697.85	828.75
851.6142	993.1945	1696.9	827
851.7593	995.1951	1684.9	816.8
851.9045	997.1951	1691	816.45
852.0496	999.1943	1684.3	817.1
852.1947	1001.1928	1680.75	812.75
852.3398	1003.1906	1683.4	815
852.4849	1005.1877	1699.75	829.4
852.63	1007.1841	1713.55	846.45
852.7751	1009.1798	1717.35	847.05
852.9202	1011.1748	1709.35	840.35
853.0653	1013.1691	1691.85	820.05
853.2104	1015.1627	1679.35	809.1
853.3555	1017.1556	1645.15	773.85
853.5006	1019.1477	1646	773.55
853.6457	1021.1392	1628.85	760
853.7908	1023.1299	1622	751.4
853.9359	1025.12	1627.25	755.75
854.081	1027.1093	1627.7	758
854.2261	1029.0979	1631	763.05
854.3712	1031.0859	1641.7	774.65
854.5163	1033.0731	1649.9	780.15
854.6613	1035.0596	1645.55	774.9
854.8064	1037.0454	1650.75	781
854.9515	1039.0304	1626.4	753.85
855.0965	1041.0148	1619.1	748.45
855.2416	1042.9985	1610.15	737.4
855.3867	1044.9814	1600.6	729.65
855.5317	1046.9636	1595.4	723.05
855.6768	1048.9452	1598.8	729.3
855.8219	1050.926	1606.75	735.3
855.9669	1052.9061	1608.05	736.6
856.112	1054.8855	1621.35	749.8
856.257	1056.8642	1610.5	740.95
856.4021	1058.8421	1608.4	731.55
856.5471	1060.8194	1609.05	736.95
856.6921	1062.7959	1609.85	737.9
856.8372	1064.7717	1610.25	737.85
856.9822	1066.7469	1600.25	725.65
857.1272	1068.7213	1604.3	729.6
857.2723	1070.695	1611.15	736.45
857.4173	1072.6679	1619.4	746.2
857.5623	1074.6402	1625.75	753.85
857.7073	1076.6117	1642.9	764.8
857.8523	1078.5826	1624.4	749.25
857.9973	1080.5527	1599.4	724.35
858.1423	1082.5221	1578.6	705.3
858.2873	1084.4908	1567.8	693.7
858.4323	1086.4587	1555.2	682.15
858.5773	1088.426	1547.05	673.15
858.7223	1090.3925	1545.4	668.4
858.8673	1092.3584	1540.35	666.6
859.0123	1094.3235	1548.45	674.4
859.1573	1096.2879	1566.2	694.8
859.3022	1098.2515	1561.9	688
859.4472	1100.2145	1580.45	706.05
859.5922	1102.1767	1594.05	717.85
859.7371	1104.1382	1612.95	738.45
859.8821	1106.099	1655	779.75
860.027	1108.0591	1666.55	791.95
860.172	1110.0185	1697	822.05
860.3169	1111.9771	1708.55	837.05
860.4619	1113.9351	1738.8	864.3
860.6068	1115.8923	1771.2	897.25
860.7517	1117.8488	1793	912.9
860.8967	1119.8045	1755.15	881.65
861.0416	1121.7596	1702.5	827.05
861.1865	1123.7139	1643.25	768.8
861.3314	1125.6675	1615.25	740.4
861.4763	1127.6204	1613.9	739.4
861.6212	1129.5726	1623.05	747.45
861.7661	1131.524	1621.85	748.95
861.911	1133.4748	1601.55	725.8
862.0559	1135.4248	1560.9	683.85
862.2008	1137.3741	1538.05	664.7
862.3457	1139.3226	1520.15	646
862.4905	1141.2705	1524.15	647
862.6354	1143.2176	1530.6	649.1
862.7803	1145.164	1527.8	651.35
862.9251	1147.1097	1522.1	648.2
863.07	1149.0546	1513.25	635.45
863.2148	1150.9989	1504.2	626.25
863.3597	1152.9424	1492.95	616.15
863.5045	1154.8852	1477.6	601.35
863.6493	1156.8272	1472.8	597.3
863.7942	1158.7686	1482.95	598.35
863.939	1160.7092	1474.95	599.05
864.0838	1162.6491	1473.1	594.2
864.2286	1164.5883	1478.2	604
864.3734	1166.5267	1490	611.55
864.5182	1168.4644	1502.3	623.85
864.663	1170.4014	1513.05	632.1
864.8078	1172.3377	1535.95	661.75
864.9526	1174.2732	1556.55	679.65
865.0974	1176.2081	1603.85	727.7
865.2421	1178.1421	1664.5	783.95
865.3869	1180.0755	1732.7	859.35
865.5317	1182.0082	1767.85	891.3
865.6764	1183.9401	1755.5	878.15
865.8212	1185.8713	1700	825.65
865.9659	1187.8017	1631	752.95
866.1106	1189.7315	1570.6	695.25
866.2554	1191.6605	1554.3	646.8
866.4001	1193.5888	1505	627.3
866.5448	1195.5163	1485.55	609.55
866.6895	1197.4432	1463.55	584.45
866.8342	1199.3693	1463	585.55
866.9789	1201.2947	1454.85	571.75
867.1236	1203.2193	1454	577.85
867.2683	1205.1432	1450.6	573.05
867.413	1207.0664	1442.4	564.9
867.5576	1208.9889	1443.7	562.25
867.7023	1210.9106	1438.95	562.55
867.847	1212.8316	1438.75	561.1
867.9916	1214.7519	1456.5	569.6
868.1363	1216.6715	1450.85	574.7
868.2809	1218.5903	1452.95	575.4
868.4255	1220.5084	1461.2	582.7
868.5701	1222.4257	1469.2	589
868.7148	1224.3424	1476.25	599.4
868.8594	1226.2583	1492.45	609.65
869.004	1228.1735	1494.35	614
869.1486	1230.0879	1513.85	632.4
869.2932	1232.0016	1533.55	654.65
869.4377	1233.9146	1548.4	666.35
869.5823	1235.8269	1558.35	681.05
869.7269	1237.7384	1560.95	681.1
869.8715	1239.6492	1557.3	680
870.016	1241.5592	1567.35	687.65
870.1606	1243.4686	1583.85	705.3
870.3051	1245.3772	1634.25	756.7
870.4496	1247.285	1680.7	799.7
870.5941	1249.1922	1714.1	835
870.7387	1251.0986	1756.95	877.3
870.8832	1253.0042	1787.35	908.4
871.0277	1254.9092	1832	952.5
871.1722	1256.8134	1883.85	1007.55
871.3167	1258.7169	1923.35	1043.75
871.4611	1260.6196	1941.45	1062.35
871.6056	1262.5216	1949.8	1069.1
871.7501	1264.4229	1940.55	1061.65
871.8945	1266.3234	1920.75	1040.35
872.039	1268.2232	1886.8	1007.2
872.1834	1270.1223	1867.6	988.05
872.3278	1272.0207	1849.15	969.45
872.4723	1273.9183	1836.05	949.3
872.6167	1275.8151	1831.75	953.75
872.7611	1277.7113	1858.3	978.5
872.9055	1279.6067	1896.6	1017.6
873.0499	1281.5014	1971.85	1089.2
873.1943	1283.3953	2075.6	1193.3
873.3386	1285.2885	2159.4	1280.2
873.483	1287.181	2237.25	1357.95
873.6274	1289.0727	2265	1386.1
873.7717	1290.9637	2233.45	1351.75
873.9161	1292.854	2188.8	1310.35
874.0604	1294.7435	2125.5	1243.6
874.2047	1296.6323	2068.7	1189.55
874.349	1298.5204	2012.2	1128.1
874.4933	1300.4077	1968.35	1088.25
874.6376	1302.2943	1944.95	1066.3
874.7819	1304.1802	1932.25	1050.7
874.9262	1306.0653	1911.05	1030
875.0705	1307.9497	1880.3	998.15
875.2147	1309.8333	1870.8	990.25
875.359	1311.7162	1852.15	969.3
875.5032	1313.5984	1843.7	960.95
875.6475	1315.4798	1843.55	955.5
875.7917	1317.3605	1838.5	953.75
875.9359	1319.2405	1831.2	950.05
876.0801	1321.1197	1813.45	932.4
876.2243	1322.9982	1789.75	904.7
876.3685	1324.876	1751.3	871.35
876.5127	1326.753	1702.35	821.75
876.6569	1328.6293	1649.5	766.5
876.801	1330.5048	1602.8	721.6
876.9452	1332.3796	1566.85	687.05
877.0893	1334.2537	1559.1	652
877.2335	1336.127	1515.95	634.65
877.3776	1337.9996	1500.6	619.8
877.5217	1339.8714	1489.25	610.6
877.6658	1341.7426	1523.25	599.35
877.8099	1343.6129	1476.3	595.25
877.954	1345.4826	1467.35	584.75
878.0981	1347.3515	1454.9	571.9
878.2422	1349.2196	1449.85	569.1
878.3862	1351.087	1443.45	561.2
878.5303	1352.9537	1439.8	559.9
878.6743	1354.8197	1444.75	564.3
878.8184	1356.6849	1444.6	562.35
878.9624	1358.5493	1456.55	576.2
879.1064	1360.4131	1465.15	584.6
879.2504	1362.276	1482.95	602.15
879.3944	1364.1383	1501.15	622.2
879.5384	1365.9998	1514.1	626.85
879.6823	1367.8606	1510.9	631.55
879.8263	1369.7206	1499.1	616.95
879.9702	1371.5799	1492.75	604.8
880.1142	1373.4384	1492.45	612.45
880.2581	1375.2962	1481.95	598.55
880.402	1377.1533	1446.5	564.8
880.5459	1379.0096	1427.55	543.2
880.6898	1380.8652	1405.4	525.5
880.8337	1382.7201	1388.45	508.15
880.9776	1384.5742	1381.05	499.6
881.1215	1386.4275	1364.7	483
881.2653	1388.2802	1360	479.45
881.4092	1390.132	1345.7	465.45
881.553	1391.9832	1342.2	459.75
881.6968	1393.8336	1337.8	455.55
881.8406	1395.6832	1332.75	449.4
881.9844	1397.5322	1317.35	434.75
882.1282	1399.3803	1332.25	445
882.272	1401.2278	1320.05	436.9
882.4158	1403.0745	1317.45	435.85
882.5595	1404.9204	1304.6	424.4
882.7033	1406.7656	1304.2	422
882.847	1408.6101	1307	427.15
882.9908	1410.4538	1298.7	417.7
883.1345	1412.2968	1301.45	420.15
883.2782	1414.139	1294.8	411.15
883.4219	1415.9805	1299.7	418.55
883.5656	1417.8213	1307.7	416.35
883.7092	1419.6613	1316.6	435.7
883.8529	1421.5006	1331.65	448.4
883.9965	1423.3391	1343.4	461.7
884.1402	1425.1769	1372.95	489.5
884.2838	1427.0139	1421.1	538.75
884.4274	1428.8502	1449.85	566.3
884.571	1430.6858	1491.5	608.65
884.7146	1432.5206	1503.3	621.9
884.8582	1434.3547	1494.6	610.4
885.0018	1436.188	1484.7	603.15
885.1453	1438.0206	1482.45	599.45
885.2889	1439.8524	1472.15	591.1
885.4324	1441.6835	1477.5	595.05
885.5759	1443.5139	1469.15	583.45
885.7194	1445.3435	1469.4	584.5
885.8629	1447.1724	1472.95	590.9
886.0064	1449.0005	1472.45	589.55
886.1499	1450.8279	1472.7	588.4
886.2933	1452.6545	1460.6	576.95
886.4368	1454.4804	1456.9	576.8
886.5802	1456.3056	1459.45	570
886.7237	1458.13	1443	561.9
886.8671	1459.9536	1429.45	546.45
887.0105	1461.7766	1411.25	529.05
887.1539	1463.5987	1392.25	507.25
887.2972	1465.4202	1372.7	489.7
887.4406	1467.2409	1362.75	480.05
887.584	1469.0608	1333.35	451.95
887.7273	1470.88	1320.9	436.75
887.8706	1472.6984	1307.6	425.75
888.0139	1474.5161	1298.6	412.95
888.1572	1476.3331	1289.95	407.9
888.3005	1478.1493	1281.45	395.65
888.4438	1479.9648	1278.3	396.95
888.5871	1481.7795	1275.5	391.45
888.7303	1483.5935	1278.6	396.6
888.8736	1485.4067	1277.45	395.3
889.0168	1487.2192	1276.25	394
889.16	1489.031	1283.1	398.8
889.3032	1490.842	1271.65	389.8
889.4464	1492.6522	1273.35	390.1
889.5896	1494.4618	1272.6	390.75
889.7327	1496.2705	1272.2	389.25
889.8759	1498.0785	1269.25	386.4
890.019	1499.8858	1258.05	373.65
890.1622	1501.6924	1254.45	371.6
890.3053	1503.4981	1251.85	369.55
890.4484	1505.3032	1255.1	371.05
890.5914	1507.1075	1238.5	354.25
890.7345	1508.911	1246.15	363.9
890.8776	1510.7138	1239	354.9
891.0206	1512.5159	1232.6	349.75
891.1637	1514.3172	1235.25	352
891.3067	1516.1178	1229.35	346.4
891.4497	1517.9176	1230.6	345.2
891.5927	1519.7166	1229.1	345.55
891.7357	1521.515	1219.65	330.65
891.8786	1523.3126	1218.1	334.25
892.0216	1525.1094	1219.85	333.55
892.1645	1526.9055	1207.6	326.1
892.3074	1528.7008	1207.25	322.45
892.4503	1530.4954	1211.05	326.6
892.5932	1532.2893	1203.05	321.75
892.7361	1534.0824	1208.75	320.55
892.879	1535.8747	1201.6	317.15
893.0218	1537.6663	1206.9	324.25
893.1647	1539.4572	1196.2	311.15
893.3075	1541.2473	1205.45	320.25
893.4503	1543.0367	1193.15	310.65
893.5931	1544.8253	1197.9	308.65
893.7359	1546.6132	1198.35	310.65
893.8787	1548.4003	1211.65	317.2
894.0214	1550.1867	1212.95	319.95
894.1642	1551.9723	1208.85	321.7
894.3069	1553.7572	1215.25	329.85
894.4496	1555.5414	1224.6	340.65
894.5923	1557.3247	1235.2	352.1
894.735	1559.1074	1248.35	362.85
894.8777	1560.8893	1263	380.7
895.0204	1562.6705	1282.2	398.35
895.163	1564.4509	1296.05	414.55
895.3056	1566.2305	1301.8	419.7
895.4482	1568.0094	1302.85	420.3
895.5908	1569.7876	1299.55	417.1
895.7334	1571.565	1295.75	412.75
895.876	1573.3417	1286.35	402.25
896.0186	1575.1176	1292.35	409.35
896.1611	1576.8928	1306.05	422.65
896.3036	1578.6672	1313.8	430.15
896.4461	1580.4409	1323.35	439.4
896.5886	1582.2138	1336.8	451.3
896.7311	1583.986	1355.4	471.45
896.8736	1585.7575	1375.15	493
897.0161	1587.5282	1391.3	510.95
897.1585	1589.2981	1402.75	517.8
897.3009	1591.0673	1403.35	518
897.4433	1592.8358	1407.9	524.25
897.5857	1594.6035	1406.95	519.6
897.7281	1596.3704	1407.25	521.25
897.8705	1598.1366	1386.2	503.5
898.0128	1599.9021	1380.05	495.05
898.1551	1601.6668	1366.75	482.1
898.2975	1603.4308	1358.95	474.55
898.4398	1605.194	1361.15	471.5
898.5821	1606.9564	1369.5	485.9
898.7243	1608.7182	1402.85	515.2
898.8666	1610.4791	1437.35	553.05
899.0088	1612.2394	1476.05	591.75
899.1511	1613.9988	1517.55	632.35
899.2933	1615.7576	1559.35	673.95
899.4355	1617.5156	1576.6	687.25
899.5776	1619.2728	1556.3	670.25
899.7198	1621.0293	1506.85	622.8
899.862	1622.785	1464.45	576.45
900.0041	1624.54	1401.05	515.35
900.1462	1626.2942	1354.2	467.4
900.2883	1628.0477	1303.95	416.55
900.4304	1629.8005	1266.35	377.9
900.5725	1631.5525	1240.15	356.8
900.7145	1633.3037	1211.1	326.75
900.8566	1635.0542	1191.3	307.65
900.9986	1636.804	1178.3	293
901.1406	1638.553	1235.25	278.9
901.2826	1640.3013	1156.6	272.2
901.4245	1642.0488	1153.95	268.7
901.5665	1643.7955	1137.9	254.1
901.7085	1645.5416	1141.75	256.65
901.8504	1647.2868	1131.3	247.95
901.9923	1649.0313	1124.05	240.15
902.1342	1650.7751	1127.7	239.95
902.2761	1652.5181	1122.65	239.95
902.4179	1654.2604	1124.55	240.2
902.5598	1656.0019	1117.6	233.95
902.7016	1657.7427	1121	237.65
902.8434	1659.4828	1135.75	254.95
902.9852	1661.222	1148.35	261.4
903.127	1662.9606	1165.3	281.45
903.2687	1664.6984	1174.2	289.3
903.4105	1666.4354	1179.5	293.65
903.5522	1668.1717	1171.2	287.9
903.6939	1669.9072	1149.9	264.85
903.8356	1671.642	1128.35	242.8
903.9773	1673.3761	1112.9	230.45
904.119	1675.1094	1096.75	210.45
904.2606	1676.8419	1091	208.4
904.4022	1678.5737	1081.15	197.3
904.5439	1680.3048	1084.7	199.75
904.6855	1682.0351	1074.05	190.55
904.827	1683.7646	1079.35	190.15
904.9686	1685.4934	1073.25	190.45
905.1101	1687.2215	1066.7	181.5
905.2517	1688.9488	1066.6	181.25
905.3932	1690.6754	1060.45	178.1
905.5347	1692.4012	1066.2	180
905.6761	1694.1263	1059.35	176.35
905.8176	1695.8506	1059.7	175.25
905.9591	1697.5742	1057.45	174.8
906.1005	1699.297	1058.75	174.8
906.2419	1701.0191	1056.45	171.2
906.3833	1702.7404	1054.1	171.45
906.5246	1704.461	1060.25	176.35
906.666	1706.1808	1054.6	167.5
906.8073	1707.8999	1048.15	163.5
906.9487	1709.6182	1050.7	165.85
907.09	1711.3358	1053.2	167.6
907.2313	1713.0527	1047.8	166.15
907.3725	1714.7688	1057.45	166.8
907.5138	1716.4841	1044.1	157.15
907.655	1718.1987	1055.8	166.95
907.7962	1719.9126	1044.7	162.25
907.9374	1721.6257	1048	161.45
908.0786	1723.338	1045.1	159.65
908.2198	1725.0496	1045.15	158.05
908.3609	1726.7605	1046	162.2
908.502	1728.4706	1045.8	160.65
908.6431	1730.18	1041.35	153.9
908.7842	1731.8886	1042.65	156.6
908.9253	1733.5964	1042.2	152.95
909.0664	1735.3036	1043.4	155.95
909.2074	1737.0099	1040.45	156
909.3484	1738.7156	1039.15	153.65
909.4894	1740.4204	1040.8	151.9
909.6304	1742.1246	1039.4	153
909.7714	1743.8279	1038.6	154.1
909.9123	1745.5306	1040.85	153.75
910.0532	1747.2325	1034.75	150.4
910.1941	1748.9336	1036.35	151.6
910.335	1750.634	1036.55	150
910.4759	1752.3336	1035.65	151.4
910.6168	1754.0325	1036.55	153.45
910.7576	1755.7307	1035.1	150.55
910.8984	1757.4281	1036.65	153
911.0392	1759.1247	1042.45	149
911.18	1760.8206	1039.75	148.9
911.3208	1762.5158	1038.1	150.05
911.4615	1764.2102	1033.45	149.9
911.6022	1765.9039	1034.5	152.25
911.7429	1767.5968	1033.15	148.15
911.8836	1769.289	1033.9	149
912.0243	1770.9804	1035.2	150.05
912.1649	1772.6711	1030	146.75
912.3056	1774.361	1029.4	141.6
912.4462	1776.0502	1032.3	148.15
912.5868	1777.7386	1036.05	149.15
912.7274	1779.4263	1032.3	146.2
912.8679	1781.1132	1032.65	148.45
913.0084	1782.7994	1031.7	144.15
913.149	1784.4849	1027.25	143.85
913.2895	1786.1696	1050.3	145.75
913.4299	1787.8535	1031.2	145.1
913.5704	1789.5367	1028.55	142.55
913.7108	1791.2192	1031.1	148.2
913.8513	1792.9009	1040.35	142
913.9917	1794.5818	1027.95	143.25
914.132	1796.2621	1023.2	138.35
914.2724	1797.9415	1024.4	138.85
914.4128	1799.6202	1024.1	140.1
914.5531	1801.2982	1024.65	139.65
914.6934	1802.9755	1023.45	138.95
914.8337	1804.6519	1023.1	138
914.9739	1806.3277	1020.7	137.1
915.1142	1808.0027	1020.2	137.25
915.2544	1809.6769	1024.45	135.9
915.3946	1811.3504	1027.55	142.35
915.5348	1813.0231	1020.1	133.65
915.675	1814.6951	1020.4	137.25
915.8151	1816.3664	1022.3	134.7
915.9553	1818.0369	1018	133.2
916.0954	1819.7067	1020.5	137.85
916.2355	1821.3757	1020.55	133.75
916.3755	1823.044	1021.55	138.55
916.5156	1824.7115	1021.1	136.25
916.6556	1826.3783	1015.75	132.05
916.7956	1828.0443	1017.05	133.3
916.9356	1829.7096	1017.05	131.95
917.0756	1831.3741	1019.75	131.05
917.2155	1833.0379	1015.35	130.75
917.3555	1834.701	1019.05	131.2
917.4954	1836.3633	1016.85	129.6
917.6353	1838.0248	1019.75	132.55
917.7751	1839.6856	1016.45	129.4
917.915	1841.3457	1016.5	134.5
918.0548	1843.005	1017.65	132.9
918.1946	1844.6636	1016.1	133.95
918.3344	1846.3214	1018.15	133.9
918.4742	1847.9785	1016.5	132.1
918.6139	1849.6349	1015.25	128.6
918.7537	1851.2904	1022.3	129.45
918.8934	1852.9453	1015.8	130.4
919.0331	1854.5994	1015.3	128.65
919.1727	1856.2528	1018.55	131.15
919.3124	1857.9054	1012.7	127.5
919.452	1859.5572	1013.95	128.95
919.5916	1861.2083	1011.3	125.7
919.7312	1862.8587	1014.5	130.75
919.8708	1864.5084	1011.3	124.55
920.0103	1866.1572	1009.05	124.7
920.1498	1867.8054	1012.8	127.6
920.2893	1869.4528	1006.7	122.4
920.4288	1871.0994	1009.2	124.1
920.5683	1872.7453	1010.15	124.55
920.7077	1874.3905	1023.7	124.2
920.8471	1876.0349	1009.65	124.25
920.9865	1877.6786	1010.05	124.3
921.1259	1879.3215	1004.55	120.25
921.2653	1880.9637	1007.35	120.3
921.4046	1882.6051	1007.55	123.8
921.5439	1884.2458	1012.3	124.4
921.6832	1885.8858	1008.4	122.6
921.8225	1887.525	1008.55	123.35
921.9617	1889.1634	1004.55	118.25
922.101	1890.8011	1008.5	124.25
922.2402	1892.4381	1006.15	123.65
922.3794	1894.0743	1005.05	120.5
922.5185	1895.7098	1006.5	122.2
922.6577	1897.3446	1007.55	121.45
922.7968	1898.9786	1008.95	119.45
922.9359	1900.6118	1001.9	118.9
923.075	1902.2443	1009.7	122.4
923.214	1903.8761	1006.4	122.8
923.3531	1905.5071	1003.95	115.95
923.4921	1907.1374	1001.3	117.45
923.6311	1908.7669	1006.7	121.95
923.77	1910.3957	1002.4	118.35
923.909	1912.0237	1003.95	118.35
924.0479	1913.651	1002.15	116
924.1868	1915.2776	999.15	115.3
924.3257	1916.9034	998.65	115.6
924.4646	1918.5285	998.75	113.7
924.6034	1920.1528	999	113.65
924.7422	1921.7764	999.95	116.6
924.881	1923.3992	997.5	113.35
925.0198	1925.0213	997	111.25
925.1586	1926.6427	999.35	115.65
925.2973	1928.2633	1102.05	108.8
925.436	1929.8832	1000	111.85
925.5747	1931.5023	996.15	111.3
925.7134	1933.1207	996.1	109.85
925.852	1934.7383	997.3	111.2
925.9906	1936.3552	995.15	110.45
926.1292	1937.9714	992.65	106
926.2678	1939.5868	998.1	111.85
926.4064	1941.2015	995.4	107.95
926.5449	1942.8154	993.9	110.1
926.6834	1944.4286	993.65	109.75
926.8219	1946.041	1022.2	112.8
926.9604	1947.6528	997.2	106.4
927.0988	1949.2637	994.05	108.35
927.2372	1950.8739	994.1	106.6
927.3756	1952.4834	992.45	107.15
927.514	1954.0921	991.5	104.15
927.6523	1955.7001	998.75	108.5
927.7907	1957.3074	992.1	106.95
927.929	1958.9139	985.6	101.9
928.0673	1960.5197	993.95	107.65
928.2055	1962.1247	992.5	108
928.3438	1963.729	989.15	104.45
928.482	1965.3325	1013.95	104.6
928.6202	1966.9353	986.8	102
928.7584	1968.5374	990.75	105.35
928.8965	1970.1387	990.1	105.15
929.0346	1971.7393	988.95	102.2
929.1727	1973.3392	990.95	105.75
929.3108	1974.9383	986.5	101.75
929.4489	1976.5366	986.9	101
929.5869	1978.1342	991.65	103.3
929.7249	1979.7311	987.9	101.35
929.8629	1981.3273	985.95	99.25
930.0009	1982.9227	990.1	103.5
930.1388	1984.5173	988.6	102.05
930.2767	1986.1112	988.2	103.7
930.4146	1987.7044	989.65	105.95
930.5525	1989.2968	992.9	107.55
930.6904	1990.8885	988.3	98.7
930.8282	1992.4795	990.25	105.25
930.966	1994.0697	985.55	99.2
931.1038	1995.6592	985.25	99.65
931.2415	1997.2479	985.5	101.15
931.3793	1998.8359	985.2	100.3
931.517	2000.4232	982.75	97.7
931.6547	2002.0097	982.65	99.25
931.7923	2003.5955	985.75	97.45
931.93	2005.1805	986.55	99.55
932.0676	2006.7648	985.9	100.75
932.2052	2008.3484	989.45	103.85
932.3427	2009.9312	987.7	101.2
932.4803	2011.5133	984.3	99.15
932.6178	2013.0946	983.7	99.05
932.7553	2014.6752	981.7	96.75
932.8928	2016.2551	986.6	100.5
933.0302	2017.8342	985.75	101.15
933.1676	2019.4126	981.15	96.25
933.305	2020.9902	980.55	95.85
933.4424	2022.5672	983.6	94.35
933.5798	2024.1433	995.15	102.3
933.7171	2025.7188	981.85	97.85
933.8544	2027.2935	986.3	99.15
933.9917	2028.8674	986.65	101.75
934.129	2030.4406	985.4	99.7
934.2662	2032.0131	980.75	95.6
934.4034	2033.5849	986.85	96.75
934.5406	2035.1559	983.8	97.85
934.6778	2036.7261	983.75	98.4
934.8149	2038.2957	982.9	96.95
934.952	2039.8645	985.6	101.5
935.0891	2041.4325	985.35	96.85
935.2262	2042.9998	983.2	98.5
935.3632	2044.5664	985.5	97.05
935.5002	2046.1323	982.8	97.6
935.6372	2047.6974	983.35	98.85
935.7742	2049.2617	982.8	96.5
935.9111	2050.8254	1019.25	100.7
936.048	2052.3883	985.35	99.2
936.1849	2053.9504	982.65	97.4
936.3218	2055.5118	983.45	95.55
936.4586	2057.0725	983.55	96.6
936.5955	2058.6325	979.8	93
936.7323	2060.1917	984.3	99.3
936.869	2061.7502	983.45	95.75
937.0058	2063.3079	983.9	97.9
937.1425	2064.8649	983.55	94.05
937.2792	2066.4212	980.6	93.95
937.4159	2067.9767	982.85	96.25
937.5525	2069.5315	982.25	97.4
937.6891	2071.0856	980.7	96.05
937.8257	2072.6389	978.75	93.05
937.9623	2074.1915	977.95	94.55
938.0989	2075.7433	982.45	93.2
938.2354	2077.2945	980.5	95.3
938.3719	2078.8448	982.6	98.3
938.5084	2080.3945	981	98.2
938.6448	2081.9434	978.15	92.1
938.7812	2083.4916	979	94.5
938.9176	2085.039	980.7	94.45
939.054	2086.5857	976.8	87.85
939.1903	2088.1317	975.75	92.1
939.3267	2089.677	978.6	93.75
939.463	2091.2215	975.9	91.5
939.5992	2092.7652	982.3	94.85
939.7355	2094.3083	982.85	98.6
939.8717	2095.8506	978.75	94.2
940.0079	2097.3921	977.6	94.65
940.1441	2098.933	976.85	91.3
940.2802	2100.4731	980.9	95.05
940.4163	2102.0124	996.6	91
940.5524	2103.5511	976.6	90.95
940.6885	2105.089	975.4	90.35
940.8245	2106.6261	981.25	96.75
940.9606	2108.1626	981.05	93
941.0965	2109.6983	1006.85	90.3
941.2325	2111.2332	977.1	91.1
941.3684	2112.7675	979.3	93.3
941.5044	2114.301	978.5	90.5
941.6403	2115.8337	976.6	90.3
941.7761	2117.3657	977.55	93.25
941.912	2118.897	977.6	91.4
942.0478	2120.4276	985.55	95.1
942.1835	2121.9575	979.3	93.95
942.3193	2123.4866	989.85	89.8
942.455	2125.0149	981.55	94.5
942.5907	2126.5426	977.65	94
942.7264	2128.0695	983.65	94.9
942.8621	2129.5956	979.7	95.2
942.9977	2131.1211	981.9	93.45
943.1333	2132.6458	977.6	94.2
943.2689	2134.1698	978.9	93.4
943.4044	2135.693	978.7	91.4
943.54	2137.2155	980.9	93.6
943.6755	2138.7373	979.95	94.25
943.8109	2140.2584	978.9	92.8
943.9464	2141.7787	981.85	92.2
944.0818	2143.2983	976.45	93.35
944.2172	2144.8171	977.05	92.15
944.3526	2146.3353	979.25	92.5
944.4879	2147.8527	974.75	90.65
944.6232	2149.3693	979.15	94.4
944.7585	2150.8853	974.6	90.25
944.8938	2152.4005	975.1	88.7
945.029	2153.9149	974.55	90.15
945.1642	2155.4287	978.25	94.65
945.2994	2156.9417	977.15	90.7
945.4346	2158.454	978.2	91.3
945.5697	2159.9655	975.85	89.95
945.7048	2161.4764	976	92.5
945.8399	2162.9865	976.2	90.95
945.9749	2164.4958	978.05	90.55
946.1099	2166.0045	978.55	88.85
946.2449	2167.5124	974	88.7
946.3799	2169.0195	972.75	86.7
946.5148	2170.526	974.45	88.15
946.6498	2172.0317	975.45	89.65
946.7846	2173.5367	972.5	86.9
946.9195	2175.0409	972.35	87.65
947.0543	2176.5445	973.35	89.15
947.1891	2178.0473	972.7	87.8
947.3239	2179.5494	979.75	91.1
947.4587	2181.0507	972.25	86.4
947.5934	2182.5513	973.3	87.95
947.7281	2184.0512	971.7	87.75
947.8628	2185.5504	974.45	89.8
947.9974	2187.0488	975	90.4
948.132	2188.5465	970.45	83.75
948.2666	2190.0435	972.05	85.3
948.4012	2191.5397	974.85	90.65
948.5357	2193.0353	970.9	85.7
948.6702	2194.5301	971.55	83.7
948.8047	2196.0241	972.85	87.85
948.9392	2197.5175	971.45	85.45
949.0736	2199.0101	976.9	89.4
949.208	2200.502	970.8	88.55
949.3424	2201.9931	972.05	88.1
949.4767	2203.4835	968.35	81.15
949.611	2204.9733	979.3	88.85
949.7453	2206.4622	972.25	87.8
949.8796	2207.9505	974.65	85.15
950.0138	2209.438	971.85	87.5
950.148	2210.9248	971	82.45
950.2822	2212.4109	966.2	82.9
950.4164	2213.8962	967.25	78.5
950.5505	2215.3809	971.75	88.05
950.6846	2216.8648	965.5	80.35
950.8186	2218.3479	972.55	83.55
950.9527	2219.8304	970.35	83.45
951.0867	2221.3121	968.6	80.25
951.2207	2222.7931	970.4	86.25
951.3546	2224.2733	967.1	80.8
951.4886	2225.7529	965.65	80.45
951.6225	2227.2317	967.45	80.65
951.7563	2228.7098	968.85	84.7
951.8902	2230.1872	965.65	78.15
952.024	2231.6638	970.35	85.85
952.1578	2233.1397	972.6	81.2
952.2916	2234.6149	972.4	87.35
952.4253	2236.0894	967.2	80.25
952.559	2237.5632	976.05	83
952.6927	2239.0362	967.1	82.4
952.8263	2240.5085	964.4	80.6
952.9599	2241.9801	966.9	82.1
953.0935	2243.4509	960.4	77.9
953.2271	2244.921	966.8	79.15
953.3606	2246.3904	965.95	78.3
953.4941	2247.8591	961.35	76.7
953.6276	2249.3271	965.3	81.45
953.7611	2250.7943	961.6	74.8
953.8945	2252.2608	965.05	79.55
954.0279	2253.7266	960.85	76.85
954.1612	2255.1917	960.3	73.75
954.2946	2256.656	963.75	77.65
954.4279	2258.1197	964.65	79.6
954.5612	2259.5826	963.95	76.6
954.6944	2261.0447	964.75	78.35
954.8276	2262.5062	961.9	74.8
954.9608	2263.9669	961.1	74.05
955.094	2265.4269	961.45	77.2
955.2271	2266.8862	961.7	77.15
955.3602	2268.3448	965.95	81.75
955.4933	2269.8026	961.65	74.7
955.6264	2271.2598	960	72.7
955.7594	2272.7162	960.3	74.9
955.8924	2274.1719	962.4	77.75
956.0253	2275.6268	957.35	70.55
956.1583	2277.0811	961.1	74.75
956.2912	2278.5346	961	76.65
956.4241	2279.9874	959.6	74.15
956.5569	2281.4395	962.3	79
956.6897	2282.8908	963.9	73.65
956.8225	2284.3414	962.1	75.2
956.9553	2285.7914	958.5	76.65
957.088	2287.2406	961.8	75.05
957.2207	2288.689	961.45	76.15
957.3534	2290.1368	959	72.9
957.486	2291.5838	961.2	73.8
957.6186	2293.0302	958.65	73
957.7512	2294.4758	957.6	72.6
957.8838	2295.9206	961.05	72.35
958.0163	2297.3648	956.9	72.5
958.1488	2298.8082	958.9	74.15
958.2813	2300.251	958.6	72.85
958.4137	2301.693	962.5	74.9
958.5461	2303.1343	959.75	74.05
958.6785	2304.5748	958.05	73.25
958.8108	2306.0147	956.75	71
958.9432	2307.4538	958.8	68.95
959.0754	2308.8922	956.05	73.25
959.2077	2310.3299	957.5	72.05
959.3399	2311.7669	959.3	76.3
959.4721	2313.2031	957.7	74.6
959.6043	2314.6387	956.65	70.15
959.7365	2316.0735	955.1	70.05
959.8686	2317.5076	957.35	72.1
960.0006	2318.941	956.2	71.05
960.1327	2320.3737	959.15	74.6
960.2647	2321.8056	957.85	70.95
960.3967	2323.2369	958.1	72.5
960.5287	2324.6674	962.2	74.7
960.6606	2326.0972	962.2	73.95
960.7925	2327.5263	963.8	80.7
960.9244	2328.9547	963.45	78.35
961.0562	2330.3823	961.05	76.3
961.1881	2331.8092	960.95	73.6
961.3198	2333.2355	955.35	69.95
961.4516	2334.661	956.8	71.6
961.5833	2336.0858	956.6	69.4
961.715	2337.5098	952.45	66.4
961.8467	2338.9332	953.6	69.5
961.9783	2340.3558	958.85	72.9
962.1099	2341.7778	953.55	68.9
962.2415	2343.199	955.7	67.9
962.373	2344.6195	949.15	61.95
962.5045	2346.0393	950.05	65.6
962.636	2347.4583	952.8	66.95
962.7675	2348.8767	953.8	66.55
962.8989	2350.2943	953.35	66.75
963.0303	2351.7113	952.15	67.1
963.1617	2353.1275	954	68.55
963.293	2354.543	961.45	67.75
963.4243	2355.9578	951.9	65
963.5556	2357.3718	952.4	67.15
963.6868	2358.7852	955.55	66.15
963.818	2360.1978	950	62.3
963.9492	2361.6098	948.85	62
964.0803	2363.021	956.15	68.45
964.2114	2364.4315	951.5	66.05
964.3425	2365.8413	950.85	63.2
964.4736	2367.2504	950.45	66.65
964.6046	2368.6587	949	64
964.7356	2370.0664	951.2	65.65
964.8666	2371.4733	951.2	66.7
964.9975	2372.8795	951.1	66.45
965.1284	2374.285	949.8	64.6
965.2593	2375.6899	949.95	65.55
965.3901	2377.0939	948.35	62.85
965.5209	2378.4973	950.6	64.65
965.6517	2379.9	945.45	58.75
965.7825	2381.3019	944.55	57.5
965.9132	2382.7032	947.3	61.65
966.0439	2384.1037	947.55	62.45
966.1745	2385.5035	946.55	60.8
966.3051	2386.9027	950	62.7
966.4357	2388.3011	951.55	62.15
966.5663	2389.6987	945.8	59.7
966.6968	2391.0957	949.55	63.75
966.8273	2392.492	947.1	61.9
966.9578	2393.8876	946.15	61.65
967.0882	2395.2824	946.7	62.1
967.2186	2396.6765	945.5	61.15
967.349	2398.07	943.65	58.8
967.4793	2399.4627	943.85	57.8
967.6097	2400.8547	945.7	58.95
967.7399	2402.246	950.2	59.5
967.8702	2403.6366	948.75	63
968.0004	2405.0265	941.25	55.05
968.1306	2406.4156	949.2	58.5
968.2607	2407.8041	948	60.3
968.3909	2409.1918	943.75	59.3
968.521	2410.5789	943.1	56
968.651	2411.9652	947.25	56.55
968.781	2413.3508	943.9	59.4
968.911	2414.7358	945.05	59.35
969.041	2416.12	939.4	54.8
969.1709	2417.5035	944.1	60.5
969.3008	2418.8863	943.35	57.25
969.4307	2420.2684	943.15	58.7
969.5606	2421.6497	946.8	60.55
969.6904	2423.0304	942.2	56.3
969.8201	2424.4104	943.55	56.5
969.9499	2425.7896	946.85	55.05
970.0796	2427.1682	939.55	55.25
970.2093	2428.546	945	57.75
970.3389	2429.9232	941.55	55.35
970.4685	2431.2996	940.95	56.5
970.5981	2432.6753	942.9	57.7
970.7277	2434.0503	943.95	56.85
970.8572	2435.4246	941.9	57.3
970.9867	2436.7982	940.6	52.05
971.1161	2438.1711	940.75	57.4
971.2456	2439.5433	941	55.45
971.375	2440.9148	944.1	54.25
971.5043	2442.2856	937.5	53.25
971.6336	2443.6557	940.4	54.25
971.7629	2445.025	939	53.1
971.8922	2446.3937	938.45	51.45
972.0214	2447.7617	939.2	53.5
972.1506	2449.1289	937.95	51.1
972.2798	2450.4955	940.65	52.1
972.4089	2451.8613	939.6	56.3
972.538	2453.2265	936.75	50.5
972.6671	2454.5909	940.35	53.9
972.7961	2455.9546	939.9	56.35
972.9251	2457.3177	938.95	52.7
973.0541	2458.68	939.75	51.9
973.1831	2460.0416	939	54.2
973.312	2461.4025	938.65	50.4
973.4408	2462.7627	947.5	50.8
973.5697	2464.1222	937.15	49.5
973.6985	2465.4811	938	51.75
973.8273	2466.8392	940.35	54.3
973.956	2468.1966	937.65	50.95
974.0847	2469.5533	939.25	52.3
974.2134	2470.9093	938.35	51.35
974.3421	2472.2645	936.85	49.05
974.4707	2473.6191	935.9	50.65
974.5993	2474.973	935.2	48.7
974.7278	2476.3262	940.1	52.05
974.8563	2477.6787	933.55	49.7
974.9848	2479.0305	935.75	50.1
975.1132	2480.3816	939.45	52.75
975.2417	2481.7319	938.35	53.15
975.37	2483.0816	937.35	51.5
975.4984	2484.4306	936.3	47.9
975.6267	2485.7789	933.75	47.75
975.755	2487.1264	940.2	52.65
975.8833	2488.4733	935	50.25
976.0115	2489.8195	955.15	52.15
976.1397	2491.165	940.95	52.6
976.2678	2492.5097	937.35	48.75
976.3959	2493.8538	935.25	50.4
976.524	2495.1972	934.4	48.7
976.6521	2496.5398	934.65	48.1
976.7801	2497.8818	937.05	50.1
976.9081	2499.2231	935	50.35
977.036	2500.5637	933.65	45.55
977.164	2501.9035	935.95	49.6
977.2918	2503.2427	938.1	46.95
977.4197	2504.5812	933.75	48.7
977.5475	2505.919	938.6	52.15
977.6753	2507.256	934.5	48.95
977.8031	2508.5924	931.6	46.25
977.9308	2509.9281	936.8	46.15
978.0585	2511.2631	932.65	49.15
978.1861	2512.5974	933.1	48.75
978.3137	2513.9309	933.85	48.05
978.4413	2515.2638	966.55	48.45
978.5689	2516.596	934.15	49.35
978.6964	2517.9275	932.45	46.15
978.8239	2519.2583	933.75	46.15
978.9513	2520.5884	933.45	45.2
979.0788	2521.9178	933.25	48.1
979.2062	2523.2465	930.25	44.65
979.3335	2524.5745	928.55	45.9
979.4608	2525.9018	929.15	42.95
979.5881	2527.2284	931.1	46.9
979.7154	2528.5543	930.65	47.3
979.8426	2529.8796	931.6	45.75
979.9698	2531.2041	931.8	46.25
980.0969	2532.5279	929.6	44.5
980.224	2533.851	931.4	44
980.3511	2535.1735	929.2	44.6
980.4781	2536.4952	931	47.15
980.6052	2537.8163	931.4	45.55
980.7321	2539.1366	929.1	45.2
980.8591	2540.4562	931.25	43.35
980.986	2541.7752	926.75	40.9
981.1129	2543.0935	931.95	48.45
981.2397	2544.411	930.3	44.25
981.3665	2545.7279	927.65	41.9
981.4933	2547.0441	928.6	43.4
981.62	2548.3596	930.6	41.25
981.7467	2549.6744	927.25	43.65
981.8734	2550.9885	932	45.25
982.0001	2552.3019	928.7	46
982.1267	2553.6146	924.4	37.5
982.2532	2554.9266	927.1	42.7
982.3798	2556.2379	932.4	43.7
982.5063	2557.5485	926.65	42.2
982.6327	2558.8585	933.95	40.25
982.7592	2560.1677	932.85	44.9
982.8856	2561.4762	928.7	42.2
983.0119	2562.7841	930.5	42.6
983.1383	2564.0913	927.6	43.75
983.2646	2565.3977	927.6	42.7
983.3908	2566.7035	924.3	38.45
983.517	2568.0086	926.55	39.3
983.6432	2569.313	927.3	44.05
983.7694	2570.6167	930.5	41
983.8955	2571.9197	925.3	40.5
984.0216	2573.222	932.2	43.8
984.1476	2574.5236	926.1	40.75
984.2737	2575.8246	928.9	41.95
984.3996	2577.1248	929.55	41.15
984.5256	2578.4244	927.4	43.05
984.6515	2579.7232	925.05	41.6
984.7774	2581.0214	958.4	46.35
984.9032	2582.3189	926.15	42.5
985.029	2583.6157	932.35	41.95
985.1548	2584.9118	925.2	39.3
985.2806	2586.2072	925.9	41.3
985.4063	2587.5019	925.75	40.65
985.5319	2588.7959	923.65	39
985.6576	2590.0893	927.85	38.9
985.7832	2591.3819	925.5	42.1
985.9087	2592.6739	926.6	42.45
986.0343	2593.9652	926.3	37.8
986.1597	2595.2557	927.45	44.5
986.2852	2596.5456	929.6	42.55
986.4106	2597.8348	923.75	40.4
986.536	2599.1234	925.9	43.25
986.6614	2600.4112	924.2	39.55
986.7867	2601.6983	927.35	38.3
986.912	2602.9848	924.05	37.35
987.0372	2604.2705	930.95	40.3
987.1624	2605.5556	926.7	42.3
987.2876	2606.84	925.2	38.1
987.4128	2608.1237	926.35	39.15
987.5379	2609.4067	925.65	41.55
987.6629	2610.689	933.2	40.15
987.788	2611.9707	927.6	38.2
987.913	2613.2516	925.25	36.3
988.0379	2614.5319	924	37.45
988.1629	2615.8115	922.55	38.05
988.2878	2617.0903	922.7	36.65
988.4126	2618.3685	926.6	40.1
988.5375	2619.6461	921.25	37.1
988.6622	2620.9229	922.9	36.85
988.787	2622.199	925.4	40.75
988.9117	2623.4745	922.75	36.25
989.0364	2624.7493	921.8	37.2
989.161	2626.0234	920.15	35.3
989.2857	2627.2968	921.85	38.2
989.4102	2628.5695	924.4	37.4
989.5348	2629.8415	921.8	36.1
989.6593	2631.1128	923.1	35.15
989.7837	2632.3835	919.6	35.2
989.9082	2633.6535	920.85	36.25
990.0326	2634.9228	920.6	38.15
990.1569	2636.1914	921	36.6
990.2812	2637.4593	928.6	37.35
990.4055	2638.7265	920.65	34.15
990.5298	2639.9931	921.8	36.75
990.654	2641.259	920.05	32.7
990.7782	2642.5242	920	33.1
990.9023	2643.7887	920.65	33.4
991.0264	2645.0525	922.45	37.25
991.1505	2646.3156	921.65	35
991.2745	2647.5781	920.1	36.3
991.3985	2648.8398	917.5	33.3
991.5225	2650.1009	958	34.7
991.6464	2651.3613	922.6	38.7
991.7703	2652.6211	918.4	33.1
991.8942	2653.8801	915.95	32.9
992.018	2655.1385	922.4	34
992.1418	2656.3961	917.45	31.75
992.2655	2657.6531	917.95	31.15
992.3892	2658.9094	920	33.5
992.5129	2660.1651	915.7	31.35
992.6366	2661.42	920.5	36.25
992.7602	2662.6743	920.7	34.25
992.8837	2663.9279	917.2	32.75
993.0073	2665.1808	919.25	32.5
993.1307	2666.433	919.15	33.65
993.2542	2667.6846	918.9	34.5
993.3776	2668.9354	923.15	33.55
993.501	2670.1856	919.5	34.7
993.6244	2671.4351	917	32.2
993.7477	2672.6839	920.7	34.35
993.8709	2673.9321	922.25	38.45
993.9942	2675.1795	918.25	32.9
994.1174	2676.4263	920.55	35.1
994.2405	2677.6724	919.5	34.8
994.3637	2678.9179	921.45	35.2
994.4868	2680.1626	918.55	34.2
994.6098	2681.4067	920.7	33.8
994.7328	2682.6501	917.8	33.55
994.8558	2683.8928	919.55	33.3
994.9788	2685.1348	917.3	33.8
995.1017	2686.3761	916.85	31.6
995.2245	2687.6168	916.7	30.85
995.3474	2688.8568	917.65	33.95
995.4702	2690.0961	915.15	31.65
995.5929	2691.3348	918.8	33.75
995.7156	2692.5727	918.85	30.65
995.8383	2693.81	914.55	28.05
995.961	2695.0466	914.25	29.8
996.0836	2696.2826	917.5	32.3
996.2062	2697.5178	918.45	28.3
996.3287	2698.7524	917.25	33.4
996.4512	2699.9863	920.85	31.95
996.5737	2701.2195	915.8	30.55
996.6961	2702.452	920.2	34.15
996.8185	2703.6839	916.3	30.35
996.9408	2704.9151	916.3	31.05
997.0631	2706.1456	919.05	36.1
997.1854	2707.3755	915.9	29.8
997.3077	2708.6046	918.7	31.3
997.4299	2709.8331	917.7	31.1
997.552	2711.0609	916.95	33.6
997.6742	2712.2881	915.75	28.95
997.7963	2713.5145	920.35	30.8
997.9183	2714.7403	918.1	34.05
998.0403	2715.9654	919.45	33.15
998.1623	2717.1899	919.6	33.6
998.2842	2718.4136	920.05	36.15
998.4062	2719.6367	920	34.95
998.528	2720.8591	924.75	33.4
998.6498	2722.0809	921.9	35.8
998.7716	2723.3019	925.2	38.5
998.8934	2724.5223	921.75	36.4
999.0151	2725.7421	922.1	33.65
999.1368	2726.9611	922.95	32.85
999.2584	2728.1795	920.2	29.25
999.38	2729.3972	918.95	33.35
999.5016	2730.6142	933	33.9
999.6231	2731.8306	920.9	33.75
999.7446	2733.0462	918.75	32.45
999.8661	2734.2612	923.6	33.55
999.9875	2735.4756	917.95	30.3
1000.1089	2736.6892	916.6	31
1000.2302	2737.9022	914.95	29.9
1000.3515	2739.1145	914.65	28.95
1000.4728	2740.3262	921.9	27.65
1000.594	2741.5372	915.1	29.7
1000.7152	2742.7475	912.9	27.9
1000.8363	2743.9571	914.6	27.7
1000.9575	2745.1661	919.35	29.75
1001.0785	2746.3744	914.05	28.35
1001.1996	2747.582	913.5	27.65
1001.3206	2748.7889	914.15	26.55
1001.4415	2749.9952	910.4	25.4
1001.5625	2751.2008	913.65	28.7
1001.6833	2752.4057	912.95	26
1001.8042	2753.61	911.2	25.3
1001.925	2754.8136	914.25	27.5
1002.0458	2756.0165	912.15	25.3
1002.1665	2757.2188	911.75	26.45
1002.2872	2758.4204	911.55	26.6
1002.4078	2759.6213	913.55	28.05
1002.5285	2760.8215	919.2	27.1
1002.649	2762.0211	912.8	24.75
1002.7696	2763.22	912.9	24.95
1002.8901	2764.4182	913.2	26.8
1003.0106	2765.6158	910.05	23.55
1003.131	2766.8127	910.85	25.1
1003.2514	2768.009	912.45	27.6
1003.3717	2769.2045	909.5	22.6
1003.492	2770.3994	911.75	23.5
1003.6123	2771.5936	908.75	24.25
1003.7325	2772.7872	908.85	23.1
1003.8527	2773.9801	912.2	25.1
1003.9729	2775.1723	928.4	28.1
1004.093	2776.3639	908.6	23.35
1004.2131	2777.5548	912	25.45
1004.3331	2778.745	912.2	26.65
1004.4531	2779.9346	908.9	23.95
1004.5731	2781.1235	911.3	24.8
1004.693	2782.3117	910.2	25.4
1004.8129	2783.4992	908.1	24
1004.9328	2784.6861	911.35	28.4
1005.0526	2785.8723	909.75	25.95
1005.1723	2787.0579	911.4	23.85
1005.2921	2788.2428	911	26.6
1005.4118	2789.427	908.95	22.8
1005.5314	2790.6106	908.3	22.9
1005.651	2791.7935	909.25	24.6
1005.7706	2792.9757	909.05	26.6
1005.8902	2794.1573	910.75	23
1006.0097	2795.3382	911.2	25.7
1006.1291	2796.5184	907.45	23.3
1006.2485	2797.698	910.8	24.35
1006.3679	2798.8769	907.2	19.35
1006.4873	2800.0551	910	23.4
1006.6066	2801.2327	913.1	25.5
1006.7258	2802.4096	908.35	22.2
1006.8451	2803.5859	909.85	22.7
1006.9642	2804.7615	911.75	26.65
1007.0834	2805.9364	909.65	25.05
1007.2025	2807.1106	909	23.85
1007.3216	2808.2842	912.3	25.3
1007.4406	2809.4572	911.45	26
1007.5596	2810.6294	914.05	27.7
1007.6785	2811.801	909.45	24.85
1007.7975	2812.972	910.8	27.1
1007.9163	2814.1423	914.75	28.5
1008.0352	2815.3119	917.15	30.85
1008.154	2816.4808	916.35	33.2
1008.2727	2817.6491	918.35	32
1008.3914	2818.8167	919.3	34.2
1008.5101	2819.9837	924.95	36.35
1008.6288	2821.15	922.75	35.55
1008.7474	2822.3157	922.9	38.4
1008.8659	2823.4807	926.95	41.2
1008.9844	2824.645	934.15	49.75
1009.1029	2825.8086	936.3	51.3
1009.2214	2826.9716	938.85	54.35
1009.3398	2828.134	940.9	56.15
1009.4581	2829.2957	947.65	60.1
1009.5764	2830.4567	947.25	63.3
1009.6947	2831.617	948.5	61.45
1009.813	2832.7767	950.95	66.9
1009.9312	2833.9358	950.8	64
1010.0493	2835.0941	951.95	65.05
1010.1675	2836.2519	949.65	65.65
1010.2855	2837.4089	949.9	64.7
1010.4036	2838.5653	947.05	61.55
1010.5216	2839.7211	942.65	57.45
1010.6396	2840.8761	943.5	55.4
1010.7575	2842.0306	941.9	59
1010.8754	2843.1843	939.5	52.95
1010.9932	2844.3374	941.45	58.8
1011.111	2845.4899	940.2	53.1
1011.2288	2846.6417	941.55	57.15
1011.3465	2847.7928	945.2	61.95
1011.4642	2848.9433	947.05	62
1011.5818	2850.0931	944.8	61.4
1011.6995	2851.2422	944.65	59.2
1011.817	2852.3907	947.25	61.35
1011.9345	2853.5385	949.9	61.95
1012.052	2854.6857	974.85	61.35
1012.1695	2855.8323	946.15	59.2
1012.2869	2856.9781	947.55	61.7
1012.4042	2858.1233	953.1	68.45
1012.5216	2859.2679	954.2	67.25
1012.6389	2860.4118	953.15	67.95
1012.7561	2861.555	960.3	71.8
1012.8733	2862.6976	955	66.65
1012.9905	2863.8395	956.3	72.45
1013.1076	2864.9808	957.85	72.95
1013.2247	2866.1214	961.55	77.05
1013.3417	2867.2614	958.65	73.55
1013.4587	2868.4007	963.15	76.55
1013.5757	2869.5393	961.3	74.1
1013.6926	2870.6773	963.15	75.05
1013.8095	2871.8146	963.45	74.6
1013.9263	2872.9513	965.1	77.35
1014.0431	2874.0874	964.1	80.4
1014.1599	2875.2227	963.5	79.5
1014.2766	2876.3574	965.85	80.3
1014.3933	2877.4915	966.05	81.05
1014.51	2878.6249	962.95	78.05
1014.6266	2879.7577	965.8	79.35
1014.7431	2880.8898	977.25	80.3
1014.8596	2882.0212	967.75	84
1014.9761	2883.152	971.45	84.35
1015.0925	2884.2821	970.05	87.65
1015.2089	2885.4116	969.55	84.3
1015.3253	2886.5405	972.3	88.25
1015.4416	2887.6686	975.95	88.35
1015.5579	2888.7962	972.5	89.9
1015.6741	2889.923	973.15	88.25
1015.7903	2891.0493	972.65	87.9
1015.9065	2892.1748	975.4	90.35
1016.0226	2893.2997	975.05	89.15
1016.1387	2894.424	972.8	88.85
1016.2547	2895.5476	974.95	89.05
1016.3707	2896.6706	970.15	86.05
1016.4866	2897.7929	974.55	88.6
1016.6025	2898.9145	974.75	90.25
1016.7184	2900.0355	972.15	84.45
1016.8342	2901.1559	974	87.7
1016.95	2902.2756	977.5	89.1
1017.0658	2903.3946	975.7	91.55
1017.1815	2904.513	975.25	86.65
1017.2971	2905.6308	974.7	90.45
1017.4127	2906.7479	970.15	83.85
1017.5283	2907.8643	971.65	85
1017.6439	2908.9801	971.8	86.65
1017.7594	2910.0953	967.95	81.95
1017.8748	2911.2098	972.15	84.45
1017.9902	2912.3236	977.8	84.85
1018.1056	2913.4368	972.5	83.1
1018.2209	2914.5494	967.85	81.8
1018.3362	2915.6613	973.95	82.45
1018.4515	2916.7725	969.6	80.2
1018.5667	2917.8831	967.95	81.25
1018.6819	2918.9931	971.4	84.3
1018.797	2920.1024	966.4	80.95
1018.9121	2921.211	961.6	75.65
1019.0271	2922.319	964.75	79.85
1019.1421	2923.4264	962.25	76.85
1019.2571	2924.5331	961.55	78.1
1019.372	2925.6391	963.55	79.8
1019.4869	2926.7445	958.05	74.45
1019.6017	2927.8493	960.8	75.25
1019.7165	2928.9534	964.05	78
1019.8313	2930.0569	964.65	76.75
1019.946	2931.1597	964.65	77.9
1020.0606	2932.2619	961.7	77.05
1020.1753	2933.3634	964.2	80.1
1020.2899	2934.4643	968.75	75
1020.4044	2935.5645	972.3	81.55
1020.5189	2936.6641	970.45	81.45
1020.6334	2937.763	963.65	79.25
1020.7478	2938.8613	969.8	84.1
1020.8622	2939.959	967.8	78.45
1020.9765	2941.056	960.7	78.6
1021.0908	2942.1523	962.3	74.05
1021.2051	2943.248	960.1	74.3
1021.3193	2944.3431	953.1	67.9
1021.4334	2945.4375	949.35	63.95
1021.5476	2946.5313	946.9	62.25
1021.6617	2947.6244	946.3	59.3
1021.7757	2948.7169	944.4	59.4
1021.8897	2949.8087	938.8	52.55
1022.0037	2950.8999	938.15	52.8
1022.1176	2951.9904	935.85	49.15
1022.2315	2953.0803	930.25	44.25
1022.3453	2954.1696	927.65	42.7
1022.4591	2955.2582	926.65	43.75
1022.5728	2956.3462	926.6	40.7
1022.6865	2957.4335	925.85	39.8
1022.8002	2958.5202	927.75	38.9
1022.9138	2959.6062	927.5	41.55
1023.0274	2960.6916	923.75	38.45
1023.141	2961.7764	925.25	38.5
1023.2545	2962.8605	926.3	39.95
1023.3679	2963.9439	925.35	39.3
1023.4813	2965.0267	929.05	42.25
1023.5947	2966.1089	950.15	41.6
1023.708	2967.1905	926.25	39.9
1023.8213	2968.2714	924.2	40.85
1023.9346	2969.3516	925.8	41.1
1024.0478	2970.4312	931.9	38.35
1024.1609	2971.5102	923.95	38.75
1024.274	2972.5885	922.9	38.05
1024.3871	2973.6662	931.15	40.4
1024.5002	2974.7432	924.35	40.4
1024.6132	2975.8196	923.7	39.1
1024.7261	2976.8954	925.15	40.75
1024.839	2977.9705	924.8	39.7
1024.9519	2979.045	924.05	40.95
1025.0647	2980.1188	923.95	38.75
1025.1775	2981.192	924.25	39.2
1025.2902	2982.2645	924.35	37.55
1025.4029	2983.3364	923.3	36.9
1025.5156	2984.4077	920.1	34.95
1025.6282	2985.4783	929.1	36.55
1025.7407	2986.5483	921.55	38
1025.8532	2987.6177	917.65	35.1
1025.9657	2988.6864	918.55	31.55
1026.0782	2989.7545	918.05	31.4
1026.1906	2990.8219	915.85	30.3
1026.3029	2991.8887	918.75	30.75
1026.4152	2992.9548	915.45	29.65
1026.5275	2994.0204	911.1	25.45
1026.6397	2995.0852	910.7	28.35
1026.7519	2996.1495	911.35	24.55
1026.864	2997.2131	909.45	22.85
1026.9761	2998.276	908.75	23.25
1027.0882	2999.3383	909.5	24.05
1027.2002	3000.4	907.45	21.6
1027.3122	3001.4611	903.85	20.05
1027.4241	3002.5215	905.8	20
1027.536	3003.5812	905.35	21.4
1027.6478	3004.6404	903.15	15.85
1027.7596	3005.6989	907.65	20.25
1027.8714	3006.7567	902.35	17
1027.9831	3007.8139	934	18.5
1028.0947	3008.8705	905.05	21.1
1028.2064	3009.9264	916.4	11.7
1028.3179	3010.9818	899.4	13.25
1028.4295	3012.0364	903.75	17.1
1028.541	3013.0905	901.1	15.45
1028.6524	3014.1439	901.15	15.5
1028.7638	3015.1966	899.65	14.55
1028.8752	3016.2487	901.55	16.65
1028.9865	3017.3002	909.25	16.95
1029.0978	3018.3511	899.8	15.7
1029.209	3019.4013	898.1	11.15
1029.3202	3020.4509	899.2	14.1
1029.4314	3021.4998	901.25	14.65
1029.5425	3022.5481	897.25	10.9
1029.6535	3023.5958	899.75	14.95
1029.7645	3024.6428	901.35	13.85
1029.8755	3025.6892	897.6	12.8
1029.9864	3026.735	899.05	13.2
1030.0973	3027.7802	901	17.8
1030.2082	3028.8247	896.8	10.2
1030.319	3029.8685	900.5	14.25
1030.4297	3030.9118	901.2	15.5
1030.5404	3031.9544	899.15	12.95
1030.6511	3032.9963	898.45	12.95
1030.7617	3034.0376	896.85	11.9
1030.8723	3035.0783	901.35	11.9
1030.9829	3036.1184	901.3	14.8
1031.0934	3037.1578	897.65	14.5
1031.2038	3038.1966	899.55	12.8
1031.3142	3039.2348	898.4	15.4
1031.4246	3040.2723	907.85	16.45
1031.5349	3041.3092	901.65	17.85
1031.6452	3042.3455	899.3	13.3
1031.7554	3043.3811	899.85	12.05
1031.8656	3044.4161	901.85	14.45
1031.9758	3045.4505	896.8	13.4
1032.0859	3046.4842	898.45	10.3
1032.1959	3047.5173	899.65	14
1032.3059	3048.5498	899.3	12.4
1032.4159	3049.5816	901.2	17.1
1032.5258	3050.6128	901.2	15.5
1032.6357	3051.6434	900.9	13.8
1032.7455	3052.6734	898.65	11.8
1032.8553	3053.7027	900.65	16.55
1032.9651	3054.7314	897.35	13.75
1033.0748	3055.7594	899.85	13.7
1033.1845	3056.7868	901.55	17.35
1033.2941	3057.8136	899.5	13.5
1033.4037	3058.8398	898.05	13.7
1033.5132	3059.8653	900.3	15.15
1033.6227	3060.8902	898.6	14.55
1033.7321	3061.9145	899.9	15
1033.8415	3062.9381	902.45	16.5
1033.9509	3063.9612	914.55	13.65
1034.0602	3064.9835	901	15.15
1034.1694	3066.0053	902.65	15.2
1034.2787	3067.0264	901	17.3
1034.3878	3068.0469	900.55	15.15
1034.497	3069.0668	901	13.1
1034.6061	3070.086	899.05	13.95
1034.7151	3071.1046	902.4	15.95
1034.8241	3072.1226	901.35	15.55
1034.9331	3073.1399	899.5	15.25
1035.042	3074.1567	900.25	13.15
1035.1508	3075.1727	899.7	13.5
1035.2597	3076.1882	896.7	12.8
1035.3684	3077.203	897.4	11.75
1035.4772	3078.2173	900.35	12.4
1035.5859	3079.2308	900.55	10.55
1035.6945	3080.2438	901.65	15.05
1035.8031	3081.2561	897.65	12.75
1035.9117	3082.2678	899.6	14.4
1036.0202	3083.2789	897.2	12.1
1036.1286	3084.2893	898.2	14.15
1036.2371	3085.2991	896.9	11.1
1036.3454	3086.3083	901.15	9.4
1036.4538	3087.3169	898.3	10.65
1036.562	3088.3248	899.6	12.1
1036.6703	3089.3321	897.65	10.3
1036.7785	3090.3388	893.55	9.2
1036.8866	3091.3449	896.35	10.3
1036.9948	3092.3503	899.7	14.75
1037.1028	3093.3551	895.35	10.7
1037.2108	3094.3593	893.65	9.25
1037.3188	3095.3629	893.75	10.3
1037.4267	3096.3658	894.2	6.6
1037.5346	3097.3681	892.85	8.2
1037.6425	3098.3698	896.05	8.45
1037.7503	3099.3708	897.9	12.5
1037.858	3100.3713	895.25	10.8
1037.9657	3101.3711	896.65	9.3
1038.0734	3102.3702	1033.4	9.3
1038.181	3103.3688	896.55	9.5
1038.2886	3104.3667	895.5	12.1
1038.3961	3105.364	893.65	7.7
1038.5036	3106.3607	894.7	8.65
1038.611	3107.3568	896.3	7.6
1038.7184	3108.3522	893.55	8.25
1038.8257	3109.347	895.05	8.7
1038.933	3110.3412	899.9	10.4
1039.0403	3111.3348	894.05	7.8
1039.1475	3112.3277	891.9	4.9
1039.2547	3113.32	893.3	10.25
1039.3618	3114.3117	894.25	6.3
1039.4689	3115.3028	894.2	8.55
1039.5759	3116.2932	894.35	7.45
1039.6829	3117.2831	900.95	8.75
1039.7898	3118.2723	893.6	8.15
1039.8967	3119.2608	894.35	6.65
1040.0035	3120.2488	892.75	7.25
1040.1103	3121.2361	893.75	8.55
1040.2171	3122.2229	893.25	8.2
1040.3238	3123.209	893.15	6.8
1040.4305	3124.1944	894	9.5
1040.5371	3125.1793	893.85	7.7
1040.6437	3126.1635	893	6.95
1040.7502	3127.1471	892.8	6.1
1040.8567	3128.1301	893.15	8
1040.9631	3129.1125	892.65	7.25
1041.0695	3130.0942	893.35	7.9
1041.1759	3131.0753	901.85	8.35
1041.2822	3132.0558	895.2	5.65
1041.3884	3133.0357	893.95	9.25
1041.4946	3134.015	893.5	5.25
1041.6008	3134.9936	891.45	6.15
1041.7069	3135.9716	910.8	4.9
1041.813	3136.949	890.9	4.85
1041.919	3137.9258	910.15	7
1042.025	3138.902	898.85	6.45
1042.1309	3139.8775	891.6	7.85
1042.2368	3140.8524	889.35	4.4
1042.3427	3141.8267	893.2	4.9
1042.4485	3142.8004	892.25	4.8
1042.5542	3143.7735	898	4
1042.6599	3144.7459	897.3	8.8
1042.7656	3145.7178	892.6	6.9
1042.8712	3146.689	890.7	7.2
1042.9768	3147.6596	891.75	4.45
1043.0823	3148.6295	891.9	6.4
1043.1878	3149.5989	892.45	7.8
1043.2932	3150.5676	889.95	6
1043.3986	3151.5357	889.45	6.4
1043.5039	3152.5032	891.65	7.95
1043.6092	3153.4701	892.85	8.25
1043.7145	3154.4364	894.3	6.8
1043.8197	3155.402	889.55	7.6
1043.9248	3156.367	892.45	6.95
1044.03	3157.3315	911	6.8
1044.135	3158.2952	892.7	6.65
1044.24	3159.2584	890.85	6.2
1044.345	3160.221	892.25	5.7
1044.4499	3161.1829	893.85	11.25
1044.5548	3162.1442	890.35	5.15
1044.6596	3163.105	891.1	4
1044.7644	3164.065	893.2	8.05
1044.8692	3165.0245	894.25	7.1
1044.9739	3165.9834	888.1	4.05
1045.0785	3166.9416	892	7.55
1045.1831	3167.8993	891.6	4.95
1045.2877	3168.8563	891.8	4.85
1045.3922	3169.8127	891.6	6.75
1045.4966	3170.7684	890.45	4.45
1045.6011	3171.7236	891.7	7.2
1045.7054	3172.6782	890.95	4.6
1045.8098	3173.6321	891.95	4.6
1045.914	3174.5854	895.8	4.9
1046.0183	3175.5381	891.2	5.9
1046.1224	3176.4902	889.55	4.3
1046.2266	3177.4417	889.95	4.35
1046.3307	3178.3926	887.95	2.95
1046.4347	3179.3428	887.4	5.55
1046.5387	3180.2924	890.6	5.1
1046.6427	3181.2415	890.6	5
1046.7466	3182.1899	894.05	6.85
1046.8504	3183.1377	890.9	5
1046.9542	3184.0848	891.9	3.25
1047.058	3185.0314	891.5	6.35
1047.1617	3185.9773	890.2	3.85
1047.2654	3186.9227	891.3	3.6
1047.369	3187.8674	890.55	5.8
1047.4726	3188.8115	895.15	7.85
1047.5761	3189.755	889.05	2.25
1047.6796	3190.6979	889.9	4.15
1047.783	3191.6402	890.85	5.6
1047.8864	3192.5818	891.6	4.85
1047.9898	3193.5229	904.05	3.65
1048.0931	3194.4633	890.25	4.65
1048.1963	3195.4031	890.45	4.05
1048.2995	3196.3423	887.2	1.85
1048.4027	3197.2809	889.55	5.65
1048.5058	3198.2189	888.6	1.8
1048.6089	3199.1563	901.9	9.95
1048.7119	3200.0931	889.9	4.6
1048.8148	3201.0292	889.9	6.5
1048.9178	3201.9648	890.8	4.45
1049.0206	3202.8997	892.5	2.9
1049.1235	3203.834	891	5.6
1049.2262	3204.7677	888.6	2.85
1049.329	3205.7008	890.25	3.4
1049.4317	3206.6333	887.8	5
1049.5343	3207.5652	893.6	5.6
1049.6369	3208.4964	888.85	1.65
1049.7394	3209.4271	890.95	5.65
1049.8419	3210.3571	888.8	5.3
1049.9444	3211.2865	892.05	5.85
1050.0468	3212.2154	890.9	6.05
1050.1491	3213.1436	894.3	7.05
1050.2514	3214.0712	896.15	4.05
1050.3537	3214.9982	888.5	2.95
1050.4559	3215.9246	888	2
1050.5581	3216.8503	888.65	5.55
1050.6602	3217.7755	891.4	3.5
1050.7623	3218.7001	891.5	7.1
1050.8643	3219.624	890.4	3.2
1050.9663	3220.5473	888.55	4.7
1051.0682	3221.4701	894.2	7.5
1051.1701	3222.3922	891.05	4.55
1051.2719	3223.3137	890.55	2.85
1051.3737	3224.2346	889	4.15
1051.4754	3225.1549	888.3	3.25
1051.5771	3226.0746	888	4.65
1051.6788	3226.9937	891.35	6.25
1051.7804	3227.9121	888.9	4.8
1051.8819	3228.83	888.8	2.25
1051.9834	3229.7473	891.1	3.9
1052.0849	3230.6639	889.3	3.5
1052.1863	3231.5799	887.25	3.4
1052.2876	3232.4954	891.5	2.95
1052.3889	3233.4102	889.5	4.35
1052.4902	3234.3244	889.95	4.9
1052.5914	3235.238	889.2	5
1052.6926	3236.151	915.55	5.45
1052.7937	3237.0634	888.1	0.9
1052.8948	3237.9752	889.15	4.25
1052.9958	3238.8864	890.3	2.95
1053.0968	3239.797	888.7	4.75
1053.1977	3240.7069	889.4	3
1053.2986	3241.6163	892.05	4.6
1053.3994	3242.5251	889.25	4.65
1053.5002	3243.4332	889.05	2.75
1053.6009	3244.3408	889.4	5.7
1053.7016	3245.2477	889.4	4.75
1053.8022	3246.154	891.55	4.3
1053.9028	3247.0598	890.15	3.7
1054.0034	3247.9649	889.35	3.15
1054.1039	3248.8694	889.85	5.4
1054.2043	3249.7733	888.65	3.75
1054.3047	3250.6766	887.65	0.95
1054.4051	3251.5793	890.2	3.55
1054.5054	3252.4814	888.75	5.7
1054.6056	3253.3829	887.2	3.3
1054.7058	3254.2838	889.2	3.05
1054.806	3255.1841	889.45	4.8
1054.9061	3256.0838	889.15	5.15
1055.0061	3256.9829	889.45	3.2
1055.1062	3257.8814	890.75	2.6
1055.2061	3258.7792	888.2	-0.3
1055.306	3259.6765	889.35	3.5
1055.4059	3260.5731	887.15	2.05
1055.5057	3261.4692	888.55	1.7
1055.6055	3262.3647	890.3	3.3
1055.7052	3263.2595	889.75	4.75
1055.8049	3264.1538	888.6	2.6
1055.9045	3265.0474	889.1	3.2
1056.0041	3265.9404	887.7	3.45
1056.1036	3266.8329	886.1	0.85
1056.2031	3267.7247	898.05	3.8
1056.3025	3268.616	887.15	4.05
1056.4019	3269.5066	888.65	3.3
1056.5013	3270.3966	890.6	2.25
1056.6005	3271.286	888.05	2.95
