Software Version:	3.9.2.0
Unit SN:	10000200
Spectrometer SN:	6960
Date:	3/14/2024 1:06:53 PM
Data Line Index:	25
Spectral Points:	2048
Integration time (ms):	125
Averages:	20
Delay (ms):	30000
Sequence Number:	1
Processing:	dark subtract
Laser Power (mW):	300
Laser Current (mA):	824
Laser Diode Temp (C):	25.1
Laser Case Temp (C):	28
System Temp (C):	28.1
Spectrometer Temp (C):	25.9
CCD Temp (C):	0.002
Secondary Temp (C):	20.004
Heatsink Temp (C):	23.909
CCDPCB Temp (C):	37.463
SecondaryPCB Temp (C):	35.24

Wavelength	RamanShift	Raw Counts	Dark Subtracted
787.061	30.1047	423.15	11.5
787.2016	32.3739	421.35	11.05
787.3422	34.6426	422.5	9.4
787.4828	36.9109	426.8	13.7
787.6235	39.1787	430.45	13.3
787.7642	41.4461	437.1	13.75
787.9049	43.7131	441.05	17.1
788.0456	45.9796	446	18.45
788.1863	48.2456	452.75	16.9
788.3271	50.5112	456.25	17.55
788.4679	52.7764	458.9	19.9
788.6087	55.0411	463.8	21.5
788.7496	57.3054	469.7	21.2
788.8904	59.5692	473.15	22.5
789.0313	61.8326	482.9	29.4
789.1722	64.0955	490.05	33.15
789.3132	66.3579	497.6	35.8
789.4541	68.6199	501.85	39.1
789.5951	70.8815	515.9	50
789.7361	73.1426	536.25	65.95
789.8771	75.4032	585.5	109.55
790.0181	77.6634	697.95	217.3
790.1592	79.9231	977	491.35
790.3003	82.1824	1548.05	1054.45
790.4414	84.4412	2533.15	2031
790.5825	86.6995	3853.45	3337.1
790.7237	88.9574	5166.15	4639.5
790.8648	91.2148	6093.15	5563.15
791.006	93.4717	6568.3	6032.9
791.1472	95.7282	6683.4	6142.8
791.2885	97.9842	6703.8	6161.65
791.4297	100.2398	6624.6	6078.7
791.571	102.4949	6527.4	5975.55
791.7123	104.7495	6396	5842.55
791.8536	107.0036	6274.75	5720.85
791.9949	109.2573	6148.25	5596.2
792.1363	111.5105	6024.3	5468.95
792.2777	113.7632	5915.3	5358.45
792.4191	116.0154	5827.15	5258.2
792.5605	118.2672	5773.3	5211.15
792.7019	120.5185	5711.1	5148.15
792.8434	122.7693	5659.3	5091.7
792.9849	125.0197	5605.95	5036.05
793.1264	127.2696	5562.4	4989.15
793.2679	129.519	5545.25	4970.35
793.4094	131.7679	5539.15	4963.5
793.551	134.0163	5490	4909.5
793.6926	136.2642	5461.8	4877.75
793.8342	138.5117	5410.35	4822.7
793.9758	140.7587	5360.1	4770.2
794.1175	143.0052	5310.45	4716.2
794.2591	145.2512	5235.95	4644.4
794.4008	147.4967	5188.25	4595.7
794.5425	149.7417	5142.1	4546.5
794.6842	151.9863	5105.05	4504.65
794.826	154.2304	5118.65	4514.95
794.9677	156.4739	5074.5	4466.95
795.1095	158.717	5067.05	4460.3
795.2513	160.9596	5054.55	4443.25
795.3931	163.2017	5022.85	4409.5
795.535	165.4433	4990.75	4374.85
795.6768	167.6844	4949.3	4330.55
795.8187	169.925	4898.6	4277.95
795.9606	172.1651	4856.6	4232.75
796.1025	174.4047	4811.65	4183.35
796.2445	176.6439	4757.1	4128.65
796.3864	178.8825	4739.45	4107.1
796.5284	181.1206	4726.7	4091.55
796.6704	183.3582	4697.75	4057.05
796.8124	185.5954	4669.6	4028.15
796.9544	187.832	4666.85	4023.25
797.0965	190.0681	4678.45	4031.25
797.2386	192.3037	4678.95	4030.85
797.3806	194.5388	4674.1	4020.45
797.5228	196.7734	4682.6	4027.55
797.6649	199.0075	4679.25	4019.05
797.807	201.2411	4715.75	4055.7
797.9492	203.4742	4723.35	4064.85
798.0914	205.7068	4747.3	4083.55
798.2336	207.9389	4772.7	4108.85
798.3758	210.1704	4784.95	4118.3
798.518	212.4015	4784.25	4112.95
798.6603	214.632	4825.85	4156.45
798.8025	216.862	4811.8	4151.4
798.9448	219.0915	4834.85	4182.7
799.0871	221.3205	4832.75	4181.1
799.2294	223.549	4847.25	4199.35
799.3718	225.777	4853.25	4205.2
799.5141	228.0044	4862.5	4208.95
799.6565	230.2314	4865.95	4217.3
799.7989	232.4578	4878.7	4224.9
799.9413	234.6837	4883.5	4224.35
800.0837	236.909	4883.15	4223.35
800.2262	239.1339	4906.15	4221.85
800.3687	241.3582	4886.2	4214.85
800.5111	243.582	4900.15	4204.15
800.6536	245.8053	4866.9	4176
800.7961	248.0281	4880.15	4193.95
800.9387	250.2503	4845	4154.55
801.0812	252.472	4843.75	4150.35
801.2238	254.6932	4882.35	4187.25
801.3664	256.9139	4873.85	4176.65
801.509	259.134	4909.75	4212
801.6516	261.3536	4923.35	4225.15
801.7942	263.5727	4956.9	4256.85
801.9369	265.7912	4982.65	4281.05
802.0795	268.0092	5044.75	4345.45
802.2222	270.2267	5068.9	4365.8
802.3649	272.4436	5101.65	4396.45
802.5076	274.6601	5134.1	4421.7
802.6504	276.8759	5107.1	4396.9
802.7931	279.0913	5107.85	4402.15
802.9359	281.3061	5101	4391.7
803.0787	283.5204	5106.55	4394.4
803.2215	285.7341	5088.55	4371.25
803.3643	287.9473	5116.15	4397.75
803.5071	290.16	5103.75	4379.4
803.6499	292.3721	5109.65	4395.25
803.7928	294.5837	5088.05	4370.25
803.9357	296.7947	5095.8	4378.15
804.0786	299.0052	5096.85	4379.6
804.2215	301.2152	5124	4402.05
804.3644	303.4246	5115.95	4399.7
804.5074	305.6334	5077.3	4358.35
804.6503	307.8418	5023.4	4301
804.7933	310.0495	4981.65	4257.75
804.9363	312.2568	4894.75	4171.35
805.0793	314.4635	4841.7	4117.55
805.2223	316.6696	4784.45	4058.15
805.3653	318.8752	4753.25	4019.55
805.5084	321.0802	4722.75	3994.3
805.6514	323.2847	4714.85	3986.55
805.7945	325.4887	4703.2	3973.3
805.9376	327.692	4711.15	3979.95
806.0807	329.8949	4732.65	3999.85
806.2238	332.0972	4712.4	3979.35
806.367	334.2989	4694.35	3955
806.5101	336.5001	4649.6	3912.45
806.6533	338.7007	4612.3	3875.6
806.7965	340.9008	4594.1	3857.05
806.9397	343.1003	4543.35	3803.1
807.0829	345.2992	4526	3785.5
807.2261	347.4976	4502.2	3759.6
807.3693	349.6955	4479.65	3733.2
807.5126	351.8927	4471.65	3723.55
807.6559	354.0895	4441	3682.7
807.7991	356.2856	4435.5	3682.7
807.9424	358.4812	4426.5	3678.3
808.0857	360.6763	4420.9	3670.2
808.2291	362.8707	4413.9	3663.65
808.3724	365.0646	4418.1	3662.4
808.5158	367.258	4426.75	3671.7
808.6591	369.4508	4424.75	3664.2
808.8025	371.643	4436.9	3677.8
808.9459	373.8346	4448.5	3686.15
809.0893	376.0257	4455.4	3688.45
809.2327	378.2162	4470.5	3704.2
809.3762	380.4062	4463.35	3695.25
809.5196	382.5956	4437.55	3668.85
809.6631	384.7844	4414.3	3648.65
809.8066	386.9726	4406.8	3636.35
809.9501	389.1603	4366.5	3598.8
810.0936	391.3474	4377.7	3575.2
810.2371	393.5339	4344.95	3571.7
810.3806	395.7199	4327.25	3563.4
810.5241	397.9052	4342.8	3580.3
810.6677	400.09	4337.25	3575.7
810.8113	402.2743	4364.95	3599.75
810.9548	404.4579	4375.6	3615.2
811.0984	406.641	4414.7	3653.35
811.2421	408.8235	4461.2	3698.55
811.3857	411.0054	4484.6	3721.75
811.5293	413.1868	4560.05	3793.75
811.673	415.3675	4630.55	3862.8
811.8166	417.5477	4620.4	3852.75
811.9603	419.7273	4560.05	3788.85
812.104	421.9064	4476.05	3697.05
812.2477	424.0848	4410.8	3632
812.3914	426.2627	4391.75	3613.25
812.5351	428.4399	4353.55	3575.65
812.6788	430.6166	4304.5	3520.8
812.8226	432.7928	4240.15	3455.05
812.9663	434.9683	4181.3	3397.75
813.1101	437.1432	4147.2	3358.55
813.2539	439.3176	4096.15	3310.4
813.3977	441.4914	4089.2	3303.25
813.5415	443.6645	4073.55	3285.1
813.6853	445.8371	4045.45	3254.2
813.8291	448.0091	4063.25	3275.75
813.973	450.1806	4043.15	3255.1
814.1168	452.3514	4024.3	3228.9
814.2607	454.5216	4035.45	3233.25
814.4046	456.6913	4016.15	3220.15
814.5485	458.8603	4024.7	3230.7
814.6924	461.0288	4018.55	3224.15
814.8363	463.1967	3995.1	3204.15
814.9802	465.3639	4011.65	3214.7
815.1241	467.5306	3997.3	3202.65
815.2681	469.6967	3986.45	3188.8
815.412	471.8622	3964.75	3170.45
815.556	474.0271	3983.1	3185.9
815.7	476.1914	3975.05	3173.95
815.844	478.3551	3973.3	3174.85
815.988	480.5182	3972.5	3171.9
816.132	482.6807	3990.4	3187.3
816.276	484.8426	4012.65	3211.1
816.4201	487.0039	4052.1	3250.95
816.5641	489.1647	4112.1	3310.8
816.7082	491.3248	4153.05	3351.2
816.8522	493.4843	4160.9	3359.25
816.9963	495.6432	4153.9	3352.2
817.1404	497.8015	4126.55	3322.6
817.2845	499.9592	4104.55	3301.4
817.4286	502.1163	4055.45	3253.7
817.5727	504.2728	4001.55	3195.8
817.7168	506.4287	3978.65	3174.2
817.861	508.5839	3914.9	3109
818.0051	510.7386	3886.05	3081
818.1493	512.8927	3891.95	3077.5
818.2935	515.0461	3870.25	3062.55
818.4377	517.199	3874	3064.95
818.5818	519.3512	3906.8	3098.9
818.726	521.5029	3942.05	3129.1
818.8703	523.6539	3983.9	3175.95
819.0145	525.8043	3993	3182.2
819.1587	527.9541	3973.8	3160.55
819.303	530.1033	3937.3	3125.45
819.4472	532.2519	3921.05	3106.65
819.5915	534.3999	3882.2	3067.2
819.7357	536.5472	3882.15	3067.5
819.88	538.694	3894.45	3082.05
820.0243	540.8401	3927.05	3113.7
820.1686	542.9856	3962.95	3147.4
820.3129	545.1305	3963.2	3146.55
820.4572	547.2748	3951.45	3134.95
820.6016	549.4185	3923.3	3106
820.7459	551.5615	3901.75	3081.95
820.8902	553.704	3919.1	3100.15
821.0346	555.8458	3919.85	3104.2
821.1789	557.987	3929.65	3114.3
821.3233	560.1276	3947	3129.1
821.4677	562.2675	4003.25	3187.35
821.6121	564.4069	4076.7	3257.7
821.7565	566.5456	4125.5	3308.4
821.9009	568.6837	4172.35	3352.35
822.0453	570.8212	4104.5	3288.05
822.1897	572.958	4015.25	3195.35
822.3342	575.0942	3911.95	3094.95
822.4786	577.2299	3860.3	3041.35
822.6231	579.3648	3794.5	2975.05
822.7675	581.4992	3771.95	2952.35
822.912	583.6329	3770.15	2949.55
823.0565	585.766	3792.05	2971.3
823.201	587.8985	3810.25	2990.9
823.3454	590.0304	3822.7	2976.4
823.4899	592.1616	3828.1	3002.45
823.6345	594.2922	3800.2	2975.6
823.779	596.4222	3779.75	2955.9
823.9235	598.5515	3723.9	2899.05
824.068	600.6802	3695.1	2870.65
824.2126	602.8083	3657.45	2831.05
824.3571	604.9358	3644.45	2818.15
824.5017	607.0626	3658.85	2831.5
824.6462	609.1888	3665.9	2838.6
824.7908	611.3144	3691.4	2863.3
824.9354	613.4393	3713.4	2885.2
825.08	615.5636	3721.15	2893.35
825.2246	617.6873	3733.35	2905.2
825.3692	619.8103	3751.45	2922.9
825.5138	621.9327	3706.95	2876.35
825.6584	624.0544	3683.55	2855.95
825.803	626.1756	3632.85	2802.7
825.9477	628.2961	3599.35	2769.95
826.0923	630.4159	3586.55	2755.8
826.237	632.5351	3585.75	2754.2
826.3816	634.6537	3571.35	2739.35
826.5263	636.7716	3575.05	2742.05
826.6709	638.8889	3573.45	2742.7
826.8156	641.0056	3584.6	2752.6
826.9603	643.1216	3578.7	2744.9
827.105	645.237	3581.15	2746.25
827.2497	647.3518	3550.9	2718.2
827.3944	649.4659	3531.55	2695.6
827.5391	651.5793	3528.6	2693.45
827.6838	653.6922	3512.05	2677.7
827.8285	655.8043	3489.9	2654.55
827.9733	657.9159	3500.6	2665.35
828.118	660.0268	3492.5	2653.75
828.2627	662.137	3494.05	2657.3
828.4075	664.2466	3480.15	2642.9
828.5522	666.3556	3477.9	2640.5
828.697	668.4639	3464.95	2626.25
828.8418	670.5716	3465.1	2627.05
828.9865	672.6786	3446.1	2606.25
829.1313	674.785	3432.95	2591.8
829.2761	676.8907	3416.75	2577.85
829.4209	678.9958	3413.65	2576.25
829.5657	681.1002	3408.15	2569
829.7105	683.204	3398.05	2553.3
829.8553	685.3072	3401	2558.95
830.0001	687.4097	3390.35	2550.45
830.1449	689.5115	3392.75	2548.25
830.2898	691.6127	3394.85	2553
830.4346	693.7132	3390.65	2546.5
830.5794	695.8131	3408.95	2551.2
830.7243	697.9123	3376.65	2529.75
830.8691	700.0109	3380.95	2535.7
831.014	702.1089	3383.05	2541
831.1588	704.2061	3406.8	2564.3
831.3037	706.3028	3400	2554.5
831.4486	708.3987	3402.55	2557.65
831.5935	710.4941	3420.2	2575.8
831.7383	712.5887	3418.8	2572
831.8832	714.6827	3429	2581.1
832.0281	716.7761	3435.4	2590.7
832.173	718.8688	3441.85	2593.2
832.3179	720.9608	3451.85	2601.8
832.4628	723.0522	3470.75	2621.15
832.6077	725.1429	3468.45	2623.65
832.7527	727.233	3502.5	2656.15
832.8976	729.3224	3526.15	2682.55
833.0425	731.4112	3515.15	2666.4
833.1874	733.4993	3501	2651.6
833.3324	735.5867	3467.05	2616.85
833.4773	737.6735	3421.3	2571.2
833.6222	739.7596	3397.95	2547.35
833.7672	741.845	3383.15	2534.65
833.9122	743.9298	3377.5	2528.8
834.0571	746.014	3371.85	2524.8
834.2021	748.0974	3362.6	2512.4
834.347	750.1802	3357.3	2506.55
834.492	752.2624	3350.65	2499.45
834.637	754.3439	3340.55	2488.6
834.782	756.4247	3337.75	2479.5
834.9269	758.5048	3339.6	2488.45
835.0719	760.5843	3357.4	2506.35
835.2169	762.6631	3400.35	2549.95
835.3619	764.7413	3462.75	2611.3
835.5069	766.8188	3560.9	2708.65
835.6519	768.8956	3637.9	2784.25
835.7969	770.9718	3708.15	2856.35
835.9419	773.0473	3702.85	2852.7
836.0869	775.1221	3671.75	2820.65
836.232	777.1962	3623.1	2772.1
836.377	779.2697	3630.7	2779.1
836.522	781.3426	3655.85	2793
836.667	783.4147	3690.7	2837
836.8121	785.4862	3691.15	2840.3
836.9571	787.557	3657.05	2802.2
837.1021	789.6271	3584.65	2730.55
837.2472	791.6966	3473.85	2620.85
837.3922	793.7654	3365.75	2509.95
837.5373	795.8335	3308.8	2455.45
837.6823	797.901	3247.8	2394.05
837.8274	799.9678	3218.45	2363
837.9724	802.0339	3195.1	2342.25
838.1175	804.0993	3209.45	2345.35
838.2626	806.1641	3174.85	2319.25
838.4076	808.2282	3162.6	2307.85
838.5527	810.2916	3162.75	2304
838.6978	812.3544	3142.4	2287.1
838.8428	814.4164	3131	2276.2
838.9879	816.4778	3132.8	2277.4
839.133	818.5385	3112.8	2260.65
839.2781	820.5986	3142.3	2286.85
839.4232	822.658	3183.05	2324.4
839.5682	824.7166	3212.5	2356.75
839.7133	826.7747	3284.45	2427.3
839.8584	828.832	3366.3	2509.95
840.0035	830.8886	3421.7	2561.8
840.1486	832.9446	3449.9	2590.45
840.2937	834.9999	3439.9	2585.15
840.4388	837.0545	3408.4	2547.4
840.5839	839.1085	3327.25	2468.7
840.729	841.1618	3285.6	2423.05
840.8741	843.2143	3234.35	2377.4
841.0192	845.2662	3190.1	2333.15
841.1643	847.3175	3170.85	2314
841.3095	849.368	3141.25	2283.8
841.4546	851.4179	3139.55	2281.25
841.5997	853.467	3118.5	2260.35
841.7448	855.5155	3133	2272.9
841.8899	857.5633	3094.9	2236.15
842.0351	859.6105	3082.75	2225.75
842.1802	861.6569	3084	2226.75
842.3253	863.7027	3050.25	2190.05
842.4704	865.7478	3046.2	2187
842.6156	867.7922	3032.9	2171.4
842.7607	869.8359	3028.9	2167
842.9058	871.8789	3026	2165.45
843.0509	873.9212	3055.45	2160.9
843.1961	875.9629	3044.4	2184.35
843.3412	878.0039	3045.55	2182.35
843.4863	880.0441	3060.05	2200.15
843.6315	882.0837	3059.05	2195.7
843.7766	884.1226	3070.25	2208.8
843.9218	886.1609	3085.6	2222.95
844.0669	888.1984	3115.3	2255.15
844.212	890.2352	3125.2	2266.3
844.3572	892.2714	3154.9	2289.55
844.5023	894.3069	3140.85	2278.9
844.6475	896.3416	3111.9	2249.95
844.7926	898.3757	3064.3	2202.25
844.9377	900.4091	3046	2184.1
845.0829	902.4418	3030.4	2163.45
845.228	904.4739	3050.05	2185.05
845.3732	906.5052	3056.75	2192.85
845.5183	908.5358	3047.9	2183.15
845.6635	910.5658	3033.35	2168.35
845.8086	912.595	2989.7	2127.45
845.9538	914.6236	2966	2100.7
846.0989	916.6515	2931.25	2068
846.2441	918.6786	2919.95	2054.3
846.3892	920.7051	2903.55	2038.85
846.5344	922.7309	2891.8	2026.35
846.6795	924.756	2901.1	2036.25
846.8246	926.7804	2913.95	2048.6
846.9698	928.8041	2905.4	2038.55
847.1149	930.8272	2923.4	2060.35
847.2601	932.8495	2913.2	2046.55
847.4052	934.8711	2903.5	2039.2
847.5504	936.892	2899.85	2033.45
847.6955	938.9123	2901.5	2035.9
847.8407	940.9318	2901.75	2034.6
847.9858	942.9506	2909.9	2042.8
848.131	944.9688	2908.75	2040.65
848.2761	946.9862	2888.2	2022.45
848.4213	949.003	2850.75	1983.9
848.5664	951.019	2818.55	1952
848.7115	953.0344	2810.15	1943.7
848.8567	955.0491	2795.1	1925.75
849.0018	957.063	2804.05	1937.95
849.147	959.0763	2815.65	1948.25
849.2921	961.0888	2810.65	1942.85
849.4373	963.1007	2812.8	1946.85
849.5824	965.1119	2824.05	1955.9
849.7275	967.1223	2807.95	1939.95
849.8727	969.1321	2808.8	1942.05
850.0178	971.1412	2800.65	1934.6
850.1629	973.1495	2790.75	1923.4
850.3081	975.1572	2816.8	1915.2
850.4532	977.1641	2803.7	1936.95
850.5983	979.1704	2777.25	1907.55
850.7435	981.1759	2768.65	1898.2
850.8886	983.1808	2771.25	1900.95
851.0337	985.1849	2764.55	1885.55
851.1788	987.1884	2768.35	1898.6
851.324	989.1911	2782.6	1910.3
851.4691	991.1932	2787.45	1916.5
851.6142	993.1945	2782.8	1916.2
851.7593	995.1951	2779.25	1909.15
851.9045	997.1951	2775.75	1901.15
852.0496	999.1943	2759.95	1891.95
852.1947	1001.1928	2754.4	1886.55
852.3398	1003.1906	2756.05	1886.75
852.4849	1005.1877	2784.75	1914.25
852.63	1007.1841	2773.8	1904.2
852.7751	1009.1798	2792.1	1922.75
852.9202	1011.1748	2802.7	1934.75
853.0653	1013.1691	2771.7	1900.6
853.2104	1015.1627	2726.15	1857.15
853.3555	1017.1556	2682.15	1812.35
853.5006	1019.1477	2670.95	1798.5
853.6457	1021.1392	2642.8	1773.4
853.7908	1023.1299	2632.85	1761.9
853.9359	1025.12	2620.05	1747.65
854.081	1027.1093	2637.1	1767.35
854.2261	1029.0979	2652.15	1785.15
854.3712	1031.0859	2661.9	1791.05
854.5163	1033.0731	2661	1789.55
854.6613	1035.0596	2663.3	1794.9
854.8064	1037.0454	2639.8	1770.9
854.9515	1039.0304	2615.55	1744.1
855.0965	1041.0148	2594.05	1726.15
855.2416	1042.9985	2583.7	1711.65
855.3867	1044.9814	2575.7	1706.05
855.5317	1046.9636	2561.4	1688.6
855.6768	1048.9452	2543.2	1673.65
855.8219	1050.926	2562.15	1690.2
855.9669	1052.9061	2562.45	1693.4
856.112	1054.8855	2565.2	1695.35
856.257	1056.8642	2577.1	1705
856.4021	1058.8421	2579.75	1705.2
856.5471	1060.8194	2579.3	1708.1
856.6921	1062.7959	2576.55	1704.95
856.8372	1064.7717	2579.4	1707.55
856.9822	1066.7469	2583.3	1711.7
857.1272	1068.7213	2593.4	1721.65
857.2723	1070.695	2592.6	1719.85
857.4173	1072.6679	2608.2	1734.8
857.5623	1074.6402	2613.8	1739.1
857.7073	1076.6117	2615.3	1736.85
857.8523	1078.5826	2592.6	1719.75
857.9973	1080.5527	2562.15	1684.7
858.1423	1082.5221	2536.5	1663.4
858.2873	1084.4908	2536.6	1665.85
858.4323	1086.4587	2512.15	1638.9
858.5773	1088.426	2523.3	1651.8
858.7223	1090.3925	2515.9	1637.95
858.8673	1092.3584	2521.4	1651.15
859.0123	1094.3235	2506.25	1635.85
859.1573	1096.2879	2528	1654
859.3022	1098.2515	2546.1	1672.15
859.4472	1100.2145	2562.9	1691.4
859.5922	1102.1767	2590.8	1716.45
859.7371	1104.1382	2628.1	1755.25
859.8821	1106.099	2670.7	1793.35
860.027	1108.0591	2706.4	1831.3
860.172	1110.0185	2718.45	1841.9
860.3169	1111.9771	2753.75	1882.05
860.4619	1113.9351	2738.75	1864.6
860.6068	1115.8923	2726.85	1853
860.7517	1117.8488	2707.3	1832.95
860.8967	1119.8045	2682.15	1807.45
861.0416	1121.7596	2654.65	1779.5
861.1865	1123.7139	2602.1	1728.4
861.3314	1125.6675	2588.05	1712.1
861.4763	1127.6204	2584.7	1709.9
861.6212	1129.5726	2596.3	1720.25
861.7661	1131.524	2569.65	1695.65
861.911	1133.4748	2556.2	1681.2
862.0559	1135.4248	2515.55	1641.3
862.2008	1137.3741	2489.6	1614.35
862.3457	1139.3226	2471.55	1595.95
862.4905	1141.2705	2462.65	1587.25
862.6354	1143.2176	2445.35	1565.7
862.7803	1145.164	2444.85	1569.15
862.9251	1147.1097	2429.7	1557.5
863.07	1149.0546	2404.7	1527.8
863.2148	1150.9989	2390.25	1516.2
863.3597	1152.9424	2367	1491.2
863.5045	1154.8852	2347.9	1473.9
863.6493	1156.8272	2333.6	1459.7
863.7942	1158.7686	2333.35	1450.2
863.939	1160.7092	2341.9	1465.7
864.0838	1162.6491	2338.5	1462.35
864.2286	1164.5883	2352.55	1476.55
864.3734	1166.5267	2364.7	1487.45
864.5182	1168.4644	2374.9	1499.7
864.663	1170.4014	2426.65	1545.9
864.8078	1172.3377	2442.55	1568.65
864.9526	1174.2732	2496.7	1621.6
865.0974	1176.2081	2547.25	1670.5
865.2421	1178.1421	2635.7	1757.65
865.3869	1180.0755	2705.25	1831.8
865.5317	1182.0082	2767.85	1891.9
865.6764	1183.9401	2796.95	1920.65
865.8212	1185.8713	2767.25	1891.75
865.9659	1187.8017	2706.5	1830.6
866.1106	1189.7315	2621.8	1747.35
866.2554	1191.6605	2570.55	1664.3
866.4001	1193.5888	2492.85	1618.2
866.5448	1195.5163	2461	1584.65
866.6895	1197.4432	2442.95	1567.55
866.8342	1199.3693	2419.6	1544.2
866.9789	1201.2947	2417.15	1536.35
867.1236	1203.2193	2409.7	1535.6
867.2683	1205.1432	2399	1520.15
867.413	1207.0664	2405.65	1529.8
867.5576	1208.9889	2399	1518.9
867.7023	1210.9106	2393.05	1519.35
867.847	1212.8316	2389.15	1513.15
867.9916	1214.7519	2409.15	1524.65
868.1363	1216.6715	2406.95	1530.5
868.2809	1218.5903	2411.15	1535.8
868.4255	1220.5084	2418.8	1540.25
868.5701	1222.4257	2432.45	1554.9
868.7148	1224.3424	2439.7	1564.55
868.8594	1226.2583	2467.6	1584.75
869.004	1228.1735	2488.2	1612.6
869.1486	1230.0879	2521.55	1642.95
869.2932	1232.0016	2560.55	1685.05
869.4377	1233.9146	2590.25	1711.4
869.5823	1235.8269	2586.65	1710.9
869.7269	1237.7384	2582.9	1705.8
869.8715	1239.6492	2566.6	1690.2
870.016	1241.5592	2562.35	1685.35
870.1606	1243.4686	2575.95	1696.85
870.3051	1245.3772	2593.85	1719.25
870.4496	1247.285	2652.25	1774.65
870.5941	1249.1922	2684.45	1808.15
870.7387	1251.0986	2724.6	1850.85
870.8832	1253.0042	2763.95	1887.7
871.0277	1254.9092	2801.35	1922.85
871.1722	1256.8134	2817.65	1940.75
871.3167	1258.7169	2840.55	1963.6
871.4611	1260.6196	2860.8	1983.05
871.6056	1262.5216	2896.15	2018.75
871.7501	1264.4229	2908.5	2030.35
871.8945	1266.3234	2934.7	2056.5
872.039	1268.2232	2950.3	2072.55
872.1834	1270.1223	2953.15	2074.05
872.3278	1272.0207	2939.75	2061.25
872.4723	1273.9183	2937.8	2053
872.6167	1275.8151	2920.9	2042.55
872.7611	1277.7113	2924.8	2046.95
872.9055	1279.6067	2925.7	2047.5
873.0499	1281.5014	2999.95	2118.8
873.1943	1283.3953	3080.7	2201.7
873.3386	1285.2885	3192.25	2313.6
873.483	1287.181	3298.45	2418.55
873.6274	1289.0727	3420.35	2543.35
873.7717	1290.9637	3492.05	2614.05
873.9161	1292.854	3534.65	2656.7
874.0604	1294.7435	3542.55	2664.1
874.2047	1296.6323	3507.35	2629.4
874.349	1298.5204	3436.3	2554.05
874.4933	1300.4077	3380.7	2501.6
874.6376	1302.2943	3307.35	2428.8
874.7819	1304.1802	3236.55	2357.75
874.9262	1306.0653	3161	2280.75
875.0705	1307.9497	3067.9	2189.75
875.2147	1309.8333	2980.45	2102.35
875.359	1311.7162	2924.45	2044.65
875.5032	1313.5984	2879.35	1998.35
875.6475	1315.4798	2877.75	1982.75
875.7917	1317.3605	2836	1952.1
875.9359	1319.2405	2839.05	1959.55
876.0801	1321.1197	2814.75	1932.75
876.2243	1322.9982	2766.85	1884.75
876.3685	1324.876	2709.65	1832.35
876.5127	1326.753	2640.75	1761.3
876.6569	1328.6293	2594.65	1714.1
876.801	1330.5048	2541.2	1659.85
876.9452	1332.3796	2493.95	1617.6
877.0893	1334.2537	2476	1570.85
877.2335	1336.127	2436.75	1556.55
877.3776	1337.9996	2417.4	1537.8
877.5217	1339.8714	2406.95	1526.8
877.6658	1341.7426	2434.05	1509.4
877.8099	1343.6129	2410.5	1534.45
877.954	1345.4826	2392.95	1513.55
878.0981	1347.3515	2389.85	1507.65
878.2422	1349.2196	2367.3	1487.6
878.3862	1351.087	2371.4	1491.15
878.5303	1352.9537	2386.9	1506.55
878.6743	1354.8197	2405.6	1526.8
878.8184	1356.6849	2406.35	1527.35
878.9624	1358.5493	2431.9	1553.9
879.1064	1360.4131	2460.5	1581.3
879.2504	1362.276	2493.05	1614.8
879.3944	1364.1383	2505.3	1626.95
879.5384	1365.9998	2501.25	1615.3
879.6823	1367.8606	2456.6	1575.05
879.8263	1369.7206	2422.85	1542.95
879.9702	1371.5799	2393.6	1511.5
880.1142	1373.4384	2360.35	1480.4
880.2581	1375.2962	2331.75	1451.4
880.402	1377.1533	2276.8	1398.4
880.5459	1379.0096	2224.95	1346.25
880.6898	1380.8652	2181.25	1300.75
880.8337	1382.7201	2134.4	1255.65
880.9776	1384.5742	2108.75	1229.25
881.1215	1386.4275	2067.45	1188
881.2653	1388.2802	2058.65	1179.55
881.4092	1390.132	2036.8	1156.25
881.553	1391.9832	2034.6	1153.65
881.6968	1393.8336	2024.35	1145.6
881.8406	1395.6832	2013.45	1132.25
881.9844	1397.5322	2000.95	1120.3
882.1282	1399.3803	2003.7	1117.75
882.272	1401.2278	1987.75	1107.3
882.4158	1403.0745	1980.5	1099.2
882.5595	1404.9204	1981.55	1102.25
882.7033	1406.7656	1972.45	1092.15
882.847	1408.6101	1968.35	1088.85
882.9908	1410.4538	1971.65	1090.7
883.1345	1412.2968	1972.45	1091.35
883.2782	1414.139	1974.3	1095.4
883.4219	1415.9805	1989.95	1110.75
883.5656	1417.8213	2009.9	1124.6
883.7092	1419.6613	2014.85	1136.35
883.8529	1421.5006	2047.1	1164.45
883.9965	1423.3391	2072.5	1190.75
884.1402	1425.1769	2105.35	1223.7
884.2838	1427.0139	2172.2	1290.45
884.4274	1428.8502	2248.6	1367.5
884.571	1430.6858	2325.95	1445.45
884.7146	1432.5206	2378.6	1496.6
884.8582	1434.3547	2400.4	1520.95
885.0018	1436.188	2413.55	1534.5
885.1453	1438.0206	2402	1520.65
885.2889	1439.8524	2380.45	1499.7
885.4324	1441.6835	2354.35	1475
885.5759	1443.5139	2336.25	1450.65
885.7194	1445.3435	2339.1	1456.75
885.8629	1447.1724	2345.1	1464.45
886.0064	1449.0005	2326.9	1448.5
886.1499	1450.8279	2312.55	1430
886.2933	1452.6545	2312	1432.7
886.4368	1454.4804	2315.3	1435.15
886.5802	1456.3056	2314.45	1428.25
886.7237	1458.13	2310.9	1430.25
886.8671	1459.9536	2281.9	1400.2
887.0105	1461.7766	2234	1352.8
887.1539	1463.5987	2194.65	1312.5
887.2972	1465.4202	2154.95	1273.2
887.4406	1467.2409	2105.1	1225
887.584	1469.0608	2060.1	1180.9
887.7273	1470.88	2019.3	1137.75
887.8706	1472.6984	1981.35	1101.35
888.0139	1474.5161	1957.45	1074.3
888.1572	1476.3331	1944.2	1063.2
888.3005	1478.1493	1916.1	1033.55
888.4438	1479.9648	1910.75	1031.1
888.5871	1481.7795	1904	1023.4
888.7303	1483.5935	1894.2	1015.85
888.8736	1485.4067	1880.2	998.5
889.0168	1487.2192	1887.45	1007.45
889.16	1489.031	1885.45	1002.15
889.3032	1490.842	1881.9	1000.6
889.4464	1492.6522	1865.85	986.3
889.5896	1494.4618	1861.2	980
889.7327	1496.2705	1853.85	971.55
889.8759	1498.0785	1861.5	978.9
890.019	1499.8858	1848.75	967.85
890.1622	1501.6924	1847.25	967.2
890.3053	1503.4981	1840.95	960.05
890.4484	1505.3032	1831.55	952.2
890.5914	1507.1075	1812.95	931.85
890.7345	1508.911	1805.2	924.05
890.8776	1510.7138	1818.1	935.15
891.0206	1512.5159	1797.85	916.9
891.1637	1514.3172	1792.7	910.5
891.3067	1516.1178	1779.7	900.05
891.4497	1517.9176	1787.8	904.2
891.5927	1519.7166	1773.85	894.75
891.7357	1521.515	1781.75	892.9
891.8786	1523.3126	1761.35	879.95
892.0216	1525.1094	1767.9	883.95
892.1645	1526.9055	1754.95	875.15
892.3074	1528.7008	1747.55	864.85
892.4503	1530.4954	1754.8	868.2
892.5932	1532.2893	1747.55	866.75
892.7361	1534.0824	1743.4	858.1
892.879	1535.8747	1740.4	859.65
893.0218	1537.6663	1738.15	855.75
893.1647	1539.4572	1727.6	845.15
893.3075	1541.2473	1734.2	851.45
893.4503	1543.0367	1724.55	844.05
893.5931	1544.8253	1733.3	847.75
893.7359	1546.6132	1735.4	851.65
893.8787	1548.4003	1752.3	860.9
894.0214	1550.1867	1754	864.1
894.1642	1551.9723	1749.3	863.35
894.3069	1553.7572	1769.25	886.4
894.4496	1555.5414	1779.7	896.55
894.5923	1557.3247	1794.85	912.3
894.735	1559.1074	1828.3	949.1
894.8777	1560.8893	1843.05	963.2
895.0204	1562.6705	1867.35	986.15
895.163	1564.4509	1892	1011.4
895.3056	1566.2305	1897.85	1018.45
895.4482	1568.0094	1898.95	1016.85
895.5908	1569.7876	1918.65	1038.85
895.7334	1571.565	1920.2	1039.3
895.876	1573.3417	1913.6	1032.3
896.0186	1575.1176	1919.4	1037.7
896.1611	1576.8928	1916.4	1033.7
896.3036	1578.6672	1919.6	1037.85
896.4461	1580.4409	1937.7	1056.2
896.5886	1582.2138	1944.75	1063.8
896.7311	1583.986	1958.65	1077.9
896.8736	1585.7575	1969.1	1090.05
897.0161	1587.5282	1995.85	1114.25
897.1585	1589.2981	1999.4	1117.8
897.3009	1591.0673	2026.75	1145.75
897.4433	1592.8358	2040.4	1160.65
897.5857	1594.6035	2046.6	1163.6
897.7281	1596.3704	2049.55	1166.5
897.8705	1598.1366	2051.8	1170.8
898.0128	1599.9021	2055.2	1174.55
898.1551	1601.6668	2045.55	1161.8
898.2975	1603.4308	2073.7	1190.8
898.4398	1605.194	2080.9	1194.35
898.5821	1606.9564	2092.35	1211.75
898.7243	1608.7182	2129.9	1244.7
898.8666	1610.4791	2168.85	1288.05
899.0088	1612.2394	2235.45	1353.85
899.1511	1613.9988	2287.5	1404.75
899.2933	1615.7576	2349	1467.6
899.4355	1617.5156	2411.25	1523.95
899.5776	1619.2728	2407.5	1527.25
899.7198	1621.0293	2400.7	1520.2
899.862	1622.785	2356.35	1474.2
900.0041	1624.54	2289.75	1406.85
900.1462	1626.2942	2218.45	1335.4
900.2883	1628.0477	2150.5	1266.25
900.4304	1629.8005	2076.3	1191.7
900.5725	1631.5525	2021.25	1137.85
900.7145	1633.3037	1959.45	1076.1
900.8566	1635.0542	1917.9	1037.6
900.9986	1636.804	1876.6	992.65
901.1406	1638.553	1915.55	971.6
901.2826	1640.3013	1838.15	958.25
901.4245	1642.0488	1812.5	929.65
901.5665	1643.7955	1812.2	932.9
901.7085	1645.5416	1808.25	925.9
901.8504	1647.2868	1816.8	937.35
901.9923	1649.0313	1802.15	919.45
902.1342	1650.7751	1822.85	937.7
902.2761	1652.5181	1833.85	954.25
902.4179	1654.2604	1835.05	952.3
902.5598	1656.0019	1852	971.3
902.7016	1657.7427	1879.1	996.8
902.8434	1659.4828	1903.15	1022.95
902.9852	1661.222	1924.15	1041.45
903.127	1662.9606	1943.15	1062.75
903.2687	1664.6984	1937.8	1055.85
903.4105	1666.4354	1906.55	1023.6
903.5522	1668.1717	1844.8	962.15
903.6939	1669.9072	1774.2	892.65
903.8356	1671.642	1729.55	844.15
903.9773	1673.3761	1674.65	794.25
904.119	1675.1094	1630.95	751.05
904.2606	1676.8419	1606	723
904.4022	1678.5737	1581.5	699.8
904.5439	1680.3048	1566.35	682.35
904.6855	1682.0351	1554.5	675.5
904.827	1683.7646	1535.4	651.8
904.9686	1685.4934	1532.65	653.35
905.1101	1687.2215	1518.15	637.2
905.2517	1688.9488	1508.65	626.6
905.3932	1690.6754	1503.2	624.45
905.5347	1692.4012	1507.1	626.85
905.6761	1694.1263	1497.55	616.7
905.8176	1695.8506	1483.8	603.5
905.9591	1697.5742	1483.75	603.35
906.1005	1699.297	1477.1	593.8
906.2419	1701.0191	1472.9	592.2
906.3833	1702.7404	1470.5	590.65
906.5246	1704.461	1461.75	579.1
906.666	1706.1808	1459.1	576.15
906.8073	1707.8999	1455.65	569.8
906.9487	1709.6182	1451.65	566.95
907.09	1711.3358	1443.45	563.6
907.2313	1713.0527	1445.5	565.4
907.3725	1714.7688	1438.4	551.8
907.5138	1716.4841	1443.5	559
907.655	1718.1987	1443.45	557.35
907.7962	1719.9126	1431.35	549.95
907.9374	1721.6257	1433.55	547.55
908.0786	1723.338	1434.3	551.3
908.2198	1725.0496	1424.55	542.75
908.3609	1726.7605	1427.05	543.8
908.502	1728.4706	1421.6	538.25
908.6431	1730.18	1417.8	533.75
908.7842	1731.8886	1419.25	536.5
908.9253	1733.5964	1420.85	536.3
909.0664	1735.3036	1422.25	539.85
909.2074	1737.0099	1413.2	531.9
909.3484	1738.7156	1405.5	523.95
909.4894	1740.4204	1409.4	525.6
909.6304	1742.1246	1402.25	519.5
909.7714	1743.8279	1398.95	518.45
909.9123	1745.5306	1394.95	511.35
910.0532	1747.2325	1394.45	513.6
910.1941	1748.9336	1395.1	512.25
910.335	1750.634	1389.45	506.1
910.4759	1752.3336	1390.55	508.45
910.6168	1754.0325	1391.55	511.05
910.7576	1755.7307	1390.6	510.35
910.8984	1757.4281	1391.95	512.05
911.0392	1759.1247	1396.2	505.5
911.18	1760.8206	1392.05	504.85
911.3208	1762.5158	1392.75	506.05
911.4615	1764.2102	1386.05	506.55
911.6022	1765.9039	1381.2	500.4
911.7429	1767.5968	1376.85	493.45
911.8836	1769.289	1374.8	493.9
912.0243	1770.9804	1378.5	494.75
912.1649	1772.6711	1380.15	500.55
912.3056	1774.361	1376.55	495.25
912.4462	1776.0502	1374.2	492.3
912.5868	1777.7386	1383.1	498.55
912.7274	1779.4263	1370.15	488.05
912.8679	1781.1132	1369	486.5
913.0084	1782.7994	1374.9	491.85
913.149	1784.4849	1356.75	475.7
913.2895	1786.1696	1380	479.05
913.4299	1787.8535	1366.45	483.55
913.5704	1789.5367	1358.6	478.55
913.7108	1791.2192	1366.75	485.55
913.8513	1792.9009	1377.05	482.7
913.9917	1794.5818	1364.15	480.7
914.132	1796.2621	1349.3	469
914.2724	1797.9415	1350.55	469.4
914.4128	1799.6202	1350.65	467.8
914.5531	1801.2982	1363.1	479.95
914.6934	1802.9755	1347.4	464.75
914.8337	1804.6519	1352.65	470
914.9739	1806.3277	1346.1	465.05
915.1142	1808.0027	1341.45	461.6
915.2544	1809.6769	1353.25	470.3
915.3946	1811.3504	1346.85	463.35
915.5348	1813.0231	1341.6	458.95
915.675	1814.6951	1343.7	461.25
915.8151	1816.3664	1347.65	464.05
915.9553	1818.0369	1339.1	457.4
916.0954	1819.7067	1342.85	461.75
916.2355	1821.3757	1333.25	447.3
916.3755	1823.044	1334.05	452.7
916.5156	1824.7115	1334.4	451.55
916.6556	1826.3783	1329.85	450
916.7956	1828.0443	1324.35	445.45
916.9356	1829.7096	1333.65	450.15
917.0756	1831.3741	1330.8	446.55
917.2155	1833.0379	1326.3	443.55
917.3555	1834.701	1335.7	449.2
917.4954	1836.3633	1333.75	449.45
917.6353	1838.0248	1330.05	446.2
917.7751	1839.6856	1325.8	443.75
917.915	1841.3457	1325.55	443.95
918.0548	1843.005	1323.8	441.35
918.1946	1844.6636	1321.65	440.8
918.3344	1846.3214	1318.35	436.9
918.4742	1847.9785	1317.65	437.2
918.6139	1849.6349	1325.1	442
918.7537	1851.2904	1321.5	430
918.8934	1852.9453	1317	434.9
919.0331	1854.5994	1315.05	431.55
919.1727	1856.2528	1321.7	436.1
919.3124	1857.9054	1315.55	434.7
919.452	1859.5572	1316.5	434.6
919.5916	1861.2083	1317.75	434.3
919.7312	1862.8587	1313.15	430.75
919.8708	1864.5084	1305.5	424.3
920.0103	1866.1572	1308.7	426.45
920.1498	1867.8054	1302.6	419.8
920.2893	1869.4528	1300	418.2
920.4288	1871.0994	1303.1	420.5
920.5683	1872.7453	1302.7	421.9
920.7077	1874.3905	1320.25	421.55
920.8471	1876.0349	1301.8	418.7
920.9865	1877.6786	1306.4	423.4
921.1259	1879.3215	1294.65	413.55
921.2653	1880.9637	1300.45	417.05
921.4046	1882.6051	1292.6	411.25
921.5439	1884.2458	1298.5	414.4
921.6832	1885.8858	1297.05	415.85
921.8225	1887.525	1297	413.85
921.9617	1889.1634	1287.95	406.7
922.101	1890.8011	1289.4	407.75
922.2402	1892.4381	1293.4	413
922.3794	1894.0743	1289.65	407
922.5185	1895.7098	1283.8	401.05
922.6577	1897.3446	1287.25	404.2
922.7968	1898.9786	1290.3	404.7
922.9359	1900.6118	1279.5	398.2
923.075	1902.2443	1283.5	403.15
923.214	1903.8761	1277.45	395.45
923.3531	1905.5071	1275.35	391.4
923.4921	1907.1374	1279.25	396.65
923.6311	1908.7669	1282.65	402.35
923.77	1910.3957	1276.45	393.85
923.909	1912.0237	1277.4	394.3
924.0479	1913.651	1275.4	394.55
924.1868	1915.2776	1273.15	391.85
924.3257	1916.9034	1269.85	387.8
924.4646	1918.5285	1268.1	386.65
924.6034	1920.1528	1268.7	386.75
924.7422	1921.7764	1267.5	386.85
924.881	1923.3992	1261.8	380.2
925.0198	1925.0213	1267.35	385.3
925.1586	1926.6427	1265.2	384.4
925.2973	1928.2633	1359	367.65
925.436	1929.8832	1262.55	381.4
925.5747	1931.5023	1261.1	378.95
925.7134	1933.1207	1256.7	375.25
925.852	1934.7383	1255	371.45
925.9906	1936.3552	1254.55	372.85
926.1292	1937.9714	1250.65	367.7
926.2678	1939.5868	1253.75	369.15
926.4064	1941.2015	1247	364.6
926.5449	1942.8154	1251.55	370.3
926.6834	1944.4286	1248.55	366.05
926.8219	1946.041	1269.25	362.95
926.9604	1947.6528	1251.85	365.25
927.0988	1949.2637	1246.85	366.1
927.2372	1950.8739	1246.7	364.05
927.3756	1952.4834	1240.8	356.75
927.514	1954.0921	1235.8	354.25
927.6523	1955.7001	1248.1	362.3
927.7907	1957.3074	1241	359.25
927.929	1958.9139	1232.15	350.8
928.0673	1960.5197	1243.15	358.3
928.2055	1962.1247	1238.3	356.05
928.3438	1963.729	1232.1	351.1
928.482	1965.3325	1251.4	344.8
928.6202	1966.9353	1228.45	344.9
928.7584	1968.5374	1235.15	352.5
928.8965	1970.1387	1229.85	346.55
929.0346	1971.7393	1225.45	342.95
929.1727	1973.3392	1230.45	348.5
929.3108	1974.9383	1224.4	342.85
929.4489	1976.5366	1227.8	345
929.5869	1978.1342	1224.95	342.15
929.7249	1979.7311	1224.45	341.3
929.8629	1981.3273	1219.55	338.15
930.0009	1982.9227	1217.65	334.9
930.1388	1984.5173	1220	337.7
930.2767	1986.1112	1211.45	328.75
930.4146	1987.7044	1219.25	338.8
930.5525	1989.2968	1216.05	333
930.6904	1990.8885	1220.75	335.9
930.8282	1992.4795	1221.1	337.05
930.966	1994.0697	1217.15	334.45
931.1038	1995.6592	1211.75	329.65
931.2415	1997.2479	1212.95	331.1
931.3793	1998.8359	1208.25	327.5
931.517	2000.4232	1211.65	329.3
931.6547	2002.0097	1205.35	324.95
931.7923	2003.5955	1208	323.95
931.93	2005.1805	1210.8	328
932.0676	2006.7648	1202.25	320.65
932.2052	2008.3484	1206.8	323.65
932.3427	2009.9312	1204.25	316.95
932.4803	2011.5133	1207.35	325.15
932.6178	2013.0946	1207.35	324.25
932.7553	2014.6752	1209.05	326.95
932.8928	2016.2551	1201.1	319.3
933.0302	2017.8342	1202.05	320.25
933.1676	2019.4126	1195.05	314.7
933.305	2020.9902	1198.1	316.7
933.4424	2022.5672	1199.35	316.15
933.5798	2024.1433	1209.05	319.4
933.7171	2025.7188	1202.4	321.6
933.8544	2027.2935	1201.05	318.05
933.9917	2028.8674	1194.55	311.5
934.129	2030.4406	1198.05	315.85
934.2662	2032.0131	1197	316
934.4034	2033.5849	1192.85	307.1
934.5406	2035.1559	1191.35	308.4
934.6778	2036.7261	1193.7	311.45
934.8149	2038.2957	1187.9	306.3
934.952	2039.8645	1190.95	308.3
935.0891	2041.4325	1192.5	307.8
935.2262	2042.9998	1186.6	306.2
935.3632	2044.5664	1188.95	305.85
935.5002	2046.1323	1186.3	303.9
935.6372	2047.6974	1185.95	303.5
935.7742	2049.2617	1183.3	302
935.9111	2050.8254	1204.4	298.1
936.048	2052.3883	1192.65	309.05
936.1849	2053.9504	1181.15	298.25
936.3218	2055.5118	1181.05	296.1
936.4586	2057.0725	1186.9	300.5
936.5955	2058.6325	1176.2	295.2
936.7323	2060.1917	1175.55	293.85
936.869	2061.7502	1182.8	297.6
937.0058	2063.3079	1179.9	299.05
937.1425	2064.8649	1183.55	296.2
937.2792	2066.4212	1182.45	298.05
937.4159	2067.9767	1173.3	293.4
937.5525	2069.5315	1174.9	293.05
937.6891	2071.0856	1176.2	293.95
937.8257	2072.6389	1169.05	285.5
937.9623	2074.1915	1170.55	290.15
938.0989	2075.7433	1167.75	284.45
938.2354	2077.2945	1169.9	288.4
938.3719	2078.8448	1168.3	286.85
938.5084	2080.3945	1176.1	295.25
938.6448	2081.9434	1171.2	289.45
938.7812	2083.4916	1164.8	279
938.9176	2085.039	1161.7	278.15
939.054	2086.5857	1170.65	288.5
939.1903	2088.1317	1166.6	284
939.3267	2089.677	1168.75	286.2
939.463	2091.2215	1163.6	282.45
939.5992	2092.7652	1163.45	279.2
939.7355	2094.3083	1157.8	276.8
939.8717	2095.8506	1159.95	277.9
940.0079	2097.3921	1161.35	278.4
940.1441	2098.933	1159	277.65
940.2802	2100.4731	1157.45	276.4
940.4163	2102.0124	1172.05	274.15
940.5524	2103.5511	1153.45	272.3
940.6885	2105.089	1158.85	275.5
940.8245	2106.6261	1151.9	270.4
940.9606	2108.1626	1159.5	276.3
941.0965	2109.6983	1180.7	269.45
941.2325	2111.2332	1154.85	271.05
941.3684	2112.7675	1158.55	277.1
941.5044	2114.301	1157.6	274
941.6403	2115.8337	1159	278.55
941.7761	2117.3657	1150.2	269.7
941.912	2118.897	1150.3	268.15
942.0478	2120.4276	1152.45	264.25
942.1835	2121.9575	1151.15	269.1
942.3193	2123.4866	1150.35	266
942.455	2125.0149	1148.15	264.05
942.5907	2126.5426	1148.3	265.05
942.7264	2128.0695	1153.2	266.25
942.8621	2129.5956	1145.9	264.45
942.9977	2131.1211	1154.45	265.2
943.1333	2132.6458	1143.6	261.35
943.2689	2134.1698	1144.45	262.15
943.4044	2135.693	1149.15	265.5
943.54	2137.2155	1145.1	262
943.6755	2138.7373	1144.35	260.75
943.8109	2140.2584	1145.4	262.95
943.9464	2141.7787	1153.35	265.7
944.0818	2143.2983	1143.75	261.2
944.2172	2144.8171	1137.35	256.85
944.3526	2146.3353	1144.45	262.25
944.4879	2147.8527	1143.7	260.8
944.6232	2149.3693	1138.05	255.6
944.7585	2150.8853	1132.6	250.8
944.8938	2152.4005	1138.3	254.35
945.029	2153.9149	1137.95	254.6
945.1642	2155.4287	1133.45	251
945.2994	2156.9417	1136.95	253.15
945.4346	2158.454	1140.05	255.3
945.5697	2159.9655	1134.4	250.95
945.7048	2161.4764	1130.8	248.5
945.8399	2162.9865	1134.45	251.75
945.9749	2164.4958	1133.95	251.45
946.1099	2166.0045	1134.5	248.4
946.2449	2167.5124	1130.15	248.95
946.3799	2169.0195	1132.95	251.65
946.5148	2170.526	1132.25	251.1
946.6498	2172.0317	1130.85	246.8
946.7846	2173.5367	1121.85	239.1
946.9195	2175.0409	1130.65	249.05
947.0543	2176.5445	1128.35	246.5
947.1891	2178.0473	1124	239.2
947.3239	2179.5494	1128.7	242.3
947.4587	2181.0507	1124.05	242.4
947.5934	2182.5513	1129.8	247.9
947.7281	2184.0512	1125.35	244.55
947.8628	2185.5504	1126.5	244.3
947.9974	2187.0488	1123.6	241.3
948.132	2188.5465	1124.25	240.7
948.2666	2190.0435	1122.4	238.4
948.4012	2191.5397	1119.25	238.15
948.5357	2193.0353	1116.85	234.85
948.6702	2194.5301	1118.15	237
948.8047	2196.0241	1117.45	234
948.9392	2197.5175	1112.15	228.5
949.0736	2199.0101	1119.65	234.15
949.208	2200.502	1119.9	238.55
949.3424	2201.9931	1114.8	234.8
949.4767	2203.4835	1116	232.1
949.611	2204.9733	1118	229.15
949.7453	2206.4622	1113.3	230.2
949.8796	2207.9505	1117.2	231.2
950.0138	2209.438	1112.9	232.05
950.148	2210.9248	1111.9	225.5
950.2822	2212.4109	1109.4	228.35
950.4164	2213.8962	1111.25	225.1
950.5505	2215.3809	1107.25	224.85
950.6846	2216.8648	1108.95	226.7
950.8186	2218.3479	1110.6	223.9
950.9527	2219.8304	1107.75	222.15
951.0867	2221.3121	1105.55	222.25
951.2207	2222.7931	1102.45	220.5
951.3546	2224.2733	1105.55	223.7
951.4886	2225.7529	1108.65	226.05
951.6225	2227.2317	1104.35	218.55
951.7563	2228.7098	1101.7	219.65
951.8902	2230.1872	1099.1	217.3
952.024	2231.6638	1100	216.15
952.1578	2233.1397	1105.7	216.4
952.2916	2234.6149	1101.65	218.6
952.4253	2236.0894	1101.7	218.8
952.559	2237.5632	1107.8	216.6
952.6927	2239.0362	1100.6	218.2
952.8263	2240.5085	1097.4	213.3
952.9599	2241.9801	1096.9	213.9
953.0935	2243.4509	1095.15	213.25
953.2271	2244.921	1091.85	208.55
953.3606	2246.3904	1093.6	208.85
953.4941	2247.8591	1095.55	213.75
953.6276	2249.3271	1097.7	214.2
953.7611	2250.7943	1091.05	208.5
953.8945	2252.2608	1088.15	206.95
954.0279	2253.7266	1093.85	212.3
954.1612	2255.1917	1086.9	205.05
954.2946	2256.656	1090.85	208
954.4279	2258.1197	1085.65	204.3
954.5612	2259.5826	1088.25	202.2
954.6944	2261.0447	1089.1	204.65
954.8276	2262.5062	1092.2	209.2
954.9608	2263.9669	1090.6	206.7
955.094	2265.4269	1081.35	201
955.2271	2266.8862	1084.45	201.3
955.3602	2268.3448	1085	202
955.4933	2269.8026	1083.6	201.55
955.6264	2271.2598	1080.75	197.3
955.7594	2272.7162	1082.45	200.9
955.8924	2274.1719	1077.05	195.6
956.0253	2275.6268	1081.9	200
956.1583	2277.0811	1080.55	197.5
956.2912	2278.5346	1082.85	200.7
956.4241	2279.9874	1082.1	200
956.5569	2281.4395	1080.6	199.1
956.6897	2282.8908	1084.9	199.15
956.8225	2284.3414	1076.1	190.45
956.9553	2285.7914	1079.7	197.75
957.088	2287.2406	1082.15	198.4
957.2207	2288.689	1076.75	194.9
957.3534	2290.1368	1079.1	195.2
957.486	2291.5838	1077.05	192.1
957.6186	2293.0302	1075.35	192.95
957.7512	2294.4758	1072.45	189.6
957.8838	2295.9206	1078.55	194.1
958.0163	2297.3648	1075.45	193.5
958.1488	2298.8082	1074.2	192.65
958.2813	2300.251	1071.65	190.1
958.4137	2301.693	1075.45	191.05
958.5461	2303.1343	1073.35	191.25
958.6785	2304.5748	1073.8	191.5
958.8108	2306.0147	1072.2	187.25
958.9432	2307.4538	1074.35	189.95
959.0754	2308.8922	1068.4	186.7
959.2077	2310.3299	1072.5	191.1
959.3399	2311.7669	1069.9	186.4
959.4721	2313.2031	1071.2	189.75
959.6043	2314.6387	1070.95	187.35
959.7365	2316.0735	1064.65	183.35
959.8686	2317.5076	1065.8	183.55
960.0006	2318.941	1070.8	189.65
960.1327	2320.3737	1063.65	181.5
960.2647	2321.8056	1064.25	180.3
960.3967	2323.2369	1060.55	179
960.5287	2324.6674	1066.2	178.85
960.6606	2326.0972	1072.6	187.8
960.7925	2327.5263	1068.35	186
960.9244	2328.9547	1067.35	185.1
961.0562	2330.3823	1066.6	184.15
961.1881	2331.8092	1066.55	181.25
961.3198	2333.2355	1064.2	180.55
961.4516	2334.661	1059.85	175.45
961.5833	2336.0858	1061.75	177.4
961.715	2337.5098	1055.55	174.9
961.8467	2338.9332	1059.7	174.7
961.9783	2340.3558	1061.45	175.85
962.1099	2341.7778	1056.45	173.2
962.2415	2343.199	1056.95	171.35
962.373	2344.6195	1053.4	170.95
962.5045	2346.0393	1052.4	169.8
962.636	2347.4583	1054.7	169.8
962.7675	2348.8767	1054.3	169.55
962.8989	2350.2943	1057.6	174.3
963.0303	2351.7113	1056.3	173.35
963.1617	2353.1275	1050.6	167.85
963.293	2354.543	1058.2	168.1
963.4243	2355.9578	1047.65	166.3
963.5556	2357.3718	1049.75	168.55
963.6868	2358.7852	1056.3	170.15
963.818	2360.1978	1050.1	168.4
963.9492	2361.6098	1046.05	165.1
964.0803	2363.021	1055	167.25
964.2114	2364.4315	1048.1	166.7
964.3425	2365.8413	1050.15	165.85
964.4736	2367.2504	1048.4	165.15
964.6046	2368.6587	1048.7	166.35
964.7356	2370.0664	1045.25	161.6
964.8666	2371.4733	1048.25	165.3
964.9975	2372.8795	1045.2	161.3
965.1284	2374.285	1047.45	166.35
965.2593	2375.6899	1043.75	161.15
965.3901	2377.0939	1040.9	159.5
965.5209	2378.4973	1046	163.5
965.6517	2379.9	1039.15	155.85
965.7825	2381.3019	1038.45	156.55
965.9132	2382.7032	1035.3	151.55
966.0439	2384.1037	1036.8	156.05
966.1745	2385.5035	1035.9	153.75
966.3051	2386.9027	1037.95	155.45
966.4357	2388.3011	1037.95	152.75
966.5663	2389.6987	1039.15	157.75
966.6968	2391.0957	1034.05	154.1
966.8273	2392.492	1031.55	149.4
966.9578	2393.8876	1032.3	149.55
967.0882	2395.2824	1031.15	148.25
967.2186	2396.6765	1030.7	150.7
967.349	2398.07	1028.25	145.45
967.4793	2399.4627	1034.95	153.7
967.6097	2400.8547	1029.75	147.8
967.7399	2402.246	1034.95	147.9
967.8702	2403.6366	1033.05	149.85
968.0004	2405.0265	1027.5	145.55
968.1306	2406.4156	1035.4	146.75
968.2607	2407.8041	1027.9	142.95
968.3909	2409.1918	1026.9	141.55
968.521	2410.5789	1028.25	143.8
968.651	2411.9652	1031.8	145.4
968.781	2413.3508	1028.1	147.15
968.911	2414.7358	1026.15	141.65
969.041	2416.12	1024.6	142.5
969.1709	2417.5035	1030.4	147.65
969.3008	2418.8863	1026.7	144.05
969.4307	2420.2684	1025.25	142.7
969.5606	2421.6497	1024.25	140.05
969.6904	2423.0304	1024.8	140.75
969.8201	2424.4104	1027.55	146.45
969.9499	2425.7896	1028.1	140.05
970.0796	2427.1682	1021.15	139.65
970.2093	2428.546	1019.8	136.25
970.3389	2429.9232	1026.65	142.8
970.4685	2431.2996	1021.3	137.8
970.5981	2432.6753	1019.35	137
970.7277	2434.0503	1022.15	139.4
970.8572	2435.4246	1015.85	133.15
970.9867	2436.7982	1017.3	132.05
971.1161	2438.1711	1016.3	135.8
971.2456	2439.5433	1020.55	137.4
971.375	2440.9148	1027.25	140
971.5043	2442.2856	1013.25	130.75
971.6336	2443.6557	1020.75	137.6
971.7629	2445.025	1018.95	137.5
971.8922	2446.3937	1019.7	136.3
972.0214	2447.7617	1017.7	133.95
972.1506	2449.1289	1017.75	135.6
972.2798	2450.4955	1017.75	132.25
972.4089	2451.8613	1014.2	133.95
972.538	2453.2265	1013.65	129.55
972.6671	2454.5909	1014.9	131.55
972.7961	2455.9546	1015.35	134.5
972.9251	2457.3177	1014.7	130.65
973.0541	2458.68	1015.65	130.4
973.1831	2460.0416	1014.6	129.9
973.312	2461.4025	1017.25	133.45
973.4408	2462.7627	1023.1	128.9
973.5697	2464.1222	1010.05	128.5
973.6985	2465.4811	1014.25	130.2
973.8273	2466.8392	1015.95	133.7
973.956	2468.1966	1012.1	126.5
974.0847	2469.5533	1014.55	130.85
974.2134	2470.9093	1015.2	130
974.3421	2472.2645	1012.85	128.3
974.4707	2473.6191	1009.15	126.3
974.5993	2474.973	1008.35	125.6
974.7278	2476.3262	1013.5	130.15
974.8563	2477.6787	1008.5	125.3
974.9848	2479.0305	1008.7	128.1
975.1132	2480.3816	1011.55	127.4
975.2417	2481.7319	1007.65	124.35
975.37	2483.0816	1008.95	124.15
975.4984	2484.4306	1009.2	125.7
975.6267	2485.7789	1007.2	124.65
975.755	2487.1264	1008.4	121.8
975.8833	2488.4733	1006	123.85
976.0115	2489.8195	1020.5	120.5
976.1397	2491.165	1008.85	123.3
976.2678	2492.5097	1003.7	119.25
976.3959	2493.8538	1006.3	124.15
976.524	2495.1972	1002.25	119.85
976.6521	2496.5398	1003.35	119.3
976.7801	2497.8818	1005.25	120.45
976.9081	2499.2231	1002.45	119.4
977.036	2500.5637	1002.75	118.75
977.164	2501.9035	1006.1	121.8
977.2918	2503.2427	1002.75	115.65
977.4197	2504.5812	1002.2	119.3
977.5475	2505.919	1000.85	119.25
977.6753	2507.256	1002.55	120.05
977.8031	2508.5924	999.5	117.1
977.9308	2509.9281	1009	120.4
978.0585	2511.2631	1002.9	120.5
978.1861	2512.5974	1002.2	118.65
978.3137	2513.9309	996.25	113
978.4413	2515.2638	1029.45	114.1
978.5689	2516.596	997.85	116.2
978.6964	2517.9275	998.75	113.55
978.8239	2519.2583	998.5	115.6
978.9513	2520.5884	1004.25	121.5
979.0788	2521.9178	997.85	113.9
979.2062	2523.2465	996.55	114.9
979.3335	2524.5745	993.65	110.85
979.4608	2525.9018	992.8	107.8
979.5881	2527.2284	995.3	114.3
979.7154	2528.5543	993.75	111.5
979.8426	2529.8796	994.85	111.5
979.9698	2531.2041	994.1	111.75
980.0969	2532.5279	997.1	115.65
980.224	2533.851	994.95	114
980.3511	2535.1735	996.65	114.8
980.4781	2536.4952	993	109.1
980.6052	2537.8163	994	111.25
980.7321	2539.1366	990.9	109.25
980.8591	2540.4562	993.6	109.35
980.986	2541.7752	995.65	113.3
981.1129	2543.0935	987.9	103.7
981.2397	2544.411	993.45	111
981.3665	2545.7279	992.95	113.25
981.4933	2547.0441	989.35	107.75
981.62	2548.3596	994.2	107.15
981.7467	2549.6744	991.7	108.35
981.8734	2550.9885	995.1	110.5
982.0001	2552.3019	991.9	109.85
982.1267	2553.6146	986.65	104.2
982.2532	2554.9266	991.35	107
982.3798	2556.2379	993.4	110.1
982.5063	2557.5485	990.45	110.9
982.6327	2558.8585	996.15	103.25
982.7592	2560.1677	995.85	109.6
982.8856	2561.4762	987.65	104.95
983.0119	2562.7841	989.15	102.35
983.1383	2564.0913	985.85	102.95
983.2646	2565.3977	987.95	106.15
983.3908	2566.7035	986.3	103.8
983.517	2568.0086	989.95	104.35
983.6432	2569.313	989.85	107.4
983.7694	2570.6167	990.5	102.85
983.8955	2571.9197	992.05	111.95
984.0216	2573.222	988.9	102.85
984.1476	2574.5236	988.7	105.05
984.2737	2575.8246	987.5	103.85
984.3996	2577.1248	986.4	100.9
984.5256	2578.4244	987.75	106.1
984.6515	2579.7232	986.5	105.15
984.7774	2581.0214	1016.95	104.75
984.9032	2582.3189	985.95	104.55
985.029	2583.6157	992.6	105.6
985.1548	2584.9118	988.15	105.6
985.2806	2586.2072	982.2	99.1
985.4063	2587.5019	985.05	103.05
985.5319	2588.7959	984.45	101.8
985.6576	2590.0893	987	105.15
985.7832	2591.3819	982.85	101.75
985.9087	2592.6739	983.05	100.9
986.0343	2593.9652	991.7	108.05
986.1597	2595.2557	988.5	105.5
986.2852	2596.5456	988.15	100.65
986.4106	2597.8348	986.8	104.1
986.536	2599.1234	984.8	101.95
986.6614	2600.4112	985.75	104.2
986.7867	2601.6983	985.5	102.65
986.912	2602.9848	985.05	103.45
987.0372	2604.2705	991.6	101.6
987.1624	2605.5556	984.2	101.6
987.2876	2606.84	987.25	104.85
987.4128	2608.1237	985.9	102.6
987.5379	2609.4067	983.4	101.35
987.6629	2610.689	990.05	99.95
987.788	2611.9707	986.05	99.45
987.913	2613.2516	987.3	99.8
988.0379	2614.5319	979.55	98.35
988.1629	2615.8115	982.4	99.05
988.2878	2617.0903	982.6	100.05
988.4126	2618.3685	976.2	93.15
988.5375	2619.6461	979.55	95.8
988.6622	2620.9229	976.65	93.7
988.787	2622.199	980	96.15
988.9117	2623.4745	976.4	94.15
989.0364	2624.7493	973.9	91.75
989.161	2626.0234	980.25	96.85
989.2857	2627.2968	976.65	94.65
989.4102	2628.5695	979.25	94.4
989.5348	2629.8415	978.6	96.7
989.6593	2631.1128	981.5	95.6
989.7837	2632.3835	978.1	95.75
989.9082	2633.6535	974.95	92.1
990.0326	2634.9228	974.95	92.35
990.1569	2636.1914	976.35	95.1
990.2812	2637.4593	981.25	93.85
990.4055	2638.7265	976.05	92.3
990.5298	2639.9931	975.15	91.55
990.654	2641.259	972.9	89.2
990.7782	2642.5242	975.15	91.9
990.9023	2643.7887	973.4	89
991.0264	2645.0525	972.2	88.2
991.1505	2646.3156	976.5	93.25
991.2745	2647.5781	973.55	93.1
991.3985	2648.8398	973	91
991.5225	2650.1009	1010.75	93.25
991.6464	2651.3613	971.2	89
991.7703	2652.6211	973.15	88.4
991.8942	2653.8801	969.6	87.65
992.018	2655.1385	976	90.75
992.1418	2656.3961	972.65	91.35
992.2655	2657.6531	971.85	89.75
992.3892	2658.9094	975.45	91.45
992.5129	2660.1651	972.05	89.65
992.6366	2661.42	970.5	87.55
992.7602	2662.6743	975.9	91.55
992.8837	2663.9279	969.7	89.75
993.0073	2665.1808	973.1	92.5
993.1307	2666.433	974.9	93
993.2542	2667.6846	972.4	89.8
993.3776	2668.9354	973.2	85.8
993.501	2670.1856	975.85	90.9
993.6244	2671.4351	972.35	91.55
993.7477	2672.6839	974.5	91.3
993.8709	2673.9321	971.85	89.5
993.9942	2675.1795	971.3	89.75
994.1174	2676.4263	974.25	92.9
994.2405	2677.6724	973.85	92.95
994.3637	2678.9179	975.8	92.5
994.4868	2680.1626	971.95	90
994.6098	2681.4067	970.7	88.75
994.7328	2682.6501	972.45	89.5
994.8558	2683.8928	975.2	91.8
994.9788	2685.1348	969.55	88.55
995.1017	2686.3761	972.7	89.65
995.2245	2687.6168	971.45	87.6
995.3474	2688.8568	973.65	91.4
995.4702	2690.0961	970.15	90.6
995.5929	2691.3348	969.05	85.55
995.7156	2692.5727	963.35	80.65
995.8383	2693.81	969.05	87.6
995.961	2695.0466	963.55	80.35
996.0836	2696.2826	968.6	85.2
996.2062	2697.5178	972.3	86.95
996.3287	2698.7524	967.55	86.15
996.4512	2699.9863	968.7	84.25
996.5737	2701.2195	963.3	82.45
996.6961	2702.452	967.7	84.75
996.8185	2703.6839	967.3	84.85
996.9408	2704.9151	965.45	84.05
997.0631	2706.1456	969.1	86.95
997.1854	2707.3755	968.45	85.8
997.3077	2708.6046	970.9	85.4
997.4299	2709.8331	973.5	90.9
997.552	2711.0609	972.3	89
997.6742	2712.2881	974.1	90.9
997.7963	2713.5145	975.55	91.65
997.9183	2714.7403	973.45	90.75
998.0403	2715.9654	974.2	89.35
998.1623	2717.1899	989.45	91.75
998.2842	2718.4136	977.45	94.1
998.4062	2719.6367	980.55	98.8
998.528	2720.8591	982.65	94.6
998.6498	2722.0809	980.15	97.95
998.7716	2723.3019	984.7	99.15
998.8934	2724.5223	983.2	99.45
999.0151	2725.7421	986.95	102.1
999.1368	2726.9611	987.6	104.05
999.2584	2728.1795	989.05	101
999.38	2729.3972	981.4	99.25
999.5016	2730.6142	993.7	96.95
999.6231	2731.8306	979.3	94.5
999.7446	2733.0462	980.45	96.5
999.8661	2734.2612	978.9	93.5
999.9875	2735.4756	973.3	89.75
1000.1089	2736.6892	972.6	89.45
1000.2302	2737.9022	966.65	85.2
1000.3515	2739.1145	970.05	88.55
1000.4728	2740.3262	974.55	84.1
1000.594	2741.5372	964.2	79.95
1000.7152	2742.7475	967.2	85.2
1000.8363	2743.9571	963.45	78.7
1000.9575	2745.1661	966.7	79.15
1001.0785	2746.3744	959.5	75.45
1001.1996	2747.582	960.65	78.85
1001.3206	2748.7889	962	77.05
1001.4415	2749.9952	958.35	76.75
1001.5625	2751.2008	959.8	77.4
1001.6833	2752.4057	960.15	76.5
1001.8042	2753.61	957.25	74.1
1001.925	2754.8136	958.15	71.95
1002.0458	2756.0165	957.25	73.5
1002.1665	2757.2188	956.75	73.25
1002.2872	2758.4204	959.5	77.05
1002.4078	2759.6213	955.5	71.65
1002.5285	2760.8215	960.55	71.5
1002.649	2762.0211	958.9	75.95
1002.7696	2763.22	958.35	70.4
1002.8901	2764.4182	953.85	68.75
1003.0106	2765.6158	955.55	73.4
1003.131	2766.8127	953.6	70.5
1003.2514	2768.009	954.4	71.9
1003.3717	2769.2045	953.35	69.9
1003.492	2770.3994	959.2	74.35
1003.6123	2771.5936	952.85	68.1
1003.7325	2772.7872	949.8	65.8
1003.8527	2773.9801	953.8	70.55
1003.9729	2775.1723	969.85	68.5
1004.093	2776.3639	949.9	69.05
1004.2131	2777.5548	953.75	68.8
1004.3331	2778.745	954.25	70.55
1004.4531	2779.9346	952.7	69.65
1004.5731	2781.1235	949.35	65
1004.693	2782.3117	948.85	65.4
1004.8129	2783.4992	952.25	69.45
1004.9328	2784.6861	954.75	72.2
1005.0526	2785.8723	953.85	69.45
1005.1723	2787.0579	949.25	64.35
1005.2921	2788.2428	949.45	67.1
1005.4118	2789.427	951.75	70.2
1005.5314	2790.6106	955.25	72.65
1005.651	2791.7935	952.35	70.1
1005.7706	2792.9757	954.05	71.25
1005.8902	2794.1573	958.45	73.8
1006.0097	2795.3382	958.4	75.15
1006.1291	2796.5184	951.45	70.1
1006.2485	2797.698	958.1	74.7
1006.3679	2798.8769	960.3	78.3
1006.4873	2800.0551	957.9	75.35
1006.6066	2801.2327	962.7	78.05
1006.7258	2802.4096	958.25	76.1
1006.8451	2803.5859	965.75	81.75
1006.9642	2804.7615	966	81.4
1007.0834	2805.9364	967.65	87.25
1007.2025	2807.1106	963.4	81.9
1007.3216	2808.2842	973.65	88.45
1007.4406	2809.4572	971.7	89.9
1007.5596	2810.6294	974.9	91.15
1007.6785	2811.801	978.2	97.7
1007.7975	2812.972	985.35	104.8
1007.9163	2814.1423	988	104.35
1008.0352	2815.3119	992.6	110.75
1008.154	2816.4808	997.2	114.8
1008.2727	2817.6491	1002.45	118.6
1008.3914	2818.8167	1006.65	123.5
1008.5101	2819.9837	1017.45	128.75
1008.6288	2821.15	1021.35	139.35
1008.7474	2822.3157	1026.35	143.5
1008.8659	2823.4807	1030	146.35
1008.9844	2824.645	1038.35	154.7
1009.1029	2825.8086	1044.05	163.1
1009.2214	2826.9716	1054.2	171.35
1009.3398	2828.134	1058.75	175.85
1009.4581	2829.2957	1062.75	181.25
1009.5764	2830.4567	1063.65	181.25
1009.6947	2831.617	1067.7	187.2
1009.813	2832.7767	1074.1	192.3
1009.9312	2833.9358	1077	195.45
1010.0493	2835.0941	1074.3	190.35
1010.1675	2836.2519	1069.9	187.45
1010.2855	2837.4089	1068.15	184.15
1010.4036	2838.5653	1066.2	184.05
1010.5216	2839.7211	1059.05	178.7
1010.6396	2840.8761	1064.2	181.6
1010.7575	2842.0306	1060.05	177.85
1010.8754	2843.1843	1062.55	180.7
1010.9932	2844.3374	1068.05	188.3
1011.111	2845.4899	1070.85	189.75
1011.2288	2846.6417	1076.8	195.95
1011.3465	2847.7928	1081.9	199.05
1011.4642	2848.9433	1089.35	208.2
1011.5818	2850.0931	1095.55	213.6
1011.6995	2851.2422	1099.65	216.6
1011.817	2852.3907	1108.2	225
1011.9345	2853.5385	1116.75	232.6
1012.052	2854.6857	1142.3	231.75
1012.1695	2855.8323	1120.35	237.9
1012.2869	2856.9781	1123.2	242.05
1012.4042	2858.1233	1129.65	245.25
1012.5216	2859.2679	1135.9	253.4
1012.6389	2860.4118	1147.05	262.85
1012.7561	2861.555	1152.85	266.9
1012.8733	2862.6976	1156.5	271.1
1012.9905	2863.8395	1158.05	278.15
1013.1076	2864.9808	1159.1	275.7
1013.2247	2866.1214	1164.15	281.2
1013.3417	2867.2614	1158.65	275.55
1013.4587	2868.4007	1172.05	289
1013.5757	2869.5393	1170.5	286.55
1013.6926	2870.6773	1172.5	287.75
1013.8095	2871.8146	1170.85	284.2
1013.9263	2872.9513	1171.15	285.6
1014.0431	2874.0874	1166.4	284.6
1014.1599	2875.2227	1170	286.2
1014.2766	2876.3574	1164.5	282.8
1014.3933	2877.4915	1164.2	281.25
1014.51	2878.6249	1159.55	277.5
1014.6266	2879.7577	1162.35	278.85
1014.7431	2880.8898	1170.95	276.05
1014.8596	2882.0212	1158.45	275.8
1014.9761	2883.152	1162.7	279.45
1015.0925	2884.2821	1155.45	271.75
1015.2089	2885.4116	1158.1	275.95
1015.3253	2886.5405	1160.95	275.85
1015.4416	2887.6686	1163.4	278.25
1015.5579	2888.7962	1158.65	277
1015.6741	2889.923	1157.8	278.35
1015.7903	2891.0493	1159.95	277.7
1015.9065	2892.1748	1158.05	275.15
1016.0226	2893.2997	1163.75	281.3
1016.1387	2894.424	1162.05	280.9
1016.2547	2895.5476	1166.1	282.75
1016.3707	2896.6706	1167.9	287.8
1016.4866	2897.7929	1173.35	290.2
1016.6025	2898.9145	1174.15	291.35
1016.7184	2900.0355	1173.45	291
1016.8342	2901.1559	1175.5	292.8
1016.95	2902.2756	1182.9	299.5
1017.0658	2903.3946	1176.9	295.65
1017.1815	2904.513	1184.15	298.7
1017.2971	2905.6308	1182.9	301.6
1017.4127	2906.7479	1188.4	306.1
1017.5283	2907.8643	1189.65	306.45
1017.6439	2908.9801	1185.3	302.2
1017.7594	2910.0953	1188.3	307.9
1017.8748	2911.2098	1196.25	309.85
1017.9902	2912.3236	1194.3	304.5
1018.1056	2913.4368	1192	308.1
1018.2209	2914.5494	1187.3	302.85
1018.3362	2915.6613	1187.15	298.65
1018.4515	2916.7725	1178.65	293.55
1018.5667	2917.8831	1172.25	288.85
1018.6819	2918.9931	1175.9	292.2
1018.797	2920.1024	1167.5	283.35
1018.9121	2921.211	1167.15	283.35
1019.0271	2922.319	1165.75	283.55
1019.1421	2923.4264	1159.6	278
1019.2571	2924.5331	1158.15	279.5
1019.372	2925.6391	1162.4	279.3
1019.4869	2926.7445	1160.25	279.1
1019.6017	2927.8493	1163.8	281.05
1019.7165	2928.9534	1160.55	279.2
1019.8313	2930.0569	1161.35	277.75
1019.946	2931.1597	1162.95	280.2
1020.0606	2932.2619	1167.05	283.35
1020.1753	2933.3634	1160.9	279.5
1020.2899	2934.4643	1175.05	285.3
1020.4044	2935.5645	1169.75	281.55
1020.5189	2936.6641	1165.35	278.75
1020.6334	2937.763	1162.05	280.95
1020.7478	2938.8613	1156.45	274.15
1020.8622	2939.959	1156.4	267.35
1020.9765	2941.056	1147.25	265.85
1021.0908	2942.1523	1138.6	254.75
1021.2051	2943.248	1131.9	249.65
1021.3193	2944.3431	1116.1	235.3
1021.4334	2945.4375	1112.05	228.75
1021.5476	2946.5313	1099.55	218
1021.6617	2947.6244	1089.85	206.1
1021.7757	2948.7169	1083.3	199.5
1021.8897	2949.8087	1072.8	189.45
1022.0037	2950.8999	1061.9	177.7
1022.1176	2951.9904	1052.45	170.45
1022.2315	2953.0803	1047.5	165.4
1022.3453	2954.1696	1039	155.25
1022.4591	2955.2582	1037.55	154.55
1022.5728	2956.3462	1028.85	144.85
1022.6865	2957.4335	1027.7	146.9
1022.8002	2958.5202	1027.4	143.2
1022.9138	2959.6062	1025.05	143.5
1023.0274	2960.6916	1014.5	132.4
1023.141	2961.7764	1019.85	136.8
1023.2545	2962.8605	1021	136.7
1023.3679	2963.9439	1016.3	133.5
1023.4813	2965.0267	1014.85	127.85
1023.5947	2966.1089	1036.2	132.65
1023.708	2967.1905	1012.3	131.4
1023.8213	2968.2714	1016.65	135.35
1023.9346	2969.3516	1014.2	131.5
1024.0478	2970.4312	1024.05	132.5
1024.1609	2971.5102	1015.45	133.45
1024.274	2972.5885	1016.35	132.75
1024.3871	2973.6662	1019.5	132.3
1024.5002	2974.7432	1010.65	130.4
1024.6132	2975.8196	1018.7	135.7
1024.7261	2976.8954	1013.65	131.9
1024.839	2977.9705	1013.55	131.3
1024.9519	2979.045	1013.95	131.45
1025.0647	2980.1188	1010.9	129.35
1025.1775	2981.192	1005.1	121.65
1025.2902	2982.2645	1009.8	126.75
1025.4029	2983.3364	1007.4	124.95
1025.5156	2984.4077	1001.65	121.15
1025.6282	2985.4783	1006.25	117.65
1025.7407	2986.5483	992.65	109.9
1025.8532	2987.6177	994.3	111.15
1025.9657	2988.6864	992.45	110.45
1026.0782	2989.7545	988.25	102.85
1026.1906	2990.8219	980.9	99.75
1026.3029	2991.8887	982.45	96.05
1026.4152	2992.9548	975	92.25
1026.5275	2994.0204	971.45	90.4
1026.6397	2995.0852	965.2	82.85
1026.7519	2996.1495	967.4	82.5
1026.864	2997.2131	957.5	75.2
1026.9761	2998.276	955.7	73.15
1027.0882	2999.3383	953.8	69.4
1027.2002	3000.4	953.45	71.5
1027.3122	3001.4611	947.05	62.65
1027.4241	3002.5215	948.55	65.85
1027.536	3003.5812	946.55	63.35
1027.6478	3004.6404	941.6	58.35
1027.7596	3005.6989	941.5	56.7
1027.8714	3006.7567	940.5	58.3
1027.9831	3007.8139	962.8	54.55
1028.0947	3008.8705	938.2	55.25
1028.2064	3009.9264	958.1	60.65
1028.3179	3010.9818	936.05	54.25
1028.4295	3012.0364	937.35	54.5
1028.541	3013.0905	933.1	50.15
1028.6524	3014.1439	931.95	48.2
1028.7638	3015.1966	930.4	49.15
1028.8752	3016.2487	931.05	47.15
1028.9865	3017.3002	936.75	49.65
1029.0978	3018.3511	930.65	50.05
1029.209	3019.4013	931.15	48.7
1029.3202	3020.4509	932.7	50.45
1029.4314	3021.4998	929.15	44.85
1029.5425	3022.5481	928.8	48.15
1029.6535	3023.5958	926.65	43.65
1029.7645	3024.6428	931.85	48.7
1029.8755	3025.6892	929	46.85
1029.9864	3026.735	928.1	44.5
1030.0973	3027.7802	927.55	45.4
1030.2082	3028.8247	929.55	47.5
1030.319	3029.8685	925.8	43.15
1030.4297	3030.9118	930.8	47.15
1030.5404	3031.9544	930.7	49.1
1030.6511	3032.9963	927.25	44.25
1030.7617	3034.0376	929	48.45
1030.8723	3035.0783	932.55	46.05
1030.9829	3036.1184	931.4	46.8
1031.0934	3037.1578	929.5	46.2
1031.2038	3038.1966	929.25	46
1031.3142	3039.2348	930.3	50.15
1031.4246	3040.2723	939.3	48.65
1031.5349	3041.3092	928.55	46.4
1031.6452	3042.3455	930.5	48
1031.7554	3043.3811	930.65	47.55
1031.8656	3044.4161	931.15	47
1031.9758	3045.4505	929.4	46.9
1032.0859	3046.4842	931	48.2
1032.1959	3047.5173	927.7	45.35
1032.3059	3048.5498	928.15	46.25
1032.4159	3049.5816	929.8	49.5
1032.5258	3050.6128	932.3	48
1032.6357	3051.6434	929.9	45
1032.7455	3052.6734	930.3	46
1032.8553	3053.7027	928.6	44.3
1032.9651	3054.7314	925.5	43.35
1033.0748	3055.7594	928.75	46.45
1033.1845	3056.7868	928.85	46.2
1033.2941	3057.8136	925.3	43
1033.4037	3058.8398	924.95	42.7
1033.5132	3059.8653	928.4	46.3
1033.6227	3060.8902	925.65	43.35
1033.7321	3061.9145	926.9	45.35
1033.8415	3062.9381	928	46.55
1033.9509	3063.9612	943.3	43.9
1034.0602	3064.9835	926.85	45.2
1034.1694	3066.0053	926.55	42.4
1034.2787	3067.0264	923.3	42.05
1034.3878	3068.0469	922.55	38.55
1034.497	3069.0668	925.7	39.75
1034.6061	3070.086	924.6	41.85
1034.7151	3071.1046	925.15	42.25
1034.8241	3072.1226	924.55	40.8
1034.9331	3073.1399	921.5	37.8
1035.042	3074.1567	920.05	36.75
1035.1508	3075.1727	921.8	37.3
1035.2597	3076.1882	920	35.9
1035.3684	3077.203	918.75	36.15
1035.4772	3078.2173	919.3	36.35
1035.5859	3079.2308	919	36
1035.6945	3080.2438	919.1	32.95
1035.8031	3081.2561	918.1	36.5
1035.9117	3082.2678	916.5	34.3
1036.0202	3083.2789	913.75	29.25
1036.1286	3084.2893	913.1	31.3
1036.2371	3085.2991	914.15	32.25
1036.3454	3086.3083	915.85	29.55
1036.4538	3087.3169	913.55	30.3
1036.562	3088.3248	913.3	28
1036.6703	3089.3321	912.1	29.25
1036.7785	3090.3388	909.85	27.85
1036.8866	3091.3449	908.6	25.85
1036.9948	3092.3503	911.2	27.45
1037.1028	3093.3551	908.25	26.85
1037.2108	3094.3593	908.35	25.25
1037.3188	3095.3629	910.5	28.85
1037.4267	3096.3658	911.75	28.15
1037.5346	3097.3681	909.65	26.75
1037.6425	3098.3698	912.3	29.1
1037.7503	3099.3708	915.65	25.25
1037.858	3100.3713	906.4	21.05
1037.9657	3101.3711	910.45	29.65
1038.0734	3102.3702	1047.65	22.65
1038.181	3103.3688	911.65	28.25
1038.2886	3104.3667	906.25	24.55
1038.3961	3105.364	906	21.85
1038.5036	3106.3607	908.6	25.05
1038.611	3107.3568	904.65	21.3
1038.7184	3108.3522	905.45	22.45
1038.8257	3109.347	906.05	22.6
1038.933	3110.3412	909.55	24.85
1039.0403	3111.3348	905.1	22.8
1039.1475	3112.3277	901.8	18.6
1039.2547	3113.32	902.6	21.1
1039.3618	3114.3117	904.45	21.75
1039.4689	3115.3028	906.25	24.95
1039.5759	3116.2932	905.05	20.4
1039.6829	3117.2831	909.75	21.25
1039.7898	3118.2723	905.15	21.7
1039.8967	3119.2608	903.7	20.6
1040.0035	3120.2488	902.8	19.25
1040.1103	3121.2361	903.3	21.95
1040.2171	3122.2229	900.2	17.4
1040.3238	3123.209	903.9	20.35
1040.4305	3124.1944	901.6	17.85
1040.5371	3125.1793	902.75	18.8
1040.6437	3126.1635	901.6	19.2
1040.7502	3127.1471	902.1	21.05
1040.8567	3128.1301	900.55	18.65
1040.9631	3129.1125	901.95	21.45
1041.0695	3130.0942	900.9	17.35
1041.1759	3131.0753	909.8	19.55
1041.2822	3132.0558	902.2	16.95
1041.3884	3133.0357	900.55	18.25
1041.4946	3134.015	902.7	21.35
1041.6008	3134.9936	900.75	17.75
1041.7069	3135.9716	919.5	14.1
1041.813	3136.949	898.6	15.45
1041.919	3137.9258	918.65	15.75
1042.025	3138.902	906.35	18.6
1042.1309	3139.8775	900.75	19.5
1042.2368	3140.8524	902.45	20.3
1042.3427	3141.8267	902.1	17.9
1042.4485	3142.8004	899.65	16.1
1042.5542	3143.7735	907.85	20.15
1042.6599	3144.7459	901	16.85
1042.7656	3145.7178	899.4	16.9
1042.8712	3146.689	899.45	16.75
1042.9768	3147.6596	898.75	14.7
1043.0823	3148.6295	897.55	16.05
1043.1878	3149.5989	899.15	16.15
1043.2932	3150.5676	897	15.2
1043.3986	3151.5357	898.5	17.45
1043.5039	3152.5032	897.6	16.05
1043.6092	3153.4701	897.4	15.2
1043.7145	3154.4364	900.8	13.65
1043.8197	3155.402	898.25	16.85
1043.9248	3156.367	898.4	14.05
1044.03	3157.3315	916.7	14.6
1044.135	3158.2952	897.3	14.15
1044.24	3159.2584	897.65	15.65
1044.345	3160.221	897.3	14.35
1044.4499	3161.1829	898.05	14.75
1044.5548	3162.1442	899.15	17.8
1044.6596	3163.105	900.8	17.65
1044.7644	3164.065	897.55	13.55
1044.8692	3165.0245	899.15	15.5
1044.9739	3165.9834	894.85	14.1
1045.0785	3166.9416	895.9	13.2
1045.1831	3167.8993	897.8	14.2
1045.2877	3168.8563	897.95	14.55
1045.3922	3169.8127	895.75	14.95
1045.4966	3170.7684	894.6	12.55
1045.6011	3171.7236	896.1	12.05
1045.7054	3172.6782	897.25	12
1045.8098	3173.6321	896	12.75
1045.914	3174.5854	903.05	16.1
1046.0183	3175.5381	894.85	12.9
1046.1224	3176.4902	897.3	14.75
1046.2266	3177.4417	895.6	13.75
1046.3307	3178.3926	894.25	12.1
1046.4347	3179.3428	892.85	10.75
1046.5387	3180.2924	896.35	14
1046.6427	3181.2415	894.05	11.7
1046.7466	3182.1899	897.95	14.4
1046.8504	3183.1377	893.65	10.15
1046.9542	3184.0848	901.3	15.45
1047.058	3185.0314	894.8	10.7
1047.1617	3185.9773	896.1	11.95
1047.2654	3186.9227	896.5	12.75
1047.369	3187.8674	894.2	10.75
1047.4726	3188.8115	899.4	13.75
1047.5761	3189.755	896.1	13.95
1047.6796	3190.6979	894.45	12.7
1047.783	3191.6402	893.75	12.1
1047.8864	3192.5818	895.4	13.8
1047.9898	3193.5229	900.05	10.3
1048.0931	3194.4633	895.8	13.35
1048.1963	3195.4031	895.8	10.3
1048.2995	3196.3423	893.45	10.45
1048.4027	3197.2809	894.05	10.7
1048.5058	3198.2189	894.1	11.5
1048.6089	3199.1563	912.75	14.8
1048.7119	3200.0931	895.9	14.6
1048.8148	3201.0292	893.55	12.65
1048.9178	3201.9648	893.55	9.55
1049.0206	3202.8997	895.55	10.3
1049.1235	3203.834	894.25	11.1
1049.2262	3204.7677	894.75	12.5
1049.329	3205.7008	896.15	12.45
1049.4317	3206.6333	891.6	9.7
1049.5343	3207.5652	894.9	10.4
1049.6369	3208.4964	893.9	12.05
1049.7394	3209.4271	891.85	10.65
1049.8419	3210.3571	893.35	12.85
1049.9444	3211.2865	895.05	12.35
1050.0468	3212.2154	894.85	10.7
1050.1491	3213.1436	897.65	13.05
1050.2514	3214.0712	900.05	11.6
1050.3537	3214.9982	892.9	11.25
1050.4559	3215.9246	893.95	11.6
1050.5581	3216.8503	892.15	9.5
1050.6602	3217.7755	892.85	10.1
1050.7623	3218.7001	894.15	9.4
1050.8643	3219.624	893.5	12.05
1050.9663	3220.5473	893.55	11.5
1051.0682	3221.4701	893.8	11.3
1051.1701	3222.3922	895.35	10.2
1051.2719	3223.3137	892.15	9.75
1051.3737	3224.2346	893.25	9.7
1051.4754	3225.1549	891.9	12.6
1051.5771	3226.0746	892.8	10.85
1051.6788	3226.9937	893.2	10.2
1051.7804	3227.9121	892.3	10.1
1051.8819	3228.83	893.8	12.5
1051.9834	3229.7473	894.95	11.1
1052.0849	3230.6639	892.4	8.8
1052.1863	3231.5799	891.85	8.75
1052.2876	3232.4954	890.9	7.2
1052.3889	3233.4102	892.55	9.5
1052.4902	3234.3244	892.4	8.35
1052.5914	3235.238	892.25	8.7
1052.6926	3236.151	917.7	10
1052.7937	3237.0634	891.9	10.85
1052.8948	3237.9752	892.2	11.75
1052.9958	3238.8864	893.2	9.7
1053.0968	3239.797	892.45	10.85
1053.1977	3240.7069	893.55	10.05
1053.2986	3241.6163	895.65	12.65
1053.3994	3242.5251	891.1	8.55
1053.5002	3243.4332	889.95	7.6
1053.6009	3244.3408	890.8	9.15
1053.7016	3245.2477	891.35	8.7
1053.8022	3246.154	893	9.55
1053.9028	3247.0598	890.7	7.75
1054.0034	3247.9649	894.5	12.35
1054.1039	3248.8694	891.05	9.85
1054.2043	3249.7733	892.7	11.25
1054.3047	3250.6766	891.6	9.2
1054.4051	3251.5793	892.2	9.45
1054.5054	3252.4814	890.55	6.8
1054.6056	3253.3829	891.8	11.15
1054.7058	3254.2838	890.65	7.55
1054.806	3255.1841	889.65	8
1054.9061	3256.0838	890.55	8.95
1055.0061	3256.9829	890.15	10.3
1055.1062	3257.8814	892.9	9.25
1055.2061	3258.7792	892.5	9.05
1055.306	3259.6765	892.2	9.6
1055.4059	3260.5731	889.15	4.95
1055.5057	3261.4692	892.45	9.6
1055.6055	3262.3647	890.85	7.65
1055.7052	3263.2595	889.05	5.75
1055.8049	3264.1538	890.05	8.4
1055.9045	3265.0474	889.75	5.4
1056.0041	3265.9404	891.45	10.75
1056.1036	3266.8329	886.65	3.45
1056.2031	3267.7247	902	9.8
1056.3025	3268.616	889.05	7.8
1056.4019	3269.5066	889.25	5.3
1056.5013	3270.3966	891.05	6.2
1056.6005	3271.286	885.2	3
