Software Version:	3.9.2.0
Unit SN:	10000200
Spectrometer SN:	6960
Date:	3/14/2024 2:10:58 PM
Data Line Index:	25
Spectral Points:	2048
Integration time (ms):	125
Averages:	20
Delay (ms):	30000
Sequence Number:	1
Processing:	dark subtract
Laser Power (mW):	300
Laser Current (mA):	827
Laser Diode Temp (C):	25.1
Laser Case Temp (C):	29.1
System Temp (C):	29.1
Spectrometer Temp (C):	26.9
CCD Temp (C):	0.008
Secondary Temp (C):	20.008
Heatsink Temp (C):	24.916
CCDPCB Temp (C):	38.397
SecondaryPCB Temp (C):	36.051

Wavelength	RamanShift	Raw Counts	Dark Subtracted
787.061	30.1047	446.9	37.5
787.2016	32.3739	447.75	40.65
787.3422	34.6426	454.7	47.65
787.4828	36.9109	458.3	47.15
787.6235	39.1787	466.95	51.55
787.7642	41.4461	472.6	52.4
787.9049	43.7131	483.2	60.8
788.0456	45.9796	486.55	59.7
788.1863	48.2456	499.8	67.55
788.3271	50.5112	510.1	73.6
788.4679	52.7764	512.95	75.75
788.6087	55.0411	521.05	81.1
788.7496	57.3054	533.7	87.6
788.8904	59.5692	544.35	96.3
789.0313	61.8326	554.7	100.55
789.1722	64.0955	564.7	105.35
789.3132	66.3579	579.3	116.95
789.4541	68.6199	595.2	129
789.5951	70.8815	618.2	150.85
789.7361	73.1426	680.15	208.35
789.8771	75.4032	834.8	357.8
790.0181	77.6634	1216.8	734.9
790.1592	79.9231	2109.65	1622
790.3003	82.1824	4087.2	3591.3
790.4414	84.4412	7700.85	7187.1
790.5825	86.6995	12847.2	12311.8
790.7237	88.9574	18027.75	17470.15
790.8648	91.2148	21777.1	21203.25
791.006	93.4717	23583.3	23002.8
791.1472	95.7282	24142.1	23553.1
791.2885	97.9842	24161.25	23571.75
791.4297	100.2398	23723	23130.5
791.571	102.4949	23320.1	22724.85
791.7123	104.7495	22698.35	22095.9
791.8536	107.0036	22037.7	21436.4
791.9949	109.2573	21357.1	20758.5
792.1363	111.5105	20703.6	20099.45
792.2777	113.7632	20068	19466.95
792.4191	116.0154	19475.9	18859.65
792.5605	118.2672	19017.1	18409.5
792.7019	120.5185	18551.6	17945.6
792.8434	122.7693	18186.55	17578.35
792.9849	125.0197	17913.7	17300.6
793.1264	127.2696	17664.75	17048.05
793.2679	129.519	17547.4	16928.8
793.4094	131.7679	17393.25	16774.4
793.551	134.0163	17274.65	16653.3
793.6926	136.2642	17141.9	16512.45
793.8342	138.5117	17058.35	16422.75
793.9758	140.7587	16889.85	16255.95
794.1175	143.0052	16743.5	16105.65
794.2591	145.2512	16562.85	15925.8
794.4008	147.4967	16398.7	15762.25
794.5425	149.7417	16283.7	15646.25
794.6842	151.9863	16163.05	15522
794.826	154.2304	16111.9	15466.95
794.9677	156.4739	15995.2	15346.7
795.1095	158.717	15954.25	15305.6
795.2513	160.9596	15785.7	15131.1
795.3931	163.2017	15594.05	14939.9
795.535	165.4433	15356.6	14703.5
795.6768	167.6844	15076.5	14417.75
795.8187	169.925	14785.95	14125.05
795.9606	172.1651	14446.65	13778.2
796.1025	174.4047	14194.05	13526.05
796.2445	176.6439	13942.3	13271.75
796.3864	178.8825	13725.95	13052.7
796.5284	181.1206	13556.25	12877.45
796.6704	183.3582	13412.6	12731.9
796.8124	185.5954	13277.85	12597.4
796.9544	187.832	13171.2	12484.9
797.0965	190.0681	13120.3	12431.3
797.2386	192.3037	13092.4	12400
797.3806	194.5388	13087.15	12391.75
797.5228	196.7734	13118.25	12422
797.6649	199.0075	13148.2	12445.95
797.807	201.2411	13273	12569.85
797.9492	203.4742	13293.3	12588.65
798.0914	205.7068	13389.3	12684.05
798.2336	207.9389	13492	12788.35
798.3758	210.1704	13585.35	12878.85
798.518	212.4015	13677.9	12970.65
798.6603	214.632	13803.7	13093.25
798.8025	216.862	13978.7	13275.25
798.9448	219.0915	14091.95	13393.05
799.0871	221.3205	14316.35	13620.4
799.2294	223.549	14572.1	13884.1
799.3718	225.777	14858.95	14171.75
799.5141	228.0044	15244.3	14552.5
799.6565	230.2314	15693.75	15004.85
799.7989	232.4578	16135.25	15444.5
799.9413	234.6837	16480.5	15783.6
800.0837	236.909	16698.75	16002
800.2262	239.1339	16675.3	15953.9
800.3687	241.3582	16430.6	15724.15
800.5111	243.582	16075.65	15342.45
800.6536	245.8053	15677.15	14952.2
800.7961	248.0281	15334.95	14616.4
800.9387	250.2503	15031.8	14304.25
801.0812	252.472	14848.75	14120.75
801.2238	254.6932	14731.9	14000.95
801.3664	256.9139	14580.75	13846.5
801.509	259.134	14512.8	13776.15
801.6516	261.3536	14430.75	13693.05
801.7942	263.5727	14369.65	13632.35
801.9369	265.7912	14238.95	13503.9
802.0795	268.0092	14152.25	13415.55
802.2222	270.2267	14100.05	13358.8
802.3649	272.4436	14004.1	13266
802.5076	274.6601	13975.7	13228.9
802.6504	276.8759	13911.1	13168.95
802.7931	279.0913	13915.75	13171.35
802.9359	281.3061	13929.1	13182.85
803.0787	283.5204	14006.45	13259
803.2215	285.7341	14129.55	13375.7
803.3643	287.9473	14293.9	13530.7
803.5071	290.16	14500.2	13739.1
803.6499	292.3721	14798.7	14048.25
803.7928	294.5837	15177.55	14424.2
803.9357	296.7947	15506.2	14755.95
804.0786	299.0052	15672.6	14919.9
804.2215	301.2152	15520.4	14766.4
804.3644	303.4246	15194.1	14441.9
804.5074	305.6334	14682.95	13931.05
804.6503	307.8418	14234.4	13476.8
804.7933	310.0495	13850.25	13093.15
804.9363	312.2568	13609.65	12851.25
805.0793	314.4635	13407.2	12649.3
805.2223	316.6696	13378.9	12617.1
805.3653	318.8752	13317.35	12550.25
805.5084	321.0802	13416.85	12657.3
805.6514	323.2847	13480.3	12716.8
805.7945	325.4887	13545.05	12781.25
805.9376	327.692	13499.35	12737.3
806.0807	329.8949	13385.95	12620.85
806.2238	332.0972	13139.75	12373.3
806.367	334.2989	12873.1	12101.35
806.5101	336.5001	12608.3	11838.05
806.6533	338.7007	12446.65	11676.1
806.7965	340.9008	12326.65	11557.15
806.9397	343.1003	12213.95	11444.1
807.0829	345.2992	12187.45	11412.55
807.2261	347.4976	12144.35	11364.85
807.3693	349.6955	12123.2	11344.65
807.5126	351.8927	12210.65	11431.3
807.6559	354.0895	12219.85	11428.7
807.7991	356.2856	12240.2	11458.25
807.9424	358.4812	12202.2	11422.65
808.0857	360.6763	12207.1	11424.6
808.2291	362.8707	12179.4	11393.55
808.3724	365.0646	12194.9	11413.15
808.5158	367.258	12156.05	11370.9
808.6591	369.4508	12178.95	11388.65
808.8025	371.643	12215.1	11425.3
808.9459	373.8346	12192.35	11402.35
809.0893	376.0257	12148.85	11352.2
809.2327	378.2162	12063.85	11270.75
809.3762	380.4062	11959.75	11163.75
809.5196	382.5956	11824.5	11024.95
809.6631	384.7844	11731.15	10927.45
809.8066	386.9726	11615.55	10814.65
809.9501	389.1603	11576.15	10775.95
810.0936	391.3474	11554.9	10715.1
810.2371	393.5339	11523.35	10724.75
810.3806	395.7199	11447.1	10654.6
810.5241	397.9052	11445.3	10653.35
810.6677	400.09	11468.75	10677.3
810.8113	402.2743	11460.95	10674.25
810.9548	404.4579	11507.4	10718.75
811.0984	406.641	11632.1	10842.5
811.2421	408.8235	11808.35	11017.55
811.3857	411.0054	12094.55	11305.75
811.5293	413.1868	12539.7	11745.35
811.673	415.3675	12873.9	12079.55
811.8166	417.5477	13058.65	12263.3
811.9603	419.7273	13108.25	12307.3
812.104	421.9064	12996	12188.9
812.2477	424.0848	12867.6	12063.65
812.3914	426.2627	12652.55	11845.8
812.5351	428.4399	12423.85	11615.85
812.6788	430.6166	12104.85	11294.3
812.8226	432.7928	11769.5	10959.1
812.9663	434.9683	11472.8	10660.3
813.1101	437.1432	11257.7	10445.45
813.2539	439.3176	11106.85	10293.1
813.3977	441.4914	11012.25	10198.45
813.5415	443.6645	11000.45	10185.85
813.6853	445.8371	10941.6	10127.6
813.8291	448.0091	10872.75	10059.9
813.973	450.1806	10811.15	9995
814.1168	452.3514	10738.35	9920.5
814.2607	454.5216	10759.25	9935.55
814.4046	456.6913	10690.45	9870.65
814.5485	458.8603	10686.9	9869.35
814.6924	461.0288	10709	9890.85
814.8363	463.1967	10730.95	9913.75
814.9802	465.3639	10838.1	10018.1
815.1241	467.5306	10986.9	10165.2
815.2681	469.6967	11137.15	10315.15
815.412	471.8622	11273.4	10452.65
815.556	474.0271	11421.35	10601.1
815.7	476.1914	11491.7	10668.85
815.844	478.3551	11439.5	10618.65
815.988	480.5182	11397.45	10575.95
816.132	482.6807	11340.25	10516.8
816.276	484.8426	11378.6	10555.45
816.4201	487.0039	11593.55	10775.5
816.5641	489.1647	11915.55	11091.1
816.7082	491.3248	12281.5	11457.3
816.8522	493.4843	12477.4	11651.75
816.9963	495.6432	12484.6	11662.95
817.1404	497.8015	12423.8	11597.75
817.2845	499.9592	12436.6	11611.85
817.4286	502.1163	12414.8	11591.15
817.5727	504.2728	12257.9	11428.85
817.7168	506.4287	11977.9	11150.9
817.861	508.5839	11593.45	10767.1
818.0051	510.7386	11282.35	10455.15
818.1493	512.8927	11073.75	10239.3
818.2935	515.0461	10913.6	10086.45
818.4377	517.199	10835.85	10008.4
818.5818	519.3512	10751.6	9921.7
818.726	521.5029	10737.6	9901.15
818.8703	523.6539	10724.8	9894.15
819.0145	525.8043	10736	9904.4
819.1587	527.9541	10799.7	9966
819.303	530.1033	10802.35	9971.05
819.4472	532.2519	10857.75	10025.7
819.5915	534.3999	11006.95	10170.1
819.7357	536.5472	11271.2	10436.4
819.88	538.694	11705.85	10870.7
820.0243	540.8401	12260.6	11424.2
820.1686	542.9856	12770.9	11934.3
820.3129	545.1305	12941.9	12101.85
820.4572	547.2748	12804.4	11964.25
820.6016	549.4185	12431.2	11591.65
820.7459	551.5615	12086.85	11247.85
820.8902	553.704	11885	11045.15
821.0346	555.8458	11767.85	10930.2
821.1789	557.987	11722.25	10881.4
821.3233	560.1276	11583.6	10740.65
821.4677	562.2675	11479.25	10640.8
821.6121	564.4069	11372.85	10532.45
821.7565	566.5456	11250.55	10413.5
821.9009	568.6837	11099.1	10260
822.0453	570.8212	10902.35	10062.5
822.1897	572.958	10738.45	9899.5
822.3342	575.0942	10565.2	9724.95
822.4786	577.2299	10496.1	9658.8
822.6231	579.3648	10486.3	9648.4
822.7675	581.4992	10577	9738.85
822.912	583.6329	10751.8	9911.8
823.0565	585.766	10994.45	10154.45
823.201	587.8985	11102.65	10264.3
823.3454	590.0304	11123.65	10273.85
823.4899	592.1616	11030.65	10189.2
823.6345	594.2922	10957.4	10116.1
823.779	596.4222	10847.1	10005.25
823.9235	598.5515	10682.75	9840.4
824.068	600.6802	10548.25	9706.3
824.2126	602.8083	10366.1	9523.95
824.3571	604.9358	10302.4	9455.4
824.5017	607.0626	10200	9356.2
824.6462	609.1888	10136.9	9291.45
824.7908	611.3144	10019.15	9174.15
824.9354	613.4393	9852.35	9008.75
825.08	615.5636	9719.95	8877.1
825.2246	617.6873	9617.65	8775.3
825.3692	619.8103	9550	8702.05
825.5138	621.9327	9484.25	8634.65
825.6584	624.0544	9504.95	8659.65
825.803	626.1756	9497.6	8653.25
825.9477	628.2961	9459	8612.85
826.0923	630.4159	9411.1	8563.9
826.237	632.5351	9391.25	8546.85
826.3816	634.6537	9315.65	8467.85
826.5263	636.7716	9295.2	8444.1
826.6709	638.8889	9260.2	8411.45
826.8156	641.0056	9261	8411.6
826.9603	643.1216	9241.55	8393.4
827.105	645.237	9297	8445.6
827.2497	647.3518	9272.65	8424.9
827.3944	649.4659	9308.75	8459.3
827.5391	651.5793	9301.95	8450
827.6838	653.6922	9308.2	8458
827.8285	655.8043	9247.7	8398.1
827.9733	657.9159	9227.05	8377.75
828.118	660.0268	9156.55	8304.95
828.2627	662.137	9054.25	8203.1
828.4075	664.2466	9039	8184.35
828.5522	666.3556	9013.3	8161.15
828.697	668.4639	8994.05	8138.85
828.8418	670.5716	9020.85	8168.9
828.9865	672.6786	9086.7	8232.65
829.1313	674.785	9182.65	8326.45
829.2761	676.8907	9231.5	8376.95
829.4209	678.9958	9304.15	8453.45
829.5657	681.1002	9266.7	8414.75
829.7105	683.204	9241.3	8383.8
829.8553	685.3072	9194.1	8339.5
830.0001	687.4097	9104.45	8250.95
830.1449	689.5115	9030.95	8174.8
830.2898	691.6127	8975.85	8120.35
830.4346	693.7132	8905.05	8049.65
830.5794	695.8131	8853.25	7974.85
830.7243	697.9123	8782	7925.45
830.8691	700.0109	8738	7879.25
831.014	702.1089	8730.7	7874.05
831.1588	704.2061	8706	7847.95
831.3037	706.3028	8732.35	7873.2
831.4486	708.3987	8769.7	7912.3
831.5935	710.4941	8846.4	7989.15
831.7383	712.5887	8989.05	8132.85
831.8832	714.6827	9263.35	8402.8
832.0281	716.7761	9564.8	8705.45
832.173	718.8688	9918.75	9059.4
832.3179	720.9608	10106.4	9243.6
832.4628	723.0522	10118.25	9254
832.6077	725.1429	9875	9016.7
832.7527	727.233	9545.1	8685.25
832.8976	729.3224	9230.6	8369.5
833.0425	731.4112	8968.6	8107.5
833.1874	733.4993	8765.9	7902.65
833.3324	735.5867	8617.25	7754.15
833.4773	737.6735	8559.8	7696.05
833.6222	739.7596	8500.45	7639.25
833.7672	741.845	8485.5	7623.05
833.9122	743.9298	8466.15	7600.55
834.0571	746.014	8456.35	7596.05
834.2021	748.0974	8483.9	7621.4
834.347	750.1802	8477.35	7616.35
834.492	752.2624	8481.75	7619.6
834.637	754.3439	8470.8	7607.5
834.782	756.4247	8495.45	7623.4
834.9269	758.5048	8558.85	7694.45
835.0719	760.5843	8717.15	7854.85
835.2169	762.6631	8922.8	8060.45
835.3619	764.7413	9248.75	8386.9
835.5069	766.8188	9720.9	8856.65
835.6519	768.8956	10078.85	9212.35
835.7969	770.9718	10320.85	9458.95
835.9419	773.0473	10281.05	9419.9
836.0869	775.1221	10013.35	9150.4
836.232	777.1962	9669.2	8806.25
836.377	779.2697	9500.75	8636.15
836.522	781.3426	9544.35	8669.95
836.667	783.4147	9757.25	8893.3
836.8121	785.4862	10033.3	9167.2
836.9571	787.557	10114	9248.1
837.1021	789.6271	9783.25	8918.15
837.2472	791.6966	9323.95	8457.15
837.3922	793.7654	8867.3	8000.45
837.5373	795.8335	8634.6	7768.5
837.6823	797.901	8446.85	7581.85
837.8274	799.9678	8392.1	7525.4
837.9724	802.0339	8402.6	7535.75
838.1175	804.0993	8427.5	7553.8
838.2626	806.1641	8436.05	7569.25
838.4076	808.2282	8405.55	7542.9
838.5527	810.2916	8309.4	7439.85
838.6978	812.3544	8203.15	7338.7
838.8428	814.4164	8111	7248.15
838.9879	816.4778	8079.4	7214.9
839.133	818.5385	8069.9	7203.7
839.2781	820.5986	8101.45	7233.75
839.4232	822.658	8135.55	7267.4
839.5682	824.7166	8160.3	7295.55
839.7133	826.7747	8244	7376.85
839.8584	828.832	8332.45	7465.65
840.0035	830.8886	8406.25	7537.05
840.1486	832.9446	8506.35	7638.3
840.2937	834.9999	8601.9	7736.3
840.4388	837.0545	8684.6	7813.45
840.5839	839.1085	8722.45	7854.2
840.729	841.1618	8715.85	7842.95
840.8741	843.2143	8718.1	7851.85
841.0192	845.2662	8674.45	7807.95
841.1643	847.3175	8603.25	7738.1
841.3095	849.368	8519.7	7650.6
841.4546	851.4179	8399.1	7531.9
841.5997	853.467	8250	7381.55
841.7448	855.5155	8190.8	7321.75
841.8899	857.5633	8082.75	7216.35
842.0351	859.6105	7980.95	7114
842.1802	861.6569	7895.95	7027.45
842.3253	863.7027	7834.7	6962.35
842.4704	865.7478	7832.95	6961.3
842.6156	867.7922	7821.3	6951.4
842.7607	869.8359	7853.7	6984
842.9058	871.8789	7952.55	7081.75
843.0509	873.9212	8116.35	7212.55
843.1961	875.9629	8245.55	7376.05
843.3412	878.0039	8415.4	7545.8
843.4863	880.0441	8498.8	7627.4
843.6315	882.0837	8486.7	7615.65
843.7766	884.1226	8346.7	7476.9
843.9218	886.1609	8215.25	7347.3
844.0669	888.1984	8075.65	7207.7
844.212	890.2352	8032.75	7164.25
844.3572	892.2714	7974.75	7103.05
844.5023	894.3069	7951.3	7078.4
844.6475	896.3416	7910.3	7037.25
844.7926	898.3757	7876.5	7003.75
844.9377	900.4091	7851.1	6979
845.0829	902.4418	7863.4	6987.65
845.228	904.4739	7871.95	7000.95
845.3732	906.5052	7838.45	6966.2
845.5183	908.5358	7725.2	6854.9
845.6635	910.5658	7614.55	6740.35
845.8086	912.595	7463.3	6593.05
845.9538	914.6236	7354.35	6482.85
846.0989	916.6515	7331.25	6461.3
846.2441	918.6786	7318.3	6445.85
846.3892	920.7051	7386.1	6511.15
846.5344	922.7309	7476.4	6606.8
846.6795	924.756	7535.15	6664.25
846.8246	926.7804	7592.2	6717.45
846.9698	928.8041	7584.95	6711.8
847.1149	930.8272	7576.7	6704.1
847.2601	932.8495	7538.1	6663
847.4052	934.8711	7450.65	6577.65
847.5504	936.892	7299.4	6424.4
847.6955	938.9123	7159.85	6285.95
847.8407	940.9318	7033.4	6162.4
847.9858	942.9506	6905	6032.55
848.131	944.9688	6830.9	5957.15
848.2761	946.9862	6818.05	5944.3
848.4213	949.003	6779.15	5904.65
848.5664	951.019	6772	5898.75
848.7115	953.0344	6818.3	5945.55
848.8567	955.0491	6835	5960.35
849.0018	957.063	6884.4	6010.55
849.147	959.0763	6950.75	6078.45
849.2921	961.0888	6992.4	6116.15
849.4373	963.1007	7049.05	6175.9
849.5824	965.1119	7097.9	6223.75
849.7275	967.1223	7128.05	6257.85
849.8727	969.1321	7156.4	6281.15
850.0178	971.1412	7161.5	6287.5
850.1629	973.1495	7176.6	6301.3
850.3081	975.1572	7241.85	6333.9
850.4532	977.1641	7240.6	6365.1
850.5983	979.1704	7207.05	6333.2
850.7435	981.1759	7227.35	6351.35
850.8886	983.1808	7248	6372.9
851.0337	985.1849	7342.5	6458.25
851.1788	987.1884	7471.9	6593.65
851.324	989.1911	7647.8	6771.35
851.4691	991.1932	7755.05	6876.05
851.6142	993.1945	7801.8	6927.55
851.7593	995.1951	7781.2	6905.4
851.9045	997.1951	7771.6	6889
852.0496	999.1943	7691.15	6817.35
852.1947	1001.1928	7646.1	6770.75
852.3398	1003.1906	7632.8	6760.15
852.4849	1005.1877	7643.3	6766.9
852.63	1007.1841	7603.2	6727.05
852.7751	1009.1798	7514.25	6639.25
852.9202	1011.1748	7358.75	6483.7
853.0653	1013.1691	7188.05	6311.6
853.2104	1015.1627	7012.95	6137.25
853.3555	1017.1556	6850.8	5977.6
853.5006	1019.1477	6757.25	5882.45
853.6457	1021.1392	6727.8	5853.95
853.7908	1023.1299	6688.25	5813.1
853.9359	1025.12	6742.6	5863
854.081	1027.1093	6780.05	5905.25
854.2261	1029.0979	6829.7	5953.35
854.3712	1031.0859	6867.95	5992.4
854.5163	1033.0731	6869.65	5993.1
854.6613	1035.0596	6793.65	5918.05
854.8064	1037.0454	6669.55	5794.4
854.9515	1039.0304	6596.1	5719.7
855.0965	1041.0148	6483.6	5607.3
855.2416	1042.9985	6407.2	5529.85
855.3867	1044.9814	6360.15	5484.95
855.5317	1046.9636	6329.7	5450.75
855.6768	1048.9452	6320.3	5446.55
855.8219	1050.926	6305.7	5432.2
855.9669	1052.9061	6301.45	5427.5
856.112	1054.8855	6294.2	5418.2
856.257	1056.8642	6307.7	5429.7
856.4021	1058.8421	6335.7	5455.3
856.5471	1060.8194	6352.5	5475.35
856.6921	1062.7959	6387.2	5509.9
856.8372	1064.7717	6373.5	5494.85
856.9822	1066.7469	6377.95	5499.55
857.1272	1068.7213	6354.2	5475.35
857.2723	1070.695	6317.1	5440.05
857.4173	1072.6679	6261.55	5384.85
857.5623	1074.6402	6210.6	5334.95
857.7073	1076.6117	6195.1	5314.1
857.8523	1078.5826	6222.35	5344.4
857.9973	1080.5527	6303.55	5425.4
858.1423	1082.5221	6407.9	5529.95
858.2873	1084.4908	6581.4	5705.9
858.4323	1086.4587	6775.95	5898.85
858.5773	1088.426	6905.35	6027.25
858.7223	1090.3925	6902.7	6019.5
858.8673	1092.3584	6839.35	5963.6
859.0123	1094.3235	6703.15	5828.1
859.1573	1096.2879	6607.3	5728.5
859.3022	1098.2515	6569.3	5691.25
859.4472	1100.2145	6564.3	5687.1
859.5922	1102.1767	6608.55	5728.75
859.7371	1104.1382	6739.7	5861.95
859.8821	1106.099	6913.95	6033.4
860.027	1108.0591	7067.55	6191.9
860.172	1110.0185	7172	6291.25
860.3169	1111.9771	7173.1	6296.05
860.4619	1113.9351	6974.75	6099.65
860.6068	1115.8923	6730.55	5852.1
860.7517	1117.8488	6435.65	5555.35
860.8967	1119.8045	6195.5	5317.5
861.0416	1121.7596	6066.95	5190.3
861.1865	1123.7139	6014.55	5137.9
861.3314	1125.6675	6001.8	5124.5
861.4763	1127.6204	6053.2	5176
861.6212	1129.5726	6087.7	5208.35
861.7661	1131.524	6112.65	5233.25
861.911	1133.4748	6160.2	5283
862.0559	1135.4248	6180.2	5299.5
862.2008	1137.3741	6187.75	5310.25
862.3457	1139.3226	6181	5304.8
862.4905	1141.2705	6160.05	5281.55
862.6354	1143.2176	6094.35	5207.6
862.7803	1145.164	6109.8	5229.65
862.9251	1147.1097	6127.3	5249.85
863.07	1149.0546	6134.9	5254.85
863.2148	1150.9989	6061.95	5182.8
863.3597	1152.9424	5913	5036.5
863.5045	1154.8852	5733.65	4855.95
863.6493	1156.8272	5624.3	4748.2
863.7942	1158.7686	5531.75	4647.05
863.939	1160.7092	5508.1	4627.5
864.0838	1162.6491	5497.95	4617.05
864.2286	1164.5883	5527.1	4648.7
864.3734	1166.5267	5608.4	4726.95
864.5182	1168.4644	5709.05	4830.7
864.663	1170.4014	5862	4982.25
864.8078	1172.3377	6048.95	5173.85
864.9526	1174.2732	6228.45	5349.4
865.0974	1176.2081	6386.5	5509.6
865.2421	1178.1421	6513.6	5631.95
865.3869	1180.0755	6615.55	5738.85
865.5317	1182.0082	6624.15	5746.95
865.6764	1183.9401	6568.5	5688.7
865.8212	1185.8713	6380.35	5501.35
865.9659	1187.8017	6196.8	5316.85
866.1106	1189.7315	5992.6	5112.25
866.2554	1191.6605	5806.55	4898.45
866.4001	1193.5888	5620.9	4741.45
866.5448	1195.5163	5525.75	4647.7
866.6895	1197.4432	5433.95	4552.8
866.8342	1199.3693	5374.4	4495.7
866.9789	1201.2947	5333.25	4454
867.1236	1203.2193	5326.25	4447.1
867.2683	1205.1432	5338.9	4457.85
867.413	1207.0664	5395.3	4517
867.5576	1208.9889	5446.45	4563.95
867.7023	1210.9106	5524.65	4646.55
867.847	1212.8316	5606.05	4728.25
867.9916	1214.7519	5654.1	4761.45
868.1363	1216.6715	5666.15	4787.9
868.2809	1218.5903	5657.3	4778.4
868.4255	1220.5084	5621.75	4742.9
868.5701	1222.4257	5582.95	4706.1
868.7148	1224.3424	5573.9	4694.65
868.8594	1226.2583	5586	4699.35
869.004	1228.1735	5659	4780.15
869.1486	1230.0879	5779.55	4896.75
869.2932	1232.0016	5895.25	5018.15
869.4377	1233.9146	5928.75	5045.95
869.5823	1235.8269	5851.7	4974.5
869.7269	1237.7384	5737.85	4860.2
869.8715	1239.6492	5585.9	4708.75
870.016	1241.5592	5513	4630.8
870.1606	1243.4686	5414.65	4535.6
870.3051	1245.3772	5359.05	4479.7
870.4496	1247.285	5318.95	4440.15
870.5941	1249.1922	5269.9	4389
870.7387	1251.0986	5272.85	4393.4
870.8832	1253.0042	5284	4404.25
871.0277	1254.9092	5341.75	4462.2
871.1722	1256.8134	5431	4551.5
871.3167	1258.7169	5529.4	4648.15
871.4611	1260.6196	5654.6	4775.95
871.6056	1262.5216	5803.75	4921.95
871.7501	1264.4229	5911.2	5033.05
871.8945	1266.3234	5993	5113.2
872.039	1268.2232	6021.75	5140.85
872.1834	1270.1223	6024.75	5144
872.3278	1272.0207	5987.05	5107.8
872.4723	1273.9183	5974.5	5089.6
872.6167	1275.8151	5880.05	5002.05
872.7611	1277.7113	5835.75	4954.6
872.9055	1279.6067	5702.8	4824
873.0499	1281.5014	5581.35	4698.2
873.1943	1283.3953	5445.75	4561.25
873.3386	1285.2885	5354.85	4476.45
873.483	1287.181	5303.25	4423.9
873.6274	1289.0727	5319.2	4440.3
873.7717	1290.9637	5344.65	4465.2
873.9161	1292.854	5434.2	4554.1
874.0604	1294.7435	5548.5	4669.1
874.2047	1296.6323	5708.45	4826.4
874.349	1298.5204	5944.25	5060.35
874.4933	1300.4077	6154.55	5272.1
874.6376	1302.2943	6307.45	5426.3
874.7819	1304.1802	6376.45	5494.5
874.9262	1306.0653	6359.65	5475
875.0705	1307.9497	6256.55	5375.6
875.2147	1309.8333	6168.4	5288.2
875.359	1311.7162	6171.7	5290.55
875.5032	1313.5984	6248.05	5364.35
875.6475	1315.4798	6395.85	5501
875.7917	1317.3605	6544.65	5650.3
875.9359	1319.2405	6659.55	5780.25
876.0801	1321.1197	6697.7	5814.55
876.2243	1322.9982	6644.7	5757.65
876.3685	1324.876	6658.35	5776.6
876.5127	1326.753	6641.05	5760.35
876.6569	1328.6293	6654.2	5769.55
876.801	1330.5048	6675.7	5792.25
876.9452	1332.3796	6641.25	5761.85
877.0893	1334.2537	6645.75	5742.3
877.2335	1336.127	6596.65	5718.95
877.3776	1337.9996	6539.5	5658.35
877.5217	1339.8714	6500.15	5620.25
877.6658	1341.7426	6470.2	5545.15
877.8099	1343.6129	6397.7	5519.05
877.954	1345.4826	6332.7	5451.65
878.0981	1347.3515	6296.8	5413.4
878.2422	1349.2196	6255.45	5374.25
878.3862	1351.087	6233.7	5354.35
878.5303	1352.9537	6275.25	5393.7
878.6743	1354.8197	6374.95	5494.85
878.8184	1356.6849	6488.35	5606.85
878.9624	1358.5493	6576.8	5697.15
879.1064	1360.4131	6547.25	5667.45
879.2504	1362.276	6490.2	5610.2
879.3944	1364.1383	6368.15	5486.25
879.5384	1365.9998	6205.55	5319.5
879.6823	1367.8606	5976.7	5095.1
879.8263	1369.7206	5785.85	4905.35
879.9702	1371.5799	5663.65	4779.45
880.1142	1373.4384	5559.35	4681.1
880.2581	1375.2962	5470.35	4585
880.402	1377.1533	5273.25	4390.7
880.5459	1379.0096	5072.8	4191.2
880.6898	1380.8652	4848.55	3967.95
880.8337	1382.7201	4666.8	3787.2
880.9776	1384.5742	4513.35	3633.5
881.1215	1386.4275	4390.2	3507.7
881.2653	1388.2802	4304.55	3425.4
881.4092	1390.132	4233.1	3351.3
881.553	1391.9832	4182.1	3298.25
881.6968	1393.8336	4133.75	3253.05
881.8406	1395.6832	4110.8	3224.95
881.9844	1397.5322	4080.15	3201.4
882.1282	1399.3803	4067.8	3184.95
882.272	1401.2278	4047.95	3166.65
882.4158	1403.0745	4065.6	3185.2
882.5595	1404.9204	4042.4	3160.5
882.7033	1406.7656	4049.7	3167.2
882.847	1408.6101	4087.9	3204.3
882.9908	1410.4538	4099.3	3216.65
883.1345	1412.2968	4132.55	3253.7
883.2782	1414.139	4168.9	3287.6
883.4219	1415.9805	4228.45	3348.25
883.5656	1417.8213	4332.6	3443.7
883.7092	1419.6613	4423.15	3542.2
883.8529	1421.5006	4600.25	3718.5
883.9965	1423.3391	4813.45	3929.85
884.1402	1425.1769	5106.3	4224.75
884.2838	1427.0139	5526.75	4643.4
884.4274	1428.8502	6046	5165.9
884.571	1430.6858	6547.2	5665.65
884.7146	1432.5206	6902.45	6021.75
884.8582	1434.3547	7114.1	6231.7
885.0018	1436.188	7168.75	6287.55
885.1453	1438.0206	7116.2	6233.75
885.2889	1439.8524	6995.85	6115.1
885.4324	1441.6835	6926.15	6044.3
885.5759	1443.5139	6853.4	5969.15
885.7194	1445.3435	6797.95	5915.45
885.8629	1447.1724	6764.2	5883.25
886.0064	1449.0005	6691.45	5808.15
886.1499	1450.8279	6614.85	5731.6
886.2933	1452.6545	6583.6	5702.85
886.4368	1454.4804	6597.15	5714.7
886.5802	1456.3056	6599.65	5711.4
886.7237	1458.13	6510.35	5628.45
886.8671	1459.9536	6333.35	5453.8
887.0105	1461.7766	6042.9	5162.55
887.1539	1463.5987	5669.45	4785.95
887.2972	1465.4202	5370.9	4487.35
887.4406	1467.2409	5077.25	4195.2
887.584	1469.0608	4850.35	3968.65
887.7273	1470.88	4652.15	3769.95
887.8706	1472.6984	4461.9	3581.25
888.0139	1474.5161	4303.25	3418.8
888.1572	1476.3331	4178.65	3297
888.3005	1478.1493	4086	3204.65
888.4438	1479.9648	4005.15	3123.95
888.5871	1481.7795	3914.25	3034.55
888.7303	1483.5935	3871.95	2990.6
888.8736	1485.4067	3816.8	2937.45
889.0168	1487.2192	3778.35	2896.75
889.16	1489.031	3754.45	2872.85
889.3032	1490.842	3714.5	2834.9
889.4464	1492.6522	3695.15	2812.95
889.5896	1494.4618	3664.55	2783.15
889.7327	1496.2705	3642.8	2760.9
889.8759	1498.0785	3622.5	2740.05
890.019	1499.8858	3610.75	2727.15
890.1622	1501.6924	3593.8	2713.1
890.3053	1503.4981	3590.1	2707.1
890.4484	1505.3032	3579.95	2697.5
890.5914	1507.1075	3546.5	2663.4
890.7345	1508.911	3538.1	2656.85
890.8776	1510.7138	3506.65	2625.9
891.0206	1512.5159	3485.65	2605.15
891.1637	1514.3172	3459	2578.6
891.3067	1516.1178	3435.7	2556.95
891.4497	1517.9176	3418.6	2533.8
891.5927	1519.7166	3387.75	2507.7
891.7357	1521.515	3393.15	2507.15
891.8786	1523.3126	3363	2481.55
892.0216	1525.1094	3360.6	2478.1
892.1645	1526.9055	3341.35	2462.45
892.3074	1528.7008	3326.25	2446.8
892.4503	1530.4954	3309.8	2422.9
892.5932	1532.2893	3302.85	2422.95
892.7361	1534.0824	3298.55	2412.15
892.879	1535.8747	3285.75	2405.55
893.0218	1537.6663	3290.15	2406.65
893.1647	1539.4572	3268.75	2386.65
893.3075	1541.2473	3259.4	2376.75
893.4503	1543.0367	3272.3	2390.75
893.5931	1544.8253	3264.2	2377.85
893.7359	1546.6132	3278.1	2394.85
893.8787	1548.4003	3269.95	2378.7
894.0214	1550.1867	3287.05	2398.95
894.1642	1551.9723	3292.4	2406.05
894.3069	1553.7572	3307.95	2427.3
894.4496	1555.5414	3332.65	2450.1
894.5923	1557.3247	3347.4	2466.85
894.735	1559.1074	3390.7	2512
894.8777	1560.8893	3404.95	2525.15
895.0204	1562.6705	3480.25	2598.25
895.163	1564.4509	3547.95	2665.85
895.3056	1566.2305	3600.2	2718.95
895.4482	1568.0094	3681.55	2800.65
895.5908	1569.7876	3747.1	2866.7
895.7334	1571.565	3800.35	2918.65
895.876	1573.3417	3843.45	2961.35
896.0186	1575.1176	3857.75	2976.45
896.1611	1576.8928	3839.45	2958.5
896.3036	1578.6672	3773.75	2892.65
896.4461	1580.4409	3691.8	2811.75
896.5886	1582.2138	3575.85	2690.8
896.7311	1583.986	3494.55	2612.8
896.8736	1585.7575	3421.45	2540.95
897.0161	1587.5282	3331.65	2450.35
897.1585	1589.2981	3302.3	2423.55
897.3009	1591.0673	3266.6	2385.55
897.4433	1592.8358	3252	2371.15
897.5857	1594.6035	3249.05	2367.05
897.7281	1596.3704	3236.5	2356.3
897.8705	1598.1366	3247.8	2367.5
898.0128	1599.9021	3256.9	2378.4
898.1551	1601.6668	3286.15	2402.45
898.2975	1603.4308	3333.4	2452.35
898.4398	1605.194	3386.65	2503.45
898.5821	1606.9564	3436.9	2557.55
898.7243	1608.7182	3533.7	2648.9
898.8666	1610.4791	3633.35	2750.9
899.0088	1612.2394	3751.2	2872.65
899.1511	1613.9988	3913.05	3031.35
899.2933	1615.7576	4092.25	3211.55
899.4355	1617.5156	4296.4	3409.95
899.5776	1619.2728	4484.9	3604.1
899.7198	1621.0293	4612.35	3731.95
899.862	1622.785	4692.25	3805.85
900.0041	1624.54	4663.65	3780.2
900.1462	1626.2942	4561.85	3680.35
900.2883	1628.0477	4378.4	3492.5
900.4304	1629.8005	4186.2	3303.85
900.5725	1631.5525	3993.6	3112.9
900.7145	1633.3037	3816.05	2935.4
900.8566	1635.0542	3670.85	2790.1
900.9986	1636.804	3579.1	2699.35
901.1406	1638.553	3553.45	2599.45
901.2826	1640.3013	3476.25	2594.9
901.4245	1642.0488	3416.8	2534.8
901.5665	1643.7955	3411.65	2534.35
901.7085	1645.5416	3438.7	2555.95
901.8504	1647.2868	3470.3	2591.6
901.9923	1649.0313	3517.9	2636.25
902.1342	1650.7751	3652.45	2769.55
902.2761	1652.5181	3796.2	2918.2
902.4179	1654.2604	3999.6	3118.05
902.5598	1656.0019	4255.3	3377.1
902.7016	1657.7427	4532.8	3652.4
902.8434	1659.4828	4818.95	3939
902.9852	1661.222	5017.6	4136.95
903.127	1662.9606	5050.3	4169.45
903.2687	1664.6984	4934.35	4054.7
903.4105	1666.4354	4685.4	3805.6
903.5522	1668.1717	4332.5	3452.35
903.6939	1669.9072	3959.45	3079.25
903.8356	1671.642	3683.1	2801.95
903.9773	1673.3761	3429.55	2552.15
904.119	1675.1094	3255.65	2375.5
904.2606	1676.8419	3114.05	2233.75
904.4022	1678.5737	3006.45	2127.4
904.5439	1680.3048	2942.9	2063.55
904.6855	1682.0351	2879	1998.55
904.827	1683.7646	2834.65	1951.1
904.9686	1685.4934	2808.35	1927.7
905.1101	1687.2215	2772.3	1891.1
905.2517	1688.9488	2750.5	1870.25
905.3932	1690.6754	2723.35	1842.55
905.5347	1692.4012	2712.7	1834.7
905.6761	1694.1263	2690.05	1811.75
905.8176	1695.8506	2678.75	1799.1
905.9591	1697.5742	2668.25	1788.65
906.1005	1699.297	2650.7	1770.4
906.2419	1701.0191	2630.4	1750.95
906.3833	1702.7404	2618.5	1736.95
906.5246	1704.461	2592.4	1712.2
906.666	1706.1808	2589.3	1709.7
906.8073	1707.8999	2580.5	1698.2
906.9487	1709.6182	2577.4	1696.6
907.09	1711.3358	2563.1	1684.05
907.2313	1713.0527	2552	1674.6
907.3725	1714.7688	2548	1663.65
907.5138	1716.4841	2528.4	1645.65
907.655	1718.1987	2535.95	1651.15
907.7962	1719.9126	2512.7	1634.95
907.9374	1721.6257	2510.35	1626.35
908.0786	1723.338	2497.95	1618.3
908.2198	1725.0496	2483.55	1602.3
908.3609	1726.7605	2479.45	1598.9
908.502	1728.4706	2474.4	1593.1
908.6431	1730.18	2465.1	1582.65
908.7842	1731.8886	2448.95	1567.85
908.9253	1733.5964	2451.45	1569.45
909.0664	1735.3036	2451.15	1569.75
909.2074	1737.0099	2436.55	1556.3
909.3484	1738.7156	2434.85	1555.65
909.4894	1740.4204	2425.55	1543.6
909.6304	1742.1246	2427.65	1547
909.7714	1743.8279	2423.5	1544.4
909.9123	1745.5306	2415.4	1535.25
910.0532	1747.2325	2391.7	1511
910.1941	1748.9336	2399.15	1519.2
910.335	1750.634	2401.2	1520.2
910.4759	1752.3336	2389.3	1507.55
910.6168	1754.0325	2386.05	1505.75
910.7576	1755.7307	2383.55	1503.8
910.8984	1757.4281	2373.6	1495.1
911.0392	1759.1247	2371.55	1484.75
911.18	1760.8206	2381.75	1498.95
911.3208	1762.5158	2365.85	1481.5
911.4615	1764.2102	2359.05	1480.7
911.6022	1765.9039	2348.85	1467.95
911.7429	1767.5968	2355.5	1475
911.8836	1769.289	2336.65	1456.45
912.0243	1770.9804	2336.5	1456.35
912.1649	1772.6711	2332.5	1451.15
912.3056	1774.361	2326.35	1448.4
912.4462	1776.0502	2328	1448.8
912.5868	1777.7386	2333.45	1452.4
912.7274	1779.4263	2312.6	1431.85
912.8679	1781.1132	2309.2	1427.4
913.0084	1782.7994	2313.7	1431.4
913.149	1784.4849	2307.55	1428.1
913.2895	1786.1696	2317.5	1418.15
913.4299	1787.8535	2295.05	1416.5
913.5704	1789.5367	2285.65	1405.1
913.7108	1791.2192	2290.95	1412.25
913.8513	1792.9009	2308.5	1402.65
913.9917	1794.5818	2292.35	1413.15
914.132	1796.2621	2268.4	1390.25
914.2724	1797.9415	2263.2	1383.85
914.4128	1799.6202	2268.55	1388.55
914.5531	1801.2982	2263.05	1382.55
914.6934	1802.9755	2263.65	1382.85
914.8337	1804.6519	2258.7	1378.05
914.9739	1806.3277	2246.1	1367.25
915.1142	1808.0027	2245.95	1368.05
915.2544	1809.6769	2244.3	1362.95
915.3946	1811.3504	2251.25	1369.75
915.5348	1813.0231	2243.7	1361.45
915.675	1814.6951	2248.6	1368.1
915.8151	1816.3664	2239.7	1356.8
915.9553	1818.0369	2234.85	1354.3
916.0954	1819.7067	2220.05	1341.6
916.2355	1821.3757	2225.45	1342.75
916.3755	1823.044	2230.15	1351
916.5156	1824.7115	2218.85	1337.3
916.6556	1826.3783	2207.4	1330.2
916.7956	1828.0443	2208.85	1330.2
916.9356	1829.7096	2214.8	1332.8
917.0756	1831.3741	2212.65	1330.75
917.2155	1833.0379	2194.1	1314.55
917.3555	1834.701	2193.55	1311.5
917.4954	1836.3633	2190.45	1307.65
917.6353	1838.0248	2195.2	1313.15
917.7751	1839.6856	2187.9	1306.9
917.915	1841.3457	2182.1	1302.45
918.0548	1843.005	2174.5	1295.8
918.1946	1844.6636	2183.65	1304.55
918.3344	1846.3214	2177.75	1298.6
918.4742	1847.9785	2177.2	1297.95
918.6139	1849.6349	2174.55	1294.35
918.7537	1851.2904	2181.9	1290.6
918.8934	1852.9453	2170.5	1292.05
919.0331	1854.5994	2167.2	1286.15
919.1727	1856.2528	2164.75	1279.85
919.3124	1857.9054	2165.35	1286.7
919.452	1859.5572	2154	1275.5
919.5916	1861.2083	2151.65	1271.7
919.7312	1862.8587	2147.9	1267.3
919.8708	1864.5084	2151.95	1272.1
920.0103	1866.1572	2129.1	1250.45
920.1498	1867.8054	2132.8	1254.05
920.2893	1869.4528	2133.3	1254.05
920.4288	1871.0994	2134.95	1254.75
920.5683	1872.7453	2128	1245.65
920.7077	1874.3905	2122.4	1237.15
920.8471	1876.0349	2122.5	1240.75
920.9865	1877.6786	2115.2	1234.9
921.1259	1879.3215	2114.25	1235.9
921.2653	1880.9637	2109.95	1228.85
921.4046	1882.6051	2096.4	1217.45
921.5439	1884.2458	2110	1229.05
921.6832	1885.8858	2088.95	1205.5
921.8225	1887.525	2097.15	1218.75
921.9617	1889.1634	2101.8	1223.15
922.101	1890.8011	2074.55	1195.8
922.2402	1892.4381	2084.75	1206.55
922.3794	1894.0743	2082.25	1202.25
922.5185	1895.7098	2080.2	1201.15
922.6577	1897.3446	2067.2	1186.55
922.7968	1898.9786	2068.7	1184.85
922.9359	1900.6118	2064.95	1187.45
923.075	1902.2443	2066.35	1183.45
923.214	1903.8761	2059.45	1180.2
923.3531	1905.5071	2044.7	1162.3
923.4921	1907.1374	2042.65	1161.95
923.6311	1908.7669	2050.35	1169.9
923.77	1910.3957	2043.55	1163.15
923.909	1912.0237	2047.15	1166.05
924.0479	1913.651	2044.8	1163.75
924.1868	1915.2776	2028.65	1151.15
924.3257	1916.9034	2024.65	1146.6
924.4646	1918.5285	2022.1	1143.05
924.6034	1920.1528	2018.35	1138.4
924.7422	1921.7764	2019.7	1139.9
924.881	1923.3992	2007.8	1130.05
925.0198	1925.0213	2007.65	1126.95
925.1586	1926.6427	2007.6	1127.95
925.2973	1928.2633	2090.85	1105.95
925.436	1929.8832	2012.75	1131.2
925.5747	1931.5023	1993.9	1114.45
925.7134	1933.1207	1996.15	1115.35
925.852	1934.7383	1989.2	1108.75
925.9906	1936.3552	1983.55	1104.6
926.1292	1937.9714	1987.15	1108.55
926.2678	1939.5868	1987.2	1106.05
926.4064	1941.2015	1980.1	1101.45
926.5449	1942.8154	1960.75	1079.6
926.6834	1944.4286	1960.05	1078.95
926.8219	1946.041	1982.95	1079.8
926.9604	1947.6528	1964.75	1077.8
927.0988	1949.2637	1939.4	1062.7
927.2372	1950.8739	1940.95	1060.6
927.3756	1952.4834	1949.2	1068.75
927.514	1954.0921	1938.1	1056.9
927.6523	1955.7001	1928.95	1045.1
927.7907	1957.3074	1935.5	1057.9
927.929	1958.9139	1918.75	1040.85
928.0673	1960.5197	1924.25	1043.65
928.2055	1962.1247	1908.05	1031.95
928.3438	1963.729	1911.25	1031.55
928.482	1965.3325	1933.8	1031.5
928.6202	1966.9353	1907.8	1029.8
928.7584	1968.5374	1910.1	1029.25
928.8965	1970.1387	1904.55	1024.5
929.0346	1971.7393	1899.15	1019.15
929.1727	1973.3392	1883.9	1004.65
929.3108	1974.9383	1885.1	1004
929.4489	1976.5366	1879.65	1001.8
929.5869	1978.1342	1881.15	1000.95
929.7249	1979.7311	1875.6	992.3
929.8629	1981.3273	1872.65	992.65
930.0009	1982.9227	1868.35	987.85
930.1388	1984.5173	1868.15	988.15
930.2767	1986.1112	1861.4	983.8
930.4146	1987.7044	1863.2	982.9
930.5525	1989.2968	1861.3	980.5
930.6904	1990.8885	1866.3	983.7
930.8282	1992.4795	1856.3	972.8
930.966	1994.0697	1845.05	966.35
931.1038	1995.6592	1839.25	957.9
931.2415	1997.2479	1842.6	962.75
931.3793	1998.8359	1842.35	962.9
931.517	2000.4232	1835.3	956.3
931.6547	2002.0097	1840.65	962.8
931.7923	2003.5955	1831.3	949.55
931.93	2005.1805	1830.95	949.45
932.0676	2006.7648	1835.15	956.4
932.2052	2008.3484	1830.3	949.6
932.3427	2009.9312	1832.45	951.4
932.4803	2011.5133	1814.45	935.05
932.6178	2013.0946	1811.5	931.9
932.7553	2014.6752	1818.3	940.95
932.8928	2016.2551	1816.6	935.35
933.0302	2017.8342	1812.3	934.55
933.1676	2019.4126	1802.6	923.25
933.305	2020.9902	1800.85	921.95
933.4424	2022.5672	1814.85	933.65
933.5798	2024.1433	1801	914.45
933.7171	2025.7188	1791.05	913.05
933.8544	2027.2935	1794.9	913.2
933.9917	2028.8674	1790.85	910.6
934.129	2030.4406	1786.7	908.1
934.2662	2032.0131	1784.5	904.4
934.4034	2033.5849	1782.6	900.45
934.5406	2035.1559	1776.25	896.7
934.6778	2036.7261	1787.1	907.7
934.8149	2038.2957	1773.2	893.9
934.952	2039.8645	1765.1	887.6
935.0891	2041.4325	1776.9	894.15
935.2262	2042.9998	1771.55	893.45
935.3632	2044.5664	1770.75	888.6
935.5002	2046.1323	1768.25	889.55
935.6372	2047.6974	1762.85	884.45
935.7742	2049.2617	1759.35	879.85
935.9111	2050.8254	1780.65	879.3
936.048	2052.3883	1760.05	878.2
936.1849	2053.9504	1757.85	879.25
936.3218	2055.5118	1752.4	871.75
936.4586	2057.0725	1747.85	863.95
936.5955	2058.6325	1756.75	878.65
936.7323	2060.1917	1738.95	858.65
936.869	2061.7502	1746.35	862.45
937.0058	2063.3079	1732.6	853.5
937.1425	2064.8649	1737.05	852.1
937.2792	2066.4212	1733.3	853.95
937.4159	2067.9767	1734.4	855.2
937.5525	2069.5315	1725.55	845.1
937.6891	2071.0856	1714.9	832.25
937.8257	2072.6389	1722.85	841.3
937.9623	2074.1915	1707.65	829
938.0989	2075.7433	1712.3	831.05
938.2354	2077.2945	1711.2	833.2
938.3719	2078.8448	1704.8	826.1
938.5084	2080.3945	1701.8	822.2
938.6448	2081.9434	1702.35	822.85
938.7812	2083.4916	1696.1	814.7
938.9176	2085.039	1695.7	815.9
939.054	2086.5857	1688.8	808.35
939.1903	2088.1317	1692.9	813
939.3267	2089.677	1693.6	813.45
939.463	2091.2215	1683.4	803.15
939.5992	2092.7652	1685.05	806.5
939.7355	2094.3083	1676.8	796.6
939.8717	2095.8506	1680.85	804.5
940.0079	2097.3921	1682.7	804.55
940.1441	2098.933	1681.1	802.1
940.2802	2100.4731	1674	793.75
940.4163	2102.0124	1683.9	796.4
940.5524	2103.5511	1676.3	796.85
940.6885	2105.089	1683.7	804.7
940.8245	2106.6261	1667.8	785.75
940.9606	2108.1626	1665.8	782.55
941.0965	2109.6983	1689.85	781.1
941.2325	2111.2332	1667.3	787
941.3684	2112.7675	1660.85	782.65
941.5044	2114.301	1655.05	773.4
941.6403	2115.8337	1660.65	780.35
941.7761	2117.3657	1660.75	781.7
941.912	2118.897	1650.15	770
942.0478	2120.4276	1655.65	770.9
942.1835	2121.9575	1651.35	772.85
942.3193	2123.4866	1658.7	762.45
942.455	2125.0149	1647.5	764.45
942.5907	2126.5426	1643.25	762.9
942.7264	2128.0695	1647.65	764.1
942.8621	2129.5956	1645.2	765.65
942.9977	2131.1211	1637.8	751.05
943.1333	2132.6458	1634.9	755.7
943.2689	2134.1698	1630.6	749.85
943.4044	2135.693	1635.75	753
943.54	2137.2155	1631.75	750.55
943.6755	2138.7373	1625.3	743.4
943.8109	2140.2584	1623.65	742.85
943.9464	2141.7787	1632.45	744.25
944.0818	2143.2983	1625.6	746.4
944.2172	2144.8171	1621.55	743.3
944.3526	2146.3353	1616.65	733.75
944.4879	2147.8527	1614.6	736.55
944.6232	2149.3693	1610.35	730.2
944.7585	2150.8853	1610.05	731.7
944.8938	2152.4005	1603.25	723.25
945.029	2153.9149	1597.65	719.85
945.1642	2155.4287	1593	713.1
945.2994	2156.9417	1598.8	717.3
945.4346	2158.454	1601.8	720.5
945.5697	2159.9655	1600.7	718.9
945.7048	2161.4764	1604.35	724.3
945.8399	2162.9865	1591.45	710.95
945.9749	2164.4958	1594.65	713.85
946.1099	2166.0045	1590.4	707.2
946.2449	2167.5124	1593.3	713.6
946.3799	2169.0195	1593.7	714.55
946.5148	2170.526	1591.4	710.4
946.6498	2172.0317	1593.5	713.35
946.7846	2173.5367	1590.25	709.4
946.9195	2175.0409	1583.9	704.95
947.0543	2176.5445	1580.25	700.85
947.1891	2178.0473	1576.15	695.45
947.3239	2179.5494	1580.6	699.55
947.4587	2181.0507	1575.75	694.7
947.5934	2182.5513	1575.4	694.45
947.7281	2184.0512	1573.95	692.55
947.8628	2185.5504	1566.85	689.2
947.9974	2187.0488	1567	685.85
948.132	2188.5465	1568.95	689.05
948.2666	2190.0435	1565.3	684.3
948.4012	2191.5397	1561.75	682.65
948.5357	2193.0353	1563.4	684
948.6702	2194.5301	1552.8	672.25
948.8047	2196.0241	1549.45	669.85
948.9392	2197.5175	1552.4	673.3
949.0736	2199.0101	1547.55	665.15
949.208	2200.502	1543.7	666.35
949.3424	2201.9931	1549.3	668.45
949.4767	2203.4835	1544.95	662.85
949.611	2204.9733	1552.75	666.35
949.7453	2206.4622	1536.85	656.4
949.8796	2207.9505	1543.75	660.45
950.0138	2209.438	1531.55	652.05
950.148	2210.9248	1535.65	651.95
950.2822	2212.4109	1530.5	650.35
950.4164	2213.8962	1534.35	653.05
950.5505	2215.3809	1531.9	650.75
950.6846	2216.8648	1532.4	651.6
950.8186	2218.3479	1534.95	651.15
950.9527	2219.8304	1518.25	637.75
951.0867	2221.3121	1520.35	640.15
951.2207	2222.7931	1509	629.4
951.3546	2224.2733	1518.15	635.75
951.4886	2225.7529	1510.7	627.65
951.6225	2227.2317	1512.4	631.5
951.7563	2228.7098	1511.4	630.45
951.8902	2230.1872	1505.25	625.75
952.024	2231.6638	1503.75	625.8
952.1578	2233.1397	1509.3	621.7
952.2916	2234.6149	1500.35	622.2
952.4253	2236.0894	1498.65	619.9
952.559	2237.5632	1510.45	620.5
952.6927	2239.0362	1500.9	620.8
952.8263	2240.5085	1494.5	612.5
952.9599	2241.9801	1488.2	606.85
953.0935	2243.4509	1480.95	600.3
953.2271	2244.921	1485.9	606.1
953.3606	2246.3904	1482.85	599.7
953.4941	2247.8591	1483.3	603.35
953.6276	2249.3271	1487.25	609.4
953.7611	2250.7943	1476.25	594.75
953.8945	2252.2608	1467.8	587.25
954.0279	2253.7266	1467.6	588.95
954.1612	2255.1917	1472.8	592.4
954.2946	2256.656	1473.25	593.15
954.4279	2258.1197	1466.55	586.85
954.5612	2259.5826	1462.7	579.05
954.6944	2261.0447	1463.1	582.05
954.8276	2262.5062	1464.75	582.3
954.9608	2263.9669	1463.25	581.4
955.094	2265.4269	1461.95	584.15
955.2271	2266.8862	1453.25	573.5
955.3602	2268.3448	1458.8	578.95
955.4933	2269.8026	1459.55	578.55
955.6264	2271.2598	1451.1	571.3
955.7594	2272.7162	1448	569.05
955.8924	2274.1719	1452.95	573.1
956.0253	2275.6268	1454.4	573.65
956.1583	2277.0811	1452.9	574.05
956.2912	2278.5346	1453.45	575.75
956.4241	2279.9874	1443.55	561.3
956.5569	2281.4395	1445.55	565.7
956.6897	2282.8908	1454.4	567.95
956.8225	2284.3414	1443.05	559.7
956.9553	2285.7914	1443.3	564.15
957.088	2287.2406	1444.5	560.75
957.2207	2288.689	1440.65	558.9
957.3534	2290.1368	1437.55	557.6
957.486	2291.5838	1432.65	552.2
957.6186	2293.0302	1441.7	561.15
957.7512	2294.4758	1432.5	552.75
957.8838	2295.9206	1433.05	549.65
958.0163	2297.3648	1430.15	548.7
958.1488	2298.8082	1426.65	546.7
958.2813	2300.251	1430.55	551.1
958.4137	2301.693	1429.05	547.8
958.5461	2303.1343	1430.65	548.1
958.6785	2304.5748	1423.05	544.05
958.8108	2306.0147	1422.35	539
958.9432	2307.4538	1416.55	536.25
959.0754	2308.8922	1415.3	535.85
959.2077	2310.3299	1415.95	536.1
959.3399	2311.7669	1411.5	533.15
959.4721	2313.2031	1407.45	526.55
959.6043	2314.6387	1406.55	527.25
959.7365	2316.0735	1414.2	534.95
959.8686	2317.5076	1402.15	519.4
960.0006	2318.941	1407.95	528.85
960.1327	2320.3737	1401.1	520.75
960.2647	2321.8056	1402.95	520.9
960.3967	2323.2369	1404.8	524.4
960.5287	2324.6674	1401.5	518.5
960.6606	2326.0972	1407.9	526.25
960.7925	2327.5263	1397.55	517.25
960.9244	2328.9547	1399	517.9
961.0562	2330.3823	1391.95	512.3
961.1881	2331.8092	1398.75	515.5
961.3198	2333.2355	1386.35	507.95
961.4516	2334.661	1387.4	506.1
961.5833	2336.0858	1382.4	500.75
961.715	2337.5098	1387.45	509.3
961.8467	2338.9332	1384.1	503
961.9783	2340.3558	1388.55	506
962.1099	2341.7778	1386.85	503.5
962.2415	2343.199	1385.55	504.1
962.373	2344.6195	1386.45	504.5
962.5045	2346.0393	1374.55	494
962.636	2347.4583	1385.2	503.9
962.7675	2348.8767	1379.3	498
962.8989	2350.2943	1375.25	492.85
963.0303	2351.7113	1371	490.05
963.1617	2353.1275	1383.55	501.75
963.293	2354.543	1401.2	498
963.4243	2355.9578	1379.7	499.4
963.5556	2357.3718	1370.2	488.55
963.6868	2358.7852	1374	490.8
963.818	2360.1978	1371.2	489.3
963.9492	2361.6098	1361.85	482.75
964.0803	2363.021	1375.9	492.7
964.2114	2364.4315	1362.35	482.75
964.3425	2365.8413	1367.85	486
964.4736	2367.2504	1365.45	485.05
964.6046	2368.6587	1360	480.65
964.7356	2370.0664	1361.65	481.55
964.8666	2371.4733	1362.1	483.6
964.9975	2372.8795	1361.65	482.8
965.1284	2374.285	1356.45	475.4
965.2593	2375.6899	1359.35	481.95
965.3901	2377.0939	1349	469.75
965.5209	2378.4973	1350.65	473.3
965.6517	2379.9	1343.45	463.9
965.7825	2381.3019	1349.6	468.8
965.9132	2382.7032	1345.45	467
966.0439	2384.1037	1346.7	470
966.1745	2385.5035	1345.1	464.65
966.3051	2386.9027	1341.05	463.15
966.4357	2388.3011	1344.95	462.65
966.5663	2389.6987	1332.7	452.65
966.6968	2391.0957	1333.65	454.6
966.8273	2392.492	1332.95	455.4
966.9578	2393.8876	1332.85	454.05
967.0882	2395.2824	1330.65	451.15
967.2186	2396.6765	1332.35	453.3
967.349	2398.07	1325.8	447.6
967.4793	2399.4627	1327.75	446.65
967.6097	2400.8547	1323.3	443.7
967.7399	2402.246	1327.85	443.25
967.8702	2403.6366	1328.8	449.9
968.0004	2405.0265	1319.75	440.95
968.1306	2406.4156	1325.35	442.8
968.2607	2407.8041	1322.4	440.15
968.3909	2409.1918	1321.45	438.25
968.521	2410.5789	1320.05	439.7
968.651	2411.9652	1320	437.65
968.781	2413.3508	1314.15	433.25
968.911	2414.7358	1316.35	435.05
969.041	2416.12	1315.15	438.05
969.1709	2417.5035	1313.25	434.1
969.3008	2418.8863	1307.4	426.75
969.4307	2420.2684	1313.45	434.65
969.5606	2421.6497	1311.95	432.05
969.6904	2423.0304	1311	435
969.8201	2424.4104	1312.95	432.75
969.9499	2425.7896	1317	436.25
970.0796	2427.1682	1308.85	429.55
970.2093	2428.546	1300.8	419.05
970.3389	2429.9232	1303.35	422.65
970.4685	2431.2996	1302.35	421.65
970.5981	2432.6753	1300.05	422.35
970.7277	2434.0503	1296.45	416.85
970.8572	2435.4246	1297.7	419.2
970.9867	2436.7982	1298.15	415.35
971.1161	2438.1711	1296.45	419.4
971.2456	2439.5433	1295.8	415.1
971.375	2440.9148	1299.9	414
971.5043	2442.2856	1290.8	410.9
971.6336	2443.6557	1290.5	408
971.7629	2445.025	1288.45	409.1
971.8922	2446.3937	1292.75	413.4
972.0214	2447.7617	1287.85	406.75
972.1506	2449.1289	1286.85	407
972.2798	2450.4955	1285.7	404
972.4089	2451.8613	1286.55	407.1
972.538	2453.2265	1286.5	409.95
972.6671	2454.5909	1285.9	405.75
972.7961	2455.9546	1283.85	402.25
972.9251	2457.3177	1280.15	400.85
973.0541	2458.68	1290.85	409.25
973.1831	2460.0416	1283.5	405.05
973.312	2461.4025	1281.95	403.1
973.4408	2462.7627	1295.8	405.6
973.5697	2464.1222	1283.15	407.55
973.6985	2465.4811	1282.05	400.45
973.8273	2466.8392	1279	396.75
973.956	2468.1966	1284.7	404.65
974.0847	2469.5533	1282.95	400.15
974.2134	2470.9093	1279.1	400.9
974.3421	2472.2645	1284.05	402.25
974.4707	2473.6191	1278.1	397.45
974.5993	2474.973	1272.9	394.45
974.7278	2476.3262	1280.1	397.85
974.8563	2477.6787	1265.85	387
974.9848	2479.0305	1276.55	398.05
975.1132	2480.3816	1281.45	398.35
975.2417	2481.7319	1270.4	389.9
975.37	2483.0816	1269.05	387.1
975.4984	2484.4306	1273.3	393.2
975.6267	2485.7789	1266	387.4
975.755	2487.1264	1260.25	378.7
975.8833	2488.4733	1266.55	389.3
976.0115	2489.8195	1276	379.45
976.1397	2491.165	1261.85	379.9
976.2678	2492.5097	1260.45	377.6
976.3959	2493.8538	1253.55	373.5
976.524	2495.1972	1259.35	378.9
976.6521	2496.5398	1258.85	375.6
976.7801	2497.8818	1255.55	374.1
976.9081	2499.2231	1247.05	367.55
977.036	2500.5637	1255.75	374.95
977.164	2501.9035	1250.85	370.6
977.2918	2503.2427	1255.1	372.25
977.4197	2504.5812	1252.05	373.1
977.5475	2505.919	1255.15	374.3
977.6753	2507.256	1253.35	372.75
977.8031	2508.5924	1250.65	370.95
977.9308	2509.9281	1252.4	365.9
978.0585	2511.2631	1250.5	370.1
978.1861	2512.5974	1246	366.3
978.3137	2513.9309	1250.15	368.2
978.4413	2515.2638	1276.1	363.85
978.5689	2516.596	1246.4	369.6
978.6964	2517.9275	1240.4	356.65
978.8239	2519.2583	1243.7	364.75
978.9513	2520.5884	1245.6	362.35
979.0788	2521.9178	1237.15	359.85
979.2062	2523.2465	1235.55	354.35
979.3335	2524.5745	1234.1	354.65
979.4608	2525.9018	1240.2	362.2
979.5881	2527.2284	1234.7	354.1
979.7154	2528.5543	1233.35	353.1
979.8426	2529.8796	1240.8	361.95
979.9698	2531.2041	1236.75	356.2
980.0969	2532.5279	1234.3	356.4
980.224	2533.851	1239.65	358.3
980.3511	2535.1735	1232.7	353.95
980.4781	2536.4952	1225.1	345.1
980.6052	2537.8163	1228.8	345.65
980.7321	2539.1366	1217.8	338.1
980.8591	2540.4562	1231.95	352.4
980.986	2541.7752	1224.15	345.2
981.1129	2543.0935	1225.5	346.95
981.2397	2544.411	1227	346
981.3665	2545.7279	1227.3	351.1
981.4933	2547.0441	1225.1	344.3
981.62	2548.3596	1224.7	342.9
981.7467	2549.6744	1224.35	343.95
981.8734	2550.9885	1224.45	343
982.0001	2552.3019	1222.8	343
982.1267	2553.6146	1220.7	341.7
982.2532	2554.9266	1220.6	338.25
982.3798	2556.2379	1220.35	338.55
982.5063	2557.5485	1214.75	337.7
982.6327	2558.8585	1228.85	342.8
982.7592	2560.1677	1214.75	331.35
982.8856	2561.4762	1213.8	333.05
983.0119	2562.7841	1215.9	332.3
983.1383	2564.0913	1210.6	331.2
983.2646	2565.3977	1208.7	327.65
983.3908	2566.7035	1216.7	335.95
983.517	2568.0086	1218.65	338.85
983.6432	2569.313	1210.35	330.6
983.7694	2570.6167	1213.6	330.4
983.8955	2571.9197	1213.1	335.1
984.0216	2573.222	1215.95	335.2
984.1476	2574.5236	1212.7	332.45
984.2737	2575.8246	1214.5	331.45
984.3996	2577.1248	1220.6	338.9
984.5256	2578.4244	1207.85	329.25
984.6515	2579.7232	1212.9	333.4
984.7774	2581.0214	1247.25	335.65
984.9032	2582.3189	1214.4	337
985.029	2583.6157	1216	332.85
985.1548	2584.9118	1213.7	333.05
985.2806	2586.2072	1217.1	338.6
985.4063	2587.5019	1214.95	334.2
985.5319	2588.7959	1216.25	337.4
985.6576	2590.0893	1223.05	342.6
985.7832	2591.3819	1218.45	341.8
985.9087	2592.6739	1217.45	340.7
986.0343	2593.9652	1223.95	343.65
986.1597	2595.2557	1221.05	340.35
986.2852	2596.5456	1223.45	341.15
986.4106	2597.8348	1225.35	346.9
986.536	2599.1234	1231.35	351.3
986.6614	2600.4112	1227.8	349.55
986.7867	2601.6983	1237.15	355.1
986.912	2602.9848	1226.2	345.9
987.0372	2604.2705	1238.15	351.5
987.1624	2605.5556	1231	350.75
987.2876	2606.84	1225.8	343.35
987.4128	2608.1237	1221.35	339
987.5379	2609.4067	1222.75	343.35
987.6629	2610.689	1231.7	344.65
987.788	2611.9707	1223.3	341.55
987.913	2613.2516	1227.4	345.05
988.0379	2614.5319	1217.15	336.6
988.1629	2615.8115	1223.2	342.95
988.2878	2617.0903	1215.55	334.2
988.4126	2618.3685	1218.05	338.45
988.5375	2619.6461	1223.65	345
988.6622	2620.9229	1219.35	339.8
988.787	2622.199	1218.75	335.65
988.9117	2623.4745	1221	338.65
989.0364	2624.7493	1215.4	336.15
989.161	2626.0234	1212.7	331.8
989.2857	2627.2968	1224.75	345.15
989.4102	2628.5695	1223.9	342.4
989.5348	2629.8415	1221.2	342.15
989.6593	2631.1128	1220.15	339
989.7837	2632.3835	1223.2	343.5
989.9082	2633.6535	1214.3	336.25
990.0326	2634.9228	1217.85	337.55
990.1569	2636.1914	1223.35	343.55
990.2812	2637.4593	1223.2	343.25
990.4055	2638.7265	1220.7	340.7
990.5298	2639.9931	1219.55	340.55
990.654	2641.259	1219.05	336.65
990.7782	2642.5242	1215.2	334.1
990.9023	2643.7887	1217.05	334.75
991.0264	2645.0525	1216.75	337.7
991.1505	2646.3156	1215.75	334
991.2745	2647.5781	1210.85	331.5
991.3985	2648.8398	1209.75	330.8
991.5225	2650.1009	1221.75	333.4
991.6464	2651.3613	1213.1	333.9
991.7703	2652.6211	1210.65	329.6
991.8942	2653.8801	1213.9	335.65
992.018	2655.1385	1208.9	325.3
992.1418	2656.3961	1212.75	331.9
992.2655	2657.6531	1210.55	329.8
992.3892	2658.9094	1216	336.05
992.5129	2660.1651	1204.4	326.3
992.6366	2661.42	1207.95	327.45
992.7602	2662.6743	1217.35	335.55
992.8837	2663.9279	1213.9	336.05
993.0073	2665.1808	1219.1	336.6
993.1307	2666.433	1219.45	337.9
993.2542	2667.6846	1217.4	335.95
993.3776	2668.9354	1225.4	343.3
993.501	2670.1856	1228.6	345.95
993.6244	2671.4351	1225	344.25
993.7477	2672.6839	1231.5	350.5
993.8709	2673.9321	1228.25	349.25
993.9942	2675.1795	1231.1	352.4
994.1174	2676.4263	1239.3	361.15
994.2405	2677.6724	1232.6	353.25
994.3637	2678.9179	1234.2	354.05
994.4868	2680.1626	1238.15	358.35
994.6098	2681.4067	1241.85	359.9
994.7328	2682.6501	1234.55	355.75
994.8558	2683.8928	1237.9	357.6
994.9788	2685.1348	1233.5	354.5
995.1017	2686.3761	1232.2	353.65
995.2245	2687.6168	1228.2	349.1
995.3474	2688.8568	1228.55	346.75
995.4702	2690.0961	1220.65	340.7
995.5929	2691.3348	1225.4	346.15
995.7156	2692.5727	1218.7	337.65
995.8383	2693.81	1219.5	339.85
995.961	2695.0466	1222.35	344.05
996.0836	2696.2826	1222.65	338.1
996.2062	2697.5178	1225.65	332.75
996.3287	2698.7524	1223.75	343.45
996.4512	2699.9863	1221.15	336.75
996.5737	2701.2195	1222.4	344.85
996.6961	2702.452	1224.4	343.25
996.8185	2703.6839	1225.1	346.75
996.9408	2704.9151	1230.05	351.1
997.0631	2706.1456	1235.15	355.55
997.1854	2707.3755	1244.1	362.1
997.3077	2708.6046	1249.75	366
997.4299	2709.8331	1259	377.7
997.552	2711.0609	1260.85	381.05
997.6742	2712.2881	1263.85	384.45
997.7963	2713.5145	1281.5	400.8
997.9183	2714.7403	1286.8	408.2
998.0403	2715.9654	1299.8	419.85
998.1623	2717.1899	1317.8	423.6
998.2842	2718.4136	1306.3	427.15
998.4062	2719.6367	1322.4	442.6
998.528	2720.8591	1340.3	451.75
998.6498	2722.0809	1343.95	463.95
998.7716	2723.3019	1354.45	473.15
998.8934	2724.5223	1358.2	475.2
999.0151	2725.7421	1363.55	481.3
999.1368	2726.9611	1364.9	484.45
999.2584	2728.1795	1360.6	475.85
999.38	2729.3972	1357.4	477.3
999.5016	2730.6142	1354.05	462.15
999.6231	2731.8306	1336.85	457.55
999.7446	2733.0462	1327.05	445.1
999.8661	2734.2612	1315.2	430.1
999.9875	2735.4756	1298.7	416.15
1000.1089	2736.6892	1292.15	411.6
1000.2302	2737.9022	1270.35	390.8
1000.3515	2739.1145	1264.65	383.4
1000.4728	2740.3262	1260.95	372.8
1000.594	2741.5372	1250.65	370.45
1000.7152	2742.7475	1233.6	352.05
1000.8363	2743.9571	1231.25	351.15
1000.9575	2745.1661	1222.1	337.15
1001.0785	2746.3744	1215.35	336.25
1001.1996	2747.582	1211.3	330
1001.3206	2748.7889	1207.4	324.55
1001.4415	2749.9952	1202.2	323.8
1001.5625	2751.2008	1197.55	316.2
1001.6833	2752.4057	1194	312.1
1001.8042	2753.61	1193	310.85
1001.925	2754.8136	1192.7	308.35
1002.0458	2756.0165	1188.25	309.8
1002.1665	2757.2188	1189.7	309.3
1002.2872	2758.4204	1186.6	306.55
1002.4078	2759.6213	1188.05	304.85
1002.5285	2760.8215	1200.4	313.1
1002.649	2762.0211	1196.15	314.05
1002.7696	2763.22	1187.95	304.15
1002.8901	2764.4182	1186.05	305.95
1003.0106	2765.6158	1185.75	304.35
1003.131	2766.8127	1179.65	299.45
1003.2514	2768.009	1177.1	297
1003.3717	2769.2045	1176.7	295.4
1003.492	2770.3994	1178.75	296.75
1003.6123	2771.5936	1182.1	302.1
1003.7325	2772.7872	1168.65	290.95
1003.8527	2773.9801	1172.7	290.25
1003.9729	2775.1723	1194.55	297.9
1004.093	2776.3639	1175	296.25
1004.2131	2777.5548	1176.75	295.1
1004.3331	2778.745	1177.75	296.3
1004.4531	2779.9346	1180.3	299.55
1004.5731	2781.1235	1184.45	302.2
1004.693	2782.3117	1185.8	305.9
1004.8129	2783.4992	1189.85	311.5
1004.9328	2784.6861	1190.85	309.95
1005.0526	2785.8723	1199.4	319.15
1005.1723	2787.0579	1203.65	323.35
1005.2921	2788.2428	1208.1	329.8
1005.4118	2789.427	1219.3	338.05
1005.5314	2790.6106	1226.15	344
1005.651	2791.7935	1239.85	359.4
1005.7706	2792.9757	1243.75	365.1
1005.8902	2794.1573	1266.6	382.65
1006.0097	2795.3382	1274.9	394.3
1006.1291	2796.5184	1279.05	399.45
1006.2485	2797.698	1298.05	416.6
1006.3679	2798.8769	1312.35	431.2
1006.4873	2800.0551	1320.35	440.8
1006.6066	2801.2327	1347.95	463.8
1006.7258	2802.4096	1362.25	483.1
1006.8451	2803.5859	1381.9	500.15
1006.9642	2804.7615	1389.75	509.15
1007.0834	2805.9364	1418.55	539
1007.2025	2807.1106	1443.85	563.6
1007.3216	2808.2842	1458.2	579.15
1007.4406	2809.4572	1484.05	604.15
1007.5596	2810.6294	1518.2	636.45
1007.6785	2811.801	1559.05	678.9
1007.7975	2812.972	1581.65	701.7
1007.9163	2814.1423	1625.55	743.75
1008.0352	2815.3119	1668	788.35
1008.154	2816.4808	1702	823.65
1008.2727	2817.6491	1750	869.25
1008.3914	2818.8167	1779.25	902.9
1008.5101	2819.9837	1823.1	939.5
1008.6288	2821.15	1862.35	983.5
1008.7474	2822.3157	1899.75	1021.75
1008.8659	2823.4807	1943.55	1061.65
1008.9844	2824.645	1969.2	1087.05
1009.1029	2825.8086	2005.7	1127.25
1009.2214	2826.9716	2042.6	1162.45
1009.3398	2828.134	2065.5	1185.95
1009.4581	2829.2957	2093.45	1213.3
1009.5764	2830.4567	2118.45	1241.6
1009.6947	2831.617	2136.75	1257
1009.813	2832.7767	2145.95	1266
1009.9312	2833.9358	2138.6	1260
1010.0493	2835.0941	2136.9	1254
1010.1675	2836.2519	2129.75	1250.6
1010.2855	2837.4089	2122.2	1242.35
1010.4036	2838.5653	2119.25	1238.55
1010.5216	2839.7211	2119.4	1238.1
1010.6396	2840.8761	2134.05	1250.65
1010.7575	2842.0306	2142.5	1262.55
1010.8754	2843.1843	2168.45	1288.25
1010.9932	2844.3374	2211.3	1329.95
1011.111	2845.4899	2254.45	1374.25
1011.2288	2846.6417	2309.85	1430.2
1011.3465	2847.7928	2373.55	1496.4
1011.4642	2848.9433	2441.9	1561.65
1011.5818	2850.0931	2501.1	1619.65
1011.6995	2851.2422	2575	1695.55
1011.817	2852.3907	2637	1755.95
1011.9345	2853.5385	2689.55	1806.35
1012.052	2854.6857	2771.15	1864.9
1012.1695	2855.8323	2784.85	1904.35
1012.2869	2856.9781	2825.05	1945.8
1012.4042	2858.1233	2862.55	1982.2
1012.5216	2859.2679	2897.85	2019.3
1012.6389	2860.4118	2941.65	2061.2
1012.7561	2861.555	2961.05	2074.85
1012.8733	2862.6976	3005.55	2124.95
1012.9905	2863.8395	3031.75	2154
1013.1076	2864.9808	3043	2164
1013.2247	2866.1214	3065.65	2187.15
1013.3417	2867.2614	3078.7	2196.35
1013.4587	2868.4007	3098.85	2217.85
1013.5757	2869.5393	3089.8	2207.4
1013.6926	2870.6773	3099.3	2216.45
1013.8095	2871.8146	3125.55	2242.3
1013.9263	2872.9513	3119.2	2236.65
1014.0431	2874.0874	3119.8	2242.05
1014.1599	2875.2227	3126.1	2245.25
1014.2766	2876.3574	3111.9	2232.5
1014.3933	2877.4915	3093.95	2213.05
1014.51	2878.6249	3055.8	2178.5
1014.6266	2879.7577	3057.45	2176.85
1014.7431	2880.8898	3040.8	2149
1014.8596	2882.0212	3014.2	2136.65
1014.9761	2883.152	3013.5	2132.95
1015.0925	2884.2821	2990.85	2111.6
1015.2089	2885.4116	2985.9	2107
1015.3253	2886.5405	3003	2122.45
1015.4416	2887.6686	3013.55	2129.3
1015.5579	2888.7962	3005.5	2127
1015.6741	2889.923	2998.15	2117.1
1015.7903	2891.0493	3018.7	2139.55
1015.9065	2892.1748	3028.7	2147.9
1016.0226	2893.2997	3036.75	2154.5
1016.1387	2894.424	3056.6	2176.85
1016.2547	2895.5476	3079.7	2199.1
1016.3707	2896.6706	3088.85	2209.05
1016.4866	2897.7929	3119.25	2238.1
1016.6025	2898.9145	3131.7	2251.55
1016.7184	2900.0355	3157.45	2275.85
1016.8342	2901.1559	3187.95	2306.5
1016.95	2902.2756	3222.75	2342.1
1017.0658	2903.3946	3236.1	2357.5
1017.1815	2904.513	3270.25	2385.55
1017.2971	2905.6308	3292	2412.85
1017.4127	2906.7479	3315.25	2434.35
1017.5283	2907.8643	3320.9	2440.2
1017.6439	2908.9801	3352.6	2473.6
1017.7594	2910.0953	3367.7	2487.85
1017.8748	2911.2098	3356.65	2472.1
1017.9902	2912.3236	3358.8	2469.75
1018.1056	2913.4368	3336.1	2455.1
1018.2209	2914.5494	3318.35	2438.65
1018.3362	2915.6613	3297.6	2412.35
1018.4515	2916.7725	3280.05	2397.4
1018.5667	2917.8831	3268.45	2385.55
1018.6819	2918.9931	3243.65	2360.65
1018.797	2920.1024	3217.3	2335.2
1018.9121	2921.211	3212.6	2331.95
1019.0271	2922.319	3187.95	2307.9
1019.1421	2923.4264	3164.55	2284.45
1019.2571	2924.5331	3156.75	2277
1019.372	2925.6391	3150.7	2271.4
1019.4869	2926.7445	3125.7	2246.45
1019.6017	2927.8493	3135.4	2254.75
1019.7165	2928.9534	3119.15	2237.7
1019.8313	2930.0569	3123.35	2241.7
1019.946	2931.1597	3120.4	2240.45
1020.0606	2932.2619	3123.45	2244.95
1020.1753	2933.3634	3110.1	2229.75
1020.2899	2934.4643	3101.7	2213.9
1020.4044	2935.5645	3092.8	2205.4
1020.5189	2936.6641	3043.7	2160.3
1020.6334	2937.763	3018.25	2138.2
1020.7478	2938.8613	2976.5	2094.5
1020.8622	2939.959	2928.25	2041.7
1020.9765	2941.056	2859	1978.95
1021.0908	2942.1523	2799.4	1916.8
1021.2051	2943.248	2733.35	1852.65
1021.3193	2944.3431	2655.75	1776.9
1021.4334	2945.4375	2566.95	1686.25
1021.5476	2946.5313	2474.05	1596.5
1021.6617	2947.6244	2404.2	1523.5
1021.7757	2948.7169	2314.45	1433.4
1021.8897	2949.8087	2247	1366.15
1022.0037	2950.8999	2164.9	1286.9
1022.1176	2951.9904	2099.1	1220.15
1022.2315	2953.0803	2039.2	1158.45
1022.3453	2954.1696	1986.1	1104.75
1022.4591	2955.2582	1942.1	1062.85
1022.5728	2956.3462	1902.85	1023.35
1022.6865	2957.4335	1874.9	992.95
1022.8002	2958.5202	1856.25	974.45
1022.9138	2959.6062	1824.95	944.95
1023.0274	2960.6916	1794.85	915.35
1023.141	2961.7764	1785.9	908.3
1023.2545	2962.8605	1775.45	895.65
1023.3679	2963.9439	1765.5	886.2
1023.4813	2965.0267	1752.65	872.85
1023.5947	2966.1089	1770.3	867.8
1023.708	2967.1905	1746	866.65
1023.8213	2968.2714	1743.05	863.4
1023.9346	2969.3516	1746	866.25
1024.0478	2970.4312	1749.45	862.85
1024.1609	2971.5102	1745.45	866.1
1024.274	2972.5885	1744.85	863.85
1024.3871	2973.6662	1749.4	865.45
1024.5002	2974.7432	1737.45	857.9
1024.6132	2975.8196	1734.7	856.3
1024.7261	2976.8954	1724.8	847.5
1024.839	2977.9705	1713.25	832.95
1024.9519	2979.045	1705.65	826.25
1025.0647	2980.1188	1687.6	805.7
1025.1775	2981.192	1680.7	802.4
1025.2902	2982.2645	1664.85	783.2
1025.4029	2983.3364	1651.4	772.15
1025.5156	2984.4077	1619.8	739.8
1025.6282	2985.4783	1601.05	716.85
1025.7407	2986.5483	1574.65	694.95
1025.8532	2987.6177	1537.15	658.7
1025.9657	2988.6864	1516.85	636.8
1026.0782	2989.7545	1486.35	603.1
1026.1906	2990.8219	1461.75	583.2
1026.3029	2991.8887	1437.8	555.95
1026.4152	2992.9548	1417.7	536.45
1026.5275	2994.0204	1388.25	508.2
1026.6397	2995.0852	1358.95	480.3
1026.7519	2996.1495	1341.7	460.8
1026.864	2997.2131	1327.65	447.75
1026.9761	2998.276	1308.4	427.35
1027.0882	2999.3383	1294.9	416.25
1027.2002	3000.4	1282.25	401.45
1027.3122	3001.4611	1257.4	380.1
1027.4241	3002.5215	1251.55	371.3
1027.536	3003.5812	1241.2	359.4
1027.6478	3004.6404	1235.35	355.5
1027.7596	3005.6989	1226.75	343.2
1027.8714	3006.7567	1218.4	338.55
1027.9831	3007.8139	1234.35	333.6
1028.0947	3008.8705	1212.45	334.05
1028.2064	3009.9264	1211.3	328.75
1028.3179	3010.9818	1200.25	319.5
1028.4295	3012.0364	1204.05	325.1
1028.541	3013.0905	1201.55	323.1
1028.6524	3014.1439	1197.65	316.85
1028.7638	3015.1966	1199.2	320.55
1028.8752	3016.2487	1197.35	318.25
1028.9865	3017.3002	1201.25	318.75
1029.0978	3018.3511	1195.75	318
1029.209	3019.4013	1200.9	321.1
1029.3202	3020.4509	1199.3	318.35
1029.4314	3021.4998	1199.55	319.9
1029.5425	3022.5481	1201	322
1029.6535	3023.5958	1206.5	329.45
1029.7645	3024.6428	1206.5	326.5
1029.8755	3025.6892	1201.3	320.15
1029.9864	3026.735	1206.95	327.25
1030.0973	3027.7802	1202.65	324.05
1030.2082	3028.8247	1210.6	332.6
1030.319	3029.8685	1214.4	335.3
1030.4297	3030.9118	1221.35	340.2
1030.5404	3031.9544	1220.75	342.45
1030.6511	3032.9963	1230.6	350.9
1030.7617	3034.0376	1227.9	348.6
1030.8723	3035.0783	1237.65	355.85
1030.9829	3036.1184	1234.7	355.2
1031.0934	3037.1578	1238.35	359.55
1031.2038	3038.1966	1240.25	358
1031.3142	3039.2348	1240.9	363.45
1031.4246	3040.2723	1246.05	357.05
1031.5349	3041.3092	1238.55	360.25
1031.6452	3042.3455	1243.05	363.3
1031.7554	3043.3811	1234.55	352.95
1031.8656	3044.4161	1235.6	356.75
1031.9758	3045.4505	1233.05	355.45
1032.0859	3046.4842	1229.9	348.75
1032.1959	3047.5173	1225.85	347.75
1032.3059	3048.5498	1217.7	337.15
1032.4159	3049.5816	1210.25	331.8
1032.5258	3050.6128	1208	327.55
1032.6357	3051.6434	1206.75	326.35
1032.7455	3052.6734	1200.2	319.05
1032.8553	3053.7027	1195.65	314.7
1032.9651	3054.7314	1186.8	307.1
1033.0748	3055.7594	1181.6	303.25
1033.1845	3056.7868	1171.75	290.7
1033.2941	3057.8136	1172.9	292
1033.4037	3058.8398	1166.85	286.95
1033.5132	3059.8653	1157.25	279.8
1033.6227	3060.8902	1159.75	280.75
1033.7321	3061.9145	1153.85	274
1033.8415	3062.9381	1149.2	268.95
1033.9509	3063.9612	1158.95	262.7
1034.0602	3064.9835	1144.3	264.85
1034.1694	3066.0053	1136.1	254.4
1034.2787	3067.0264	1126.4	247.7
1034.3878	3068.0469	1128.65	248.3
1034.497	3069.0668	1119.65	238.1
1034.6061	3070.086	1113.45	234.1
1034.7151	3071.1046	1106.75	225.7
1034.8241	3072.1226	1100.2	220.2
1034.9331	3073.1399	1090.9	211.35
1035.042	3074.1567	1085.85	204.65
1035.1508	3075.1727	1079.55	197.95
1035.2597	3076.1882	1066.65	186.95
1035.3684	3077.203	1064.85	184.15
1035.4772	3078.2173	1059.15	178.2
1035.5859	3079.2308	1056	173.9
1035.6945	3080.2438	1045.6	161.75
1035.8031	3081.2561	1035.25	158.1
1035.9117	3082.2678	1031.3	150.45
1036.0202	3083.2789	1030.6	152.9
1036.1286	3084.2893	1022.95	143.4
1036.2371	3085.2991	1018	140
1036.3454	3086.3083	1019.5	134.6
1036.4538	3087.3169	1011.15	129.05
1036.562	3088.3248	1005	123.2
1036.6703	3089.3321	1006.9	125.4
1036.7785	3090.3388	998.3	118.95
1036.8866	3091.3449	993.45	113.35
1036.9948	3092.3503	997.25	115.9
1037.1028	3093.3551	987.25	107.8
1037.2108	3094.3593	986.65	107.65
1037.3188	3095.3629	986.5	109.65
1037.4267	3096.3658	986.1	105.8
1037.5346	3097.3681	983.65	104.35
1037.6425	3098.3698	979.5	98.95
1037.7503	3099.3708	985.6	101.85
1037.858	3100.3713	975.85	96.75
1037.9657	3101.3711	975.2	96.05
1038.0734	3102.3702	1114.3	91
1038.181	3103.3688	972.1	91.8
1038.2886	3104.3667	969.6	90.8
1038.3961	3105.364	966.6	86.75
1038.5036	3106.3607	969.9	89.85
1038.611	3107.3568	970.9	89.05
1038.7184	3108.3522	967.7	92.5
1038.8257	3109.347	967.65	84.25
1038.933	3110.3412	969.95	88.2
1039.0403	3111.3348	963.65	82.6
1039.1475	3112.3277	960.05	79.15
1039.2547	3113.32	961.1	82.5
1039.3618	3114.3117	960.75	82.05
1039.4689	3115.3028	960.55	81.45
1039.5759	3116.2932	961.35	80.25
1039.6829	3117.2831	966.25	83.5
1039.7898	3118.2723	960.25	79.7
1039.8967	3119.2608	958.95	81.3
1040.0035	3120.2488	956.35	76
1040.1103	3121.2361	957.45	77.3
1040.2171	3122.2229	957.25	76.7
1040.3238	3123.209	955.55	75.55
1040.4305	3124.1944	950.4	72.5
1040.5371	3125.1793	955.05	73.65
1040.6437	3126.1635	955.45	74.45
1040.7502	3127.1471	952.4	74.5
1040.8567	3128.1301	948.55	71
1040.9631	3129.1125	948.15	69.2
1041.0695	3130.0942	946.55	67.55
1041.1759	3131.0753	954.4	67.75
1041.2822	3132.0558	948.6	65.85
1041.3884	3133.0357	949.2	68.35
1041.4946	3134.015	948	68.15
1041.6008	3134.9936	946.4	63.7
1041.7069	3135.9716	967.1	67.1
1041.813	3136.949	945.7	66.75
1041.919	3137.9258	964.75	66.15
1042.025	3138.902	945.65	61.35
1042.1309	3139.8775	941.2	61.85
1042.2368	3140.8524	940.9	62.55
1042.3427	3141.8267	940.75	57.8
1042.4485	3142.8004	938.95	58.8
1042.5542	3143.7735	946.35	60.9
1042.6599	3144.7459	939.8	57.4
1042.7656	3145.7178	939.2	60.5
1042.8712	3146.689	936.2	55.95
1042.9768	3147.6596	936.35	54.55
1043.0823	3148.6295	935.65	58.45
1043.1878	3149.5989	934.3	53.9
1043.2932	3150.5676	930.2	52.55
1043.3986	3151.5357	933.55	55.7
1043.5039	3152.5032	932.55	53.15
1043.6092	3153.4701	932.8	54.2
1043.7145	3154.4364	933.75	51.6
1043.8197	3155.402	930.45	52.65
1043.9248	3156.367	936.1	55.25
1044.03	3157.3315	968.35	50.1
1044.135	3158.2952	931.5	52.65
1044.24	3159.2584	924.2	42.9
1044.345	3160.221	926.65	46.5
1044.4499	3161.1829	930.95	51.6
1044.5548	3162.1442	926.8	46.4
1044.6596	3163.105	927.95	49.75
1044.7644	3164.065	928.4	46.6
1044.8692	3165.0245	930.1	46.5
1044.9739	3165.9834	926.6	49
1045.0785	3166.9416	926.5	48.35
1045.1831	3167.8993	927.9	48.25
1045.2877	3168.8563	928.3	48.4
1045.3922	3169.8127	923.55	44
1045.4966	3170.7684	924.15	44.05
1045.6011	3171.7236	922.75	41.4
1045.7054	3172.6782	924.9	44.35
1045.8098	3173.6321	926.25	46.45
1045.914	3174.5854	928.55	42.95
1046.0183	3175.5381	923.4	44.8
1046.1224	3176.4902	922.7	41.8
1046.2266	3177.4417	920.65	42.05
1046.3307	3178.3926	919.95	40.85
1046.4347	3179.3428	919.15	39.9
1046.5387	3180.2924	918	41.2
1046.6427	3181.2415	917.35	37.65
1046.7466	3182.1899	922.05	41.6
1046.8504	3183.1377	919.5	40.15
1046.9542	3184.0848	921.15	39
1047.058	3185.0314	920.1	39.8
1047.1617	3185.9773	919.35	39.65
1047.2654	3186.9227	922.5	41.3
1047.369	3187.8674	919.7	39.45
1047.4726	3188.8115	923.25	40.1
1047.5761	3189.755	921.7	42.9
1047.6796	3190.6979	918.45	40.5
1047.783	3191.6402	917.2	39.6
1047.8864	3192.5818	918.7	39.9
1047.9898	3193.5229	948.05	41.6
1048.0931	3194.4633	918.5	39.1
1048.1963	3195.4031	919.25	39
1048.2995	3196.3423	915.8	37.55
1048.4027	3197.2809	916.85	38.3
1048.5058	3198.2189	917.85	37.35
1048.6089	3199.1563	932.3	36.75
1048.7119	3200.0931	916.65	41.55
1048.8148	3201.0292	917.7	38.8
1048.9178	3201.9648	916.1	38.1
1049.0206	3202.8997	918.5	35.3
1049.1235	3203.834	915.55	36.9
1049.2262	3204.7677	916.8	36.2
1049.329	3205.7008	917.75	35.45
1049.4317	3206.6333	914.55	37.5
1049.5343	3207.5652	916.95	34.65
1049.6369	3208.4964	913	34.9
1049.7394	3209.4271	912.25	33.05
1049.8419	3210.3571	912.25	33.85
1049.9444	3211.2865	913.65	34
1050.0468	3212.2154	913.15	33.35
1050.1491	3213.1436	915.25	32
1050.2514	3214.0712	919.1	32.7
1050.3537	3214.9982	913.85	31.65
1050.4559	3215.9246	916.3	35.6
1050.5581	3216.8503	911.65	33.85
1050.6602	3217.7755	914.7	35.25
1050.7623	3218.7001	913.85	34.15
1050.8643	3219.624	912.7	33.6
1050.9663	3220.5473	911.15	31
1051.0682	3221.4701	912.75	34.35
1051.1701	3222.3922	911.6	31.25
1051.2719	3223.3137	909.2	28.25
1051.3737	3224.2346	911.1	29.9
1051.4754	3225.1549	908.6	30.8
1051.5771	3226.0746	911.7	34.35
1051.6788	3226.9937	911.8	33.3
1051.7804	3227.9121	910	31.9
1051.8819	3228.83	908.85	28.35
1051.9834	3229.7473	910.65	31.95
1052.0849	3230.6639	912.05	30.4
1052.1863	3231.5799	910.85	31.65
1052.2876	3232.4954	909.2	28.15
1052.3889	3233.4102	907	26.8
1052.4902	3234.3244	912.15	33.25
1052.5914	3235.238	909.2	30.4
1052.6926	3236.151	936	31.3
1052.7937	3237.0634	909.25	32.05
1052.8948	3237.9752	907.6	29.25
1052.9958	3238.8864	908.1	26.65
1053.0968	3239.797	906.9	27
1053.1977	3240.7069	908.2	28.65
1053.2986	3241.6163	911.4	32.95
1053.3994	3242.5251	906.1	28.3
1053.5002	3243.4332	905.65	27.75
1053.6009	3244.3408	906.65	27.35
1053.7016	3245.2477	906.2	28.15
1053.8022	3246.154	905.6	25.35
1053.9028	3247.0598	908.3	27.75
1054.0034	3247.9649	908	29
1054.1039	3248.8694	907.25	27.35
1054.2043	3249.7733	903.5	25
1054.3047	3250.6766	905.05	26.45
1054.4051	3251.5793	906.95	24.7
1054.5054	3252.4814	904.1	27.1
1054.6056	3253.3829	905.25	26.8
1054.7058	3254.2838	902.25	22.6
1054.806	3255.1841	903.65	24.85
1054.9061	3256.0838	905.4	25.55
1055.0061	3256.9829	903.5	25.3
1055.1062	3257.8814	903.7	24.7
1055.2061	3258.7792	906.9	26.15
1055.306	3259.6765	905.15	24.6
1055.4059	3260.5731	901.95	22.35
1055.5057	3261.4692	902.5	24.1
1055.6055	3262.3647	901.35	20.25
1055.7052	3263.2595	901.95	21.3
1055.8049	3264.1538	899.15	19.2
1055.9045	3265.0474	902.45	24.6
1056.0041	3265.9404	901.05	23.8
1056.1036	3266.8329	901.9	22.6
1056.2031	3267.7247	909.5	21.2
1056.3025	3268.616	900.55	23.5
1056.4019	3269.5066	899.6	19.85
1056.5013	3270.3966	901.7	19.85
1056.6005	3271.286	897.4	20.25
