Software Version:	3.9.2.0
Unit SN:	10000200
Spectrometer SN:	6960
Date:	3/14/2024 2:18:49 PM
Data Line Index:	25
Spectral Points:	2048
Integration time (ms):	125
Averages:	20
Delay (ms):	30000
Sequence Number:	1
Processing:	dark subtract
Laser Power (mW):	295
Laser Current (mA):	825
Laser Diode Temp (C):	25
Laser Case Temp (C):	29.2
System Temp (C):	29.2
Spectrometer Temp (C):	27
CCD Temp (C):	0.008
Secondary Temp (C):	20.016
Heatsink Temp (C):	25.005
CCDPCB Temp (C):	38.408
SecondaryPCB Temp (C):	36.14

Wavelength	RamanShift	Raw Counts	Dark Subtracted
787.061	30.1047	456.75	45.2
787.2016	32.3739	457.25	48.95
787.3422	34.6426	464.95	54.15
787.4828	36.9109	470.1	57.7
787.6235	39.1787	477.45	60.75
787.7642	41.4461	487.2	65.15
787.9049	43.7131	498.15	72.95
788.0456	45.9796	504.45	76.15
788.1863	48.2456	516.55	83.2
788.3271	50.5112	521.1	84.45
788.4679	52.7764	529.45	91.95
788.6087	55.0411	538.35	98.95
788.7496	57.3054	551	104.1
788.8904	59.5692	562.25	113.1
789.0313	61.8326	572.65	119.1
789.1722	64.0955	586.85	129.3
789.3132	66.3579	605.2	141.9
789.4541	68.6199	618.8	153.65
789.5951	70.8815	647.1	180.4
789.7361	73.1426	724.05	253.65
789.8771	75.4032	917.4	440.45
790.0181	77.6634	1358.95	877.15
790.1592	79.9231	2453.35	1964.35
790.3003	82.1824	4845.25	4349.55
790.4414	84.4412	9248.75	8737
790.5825	86.6995	15482	14949.15
790.7237	88.9574	21800.4	21247.3
790.8648	91.2148	26307.55	25741.9
791.006	93.4717	28511.35	27936.15
791.1472	95.7282	29116.75	28536.4
791.2885	97.9842	29168	28583.35
791.4297	100.2398	28669.1	28082.65
791.571	102.4949	28115.6	27525
791.7123	104.7495	27366.1	26774.35
791.8536	107.0036	26532.95	25940.7
791.9949	109.2573	25726.1	25133.7
792.1363	111.5105	24901.3	24305.8
792.2777	113.7632	24067.2	23469.5
792.4191	116.0154	23397	22789.8
792.5605	118.2672	22818.15	22218
792.7019	120.5185	22280.05	21679.1
792.8434	122.7693	21847.15	21240.8
792.9849	125.0197	21502.85	20892.75
793.1264	127.2696	21215.95	20605.55
793.2679	129.519	21073.35	20460.65
793.4094	131.7679	20846	20233.2
793.551	134.0163	20710	20089.8
793.6926	136.2642	20586.45	19965.05
793.8342	138.5117	20427	19791.9
793.9758	140.7587	20254.5	19628.25
794.1175	143.0052	20073.4	19442.5
794.2591	145.2512	19881.1	19251.05
794.4008	147.4967	19644.75	19015.1
794.5425	149.7417	19492.45	18857.45
794.6842	151.9863	19384	18748.55
794.826	154.2304	19332	18693.55
794.9677	156.4739	19180.45	18533.7
795.1095	158.717	19101.25	18459.35
795.2513	160.9596	18926.4	18276.2
795.3931	163.2017	18693.35	18040.5
795.535	165.4433	18374.55	17721.85
795.6768	167.6844	17962.65	17311.9
795.8187	169.925	17627.7	16973.4
795.9606	172.1651	17220.4	16560.1
796.1025	174.4047	16921.5	16258.8
796.2445	176.6439	16653.9	15988.2
796.3864	178.8825	16354.4	15686
796.5284	181.1206	16126.5	15456.25
796.6704	183.3582	15919.45	15243.1
796.8124	185.5954	15809.1	15132.5
796.9544	187.832	15692.75	15009.15
797.0965	190.0681	15646.25	14965.65
797.2386	192.3037	15671.2	14987.95
797.3806	194.5388	15602.35	14913.55
797.5228	196.7734	15621.7	14930.25
797.6649	199.0075	15689	14996.1
797.807	201.2411	15814.2	15119.2
797.9492	203.4742	15893.3	15194.2
798.0914	205.7068	15993.65	15295.65
798.2336	207.9389	16074.05	15376.2
798.3758	210.1704	16221.2	15522.9
798.518	212.4015	16331.3	15627.9
798.6603	214.632	16512.05	15808.9
798.8025	216.862	16700.1	16002.25
798.9448	219.0915	16893.5	16205
799.0871	221.3205	17156	16470.6
799.2294	223.549	17465.75	16782.9
799.3718	225.777	17807.5	17126.4
799.5141	228.0044	18338.05	17650.95
799.6565	230.2314	18903.7	18223.1
799.7989	232.4578	19430	18743.75
799.9413	234.6837	19863.6	19169.15
800.0837	236.909	20113.25	19422.2
800.2262	239.1339	20048.3	19331.8
800.3687	241.3582	19745.25	19041.2
800.5111	243.582	19284.25	18557.65
800.6536	245.8053	18822	18100.4
800.7961	248.0281	18377.5	17661.05
800.9387	250.2503	18030	17310.3
801.0812	252.472	17770.95	17043.75
801.2238	254.6932	17639.9	16911.95
801.3664	256.9139	17466.1	16734.1
801.509	259.134	17384.2	16648.65
801.6516	261.3536	17253.1	16523.7
801.7942	263.5727	17154.9	16422.3
801.9369	265.7912	17032.55	16302.3
802.0795	268.0092	16968.95	16238.1
802.2222	270.2267	16857.85	16126.35
802.3649	272.4436	16768.15	16033.65
802.5076	274.6601	16702.7	15961.55
802.6504	276.8759	16644.3	15906.95
802.7931	279.0913	16635.1	15895.55
802.9359	281.3061	16625.65	15886.65
803.0787	283.5204	16752.95	16010.45
803.2215	285.7341	16903.25	16157.65
803.3643	287.9473	17109.1	16349.8
803.5071	290.16	17384.45	16630.7
803.6499	292.3721	17755.65	17009.15
803.7928	294.5837	18263.7	17517.1
803.9357	296.7947	18630.4	17883.45
804.0786	299.0052	18883.55	18135.15
804.2215	301.2152	18712.4	17957.75
804.3644	303.4246	18298.85	17552.55
804.5074	305.6334	17652.15	16904.3
804.6503	307.8418	17043.6	16289.85
804.7933	310.0495	16550.95	15796.1
804.9363	312.2568	16198.35	15446.65
805.0793	314.4635	16033.7	15282.6
805.2223	316.6696	15961.15	15207.3
805.3653	318.8752	15965.3	15203.65
805.5084	321.0802	16004.4	15251
805.6514	323.2847	16136.75	15379.55
805.7945	325.4887	16213.2	15456.7
805.9376	327.692	16125.25	15368.75
806.0807	329.8949	15989	15231.75
806.2238	332.0972	15660.15	14900.95
806.367	334.2989	15330.55	14563.4
806.5101	336.5001	15048.55	14284.9
806.6533	338.7007	14824.3	14060.4
806.7965	340.9008	14648.45	13881.75
806.9397	343.1003	14555.9	13788.05
807.0829	345.2992	14483.85	13714.3
807.2261	347.4976	14465.8	13696.8
807.3693	349.6955	14441.65	13666.5
807.5126	351.8927	14535.25	13761.8
807.6559	354.0895	14511.55	13727.5
807.7991	356.2856	14573.35	13796.45
807.9424	358.4812	14559.9	13784.85
808.0857	360.6763	14573.25	13797.6
808.2291	362.8707	14521.55	13745.3
808.3724	365.0646	14529.85	13748.5
808.5158	367.258	14526.55	13742.7
808.6591	369.4508	14533.05	13746.3
808.8025	371.643	14562.6	13778
808.9459	373.8346	14498.75	13709.35
809.0893	376.0257	14458.9	13666.15
809.2327	378.2162	14371.45	13578.75
809.3762	380.4062	14239	13444.5
809.5196	382.5956	14076.4	13278.85
809.6631	384.7844	13949.65	13154.35
809.8066	386.9726	13822.75	13025.65
809.9501	389.1603	13754.95	12960.1
810.0936	391.3474	13732.55	12895.95
810.2371	393.5339	13696.85	12898.1
810.3806	395.7199	13627.15	12834.95
810.5241	397.9052	13625.05	12838.1
810.6677	400.09	13656.45	12870.05
810.8113	402.2743	13638.25	12851.4
810.9548	404.4579	13711.4	12927.9
811.0984	406.641	13831.35	13046.3
811.2421	408.8235	14056.5	13267.75
811.3857	411.0054	14428.6	13638.8
811.5293	413.1868	14926.25	14134.9
811.673	415.3675	15383.7	14592.4
811.8166	417.5477	15603.2	14811.05
811.9603	419.7273	15648.65	14855.65
812.104	421.9064	15549.3	14750.65
812.2477	424.0848	15375.65	14577.15
812.3914	426.2627	15114.45	14311.65
812.5351	428.4399	14780	13975.55
812.6788	430.6166	14385.55	13576.9
812.8226	432.7928	13988.8	13182.95
812.9663	434.9683	13617.45	12811.7
813.1101	437.1432	13386.3	12576.45
813.2539	439.3176	13211.15	12402.7
813.3977	441.4914	13066.8	12254.35
813.5415	443.6645	13040.85	12226.1
813.6853	445.8371	12966.8	12155.7
813.8291	448.0091	12889.7	12080.85
813.973	450.1806	12816.5	12004.85
814.1168	452.3514	12762.15	11948.5
814.2607	454.5216	12736.15	11912.8
814.4046	456.6913	12660.05	11844.05
814.5485	458.8603	12661.6	11848.5
814.6924	461.0288	12718.4	11905.6
814.8363	463.1967	12746.7	11932.3
814.9802	465.3639	12882.85	12066.8
815.1241	467.5306	13011.6	12195.25
815.2681	469.6967	13198.75	12381.15
815.412	471.8622	13406.35	12589.85
815.556	474.0271	13573.25	12755.4
815.7	476.1914	13655.6	12836.7
815.844	478.3551	13624.8	12807.05
815.988	480.5182	13551.5	12732.05
816.132	482.6807	13463.15	12642.5
816.276	484.8426	13533.6	12713.35
816.4201	487.0039	13772.55	12954.55
816.5641	489.1647	14197.45	13377
816.7082	491.3248	14687	13867.65
816.8522	493.4843	14891.75	14073.7
816.9963	495.6432	14918	14097.8
817.1404	497.8015	14842.3	14017.9
817.2845	499.9592	14851.65	14029.7
817.4286	502.1163	14845.55	14023
817.5727	504.2728	14630.5	13805.5
817.7168	506.4287	14293.05	13469.1
817.861	508.5839	13833.1	13008.6
818.0051	510.7386	13439.2	12616.05
818.1493	512.8927	13164.75	12335.4
818.2935	515.0461	12967.8	12143.1
818.4377	517.199	12830.6	12007.5
818.5818	519.3512	12731.5	11906.55
818.726	521.5029	12711.85	11877.9
818.8703	523.6539	12733.15	11904.15
819.0145	525.8043	12744.15	11913.85
819.1587	527.9541	12780.25	11949
819.303	530.1033	12822.75	11993
819.4472	532.2519	12913.25	12084.05
819.5915	534.3999	13107.5	12275.25
819.7357	536.5472	13407.15	12572.7
819.88	538.694	13970.1	13136.25
820.0243	540.8401	14688.75	13855.8
820.1686	542.9856	15276.75	14441
820.3129	545.1305	15501.7	14667.6
820.4572	547.2748	15315.3	14480.9
820.6016	549.4185	14828.55	13990.9
820.7459	551.5615	14398.35	13562.85
820.8902	553.704	14140.95	13302.6
821.0346	555.8458	14038.05	13205.75
821.1789	557.987	13945.35	13111
821.3233	560.1276	13798.3	12962.5
821.4677	562.2675	13672.5	12840.35
821.6121	564.4069	13545.4	12712.25
821.7565	566.5456	13382.65	12547.3
821.9009	568.6837	13228.15	12391.6
822.0453	570.8212	12954.35	12121.95
822.1897	572.958	12724	11889.55
822.3342	575.0942	12536.35	11700.6
822.4786	577.2299	12442	11607.35
822.6231	579.3648	12475.9	11639.95
822.7675	581.4992	12571.25	11731.55
822.912	583.6329	12824.05	11989.6
823.0565	585.766	13072.25	12235.9
823.201	587.8985	13214.05	12378.15
823.3454	590.0304	13208.2	12359.4
823.4899	592.1616	13159.1	12318.6
823.6345	594.2922	13025.5	12186.65
823.779	596.4222	12877.05	12037.25
823.9235	598.5515	12687.45	11847.9
824.068	600.6802	12518.2	11678.9
824.2126	602.8083	12322.35	11481.45
824.3571	604.9358	12217.05	11373.45
824.5017	607.0626	12110.9	11270.25
824.6462	609.1888	11995.75	11151.85
824.7908	611.3144	11888.75	11042.65
824.9354	613.4393	11679.65	10839.15
825.08	615.5636	11520	10680.05
825.2246	617.6873	11391.25	10548.95
825.3692	619.8103	11315.05	10472.55
825.5138	621.9327	11221.35	10375.8
825.6584	624.0544	11230.1	10388.35
825.803	626.1756	11227.2	10386.2
825.9477	628.2961	11208.35	10363.2
826.0923	630.4159	11128.7	10283.3
826.237	632.5351	11090.25	10248.6
826.3816	634.6537	11002.9	10159.15
826.5263	636.7716	10963.25	10116.25
826.6709	638.8889	10939.4	10094
826.8156	641.0056	10932.45	10084.7
826.9603	643.1216	10947.05	10101.6
827.105	645.237	10962.6	10112.3
827.2497	647.3518	10949.95	10101.7
827.3944	649.4659	10979.3	10132
827.5391	651.5793	11007.35	10157.25
827.6838	653.6922	10967.9	10120.35
827.8285	655.8043	10957.5	10108.4
827.9733	657.9159	10928.45	10078.35
828.118	660.0268	10825.45	9974.7
828.2627	662.137	10742.35	9893.75
828.4075	664.2466	10672.95	9821.15
828.5522	666.3556	10627.65	9779.4
828.697	668.4639	10624.35	9771.3
828.8418	670.5716	10677.1	9827.4
828.9865	672.6786	10782.7	9930.25
829.1313	674.785	10872.25	10019.6
829.2761	676.8907	10952.7	10100
829.4209	678.9958	11018.2	10169.05
829.5657	681.1002	10996.45	10141.35
829.7105	683.204	10973.05	10115.9
829.8553	685.3072	10904.45	10050.3
830.0001	687.4097	10799.55	9945.9
830.1449	689.5115	10707.05	9849.15
830.2898	691.6127	10603.3	9751.8
830.4346	693.7132	10526.6	9671.7
830.5794	695.8131	10457.7	9582.9
830.7243	697.9123	10370.1	9511
830.8691	700.0109	10328.1	9471.8
831.014	702.1089	10308.25	9455.55
831.1588	704.2061	10323.7	9465.85
831.3037	706.3028	10324.8	9470.6
831.4486	708.3987	10359	9501.4
831.5935	710.4941	10444.2	9589.55
831.7383	712.5887	10655.5	9800.3
831.8832	714.6827	11010.9	10149.4
832.0281	716.7761	11425.45	10570.45
832.173	718.8688	11833.65	10975.6
832.3179	720.9608	12071.85	11210.15
832.4628	723.0522	12056.5	11195.8
832.6077	725.1429	11779.75	10921.9
832.7527	727.233	11359.2	10504.2
832.8976	729.3224	10984.15	10128.4
833.0425	731.4112	10603.1	9744.05
833.1874	733.4993	10370.35	9507.15
833.3324	735.5867	10219.05	9357.75
833.4773	737.6735	10122.55	9263.45
833.6222	739.7596	10089.05	9227.5
833.7672	741.845	10027.25	9167.95
833.9122	743.9298	10042.1	9181.1
834.0571	746.014	10011.85	9151.65
834.2021	748.0974	10054.1	9193.5
834.347	750.1802	10028.4	9170
834.492	752.2624	10029.75	9168.75
834.637	754.3439	10068.25	9208.45
834.782	756.4247	10107.1	9234.8
834.9269	758.5048	10168.55	9309.45
835.0719	760.5843	10349.9	9489.2
835.2169	762.6631	10646.3	9784.35
835.3619	764.7413	11062.75	10203.2
835.5069	766.8188	11646.2	10783.05
835.6519	768.8956	12162.85	11298.55
835.7969	770.9718	12469.7	11608.45
835.9419	773.0473	12330.6	11467.9
836.0869	775.1221	11982.1	11120.5
836.232	777.1962	11570.85	10709.45
836.377	779.2697	11352.05	10488.85
836.522	781.3426	11452.85	10571.45
836.667	783.4147	11739.05	10876.95
836.8121	785.4862	12096.25	11232.3
836.9571	787.557	12109.8	11246.75
837.1021	789.6271	11748.15	10884.75
837.2472	791.6966	11153	10291.95
837.3922	793.7654	10600.85	9736.7
837.5373	795.8335	10242.05	9378.8
837.6823	797.901	10077.85	9216.05
837.8274	799.9678	10001.9	9138.75
837.9724	802.0339	10039	9177.45
838.1175	804.0993	10090.45	9215.9
838.2626	806.1641	10069.8	9206.2
838.4076	808.2282	9976.45	9110.8
838.5527	810.2916	9885.95	9019.9
838.6978	812.3544	9772.6	8910.75
838.8428	814.4164	9663.2	8800.45
838.9879	816.4778	9669.95	8805.5
839.133	818.5385	9606.85	8743.7
839.2781	820.5986	9619.75	8755
839.4232	822.658	9686.45	8818.7
839.5682	824.7166	9735.35	8871.8
839.7133	826.7747	9855.45	8990.25
839.8584	828.832	9939.95	9075.3
840.0035	830.8886	10044.2	9175.2
840.1486	832.9446	10192.95	9326.05
840.2937	834.9999	10283.6	9416.65
840.4388	837.0545	10380.45	9510.9
840.5839	839.1085	10448.9	9584.2
840.729	841.1618	10480.25	9612.1
840.8741	843.2143	10453.65	9588.3
841.0192	845.2662	10377.95	9511.35
841.1643	847.3175	10303.4	9438.7
841.3095	849.368	10209.65	9341.65
841.4546	851.4179	10065.45	9199.25
841.5997	853.467	9925.5	9059.7
841.7448	855.5155	9809.4	8941.05
841.8899	857.5633	9674.25	8808.75
842.0351	859.6105	9545.75	8679.6
842.1802	861.6569	9444.35	8575.9
842.3253	863.7027	9387.7	8520.1
842.4704	865.7478	9343.2	8478
842.6156	867.7922	9347.25	8479.2
842.7607	869.8359	9429.8	8562
842.9058	871.8789	9529.85	8661.2
843.0509	873.9212	9741.85	8841.25
843.1961	875.9629	9913.7	9045.5
843.3412	878.0039	10093.15	9221.5
843.4863	880.0441	10200.05	9332.8
843.6315	882.0837	10188.6	9319.4
843.7766	884.1226	10043.5	9173.55
843.9218	886.1609	9862.65	8993.3
844.0669	888.1984	9696.05	8827.95
844.212	890.2352	9644.1	8778.8
844.3572	892.2714	9591.9	8717.7
844.5023	894.3069	9524.9	8655.65
844.6475	896.3416	9470.3	8598.5
844.7926	898.3757	9420.3	8549.55
844.9377	900.4091	9412.8	8543.2
845.0829	902.4418	9432.1	8556.15
845.228	904.4739	9411.2	8540.45
845.3732	906.5052	9394.9	8526.35
845.5183	908.5358	9274.6	8404
845.6635	910.5658	9125.65	8253.5
845.8086	912.595	8965.95	8096.15
845.9538	914.6236	8801.35	7930.5
846.0989	916.6515	8766.3	7895.35
846.2441	918.6786	8774.4	7902.45
846.3892	920.7051	8857.1	7985.05
846.5344	922.7309	8966.6	8095.35
846.6795	924.756	9046.85	8173.8
846.8246	926.7804	9134.45	8260.95
846.9698	928.8041	9091.75	8216.15
847.1149	930.8272	9099.25	8230.45
847.2601	932.8495	9037.1	8164.1
847.4052	934.8711	8951.65	8081
847.5504	936.892	8800.95	7929.1
847.6955	938.9123	8611.7	7738.55
847.8407	940.9318	8445.15	7571.55
847.9858	942.9506	8301.05	7427.8
848.131	944.9688	8214.6	7342.95
848.2761	946.9862	8169.2	7295.5
848.4213	949.003	8129.75	7255.45
848.5664	951.019	8124.25	7251.65
848.7115	953.0344	8139.8	7266.45
848.8567	955.0491	8217.75	7342.55
849.0018	957.063	8261.2	7387.75
849.147	959.0763	8360.15	7490.5
849.2921	961.0888	8426.7	7552.4
849.4373	963.1007	8487.4	7614.9
849.5824	965.1119	8528.95	7657
849.7275	967.1223	8565.5	7693.5
849.8727	969.1321	8599.1	7726.9
850.0178	971.1412	8630.6	7756.4
850.1629	973.1495	8648.85	7774.15
850.3081	975.1572	8731.2	7817.4
850.4532	977.1641	8714.95	7843.45
850.5983	979.1704	8700.05	7825.45
850.7435	981.1759	8677.3	7798.75
850.8886	983.1808	8749.4	7874.45
851.0337	985.1849	8861.8	7976.8
851.1788	987.1884	9029.2	8153.55
851.324	989.1911	9259	8381.25
851.4691	991.1932	9391.65	8515.15
851.6142	993.1945	9462.4	8591.4
851.7593	995.1951	9439.15	8562.85
851.9045	997.1951	9378.35	8497.8
852.0496	999.1943	9279.95	8406.25
852.1947	1001.1928	9251.5	8375.95
852.3398	1003.1906	9218.15	8345.15
852.4849	1005.1877	9268.45	8392.6
852.63	1007.1841	9202.9	8327.1
852.7751	1009.1798	9087	8213.15
852.9202	1011.1748	8914.6	8042.35
853.0653	1013.1691	8683.85	7808.15
853.2104	1015.1627	8459.15	7582.35
853.3555	1017.1556	8251.5	7377.5
853.5006	1019.1477	8170.4	7293.05
853.6457	1021.1392	8087.6	7213.05
853.7908	1023.1299	8080.95	7205.7
853.9359	1025.12	8107.35	7230.7
854.081	1027.1093	8183.7	7308.5
854.2261	1029.0979	8234.6	7361.6
854.3712	1031.0859	8299.85	7425.05
854.5163	1033.0731	8298.75	7421.45
854.6613	1035.0596	8205.15	7330.7
854.8064	1037.0454	8057.75	7182.35
854.9515	1039.0304	7949.2	7074.6
855.0965	1041.0148	7825.7	6949.65
855.2416	1042.9985	7730.5	6855.1
855.3867	1044.9814	7682.55	6808.5
855.5317	1046.9636	7667.25	6788.05
855.6768	1048.9452	7616.6	6740.95
855.8219	1050.926	7623.85	6748.65
855.9669	1052.9061	7608.65	6735.35
856.112	1054.8855	7600.95	6726.4
856.257	1056.8642	7633.05	6757.6
856.4021	1058.8421	7670.1	6789.95
856.5471	1060.8194	7689.6	6812.6
856.6921	1062.7959	7710.8	6835.75
856.8372	1064.7717	7722.5	6844.35
856.9822	1066.7469	7721.85	6845.4
857.1272	1068.7213	7689	6810
857.2723	1070.695	7657.1	6779.4
857.4173	1072.6679	7575.75	6697.6
857.5623	1074.6402	7545.65	6668.6
857.7073	1076.6117	7497.65	6615
857.8523	1078.5826	7533.7	6656.05
857.9973	1080.5527	7603.2	6725.85
858.1423	1082.5221	7751.4	6874.9
858.2873	1084.4908	7991.75	7114.65
858.4323	1086.4587	8228.9	7352.45
858.5773	1088.426	8386.15	7509.95
858.7223	1090.3925	8414.1	7533.1
858.8673	1092.3584	8337.35	7461.75
859.0123	1094.3235	8139.35	7265
859.1573	1096.2879	8032.1	7156.45
859.3022	1098.2515	7965.7	7089.4
859.4472	1100.2145	7970.4	7093.6
859.5922	1102.1767	8031.35	7152.65
859.7371	1104.1382	8186.85	7309.65
859.8821	1106.099	8412.35	7533.65
860.027	1108.0591	8606.8	7730.75
860.172	1110.0185	8761.3	7884.05
860.3169	1111.9771	8750.25	7874.75
860.4619	1113.9351	8511.65	7634.6
860.6068	1115.8923	8153.7	7275.65
860.7517	1117.8488	7816.55	6937.25
860.8967	1119.8045	7525.45	6648.35
861.0416	1121.7596	7368.55	6490.35
861.1865	1123.7139	7308.8	6432.75
861.3314	1125.6675	7306.95	6428.8
861.4763	1127.6204	7356.25	6480.45
861.6212	1129.5726	7370.25	6490.25
861.7661	1131.524	7396.6	6519.95
861.911	1133.4748	7464.75	6585.3
862.0559	1135.4248	7536.3	6656.6
862.2008	1137.3741	7551.7	6673.85
862.3457	1139.3226	7503.45	6622.9
862.4905	1141.2705	7467.65	6587.75
862.6354	1143.2176	7419.95	6537
862.7803	1145.164	7433.4	6554.9
862.9251	1147.1097	7454.5	6577.25
863.07	1149.0546	7452.3	6574.35
863.2148	1150.9989	7338	6459.65
863.3597	1152.9424	7185.4	6305.75
863.5045	1154.8852	6962.6	6086.2
863.6493	1156.8272	6820.1	5942.7
863.7942	1158.7686	6733.7	5848.45
863.939	1160.7092	6684.3	5803.3
864.0838	1162.6491	6671.75	5791.45
864.2286	1164.5883	6714.35	5836.2
864.3734	1166.5267	6820.45	5941.15
864.5182	1168.4644	6972.1	6095.3
864.663	1170.4014	7139.45	6261.25
864.8078	1172.3377	7394.1	6517.95
864.9526	1174.2732	7591.85	6712.55
865.0974	1176.2081	7808.3	6931.05
865.2421	1178.1421	7946.2	7060.45
865.3869	1180.0755	8072	7193.3
865.5317	1182.0082	8091.85	7214.2
865.6764	1183.9401	8024	7144.7
865.8212	1185.8713	7787.55	6908.9
865.9659	1187.8017	7545.4	6664.7
866.1106	1189.7315	7314.7	6436.65
866.2554	1191.6605	7059.6	6151.1
866.4001	1193.5888	6847.85	5967.65
866.5448	1195.5163	6713.4	5834.3
866.6895	1197.4432	6614.35	5732.5
866.8342	1199.3693	6541.6	5665.1
866.9789	1201.2947	6494.75	5614.2
867.1236	1203.2193	6458.55	5581.6
867.2683	1205.1432	6497.75	5619.8
867.413	1207.0664	6568.4	5689.7
867.5576	1208.9889	6652.15	5769.65
867.7023	1210.9106	6730.7	5852.85
867.847	1212.8316	6820.2	5942.75
867.9916	1214.7519	6903	6014.6
868.1363	1216.6715	6912.1	6033.65
868.2809	1218.5903	6924.5	6046.5
868.4255	1220.5084	6869.1	5990.3
868.5701	1222.4257	6823.5	5943.45
868.7148	1224.3424	6774.1	5897.65
868.8594	1226.2583	6823.45	5943.1
869.004	1228.1735	6933.6	6053.7
869.1486	1230.0879	7086.5	6206.1
869.2932	1232.0016	7207.3	6328.85
869.4377	1233.9146	7257.95	6375.7
869.5823	1235.8269	7163.1	6283.95
869.7269	1237.7384	7000.45	6122.05
869.8715	1239.6492	6832.9	5953.45
870.016	1241.5592	6719.05	5839.3
870.1606	1243.4686	6617.2	5737.4
870.3051	1245.3772	6548.75	5669.55
870.4496	1247.285	6474.8	5596.8
870.5941	1249.1922	6443.1	5564.7
870.7387	1251.0986	6421.9	5544.8
870.8832	1253.0042	6440.45	5561.15
871.0277	1254.9092	6532.6	5653.45
871.1722	1256.8134	6614.55	5735
871.3167	1258.7169	6760.55	5877.65
871.4611	1260.6196	6946	6065.8
871.6056	1262.5216	7119.55	6236.6
871.7501	1264.4229	7234.5	6357.05
871.8945	1266.3234	7354.75	6474.2
872.039	1268.2232	7382.05	6501
872.1834	1270.1223	7365.7	6486.55
872.3278	1272.0207	7350.8	6470.65
872.4723	1273.9183	7316.15	6430.55
872.6167	1275.8151	7214.05	6337.35
872.7611	1277.7113	7116.8	6234.95
872.9055	1279.6067	6963.9	6087
873.0499	1281.5014	6808.65	5925.55
873.1943	1283.3953	6666.45	5784.15
873.3386	1285.2885	6538.55	5660.8
873.483	1287.181	6487.8	5606.5
873.6274	1289.0727	6498.4	5617.4
873.7717	1290.9637	6522.3	5640.6
873.9161	1292.854	6654.45	5773.6
874.0604	1294.7435	6796.2	5916.05
874.2047	1296.6323	7008.65	6129.7
874.349	1298.5204	7278.45	6396.6
874.4933	1300.4077	7561.3	6677.05
874.6376	1302.2943	7750.6	6869.35
874.7819	1304.1802	7836	6956.1
874.9262	1306.0653	7782.8	6898.6
875.0705	1307.9497	7670.15	6790.05
875.2147	1309.8333	7584	6705.35
875.359	1311.7162	7590.6	6710
875.5032	1313.5984	7675.7	6791.95
875.6475	1315.4798	7842.4	6960.4
875.7917	1317.3605	8015.95	7118.1
875.9359	1319.2405	8188.5	7305.1
876.0801	1321.1197	8231.3	7348.25
876.2243	1322.9982	8210.1	7326.05
876.3685	1324.876	8188.65	7309.7
876.5127	1326.753	8173.8	7293.7
876.6569	1328.6293	8208.6	7325.5
876.801	1330.5048	8218.65	7333.6
876.9452	1332.3796	8177	7297.75
877.0893	1334.2537	8189.95	7283.65
877.2335	1336.127	8124.25	7242.85
877.3776	1337.9996	8073.05	7189.55
877.5217	1339.8714	7996.8	7115.95
877.6658	1341.7426	7971.3	7047.85
877.8099	1343.6129	7872.1	6990.35
877.954	1345.4826	7806.9	6925.65
878.0981	1347.3515	7774.05	6892.1
878.2422	1349.2196	7714.25	6831.95
878.3862	1351.087	7687.2	6806.8
878.5303	1352.9537	7730.85	6849.1
878.6743	1354.8197	7848.1	6967.35
878.8184	1356.6849	8008.6	7128.1
878.9624	1358.5493	8089.3	7207.7
879.1064	1360.4131	8079.55	7198.8
879.2504	1362.276	7980.2	7100.45
879.3944	1364.1383	7833.85	6952.9
879.5384	1365.9998	7615.75	6728.05
879.6823	1367.8606	7334.05	6452.85
879.8263	1369.7206	7100	6218.45
879.9702	1371.5799	6938.9	6054.05
880.1142	1373.4384	6823.9	5941.6
880.2581	1375.2962	6695.05	5812
880.402	1377.1533	6491.9	5610.25
880.5459	1379.0096	6193	5311.5
880.6898	1380.8652	5922.65	5043.05
880.8337	1382.7201	5678.45	4796.7
880.9776	1384.5742	5508.3	4627.25
881.1215	1386.4275	5352.4	4469.7
881.2653	1388.2802	5242.75	4360.85
881.4092	1390.132	5162.55	4281.55
881.553	1391.9832	5106.8	4222.6
881.6968	1393.8336	5036.3	4158.2
881.8406	1395.6832	5024.9	4139.55
881.9844	1397.5322	4987.5	4106.6
882.1282	1399.3803	4987.55	4100.55
882.272	1401.2278	4970.65	4090.25
882.4158	1403.0745	4943.8	4062.1
882.5595	1404.9204	4942.85	4061.55
882.7033	1406.7656	4949.2	4065.8
882.847	1408.6101	4958.55	4074.3
882.9908	1410.4538	4999.6	4118.3
883.1345	1412.2968	5048.65	4166.3
883.2782	1414.139	5099.3	4216.1
883.4219	1415.9805	5189.75	4310.25
883.5656	1417.8213	5293.05	4406.15
883.7092	1419.6613	5421.55	4539.55
883.8529	1421.5006	5625.95	4744.7
883.9965	1423.3391	5899.85	5016.15
884.1402	1425.1769	6271.55	5387.6
884.2838	1427.0139	6790.8	5907.6
884.4274	1428.8502	7419.95	6535.85
884.571	1430.6858	8047.85	7167.05
884.7146	1432.5206	8535.1	7652.4
884.8582	1434.3547	8780.45	7897.8
885.0018	1436.188	8836.15	7953.2
885.1453	1438.0206	8772.55	7890.4
885.2889	1439.8524	8617.35	7734.35
885.4324	1441.6835	8530.35	7649.35
885.5759	1443.5139	8434.65	7550.9
885.7194	1445.3435	8385.35	7503
885.8629	1447.1724	8332.95	7450.9
886.0064	1449.0005	8226.45	7343.8
886.1499	1450.8279	8148	7262.4
886.2933	1452.6545	8096.05	7215.9
886.4368	1454.4804	8131.1	7250.5
886.5802	1456.3056	8146.65	7256.35
886.7237	1458.13	8039.55	7158.65
886.8671	1459.9536	7789.7	6908.25
887.0105	1461.7766	7404.1	6524
887.1539	1463.5987	6990.5	6107.95
887.2972	1465.4202	6596.85	5713.95
887.4406	1467.2409	6229.65	5348.9
887.584	1469.0608	5940.4	5058.5
887.7273	1470.88	5698.7	4816.7
887.8706	1472.6984	5455.1	4573.85
888.0139	1474.5161	5261.75	4376.35
888.1572	1476.3331	5123.5	4243.45
888.3005	1478.1493	4983.55	4101.55
888.4438	1479.9648	4887.85	4006.35
888.5871	1481.7795	4790.3	3909.55
888.7303	1483.5935	4724	3843.65
888.8736	1485.4067	4643.4	3761
889.0168	1487.2192	4598.7	3717.55
889.16	1489.031	4573.7	3688.2
889.3032	1490.842	4538.05	3657.8
889.4464	1492.6522	4498.7	3616.85
889.5896	1494.4618	4466.3	3583.9
889.7327	1496.2705	4438.6	3556.4
889.8759	1498.0785	4426.55	3544.45
890.019	1499.8858	4421.45	3538.85
890.1622	1501.6924	4372	3491.75
890.3053	1503.4981	4383.8	3501.9
890.4484	1505.3032	4366.5	3484.55
890.5914	1507.1075	4324.85	3441.05
890.7345	1508.911	4291.15	3409.45
890.8776	1510.7138	4283.5	3400.55
891.0206	1512.5159	4234.3	3352.2
891.1637	1514.3172	4199.4	3316.35
891.3067	1516.1178	4178.95	3299.55
891.4497	1517.9176	4148.7	3263.8
891.5927	1519.7166	4141.6	3260.4
891.7357	1521.515	4117.35	3227.4
891.8786	1523.3126	4087.05	3202.75
892.0216	1525.1094	4060.75	3176.45
892.1645	1526.9055	4069.6	3186.6
892.3074	1528.7008	4048.7	3167.55
892.4503	1530.4954	4035.9	3147.8
892.5932	1532.2893	4025.95	3147.1
892.7361	1534.0824	4014.25	3125.5
892.879	1535.8747	4009.75	3126.65
893.0218	1537.6663	4000.35	3118.15
893.1647	1539.4572	3988.7	3105.25
893.3075	1541.2473	3998.4	3115.75
893.4503	1543.0367	3985.65	3104.75
893.5931	1544.8253	3993.05	3107.15
893.7359	1546.6132	3987.15	3103.35
893.8787	1548.4003	3978.65	3086.4
894.0214	1550.1867	4007.75	3116.85
894.1642	1551.9723	4008.65	3121.7
894.3069	1553.7572	4041.1	3154.55
894.4496	1555.5414	4056.5	3172.6
894.5923	1557.3247	4070.5	3187.6
894.735	1559.1074	4134.05	3254.85
894.8777	1560.8893	4188.95	3308.9
895.0204	1562.6705	4251.85	3371.8
895.163	1564.4509	4313.1	3433.7
895.3056	1566.2305	4383.55	3502.4
895.4482	1568.0094	4487.85	3607.1
895.5908	1569.7876	4585.5	3703.55
895.7334	1571.565	4651.5	3768.7
895.876	1573.3417	4691.8	3810
896.0186	1575.1176	4719.6	3839
896.1611	1576.8928	4677.45	3796.3
896.3036	1578.6672	4599.85	3717.9
896.4461	1580.4409	4511.35	3632.15
896.5886	1582.2138	4388.8	3504.45
896.7311	1583.986	4242.05	3360
896.8736	1585.7575	4174.9	3293.9
897.0161	1587.5282	4075.85	3195.55
897.1585	1589.2981	4023.7	3142.05
897.3009	1591.0673	3969.6	3086.6
897.4433	1592.8358	3957.05	3075.8
897.5857	1594.6035	3958.6	3074.55
897.7281	1596.3704	3959.55	3075.55
897.8705	1598.1366	3964.6	3086.4
898.0128	1599.9021	3979.95	3099.15
898.1551	1601.6668	4008.55	3125.4
898.2975	1603.4308	4055.9	3173.25
898.4398	1605.194	4127.8	3241.4
898.5821	1606.9564	4213.1	3333.25
898.7243	1608.7182	4318.45	3431.25
898.8666	1610.4791	4441.7	3560.3
899.0088	1612.2394	4587.1	3705.3
899.1511	1613.9988	4776.05	3896.1
899.2933	1615.7576	5017.95	4137.25
899.4355	1617.5156	5260.65	4372.8
899.5776	1619.2728	5499.2	4619.2
899.7198	1621.0293	5687.85	4805.5
899.862	1622.785	5763.4	4879.15
900.0041	1624.54	5731.6	4847.15
900.1462	1626.2942	5595.45	4710.95
900.2883	1628.0477	5347.35	4463.55
900.4304	1629.8005	5104	4218.95
900.5725	1631.5525	4851.9	3970.3
900.7145	1633.3037	4658.15	3777.5
900.8566	1635.0542	4498.35	3617.25
900.9986	1636.804	4348.25	3466.15
901.1406	1638.553	4330.35	3370.35
901.2826	1640.3013	4224.35	3345.4
901.4245	1642.0488	4155.55	3275.15
901.5665	1643.7955	4146.95	3268.45
901.7085	1645.5416	4183.6	3299.55
901.8504	1647.2868	4233.6	3352.95
901.9923	1649.0313	4326.45	3446.8
902.1342	1650.7751	4452.35	3567.95
902.2761	1652.5181	4635.9	3754.2
902.4179	1654.2604	4882.6	4000.15
902.5598	1656.0019	5222.7	4339.9
902.7016	1657.7427	5605.15	4723.3
902.8434	1659.4828	5949.4	5069.8
902.9852	1661.222	6171.35	5289.25
903.127	1662.9606	6229.4	5346.85
903.2687	1664.6984	6077.3	5196.05
903.4105	1666.4354	5721.9	4839.55
903.5522	1668.1717	5272.95	4389.7
903.6939	1669.9072	4816.45	3936.8
903.8356	1671.642	4457.2	3573.05
903.9773	1673.3761	4158.6	3277.3
904.119	1675.1094	3938.2	3057.25
904.2606	1676.8419	3771.35	2890.5
904.4022	1678.5737	3647.4	2767.25
904.5439	1680.3048	3555.55	2675.65
904.6855	1682.0351	3495.25	2615.3
904.827	1683.7646	3430.1	2547
904.9686	1685.4934	3394.1	2515.1
905.1101	1687.2215	3363.8	2482.5
905.2517	1688.9488	3331.45	2449.1
905.3932	1690.6754	3295.8	2413.9
905.5347	1692.4012	3272.1	2391.6
905.6761	1694.1263	3252.75	2372.95
905.8176	1695.8506	3226.75	2346.8
905.9591	1697.5742	3212.2	2328.9
906.1005	1699.297	3197.1	2317
906.2419	1701.0191	3181.1	2301.05
906.3833	1702.7404	3155.45	2275.25
906.5246	1704.461	3130.3	2248.95
906.666	1706.1808	3126.2	2242.4
906.8073	1707.8999	3110.5	2227.65
906.9487	1709.6182	3095.25	2213.75
907.09	1711.3358	3083	2200.9
907.2313	1713.0527	3078.85	2197.05
907.3725	1714.7688	3062.7	2175.4
907.5138	1716.4841	3053.35	2170.55
907.655	1718.1987	3043.5	2157
907.7962	1719.9126	3029.1	2149.15
907.9374	1721.6257	3002	2119
908.0786	1723.338	3008.05	2125.8
908.2198	1725.0496	2988.6	2105.65
908.3609	1726.7605	2980.45	2100.35
908.502	1728.4706	2973.4	2091.25
908.6431	1730.18	2954.55	2070.4
908.7842	1731.8886	2955.3	2074.55
908.9253	1733.5964	2954.9	2070.3
909.0664	1735.3036	2943.5	2059.95
909.2074	1737.0099	2934.35	2052.4
909.3484	1738.7156	2934.35	2054.9
909.4894	1740.4204	2914.75	2031.5
909.6304	1742.1246	2912.2	2028.9
909.7714	1743.8279	2899.45	2018.5
909.9123	1745.5306	2896.9	2012.65
910.0532	1747.2325	2880.3	2002.35
910.1941	1748.9336	2878.2	1997.8
910.335	1750.634	2871.95	1988.7
910.4759	1752.3336	2861.35	1980.05
910.6168	1754.0325	2872.9	1993.5
910.7576	1755.7307	2855.85	1974.15
910.8984	1757.4281	2846.95	1967.55
911.0392	1759.1247	2860.05	1969.15
911.18	1760.8206	2843.75	1958.8
911.3208	1762.5158	2833.55	1948.95
911.4615	1764.2102	2832.25	1953.65
911.6022	1765.9039	2825.3	1943.6
911.7429	1767.5968	2819.6	1937.5
911.8836	1769.289	2804.95	1922.2
912.0243	1770.9804	2799.9	1917.65
912.1649	1772.6711	2797.3	1916.3
912.3056	1774.361	2782.75	1901.25
912.4462	1776.0502	2783.4	1901.85
912.5868	1777.7386	2781.75	1899.3
912.7274	1779.4263	2759	1876.95
912.8679	1781.1132	2772.05	1891.65
913.0084	1782.7994	2755.05	1871.65
913.149	1784.4849	2761.35	1880.2
913.2895	1786.1696	2755.75	1856.65
913.4299	1787.8535	2750.4	1869.9
913.5704	1789.5367	2748.3	1866.25
913.7108	1791.2192	2745.05	1864.6
913.8513	1792.9009	2751.95	1841.95
913.9917	1794.5818	2735.1	1854.5
914.132	1796.2621	2729.15	1848.85
914.2724	1797.9415	2718.95	1836.75
914.4128	1799.6202	2714.1	1834.2
914.5531	1801.2982	2701.65	1821.05
914.6934	1802.9755	2703.65	1821.75
914.8337	1804.6519	2696.6	1814
914.9739	1806.3277	2676.25	1793.4
915.1142	1808.0027	2682.95	1801.9
915.2544	1809.6769	2674.95	1794
915.3946	1811.3504	2673.35	1790.35
915.5348	1813.0231	2675.35	1792.65
915.675	1814.6951	2673.6	1792.2
915.8151	1816.3664	2672.25	1790.65
915.9553	1818.0369	2662.1	1782.5
916.0954	1819.7067	2666.05	1786.5
916.2355	1821.3757	2658.1	1773.55
916.3755	1823.044	2657.7	1775.9
916.5156	1824.7115	2652.9	1770.3
916.6556	1826.3783	2631.25	1750.85
916.7956	1828.0443	2623.55	1745.5
916.9356	1829.7096	2627.15	1744.7
917.0756	1831.3741	2633.95	1750.1
917.2155	1833.0379	2624.35	1744
917.3555	1834.701	2614.8	1732.4
917.4954	1836.3633	2619.45	1734.9
917.6353	1838.0248	2614.05	1731
917.7751	1839.6856	2605.4	1725.7
917.915	1841.3457	2601.7	1722.75
918.0548	1843.005	2595.85	1714.7
918.1946	1844.6636	2601.6	1721.6
918.3344	1846.3214	2587.65	1706.95
918.4742	1847.9785	2594.4	1715
918.6139	1849.6349	2582.4	1700.35
918.7537	1851.2904	2586.5	1696.9
918.8934	1852.9453	2577.55	1696.7
919.0331	1854.5994	2583.1	1700.35
919.1727	1856.2528	2582.7	1696.55
919.3124	1857.9054	2573.45	1692.25
919.452	1859.5572	2573.85	1692.7
919.5916	1861.2083	2566.1	1684.9
919.7312	1862.8587	2556.85	1676.95
919.8708	1864.5084	2557.45	1675.8
920.0103	1866.1572	2546.35	1668.15
920.1498	1867.8054	2534.05	1652.9
920.2893	1869.4528	2533.55	1652.05
920.4288	1871.0994	2527.1	1648.5
920.5683	1872.7453	2520.35	1638
920.7077	1874.3905	2537.7	1639.45
920.8471	1876.0349	2519.6	1638.65
920.9865	1877.6786	2507.65	1627.25
921.1259	1879.3215	2506.3	1627.25
921.2653	1880.9637	2506.2	1623.25
921.4046	1882.6051	2500.6	1617.2
921.5439	1884.2458	2496.1	1612.95
921.6832	1885.8858	2497.5	1616.1
921.8225	1887.525	2497.15	1615.4
921.9617	1889.1634	2461.8	1581.25
922.101	1890.8011	2489.05	1608.45
922.2402	1892.4381	2479.5	1599.65
922.3794	1894.0743	2472.65	1593.1
922.5185	1895.7098	2468.4	1587.75
922.6577	1897.3446	2466.05	1585.25
922.7968	1898.9786	2466.55	1579.3
922.9359	1900.6118	2462.55	1584.4
923.075	1902.2443	2456.8	1570.85
923.214	1903.8761	2436	1557.05
923.3531	1905.5071	2433.75	1551
923.4921	1907.1374	2438.75	1557
923.6311	1908.7669	2433.95	1556.15
923.77	1910.3957	2416.05	1535.8
923.909	1912.0237	2406.95	1526.4
924.0479	1913.651	2419.55	1540.95
924.1868	1915.2776	2412.85	1532.2
924.3257	1916.9034	2411.2	1531.75
924.4646	1918.5285	2391.95	1510.7
924.6034	1920.1528	2403.75	1521
924.7422	1921.7764	2397.2	1517.05
924.881	1923.3992	2385.65	1504.05
925.0198	1925.0213	2379.65	1498.1
925.1586	1926.6427	2374.25	1495.75
925.2973	1928.2633	2459.15	1473.35
925.436	1929.8832	2389.55	1507.3
925.5747	1931.5023	2353.85	1474
925.7134	1933.1207	2365.35	1482.65
925.852	1934.7383	2349.55	1466.05
925.9906	1936.3552	2348.85	1469.55
926.1292	1937.9714	2356.7	1475
926.2678	1939.5868	2341.95	1459.9
926.4064	1941.2015	2331.9	1451.45
926.5449	1942.8154	2328.7	1447.45
926.6834	1944.4286	2311.3	1427.95
926.8219	1946.041	2333.3	1428.6
926.9604	1947.6528	2307.7	1422.3
927.0988	1949.2637	2302.45	1420.75
927.2372	1950.8739	2300	1419.15
927.3756	1952.4834	2289.25	1406.5
927.514	1954.0921	2300.4	1419.25
927.6523	1955.7001	2278.45	1392.6
927.7907	1957.3074	2280.6	1401.4
927.929	1958.9139	2265.9	1388.4
928.0673	1960.5197	2273.8	1390.95
928.2055	1962.1247	2259.3	1380.15
928.3438	1963.729	2246.8	1367.55
928.482	1965.3325	2277.8	1373.15
928.6202	1966.9353	2246.25	1364.9
928.7584	1968.5374	2244.95	1362.45
928.8965	1970.1387	2244.6	1362.5
929.0346	1971.7393	2225.45	1345.1
929.1727	1973.3392	2214.75	1336.3
929.3108	1974.9383	2217.8	1336.7
929.4489	1976.5366	2215.6	1333.4
929.5869	1978.1342	2207.75	1326.2
929.7249	1979.7311	2197.1	1315.45
929.8629	1981.3273	2203.3	1321.15
930.0009	1982.9227	2205.6	1321.65
930.1388	1984.5173	2195.2	1313.75
930.2767	1986.1112	2183.25	1302
930.4146	1987.7044	2193.7	1314.9
930.5525	1989.2968	2189.55	1307.25
930.6904	1990.8885	2185.65	1299.85
930.8282	1992.4795	2183.05	1300.05
930.966	1994.0697	2170.6	1290.45
931.1038	1995.6592	2169.9	1290.55
931.2415	1997.2479	2169.85	1288.65
931.3793	1998.8359	2159.6	1279.25
931.517	2000.4232	2158.9	1278.1
931.6547	2002.0097	2144.7	1265.55
931.7923	2003.5955	2145.3	1262.4
931.93	2005.1805	2154.2	1271.35
932.0676	2006.7648	2156.25	1276.05
932.2052	2008.3484	2152.05	1269.05
932.3427	2009.9312	2146.55	1262.85
932.4803	2011.5133	2135.75	1257.1
932.6178	2013.0946	2127.35	1247.3
932.7553	2014.6752	2129.05	1249.6
932.8928	2016.2551	2128.4	1245.55
933.0302	2017.8342	2117.85	1237.05
933.1676	2019.4126	2112.15	1233.8
933.305	2020.9902	2117.25	1238.15
933.4424	2022.5672	2106.75	1224.7
933.5798	2024.1433	2112.7	1226.55
933.7171	2025.7188	2111.4	1231.55
933.8544	2027.2935	2102.75	1218.05
933.9917	2028.8674	2097.2	1215.75
934.129	2030.4406	2088.95	1208.15
934.2662	2032.0131	2085.45	1205.3
934.4034	2033.5849	2093.85	1210.25
934.5406	2035.1559	2089.35	1208.9
934.6778	2036.7261	2083.05	1201.85
934.8149	2038.2957	2063.9	1184.05
934.952	2039.8645	2072.95	1191.35
935.0891	2041.4325	2080.45	1196.4
935.2262	2042.9998	2069.5	1188.6
935.3632	2044.5664	2069.2	1184.55
935.5002	2046.1323	2056.8	1174.85
935.6372	2047.6974	2051.25	1168.25
935.7742	2049.2617	2049.25	1168.4
935.9111	2050.8254	2069.7	1167.15
936.048	2052.3883	2064.4	1183
936.1849	2053.9504	2048.3	1168.3
936.3218	2055.5118	2041.15	1159.2
936.4586	2057.0725	2039.6	1154.4
936.5955	2058.6325	2030.2	1147.05
936.7323	2060.1917	2016.95	1133.55
936.869	2061.7502	2022.7	1138.7
937.0058	2063.3079	2019.4	1136.9
937.1425	2064.8649	2020.7	1134.95
937.2792	2066.4212	2017.75	1136.9
937.4159	2067.9767	2018.9	1138.1
937.5525	2069.5315	2010.75	1131.6
937.6891	2071.0856	2000.8	1118.35
937.8257	2072.6389	2004.95	1122.2
937.9623	2074.1915	1999.9	1122.2
938.0989	2075.7433	1987.65	1104.15
938.2354	2077.2945	1999.1	1118.65
938.3719	2078.8448	1986.3	1105.4
938.5084	2080.3945	1979.15	1099.1
938.6448	2081.9434	1974.3	1093.75
938.7812	2083.4916	1975.85	1092.65
938.9176	2085.039	1969.55	1086.8
939.054	2086.5857	1971.65	1089.7
939.1903	2088.1317	1964.35	1082.95
939.3267	2089.677	1975.65	1093.9
939.463	2091.2215	1963.15	1082.35
939.5992	2092.7652	1960.55	1076.65
939.7355	2094.3083	1950.9	1069.35
939.8717	2095.8506	1945.95	1066.9
940.0079	2097.3921	1956.25	1075.75
940.1441	2098.933	1952	1070.25
940.2802	2100.4731	1954	1073.2
940.4163	2102.0124	1952.4	1064.35
940.5524	2103.5511	1934.3	1052.9
940.6885	2105.089	1941.15	1058.9
940.8245	2106.6261	1940.2	1062.15
940.9606	2108.1626	1928.75	1045.5
941.0965	2109.6983	1955.75	1045.3
941.2325	2111.2332	1936.85	1055.45
941.3684	2112.7675	1919.15	1036.1
941.5044	2114.301	1924.75	1042.25
941.6403	2115.8337	1920.45	1038
941.7761	2117.3657	1924.45	1042
941.912	2118.897	1917.95	1035.15
942.0478	2120.4276	1919.55	1030.9
942.1835	2121.9575	1908.1	1026
942.3193	2123.4866	1915.25	1019.8
942.455	2125.0149	1906.7	1025.15
942.5907	2126.5426	1904.6	1023.05
942.7264	2128.0695	1907.35	1023.3
942.8621	2129.5956	1901.7	1020
942.9977	2131.1211	1898.95	1012.8
943.1333	2132.6458	1902.7	1021.2
943.2689	2134.1698	1888.1	1007.15
943.4044	2135.693	1878.55	995.05
943.54	2137.2155	1884.4	1001.95
943.6755	2138.7373	1881.15	998.75
943.8109	2140.2584	1880.75	996.65
943.9464	2141.7787	1882	994.05
944.0818	2143.2983	1872	990.05
944.2172	2144.8171	1865.5	984.65
944.3526	2146.3353	1874.75	992.65
944.4879	2147.8527	1866.1	984.55
944.6232	2149.3693	1870.15	989.6
944.7585	2150.8853	1860.5	979.25
944.8938	2152.4005	1854.15	973.25
945.029	2153.9149	1864.5	981.25
945.1642	2155.4287	1851.8	971.1
945.2994	2156.9417	1855.9	971.6
945.4346	2158.454	1847.75	964.7
945.5697	2159.9655	1843.2	962.3
945.7048	2161.4764	1847.7	966.75
945.8399	2162.9865	1841.55	956.7
945.9749	2164.4958	1844.1	960
946.1099	2166.0045	1838.15	954.9
946.2449	2167.5124	1831.55	949.05
946.3799	2169.0195	1833.1	949.7
946.5148	2170.526	1837.2	956.4
946.6498	2172.0317	1834.95	953.4
946.7846	2173.5367	1822.75	939.85
946.9195	2175.0409	1817.7	936.25
947.0543	2176.5445	1828.2	948.75
947.1891	2178.0473	1816.65	934.5
947.3239	2179.5494	1820.3	935.5
947.4587	2181.0507	1810.2	928.7
947.5934	2182.5513	1808.35	926.3
947.7281	2184.0512	1804.7	923.5
947.8628	2185.5504	1811.05	929.9
947.9974	2187.0488	1798.4	918.05
948.132	2188.5465	1797.55	916.9
948.2666	2190.0435	1797.8	916.6
948.4012	2191.5397	1792.35	909.75
948.5357	2193.0353	1786.5	904.9
948.6702	2194.5301	1779.85	897.2
948.8047	2196.0241	1781.5	897.45
948.9392	2197.5175	1776.55	895.05
949.0736	2199.0101	1784.8	899.85
949.208	2200.502	1776.05	894.9
949.3424	2201.9931	1771.5	889.8
949.4767	2203.4835	1761.8	875.95
949.611	2204.9733	1780	891.95
949.7453	2206.4622	1769.3	886.35
949.8796	2207.9505	1763.2	878.1
950.0138	2209.438	1745.05	862.9
950.148	2210.9248	1758.5	876.85
950.2822	2212.4109	1751.85	870.05
950.4164	2213.8962	1750.2	865.05
950.5505	2215.3809	1748.6	866.85
950.6846	2216.8648	1740.75	856.2
950.8186	2218.3479	1747.15	860
950.9527	2219.8304	1742.55	859.95
951.0867	2221.3121	1735.85	851.55
951.2207	2222.7931	1741.8	861.25
951.3546	2224.2733	1733.95	850.05
951.4886	2225.7529	1728.65	846.4
951.6225	2227.2317	1729.65	845.85
951.7563	2228.7098	1714.3	832.1
951.8902	2230.1872	1724.9	842.75
952.024	2231.6638	1714.25	831.75
952.1578	2233.1397	1713.65	825.8
952.2916	2234.6149	1705.3	824.4
952.4253	2236.0894	1713.75	830.25
952.559	2237.5632	1707.65	823.05
952.6927	2239.0362	1699.8	817.55
952.8263	2240.5085	1711.15	830.3
952.9599	2241.9801	1705.45	824.25
953.0935	2243.4509	1690.75	809.3
953.2271	2244.921	1690.4	809.05
953.3606	2246.3904	1691.45	807.9
953.4941	2247.8591	1683.65	803.35
953.6276	2249.3271	1677.45	798.25
953.7611	2250.7943	1685.9	800.55
953.8945	2252.2608	1685	803.65
954.0279	2253.7266	1677.9	796.6
954.1612	2255.1917	1673.95	790.9
954.2946	2256.656	1668.4	787.85
954.4279	2258.1197	1667.95	788.15
954.5612	2259.5826	1676.45	792.7
954.6944	2261.0447	1673.45	792.8
954.8276	2262.5062	1666.3	781.6
954.9608	2263.9669	1662.7	779.6
955.094	2265.4269	1650.65	769.7
955.2271	2266.8862	1656.55	772.8
955.3602	2268.3448	1660.65	778.3
955.4933	2269.8026	1661.7	778.55
955.6264	2271.2598	1654.6	775.2
955.7594	2272.7162	1647.8	767.45
955.8924	2274.1719	1645.35	763.6
956.0253	2275.6268	1642.8	760.95
956.1583	2277.0811	1650.7	767.15
956.2912	2278.5346	1641.1	760.35
956.4241	2279.9874	1643.15	759.9
956.5569	2281.4395	1649.6	769.8
956.6897	2282.8908	1637.75	751.3
956.8225	2284.3414	1647.2	761.35
956.9553	2285.7914	1631.95	750.9
957.088	2287.2406	1632.6	747.65
957.2207	2288.689	1634.2	753
957.3534	2290.1368	1632.4	749.2
957.486	2291.5838	1629.85	745.65
957.6186	2293.0302	1625.05	741.8
957.7512	2294.4758	1624.8	743.5
957.8838	2295.9206	1619.75	734.65
958.0163	2297.3648	1627.6	745.8
958.1488	2298.8082	1622.55	739.8
958.2813	2300.251	1619.45	735.8
958.4137	2301.693	1620.15	736.55
958.5461	2303.1343	1613.4	731.3
958.6785	2304.5748	1608.75	727.95
958.8108	2306.0147	1603.45	721.35
958.9432	2307.4538	1607.25	721.7
959.0754	2308.8922	1607.15	726.8
959.2077	2310.3299	1601.95	718.75
959.3399	2311.7669	1594.5	713.95
959.4721	2313.2031	1590.9	708.6
959.6043	2314.6387	1590.4	705.95
959.7365	2316.0735	1587.95	704.75
959.8686	2317.5076	1593.9	712.5
960.0006	2318.941	1586.45	705.55
960.1327	2320.3737	1588.75	706.5
960.2647	2321.8056	1581.2	696.5
960.3967	2323.2369	1584.15	702.6
960.5287	2324.6674	1577	691.35
960.6606	2326.0972	1588.5	703.85
960.7925	2327.5263	1574.05	692.75
960.9244	2328.9547	1577.8	696.1
961.0562	2330.3823	1573.3	692
961.1881	2331.8092	1576.75	692.15
961.3198	2333.2355	1565.65	684.75
961.4516	2334.661	1570.35	686.55
961.5833	2336.0858	1563.95	680.05
961.715	2337.5098	1564.55	683.25
961.8467	2338.9332	1565.2	680.85
961.9783	2340.3558	1556.95	672.55
962.1099	2341.7778	1561.6	680
962.2415	2343.199	1556.3	673.4
962.373	2344.6195	1557.95	676.5
962.5045	2346.0393	1566.95	685
962.636	2347.4583	1558.8	676.5
962.7675	2348.8767	1547	664.15
962.8989	2350.2943	1558	674
963.0303	2351.7113	1558.75	677.55
963.1617	2353.1275	1543.95	662.6
963.293	2354.543	1577.4	671.65
963.4243	2355.9578	1559.75	675.15
963.5556	2357.3718	1545.35	662.35
963.6868	2358.7852	1550.1	663.9
963.818	2360.1978	1539.85	658.1
963.9492	2361.6098	1545.3	664.35
964.0803	2363.021	1539.7	655.1
964.2114	2364.4315	1534.45	653.05
964.3425	2365.8413	1530	647.3
964.4736	2367.2504	1537.75	656.35
964.6046	2368.6587	1526.25	645.5
964.7356	2370.0664	1525.15	644.35
964.8666	2371.4733	1522.5	640.7
964.9975	2372.8795	1521.8	640.3
965.1284	2374.285	1522	639.35
965.2593	2375.6899	1518.2	637.8
965.3901	2377.0939	1510.55	630.3
965.5209	2378.4973	1512.75	632.05
965.6517	2379.9	1513.8	631.85
965.7825	2381.3019	1511.9	632.2
965.9132	2382.7032	1504.15	625.65
966.0439	2384.1037	1504.75	624.25
966.1745	2385.5035	1509.05	626.9
966.3051	2386.9027	1501.45	620.6
966.4357	2388.3011	1501.3	619.05
966.5663	2389.6987	1500.1	619.2
966.6968	2391.0957	1495.3	615.15
966.8273	2392.492	1491.55	611.1
966.9578	2393.8876	1492.15	612.5
967.0882	2395.2824	1483.65	601.75
967.2186	2396.6765	1488.25	608.5
967.349	2398.07	1485.85	604.95
967.4793	2399.4627	1487.7	606.45
967.6097	2400.8547	1486.75	604.4
967.7399	2402.246	1485.5	598.35
967.8702	2403.6366	1480.35	597.25
968.0004	2405.0265	1466.95	586.9
968.1306	2406.4156	1480.45	595.5
968.2607	2407.8041	1477.1	594.85
968.3909	2409.1918	1480.2	597.25
968.521	2410.5789	1476.7	594.65
968.651	2411.9652	1469.7	588.35
968.781	2413.3508	1468.95	587
968.911	2414.7358	1465.8	582.15
969.041	2416.12	1462.25	582.15
969.1709	2417.5035	1460.8	581.25
969.3008	2418.8863	1461.8	581.9
969.4307	2420.2684	1459.9	579.45
969.5606	2421.6497	1462.75	582
969.6904	2423.0304	1451.3	571.6
969.8201	2424.4104	1458.55	578.35
969.9499	2425.7896	1459.2	571.65
970.0796	2427.1682	1450.55	571
970.2093	2428.546	1452.25	568
970.3389	2429.9232	1456.5	573.8
970.4685	2431.2996	1448.85	569
970.5981	2432.6753	1446.05	565.35
970.7277	2434.0503	1446.25	565.15
970.8572	2435.4246	1439.5	560.35
970.9867	2436.7982	1439.05	553.4
971.1161	2438.1711	1432.3	554.4
971.2456	2439.5433	1439.65	556.75
971.375	2440.9148	1440.05	553.65
971.5043	2442.2856	1429.6	548.7
971.6336	2443.6557	1432.6	549.2
971.7629	2445.025	1425.25	544
971.8922	2446.3937	1430.7	550.05
972.0214	2447.7617	1433.95	554.25
972.1506	2449.1289	1427.25	544.2
972.2798	2450.4955	1423.65	539.45
972.4089	2451.8613	1422.35	542.45
972.538	2453.2265	1426.15	543.3
972.6671	2454.5909	1422.65	542.7
972.7961	2455.9546	1422.4	540.95
972.9251	2457.3177	1423.35	543
973.0541	2458.68	1420.1	536.55
973.1831	2460.0416	1414.05	530.85
973.312	2461.4025	1417.15	534.75
973.4408	2462.7627	1433	540.45
973.5697	2464.1222	1413.1	531.7
973.6985	2465.4811	1415.85	533
973.8273	2466.8392	1418.6	538.4
973.956	2468.1966	1421.15	536.65
974.0847	2469.5533	1413.5	531.4
974.2134	2470.9093	1417.45	535.25
974.3421	2472.2645	1420.7	537.5
974.4707	2473.6191	1408.5	528.3
974.5993	2474.973	1409.6	529.05
974.7278	2476.3262	1420.25	537.2
974.8563	2477.6787	1415.4	535.05
974.9848	2479.0305	1405.35	525.3
975.1132	2480.3816	1406.9	524.35
975.2417	2481.7319	1399.85	518.7
975.37	2483.0816	1400.75	517.6
975.4984	2484.4306	1402.3	521.4
975.6267	2485.7789	1398.5	518.35
975.755	2487.1264	1398.3	513.6
975.8833	2488.4733	1390	509.35
976.0115	2489.8195	1407.95	507.95
976.1397	2491.165	1391.55	506.6
976.2678	2492.5097	1395	510
976.3959	2493.8538	1387.8	506.55
976.524	2495.1972	1378.5	496.3
976.6521	2496.5398	1388.5	505.4
976.7801	2497.8818	1388.9	506
976.9081	2499.2231	1382.9	501.7
977.036	2500.5637	1379.55	496
977.164	2501.9035	1377.2	495.9
977.2918	2503.2427	1385.3	498.25
977.4197	2504.5812	1376.4	494.4
977.5475	2505.919	1381.7	499.5
977.6753	2507.256	1380.3	499.05
977.8031	2508.5924	1377.55	496.4
977.9308	2509.9281	1375.05	491.5
978.0585	2511.2631	1374.95	494.3
978.1861	2512.5974	1368.1	486.45
978.3137	2513.9309	1371.55	489.55
978.4413	2515.2638	1403.4	491.9
978.5689	2516.596	1376.6	494.8
978.6964	2517.9275	1367.9	485.6
978.8239	2519.2583	1367	484.2
978.9513	2520.5884	1366.7	483.9
979.0788	2521.9178	1360.65	478.65
979.2062	2523.2465	1362.9	480.55
979.3335	2524.5745	1363.65	482.65
979.4608	2525.9018	1358.75	477.05
979.5881	2527.2284	1352.95	474.75
979.7154	2528.5543	1354.05	473.25
979.8426	2529.8796	1364.3	481.7
979.9698	2531.2041	1355.45	473.9
980.0969	2532.5279	1351.1	471.75
980.224	2533.851	1355.2	472.05
980.3511	2535.1735	1349.1	467.1
980.4781	2536.4952	1351.65	471.5
980.6052	2537.8163	1350.2	466.75
980.7321	2539.1366	1349.45	467.95
980.8591	2540.4562	1347.45	466.35
980.986	2541.7752	1349.6	470.05
981.1129	2543.0935	1352.15	469.05
981.2397	2544.411	1346.15	465.2
981.3665	2545.7279	1344.65	463.75
981.4933	2547.0441	1338.4	458.75
981.62	2548.3596	1344.5	461.35
981.7467	2549.6744	1346.45	464.9
981.8734	2550.9885	1344.4	461.9
982.0001	2552.3019	1337.75	456.7
982.1267	2553.6146	1336.9	455.5
982.2532	2554.9266	1336.75	456.4
982.3798	2556.2379	1341.75	458.1
982.5063	2557.5485	1333.95	454.45
982.6327	2558.8585	1341.1	450.4
982.7592	2560.1677	1334.05	448.75
982.8856	2561.4762	1337.3	456.15
983.0119	2562.7841	1332.9	447.25
983.1383	2564.0913	1324.45	443
983.2646	2565.3977	1329.8	448.75
983.3908	2566.7035	1325.9	443.1
983.517	2568.0086	1329.85	446.05
983.6432	2569.313	1327.85	444.4
983.7694	2570.6167	1328.45	444.15
983.8955	2571.9197	1323.95	442.4
984.0216	2573.222	1322.1	438.1
984.1476	2574.5236	1322.2	438.7
984.2737	2575.8246	1324	441.15
984.3996	2577.1248	1327.45	440.3
984.5256	2578.4244	1319.85	440.35
984.6515	2579.7232	1323.85	442.95
984.7774	2581.0214	1358.8	446.8
984.9032	2582.3189	1327.85	445.85
985.029	2583.6157	1334.7	449.3
985.1548	2584.9118	1333.65	452.9
985.2806	2586.2072	1329.9	447.8
985.4063	2587.5019	1326.65	446.5
985.5319	2588.7959	1330.2	448.6
985.6576	2590.0893	1334.3	449.7
985.7832	2591.3819	1336.95	455.7
985.9087	2592.6739	1336.45	454.15
986.0343	2593.9652	1340.15	457.3
986.1597	2595.2557	1343.25	462.95
986.2852	2596.5456	1340.1	458.1
986.4106	2597.8348	1342.8	460.7
986.536	2599.1234	1345.4	462.3
986.6614	2600.4112	1344.85	462.7
986.7867	2601.6983	1348	461.55
986.912	2602.9848	1345.95	463.05
987.0372	2604.2705	1351.35	461.95
987.1624	2605.5556	1352.4	469.7
987.2876	2606.84	1346.05	463.2
987.4128	2608.1237	1341.7	459.6
987.5379	2609.4067	1342.55	459.75
987.6629	2610.689	1351.9	462.05
987.788	2611.9707	1346.4	461.75
987.913	2613.2516	1344	457.1
988.0379	2614.5319	1331.85	449.75
988.1629	2615.8115	1340.5	457.8
988.2878	2617.0903	1331.75	448.8
988.4126	2618.3685	1328	444.5
988.5375	2619.6461	1332.3	449
988.6622	2620.9229	1326.4	444.15
988.787	2622.199	1343.25	457.9
988.9117	2623.4745	1329.7	444.5
989.0364	2624.7493	1333.2	451.15
989.161	2626.0234	1331.05	450.4
989.2857	2627.2968	1337.15	454.95
989.4102	2628.5695	1336.9	453.35
989.5348	2629.8415	1329.7	450.3
989.6593	2631.1128	1329.05	444.45
989.7837	2632.3835	1332.05	450.55
989.9082	2633.6535	1329.7	448.7
990.0326	2634.9228	1339.3	457.95
990.1569	2636.1914	1337.55	456.95
990.2812	2637.4593	1336.1	455.4
990.4055	2638.7265	1336.75	453.35
990.5298	2639.9931	1333.95	451.45
990.654	2641.259	1322.25	439.85
990.7782	2642.5242	1327.25	445.35
990.9023	2643.7887	1326.45	443.1
991.0264	2645.0525	1323.25	442.9
991.1505	2646.3156	1321.65	440.05
991.2745	2647.5781	1320.55	437.9
991.3985	2648.8398	1321.95	441
991.5225	2650.1009	1331.25	439.6
991.6464	2651.3613	1314.2	431.8
991.7703	2652.6211	1316.7	435.3
991.8942	2653.8801	1317.15	433.75
992.018	2655.1385	1320.7	434.4
992.1418	2656.3961	1318.7	438.45
992.2655	2657.6531	1313.75	430.4
992.3892	2658.9094	1319.15	436.3
992.5129	2660.1651	1327.55	444.7
992.6366	2661.42	1315.9	433.5
992.7602	2662.6743	1327.7	445.45
992.8837	2663.9279	1320.5	438.85
993.0073	2665.1808	1326.65	445.1
993.1307	2666.433	1331	448.15
993.2542	2667.6846	1326.8	446.1
993.3776	2668.9354	1332.55	448.6
993.501	2670.1856	1329.25	445.85
993.6244	2671.4351	1330.65	451
993.7477	2672.6839	1346.05	462.75
993.8709	2673.9321	1339.25	459.1
993.9942	2675.1795	1349.15	466.95
994.1174	2676.4263	1348.35	465.6
994.2405	2677.6724	1344.6	465.1
994.3637	2678.9179	1352.65	469.95
994.4868	2680.1626	1351.7	470.55
994.6098	2681.4067	1356	474.55
994.7328	2682.6501	1342.5	460.2
994.8558	2683.8928	1348.1	463.4
994.9788	2685.1348	1352.2	470.95
995.1017	2686.3761	1344.75	462.35
995.2245	2687.6168	1342.05	457.85
995.3474	2688.8568	1341	459.85
995.4702	2690.0961	1335.9	454.15
995.5929	2691.3348	1333.3	450.35
995.7156	2692.5727	1328.05	443.85
995.8383	2693.81	1331.65	450.35
995.961	2695.0466	1325.85	444
996.0836	2696.2826	1334.2	452.75
996.2062	2697.5178	1336.15	450.05
996.3287	2698.7524	1334.5	452.1
996.4512	2699.9863	1330	445
996.5737	2701.2195	1324.3	443.6
996.6961	2702.452	1337.8	453.6
996.8185	2703.6839	1345.5	463.8
996.9408	2704.9151	1343.4	462.3
997.0631	2706.1456	1348.25	466.95
997.1854	2707.3755	1350.5	467.65
997.3077	2708.6046	1370.75	486
997.4299	2709.8331	1371.1	489.7
997.552	2711.0609	1379.85	495.95
997.6742	2712.2881	1387.9	507.15
997.7963	2713.5145	1401.6	516.8
997.9183	2714.7403	1412.05	532.8
998.0403	2715.9654	1415.9	532.6
998.1623	2717.1899	1442.05	543.55
998.2842	2718.4136	1437.95	557.85
998.4062	2719.6367	1458.3	576.65
998.528	2720.8591	1474.45	586.5
998.6498	2722.0809	1486.7	604.9
998.7716	2723.3019	1491.9	607.55
998.8934	2724.5223	1495.45	610.55
999.0151	2725.7421	1498.75	616.15
999.1368	2726.9611	1512.3	627.85
999.2584	2728.1795	1512.2	625.7
999.38	2729.3972	1496.15	614.55
999.5016	2730.6142	1502.55	607.5
999.6231	2731.8306	1472.45	589.25
999.7446	2733.0462	1466.15	581.2
999.8661	2734.2612	1448.6	561.5
999.9875	2735.4756	1420.25	539.65
1000.1089	2736.6892	1402	519.35
1000.2302	2737.9022	1401.1	520.5
1000.3515	2739.1145	1381.85	499.05
1000.4728	2740.3262	1378.75	488.25
1000.594	2741.5372	1351.15	468.75
1000.7152	2742.7475	1352.25	469.15
1000.8363	2743.9571	1340.55	457.5
1000.9575	2745.1661	1331.1	442.7
1001.0785	2746.3744	1322.55	439.95
1001.1996	2747.582	1314.35	430.95
1001.3206	2748.7889	1302.6	416.45
1001.4415	2749.9952	1293	411.35
1001.5625	2751.2008	1298	414.35
1001.6833	2752.4057	1290.85	406.1
1001.8042	2753.61	1294.45	410.8
1001.925	2754.8136	1287.7	404.9
1002.0458	2756.0165	1288.8	407
1002.1665	2757.2188	1279.85	399.1
1002.2872	2758.4204	1283.05	402.25
1002.4078	2759.6213	1290.8	406.1
1002.5285	2760.8215	1292.15	404.25
1002.649	2762.0211	1289.05	407.15
1002.7696	2763.22	1287.3	399.55
1002.8901	2764.4182	1282.1	399.5
1003.0106	2765.6158	1282.7	397.85
1003.131	2766.8127	1268.2	385.7
1003.2514	2768.009	1268.75	386.5
1003.3717	2769.2045	1273.15	390.95
1003.492	2770.3994	1276.65	392.5
1003.6123	2771.5936	1275.7	393.45
1003.7325	2772.7872	1266.25	382.5
1003.8527	2773.9801	1269.2	387.65
1003.9729	2775.1723	1287.25	386.5
1004.093	2776.3639	1269.8	388.8
1004.2131	2777.5548	1273.2	389.35
1004.3331	2778.745	1271	387.25
1004.4531	2779.9346	1272.25	391.8
1004.5731	2781.1235	1276.65	392.1
1004.693	2782.3117	1278.2	396.2
1004.8129	2783.4992	1283.9	401.5
1004.9328	2784.6861	1290.3	408.35
1005.0526	2785.8723	1298.5	415.25
1005.1723	2787.0579	1313.55	431.55
1005.2921	2788.2428	1318.45	434.6
1005.4118	2789.427	1324.8	446.05
1005.5314	2790.6106	1343.65	463.3
1005.651	2791.7935	1350.65	469
1005.7706	2792.9757	1356.6	475.2
1005.8902	2794.1573	1375.35	490.95
1006.0097	2795.3382	1392.65	510.8
1006.1291	2796.5184	1401.4	521.55
1006.2485	2797.698	1424.3	539.9
1006.3679	2798.8769	1439.15	557.2
1006.4873	2800.0551	1458.8	575.45
1006.6066	2801.2327	1482.75	597.9
1006.7258	2802.4096	1498.25	617.2
1006.8451	2803.5859	1522.05	637.85
1006.9642	2804.7615	1541.45	660.05
1007.0834	2805.9364	1569.75	687.65
1007.2025	2807.1106	1591.8	710.75
1007.3216	2808.2842	1625.95	742.7
1007.4406	2809.4572	1670	787.25
1007.5596	2810.6294	1697.5	816.45
1007.6785	2811.801	1740	858.75
1007.7975	2812.972	1792.15	911.6
1007.9163	2814.1423	1836.15	956.05
1008.0352	2815.3119	1886.45	1006.25
1008.154	2816.4808	1929.7	1047.55
1008.2727	2817.6491	1985.15	1102.55
1008.3914	2818.8167	2035.35	1155.45
1008.5101	2819.9837	2088.15	1202.35
1008.6288	2821.15	2131.6	1247.9
1008.7474	2822.3157	2169.2	1288.45
1008.8659	2823.4807	2214.15	1331.3
1008.9844	2824.645	2264.7	1382.3
1009.1029	2825.8086	2308.4	1428.9
1009.2214	2826.9716	2343.75	1462.15
1009.3398	2828.134	2386.5	1504.85
1009.4581	2829.2957	2423.5	1541.35
1009.5764	2830.4567	2463.2	1579.85
1009.6947	2831.617	2471.3	1587.6
1009.813	2832.7767	2471.55	1590.85
1009.9312	2833.9358	2486.3	1605.35
1010.0493	2835.0941	2484.05	1601.95
1010.1675	2836.2519	2474.15	1592.95
1010.2855	2837.4089	2460.4	1577.25
1010.4036	2838.5653	2449.4	1567.95
1010.5216	2839.7211	2451.6	1569.65
1010.6396	2840.8761	2453.3	1569.45
1010.7575	2842.0306	2476.6	1595.15
1010.8754	2843.1843	2514.7	1632.55
1010.9932	2844.3374	2565.95	1684
1011.111	2845.4899	2615.95	1731.65
1011.2288	2846.6417	2706.25	1824.05
1011.3465	2847.7928	2783.05	1899.75
1011.4642	2848.9433	2861.6	1979
1011.5818	2850.0931	2953.05	2071.65
1011.6995	2851.2422	3025.45	2143.15
1011.817	2852.3907	3101	2219.8
1011.9345	2853.5385	3165	2282.15
1012.052	2854.6857	3258.25	2349.6
1012.1695	2855.8323	3287.4	2405.75
1012.2869	2856.9781	3332.15	2449.25
1012.4042	2858.1233	3384.2	2502.85
1012.5216	2859.2679	3437.9	2556.8
1012.6389	2860.4118	3480.45	2598.05
1012.7561	2861.555	3528.05	2641.65
1012.8733	2862.6976	3561.2	2676.5
1012.9905	2863.8395	3595.55	2714.5
1013.1076	2864.9808	3631.05	2747.55
1013.2247	2866.1214	3633.45	2754.9
1013.3417	2867.2614	3666.1	2783.8
1013.4587	2868.4007	3672.55	2787.3
1013.5757	2869.5393	3696.25	2813.65
1013.6926	2870.6773	3726.5	2842.4
1013.8095	2871.8146	3712.45	2828.6
1013.9263	2872.9513	3723.25	2838.65
1014.0431	2874.0874	3711.85	2829.25
1014.1599	2875.2227	3711.3	2828.4
1014.2766	2876.3574	3693.1	2809.7
1014.3933	2877.4915	3669.2	2785.8
1014.51	2878.6249	3636.05	2756.5
1014.6266	2879.7577	3617.75	2736.3
1014.7431	2880.8898	3597.5	2707.2
1014.8596	2882.0212	3575.95	2696.05
1014.9761	2883.152	3567.5	2685.85
1015.0925	2884.2821	3559.6	2678.5
1015.2089	2885.4116	3559.55	2677.8
1015.3253	2886.5405	3544.7	2662.05
1015.4416	2887.6686	3552.2	2667.55
1015.5579	2888.7962	3555.85	2674.4
1015.6741	2889.923	3557.95	2678.75
1015.7903	2891.0493	3593.3	2711.7
1015.9065	2892.1748	3603.2	2722.35
1016.0226	2893.2997	3601.4	2718.4
1016.1387	2894.424	3623.1	2741.45
1016.2547	2895.5476	3634.95	2754.15
1016.3707	2896.6706	3659.4	2779.95
1016.4866	2897.7929	3703.95	2820.95
1016.6025	2898.9145	3722.05	2839.7
1016.7184	2900.0355	3762.9	2880.15
1016.8342	2901.1559	3791.55	2909.15
1016.95	2902.2756	3824	2941.7
1017.0658	2903.3946	3858.35	2977.2
1017.1815	2904.513	3902.55	3017.45
1017.2971	2905.6308	3920.9	3038.5
1017.4127	2906.7479	3951.4	3068.7
1017.5283	2907.8643	3994.55	3110.4
1017.6439	2908.9801	3992.15	3109.95
1017.7594	2910.0953	4005.35	3125.35
1017.8748	2911.2098	3990.7	3106.25
1017.9902	2912.3236	3996.8	3108.2
1018.1056	2913.4368	3984.4	3099.3
1018.2209	2914.5494	3968.05	3085.7
1018.3362	2915.6613	3940.9	3054.7
1018.4515	2916.7725	3918.35	3033.85
1018.5667	2917.8831	3888.7	3005.3
1018.6819	2918.9931	3857.95	2973.15
1018.797	2920.1024	3828.45	2945.4
1018.9121	2921.211	3808.6	2926.2
1019.0271	2922.319	3792.9	2910.9
1019.1421	2923.4264	3764.2	2883.15
1019.2571	2924.5331	3745.45	2864.4
1019.372	2925.6391	3738.7	2855.2
1019.4869	2926.7445	3731.5	2849.7
1019.6017	2927.8493	3720.75	2838.05
1019.7165	2928.9534	3712.15	2829.95
1019.8313	2930.0569	3704.2	2819.4
1019.946	2931.1597	3705	2820.3
1020.0606	2932.2619	3687.85	2806.3
1020.1753	2933.3634	3679.55	2797.45
1020.2899	2934.4643	3678.05	2789.3
1020.4044	2935.5645	3651.2	2764.55
1020.5189	2936.6641	3609.5	2724.5
1020.6334	2937.763	3559.9	2681.7
1020.7478	2938.8613	3525.75	2644.75
1020.8622	2939.959	3450.85	2565.35
1020.9765	2941.056	3370.25	2489.4
1021.0908	2942.1523	3286.6	2402.1
1021.2051	2943.248	3204.7	2322.65
1021.3193	2944.3431	3100.9	2220.8
1021.4334	2945.4375	3011.35	2128.7
1021.5476	2946.5313	2906.7	2026.05
1021.6617	2947.6244	2793.5	1910.9
1021.7757	2948.7169	2684.05	1801.2
1021.8897	2949.8087	2597.45	1715.4
1022.0037	2950.8999	2493.35	1611.55
1022.1176	2951.9904	2406.6	1525.2
1022.2315	2953.0803	2338.7	1454.7
1022.3453	2954.1696	2280.95	1398.85
1022.4591	2955.2582	2216.3	1334.35
1022.5728	2956.3462	2169	1286.3
1022.6865	2957.4335	2129.25	1248
1022.8002	2958.5202	2096.5	1213.2
1022.9138	2959.6062	2071.75	1193.75
1023.0274	2960.6916	2051.55	1168.9
1023.141	2961.7764	2021.6	1138.35
1023.2545	2962.8605	2016.6	1135
1023.3679	2963.9439	2003.3	1121.9
1023.4813	2965.0267	1983.7	1100.65
1023.5947	2966.1089	1996.8	1090.4
1023.708	2967.1905	1967.3	1085.15
1023.8213	2968.2714	1967.85	1086.5
1023.9346	2969.3516	1963.7	1082.2
1024.0478	2970.4312	1983.65	1094.6
1024.1609	2971.5102	1980.7	1099.4
1024.274	2972.5885	1975	1091.75
1024.3871	2973.6662	1981.75	1095.25
1024.5002	2974.7432	1970.4	1090.45
1024.6132	2975.8196	1964.25	1083.9
1024.7261	2976.8954	1950.7	1070.2
1024.839	2977.9705	1947.8	1066.9
1024.9519	2979.045	1927.3	1045.45
1025.0647	2980.1188	1912.65	1033.3
1025.1775	2981.192	1894.85	1015.85
1025.2902	2982.2645	1879.3	997.5
1025.4029	2983.3364	1844.9	962.4
1025.5156	2984.4077	1823.35	940.35
1025.6282	2985.4783	1788.1	900.85
1025.7407	2986.5483	1757.85	878.25
1025.8532	2987.6177	1721.9	840.6
1025.9657	2988.6864	1678.3	795.1
1026.0782	2989.7545	1650.45	768.55
1026.1906	2990.8219	1615.25	734.3
1026.3029	2991.8887	1589.4	705.2
1026.4152	2992.9548	1554	671.7
1026.5275	2994.0204	1519.85	638.25
1026.6397	2995.0852	1489.8	608.3
1026.7519	2996.1495	1471.75	588
1026.864	2997.2131	1442	560
1026.9761	2998.276	1423.05	542.65
1027.0882	2999.3383	1407.8	524.75
1027.2002	3000.4	1385.05	502.35
1027.3122	3001.4611	1369.9	487.4
1027.4241	3002.5215	1361.45	479.8
1027.536	3003.5812	1348.45	466.75
1027.6478	3004.6404	1328.75	445.6
1027.7596	3005.6989	1327.9	447.4
1027.8714	3006.7567	1316.85	435.7
1027.9831	3007.8139	1332.1	431.4
1028.0947	3008.8705	1301.65	419.95
1028.2064	3009.9264	1301.85	416.2
1028.3179	3010.9818	1292	408.75
1028.4295	3012.0364	1300.85	418.45
1028.541	3013.0905	1290.35	409.4
1028.6524	3014.1439	1287.1	405.35
1028.7638	3015.1966	1287.05	406.4
1028.8752	3016.2487	1287.1	405.15
1028.9865	3017.3002	1290.45	406.45
1029.0978	3018.3511	1287.25	406.85
1029.209	3019.4013	1287.6	406.2
1029.3202	3020.4509	1288.65	405.25
1029.4314	3021.4998	1288.65	407.65
1029.5425	3022.5481	1290.8	409
1029.6535	3023.5958	1288	407.8
1029.7645	3024.6428	1295.55	412.9
1029.8755	3025.6892	1298.45	418.25
1029.9864	3026.735	1292.4	410.15
1030.0973	3027.7802	1299.95	418.3
1030.2082	3028.8247	1297.3	416.4
1030.319	3029.8685	1302.55	420.4
1030.4297	3030.9118	1313.7	429.6
1030.5404	3031.9544	1315.7	435.15
1030.6511	3032.9963	1317.15	435.4
1030.7617	3034.0376	1329.5	451.2
1030.8723	3035.0783	1329.3	447.05
1030.9829	3036.1184	1336.15	454.2
1031.0934	3037.1578	1341.95	461.8
1031.2038	3038.1966	1342.55	460
1031.3142	3039.2348	1345.3	464.85
1031.4246	3040.2723	1347.35	456.8
1031.5349	3041.3092	1342	462.8
1031.6452	3042.3455	1342.4	461.05
1031.7554	3043.3811	1335.95	455.35
1031.8656	3044.4161	1329.7	449
1031.9758	3045.4505	1332.15	452.05
1032.0859	3046.4842	1321.45	438.8
1032.1959	3047.5173	1309	426.45
1032.3059	3048.5498	1306.9	426.75
1032.4159	3049.5816	1305.25	422.3
1032.5258	3050.6128	1298.25	414.8
1032.6357	3051.6434	1292.15	410.15
1032.7455	3052.6734	1282.45	400.3
1032.8553	3053.7027	1274.3	392.3
1032.9651	3054.7314	1263.2	383.1
1033.0748	3055.7594	1263.35	381.3
1033.1845	3056.7868	1254.4	373.35
1033.2941	3057.8136	1256.5	375.35
1033.4037	3058.8398	1250.8	370.25
1033.5132	3059.8653	1239.45	358
1033.6227	3060.8902	1233.4	352.75
1033.7321	3061.9145	1231.7	349.35
1033.8415	3062.9381	1228	347.1
1033.9509	3063.9612	1236.95	340.5
1034.0602	3064.9835	1220.1	339.25
1034.1694	3066.0053	1209.85	325.55
1034.2787	3067.0264	1197.75	315
1034.3878	3068.0469	1189.85	305.05
1034.497	3069.0668	1189.5	306.15
1034.6061	3070.086	1183.7	302.7
1034.7151	3071.1046	1170.4	285.45
1034.8241	3072.1226	1162.5	279.95
1034.9331	3073.1399	1153.8	272.05
1035.042	3074.1567	1140.35	259.5
1035.1508	3075.1727	1139.7	253.75
1035.2597	3076.1882	1119.5	235.85
1035.3684	3077.203	1118.05	236.8
1035.4772	3078.2173	1109.9	226.8
1035.5859	3079.2308	1103.5	217.65
1035.6945	3080.2438	1092.9	207.15
1035.8031	3081.2561	1084.7	203.35
1035.9117	3082.2678	1079.7	199.6
1036.0202	3083.2789	1068.8	185.85
1036.1286	3084.2893	1064.15	184.1
1036.2371	3085.2991	1061	178.9
1036.3454	3086.3083	1058.55	174.25
1036.4538	3087.3169	1053.8	171.1
1036.562	3088.3248	1045.8	163.75
1036.6703	3089.3321	1042.3	158.6
1036.7785	3090.3388	1034.6	153.65
1036.8866	3091.3449	1031.25	149.9
1036.9948	3092.3503	1030.75	145.9
1037.1028	3093.3551	1022.7	143.6
1037.2108	3094.3593	1021.5	140.5
1037.3188	3095.3629	1019.85	139.7
1037.4267	3096.3658	1017.5	136.85
1037.5346	3097.3681	1013.7	133.15
1037.6425	3098.3698	1013.1	128.15
1037.7503	3099.3708	1015.35	127.35
1037.858	3100.3713	1011.15	131.55
1037.9657	3101.3711	1003.8	121.35
1038.0734	3102.3702	1142.5	120.55
1038.181	3103.3688	1003.85	118.2
1038.2886	3104.3667	998.95	119.35
1038.3961	3105.364	1000.1	117.5
1038.5036	3106.3607	1001.2	117.45
1038.611	3107.3568	998.9	115.05
1038.7184	3108.3522	992.5	112.15
1038.8257	3109.347	995.05	114.05
1038.933	3110.3412	996.65	111.8
1039.0403	3111.3348	990.95	109.65
1039.1475	3112.3277	989.1	107.7
1039.2547	3113.32	989.05	105.8
1039.3618	3114.3117	989.95	109
1039.4689	3115.3028	986.8	107.85
1039.5759	3116.2932	986.75	104.2
1039.6829	3117.2831	987.85	98.6
1039.7898	3118.2723	984	103.15
1039.8967	3119.2608	979	98.05
1040.0035	3120.2488	982.65	99.8
1040.1103	3121.2361	980.8	99.8
1040.2171	3122.2229	979.8	99.2
1040.3238	3123.209	978.95	96.45
1040.4305	3124.1944	979.4	100.8
1040.5371	3125.1793	974.45	91
1040.6437	3126.1635	974.55	90.85
1040.7502	3127.1471	971.7	91.35
1040.8567	3128.1301	971.75	90.5
1040.9631	3129.1125	970.2	89.95
1041.0695	3130.0942	974	93.35
1041.1759	3131.0753	981.45	92.55
1041.2822	3132.0558	970.8	88.65
1041.3884	3133.0357	969.15	86.1
1041.4946	3134.015	970.05	88.15
1041.6008	3134.9936	966.15	81.85
1041.7069	3135.9716	988.55	84.85
1041.813	3136.949	966.4	84.8
1041.919	3137.9258	983.25	84.15
1042.025	3138.902	972.1	85.5
1042.1309	3139.8775	961.85	82.35
1042.2368	3140.8524	961.3	81.4
1042.3427	3141.8267	961.4	78.4
1042.4485	3142.8004	960.75	78.5
1042.5542	3143.7735	965.25	78.05
1042.6599	3144.7459	961.65	79.85
1042.7656	3145.7178	960.15	77.6
1042.8712	3146.689	957.4	78.2
1042.9768	3147.6596	955.9	73.7
1043.0823	3148.6295	955.35	73.55
1043.1878	3149.5989	957.05	77.7
1043.2932	3150.5676	952.75	72.55
1043.3986	3151.5357	954	74.7
1043.5039	3152.5032	952.5	72.1
1043.6092	3153.4701	953.4	74.45
1043.7145	3154.4364	954	70.25
1043.8197	3155.402	950.05	70.65
1043.9248	3156.367	950.45	67.45
1044.03	3157.3315	997.45	73.3
1044.135	3158.2952	947.95	66.05
1044.24	3159.2584	945	63.7
1044.345	3160.221	946	64.55
1044.4499	3161.1829	947.6	64.45
1044.5548	3162.1442	944.35	62.65
1044.6596	3163.105	944.75	62.3
1044.7644	3164.065	945.35	65.85
1044.8692	3165.0245	949.05	65.4
1044.9739	3165.9834	942	64.1
1045.0785	3166.9416	944.85	65.2
1045.1831	3167.8993	942.6	59.4
1045.2877	3168.8563	946.45	65.4
1045.3922	3169.8127	940.85	60.6
1045.4966	3170.7684	940.4	58.3
1045.6011	3171.7236	940.55	60.3
1045.7054	3172.6782	936.35	55.95
1045.8098	3173.6321	941.1	57.75
1045.914	3174.5854	944.25	60.05
1046.0183	3175.5381	941.25	61.2
1046.1224	3176.4902	938.55	59.8
1046.2266	3177.4417	938.05	57.1
1046.3307	3178.3926	934.5	54.3
1046.4347	3179.3428	936.5	56.6
1046.5387	3180.2924	937.65	59
1046.6427	3181.2415	938.6	56.9
1046.7466	3182.1899	936.95	55.35
1046.8504	3183.1377	936.3	56.95
1046.9542	3184.0848	939.5	55
1047.058	3185.0314	935.65	53.95
1047.1617	3185.9773	935.8	54.9
1047.2654	3186.9227	934.15	51.5
1047.369	3187.8674	932.05	52.15
1047.4726	3188.8115	936.6	50.3
1047.5761	3189.755	933.9	52.65
1047.6796	3190.6979	930.25	51.4
1047.783	3191.6402	930.8	48.5
1047.8864	3192.5818	930.7	49.2
1047.9898	3193.5229	953.65	50.55
1048.0931	3194.4633	931.7	51.15
1048.1963	3195.4031	933	52.8
1048.2995	3196.3423	936.3	54.6
1048.4027	3197.2809	929.2	46.85
1048.5058	3198.2189	933.6	53.85
1048.6089	3199.1563	949.3	52.55
1048.7119	3200.0931	929.3	48.7
1048.8148	3201.0292	930	49.4
1048.9178	3201.9648	929.7	47.1
1049.0206	3202.8997	932.7	48.95
1049.1235	3203.834	927.75	46.9
1049.2262	3204.7677	926.8	45.2
1049.329	3205.7008	928.65	45
1049.4317	3206.6333	924.8	45.2
1049.5343	3207.5652	929.15	47.25
1049.6369	3208.4964	929.3	48.05
1049.7394	3209.4271	926.1	47.25
1049.8419	3210.3571	927.7	47.25
1049.9444	3211.2865	925.9	44.65
1050.0468	3212.2154	928.05	46.65
1050.1491	3213.1436	928.75	42.25
1050.2514	3214.0712	930.9	43.85
1050.3537	3214.9982	926.6	46.6
1050.4559	3215.9246	926.5	44.9
1050.5581	3216.8503	922.1	43.1
1050.6602	3217.7755	923.65	42.75
1050.7623	3218.7001	923.15	42.6
1050.8643	3219.624	926.35	45.5
1050.9663	3220.5473	923.25	41.9
1051.0682	3221.4701	925.55	42.8
1051.1701	3222.3922	926.9	43.65
1051.2719	3223.3137	923.05	44
1051.3737	3224.2346	926.45	45
1051.4754	3225.1549	920.75	38.85
1051.5771	3226.0746	922.85	43.75
1051.6788	3226.9937	922.65	41.85
1051.7804	3227.9121	923.4	43.9
1051.8819	3228.83	925.6	46
1051.9834	3229.7473	923.8	41.95
1052.0849	3230.6639	921	40.85
1052.1863	3231.5799	922.4	42.9
1052.2876	3232.4954	924.6	43.6
1052.3889	3233.4102	922.65	42.65
1052.4902	3234.3244	921.3	42.2
1052.5914	3235.238	923.8	44.4
1052.6926	3236.151	942.45	35.8
1052.7937	3237.0634	918.95	38.4
1052.8948	3237.9752	918.9	38.55
1052.9958	3238.8864	922.55	40.25
1053.0968	3239.797	918.65	39.65
1053.1977	3240.7069	920.8	39
1053.2986	3241.6163	922.75	41.9
1053.3994	3242.5251	917.75	38.65
1053.5002	3243.4332	918.2	37.7
1053.6009	3244.3408	919.95	39.6
1053.7016	3245.2477	917.5	37.35
1053.8022	3246.154	916.6	35.1
1053.9028	3247.0598	918.8	37.95
1054.0034	3247.9649	915.35	33.7
1054.1039	3248.8694	916.7	38.25
1054.2043	3249.7733	914.3	34.6
1054.3047	3250.6766	917.45	35
1054.4051	3251.5793	917.05	36.35
1054.5054	3252.4814	914.6	34.55
1054.6056	3253.3829	914.3	33.7
1054.7058	3254.2838	914.4	35.1
1054.806	3255.1841	914.15	34.7
1054.9061	3256.0838	915.25	34.9
1055.0061	3256.9829	912.65	33.85
1055.1062	3257.8814	914	31.15
1055.2061	3258.7792	915.8	33.1
1055.306	3259.6765	913.95	34.1
1055.4059	3260.5731	910.8	29.3
1055.5057	3261.4692	915.4	34.7
1055.6055	3262.3647	911.2	28.1
1055.7052	3263.2595	910.65	28.7
1055.8049	3264.1538	909.65	27.55
1055.9045	3265.0474	908.8	27.95
1056.0041	3265.9404	907.45	28.4
1056.1036	3266.8329	906.25	25.65
1056.2031	3267.7247	916.8	25.7
1056.3025	3268.616	903.6	26.15
1056.4019	3269.5066	906	24.95
1056.5013	3270.3966	906.05	23.9
1056.6005	3271.286	904	23.4
