Software Version:	3.9.2.0
Unit SN:	10000200
Spectrometer SN:	6960
Date:	3/14/2024 1:30:49 PM
Data Line Index:	25
Spectral Points:	2048
Integration time (ms):	125
Averages:	20
Delay (ms):	30000
Sequence Number:	1
Processing:	dark subtract
Laser Power (mW):	300
Laser Current (mA):	824
Laser Diode Temp (C):	25
Laser Case Temp (C):	28.5
System Temp (C):	28.5
Spectrometer Temp (C):	26.4
CCD Temp (C):	0.005
Secondary Temp (C):	20.013
Heatsink Temp (C):	24.437
CCDPCB Temp (C):	37.852
SecondaryPCB Temp (C):	35.384

Wavelength	RamanShift	Raw Counts	Dark Subtracted
787.061	30.1047	469.85	59.75
787.2016	32.3739	471.25	62.2
787.3422	34.6426	474.95	66
787.4828	36.9109	483.45	72.65
787.6235	39.1787	496.1	81.4
787.7642	41.4461	505.5	86.05
787.9049	43.7131	514	89.9
788.0456	45.9796	522.3	95.5
788.1863	48.2456	536.5	104.75
788.3271	50.5112	546.25	111.5
788.4679	52.7764	554.95	118.05
788.6087	55.0411	569.1	128.9
788.7496	57.3054	576	129
788.8904	59.5692	588.7	139.7
789.0313	61.8326	604.4	151.6
789.1722	64.0955	620.4	163.25
789.3132	66.3579	639.25	176.85
789.4541	68.6199	659.75	195.35
789.5951	70.8815	698.5	230.55
789.7361	73.1426	786.35	313.55
789.8771	75.4032	1018.8	541.55
790.0181	77.6634	1580.2	1097.35
790.1592	79.9231	2936.2	2446.4
790.3003	82.1824	5910.15	5410.7
790.4414	84.4412	11338.55	10819.1
790.5825	86.6995	18932.95	18388.1
790.7237	88.9574	26450.35	25880.4
790.8648	91.2148	31636.8	31052.4
791.006	93.4717	34050.25	33452.25
791.1472	95.7282	34531.1	33930.95
791.2885	97.9842	34421.5	33817.65
791.4297	100.2398	33697.2	33086.2
791.571	102.4949	32945.55	32334.25
791.7123	104.7495	32016.95	31403.45
791.8536	107.0036	31120.4	30504.9
791.9949	109.2573	30280.75	29666.8
792.1363	111.5105	29541.95	28924.2
792.2777	113.7632	28860.95	28241.2
792.4191	116.0154	28304.85	27673.7
792.5605	118.2672	27923.1	27302.3
792.7019	120.5185	27476.4	26856.85
792.8434	122.7693	27219.5	26595.95
792.9849	125.0197	26994.3	26363.2
793.1264	127.2696	26701.55	26069.5
793.2679	129.519	26556.8	25923.6
793.4094	131.7679	26237.15	25601.2
793.551	134.0163	26004.05	25363.15
793.6926	136.2642	25670.3	25029.55
793.8342	138.5117	25339.8	24686.4
793.9758	140.7587	24950.55	24303.25
794.1175	143.0052	24623.65	23973.6
794.2591	145.2512	24280.85	23630.9
794.4008	147.4967	23990.6	23338
794.5425	149.7417	23764.4	23108
794.6842	151.9863	23556.2	22898.25
794.826	154.2304	23447.3	22787.75
794.9677	156.4739	23261.9	22597.2
795.1095	158.717	23197.1	22533.3
795.2513	160.9596	23006.45	22339.1
795.3931	163.2017	22750.4	22081.8
795.535	165.4433	22434.9	21762.6
795.6768	167.6844	22080.2	21406.9
795.8187	169.925	21779.75	21106.75
795.9606	172.1651	21391.8	20712.45
796.1025	174.4047	21132.55	20446.85
796.2445	176.6439	20859.65	20174.25
796.3864	178.8825	20618.8	19926.1
796.5284	181.1206	20482.25	19791.85
796.6704	183.3582	20310.6	19615.75
796.8124	185.5954	20231.7	19536.55
796.9544	187.832	20140.85	19438.45
797.0965	190.0681	20066.8	19365.7
797.2386	192.3037	20076.55	19371.15
797.3806	194.5388	20055.6	19349.9
797.5228	196.7734	20130.5	19417.25
797.6649	199.0075	20188.4	19476.15
797.807	201.2411	20295.85	19575.8
797.9492	203.4742	20390.4	19671.05
798.0914	205.7068	20523.5	19807.35
798.2336	207.9389	20660.15	19943.15
798.3758	210.1704	20786.3	20067.5
798.518	212.4015	20872.35	20148.4
798.6603	214.632	21024.1	20299.8
798.8025	216.862	21208.3	20491.85
798.9448	219.0915	21248.75	20537.75
799.0871	221.3205	21365.55	20657.6
799.2294	223.549	21509.05	20804.85
799.3718	225.777	21609.75	20905.4
799.5141	228.0044	21691.25	20984.6
799.6565	230.2314	21930.1	21227.25
799.7989	232.4578	22076.65	21371.7
799.9413	234.6837	22242.95	21532.5
800.0837	236.909	22355.65	21641.9
800.2262	239.1339	22341	21605.55
800.3687	241.3582	22259.75	21539.55
800.5111	243.582	22116.75	21370.4
800.6536	245.8053	21980.95	21242.8
800.7961	248.0281	21904.25	21171.85
800.9387	250.2503	21837	21100.8
801.0812	252.472	21886.35	21144.5
801.2238	254.6932	21971.4	21224.05
801.3664	256.9139	22021.05	21269.75
801.509	259.134	22216.9	21465.9
801.6516	261.3536	22412.8	21664.8
801.7942	263.5727	22690.05	21938.2
801.9369	265.7912	22876.9	22128.2
802.0795	268.0092	23169.8	22420.2
802.2222	270.2267	23323.6	22571.1
802.3649	272.4436	23436.85	22683
802.5076	274.6601	23415.25	22651.2
802.6504	276.8759	23302.4	22546.3
802.7931	279.0913	23249.95	22495.25
802.9359	281.3061	23074.1	22317.5
803.0787	283.5204	23060.35	22300.5
803.2215	285.7341	23017.35	22251.1
803.3643	287.9473	23049.7	22276.2
803.5071	290.16	23131.4	22359.3
803.6499	292.3721	23229.3	22464.75
803.7928	294.5837	23489.25	22723.4
803.9357	296.7947	23698	22931.45
804.0786	299.0052	23883.75	23120
804.2215	301.2152	23792.65	23022.15
804.3644	303.4246	23646.05	22878.8
804.5074	305.6334	23225	22460.15
804.6503	307.8418	22788.8	22016.95
804.7933	310.0495	22327.55	21557.5
804.9363	312.2568	21906.85	21135.6
805.0793	314.4635	21494.6	20722.8
805.2223	316.6696	21199.25	20426.45
805.3653	318.8752	20946.95	20166.15
805.5084	321.0802	20851.85	20078.15
805.6514	323.2847	20877.45	20103.4
805.7945	325.4887	20876.95	20101.45
805.9376	327.692	20869.4	20093.3
806.0807	329.8949	20857	20079.45
806.2238	332.0972	20610.95	19832.45
806.367	334.2989	20405.75	19627.75
806.5101	336.5001	20109.65	19331.15
806.6533	338.7007	19861.35	19082.2
806.7965	340.9008	19750.7	18965.95
806.9397	343.1003	19560.45	18775.75
807.0829	345.2992	19437.7	18650.7
807.2261	347.4976	19356.15	18565.35
807.3693	349.6955	19266.45	18476.45
807.5126	351.8927	19237.05	18444.75
807.6559	354.0895	19135.25	18331.95
807.7991	356.2856	19130	18335.4
807.9424	358.4812	19051.45	18258
808.0857	360.6763	19040.55	18243.65
808.2291	362.8707	19011.8	18215.05
808.3724	365.0646	19045.95	18248.65
808.5158	367.258	19020.75	18222.7
808.6591	369.4508	19100.1	18297.65
808.8025	371.643	19239.45	18434.8
808.9459	373.8346	19264.5	18461.05
809.0893	376.0257	19356.25	18546.8
809.2327	378.2162	19302.65	18495.85
809.3762	380.4062	19325.3	18515.7
809.5196	382.5956	19190.55	18381.95
809.6631	384.7844	19045.7	18236.4
809.8066	386.9726	18877.1	18065.6
809.9501	389.1603	18798.2	17985.5
810.0936	391.3474	18726.85	17882.05
810.2371	393.5339	18681.65	17867.8
810.3806	395.7199	18554.65	17746.55
810.5241	397.9052	18620.9	17815.9
810.6677	400.09	18645.85	17844.95
810.8113	402.2743	18767.3	17969.05
810.9548	404.4579	18915.55	18115.15
811.0984	406.641	19107	18307.05
811.2421	408.8235	19268.9	18465.6
811.3857	411.0054	19472.45	18671.1
811.5293	413.1868	19639.95	18837.45
811.673	415.3675	19729	18921.6
811.8166	417.5477	19768.1	18960.3
811.9603	419.7273	19737.55	18926.85
812.104	421.9064	19622.5	18809.25
812.2477	424.0848	19536.3	18722.8
812.3914	426.2627	19373.4	18561.05
812.5351	428.4399	19113.75	18297.65
812.6788	430.6166	18750.25	17925.45
812.8226	432.7928	18356.15	17534
812.9663	434.9683	18055.9	17233.3
813.1101	437.1432	17768.55	16943.2
813.2539	439.3176	17584.4	16760.4
813.3977	441.4914	17436.4	16613.55
813.5415	443.6645	17403.65	16575.65
813.6853	445.8371	17340.55	16513.2
813.8291	448.0091	17243.25	16413.7
813.973	450.1806	17203.25	16377
814.1168	452.3514	17168.85	16339.95
814.2607	454.5216	17200.35	16363.65
814.4046	456.6913	17122.15	16296.65
814.5485	458.8603	17173.9	16345.8
814.6924	461.0288	17197.9	16369.15
814.8363	463.1967	17181.9	16350.55
814.9802	465.3639	17213.25	16380.45
815.1241	467.5306	17192.95	16361.4
815.2681	469.6967	17155.15	16323.95
815.412	471.8622	17162.95	16333.15
815.556	474.0271	17248.35	16416.75
815.7	476.1914	17277.85	16443.85
815.844	478.3551	17269.55	16439.45
815.988	480.5182	17295	16461.2
816.132	482.6807	17374.9	16541
816.276	484.8426	17521.35	16686.9
816.4201	487.0039	17850.7	17016.7
816.5641	489.1647	18229.8	17394.6
816.7082	491.3248	18597.45	17764.15
816.8522	493.4843	18703.5	17869.05
816.9963	495.6432	18642.2	17809.4
817.1404	497.8015	18483.5	17644.3
817.2845	499.9592	18374.55	17541.95
817.4286	502.1163	18188.95	17352.7
817.5727	504.2728	17859.4	17018.75
817.7168	506.4287	17572.2	16736.35
817.861	508.5839	17212.7	16374.9
818.0051	510.7386	16971.4	16133.75
818.1493	512.8927	16857.9	16013.25
818.2935	515.0461	16813.5	15972.45
818.4377	517.199	16851.85	16008.95
818.5818	519.3512	17003.75	16164.3
818.726	521.5029	17235.9	16393
818.8703	523.6539	17465.3	16626.35
819.0145	525.8043	17558.35	16716.3
819.1587	527.9541	17493.2	16649.35
819.303	530.1033	17307.05	16464.2
819.4472	532.2519	17138.85	16298.5
819.5915	534.3999	17076.6	16232.65
819.7357	536.5472	17159.65	16314.05
819.88	538.694	17358.85	16514.5
820.0243	540.8401	17663.75	16820.6
820.1686	542.9856	17927.8	17079.4
820.3129	545.1305	17980.2	17133.2
820.4572	547.2748	17876.1	17027.5
820.6016	549.4185	17654.9	16806.2
820.7459	551.5615	17432.95	16585.85
820.8902	553.704	17369.35	16522.85
821.0346	555.8458	17411.85	16564.9
821.1789	557.987	17586.3	16736.25
821.3233	560.1276	17795.45	16946.55
821.4677	562.2675	18128.6	17281.15
821.6121	564.4069	18545.6	17698.05
821.7565	566.5456	18976.1	18128.35
821.9009	568.6837	19135.3	18287.45
822.0453	570.8212	18733.2	17886.2
822.1897	572.958	18083.5	17235.15
822.3342	575.0942	17427.6	16579.1
822.4786	577.2299	16965.95	16116.65
822.6231	579.3648	16727.75	15876.8
822.7675	581.4992	16672.65	15824.35
822.912	583.6329	16745.75	15897.65
823.0565	585.766	16899.2	16049.95
823.201	587.8985	17014.2	16166.25
823.3454	590.0304	17074.1	16202.25
823.4899	592.1616	16987.8	16137.25
823.6345	594.2922	16845.45	15995.1
823.779	596.4222	16641.8	15791.05
823.9235	598.5515	16402.35	15550.15
824.068	600.6802	16234.05	15382.25
824.2126	602.8083	16040.15	15188.15
824.3571	604.9358	16032.65	15175.7
824.5017	607.0626	16001.85	15152.1
824.6462	609.1888	16082.9	15227.7
824.7908	611.3144	16186.7	15330.55
824.9354	613.4393	16259.4	15406.8
825.08	615.5636	16329.9	15475.4
825.2246	617.6873	16347.2	15493.2
825.3692	619.8103	16306.25	15452
825.5138	621.9327	16121.45	15262.85
825.6584	624.0544	15906.8	15051.6
825.803	626.1756	15707.7	14851
825.9477	628.2961	15559.75	14703.85
826.0923	630.4159	15430.65	14571.4
826.237	632.5351	15407	14549.75
826.3816	634.6537	15353.15	14495.55
826.5263	636.7716	15363.25	14505.3
826.6709	638.8889	15389.4	14530.95
826.8156	641.0056	15393.95	14539.3
826.9603	643.1216	15380.95	14522.2
827.105	645.237	15330.15	14469.65
827.2497	647.3518	15207.4	14348.75
827.3944	649.4659	15149.9	14290.9
827.5391	651.5793	15057.45	14194.75
827.6838	653.6922	15021.7	14165.35
827.8285	655.8043	15013.45	14153.25
827.9733	657.9159	14973.85	14112.75
828.118	660.0268	14940	14078.25
828.2627	662.137	14905.55	14044.9
828.4075	664.2466	14935.05	14071.45
828.5522	666.3556	14885.6	14023.55
828.697	668.4639	14858.35	13995.3
828.8418	670.5716	14808.75	13948.6
828.9865	672.6786	14788.2	13924
829.1313	674.785	14734.9	13871
829.2761	676.8907	14680.5	13820.25
829.4209	678.9958	14696.15	13833.95
829.5657	681.1002	14618.5	13756.45
829.7105	683.204	14604	13736.7
829.8553	685.3072	14572.7	13709.15
830.0001	687.4097	14518.25	13658.05
830.1449	689.5115	14538.25	13673.4
830.2898	691.6127	14515.7	13651.75
830.4346	693.7132	14482.55	13617.95
830.5794	695.8131	14496.6	13615.8
830.7243	697.9123	14484.9	13617.95
830.8691	700.0109	14478.55	13611.2
831.014	702.1089	14478.1	13613.25
831.1588	704.2061	14501.65	13633.85
831.3037	706.3028	14551.7	13681.95
831.4486	708.3987	14589	13725.9
831.5935	710.4941	14596.55	13732
831.7383	712.5887	14630.7	13762.9
831.8832	714.6827	14742.35	13872.4
832.0281	716.7761	14881.75	14018.05
832.173	718.8688	15075.35	14208.4
832.3179	720.9608	15222.3	14352
832.4628	723.0522	15356.5	14485.6
832.6077	725.1429	15386.05	14516.25
832.7527	727.233	15385.6	14517.15
832.8976	729.3224	15443.6	14572.85
833.0425	731.4112	15313.8	14442.35
833.1874	733.4993	15118.45	14247.35
833.3324	735.5867	14876.7	14006.6
833.4773	737.6735	14657.85	13789.35
833.6222	739.7596	14460.55	13590.75
833.7672	741.845	14310.85	13442.85
833.9122	743.9298	14212.4	13339.1
834.0571	746.014	14133.65	13264.6
834.2021	748.0974	14104.55	13232.6
834.347	750.1802	14115	13243.4
834.492	752.2624	14109.95	13241.95
834.637	754.3439	14153.9	13280.4
834.782	756.4247	14224.65	13344
834.9269	758.5048	14390.45	13523.9
835.0719	760.5843	14619.5	13747.4
835.2169	762.6631	15011.6	14141.35
835.3619	764.7413	15559.7	14687.9
835.5069	766.8188	16267.45	15395
835.6519	768.8956	16839.65	15966.7
835.7969	770.9718	17270.1	16397.95
835.9419	773.0473	17236.4	16364.05
836.0869	775.1221	16958.3	16085.75
836.232	777.1962	16674.45	15803.5
836.377	779.2697	16512.4	15640.9
836.522	781.3426	16574.9	15692.1
836.667	783.4147	16665.4	15793.8
836.8121	785.4862	16758.65	15885.45
836.9571	787.557	16609.65	15736.5
837.1021	789.6271	16123.55	15250.7
837.2472	791.6966	15506.15	14633.5
837.3922	793.7654	14869.1	13995.65
837.5373	795.8335	14395	13519.95
837.6823	797.901	14093	13220
837.8274	799.9678	13858.75	12984.7
837.9724	802.0339	13780.45	12910.1
838.1175	804.0993	13722.7	12839.4
838.2626	806.1641	13644.5	12771.55
838.4076	808.2282	13553.15	12680.45
838.5527	810.2916	13483.1	12606.05
838.6978	812.3544	13386.7	12513.6
838.8428	814.4164	13279.55	12406
838.9879	816.4778	13350.05	12475.3
839.133	818.5385	13369.85	12495.9
839.2781	820.5986	13487.35	12616.1
839.4232	822.658	13691.3	12814.2
839.5682	824.7166	13975.8	13102.8
839.7133	826.7747	14485	13610.25
839.8584	828.832	14995.25	14120.15
840.0035	830.8886	15360.05	14483.15
840.1486	832.9446	15572.65	14697.3
840.2937	834.9999	15412.7	14539.6
840.4388	837.0545	15152.05	14273
840.5839	839.1085	14823.75	13948.05
840.729	841.1618	14503.8	13625.7
840.8741	843.2143	14239.7	13369.85
841.0192	845.2662	14018	13144.95
841.1643	847.3175	13868.55	12995.35
841.3095	849.368	13730.7	12856.25
841.4546	851.4179	13606.4	12731.4
841.5997	853.467	13483.15	12606.85
841.7448	855.5155	13421.55	12548.9
841.8899	857.5633	13308.05	12432.15
842.0351	859.6105	13228.2	12353.8
842.1802	861.6569	13143.9	12268.6
842.3253	863.7027	13054.4	12177.7
842.4704	865.7478	12954.9	12079.25
842.6156	867.7922	12934	12059.35
842.7607	869.8359	12898.3	12019.9
842.9058	871.8789	12894.25	12017.05
843.0509	873.9212	13007.4	12094.2
843.1961	875.9629	13063.4	12188
843.3412	878.0039	13176.45	12298.05
843.4863	880.0441	13288.9	12412.25
843.6315	882.0837	13320.3	12442.4
843.7766	884.1226	13328.8	12449.75
843.9218	886.1609	13389.2	12511.8
844.0669	888.1984	13428.2	12553.7
844.212	890.2352	13563.8	12688.1
844.3572	892.2714	13552.7	12670.55
844.5023	894.3069	13491.7	12612.45
844.6475	896.3416	13353.8	12474.65
844.7926	898.3757	13151.25	12275.2
844.9377	900.4091	13062.9	12183.35
845.0829	902.4418	13026.65	12144.9
845.228	904.4739	13056.15	12175.15
845.3732	906.5052	13122.7	12243.65
845.5183	908.5358	13060.35	12184.05
845.6635	910.5658	12936.45	12054.2
845.8086	912.595	12698.1	11823.7
845.9538	914.6236	12513.95	11635.25
846.0989	916.6515	12366.05	11488.65
846.2441	918.6786	12224.8	11345
846.3892	920.7051	12203.55	11324
846.5344	922.7309	12256.7	11377.9
846.6795	924.756	12242.25	11363.65
846.8246	926.7804	12326.9	11443.3
846.9698	928.8041	12276.5	11396.45
847.1149	930.8272	12342.3	11461.6
847.2601	932.8495	12296.95	11414.85
847.4052	934.8711	12263.95	11382.05
847.5504	936.892	12220.45	11343.6
847.6955	938.9123	12206.9	11328.35
847.8407	940.9318	12196.2	11318.25
847.9858	942.9506	12130.75	11248.15
848.131	944.9688	12070	11189.9
848.2761	946.9862	11981.85	11102.25
848.4213	949.003	11818.1	10936.25
848.5664	951.019	11731.25	10848.8
848.7115	953.0344	11661.4	10781.2
848.8567	955.0491	11613	10731.65
849.0018	957.063	11645.8	10766.15
849.147	959.0763	11710.9	10833.75
849.2921	961.0888	11737.85	10855.15
849.4373	963.1007	11800.4	10921.25
849.5824	965.1119	11819.6	10938.6
849.7275	967.1223	11811.5	10930.95
849.8727	969.1321	11777.15	10896.85
850.0178	971.1412	11741.35	10861.55
850.1629	973.1495	11727.3	10846.4
850.3081	975.1572	11784.75	10869.5
850.4532	977.1641	11737.25	10859.15
850.5983	979.1704	11698.35	10818.6
850.7435	981.1759	11665.45	10781.7
850.8886	983.1808	11667.7	10784.8
851.0337	985.1849	11700.3	10807.65
851.1788	987.1884	11740.1	10857.15
851.324	989.1911	11856.35	10973.15
851.4691	991.1932	11922.9	11039.7
851.6142	993.1945	11932.15	11050.45
851.7593	995.1951	11894	11010.6
851.9045	997.1951	11860.45	10971.45
852.0496	999.1943	11808.7	10927.05
852.1947	1001.1928	11782.35	10900.65
852.3398	1003.1906	11815.3	10935.75
852.4849	1005.1877	11917.3	11035.2
852.63	1007.1841	11986.4	11104.55
852.7751	1009.1798	12010.45	11127.85
852.9202	1011.1748	11930.25	11050.05
853.0653	1013.1691	11737.45	10854.35
853.2104	1015.1627	11537.1	10653.8
853.3555	1017.1556	11294.55	10413.15
853.5006	1019.1477	11144.3	10261.2
853.6457	1021.1392	11009.25	10126.6
853.7908	1023.1299	10974.8	10091.95
853.9359	1025.12	10976.55	10091.85
854.081	1027.1093	11040.5	10157.85
854.2261	1029.0979	11121.2	10242.05
854.3712	1031.0859	11205.8	10322.65
854.5163	1033.0731	11230.15	10348.2
854.6613	1035.0596	11172.9	10293.8
854.8064	1037.0454	11047.75	10166.2
854.9515	1039.0304	10947.65	10064.9
855.0965	1041.0148	10802.45	9919.65
855.2416	1042.9985	10705.4	9824.4
855.3867	1044.9814	10643.4	9762.25
855.5317	1046.9636	10572.1	9687.1
855.6768	1048.9452	10543.2	9660.3
855.8219	1050.926	10573.2	9692.75
855.9669	1052.9061	10581.65	9701.25
856.112	1054.8855	10613.65	9733.2
856.257	1056.8642	10632.65	9750
856.4021	1058.8421	10661.65	9775.9
856.5471	1060.8194	10682.1	9800.65
856.6921	1062.7959	10733.8	9853.25
856.8372	1064.7717	10767.1	9883.95
856.9822	1066.7469	10825.1	9943.5
857.1272	1068.7213	10908.7	10023.9
857.2723	1070.695	10960.15	10079.05
857.4173	1072.6679	11001.45	10116.75
857.5623	1074.6402	11009.1	10125.85
857.7073	1076.6117	10978	10090.55
857.8523	1078.5826	10867.4	9984.95
857.9973	1080.5527	10724.1	9838.4
858.1423	1082.5221	10628.9	9744.9
858.2873	1084.4908	10629.3	9746
858.4323	1086.4587	10623.6	9742.1
858.5773	1088.426	10697.35	9814.35
858.7223	1090.3925	10705.55	9818.75
858.8673	1092.3584	10716.85	9835.7
859.0123	1094.3235	10713.65	9831.65
859.1573	1096.2879	10757	9875.55
859.3022	1098.2515	10850.8	9968.55
859.4472	1100.2145	11033.05	10150
859.5922	1102.1767	11188.85	10300.95
859.7371	1104.1382	11406.65	10524.2
859.8821	1106.099	11625.5	10742.5
860.027	1108.0591	11879.85	10998.65
860.172	1110.0185	12029.2	11143.5
860.3169	1111.9771	12117.1	11235.25
860.4619	1113.9351	12033.15	11148.5
860.6068	1115.8923	11894.75	11011.7
860.7517	1117.8488	11704.7	10821.9
860.8967	1119.8045	11494.75	10611.7
861.0416	1121.7596	11339.2	10456.8
861.1865	1123.7139	11179.8	10297.75
861.3314	1125.6675	11137.55	10254.7
861.4763	1127.6204	11157.5	10277.75
861.6212	1129.5726	11139.95	10254.9
861.7661	1131.524	11047.25	10165.65
861.911	1133.4748	10902.65	10019.65
862.0559	1135.4248	10708.45	9822.2
862.2008	1137.3741	10564.8	9683.1
862.3457	1139.3226	10451.25	9566.55
862.4905	1141.2705	10394.3	9512.8
862.6354	1143.2176	10273.65	9384.25
862.7803	1145.164	10209.25	9324.45
862.9251	1147.1097	10161.2	9277.15
863.07	1149.0546	10072.95	9188.5
863.2148	1150.9989	9973.15	9090.85
863.3597	1152.9424	9831.25	8946.45
863.5045	1154.8852	9733.8	8848.4
863.6493	1156.8272	9680.8	8797.8
863.7942	1158.7686	9677.6	8786.95
863.939	1160.7092	9669.25	8783.1
864.0838	1162.6491	9706.05	8819.45
864.2286	1164.5883	9813.6	8931.35
864.3734	1166.5267	9912.7	9027.05
864.5182	1168.4644	10093.6	9208.35
864.663	1170.4014	10265.2	9381
864.8078	1172.3377	10515.5	9630.75
864.9526	1174.2732	10809.6	9927.4
865.0974	1176.2081	11210.85	10326.25
865.2421	1178.1421	11700.45	10814.45
865.3869	1180.0755	12235.6	11354.3
865.5317	1182.0082	12611.1	11728.6
865.6764	1183.9401	12820.75	11934.8
865.8212	1185.8713	12670.65	11786.95
865.9659	1187.8017	12333.55	11449.05
866.1106	1189.7315	11930.15	11045.3
866.2554	1191.6605	11543.3	10631.05
866.4001	1193.5888	11216.8	10332.7
866.5448	1195.5163	11048.75	10166.15
866.6895	1197.4432	10882.4	9996.1
866.8342	1199.3693	10855.35	9971.5
866.9789	1201.2947	10829.5	9938.7
867.1236	1203.2193	10763.2	9876.6
867.2683	1205.1432	10757.8	9875.2
867.413	1207.0664	10705.7	9821.6
867.5576	1208.9889	10676.35	9788.2
867.7023	1210.9106	10692.15	9808
867.847	1212.8316	10684.95	9803.75
867.9916	1214.7519	10712.35	9819.3
868.1363	1216.6715	10744.65	9863.35
868.2809	1218.5903	10774.5	9891.95
868.4255	1220.5084	10854	9969.6
868.5701	1222.4257	10985.7	10102.6
868.7148	1224.3424	10996.8	10113.1
868.8594	1226.2583	11109.7	10221.15
869.004	1228.1735	11249.65	10363.7
869.1486	1230.0879	11420.05	10536.05
869.2932	1232.0016	11584.25	10698.35
869.4377	1233.9146	11726.95	10842.75
869.5823	1235.8269	11726.45	10840.9
869.7269	1237.7384	11684.05	10798.9
869.8715	1239.6492	11533.05	10649.55
870.016	1241.5592	11474.85	10591.25
870.1606	1243.4686	11487	10601.7
870.3051	1245.3772	11650.25	10765.5
870.4496	1247.285	11831.95	10948.85
870.5941	1249.1922	12016.1	11130.95
870.7387	1251.0986	12197.25	11316
870.8832	1253.0042	12277.55	11394.25
871.0277	1254.9092	12365.1	11482.3
871.1722	1256.8134	12452.75	11570.7
871.3167	1258.7169	12590.85	11706.2
871.4611	1260.6196	12722.55	11840.3
871.6056	1262.5216	12983.25	12098.4
871.7501	1264.4229	13234.25	12351.1
871.8945	1266.3234	13412	12528.65
872.039	1268.2232	13509.1	12623.2
872.1834	1270.1223	13614.05	12729.15
872.3278	1272.0207	13605.55	12722.15
872.4723	1273.9183	13592.75	12704
872.6167	1275.8151	13515.3	12631.85
872.7611	1277.7113	13508.8	12623.2
872.9055	1279.6067	13576	12692.4
873.0499	1281.5014	13758.45	12873.15
873.1943	1283.3953	14130.95	13244.95
873.3386	1285.2885	14642.85	13759.35
873.483	1287.181	15131.55	14244.25
873.6274	1289.0727	15631.25	14748.8
873.7717	1290.9637	15971.95	15087.75
873.9161	1292.854	16236.55	15353.85
874.0604	1294.7435	16245.85	15361.3
874.2047	1296.6323	16138.25	15253
874.349	1298.5204	15999.05	15110.9
874.4933	1300.4077	15793.45	14908.1
874.6376	1302.2943	15556.05	14671.5
874.7819	1304.1802	15244.65	14359.9
874.9262	1306.0653	14785.25	13898.75
875.0705	1307.9497	14284.5	13397.3
875.2147	1309.8333	13871.75	12988.2
875.359	1311.7162	13540.8	12655.35
875.5032	1313.5984	13339	12452.8
875.6475	1315.4798	13186.45	12287.6
875.7917	1317.3605	13114.5	12213.85
875.9359	1319.2405	13014.5	12128.3
876.0801	1321.1197	12781.15	11894.45
876.2243	1322.9982	12501.55	11612.35
876.3685	1324.876	12208.35	11324.35
876.5127	1326.753	11919.75	11034.1
876.6569	1328.6293	11718.95	10832.1
876.801	1330.5048	11549.2	10663.1
876.9452	1332.3796	11354.1	10470.85
877.0893	1334.2537	11260.3	10350.3
877.2335	1336.127	11157.9	10272.5
877.3776	1337.9996	11095.85	10211.3
877.5217	1339.8714	11083.45	10198.35
877.6658	1341.7426	11133.5	10203.8
877.8099	1343.6129	11118.7	10234.65
877.954	1345.4826	11116.4	10230.4
878.0981	1347.3515	11093.2	10205.65
878.2422	1349.2196	11073.95	10188.7
878.3862	1351.087	11094.15	10210
878.5303	1352.9537	11151.65	10265.75
878.6743	1354.8197	11279.85	10396.2
878.8184	1356.6849	11416.9	10529.6
878.9624	1358.5493	11593.45	10707.45
879.1064	1360.4131	11767.7	10883.9
879.2504	1362.276	11920.55	11034.65
879.3944	1364.1383	11959.1	11076.5
879.5384	1365.9998	11778.1	10888.25
879.6823	1367.8606	11456.6	10573.4
879.8263	1369.7206	11069.15	10184.85
879.9702	1371.5799	10723.15	9836.55
880.1142	1373.4384	10437.5	9551.4
880.2581	1375.2962	10194.9	9308.85
880.402	1377.1533	9851.75	8966.9
880.5459	1379.0096	9494.9	8608.8
880.6898	1380.8652	9126.5	8242.7
880.8337	1382.7201	8833.85	7949.95
880.9776	1384.5742	8570.6	7683.35
881.1215	1386.4275	8385.45	7499.95
881.2653	1388.2802	8228.85	7344.8
881.4092	1390.132	8106.4	7218.8
881.553	1391.9832	8004.55	7119.3
881.6968	1393.8336	7915.85	7031.8
881.8406	1395.6832	7889.25	7000.65
881.9844	1397.5322	7837.05	6951.9
882.1282	1399.3803	7803.5	6912
882.272	1401.2278	7763.2	6877
882.4158	1403.0745	7762.8	6878.45
882.5595	1404.9204	7716.75	6833.5
882.7033	1406.7656	7738.9	6855.65
882.847	1408.6101	7749.35	6861.85
882.9908	1410.4538	7786.6	6901
883.1345	1412.2968	7808.5	6922.9
883.2782	1414.139	7878.45	6993.4
883.4219	1415.9805	7939.65	7057.1
883.5656	1417.8213	8030.4	7140.05
883.7092	1419.6613	8121.6	7236.05
883.8529	1421.5006	8278.65	7394.65
883.9965	1423.3391	8486.1	7599.7
884.1402	1425.1769	8751.6	7864.8
884.2838	1427.0139	9184.65	8297.45
884.4274	1428.8502	9740.2	8854.6
884.571	1430.6858	10288.7	9402.35
884.7146	1432.5206	10696.5	9809.75
884.8582	1434.3547	10940.4	10053.8
885.0018	1436.188	10959.85	10076.15
885.1453	1438.0206	10882.35	9994.1
885.2889	1439.8524	10680.1	9795.95
885.4324	1441.6835	10628	9742.35
885.5759	1443.5139	10512.3	9623.1
885.7194	1445.3435	10427.5	9542.05
885.8629	1447.1724	10364.55	9479.8
886.0064	1449.0005	10339.95	9454.85
886.1499	1450.8279	10285.85	9398.35
886.2933	1452.6545	10292.8	9408.3
886.4368	1454.4804	10298.45	9414.45
886.5802	1456.3056	10297.8	9405.9
886.7237	1458.13	10229.85	9345.75
886.8671	1459.9536	10046.4	9164
887.0105	1461.7766	9810.4	8923.65
887.1539	1463.5987	9460.25	8575.15
887.2972	1465.4202	9148.45	8263.1
887.4406	1467.2409	8788.35	7904.5
887.584	1469.0608	8472	7588
887.7273	1470.88	8216.75	7331
887.8706	1472.6984	7966.8	7081.1
888.0139	1474.5161	7747.75	6856.8
888.1572	1476.3331	7590.65	6708.05
888.3005	1478.1493	7486.15	6601.45
888.4438	1479.9648	7375.25	6489.95
888.5871	1481.7795	7308.5	6422.2
888.7303	1483.5935	7241.35	6358.5
888.8736	1485.4067	7172.2	6289.95
889.0168	1487.2192	7137.5	6254.95
889.16	1489.031	7106.75	6218.6
889.3032	1490.842	7067	6182.65
889.4464	1492.6522	6992.4	6107.35
889.5896	1494.4618	6965.25	6077.1
889.7327	1496.2705	6920.25	6035.25
889.8759	1498.0785	6895.65	6008.75
890.019	1499.8858	6861.6	5975.9
890.1622	1501.6924	6832.65	5947.25
890.3053	1503.4981	6785.4	5900.3
890.4484	1505.3032	6742.7	5856.15
890.5914	1507.1075	6699.6	5813.85
890.7345	1508.911	6664.65	5780.85
890.8776	1510.7138	6617.1	5730.2
891.0206	1512.5159	6564.4	5679.2
891.1637	1514.3172	6527.05	5640.75
891.3067	1516.1178	6470	5586.7
891.4497	1517.9176	6457	5572.5
891.5927	1519.7166	6406.55	5522
891.7357	1521.515	6402.05	5510.55
891.8786	1523.3126	6381.95	5495.75
892.0216	1525.1094	6329.6	5442.95
892.1645	1526.9055	6292.35	5409.3
892.3074	1528.7008	6285	5399.55
892.4503	1530.4954	6250.4	5363.95
892.5932	1532.2893	6258.35	5373.75
892.7361	1534.0824	6227.05	5337.15
892.879	1535.8747	6216.4	5331.15
893.0218	1537.6663	6192	5306.2
893.1647	1539.4572	6218	5332.25
893.3075	1541.2473	6218.1	5331.25
893.4503	1543.0367	6202.75	5318
893.5931	1544.8253	6196.45	5309.55
893.7359	1546.6132	6241.9	5356.85
893.8787	1548.4003	6259.05	5364.95
894.0214	1550.1867	6319.55	5426.45
894.1642	1551.9723	6359.3	5469.8
894.3069	1553.7572	6453.8	5568.3
894.4496	1555.5414	6544.15	5658.35
894.5923	1557.3247	6708.25	5823.35
894.735	1559.1074	6860.05	5976.05
894.8777	1560.8893	7023.65	6139.75
895.0204	1562.6705	7187.5	6302.15
895.163	1564.4509	7312.65	6430.3
895.3056	1566.2305	7406.2	6522.3
895.4482	1568.0094	7471.6	6588.6
895.5908	1569.7876	7481.05	6597.45
895.7334	1571.565	7446.35	6562.3
895.876	1573.3417	7438.6	6553.5
896.0186	1575.1176	7424.6	6539.55
896.1611	1576.8928	7428.55	6543.6
896.3036	1578.6672	7406.9	6522.9
896.4461	1580.4409	7429.25	6545.2
896.5886	1582.2138	7455.75	6567.95
896.7311	1583.986	7498.1	6612.9
896.8736	1585.7575	7565.75	6681.6
897.0161	1587.5282	7658.4	6774.75
897.1585	1589.2981	7721.9	6837.5
897.3009	1591.0673	7794.65	6910.5
897.4433	1592.8358	7934.7	7051
897.5857	1594.6035	8043.65	7157.45
897.7281	1596.3704	8107.6	7225.4
897.8705	1598.1366	8172.75	7290.8
898.0128	1599.9021	8284.4	7398.8
898.1551	1601.6668	8362.2	7474.75
898.2975	1603.4308	8496.35	7612.3
898.4398	1605.194	8651.6	7765.85
898.5821	1606.9564	8824.7	7940.85
898.7243	1608.7182	9097.75	8208.9
898.8666	1610.4791	9400.35	8515.1
899.0088	1612.2394	9704	8819.8
899.1511	1613.9988	10048.3	9162.8
899.2933	1615.7576	10370.2	9485.6
899.4355	1617.5156	10594	9705.6
899.5776	1619.2728	10707.15	9824.1
899.7198	1621.0293	10645.6	9762.35
899.862	1622.785	10454.25	9565.95
900.0041	1624.54	10138.9	9251.3
900.1462	1626.2942	9794.25	8908.95
900.2883	1628.0477	9392.35	8503.8
900.4304	1629.8005	9002.6	8114.2
900.5725	1631.5525	8670.15	7785.7
900.7145	1633.3037	8373.25	7488.6
900.8566	1635.0542	8138.4	7254.6
900.9986	1636.804	7939.1	7055.65
901.1406	1638.553	7831.4	6893.1
901.2826	1640.3013	7731.2	6847.9
901.4245	1642.0488	7683.7	6796.85
901.5665	1643.7955	7700.55	6818.55
901.7085	1645.5416	7751.75	6866.65
901.8504	1647.2868	7818.95	6936.75
901.9923	1649.0313	7911.9	7028.75
902.1342	1650.7751	8070.7	7182.55
902.2761	1652.5181	8238.05	7355.25
902.4179	1654.2604	8396.8	7512.55
902.5598	1656.0019	8612.5	7729.2
902.7016	1657.7427	8889.35	8004.6
902.8434	1659.4828	9145.8	8262.15
902.9852	1661.222	9314.3	8431.2
903.127	1662.9606	9319.45	8436.45
903.2687	1664.6984	9088.3	8204.85
903.4105	1666.4354	8711.1	7827.05
903.5522	1668.1717	8141.75	7258.5
903.6939	1669.9072	7559.6	6677.1
903.8356	1671.642	7068.35	6183.15
903.9773	1673.3761	6668.05	5786.85
904.119	1675.1094	6342.15	5459.4
904.2606	1676.8419	6097	5212.55
904.4022	1678.5737	5879.65	4998.75
904.5439	1680.3048	5701.15	4814.85
904.6855	1682.0351	5579.6	4697.7
904.827	1683.7646	5473.95	4586.75
904.9686	1685.4934	5394.9	4513.45
905.1101	1687.2215	5305.25	4420.85
905.2517	1688.9488	5237.8	4353.45
905.3932	1690.6754	5182.6	4300.8
905.5347	1692.4012	5122.85	4238.9
905.6761	1694.1263	5071.85	4189.2
905.8176	1695.8506	5053.15	4170.05
905.9591	1697.5742	5003.75	4121.15
906.1005	1699.297	4958.75	4075.55
906.2419	1701.0191	4898.7	4016.5
906.3833	1702.7404	4873.65	3989.25
906.5246	1704.461	4841.45	3956.05
906.666	1706.1808	4812.8	3927.35
906.8073	1707.8999	4784.9	3901.75
906.9487	1709.6182	4761.7	3877.85
907.09	1711.3358	4727.6	3843.85
907.2313	1713.0527	4705.5	3824.75
907.3725	1714.7688	4672.25	3783.45
907.5138	1716.4841	4662.55	3778.55
907.655	1718.1987	4642.6	3755.6
907.7962	1719.9126	4609.45	3726.4
907.9374	1721.6257	4592.75	3706.05
908.0786	1723.338	4584.8	3701.85
908.2198	1725.0496	4562.7	3678.2
908.3609	1726.7605	4556.85	3673.05
908.502	1728.4706	4539.6	3656.65
908.6431	1730.18	4502.2	3615.1
908.7842	1731.8886	4491.2	3608.1
908.9253	1733.5964	4483.95	3594.9
909.0664	1735.3036	4468.4	3585.65
909.2074	1737.0099	4450.65	3566.55
909.3484	1738.7156	4419.2	3538.85
909.4894	1740.4204	4400.8	3517.65
909.6304	1742.1246	4388.15	3503.15
909.7714	1743.8279	4378.65	3497.1
909.9123	1745.5306	4343.15	3460.9
910.0532	1747.2325	4329.9	3447.35
910.1941	1748.9336	4307.3	3425.2
910.335	1750.634	4291.35	3405.7
910.4759	1752.3336	4271.25	3390.05
910.6168	1754.0325	4266.95	3384.2
910.7576	1755.7307	4274.7	3392.35
910.8984	1757.4281	4252.1	3370.1
911.0392	1759.1247	4232.4	3342.5
911.18	1760.8206	4233.35	3349.15
911.3208	1762.5158	4216.15	3329.7
911.4615	1764.2102	4209.1	3329.2
911.6022	1765.9039	4181.2	3297.6
911.7429	1767.5968	4183.45	3300.1
911.8836	1769.289	4177.7	3294
912.0243	1770.9804	4174.65	3291.4
912.1649	1772.6711	4166	3283.2
912.3056	1774.361	4142.75	3260.5
912.4462	1776.0502	4132.55	3247.75
912.5868	1777.7386	4129.5	3247.05
912.7274	1779.4263	4121.15	3238.85
912.8679	1781.1132	4108.45	3225.2
913.0084	1782.7994	4096.35	3211
913.149	1784.4849	4107.1	3225.25
913.2895	1786.1696	4102.5	3199.6
913.4299	1787.8535	4079.5	3196.75
913.5704	1789.5367	4058.55	3175.45
913.7108	1791.2192	4068.25	3184.95
913.8513	1792.9009	4060.15	3160.85
913.9917	1794.5818	4033.2	3150.3
914.132	1796.2621	4033.25	3153.25
914.2724	1797.9415	4021.95	3139.3
914.4128	1799.6202	4012.85	3132.05
914.5531	1801.2982	4007.6	3126.3
914.6934	1802.9755	3993.2	3109.6
914.8337	1804.6519	4002.25	3120.05
914.9739	1806.3277	3977.15	3093.95
915.1142	1808.0027	3960	3078.3
915.2544	1809.6769	3949.7	3066
915.3946	1811.3504	3962.1	3076.95
915.5348	1813.0231	3952.8	3070.85
915.675	1814.6951	3951.65	3069.95
915.8151	1816.3664	3932.35	3048.5
915.9553	1818.0369	3928.5	3045.5
916.0954	1819.7067	3922.75	3042.3
916.2355	1821.3757	3926.1	3040.05
916.3755	1823.044	3916.3	3032.35
916.5156	1824.7115	3914.95	3031.4
916.6556	1826.3783	3880.7	3001.9
916.7956	1828.0443	3880.35	2996.7
916.9356	1829.7096	3875.6	2991.3
917.0756	1831.3741	3889.85	3003.9
917.2155	1833.0379	3863.3	2982.45
917.3555	1834.701	3863.3	2977.25
917.4954	1836.3633	3859.85	2974.45
917.6353	1838.0248	3850.55	2965.75
917.7751	1839.6856	3834.85	2950
917.915	1841.3457	3834.55	2954.15
918.0548	1843.005	3843.5	2962.95
918.1946	1844.6636	3832.65	2951.3
918.3344	1846.3214	3812.85	2929.6
918.4742	1847.9785	3808.7	2926.75
918.6139	1849.6349	3787.1	2904.15
918.7537	1851.2904	3795.35	2903.7
918.8934	1852.9453	3791.8	2909.85
919.0331	1854.5994	3780.2	2896.85
919.1727	1856.2528	3787.3	2898.85
919.3124	1857.9054	3770.45	2888.75
919.452	1859.5572	3759.9	2878.9
919.5916	1861.2083	3763.4	2878.7
919.7312	1862.8587	3760.7	2879
919.8708	1864.5084	3754.1	2870.65
920.0103	1866.1572	3737.05	2856.85
920.1498	1867.8054	3726.85	2846.4
920.2893	1869.4528	3718.5	2834.5
920.4288	1871.0994	3712.95	2831.4
920.5683	1872.7453	3714.9	2832.55
920.7077	1874.3905	3715	2815.4
920.8471	1876.0349	3707.35	2825
920.9865	1877.6786	3698.35	2814.95
921.1259	1879.3215	3686.15	2806.25
921.2653	1880.9637	3675.5	2793.2
921.4046	1882.6051	3668.2	2784.95
921.5439	1884.2458	3669.6	2788.15
921.6832	1885.8858	3641.65	2757.05
921.8225	1887.525	3642.75	2763.05
921.9617	1889.1634	3638.65	2755.1
922.101	1890.8011	3614.65	2733
922.2402	1892.4381	3615.55	2733.1
922.3794	1894.0743	3615.3	2734.6
922.5185	1895.7098	3610.55	2729.8
922.6577	1897.3446	3613.4	2729.6
922.7968	1898.9786	3588.35	2702.3
922.9359	1900.6118	3593.15	2713.15
923.075	1902.2443	3579.7	2691.65
923.214	1903.8761	3578.85	2699.9
923.3531	1905.5071	3548.1	2664.35
923.4921	1907.1374	3554.85	2672
923.6311	1908.7669	3542.8	2662.1
923.77	1910.3957	3541.55	2658.9
923.909	1912.0237	3526.5	2646.45
924.0479	1913.651	3524.4	2640.3
924.1868	1915.2776	3510.3	2629.4
924.3257	1916.9034	3504.95	2623.5
924.4646	1918.5285	3496.3	2614.7
924.6034	1920.1528	3483.9	2600.7
924.7422	1921.7764	3486.45	2604.55
924.881	1923.3992	3464	2581.1
925.0198	1925.0213	3438.05	2556.2
925.1586	1926.6427	3432.9	2552.95
925.2973	1928.2633	3523.95	2535.25
925.436	1929.8832	3450.85	2566.3
925.5747	1931.5023	3416.4	2533.8
925.7134	1933.1207	3409.05	2528.9
925.852	1934.7383	3407.3	2524.5
925.9906	1936.3552	3403.6	2525.3
926.1292	1937.9714	3392.3	2509
926.2678	1939.5868	3389.9	2505.4
926.4064	1941.2015	3363.35	2481.95
926.5449	1942.8154	3362.35	2479.75
926.6834	1944.4286	3337	2452.65
926.8219	1946.041	3361.85	2458.15
926.9604	1947.6528	3344.3	2456.75
927.0988	1949.2637	3325.45	2446.15
927.2372	1950.8739	3305.75	2422.45
927.3756	1952.4834	3320.5	2436.55
927.514	1954.0921	3311	2427.5
927.6523	1955.7001	3306.9	2420.55
927.7907	1957.3074	3287.45	2406.45
927.929	1958.9139	3284.1	2401.15
928.0673	1960.5197	3280.15	2395.65
928.2055	1962.1247	3268	2386.8
928.3438	1963.729	3261.6	2379.2
928.482	1965.3325	3254.45	2346.25
928.6202	1966.9353	3233.6	2351.35
928.7584	1968.5374	3234	2349.95
928.8965	1970.1387	3226	2342.95
929.0346	1971.7393	3204	2321.5
929.1727	1973.3392	3190.95	2309.35
929.3108	1974.9383	3188.1	2305.75
929.4489	1976.5366	3170.95	2287.8
929.5869	1978.1342	3170.35	2287.75
929.7249	1979.7311	3180.4	2294.85
929.8629	1981.3273	3164.75	2282.7
930.0009	1982.9227	3148	2264.7
930.1388	1984.5173	3151.25	2269.65
930.2767	1986.1112	3139.15	2255
930.4146	1987.7044	3140.85	2259.1
930.5525	1989.2968	3137.1	2253.35
930.6904	1990.8885	3130.7	2245.7
930.8282	1992.4795	3122.1	2238.3
930.966	1994.0697	3111.65	2230.15
931.1038	1995.6592	3100.5	2218.6
931.2415	1997.2479	3101.75	2217.9
931.3793	1998.8359	3094.95	2211.7
931.517	2000.4232	3084.8	2201.8
931.6547	2002.0097	3079.4	2199.3
931.7923	2003.5955	3073.9	2190.55
931.93	2005.1805	3073.9	2189.7
932.0676	2006.7648	3073	2190.5
932.2052	2008.3484	3067.5	2184.35
932.3427	2009.9312	3064.75	2181.35
932.4803	2011.5133	3040.1	2158.6
932.6178	2013.0946	3039.15	2154.8
932.7553	2014.6752	3029.25	2148.1
932.8928	2016.2551	3032	2147.6
933.0302	2017.8342	3023.8	2141.2
933.1676	2019.4126	3015.65	2134.85
933.305	2020.9902	3014.85	2133.1
933.4424	2022.5672	3004.55	2120.6
933.5798	2024.1433	2990.1	2098.95
933.7171	2025.7188	2993.05	2112.3
933.8544	2027.2935	2991.4	2107.75
933.9917	2028.8674	2984.25	2103.3
934.129	2030.4406	2985.9	2105.65
934.2662	2032.0131	2956.35	2073.4
934.4034	2033.5849	2958.3	2067.75
934.5406	2035.1559	2955	2072.75
934.6778	2036.7261	2951.35	2067.9
934.8149	2038.2957	2952.8	2071.4
934.952	2039.8645	2936.75	2053.35
935.0891	2041.4325	2946.8	2062.45
935.2262	2042.9998	2925.4	2045.3
935.3632	2044.5664	2920.75	2036.45
935.5002	2046.1323	2914.55	2033.2
935.6372	2047.6974	2921.1	2038.5
935.7742	2049.2617	2907.35	2025
935.9111	2050.8254	2936.8	2020.45
936.048	2052.3883	2907.6	2024.9
936.1849	2053.9504	2917.7	2034.9
936.3218	2055.5118	2870.25	1987.35
936.4586	2057.0725	2876.3	1988
936.5955	2058.6325	2873.05	1990.85
936.7323	2060.1917	2862.65	1979
936.869	2061.7502	2876.75	1991.2
937.0058	2063.3079	2864.2	1980.2
937.1425	2064.8649	2864.05	1976.85
937.2792	2066.4212	2843.2	1962.3
937.4159	2067.9767	2840.95	1957.35
937.5525	2069.5315	2832.75	1949.65
937.6891	2071.0856	2828.45	1946.1
937.8257	2072.6389	2820.9	1937
937.9623	2074.1915	2806.85	1926.75
938.0989	2075.7433	2805.65	1921.55
938.2354	2077.2945	2795.9	1914.85
938.3719	2078.8448	2788.85	1906.15
938.5084	2080.3945	2791.75	1907.85
938.6448	2081.9434	2789.15	1906.75
938.7812	2083.4916	2782.15	1898.65
938.9176	2085.039	2772.2	1889.1
939.054	2086.5857	2756.65	1874.05
939.1903	2088.1317	2752.4	1869.7
939.3267	2089.677	2765.25	1883.9
939.463	2091.2215	2738.95	1858.15
939.5992	2092.7652	2738.4	1853.75
939.7355	2094.3083	2731.6	1848.35
939.8717	2095.8506	2735	1853.95
940.0079	2097.3921	2748.5	1868.05
940.1441	2098.933	2742.85	1858.6
940.2802	2100.4731	2723.45	1842.4
940.4163	2102.0124	2739.8	1838.55
940.5524	2103.5511	2729.8	1848.2
940.6885	2105.089	2716.8	1834.25
940.8245	2106.6261	2711.7	1828.9
940.9606	2108.1626	2707.15	1822.65
941.0965	2109.6983	2732.25	1820.7
941.2325	2111.2332	2708.35	1826.2
941.3684	2112.7675	2691.95	1807.85
941.5044	2114.301	2694	1811.35
941.6403	2115.8337	2679.1	1796.65
941.7761	2117.3657	2676.35	1793.7
941.912	2118.897	2673.6	1789.75
942.0478	2120.4276	2680.45	1790.35
942.1835	2121.9575	2660.8	1777.65
942.3193	2123.4866	2677.75	1779.05
942.455	2125.0149	2650.8	1764.9
942.5907	2126.5426	2640.65	1758.25
942.7264	2128.0695	2655.2	1769.25
942.8621	2129.5956	2640.45	1758.35
942.9977	2131.1211	2635.95	1750.8
943.1333	2132.6458	2626	1744.4
943.2689	2134.1698	2615.2	1733.6
943.4044	2135.693	2621.1	1736.55
943.54	2137.2155	2630.85	1744.9
943.6755	2138.7373	2613.55	1730.35
943.8109	2140.2584	2597.55	1714.85
943.9464	2141.7787	2588.95	1700.3
944.0818	2143.2983	2597.85	1714.85
944.2172	2144.8171	2589.75	1708.75
944.3526	2146.3353	2585	1699.3
944.4879	2147.8527	2575.2	1693.7
944.6232	2149.3693	2574.5	1692.55
944.7585	2150.8853	2564.4	1682.6
944.8938	2152.4005	2554.95	1672.1
945.029	2153.9149	2560.9	1675.6
945.1642	2155.4287	2551.85	1669.45
945.2994	2156.9417	2552.2	1667.7
945.4346	2158.454	2554.45	1667.45
945.5697	2159.9655	2546.5	1664.35
945.7048	2161.4764	2547.4	1664.35
945.8399	2162.9865	2532.6	1650.25
945.9749	2164.4958	2521.15	1636.85
946.1099	2166.0045	2535.45	1648.2
946.2449	2167.5124	2530.35	1650
946.3799	2169.0195	2520.55	1636.5
946.5148	2170.526	2515.85	1632.4
946.6498	2172.0317	2503.85	1618.65
946.7846	2173.5367	2517.7	1633.1
946.9195	2175.0409	2498.1	1616.3
947.0543	2176.5445	2499.15	1616.65
947.1891	2178.0473	2495	1613.45
947.3239	2179.5494	2487	1600.5
947.4587	2181.0507	2476.4	1593.65
947.5934	2182.5513	2468.2	1585.95
947.7281	2184.0512	2476.7	1593.45
947.8628	2185.5504	2473.35	1591.25
947.9974	2187.0488	2467.3	1584.45
948.132	2188.5465	2463.35	1578.5
948.2666	2190.0435	2452.5	1570.55
948.4012	2191.5397	2449.9	1568.15
948.5357	2193.0353	2454.45	1573.55
948.6702	2194.5301	2443.55	1561.15
948.8047	2196.0241	2431.6	1548.55
948.9392	2197.5175	2429.05	1547.85
949.0736	2199.0101	2417.25	1532.35
949.208	2200.502	2412.6	1530.35
949.3424	2201.9931	2414.7	1531.75
949.4767	2203.4835	2408.15	1524.25
949.611	2204.9733	2410.85	1519.9
949.7453	2206.4622	2403.1	1521.45
949.8796	2207.9505	2393.3	1506.15
950.0138	2209.438	2384.6	1502.35
950.148	2210.9248	2386.9	1503.05
950.2822	2212.4109	2375.8	1493.45
950.4164	2213.8962	2382.7	1497.35
950.5505	2215.3809	2374.3	1491.75
950.6846	2216.8648	2359.95	1476.8
950.8186	2218.3479	2359.4	1473.1
950.9527	2219.8304	2361.8	1477.35
951.0867	2221.3121	2350.85	1466
951.2207	2222.7931	2351.9	1470.2
951.3546	2224.2733	2351.05	1467.55
951.4886	2225.7529	2331.6	1448.05
951.6225	2227.2317	2337.3	1452.45
951.7563	2228.7098	2324.25	1440.65
951.8902	2230.1872	2316.6	1435.6
952.024	2231.6638	2309.95	1429.05
952.1578	2233.1397	2316.25	1427
952.2916	2234.6149	2312.95	1430.7
952.4253	2236.0894	2311.25	1427.85
952.559	2237.5632	2309.95	1416.85
952.6927	2239.0362	2292.55	1410.85
952.8263	2240.5085	2282.55	1399.15
952.9599	2241.9801	2287.05	1405.25
953.0935	2243.4509	2293.75	1411.35
953.2271	2244.921	2277.45	1393.75
953.3606	2246.3904	2265.25	1379.65
953.4941	2247.8591	2261.95	1380.6
953.6276	2249.3271	2260.85	1378.2
953.7611	2250.7943	2249.8	1368.9
953.8945	2252.2608	2245.15	1361.45
954.0279	2253.7266	2239.8	1357.45
954.1612	2255.1917	2240.25	1359.05
954.2946	2256.656	2240	1354.95
954.4279	2258.1197	2233.8	1351.7
954.5612	2259.5826	2232.85	1348
954.6944	2261.0447	2227.45	1341.55
954.8276	2262.5062	2218.4	1332.5
954.9608	2263.9669	2226.5	1339.85
955.094	2265.4269	2220.05	1338.45
955.2271	2266.8862	2212.05	1326.65
955.3602	2268.3448	2216	1333.05
955.4933	2269.8026	2209.2	1325.55
955.6264	2271.2598	2206.65	1322.3
955.7594	2272.7162	2203.35	1320.25
955.8924	2274.1719	2201.05	1318.65
956.0253	2275.6268	2194.95	1313.45
956.1583	2277.0811	2195.3	1312.75
956.2912	2278.5346	2197.8	1315.65
956.4241	2279.9874	2189.5	1308.6
956.5569	2281.4395	2184.8	1303.95
956.6897	2282.8908	2181.3	1294.25
956.8225	2284.3414	2188.6	1304.85
956.9553	2285.7914	2170.1	1286.75
957.088	2287.2406	2164.65	1281.35
957.2207	2288.689	2162.85	1280.55
957.3534	2290.1368	2162.4	1279.6
957.486	2291.5838	2170.2	1285.85
957.6186	2293.0302	2161.8	1277.5
957.7512	2294.4758	2142.45	1261.35
957.8838	2295.9206	2144.4	1258.8
958.0163	2297.3648	2152.05	1269.2
958.1488	2298.8082	2146.6	1263.5
958.2813	2300.251	2137.65	1252.7
958.4137	2301.693	2142.2	1258.15
958.5461	2303.1343	2127.8	1242.75
958.6785	2304.5748	2138.6	1257
958.8108	2306.0147	2130.1	1247.2
958.9432	2307.4538	2122.9	1235.35
959.0754	2308.8922	2119.45	1238.1
959.2077	2310.3299	2120.6	1237.15
959.3399	2311.7669	2110.9	1228.05
959.4721	2313.2031	2106.9	1225
959.6043	2314.6387	2105.35	1221.35
959.7365	2316.0735	2097.3	1214
959.8686	2317.5076	2101.9	1218.3
960.0006	2318.941	2100.15	1217.25
960.1327	2320.3737	2094.55	1211.55
960.2647	2321.8056	2086.9	1200.55
960.3967	2323.2369	2078.65	1194.55
960.5287	2324.6674	2085.55	1200.15
960.6606	2326.0972	2086.8	1201.9
960.7925	2327.5263	2072.7	1191.95
960.9244	2328.9547	2068.1	1186
961.0562	2330.3823	2062.75	1178.1
961.1881	2331.8092	2067.55	1180.9
961.3198	2333.2355	2059.9	1176.9
961.4516	2334.661	2060.65	1176.65
961.5833	2336.0858	2055.95	1170.85
961.715	2337.5098	2051.25	1168.15
961.8467	2338.9332	2054.7	1171.7
961.9783	2340.3558	2042	1155
962.1099	2341.7778	2034.95	1151.3
962.2415	2343.199	2036.3	1150.85
962.373	2344.6195	2034.25	1152
962.5045	2346.0393	2039.2	1156.7
962.636	2347.4583	2039.2	1154.6
962.7675	2348.8767	2027.3	1143.3
962.8989	2350.2943	2023.25	1139.6
963.0303	2351.7113	2025.25	1141.7
963.1617	2353.1275	2027.4	1144.55
963.293	2354.543	2044.2	1134.85
963.4243	2355.9578	2018.05	1134.2
963.5556	2357.3718	2014.3	1132
963.6868	2358.7852	2013.75	1125.85
963.818	2360.1978	2002.75	1119.8
963.9492	2361.6098	2011.95	1129.45
964.0803	2363.021	2003.6	1116.05
964.2114	2364.4315	1991.4	1109.25
964.3425	2365.8413	1990.5	1107.15
964.4736	2367.2504	1992.3	1110.4
964.6046	2368.6587	1979.45	1095.15
964.7356	2370.0664	1982.35	1099.5
964.8666	2371.4733	1976.5	1093.4
964.9975	2372.8795	1982.35	1099.65
965.1284	2374.285	1976.75	1094.6
965.2593	2375.6899	1972.7	1090.25
965.3901	2377.0939	1964.25	1082.45
965.5209	2378.4973	1965.85	1086.2
965.6517	2379.9	1960.25	1077.2
965.7825	2381.3019	1954.3	1071.85
965.9132	2382.7032	1954.2	1072.4
966.0439	2384.1037	1944.45	1062.25
966.1745	2385.5035	1939.8	1056.75
966.3051	2386.9027	1940.8	1060.05
966.4357	2388.3011	1945.3	1060.2
966.5663	2389.6987	1935.35	1051.65
966.6968	2391.0957	1936	1054.25
966.8273	2392.492	1929.85	1048.3
966.9578	2393.8876	1925.6	1042.05
967.0882	2395.2824	1913.95	1031.7
967.2186	2396.6765	1910.4	1028.55
967.349	2398.07	1910.75	1031.3
967.4793	2399.4627	1903.65	1020.6
967.6097	2400.8547	1898.55	1019.05
967.7399	2402.246	1900.55	1014.9
967.8702	2403.6366	1893.65	1010.35
968.0004	2405.0265	1886.75	1004.2
968.1306	2406.4156	1892.35	1004.85
968.2607	2407.8041	1891.1	1005.85
968.3909	2409.1918	1886.45	1000.5
968.521	2410.5789	1887.85	1006.1
968.651	2411.9652	1884.3	997.75
968.781	2413.3508	1870.35	989.05
968.911	2414.7358	1876.1	992.7
969.041	2416.12	1876.15	992.9
969.1709	2417.5035	1871.8	990.65
969.3008	2418.8863	1868.3	985.65
969.4307	2420.2684	1868.5	986.7
969.5606	2421.6497	1862.25	978.45
969.6904	2423.0304	1856.35	978.25
969.8201	2424.4104	1854.9	971.5
969.9499	2425.7896	1853.1	964.25
970.0796	2427.1682	1852.9	971.45
970.2093	2428.546	1848	965.25
970.3389	2429.9232	1836.4	951.9
970.4685	2431.2996	1838.65	957.4
970.5981	2432.6753	1843.05	961.1
970.7277	2434.0503	1835.9	955.4
970.8572	2435.4246	1834.8	952.35
970.9867	2436.7982	1824.75	941.75
971.1161	2438.1711	1828.7	949.1
971.2456	2439.5433	1828.7	944.4
971.375	2440.9148	1822.95	936.2
971.5043	2442.2856	1804.5	921.35
971.6336	2443.6557	1811.1	926.3
971.7629	2445.025	1798.85	917.6
971.8922	2446.3937	1803.2	918.85
972.0214	2447.7617	1800	918.75
972.1506	2449.1289	1796.65	914.7
972.2798	2450.4955	1804.15	918.9
972.4089	2451.8613	1801.5	920.2
972.538	2453.2265	1797.6	917.15
972.6671	2454.5909	1792.35	909.35
972.7961	2455.9546	1784.1	901.6
972.9251	2457.3177	1781.2	898.4
973.0541	2458.68	1784.5	900.85
973.1831	2460.0416	1775.45	893.25
973.312	2461.4025	1784.4	901
973.4408	2462.7627	1788.5	895
973.5697	2464.1222	1774.6	894.2
973.6985	2465.4811	1772.2	887.2
973.8273	2466.8392	1769.35	886.25
973.956	2468.1966	1773.3	889.75
974.0847	2469.5533	1771.3	889.05
974.2134	2470.9093	1778.05	893.25
974.3421	2472.2645	1763.7	881.45
974.4707	2473.6191	1773.5	891.8
974.5993	2474.973	1767.45	885.75
974.7278	2476.3262	1766.25	881.3
974.8563	2477.6787	1761.65	880.2
974.9848	2479.0305	1757.65	874.7
975.1132	2480.3816	1749.85	865.95
975.2417	2481.7319	1738	855.4
975.37	2483.0816	1746.75	862.7
975.4984	2484.4306	1742.75	859.4
975.6267	2485.7789	1742.95	860.35
975.755	2487.1264	1736.25	852.65
975.8833	2488.4733	1734.85	851.9
976.0115	2489.8195	1740.15	849.45
976.1397	2491.165	1728.35	840.7
976.2678	2492.5097	1729.95	845.8
976.3959	2493.8538	1726	844.45
976.524	2495.1972	1722.65	839.9
976.6521	2496.5398	1715.3	830.45
976.7801	2497.8818	1712	828.4
976.9081	2499.2231	1713	830.75
977.036	2500.5637	1706.35	821.75
977.164	2501.9035	1709.7	825.05
977.2918	2503.2427	1703.35	817
977.4197	2504.5812	1696.1	815.2
977.5475	2505.919	1691.45	803.15
977.6753	2507.256	1706.15	824.95
977.8031	2508.5924	1695.4	811.85
977.9308	2509.9281	1705	817
978.0585	2511.2631	1691.8	811.45
978.1861	2512.5974	1690.2	808.4
978.3137	2513.9309	1682.2	799
978.4413	2515.2638	1714.1	805.8
978.5689	2516.596	1682.8	799.4
978.6964	2517.9275	1683.05	799.15
978.8239	2519.2583	1683.35	799.55
978.9513	2520.5884	1683.25	798.1
979.0788	2521.9178	1668.3	786.5
979.2062	2523.2465	1670.65	790.9
979.3335	2524.5745	1669.05	787.4
979.4608	2525.9018	1663.3	781.85
979.5881	2527.2284	1656.05	774.95
979.7154	2528.5543	1663.2	781.9
979.8426	2529.8796	1656.8	773.6
979.9698	2531.2041	1659.6	774.6
980.0969	2532.5279	1661.1	778.65
980.224	2533.851	1664.95	781.3
980.3511	2535.1735	1662.7	781.85
980.4781	2536.4952	1661.8	782.45
980.6052	2537.8163	1650.85	767.95
980.7321	2539.1366	1649.5	768.8
980.8591	2540.4562	1643.25	760
980.986	2541.7752	1651.7	768.3
981.1129	2543.0935	1648.4	767.6
981.2397	2544.411	1650.2	767.5
981.3665	2545.7279	1642.85	761.1
981.4933	2547.0441	1644.7	761.75
981.62	2548.3596	1652.2	765.75
981.7467	2549.6744	1643.65	761.7
981.8734	2550.9885	1646.3	762.6
982.0001	2552.3019	1639.95	757.55
982.1267	2553.6146	1638.9	756.3
982.2532	2554.9266	1634.45	753
982.3798	2556.2379	1631.25	747.7
982.5063	2557.5485	1630.1	750.4
982.6327	2558.8585	1635.3	745.75
982.7592	2560.1677	1634.85	748.05
982.8856	2561.4762	1627.3	743.55
983.0119	2562.7841	1633.4	749.2
983.1383	2564.0913	1619.45	737.75
983.2646	2565.3977	1621.5	738.4
983.3908	2566.7035	1623.1	738.9
983.517	2568.0086	1623.5	739.5
983.6432	2569.313	1616.4	733.5
983.7694	2570.6167	1619.1	731.95
983.8955	2571.9197	1620	739.5
984.0216	2573.222	1624.95	740.5
984.1476	2574.5236	1616.35	732.5
984.2737	2575.8246	1614.2	728.55
984.3996	2577.1248	1618.85	733.25
984.5256	2578.4244	1613.45	731
984.6515	2579.7232	1618.95	736.85
984.7774	2581.0214	1648.9	729.2
984.9032	2582.3189	1613	731.8
985.029	2583.6157	1625.6	738.5
985.1548	2584.9118	1605.85	724.2
985.2806	2586.2072	1604.8	722.85
985.4063	2587.5019	1608	725.25
985.5319	2588.7959	1606.25	723.5
985.6576	2590.0893	1613.55	728.3
985.7832	2591.3819	1609.05	726.8
985.9087	2592.6739	1609.05	726.2
986.0343	2593.9652	1611.7	727.6
986.1597	2595.2557	1614.4	731.8
986.2852	2596.5456	1608.45	723.45
986.4106	2597.8348	1612.2	731.05
986.536	2599.1234	1601.4	717.9
986.6614	2600.4112	1609.35	726.4
986.7867	2601.6983	1612.95	726.55
986.912	2602.9848	1608.35	726.4
987.0372	2604.2705	1617.55	727.15
987.1624	2605.5556	1599.95	717.3
987.2876	2606.84	1599.45	715.9
987.4128	2608.1237	1595.95	712.1
987.5379	2609.4067	1610.25	728.7
987.6629	2610.689	1607.1	715.15
987.788	2611.9707	1598.35	712.05
987.913	2613.2516	1591.2	704.65
988.0379	2614.5319	1581.8	701.05
988.1629	2615.8115	1581.05	697.55
988.2878	2617.0903	1580.4	697.35
988.4126	2618.3685	1576.2	693.45
988.5375	2619.6461	1571.3	689.75
988.6622	2620.9229	1580.3	699.3
988.787	2622.199	1571.05	687.9
988.9117	2623.4745	1570.55	687.35
989.0364	2624.7493	1568.35	688.55
989.161	2626.0234	1572.3	689.1
989.2857	2627.2968	1560.75	678.1
989.4102	2628.5695	1563.95	679.9
989.5348	2629.8415	1560.2	678.6
989.6593	2631.1128	1564.5	681.6
989.7837	2632.3835	1561.35	680.15
989.9082	2633.6535	1561.7	679.6
990.0326	2634.9228	1557.75	675.15
990.1569	2636.1914	1558	676.85
990.2812	2637.4593	1555.75	670
990.4055	2638.7265	1557.1	674.5
990.5298	2639.9931	1548.6	667.7
990.654	2641.259	1549	663.65
990.7782	2642.5242	1544.7	661.75
990.9023	2643.7887	1544	662.05
991.0264	2645.0525	1546	664.55
991.1505	2646.3156	1541.5	657.3
991.2745	2647.5781	1537.6	655.2
991.3985	2648.8398	1532.9	650.3
991.5225	2650.1009	1565.75	644.4
991.6464	2651.3613	1539.85	656.2
991.7703	2652.6211	1524.6	641.15
991.8942	2653.8801	1528.8	649.85
992.018	2655.1385	1531.6	647
992.1418	2656.3961	1529.85	646.75
992.2655	2657.6531	1520.1	638.15
992.3892	2658.9094	1532.9	649.5
992.5129	2660.1651	1527.75	646.25
992.6366	2661.42	1535.2	652.6
992.7602	2662.6743	1529.5	644
992.8837	2663.9279	1531.55	649.25
993.0073	2665.1808	1534.5	652.75
993.1307	2666.433	1533.5	648.7
993.2542	2667.6846	1536.8	656.85
993.3776	2668.9354	1539.05	656.95
993.501	2670.1856	1539.2	655.1
993.6244	2671.4351	1541.2	659.6
993.7477	2672.6839	1546.95	663.9
993.8709	2673.9321	1545.15	663.4
993.9942	2675.1795	1554.2	670.95
994.1174	2676.4263	1550.5	668.65
994.2405	2677.6724	1546.3	664.45
994.3637	2678.9179	1544.55	662.85
994.4868	2680.1626	1543.25	661.5
994.6098	2681.4067	1541.85	658.6
994.7328	2682.6501	1547.4	665.85
994.8558	2683.8928	1539.8	657.3
994.9788	2685.1348	1538.45	658.25
995.1017	2686.3761	1527.7	646.05
995.2245	2687.6168	1522.8	640.95
995.3474	2688.8568	1522.1	641.55
995.4702	2690.0961	1513.4	632.1
995.5929	2691.3348	1516.75	633.3
995.7156	2692.5727	1507.95	624.25
995.8383	2693.81	1510.05	627.55
995.961	2695.0466	1514	632.5
996.0836	2696.2826	1515.35	631.5
996.2062	2697.5178	1516.45	631.95
996.3287	2698.7524	1515	631.65
996.4512	2699.9863	1509.9	625.55
996.5737	2701.2195	1515.2	633.15
996.6961	2702.452	1521.8	639.05
996.8185	2703.6839	1511.2	627.25
996.9408	2704.9151	1525.95	645.65
997.0631	2706.1456	1533.8	651.5
997.1854	2707.3755	1540.4	657.95
997.3077	2708.6046	1538.75	654.65
997.4299	2709.8331	1543.45	660.95
997.552	2711.0609	1552.3	669.15
997.6742	2712.2881	1558.6	675.95
997.7963	2713.5145	1569.1	683
997.9183	2714.7403	1570	688.4
998.0403	2715.9654	1583.5	699.75
998.1623	2717.1899	1607.75	710.75
998.2842	2718.4136	1606.2	724.9
998.4062	2719.6367	1614.05	729.85
998.528	2720.8591	1626.5	738.85
998.6498	2722.0809	1629.4	745.8
998.7716	2723.3019	1644.1	760.9
998.8934	2724.5223	1656.15	770.7
999.0151	2725.7421	1662.05	779.4
999.1368	2726.9611	1673.65	790.05
999.2584	2728.1795	1661.6	773.5
999.38	2729.3972	1652.5	770.45
999.5016	2730.6142	1650.25	755.95
999.6231	2731.8306	1628.2	742.75
999.7446	2733.0462	1611.95	727.4
999.8661	2734.2612	1608.4	720.9
999.9875	2735.4756	1581.4	697.75
1000.1089	2736.6892	1567.4	683.35
1000.2302	2737.9022	1546.45	666.25
1000.3515	2739.1145	1538.35	655.8
1000.4728	2740.3262	1533.7	645.15
1000.594	2741.5372	1524	642.35
1000.7152	2742.7475	1503.95	621.55
1000.8363	2743.9571	1497.5	612.85
1000.9575	2745.1661	1487.9	600.15
1001.0785	2746.3744	1478.15	595.15
1001.1996	2747.582	1472.3	589.95
1001.3206	2748.7889	1459.55	577.1
1001.4415	2749.9952	1449.9	566.6
1001.5625	2751.2008	1445.8	563.95
1001.6833	2752.4057	1449	565.55
1001.8042	2753.61	1447.85	565.25
1001.925	2754.8136	1435.4	551
1002.0458	2756.0165	1430	546.75
1002.1665	2757.2188	1432.1	550.15
1002.2872	2758.4204	1439.85	557.8
1002.4078	2759.6213	1438.6	553.9
1002.5285	2760.8215	1440.2	553.3
1002.649	2762.0211	1436.55	551
1002.7696	2763.22	1438.65	552.75
1002.8901	2764.4182	1429.25	544.85
1003.0106	2765.6158	1427.25	542.8
1003.131	2766.8127	1419.3	535.3
1003.2514	2768.009	1414.7	532.5
1003.3717	2769.2045	1416.35	532.6
1003.492	2770.3994	1418.65	534.2
1003.6123	2771.5936	1415	530.8
1003.7325	2772.7872	1407.55	527.35
1003.8527	2773.9801	1410.95	525.65
1003.9729	2775.1723	1422.5	522.8
1004.093	2776.3639	1404.2	524.2
1004.2131	2777.5548	1405.3	519.75
1004.3331	2778.745	1402.95	519.25
1004.4531	2779.9346	1405.25	522.45
1004.5731	2781.1235	1403.55	520.05
1004.693	2782.3117	1402.8	519.7
1004.8129	2783.4992	1407.15	524
1004.9328	2784.6861	1407	525.15
1005.0526	2785.8723	1416.8	533.1
1005.1723	2787.0579	1423.7	540.25
1005.2921	2788.2428	1416.85	534.65
1005.4118	2789.427	1426.95	545.7
1005.5314	2790.6106	1425.25	544.05
1005.651	2791.7935	1433.55	549.6
1005.7706	2792.9757	1439.35	558.05
1005.8902	2794.1573	1453.85	569.95
1006.0097	2795.3382	1461.95	579.6
1006.1291	2796.5184	1469.25	590.45
1006.2485	2797.698	1480.95	597.35
1006.3679	2798.8769	1491	609
1006.4873	2800.0551	1498.55	617.05
1006.6066	2801.2327	1515.55	630.55
1006.7258	2802.4096	1528	646.5
1006.8451	2803.5859	1531.85	647.85
1006.9642	2804.7615	1553.4	669.8
1007.0834	2805.9364	1565.9	684.95
1007.2025	2807.1106	1601.75	719.1
1007.3216	2808.2842	1625.25	740.5
1007.4406	2809.4572	1645.2	761.7
1007.5596	2810.6294	1673.45	790.1
1007.6785	2811.801	1704.85	824.3
1007.7975	2812.972	1739.65	856.8
1007.9163	2814.1423	1781.1	898.3
1008.0352	2815.3119	1827.7	946.5
1008.154	2816.4808	1875.2	994.5
1008.2727	2817.6491	1923.95	1039.8
1008.3914	2818.8167	1966.1	1084.5
1008.5101	2819.9837	2026.15	1139.5
1008.6288	2821.15	2066.6	1183.1
1008.7474	2822.3157	2124.35	1245.5
1008.8659	2823.4807	2184.25	1302.5
1008.9844	2824.645	2246	1361.8
1009.1029	2825.8086	2299.35	1417.45
1009.2214	2826.9716	2351.35	1471.75
1009.3398	2828.134	2402.95	1521.2
1009.4581	2829.2957	2452.95	1569.8
1009.5764	2830.4567	2476.65	1595.45
1009.6947	2831.617	2508.55	1626.1
1009.813	2832.7767	2523.45	1642.8
1009.9312	2833.9358	2532.5	1651.35
1010.0493	2835.0941	2526.3	1641.95
1010.1675	2836.2519	2512	1632.2
1010.2855	2837.4089	2490.65	1606.4
1010.4036	2838.5653	2465.85	1583.7
1010.5216	2839.7211	2458.1	1579.15
1010.6396	2840.8761	2451.9	1567.65
1010.7575	2842.0306	2461.55	1579.8
1010.8754	2843.1843	2479.75	1597.4
1010.9932	2844.3374	2507.35	1625.35
1011.111	2845.4899	2540.95	1655.7
1011.2288	2846.6417	2593.25	1711.8
1011.3465	2847.7928	2647.6	1767.1
1011.4642	2848.9433	2718.15	1836.3
1011.5818	2850.0931	2763.4	1882.8
1011.6995	2851.2422	2840.7	1957.5
1011.817	2852.3907	2907.4	2024.5
1011.9345	2853.5385	2957.55	2073.55
1012.052	2854.6857	3017.05	2105.85
1012.1695	2855.8323	3051.75	2170.35
1012.2869	2856.9781	3106.3	2224.1
1012.4042	2858.1233	3144.35	2264.75
1012.5216	2859.2679	3202.4	2321.7
1012.6389	2860.4118	3268.1	2385.7
1012.7561	2861.555	3294.15	2409.45
1012.8733	2862.6976	3338.6	2455.6
1012.9905	2863.8395	3368.25	2485
1013.1076	2864.9808	3416.4	2535.2
1013.2247	2866.1214	3438.55	2557.25
1013.3417	2867.2614	3439.1	2555.7
1013.4587	2868.4007	3456.95	2573.35
1013.5757	2869.5393	3483	2597.65
1013.6926	2870.6773	3487.6	2601.6
1013.8095	2871.8146	3512.6	2624.8
1013.9263	2872.9513	3503.75	2620.3
1014.0431	2874.0874	3494.8	2611.55
1014.1599	2875.2227	3505.35	2621.95
1014.2766	2876.3574	3477.35	2593.95
1014.3933	2877.4915	3455.9	2574.2
1014.51	2878.6249	3433.5	2550.4
1014.6266	2879.7577	3391.5	2509.95
1014.7431	2880.8898	3388.45	2493.3
1014.8596	2882.0212	3361.25	2480
1014.9761	2883.152	3353.9	2470.7
1015.0925	2884.2821	3345.7	2466.4
1015.2089	2885.4116	3340.65	2457.1
1015.3253	2886.5405	3331.35	2449.6
1015.4416	2887.6686	3347.1	2461.6
1015.5579	2888.7962	3344.8	2463.95
1015.6741	2889.923	3351.05	2470.5
1015.7903	2891.0493	3364.25	2484.4
1015.9065	2892.1748	3369.4	2486.9
1016.0226	2893.2997	3384.15	2501.35
1016.1387	2894.424	3384.8	2504.55
1016.2547	2895.5476	3406.5	2523.75
1016.3707	2896.6706	3432.7	2550.05
1016.4866	2897.7929	3447.45	2565.3
1016.6025	2898.9145	3470.65	2587.5
1016.7184	2900.0355	3485.7	2601.75
1016.8342	2901.1559	3527.7	2644.15
1016.95	2902.2756	3552.25	2672.1
1017.0658	2903.3946	3583.4	2703.4
1017.1815	2904.513	3602.65	2715.5
1017.2971	2905.6308	3645.3	2764.2
1017.4127	2906.7479	3666.55	2781.05
1017.5283	2907.8643	3674.7	2792.15
1017.6439	2908.9801	3677.85	2797.25
1017.7594	2910.0953	3706.05	2824
1017.8748	2911.2098	3707.3	2821.45
1017.9902	2912.3236	3721.75	2834.1
1018.1056	2913.4368	3690.1	2806.55
1018.2209	2914.5494	3679.15	2797.45
1018.3362	2915.6613	3647.35	2757.35
1018.4515	2916.7725	3615	2728.85
1018.5667	2917.8831	3593.8	2711
1018.6819	2918.9931	3551.3	2667.3
1018.797	2920.1024	3518.7	2634.95
1018.9121	2921.211	3501.2	2619.55
1019.0271	2922.319	3482.6	2601.5
1019.1421	2923.4264	3468.05	2585.8
1019.2571	2924.5331	3461.45	2580.35
1019.372	2925.6391	3456.35	2575.5
1019.4869	2926.7445	3446.1	2566.1
1019.6017	2927.8493	3446.7	2566.9
1019.7165	2928.9534	3450.35	2566.95
1019.8313	2930.0569	3465.35	2580.7
1019.946	2931.1597	3467.35	2584.8
1020.0606	2932.2619	3466.4	2584.65
1020.1753	2933.3634	3472.15	2588.95
1020.2899	2934.4643	3464.85	2576.65
1020.4044	2935.5645	3470.7	2583.35
1020.5189	2936.6641	3457.1	2570.4
1020.6334	2937.763	3417.15	2535.95
1020.7478	2938.8613	3399.3	2515.7
1020.8622	2939.959	3351.65	2462.6
1020.9765	2941.056	3295.9	2414.8
1021.0908	2942.1523	3226.4	2342.3
1021.2051	2943.248	3151.45	2268.5
1021.3193	2944.3431	3053.1	2173.25
1021.4334	2945.4375	2961.2	2079.1
1021.5476	2946.5313	2882.3	2002.2
1021.6617	2947.6244	2783.6	1902.95
1021.7757	2948.7169	2697.25	1815.3
1021.8897	2949.8087	2581.15	1699.45
1022.0037	2950.8999	2493.05	1610.8
1022.1176	2951.9904	2422.3	1541.85
1022.2315	2953.0803	2343.5	1459.95
1022.3453	2954.1696	2289.4	1406.35
1022.4591	2955.2582	2223.9	1342.4
1022.5728	2956.3462	2191.95	1309.5
1022.6865	2957.4335	2139.65	1256.8
1022.8002	2958.5202	2111.8	1227.65
1022.9138	2959.6062	2087.45	1206.25
1023.0274	2960.6916	2060.4	1178.75
1023.141	2961.7764	2036.15	1153.8
1023.2545	2962.8605	2008.65	1125.55
1023.3679	2963.9439	2005.4	1124.1
1023.4813	2965.0267	2004.05	1121.85
1023.5947	2966.1089	2011.55	1104.7
1023.708	2967.1905	1980.85	1099.45
1023.8213	2968.2714	1981.65	1102.8
1023.9346	2969.3516	1980.15	1097.65
1024.0478	2970.4312	1986.4	1093.9
1024.1609	2971.5102	1981.15	1099.55
1024.274	2972.5885	1983.2	1102.2
1024.3871	2973.6662	2000.7	1114.3
1024.5002	2974.7432	1976.75	1096.15
1024.6132	2975.8196	1990.6	1107.05
1024.7261	2976.8954	1983.65	1101.8
1024.839	2977.9705	1978.9	1095.35
1024.9519	2979.045	1970.7	1088.85
1025.0647	2980.1188	1957.65	1077.8
1025.1775	2981.192	1931.9	1053.45
1025.2902	2982.2645	1916.65	1033.7
1025.4029	2983.3364	1901.3	1019.1
1025.5156	2984.4077	1871.2	989.15
1025.6282	2985.4783	1850	961.85
1025.7407	2986.5483	1805.3	923.55
1025.8532	2987.6177	1780.05	899.4
1025.9657	2988.6864	1749.05	864.65
1026.0782	2989.7545	1716.85	833.2
1026.1906	2990.8219	1691.6	809.5
1026.3029	2991.8887	1661.7	777.9
1026.4152	2992.9548	1629.4	747.5
1026.5275	2994.0204	1589.05	708.7
1026.6397	2995.0852	1566.55	686.9
1026.7519	2996.1495	1547.45	665
1026.864	2997.2131	1514.8	630.7
1026.9761	2998.276	1492.55	610.05
1027.0882	2999.3383	1469.1	586.95
1027.2002	3000.4	1445.8	562.45
1027.3122	3001.4611	1433.95	552.85
1027.4241	3002.5215	1410.35	528.6
1027.536	3003.5812	1399.05	516.95
1027.6478	3004.6404	1379.05	496.3
1027.7596	3005.6989	1377.55	494.2
1027.8714	3006.7567	1359.25	478.25
1027.9831	3007.8139	1375.85	467.4
1028.0947	3008.8705	1336.05	456.1
1028.2064	3009.9264	1344.4	445.2
1028.3179	3010.9818	1322.45	440.3
1028.4295	3012.0364	1316.75	434.6
1028.541	3013.0905	1312.65	429
1028.6524	3014.1439	1308.4	426.95
1028.7638	3015.1966	1298.9	417.75
1028.8752	3016.2487	1299.45	416.45
1028.9865	3017.3002	1286.55	402.5
1029.0978	3018.3511	1285.7	406.25
1029.209	3019.4013	1282.1	400.25
1029.3202	3020.4509	1284.7	404
1029.4314	3021.4998	1284.55	399.65
1029.5425	3022.5481	1277.7	396.35
1029.6535	3023.5958	1279.95	398.1
1029.7645	3024.6428	1279.25	396.75
1029.8755	3025.6892	1275.55	394.25
1029.9864	3026.735	1276.95	393.6
1030.0973	3027.7802	1274	392.75
1030.2082	3028.8247	1276.6	395.4
1030.319	3029.8685	1274.9	392.1
1030.4297	3030.9118	1281.3	398.9
1030.5404	3031.9544	1275.8	393.4
1030.6511	3032.9963	1271.8	389.65
1030.7617	3034.0376	1281.2	400.85
1030.8723	3035.0783	1288.65	404
1030.9829	3036.1184	1281.95	401.75
1031.0934	3037.1578	1289.45	407.2
1031.2038	3038.1966	1289.5	406.7
1031.3142	3039.2348	1290.15	408.4
1031.4246	3040.2723	1300.3	408.6
1031.5349	3041.3092	1290.6	409.6
1031.6452	3042.3455	1288.35	407.1
1031.7554	3043.3811	1293.55	410.9
1031.8656	3044.4161	1282	400.1
1031.9758	3045.4505	1288.65	408.1
1032.0859	3046.4842	1290.9	408.15
1032.1959	3047.5173	1282.25	399.05
1032.3059	3048.5498	1282.1	401.9
1032.4159	3049.5816	1274.05	391.15
1032.5258	3050.6128	1280.2	395.3
1032.6357	3051.6434	1272.85	392.2
1032.7455	3052.6734	1270.6	386.45
1032.8553	3053.7027	1268.7	385.95
1032.9651	3054.7314	1258.7	378.5
1033.0748	3055.7594	1257	375.6
1033.1845	3056.7868	1259.05	376.8
1033.2941	3057.8136	1253.6	371.3
1033.4037	3058.8398	1252.05	372.05
1033.5132	3059.8653	1249.3	368.65
1033.6227	3060.8902	1244.45	362.35
1033.7321	3061.9145	1244	363.5
1033.8415	3062.9381	1241.25	360.9
1033.9509	3063.9612	1253.05	356.4
1034.0602	3064.9835	1234.25	353.9
1034.1694	3066.0053	1236.75	350.7
1034.2787	3067.0264	1225.05	344.8
1034.3878	3068.0469	1225.55	343.35
1034.497	3069.0668	1225.65	340.45
1034.6061	3070.086	1211.85	331.1
1034.7151	3071.1046	1218.45	334.6
1034.8241	3072.1226	1203.2	320.2
1034.9331	3073.1399	1197.55	315.15
1035.042	3074.1567	1191.6	309.25
1035.1508	3075.1727	1187.75	304.25
1035.2597	3076.1882	1174.35	292.45
1035.3684	3077.203	1175.05	291.95
1035.4772	3078.2173	1166.55	283
1035.5859	3079.2308	1159.85	276.4
1035.6945	3080.2438	1155.1	271.8
1035.8031	3081.2561	1142.6	261.5
1035.9117	3082.2678	1142.15	261.2
1036.0202	3083.2789	1128.5	245.9
1036.1286	3084.2893	1127.7	246.1
1036.2371	3085.2991	1127.5	246.65
1036.3454	3086.3083	1123.95	238.75
1036.4538	3087.3169	1115.1	234.6
1036.562	3088.3248	1111.3	229.1
1036.6703	3089.3321	1106.7	223.2
1036.7785	3090.3388	1094.45	214.25
1036.8866	3091.3449	1097	213.75
1036.9948	3092.3503	1090.7	208.1
1037.1028	3093.3551	1089.25	208.4
1037.2108	3094.3593	1088.05	207.9
1037.3188	3095.3629	1086.4	205.95
1037.4267	3096.3658	1083.45	199
1037.5346	3097.3681	1078.35	196.35
1037.6425	3098.3698	1078.1	195
1037.7503	3099.3708	1079.55	190.7
1037.858	3100.3713	1070.4	188.8
1037.9657	3101.3711	1070.9	189.3
1038.0734	3102.3702	1200.75	181.8
1038.181	3103.3688	1068.25	184.75
1038.2886	3104.3667	1060.5	178.85
1038.3961	3105.364	1059.6	178.45
1038.5036	3106.3607	1054.85	173.05
1038.611	3107.3568	1055.8	172.75
1038.7184	3108.3522	1051.15	170.9
1038.8257	3109.347	1049.7	166.55
1038.933	3110.3412	1049.4	163.7
1039.0403	3111.3348	1045.45	164.25
1039.1475	3112.3277	1042.5	161.1
1039.2547	3113.32	1046.15	163.85
1039.3618	3114.3117	1038	154.1
1039.4689	3115.3028	1040.15	159.15
1039.5759	3116.2932	1042.75	159.15
1039.6829	3117.2831	1041.7	154
1039.7898	3118.2723	1035.25	155.2
1039.8967	3119.2608	1031.2	150.05
1040.0035	3120.2488	1031	149
1040.1103	3121.2361	1028.9	148.05
1040.2171	3122.2229	1027	144.9
1040.3238	3123.209	1026.2	144.35
1040.4305	3124.1944	1023.05	140.9
1040.5371	3125.1793	1026.1	145
1040.6437	3126.1635	1023.65	142.7
1040.7502	3127.1471	1022.25	140.5
1040.8567	3128.1301	1018.9	136.85
1040.9631	3129.1125	1018.45	137.1
1041.0695	3130.0942	1021.45	139.3
1041.1759	3131.0753	1030.05	139.75
1041.2822	3132.0558	1021.45	136.2
1041.3884	3133.0357	1012.7	130
1041.4946	3134.015	1014.25	131.3
1041.6008	3134.9936	1012.75	130.8
1041.7069	3135.9716	1029.25	125.75
1041.813	3136.949	1011.9	129.45
1041.919	3137.9258	1029.3	132.7
1042.025	3138.902	1013.85	126.55
1042.1309	3139.8775	1004.75	123.85
1042.2368	3140.8524	1006.15	124.05
1042.3427	3141.8267	1008.55	124.35
1042.4485	3142.8004	1006.15	123.55
1042.5542	3143.7735	1010.9	124.25
1042.6599	3144.7459	1009.7	125.7
1042.7656	3145.7178	1002.9	121
1042.8712	3146.689	1001.5	120.3
1042.9768	3147.6596	1000.15	117.6
1043.0823	3148.6295	995.8	114.1
1043.1878	3149.5989	1001.4	121.95
1043.2932	3150.5676	998.1	119.55
1043.3986	3151.5357	995.1	113.95
1043.5039	3152.5032	997.8	116.75
1043.6092	3153.4701	993	111.85
1043.7145	3154.4364	996.7	113.35
1043.8197	3155.402	990.8	110.65
1043.9248	3156.367	996.35	113.05
1044.03	3157.3315	1021.7	108.35
1044.135	3158.2952	989.65	107.9
1044.24	3159.2584	989.15	106.5
1044.345	3160.221	992.05	109.15
1044.4499	3161.1829	989.55	110.4
1044.5548	3162.1442	992.2	110.55
1044.6596	3163.105	986.5	106.9
1044.7644	3164.065	985.65	105.1
1044.8692	3165.0245	986.05	102.7
1044.9739	3165.9834	983.9	104
1045.0785	3166.9416	983.2	101.15
1045.1831	3167.8993	983.3	101.15
1045.2877	3168.8563	980.95	96.75
1045.3922	3169.8127	980.4	100.3
1045.4966	3170.7684	982.1	99.9
1045.6011	3171.7236	983.35	101.55
1045.7054	3172.6782	979.65	96.7
1045.8098	3173.6321	980.3	97.75
1045.914	3174.5854	984.3	96.05
1046.0183	3175.5381	976.95	93.6
1046.1224	3176.4902	979.25	97.25
1046.2266	3177.4417	981.1	99.15
1046.3307	3178.3926	978.75	98.65
1046.4347	3179.3428	977.15	98
1046.5387	3180.2924	975.15	94.55
1046.6427	3181.2415	973.75	90.65
1046.7466	3182.1899	974.1	92.05
1046.8504	3183.1377	975.3	93.3
1046.9542	3184.0848	973.4	90.65
1047.058	3185.0314	973.55	89.1
1047.1617	3185.9773	971.75	90.15
1047.2654	3186.9227	970.55	85.15
1047.369	3187.8674	970.1	88.95
1047.4726	3188.8115	973.85	89.25
1047.5761	3189.755	967.6	87.5
1047.6796	3190.6979	971.65	89
1047.783	3191.6402	965.4	84.05
1047.8864	3192.5818	970.3	88.7
1047.9898	3193.5229	986.45	83.05
1048.0931	3194.4633	967.55	86.25
1048.1963	3195.4031	966.85	84.65
1048.2995	3196.3423	965.2	83.2
1048.4027	3197.2809	964.95	84.7
1048.5058	3198.2189	966.25	82.2
1048.6089	3199.1563	981.3	81.75
1048.7119	3200.0931	962.3	78.85
1048.8148	3201.0292	961.3	79.05
1048.9178	3201.9648	964.65	83.8
1049.0206	3202.8997	966.5	82.95
1049.1235	3203.834	961.25	80.85
1049.2262	3204.7677	962.45	83.1
1049.329	3205.7008	962.15	77.9
1049.4317	3206.6333	960.1	79.75
1049.5343	3207.5652	963.9	78.8
1049.6369	3208.4964	960.5	80
1049.7394	3209.4271	956.6	74.95
1049.8419	3210.3571	956.95	77.35
1049.9444	3211.2865	960.35	78.3
1050.0468	3212.2154	955.6	73.95
1050.1491	3213.1436	959.2	75
1050.2514	3214.0712	963.55	78.05
1050.3537	3214.9982	957.75	76.75
1050.4559	3215.9246	956.35	73.45
1050.5581	3216.8503	957.4	74.45
1050.6602	3217.7755	955	72.7
1050.7623	3218.7001	957.8	76.45
1050.8643	3219.624	952.1	70.6
1050.9663	3220.5473	955.15	75.85
1051.0682	3221.4701	957.6	74.85
1051.1701	3222.3922	952	69.4
1051.2719	3223.3137	955.8	74.8
1051.3737	3224.2346	951.75	70.65
1051.4754	3225.1549	951.2	71.15
1051.5771	3226.0746	951.4	69.4
1051.6788	3226.9937	950	66.7
1051.7804	3227.9121	951.1	69.2
1051.8819	3228.83	948.1	66.4
1051.9834	3229.7473	952.05	71.3
1052.0849	3230.6639	949.55	69.05
1052.1863	3231.5799	949.05	67.95
1052.2876	3232.4954	948.85	67.05
1052.3889	3233.4102	946.6	67.05
1052.4902	3234.3244	947.45	65.15
1052.5914	3235.238	946.1	64.55
1052.6926	3236.151	973.45	68.85
1052.7937	3237.0634	945.35	66.55
1052.8948	3237.9752	943.85	61.45
1052.9958	3238.8864	947.05	65.4
1053.0968	3239.797	945.9	64.15
1053.1977	3240.7069	943	61.15
1053.2986	3241.6163	943.35	60.2
1053.3994	3242.5251	944.75	61.35
1053.5002	3243.4332	945.1	64.3
1053.6009	3244.3408	944	60
1053.7016	3245.2477	940.7	60.6
1053.8022	3246.154	941.45	57.85
1053.9028	3247.0598	945.4	64.05
1054.0034	3247.9649	941.75	62.4
1054.1039	3248.8694	940.05	59.25
1054.2043	3249.7733	941.55	59.95
1054.3047	3250.6766	940.3	61.05
1054.4051	3251.5793	938.05	54.75
1054.5054	3252.4814	940.65	60.6
1054.6056	3253.3829	938.7	58.15
1054.7058	3254.2838	936.5	55.1
1054.806	3255.1841	935.4	53
1054.9061	3256.0838	935.1	52.95
1055.0061	3256.9829	933.75	51.4
1055.1062	3257.8814	940.45	56.95
1055.2061	3258.7792	936.8	55.45
1055.306	3259.6765	936.2	53.85
1055.4059	3260.5731	935.9	54.4
1055.5057	3261.4692	933.2	52.5
1055.6055	3262.3647	932.75	50.55
1055.7052	3263.2595	932.4	50.75
1055.8049	3264.1538	929.4	48.55
1055.9045	3265.0474	930.7	48.9
1056.0041	3265.9404	929.5	48.85
1056.1036	3266.8329	929.75	50.1
1056.2031	3267.7247	934.8	42.8
1056.3025	3268.616	923.35	40.3
1056.4019	3269.5066	926.35	43.3
1056.5013	3270.3966	925.45	41.4
1056.6005	3271.286	920.65	39.75
