Software Version:	3.9.2.0
Unit SN:	10000200
Spectrometer SN:	6960
Date:	3/14/2024 2:28:17 PM
Data Line Index:	25
Spectral Points:	2048
Integration time (ms):	125
Averages:	20
Delay (ms):	30000
Sequence Number:	1
Processing:	dark subtract
Laser Power (mW):	300
Laser Current (mA):	824
Laser Diode Temp (C):	25
Laser Case Temp (C):	29.2
System Temp (C):	29.2
Spectrometer Temp (C):	27
CCD Temp (C):	0.018
Secondary Temp (C):	20.007
Heatsink Temp (C):	25.149
CCDPCB Temp (C):	38.541
SecondaryPCB Temp (C):	36.196

Wavelength	RamanShift	Raw Counts	Dark Subtracted
787.061	30.1047	455.5	46.45
787.2016	32.3739	456.95	51.65
787.3422	34.6426	460.7	54.45
787.4828	36.9109	469.35	61.4
787.6235	39.1787	474.25	61
787.7642	41.4461	483.1	65.7
787.9049	43.7131	493.55	70.3
788.0456	45.9796	502.7	75.8
788.1863	48.2456	513.2	83.35
788.3271	50.5112	524.1	90.55
788.4679	52.7764	529.75	95
788.6087	55.0411	537.95	98.1
788.7496	57.3054	551.25	106.15
788.8904	59.5692	559.2	109
789.0313	61.8326	575.85	123.45
789.1722	64.0955	582.7	124.65
789.3132	66.3579	601.85	137.55
789.4541	68.6199	618.65	152.95
789.5951	70.8815	651	184.35
789.7361	73.1426	723	248.6
789.8771	75.4032	900.65	423.05
790.0181	77.6634	1355.9	872.85
790.1592	79.9231	2433.75	1945.8
790.3003	82.1824	4799.85	4302.35
790.4414	84.4412	9143.3	8628.05
790.5825	86.6995	15347.55	14813.55
790.7237	88.9574	21549.35	20996.85
790.8648	91.2148	26030.3	25462.05
791.006	93.4717	28207.4	27631.6
791.1472	95.7282	28757.85	28175.25
791.2885	97.9842	28764.95	28181.4
791.4297	100.2398	28266.25	27680.8
791.571	102.4949	27718.45	27131.6
791.7123	104.7495	26988.95	26392.1
791.8536	107.0036	26123.5	25527.1
791.9949	109.2573	25302.05	24707.9
792.1363	111.5105	24515.9	23921.55
792.2777	113.7632	23656.15	23060
792.4191	116.0154	22913.2	22305.55
792.5605	118.2672	22373.95	21773.75
792.7019	120.5185	21812.3	21211.3
792.8434	122.7693	21374.35	20773.55
792.9849	125.0197	21019.2	20414.95
793.1264	127.2696	20704.85	20096.15
793.2679	129.519	20539.8	19927.95
793.4094	131.7679	20360.6	19743.9
793.551	134.0163	20230.1	19613.4
793.6926	136.2642	20086.8	19462.85
793.8342	138.5117	19970.95	19338.85
793.9758	140.7587	19757.4	19130.1
794.1175	143.0052	19584.9	18956.15
794.2591	145.2512	19350.55	18722.5
794.4008	147.4967	19147.45	18517.8
794.5425	149.7417	18991.55	18361.65
794.6842	151.9863	18859	18225.1
794.826	154.2304	18795.1	18155.55
794.9677	156.4739	18660.15	18014.4
795.1095	158.717	18582.4	17939.7
795.2513	160.9596	18437	17790.5
795.3931	163.2017	18196.1	17550.95
795.535	165.4433	17866.25	17212.35
795.6768	167.6844	17492.4	16840.5
795.8187	169.925	17191.9	16533.7
795.9606	172.1651	16764.5	16103.45
796.1025	174.4047	16426.8	15765.3
796.2445	176.6439	16157.75	15493.5
796.3864	178.8825	15844.25	15175.7
796.5284	181.1206	15646.5	14974.65
796.6704	183.3582	15446.95	14770.7
796.8124	185.5954	15305.05	14627.05
796.9544	187.832	15170.85	14490.7
797.0965	190.0681	15130.6	14447.05
797.2386	192.3037	15102.35	14416.65
797.3806	194.5388	15088.65	14402.7
797.5228	196.7734	15109.8	14417.6
797.6649	199.0075	15173.85	14479.05
797.807	201.2411	15308.6	14609.85
797.9492	203.4742	15333.9	14639.2
798.0914	205.7068	15463.5	14763.8
798.2336	207.9389	15552.85	14855.5
798.3758	210.1704	15696.65	14995
798.518	212.4015	15821.1	15119.15
798.6603	214.632	16023.6	15320.1
798.8025	216.862	16228.1	15531.2
798.9448	219.0915	16392.35	15702.6
799.0871	221.3205	16639.7	15953.95
799.2294	223.549	16932.3	16252.2
799.3718	225.777	17292.55	16610.75
799.5141	228.0044	17815.8	17128.25
799.6565	230.2314	18386.95	17707.1
799.7989	232.4578	18917.15	18230.8
799.9413	234.6837	19353	18661.1
800.0837	236.909	19644.45	18949.3
800.2262	239.1339	19630.6	18915.25
800.3687	241.3582	19335.5	18632.9
800.5111	243.582	18864.05	18136.6
800.6536	245.8053	18379.5	17661.5
800.7961	248.0281	17949.05	17233.8
800.9387	250.2503	17611.4	16892.35
801.0812	252.472	17343.25	16616.75
801.2238	254.6932	17161.2	16431.55
801.3664	256.9139	17007.35	16277.55
801.509	259.134	16904.35	16172.75
801.6516	261.3536	16772.5	16040
801.7942	263.5727	16718.5	15985.2
801.9369	265.7912	16560.95	15830.9
802.0795	268.0092	16494.25	15762.25
802.2222	270.2267	16401.35	15665.95
802.3649	272.4436	16302.65	15566.85
802.5076	274.6601	16279.75	15536.25
802.6504	276.8759	16162.3	15426.1
802.7931	279.0913	16169.95	15434.15
802.9359	281.3061	16182.8	15440.6
803.0787	283.5204	16320.3	15575.85
803.2215	285.7341	16429.65	15684.3
803.3643	287.9473	16646.75	15885.4
803.5071	290.16	16901.55	16147.15
803.6499	292.3721	17283.4	16534.85
803.7928	294.5837	17806.45	17056.2
803.9357	296.7947	18204.1	17457.3
804.0786	299.0052	18439.35	17690.55
804.2215	301.2152	18286.05	17536.45
804.3644	303.4246	17878.25	17130
804.5074	305.6334	17249.35	16501.95
804.6503	307.8418	16627.7	15875.6
804.7933	310.0495	16144.15	15390.25
804.9363	312.2568	15846.15	15093.9
805.0793	314.4635	15598.85	14843.8
805.2223	316.6696	15481.3	14725.85
805.3653	318.8752	15478.35	14714.7
805.5084	321.0802	15568.85	14809.65
805.6514	323.2847	15716.65	14961.15
805.7945	325.4887	15742.55	14985.3
805.9376	327.692	15723.2	14962.95
806.0807	329.8949	15594.1	14833.8
806.2238	332.0972	15275.8	14514.95
806.367	334.2989	14956.65	14193.15
806.5101	336.5001	14644.5	13879.05
806.6533	338.7007	14419.15	13654.4
806.7965	340.9008	14258.9	13489
806.9397	343.1003	14137.25	13367.35
807.0829	345.2992	14063.05	13292.7
807.2261	347.4976	14021.75	13252.75
807.3693	349.6955	14038.15	13262.2
807.5126	351.8927	14105.1	13328.5
807.6559	354.0895	14090.3	13303.3
807.7991	356.2856	14112.5	13336.15
807.9424	358.4812	14087.75	13310.9
808.0857	360.6763	14111.65	13335.35
808.2291	362.8707	14108.9	13329.3
808.3724	365.0646	14095.45	13314.15
808.5158	367.258	14056.6	13272.1
808.6591	369.4508	14079.65	13290.9
808.8025	371.643	14120	13331.4
808.9459	373.8346	14076.45	13291.95
809.0893	376.0257	14060.1	13268.3
809.2327	378.2162	13921.15	13129.95
809.3762	380.4062	13823.25	13027.75
809.5196	382.5956	13674.55	12878.35
809.6631	384.7844	13538.85	12742.75
809.8066	386.9726	13418.45	12622.8
809.9501	389.1603	13340.45	12546.5
810.0936	391.3474	13349.55	12513.8
810.2371	393.5339	13271.85	12476.5
810.3806	395.7199	13201.25	12413.9
810.5241	397.9052	13229.15	12444.6
810.6677	400.09	13209.85	12423.35
810.8113	402.2743	13235.55	12447.5
810.9548	404.4579	13284.8	12497.05
811.0984	406.641	13420.9	12635.4
811.2421	408.8235	13653.45	12868.2
811.3857	411.0054	14033.9	13245.7
811.5293	413.1868	14540.3	13748.7
811.673	415.3675	14935.55	14141.75
811.8166	417.5477	15189.55	14395.75
811.9603	419.7273	15247.15	14453.7
812.104	421.9064	15159.65	14356.6
812.2477	424.0848	14988.6	14187.3
812.3914	426.2627	14745.1	13940.9
812.5351	428.4399	14444.6	13640.25
812.6788	430.6166	14042.75	13233.75
812.8226	432.7928	13637.8	12828.3
812.9663	434.9683	13254.65	12449.5
813.1101	437.1432	13001.05	12188.55
813.2539	439.3176	12835.4	12027.75
813.3977	441.4914	12686.35	11876.75
813.5415	443.6645	12660.6	11845.95
813.6853	445.8371	12590.4	11776.95
813.8291	448.0091	12497.8	11687.95
813.973	450.1806	12447.8	11637.15
814.1168	452.3514	12367.9	11554
814.2607	454.5216	12348	11527.5
814.4046	456.6913	12276.4	11460.4
814.5485	458.8603	12281.3	11467.55
814.6924	461.0288	12332.5	11518.2
814.8363	463.1967	12366.65	11551.55
814.9802	465.3639	12488.75	11671.75
815.1241	467.5306	12638.95	11822.25
815.2681	469.6967	12826.25	12008.8
815.412	471.8622	13016.85	12197.55
815.556	474.0271	13202.4	12383.2
815.7	476.1914	13279.1	12457.45
815.844	478.3551	13263.9	12446.25
815.988	480.5182	13177.45	12360.6
816.132	482.6807	13121.1	12302.15
816.276	484.8426	13168.15	12347.3
816.4201	487.0039	13417.7	12597.85
816.5641	489.1647	13805.15	12984.45
816.7082	491.3248	14301.35	13480.05
816.8522	493.4843	14531.3	13713.35
816.9963	495.6432	14545.5	13723.8
817.1404	497.8015	14501.25	13676.75
817.2845	499.9592	14523.5	13702.55
817.4286	502.1163	14480.4	13657.75
817.5727	504.2728	14263.95	13438.05
817.7168	506.4287	13955.95	13132.9
817.861	508.5839	13475.3	12648.6
818.0051	510.7386	13105.55	12282
818.1493	512.8927	12801.05	11972.45
818.2935	515.0461	12630.65	11804.15
818.4377	517.199	12466.35	11639.25
818.5818	519.3512	12357.8	11529.8
818.726	521.5029	12375.9	11542.1
818.8703	523.6539	12361.4	11533.6
819.0145	525.8043	12381.65	11553.25
819.1587	527.9541	12435.35	11604.7
819.303	530.1033	12442.1	11611.65
819.4472	532.2519	12548.75	11719.2
819.5915	534.3999	12707.75	11872
819.7357	536.5472	13013.15	12180.2
819.88	538.694	13568.95	12736.2
820.0243	540.8401	14275.35	13443.55
820.1686	542.9856	14911.5	14076.95
820.3129	545.1305	15124.85	14289.05
820.4572	547.2748	14945.15	14110.25
820.6016	549.4185	14504.4	13669.1
820.7459	551.5615	14042	13207.45
820.8902	553.704	13833.2	12999.95
821.0346	555.8458	13703.05	12869.1
821.1789	557.987	13628.3	12793.4
821.3233	560.1276	13465.4	12628.6
821.4677	562.2675	13322.1	12490.2
821.6121	564.4069	13203.3	12367.75
821.7565	566.5456	13032.05	12198.65
821.9009	568.6837	12848.1	12015.5
822.0453	570.8212	12620.2	11786.3
822.1897	572.958	12377.75	11542
822.3342	575.0942	12179.35	11344.8
822.4786	577.2299	12077.25	11241.55
822.6231	579.3648	12086.4	11249.4
822.7675	581.4992	12212.05	11373.65
822.912	583.6329	12432	11594.7
823.0565	585.766	12697.7	11861.85
823.201	587.8985	12841.95	12005.9
823.3454	590.0304	12884.05	12020.1
823.4899	592.1616	12812.85	11974.25
823.6345	594.2922	12693.15	11854.6
823.779	596.4222	12521.1	11681.55
823.9235	598.5515	12354.6	11515.05
824.068	600.6802	12170.05	11331.1
824.2126	602.8083	11994	11151.55
824.3571	604.9358	11878.75	11035.25
824.5017	607.0626	11755.3	10912.8
824.6462	609.1888	11668.1	10826.4
824.7908	611.3144	11525.9	10682.1
824.9354	613.4393	11351	10510.5
825.08	615.5636	11174.3	10330.65
825.2246	617.6873	11018.2	10176.65
825.3692	619.8103	10958.15	10113.45
825.5138	621.9327	10891.55	10047.35
825.6584	624.0544	10872.6	10028.9
825.803	626.1756	10866.7	10025.2
825.9477	628.2961	10868.3	10025.45
826.0923	630.4159	10765.8	9921.8
826.237	632.5351	10702.4	9857.3
826.3816	634.6537	10628.8	9783.3
826.5263	636.7716	10626.55	9779.05
826.6709	638.8889	10572.55	9726.55
826.8156	641.0056	10600.5	9754.65
826.9603	643.1216	10588.5	9742.95
827.105	645.237	10583.85	9734.65
827.2497	647.3518	10594.55	9749.4
827.3944	649.4659	10621.15	9771.4
827.5391	651.5793	10626.5	9776.4
827.6838	653.6922	10622	9773.8
827.8285	655.8043	10577.65	9731.85
827.9733	657.9159	10536.75	9687.2
828.118	660.0268	10441.5	9589.65
828.2627	662.137	10359.5	9509.85
828.4075	664.2466	10305.3	9452.5
828.5522	666.3556	10269.75	9420.6
828.697	668.4639	10291.05	9437.15
828.8418	670.5716	10321.2	9469.55
828.9865	672.6786	10386.95	9532.5
829.1313	674.785	10463.7	9611.25
829.2761	676.8907	10563.9	9715.05
829.4209	678.9958	10637.9	9786.35
829.5657	681.1002	10620.9	9768.1
829.7105	683.204	10619.35	9762
829.8553	685.3072	10537.75	9686.15
830.0001	687.4097	10442.7	9590.5
830.1449	689.5115	10368.2	9509.9
830.2898	691.6127	10274.4	9420
830.4346	693.7132	10155.1	9300.2
830.5794	695.8131	10097.65	9221.75
830.7243	697.9123	10040.5	9185.3
830.8691	700.0109	9978.75	9124.15
831.014	702.1089	9946.1	9092.7
831.1588	704.2061	9944.65	9089.1
831.3037	706.3028	9959.3	9103.35
831.4486	708.3987	10014.3	9156.6
831.5935	710.4941	10130.25	9274.95
831.7383	712.5887	10328.65	9471.2
831.8832	714.6827	10622.75	9760.65
832.0281	716.7761	11025.75	10169.65
832.173	718.8688	11459.15	10603.55
832.3179	720.9608	11672.05	10810.15
832.4628	723.0522	11724.55	10861.3
832.6077	725.1429	11409.6	10549.45
832.7527	727.233	11028.95	10170.7
832.8976	729.3224	10637.25	9777.6
833.0425	731.4112	10259.95	9401.1
833.1874	733.4993	10035	9173
833.3324	735.5867	9872.4	9012.8
833.4773	737.6735	9781.95	8921.2
833.6222	739.7596	9704.6	8844.5
833.7672	741.845	9669.25	8810.45
833.9122	743.9298	9659.85	8796.85
834.0571	746.014	9668.7	8809.5
834.2021	748.0974	9673.15	8812.95
834.347	750.1802	9685.5	8823.25
834.492	752.2624	9679.55	8818.3
834.637	754.3439	9687.65	8825.75
834.782	756.4247	9734.4	8863.6
834.9269	758.5048	9808.05	8948.6
835.0719	760.5843	9957.85	9096.8
835.2169	762.6631	10243.65	9382
835.3619	764.7413	10686.85	9828.05
835.5069	766.8188	11247.3	10383.55
835.6519	768.8956	11740.1	10876.55
835.7969	770.9718	12068.85	11206.25
835.9419	773.0473	12019	11156.45
836.0869	775.1221	11651.2	10789.7
836.232	777.1962	11236.35	10373.35
836.377	779.2697	11031	10166.3
836.522	781.3426	11132.15	10250.15
836.667	783.4147	11384.65	10522.45
836.8121	785.4862	11732.5	10870.8
836.9571	787.557	11810.3	10945.1
837.1021	789.6271	11427.85	10565.25
837.2472	791.6966	10858.7	9995.75
837.3922	793.7654	10310.8	9447.8
837.5373	795.8335	9952.7	9089.2
837.6823	797.901	9746.8	8883.85
837.8274	799.9678	9672.9	8810
837.9724	802.0339	9685.7	8823.5
838.1175	804.0993	9745.9	8871.6
838.2626	806.1641	9730.5	8865.7
838.4076	808.2282	9662.15	8797
838.5527	810.2916	9543.5	8676.05
838.6978	812.3544	9438.95	8575.85
838.8428	814.4164	9314.95	8450.65
838.9879	816.4778	9290.5	8425.25
839.133	818.5385	9276	8413.3
839.2781	820.5986	9315.3	8450.75
839.4232	822.658	9341.2	8475.4
839.5682	824.7166	9382.65	8520.4
839.7133	826.7747	9490.6	8626.55
839.8584	828.832	9578.75	8713.55
840.0035	830.8886	9715.85	8847.8
840.1486	832.9446	9836.7	8972.75
840.2937	834.9999	9943.55	9079.25
840.4388	837.0545	10062.6	9192.35
840.5839	839.1085	10110.7	9245.65
840.729	841.1618	10114.75	9244.05
840.8741	843.2143	10129	9264.5
841.0192	845.2662	10063.2	9198.2
841.1643	847.3175	9983.15	9117.1
841.3095	849.368	9869.45	9004.75
841.4546	851.4179	9758.1	8891.85
841.5997	853.467	9601.8	8736.25
841.7448	855.5155	9489.4	8622.5
841.8899	857.5633	9324.4	8457.1
842.0351	859.6105	9223.45	8356.1
842.1802	861.6569	9133.8	8266.55
842.3253	863.7027	9055.55	8186
842.4704	865.7478	9040.75	8173.1
842.6156	867.7922	9053.7	8185.25
842.7607	869.8359	9102.85	8233.1
842.9058	871.8789	9198.95	8327.85
843.0509	873.9212	9411.5	8509.4
843.1961	875.9629	9555.1	8690.3
843.3412	878.0039	9744.25	8875.85
843.4863	880.0441	9855.6	8987.45
843.6315	882.0837	9831.5	8960.15
843.7766	884.1226	9717.35	8846.75
843.9218	886.1609	9559.2	8691.1
844.0669	888.1984	9393.9	8524.5
844.212	890.2352	9322.35	8455.35
844.3572	892.2714	9246.9	8374.2
844.5023	894.3069	9198.85	8329.4
844.6475	896.3416	9149.65	8278.45
844.7926	898.3757	9099	8230.35
844.9377	900.4091	9082.7	8212.25
845.0829	902.4418	9101.15	8223.9
845.228	904.4739	9087.65	8216.2
845.3732	906.5052	9089.2	8219.1
845.5183	908.5358	8968.85	8097.3
845.6635	910.5658	8817.2	7947.05
845.8086	912.595	8665.15	7796.75
845.9538	914.6236	8497.7	7628.05
846.0989	916.6515	8510.15	7639.8
846.2441	918.6786	8459.15	7584.3
846.3892	920.7051	8536.2	7662.7
846.5344	922.7309	8653.35	7781.6
846.6795	924.756	8723.95	7850.7
846.8246	926.7804	8810.75	7936.65
846.9698	928.8041	8779.85	7906.45
847.1149	930.8272	8797.55	7927.45
847.2601	932.8495	8733.45	7860.7
847.4052	934.8711	8661.1	7787
847.5504	936.892	8486.45	7614.5
847.6955	938.9123	8300.75	7427.1
847.8407	940.9318	8149.85	7279.05
847.9858	942.9506	8021.4	7148.95
848.131	944.9688	7916.25	7043.05
848.2761	946.9862	7871.6	6998.1
848.4213	949.003	7843.25	6969.85
848.5664	951.019	7813.25	6944.35
848.7115	953.0344	7860.35	6987
848.8567	955.0491	7884.4	7010.5
849.0018	957.063	7959.8	7088.35
849.147	959.0763	8060.3	7189.1
849.2921	961.0888	8105.5	7231.4
849.4373	963.1007	8195.4	7323.85
849.5824	965.1119	8230.7	7356.55
849.7275	967.1223	8253.05	7378.25
849.8727	969.1321	8304.3	7430.5
850.0178	971.1412	8348.5	7475.05
850.1629	973.1495	8381.2	7510.45
850.3081	975.1572	8434.1	7528.35
850.4532	977.1641	8414	7541.9
850.5983	979.1704	8421.1	7546.5
850.7435	981.1759	8390	7513.3
850.8886	983.1808	8474.6	7599.7
851.0337	985.1849	8584.95	7701.7
851.1788	987.1884	8741.7	7867.25
851.324	989.1911	8939.1	8060.6
851.4691	991.1932	9088.35	8214
851.6142	993.1945	9190.15	8314.3
851.7593	995.1951	9162.35	8286.1
851.9045	997.1951	9132.85	8253.6
852.0496	999.1943	9028.35	8153.8
852.1947	1001.1928	8983.55	8108.35
852.3398	1003.1906	8941.85	8067.5
852.4849	1005.1877	8998.7	8122.05
852.63	1007.1841	8947	8075.4
852.7751	1009.1798	8844.05	7971.45
852.9202	1011.1748	8642.25	7768.7
853.0653	1013.1691	8425.35	7549.7
853.2104	1015.1627	8199.55	7322.2
853.3555	1017.1556	7997.35	7122.6
853.5006	1019.1477	7894	7016
853.6457	1021.1392	7823.1	6947.4
853.7908	1023.1299	7824.45	6950.35
853.9359	1025.12	7853.75	6977.75
854.081	1027.1093	7906.1	7032.6
854.2261	1029.0979	7999.85	7127.35
854.3712	1031.0859	8058.2	7184.8
854.5163	1033.0731	8064.4	7187.9
854.6613	1035.0596	7975.65	7100.25
854.8064	1037.0454	7822.3	6946.25
854.9515	1039.0304	7720.45	6841.85
855.0965	1041.0148	7574.45	6699.45
855.2416	1042.9985	7503.3	6628.25
855.3867	1044.9814	7448.05	6570.8
855.5317	1046.9636	7397.9	6521.7
855.6768	1048.9452	7376.7	6501.5
855.8219	1050.926	7380.65	6506.5
855.9669	1052.9061	7362.65	6488.95
856.112	1054.8855	7354.75	6477.95
856.257	1056.8642	7371.1	6495.65
856.4021	1058.8421	7421.25	6539.85
856.5471	1060.8194	7471.45	6594.8
856.6921	1062.7959	7468.85	6593.25
856.8372	1064.7717	7477.5	6601.1
856.9822	1066.7469	7498.8	6621.15
857.1272	1068.7213	7439.25	6562.2
857.2723	1070.695	7408.5	6529.9
857.4173	1072.6679	7346.7	6471.1
857.5623	1074.6402	7302.45	6424.65
857.7073	1076.6117	7252.6	6373.15
857.8523	1078.5826	7286.25	6410.1
857.9973	1080.5527	7343.8	6465.35
858.1423	1082.5221	7526.55	6649
858.2873	1084.4908	7744.2	6869.25
858.4323	1086.4587	7966.5	7089.7
858.5773	1088.426	8152.8	7275.35
858.7223	1090.3925	8175.5	7289.9
858.8673	1092.3584	8106.75	7232.95
859.0123	1094.3235	7928.65	7053.25
859.1573	1096.2879	7787.55	6910.5
859.3022	1098.2515	7778.65	6902.55
859.4472	1100.2145	7774.95	6896.3
859.5922	1102.1767	7828.55	6952.7
859.7371	1104.1382	7969.7	7093.6
859.8821	1106.099	8178.95	7298.75
860.027	1108.0591	8385.5	7506.1
860.172	1110.0185	8532.35	7652.7
860.3169	1111.9771	8537.75	7663.4
860.4619	1113.9351	8326.95	7450.45
860.6068	1115.8923	7979.7	7103.25
860.7517	1117.8488	7629.85	6751.8
860.8967	1119.8045	7333.45	6456
861.0416	1121.7596	7178.75	6300.4
861.1865	1123.7139	7086.25	6209.75
861.3314	1125.6675	7085.65	6206.65
861.4763	1127.6204	7136.15	6260.9
861.6212	1129.5726	7173.65	6292.75
861.7661	1131.524	7202.05	6325.65
861.911	1133.4748	7249.4	6370.9
862.0559	1135.4248	7297.2	6420.05
862.2008	1137.3741	7343.6	6465.95
862.3457	1139.3226	7311.05	6431.45
862.4905	1141.2705	7306.05	6428.7
862.6354	1143.2176	7227.95	6345.5
862.7803	1145.164	7233.7	6354.35
862.9251	1147.1097	7270.65	6392.4
863.07	1149.0546	7262.7	6383.1
863.2148	1150.9989	7144.4	6264.15
863.3597	1152.9424	6989.4	6111.35
863.5045	1154.8852	6770.25	5889.05
863.6493	1156.8272	6623.95	5746.05
863.7942	1158.7686	6555.6	5668.8
863.939	1160.7092	6485.45	5606.25
864.0838	1162.6491	6474.85	5594.65
864.2286	1164.5883	6549.2	5673.3
864.3734	1166.5267	6626.4	5746.35
864.5182	1168.4644	6773.05	5894.8
864.663	1170.4014	6945.15	6062
864.8078	1172.3377	7164.35	6286.95
864.9526	1174.2732	7365.25	6486.55
865.0974	1176.2081	7598.2	6722.2
865.2421	1178.1421	7768.35	6884.7
865.3869	1180.0755	7883.55	7006.5
865.5317	1182.0082	7919.55	7040.15
865.6764	1183.9401	7839.3	6959.65
865.8212	1185.8713	7644.65	6766.1
865.9659	1187.8017	7380.1	6500.8
866.1106	1189.7315	7138.95	6263.15
866.2554	1191.6605	6883.95	5975.8
866.4001	1193.5888	6681.75	5800.45
866.5448	1195.5163	6529.85	5653.9
866.6895	1197.4432	6434	5551.55
866.8342	1199.3693	6349.25	5472.85
866.9789	1201.2947	6309.55	5429
867.1236	1203.2193	6300.55	5421.95
867.2683	1205.1432	6329.5	5450.25
867.413	1207.0664	6379.45	5502
867.5576	1208.9889	6454.5	5570.75
867.7023	1210.9106	6544.35	5666.45
867.847	1212.8316	6648	5768.35
867.9916	1214.7519	6732.1	5842.35
868.1363	1216.6715	6749.25	5871.05
868.2809	1218.5903	6735.7	5856.4
868.4255	1220.5084	6687.8	5810.55
868.5701	1222.4257	6646.85	5767.2
868.7148	1224.3424	6607.05	5729.45
868.8594	1226.2583	6666.05	5784.15
869.004	1228.1735	6757.35	5877.9
869.1486	1230.0879	6899.5	6020.8
869.2932	1232.0016	7031.25	6153.2
869.4377	1233.9146	7090.3	6210.15
869.5823	1235.8269	7006.45	6128.9
869.7269	1237.7384	6857.45	5977.3
869.8715	1239.6492	6694.35	5814.9
870.016	1241.5592	6577.2	5696.2
870.1606	1243.4686	6455.75	5576.9
870.3051	1245.3772	6414.35	5535.9
870.4496	1247.285	6354.35	5472.8
870.5941	1249.1922	6277.65	5399.15
870.7387	1251.0986	6259.85	5380.3
870.8832	1253.0042	6291.45	5411.15
871.0277	1254.9092	6350.25	5470.2
871.1722	1256.8134	6444.15	5564.2
871.3167	1258.7169	6601.15	5721.55
871.4611	1260.6196	6747.95	5870.05
871.6056	1262.5216	6947.85	6066.6
871.7501	1264.4229	7080.5	6202.55
871.8945	1266.3234	7190.55	6310.65
872.039	1268.2232	7240.1	6359.65
872.1834	1270.1223	7228.15	6346.5
872.3278	1272.0207	7190.75	6310.6
872.4723	1273.9183	7157.6	6273.2
872.6167	1275.8151	7099.45	6219.9
872.7611	1277.7113	7005.2	6126
872.9055	1279.6067	6826.95	5946.4
873.0499	1281.5014	6659.05	5776.05
873.1943	1283.3953	6524.15	5641.45
873.3386	1285.2885	6427.35	5548.45
873.483	1287.181	6355.85	5475.3
873.6274	1289.0727	6354.5	5475
873.7717	1290.9637	6387.85	5506.05
873.9161	1292.854	6479.7	5599.2
874.0604	1294.7435	6612.3	5730.8
874.2047	1296.6323	6878.65	5999.45
874.349	1298.5204	7150.15	6266.7
874.4933	1300.4077	7394.6	6512.4
874.6376	1302.2943	7593.5	6714.65
874.7819	1304.1802	7706.65	6826.65
874.9262	1306.0653	7671.45	6790.5
875.0705	1307.9497	7544.05	6662.8
875.2147	1309.8333	7484.75	6606.7
875.359	1311.7162	7461.5	6582.05
875.5032	1313.5984	7553.1	6672
875.6475	1315.4798	7719.05	6826.3
875.7917	1317.3605	7899.2	7003.15
875.9359	1319.2405	8055.1	7172.55
876.0801	1321.1197	8088.15	7206.8
876.2243	1322.9982	8096.1	7209.25
876.3685	1324.876	8072.95	7193.25
876.5127	1326.753	8039.55	7158.55
876.6569	1328.6293	8069.45	7184.4
876.801	1330.5048	8060.75	7178.45
876.9452	1332.3796	8037.35	7159.4
877.0893	1334.2537	8041.05	7133.5
877.2335	1336.127	7994.5	7114.45
877.3776	1337.9996	7944.7	7063.55
877.5217	1339.8714	7897.35	7018.05
877.6658	1341.7426	7869.3	6944.1
877.8099	1343.6129	7773.35	6890.7
877.954	1345.4826	7696.95	6817
878.0981	1347.3515	7626.7	6742.55
878.2422	1349.2196	7567.75	6686.5
878.3862	1351.087	7550	6670.55
878.5303	1352.9537	7616.15	6736.65
878.6743	1354.8197	7727.85	6849.9
878.8184	1356.6849	7859.95	6979.35
878.9624	1358.5493	7961.1	7081.75
879.1064	1360.4131	7966.45	7087.2
879.2504	1362.276	7894.15	7013.85
879.3944	1364.1383	7755.75	6875
879.5384	1365.9998	7523.15	6638.35
879.6823	1367.8606	7251.55	6369.95
879.8263	1369.7206	7009.15	6126.7
879.9702	1371.5799	6853.4	5968.45
880.1142	1373.4384	6720.7	5836.8
880.2581	1375.2962	6593.6	5710.3
880.402	1377.1533	6382.85	5504.35
880.5459	1379.0096	6098	5214.15
880.6898	1380.8652	5817.55	4937.15
880.8337	1382.7201	5590.85	4711.15
880.9776	1384.5742	5405.45	4524.2
881.1215	1386.4275	5255.9	4374.95
881.2653	1388.2802	5147.55	4266.25
881.4092	1390.132	5035.75	4151.75
881.553	1391.9832	4981.8	4101.7
881.6968	1393.8336	4927.3	4045.7
881.8406	1395.6832	4894.85	4010.8
881.9844	1397.5322	4857.45	3976.2
882.1282	1399.3803	4857.95	3969.7
882.272	1401.2278	4816.6	3933.25
882.4158	1403.0745	4820.5	3939
882.5595	1404.9204	4833.7	3951.05
882.7033	1406.7656	4828.4	3947.15
882.847	1408.6101	4852.85	3971.05
882.9908	1410.4538	4885.95	4005.3
883.1345	1412.2968	4916.9	4034.1
883.2782	1414.139	4973.6	4091.3
883.4219	1415.9805	5075.25	4191.2
883.5656	1417.8213	5168.85	4278.55
883.7092	1419.6613	5307.6	4427.7
883.8529	1421.5006	5493.3	4610.35
883.9965	1423.3391	5756.3	4874.4
884.1402	1425.1769	6123.45	5240.6
884.2838	1427.0139	6641.45	5759.6
884.4274	1428.8502	7269.05	6385.6
884.571	1430.6858	7902.95	7021.85
884.7146	1432.5206	8385.5	7503.75
884.8582	1434.3547	8674.85	7792.5
885.0018	1436.188	8743.45	7861.95
885.1453	1438.0206	8670	7786.85
885.2889	1439.8524	8555.25	7673.6
885.4324	1441.6835	8477	7596.3
885.5759	1443.5139	8364.1	7476.35
885.7194	1445.3435	8277.95	7396.55
885.8629	1447.1724	8233.85	7353.3
886.0064	1449.0005	8169.85	7290.35
886.1499	1450.8279	8052.45	7169.15
886.2933	1452.6545	8029.9	7149.9
886.4368	1454.4804	8055.3	7174.95
886.5802	1456.3056	8068.2	7180.35
886.7237	1458.13	7956.4	7075.4
886.8671	1459.9536	7714.65	6832.85
887.0105	1461.7766	7370.65	6489.85
887.1539	1463.5987	6936.45	6052.2
887.2972	1465.4202	6540.75	5659.7
887.4406	1467.2409	6180.1	5299.6
887.584	1469.0608	5873	4994.25
887.7273	1470.88	5620.25	4738.15
887.8706	1472.6984	5389.25	4510.05
888.0139	1474.5161	5196.65	4311.8
888.1572	1476.3331	5017	4136.8
888.3005	1478.1493	4901.1	4019.35
888.4438	1479.9648	4781.3	3899.65
888.5871	1481.7795	4702.2	3821.1
888.7303	1483.5935	4642.4	3761.05
888.8736	1485.4067	4576.2	3693.85
889.0168	1487.2192	4515.85	3633.95
889.16	1489.031	4472.25	3588.55
889.3032	1490.842	4419.7	3539.5
889.4464	1492.6522	4422.4	3540
889.5896	1494.4618	4369.6	3489.2
889.7327	1496.2705	4346.95	3465.95
889.8759	1498.0785	4337.7	3456.1
890.019	1499.8858	4296.9	3414.45
890.1622	1501.6924	4286.8	3407.7
890.3053	1503.4981	4275	3393.65
890.4484	1505.3032	4264.25	3382.75
890.5914	1507.1075	4226.85	3345.9
890.7345	1508.911	4222.45	3341.8
890.8776	1510.7138	4191.05	3308.5
891.0206	1512.5159	4121.45	3237.4
891.1637	1514.3172	4116.7	3235.2
891.3067	1516.1178	4094.3	3213.7
891.4497	1517.9176	4075.55	3191.3
891.5927	1519.7166	4047.65	3167.5
891.7357	1521.515	4036.6	3148.1
891.8786	1523.3126	4007.75	3125.5
892.0216	1525.1094	3985.75	3100
892.1645	1526.9055	3972.5	3092.1
892.3074	1528.7008	3944.3	3061.2
892.4503	1530.4954	3939.95	3052.05
892.5932	1532.2893	3919.6	3038.95
892.7361	1534.0824	3904.85	3017.5
892.879	1535.8747	3901.1	3019.05
893.0218	1537.6663	3907.65	3023.75
893.1647	1539.4572	3895.3	3011.6
893.3075	1541.2473	3888	3004.7
893.4503	1543.0367	3884.25	3005.5
893.5931	1544.8253	3868.1	2983.15
893.7359	1546.6132	3900.4	3017.6
893.8787	1548.4003	3893.2	3001.9
894.0214	1550.1867	3913.35	3023.25
894.1642	1551.9723	3910.15	3023.45
894.3069	1553.7572	3939	3056.5
894.4496	1555.5414	3970.1	3086.95
894.5923	1557.3247	4006.8	3125.05
894.735	1559.1074	4031.6	3149.5
894.8777	1560.8893	4081	3200.7
895.0204	1562.6705	4142.2	3260.9
895.163	1564.4509	4214.95	3332.9
895.3056	1566.2305	4306.05	3425
895.4482	1568.0094	4421.35	3540.8
895.5908	1569.7876	4493.85	3612.15
895.7334	1571.565	4552.8	3671.55
895.876	1573.3417	4629	3747.4
896.0186	1575.1176	4640.55	3758.8
896.1611	1576.8928	4615.8	3732.4
896.3036	1578.6672	4534.65	3653.45
896.4461	1580.4409	4436.75	3556.15
896.5886	1582.2138	4287.35	3402.5
896.7311	1583.986	4194.4	3311.2
896.8736	1585.7575	4083.05	3202.45
897.0161	1587.5282	4009.6	3127.6
897.1585	1589.2981	3958.95	3078.1
897.3009	1591.0673	3903.25	3023.25
897.4433	1592.8358	3873.7	2994.5
897.5857	1594.6035	3860.3	2978.5
897.7281	1596.3704	3865.55	2982.15
897.8705	1598.1366	3875	2994.7
898.0128	1599.9021	3901.3	3020.15
898.1551	1601.6668	3923.55	3040
898.2975	1603.4308	3965.9	3084.55
898.4398	1605.194	4052.6	3167.15
898.5821	1606.9564	4132.2	3253.75
898.7243	1608.7182	4221.05	3334.85
898.8666	1610.4791	4346.6	3465.3
899.0088	1612.2394	4512.05	3630.65
899.1511	1613.9988	4699.15	3816.9
899.2933	1615.7576	4919.9	4037.75
899.4355	1617.5156	5168.2	4278.85
899.5776	1619.2728	5401.05	4520.35
899.7198	1621.0293	5579.25	4699.15
899.862	1622.785	5676.3	4790.8
900.0041	1624.54	5649.45	4765.55
900.1462	1626.2942	5524.45	4640.5
900.2883	1628.0477	5287.4	4403.95
900.4304	1629.8005	5047.85	4164.1
900.5725	1631.5525	4803.7	3920.95
900.7145	1633.3037	4602.05	3719.95
900.8566	1635.0542	4429.55	3547.7
900.9986	1636.804	4300.45	3419.7
901.1406	1638.553	4270.65	3310.75
901.2826	1640.3013	4133.2	3252.7
901.4245	1642.0488	4099.75	3217.6
901.5665	1643.7955	4084.55	3203.7
901.7085	1645.5416	4114.5	3233.2
901.8504	1647.2868	4156.15	3277.55
901.9923	1649.0313	4225.25	3345.6
902.1342	1650.7751	4362.35	3477.25
902.2761	1652.5181	4536.05	3656.25
902.4179	1654.2604	4790.05	3907.3
902.5598	1656.0019	5124.6	4246.45
902.7016	1657.7427	5485.75	4604.65
902.8434	1659.4828	5845.2	4965.4
902.9852	1661.222	6103.55	5222.45
903.127	1662.9606	6144.3	5266.15
903.2687	1664.6984	6015.5	5134.1
903.4105	1666.4354	5684.1	4804.7
903.5522	1668.1717	5250.9	4370.2
903.6939	1669.9072	4830.25	3949.8
903.8356	1671.642	4451.35	3568.55
903.9773	1673.3761	4128.4	3249.1
904.119	1675.1094	3911.45	3031.2
904.2606	1676.8419	3743.95	2863.7
904.4022	1678.5737	3596.3	2715.25
904.5439	1680.3048	3500.3	2619.8
904.6855	1682.0351	3422.8	2543.4
904.827	1683.7646	3373.65	2490.1
904.9686	1685.4934	3336.4	2456.75
905.1101	1687.2215	3281.65	2400.5
905.2517	1688.9488	3258.2	2378.3
905.3932	1690.6754	3233.05	2352.35
905.5347	1692.4012	3209.35	2328.6
905.6761	1694.1263	3175.4	2295.05
905.8176	1695.8506	3170.9	2289.7
905.9591	1697.5742	3156.65	2274.7
906.1005	1699.297	3127.95	2246.2
906.2419	1701.0191	3097.45	2215.4
906.3833	1702.7404	3089.2	2210.5
906.5246	1704.461	3062.95	2180
906.666	1706.1808	3055.5	2173.85
906.8073	1707.8999	3038.75	2157.45
906.9487	1709.6182	3021.7	2141.25
907.09	1711.3358	3011.55	2129.65
907.2313	1713.0527	3009.25	2130.2
907.3725	1714.7688	2991.9	2106.1
907.5138	1716.4841	2978.9	2098.5
907.655	1718.1987	2984.75	2097.95
907.7962	1719.9126	2965.3	2086.65
907.9374	1721.6257	2951.6	2068.05
908.0786	1723.338	2934.1	2051.45
908.2198	1725.0496	2918.45	2037.2
908.3609	1726.7605	2925.8	2044.3
908.502	1728.4706	2918.5	2036.95
908.6431	1730.18	2899.85	2018.1
908.7842	1731.8886	2897.45	2017.4
908.9253	1733.5964	2898.85	2014.45
909.0664	1735.3036	2878.25	1994.2
909.2074	1737.0099	2861.35	1979.9
909.3484	1738.7156	2856.75	1978.1
909.4894	1740.4204	2854.2	1970.2
909.6304	1742.1246	2849.55	1968.95
909.7714	1743.8279	2840.85	1960.4
909.9123	1745.5306	2839.65	1958
910.0532	1747.2325	2831.85	1950.7
910.1941	1748.9336	2820.95	1940.3
910.335	1750.634	2801.2	1919.2
910.4759	1752.3336	2808.35	1928.75
910.6168	1754.0325	2802.4	1922.4
910.7576	1755.7307	2790.6	1910.35
910.8984	1757.4281	2788.05	1905.8
911.0392	1759.1247	2792.95	1904.7
911.18	1760.8206	2789.8	1905.1
911.3208	1762.5158	2777	1896
911.4615	1764.2102	2762.45	1882.75
911.6022	1765.9039	2751.55	1872.95
911.7429	1767.5968	2756.75	1876.85
911.8836	1769.289	2750.65	1871.55
912.0243	1770.9804	2733.75	1851.65
912.1649	1772.6711	2744.55	1863.9
912.3056	1774.361	2735.4	1856.65
912.4462	1776.0502	2727.25	1845.8
912.5868	1777.7386	2722.35	1838.45
912.7274	1779.4263	2708.85	1826.7
912.8679	1781.1132	2716.35	1836.45
913.0084	1782.7994	2712.7	1830.75
913.149	1784.4849	2707	1827.5
913.2895	1786.1696	2698.5	1797.8
913.4299	1787.8535	2698.15	1819.15
913.5704	1789.5367	2678.6	1797.2
913.7108	1791.2192	2682.75	1802.6
913.8513	1792.9009	2700.3	1790.5
913.9917	1794.5818	2672.6	1791.95
914.132	1796.2621	2669.25	1790.3
914.2724	1797.9415	2663.9	1785
914.4128	1799.6202	2641	1760.65
914.5531	1801.2982	2649.1	1767.55
914.6934	1802.9755	2638.1	1757.85
914.8337	1804.6519	2644.95	1763.15
914.9739	1806.3277	2632.95	1755.15
915.1142	1808.0027	2638.8	1758.45
915.2544	1809.6769	2631.85	1751.05
915.3946	1811.3504	2623.1	1742.6
915.5348	1813.0231	2605.65	1722.3
915.675	1814.6951	2609.8	1730.2
915.8151	1816.3664	2615.8	1735.85
915.9553	1818.0369	2603.1	1720.65
916.0954	1819.7067	2606.35	1727.95
916.2355	1821.3757	2597.15	1715.3
916.3755	1823.044	2599.85	1720.6
916.5156	1824.7115	2590.4	1708.4
916.6556	1826.3783	2594.15	1714.65
916.7956	1828.0443	2577.75	1700.45
916.9356	1829.7096	2574.55	1692.45
917.0756	1831.3741	2582.8	1699.9
917.2155	1833.0379	2567.3	1688.65
917.3555	1834.701	2558.9	1676.5
917.4954	1836.3633	2568.5	1688.8
917.6353	1838.0248	2563.25	1680.7
917.7751	1839.6856	2548.85	1666.95
917.915	1841.3457	2544.95	1666.25
918.0548	1843.005	2539.15	1659.1
918.1946	1844.6636	2539	1659.65
918.3344	1846.3214	2545.65	1665.25
918.4742	1847.9785	2546.1	1667.6
918.6139	1849.6349	2531.55	1652.2
918.7537	1851.2904	2539.75	1651.7
918.8934	1852.9453	2527.35	1647.05
919.0331	1854.5994	2521.7	1640
919.1727	1856.2528	2526.75	1642.3
919.3124	1857.9054	2507.05	1626.9
919.452	1859.5572	2508.85	1628.65
919.5916	1861.2083	2508.9	1626.65
919.7312	1862.8587	2509.3	1629.25
919.8708	1864.5084	2493.65	1611.35
920.0103	1866.1572	2484.7	1605.2
920.1498	1867.8054	2490.55	1610.95
920.2893	1869.4528	2495.65	1617.4
920.4288	1871.0994	2482.4	1602
920.5683	1872.7453	2484.85	1603.7
920.7077	1874.3905	2484.55	1587.35
920.8471	1876.0349	2471	1589.9
920.9865	1877.6786	2470.9	1590.9
921.1259	1879.3215	2466.55	1587.85
921.2653	1880.9637	2460.1	1578.35
921.4046	1882.6051	2457.2	1578.75
921.5439	1884.2458	2446.55	1562.65
921.6832	1885.8858	2433.85	1553.35
921.8225	1887.525	2428.7	1548.65
921.9617	1889.1634	2427.45	1547.25
922.101	1890.8011	2424.85	1543.25
922.2402	1892.4381	2409.75	1530.6
922.3794	1894.0743	2428	1548.1
922.5185	1895.7098	2423	1544.35
922.6577	1897.3446	2412.95	1531.2
922.7968	1898.9786	2414.8	1528.65
922.9359	1900.6118	2406.25	1526.9
923.075	1902.2443	2400	1516.8
923.214	1903.8761	2385.95	1507.2
923.3531	1905.5071	2381.05	1497.95
923.4921	1907.1374	2377.35	1495.65
923.6311	1908.7669	2378.3	1496.9
923.77	1910.3957	2369.5	1487.95
923.909	1912.0237	2359.25	1477
924.0479	1913.651	2370.5	1489.2
924.1868	1915.2776	2364.5	1485.65
924.3257	1916.9034	2352.15	1472.95
924.4646	1918.5285	2343.8	1464.95
924.6034	1920.1528	2344	1465.25
924.7422	1921.7764	2349.9	1467.15
924.881	1923.3992	2332	1454.1
925.0198	1925.0213	2331.35	1451.65
925.1586	1926.6427	2328	1446.9
925.2973	1928.2633	2384.95	1428.3
925.436	1929.8832	2319.55	1439.45
925.5747	1931.5023	2309.35	1429.55
925.7134	1933.1207	2310.5	1431.05
925.852	1934.7383	2304.1	1423.2
925.9906	1936.3552	2294.8	1414.25
926.1292	1937.9714	2301	1420.5
926.2678	1939.5868	2297.15	1416.6
926.4064	1941.2015	2278.85	1398.25
926.5449	1942.8154	2273.9	1392.7
926.6834	1944.4286	2272.1	1392.45
926.8219	1946.041	2288.9	1383.3
926.9604	1947.6528	2268.8	1383.75
927.0988	1949.2637	2250.3	1369.45
927.2372	1950.8739	2253.75	1373.45
927.3756	1952.4834	2235.25	1353.95
927.514	1954.0921	2235.35	1354.2
927.6523	1955.7001	2237.9	1352.7
927.7907	1957.3074	2235.75	1357.5
927.929	1958.9139	2219.05	1337.5
928.0673	1960.5197	2230	1347
928.2055	1962.1247	2215.25	1335.4
928.3438	1963.729	2207.55	1329.75
928.482	1965.3325	2221.2	1319.5
928.6202	1966.9353	2194.25	1314.3
928.7584	1968.5374	2197.35	1316.3
928.8965	1970.1387	2184.7	1302.7
929.0346	1971.7393	2184.9	1303.85
929.1727	1973.3392	2178.95	1298.6
929.3108	1974.9383	2180.25	1300.1
929.4489	1976.5366	2169.55	1288.7
929.5869	1978.1342	2158.6	1277.55
929.7249	1979.7311	2159.55	1278.15
929.8629	1981.3273	2162.7	1281.65
930.0009	1982.9227	2163.05	1279.2
930.1388	1984.5173	2163.5	1283.6
930.2767	1986.1112	2144.55	1266.45
930.4146	1987.7044	2156.9	1277.45
930.5525	1989.2968	2139.05	1257
930.6904	1990.8885	2144.05	1259.05
930.8282	1992.4795	2145.25	1262.9
930.966	1994.0697	2136.3	1257.55
931.1038	1995.6592	2126	1247.35
931.2415	1997.2479	2124.35	1244.1
931.3793	1998.8359	2117.8	1236.55
931.517	2000.4232	2111.35	1229.45
931.6547	2002.0097	2106.6	1228
931.7923	2003.5955	2108.75	1228.45
931.93	2005.1805	2111.45	1229
932.0676	2006.7648	2102.65	1222.05
932.2052	2008.3484	2082.45	1201.35
932.3427	2009.9312	2111.15	1230
932.4803	2011.5133	2098.6	1218.5
932.6178	2013.0946	2089.75	1207.15
932.7553	2014.6752	2085.75	1206.45
932.8928	2016.2551	2093.9	1212.8
933.0302	2017.8342	2076.3	1197.25
933.1676	2019.4126	2068.85	1186.7
933.305	2020.9902	2071.05	1193.2
933.4424	2022.5672	2065.55	1185.05
933.5798	2024.1433	2064.4	1177.9
933.7171	2025.7188	2060.35	1180.7
933.8544	2027.2935	2061.5	1179.45
933.9917	2028.8674	2054.15	1174.75
934.129	2030.4406	2052.85	1174.65
934.2662	2032.0131	2054.2	1172.1
934.4034	2033.5849	2040.35	1157.65
934.5406	2035.1559	2042.55	1161.45
934.6778	2036.7261	2038.55	1157.6
934.8149	2038.2957	2040.25	1160.4
934.952	2039.8645	2042.1	1162.55
935.0891	2041.4325	2034.85	1153.15
935.2262	2042.9998	2031.2	1153.25
935.3632	2044.5664	2030.95	1148.8
935.5002	2046.1323	2022.9	1143.35
935.6372	2047.6974	2010.6	1128.75
935.7742	2049.2617	2015.6	1135.25
935.9111	2050.8254	2018.95	1133.3
936.048	2052.3883	2020.85	1138.35
936.1849	2053.9504	2006.9	1125.95
936.3218	2055.5118	2001.05	1120.5
936.4586	2057.0725	2002.45	1118.35
936.5955	2058.6325	2004.75	1122.2
936.7323	2060.1917	1994.4	1114.95
936.869	2061.7502	1998.55	1116.4
937.0058	2063.3079	1988.3	1108.25
937.1425	2064.8649	1994	1109.65
937.2792	2066.4212	1993.4	1111.6
937.4159	2067.9767	1975.5	1095.15
937.5525	2069.5315	1969.3	1089
937.6891	2071.0856	1974.65	1094.75
937.8257	2072.6389	1970.45	1089.65
937.9623	2074.1915	1961.25	1081.05
938.0989	2075.7433	1957.1	1074.4
938.2354	2077.2945	1955.25	1075.1
938.3719	2078.8448	1947.15	1067.35
938.5084	2080.3945	1943	1060.6
938.6448	2081.9434	1944.3	1063.2
938.7812	2083.4916	1937.5	1057.5
938.9176	2085.039	1941.65	1059.65
939.054	2086.5857	1926.9	1044.15
939.1903	2088.1317	1932.75	1054.2
939.3267	2089.677	1922.65	1043.1
939.463	2091.2215	1924.35	1046.3
939.5992	2092.7652	1913.8	1031.55
939.7355	2094.3083	1927.95	1048.05
939.8717	2095.8506	1911.85	1031.55
940.0079	2097.3921	1919.75	1037.8
940.1441	2098.933	1920	1039.2
940.2802	2100.4731	1910.3	1030.4
940.4163	2102.0124	1913.5	1024.3
940.5524	2103.5511	1913.1	1033.55
940.6885	2105.089	1910.2	1028.75
940.8245	2106.6261	1905.55	1024.45
940.9606	2108.1626	1898.7	1017.25
941.0965	2109.6983	1922.3	1012.25
941.2325	2111.2332	1897.1	1016.1
941.3684	2112.7675	1889.1	1006.85
941.5044	2114.301	1889.75	1007.45
941.6403	2115.8337	1888.45	1008.5
941.7761	2117.3657	1885	1003.5
941.912	2118.897	1886.5	1007.65
942.0478	2120.4276	1884.15	995.4
942.1835	2121.9575	1876.15	998.25
942.3193	2123.4866	1885.85	990.7
942.455	2125.0149	1881	997.45
942.5907	2126.5426	1857.45	979.55
942.7264	2128.0695	1861.4	974.5
942.8621	2129.5956	1865.8	985.55
942.9977	2131.1211	1862.8	979.45
943.1333	2132.6458	1853.75	974.4
943.2689	2134.1698	1856.35	976.1
943.4044	2135.693	1850.6	965.75
943.54	2137.2155	1852	968.3
943.6755	2138.7373	1856.3	975.5
943.8109	2140.2584	1836.15	954.75
943.9464	2141.7787	1843.85	956.9
944.0818	2143.2983	1837.3	956.45
944.2172	2144.8171	1839.5	960.45
944.3526	2146.3353	1836.3	955.6
944.4879	2147.8527	1836.65	956.15
944.6232	2149.3693	1826.75	945.45
944.7585	2150.8853	1828.1	947
944.8938	2152.4005	1815.75	935.2
945.029	2153.9149	1819.3	938.4
945.1642	2155.4287	1820.2	941.05
945.2994	2156.9417	1818.25	936.4
945.4346	2158.454	1813.75	933.1
945.5697	2159.9655	1808.5	927.75
945.7048	2161.4764	1807.35	925.7
945.8399	2162.9865	1807.7	924.7
945.9749	2164.4958	1808.2	925.65
946.1099	2166.0045	1807.35	923.2
946.2449	2167.5124	1807.95	926.9
946.3799	2169.0195	1804.85	924.25
946.5148	2170.526	1800.75	919.25
946.6498	2172.0317	1794.8	912.85
946.7846	2173.5367	1789.95	908.95
946.9195	2175.0409	1790	910.55
947.0543	2176.5445	1791.15	911.55
947.1891	2178.0473	1788.05	907.35
947.3239	2179.5494	1784	901.75
947.4587	2181.0507	1781.1	901.2
947.5934	2182.5513	1773.25	889.9
947.7281	2184.0512	1776.2	896.2
947.8628	2185.5504	1771.95	891.05
947.9974	2187.0488	1772.5	891.4
948.132	2188.5465	1767.8	886.85
948.2666	2190.0435	1769.75	888.2
948.4012	2191.5397	1762.9	883.8
948.5357	2193.0353	1760.4	881.65
948.6702	2194.5301	1751.7	868.85
948.8047	2196.0241	1757.75	878.6
948.9392	2197.5175	1749.75	870.8
949.0736	2199.0101	1750.3	865.8
949.208	2200.502	1745.15	863.45
949.3424	2201.9931	1746.8	866.7
949.4767	2203.4835	1737.15	856
949.611	2204.9733	1738.85	849.7
949.7453	2206.4622	1742	862.15
949.8796	2207.9505	1737	853.1
950.0138	2209.438	1731.7	851.15
950.148	2210.9248	1733.4	850.35
950.2822	2212.4109	1717.65	836.75
950.4164	2213.8962	1719.65	835.8
950.5505	2215.3809	1721.3	840.85
950.6846	2216.8648	1716.55	835.2
950.8186	2218.3479	1716	830.35
950.9527	2219.8304	1708.65	823.8
951.0867	2221.3121	1710.3	826.8
951.2207	2222.7931	1706.6	826.8
951.3546	2224.2733	1715.95	834.5
951.4886	2225.7529	1700.05	818.9
951.6225	2227.2317	1700.5	817.2
951.7563	2228.7098	1698.95	819.55
951.8902	2230.1872	1692.4	811.9
952.024	2231.6638	1688.6	806.95
952.1578	2233.1397	1697.25	810.45
952.2916	2234.6149	1682.45	801.45
952.4253	2236.0894	1679.05	798.7
952.559	2237.5632	1684.75	802.65
952.6927	2239.0362	1687.35	803.9
952.8263	2240.5085	1678.15	795.6
952.9599	2241.9801	1668.9	788
953.0935	2243.4509	1664.6	784.6
953.2271	2244.921	1659.35	778.05
953.3606	2246.3904	1668.95	786.25
953.4941	2247.8591	1662.7	782.4
953.6276	2249.3271	1647.5	768.65
953.7611	2250.7943	1655.55	774.2
953.8945	2252.2608	1646	765.95
954.0279	2253.7266	1650.1	767.55
954.1612	2255.1917	1644.4	762.85
954.2946	2256.656	1645.25	764.65
954.4279	2258.1197	1642.55	760.7
954.5612	2259.5826	1645.1	761.15
954.6944	2261.0447	1641.65	759.5
954.8276	2262.5062	1634.75	752.4
954.9608	2263.9669	1642.05	759.45
955.094	2265.4269	1630.45	748.4
955.2271	2266.8862	1635.35	755.5
955.3602	2268.3448	1641.4	759.75
955.4933	2269.8026	1631	749.2
955.6264	2271.2598	1635.3	753.75
955.7594	2272.7162	1621.05	738.95
955.8924	2274.1719	1622.85	741.6
956.0253	2275.6268	1621.3	740.2
956.1583	2277.0811	1623.05	741.5
956.2912	2278.5346	1623.4	743.65
956.4241	2279.9874	1612.2	732.7
956.5569	2281.4395	1620.85	739.25
956.6897	2282.8908	1627.45	741
956.8225	2284.3414	1617.4	735.45
956.9553	2285.7914	1614.5	733.65
957.088	2287.2406	1615.7	731
957.2207	2288.689	1609.85	728.95
957.3534	2290.1368	1609.4	726.75
957.486	2291.5838	1609.8	727.5
957.6186	2293.0302	1599.65	719.15
957.7512	2294.4758	1598.6	717.95
957.8838	2295.9206	1597	711.9
958.0163	2297.3648	1596.9	716.35
958.1488	2298.8082	1591.25	710.9
958.2813	2300.251	1593.65	712.15
958.4137	2301.693	1589.85	705.55
958.5461	2303.1343	1591.25	709.85
958.6785	2304.5748	1594	712.65
958.8108	2306.0147	1586.8	706.15
958.9432	2307.4538	1585.4	701.8
959.0754	2308.8922	1580.55	699
959.2077	2310.3299	1579.35	699.8
959.3399	2311.7669	1569.9	689.55
959.4721	2313.2031	1579.05	695.35
959.6043	2314.6387	1571	689.25
959.7365	2316.0735	1566.1	685.55
959.8686	2317.5076	1572.3	691.7
960.0006	2318.941	1560.85	678.95
960.1327	2320.3737	1565.2	682.6
960.2647	2321.8056	1563.35	681.85
960.3967	2323.2369	1551.7	668.55
960.5287	2324.6674	1563.25	680.5
960.6606	2326.0972	1554.9	670.85
960.7925	2327.5263	1562.1	680.6
960.9244	2328.9547	1558.4	677.8
961.0562	2330.3823	1553.45	670.95
961.1881	2331.8092	1550.95	663.65
961.3198	2333.2355	1548.8	668.7
961.4516	2334.661	1546.25	665.25
961.5833	2336.0858	1548.1	664.8
961.715	2337.5098	1538.85	660
961.8467	2338.9332	1548.95	666.7
961.9783	2340.3558	1541.5	658.25
962.1099	2341.7778	1534.35	652.05
962.2415	2343.199	1543.5	660.6
962.373	2344.6195	1536.25	656
962.5045	2346.0393	1532.4	650.75
962.636	2347.4583	1533.75	652.95
962.7675	2348.8767	1532.1	648.1
962.8989	2350.2943	1530.45	649.85
963.0303	2351.7113	1532.85	651.4
963.1617	2353.1275	1534.85	654.4
963.293	2354.543	1553.25	648.65
963.4243	2355.9578	1529.45	648.85
963.5556	2357.3718	1523.45	641.65
963.6868	2358.7852	1523.15	639.2
963.818	2360.1978	1519.7	640.2
963.9492	2361.6098	1525.4	645.05
964.0803	2363.021	1523.2	638.05
964.2114	2364.4315	1516.35	636.1
964.3425	2365.8413	1520.75	633
964.4736	2367.2504	1512.65	633.3
964.6046	2368.6587	1506.95	626.05
964.7356	2370.0664	1510.05	629.25
964.8666	2371.4733	1507	625.25
964.9975	2372.8795	1499.25	618.2
965.1284	2374.285	1503.35	621.65
965.2593	2375.6899	1491.75	613.15
965.3901	2377.0939	1492.15	610.05
965.5209	2378.4973	1497.05	615.55
965.6517	2379.9	1492.75	614.9
965.7825	2381.3019	1484.25	605.8
965.9132	2382.7032	1488.6	609.4
966.0439	2384.1037	1486.95	608.25
966.1745	2385.5035	1486.95	604.4
966.3051	2386.9027	1484.1	605.95
966.4357	2388.3011	1481.65	598.65
966.5663	2389.6987	1477.35	595.1
966.6968	2391.0957	1472.7	592.6
966.8273	2392.492	1472.1	591.8
966.9578	2393.8876	1474.65	593.4
967.0882	2395.2824	1473.3	593.7
967.2186	2396.6765	1461.85	582.25
967.349	2398.07	1461.05	581.95
967.4793	2399.4627	1457.7	578.7
967.6097	2400.8547	1460.95	581.95
967.7399	2402.246	1462.8	575.2
967.8702	2403.6366	1462.65	581.9
968.0004	2405.0265	1457.75	576.5
968.1306	2406.4156	1455.15	570.7
968.2607	2407.8041	1456.25	573.2
968.3909	2409.1918	1446.05	561.25
968.521	2410.5789	1452.9	573.9
968.651	2411.9652	1454.2	570.9
968.781	2413.3508	1450.8	572.1
968.911	2414.7358	1446.8	565.75
969.041	2416.12	1443.3	563.4
969.1709	2417.5035	1443.9	564.3
969.3008	2418.8863	1446.1	566.1
969.4307	2420.2684	1441.9	559.6
969.5606	2421.6497	1446.7	566.65
969.6904	2423.0304	1441.5	563.35
969.8201	2424.4104	1444	561.7
969.9499	2425.7896	1447.3	562.2
970.0796	2427.1682	1436.9	557.2
970.2093	2428.546	1437.9	556.6
970.3389	2429.9232	1436.45	553.85
970.4685	2431.2996	1429.4	550.85
970.5981	2432.6753	1431.3	551.35
970.7277	2434.0503	1436.95	555
970.8572	2435.4246	1418.55	539.7
970.9867	2436.7982	1425.3	541.55
971.1161	2438.1711	1420.15	543
971.2456	2439.5433	1417.6	535.4
971.375	2440.9148	1421.65	534.1
971.5043	2442.2856	1417.35	537.35
971.6336	2443.6557	1411.7	528.35
971.7629	2445.025	1415.1	535.25
971.8922	2446.3937	1405.95	525.7
972.0214	2447.7617	1414	532.35
972.1506	2449.1289	1410	531
972.2798	2450.4955	1414.45	529.85
972.4089	2451.8613	1411.45	531.7
972.538	2453.2265	1403.9	521.75
972.6671	2454.5909	1406.4	524.85
972.7961	2455.9546	1407.05	529.15
972.9251	2457.3177	1407.4	526.6
973.0541	2458.68	1402.2	521.7
973.1831	2460.0416	1404.35	525.25
973.312	2461.4025	1410.1	527.3
973.4408	2462.7627	1413.25	521.75
973.5697	2464.1222	1395.55	516.55
973.6985	2465.4811	1409.65	527.65
973.8273	2466.8392	1394.8	512.5
973.956	2468.1966	1410.5	526.2
974.0847	2469.5533	1402.65	519.95
974.2134	2470.9093	1403.2	521.05
974.3421	2472.2645	1401.65	520.85
974.4707	2473.6191	1399.8	520.45
974.5993	2474.973	1397.35	515.45
974.7278	2476.3262	1401.05	518.95
974.8563	2477.6787	1396.05	516.45
974.9848	2479.0305	1389.7	509.25
975.1132	2480.3816	1386.9	505.55
975.2417	2481.7319	1388	505.7
975.37	2483.0816	1384.9	503.55
975.4984	2484.4306	1384.35	502.9
975.6267	2485.7789	1380.9	500.35
975.755	2487.1264	1380.85	498.6
975.8833	2488.4733	1375.2	495.85
976.0115	2489.8195	1395.25	497.15
976.1397	2491.165	1379.65	497.65
976.2678	2492.5097	1377.9	495.1
976.3959	2493.8538	1375.85	495.9
976.524	2495.1972	1372.7	489.5
976.6521	2496.5398	1363.1	480.8
976.7801	2497.8818	1368	484.9
976.9081	2499.2231	1367.55	485.7
977.036	2500.5637	1366.1	483.5
977.164	2501.9035	1363.75	481.3
977.2918	2503.2427	1366.5	483
977.4197	2504.5812	1360.25	478.6
977.5475	2505.919	1363.7	481.35
977.6753	2507.256	1366.65	486.8
977.8031	2508.5924	1359.1	477.25
977.9308	2509.9281	1368.2	481.8
978.0585	2511.2631	1355.1	475.25
978.1861	2512.5974	1363.15	482.95
978.3137	2513.9309	1357.25	476.35
978.4413	2515.2638	1380.3	473.3
978.5689	2516.596	1358.15	479.4
978.6964	2517.9275	1347.85	467.4
978.8239	2519.2583	1354.85	471.45
978.9513	2520.5884	1355.75	474.5
979.0788	2521.9178	1349.6	469.15
979.2062	2523.2465	1341.45	459.85
979.3335	2524.5745	1351.05	470.35
979.4608	2525.9018	1348.9	467.25
979.5881	2527.2284	1342.7	464.2
979.7154	2528.5543	1342.55	464.95
979.8426	2529.8796	1350	469.05
979.9698	2531.2041	1341.6	462.45
980.0969	2532.5279	1338.9	457.95
980.224	2533.851	1341.3	460.6
980.3511	2535.1735	1338.25	457.6
980.4781	2536.4952	1342.2	462.25
980.6052	2537.8163	1344.05	463.85
980.7321	2539.1366	1332.45	450.25
980.8591	2540.4562	1335.7	453.4
980.986	2541.7752	1335.75	455.85
981.1129	2543.0935	1339.25	458.35
981.2397	2544.411	1327.65	446
981.3665	2545.7279	1336.05	458.2
981.4933	2547.0441	1334.15	454.65
981.62	2548.3596	1336.95	453.25
981.7467	2549.6744	1335.85	458.3
981.8734	2550.9885	1329.15	447.1
982.0001	2552.3019	1315	434.65
982.1267	2553.6146	1328.4	446.9
982.2532	2554.9266	1321.15	440.3
982.3798	2556.2379	1316.75	434.5
982.5063	2557.5485	1315.6	436
982.6327	2558.8585	1328.2	441.1
982.7592	2560.1677	1327.2	442.75
982.8856	2561.4762	1320.55	440.2
983.0119	2562.7841	1315.05	430.4
983.1383	2564.0913	1317.45	438.7
983.2646	2565.3977	1313.55	433.9
983.3908	2566.7035	1314.35	432.9
983.517	2568.0086	1315.15	431.8
983.6432	2569.313	1316	433.95
983.7694	2570.6167	1317.45	432.85
983.8955	2571.9197	1317.6	436.45
984.0216	2573.222	1317.25	433.25
984.1476	2574.5236	1310.6	428
984.2737	2575.8246	1309.25	426.1
984.3996	2577.1248	1309.1	427.35
984.5256	2578.4244	1308.7	428.9
984.6515	2579.7232	1313.3	431.85
984.7774	2581.0214	1342.2	431.7
984.9032	2582.3189	1312.35	431.5
985.029	2583.6157	1323	436.15
985.1548	2584.9118	1319	439.1
985.2806	2586.2072	1321.2	441.75
985.4063	2587.5019	1314.05	434
985.5319	2588.7959	1325.5	443.45
985.6576	2590.0893	1329.3	447.7
985.7832	2591.3819	1318.65	439.2
985.9087	2592.6739	1324.6	444.35
986.0343	2593.9652	1324.75	441.65
986.1597	2595.2557	1328.9	448.3
986.2852	2596.5456	1332.25	450.75
986.4106	2597.8348	1325	442.85
986.536	2599.1234	1328.05	448.35
986.6614	2600.4112	1335.6	455.4
986.7867	2601.6983	1341.95	456.75
986.912	2602.9848	1334.25	452.65
987.0372	2604.2705	1338.55	453.8
987.1624	2605.5556	1335	454.45
987.2876	2606.84	1331.4	452
987.4128	2608.1237	1328.3	446.35
987.5379	2609.4067	1333.9	452.45
987.6629	2610.689	1331.55	442.55
987.788	2611.9707	1331.5	444.6
987.913	2613.2516	1333.85	447.45
988.0379	2614.5319	1325.1	443.2
988.1629	2615.8115	1328.25	444.5
988.2878	2617.0903	1326.4	444.45
988.4126	2618.3685	1326.95	445.7
988.5375	2619.6461	1321.55	441.4
988.6622	2620.9229	1323.55	443.8
988.787	2622.199	1327.85	445.95
988.9117	2623.4745	1322.3	441.1
989.0364	2624.7493	1318.6	437.25
989.161	2626.0234	1328.75	448.4
989.2857	2627.2968	1324.55	443.2
989.4102	2628.5695	1323.1	441.85
989.5348	2629.8415	1317.1	437.9
989.6593	2631.1128	1326.35	443
989.7837	2632.3835	1318.65	439.6
989.9082	2633.6535	1324.85	444.3
990.0326	2634.9228	1331.4	451.75
990.1569	2636.1914	1315.05	435.8
990.2812	2637.4593	1324.9	442.15
990.4055	2638.7265	1326.35	443
990.5298	2639.9931	1327.5	446.65
990.654	2641.259	1322.65	439.8
990.7782	2642.5242	1316	434.6
990.9023	2643.7887	1322.35	440.9
991.0264	2645.0525	1314.55	434
991.1505	2646.3156	1316.1	432.65
991.2745	2647.5781	1313.05	434.75
991.3985	2648.8398	1309.65	428.4
991.5225	2650.1009	1325.6	435.65
991.6464	2651.3613	1310.65	431.35
991.7703	2652.6211	1302.95	421.2
991.8942	2653.8801	1312.25	431.6
992.018	2655.1385	1308.6	425.9
992.1418	2656.3961	1304.6	422.4
992.2655	2657.6531	1310.1	430.75
992.3892	2658.9094	1307.2	424.3
992.5129	2660.1651	1307.2	426.5
992.6366	2661.42	1318.35	438.4
992.7602	2662.6743	1314.05	433.5
992.8837	2663.9279	1318.45	438.45
993.0073	2665.1808	1317.75	438.3
993.1307	2666.433	1317.75	434.6
993.2542	2667.6846	1315.8	438.15
993.3776	2668.9354	1325.5	439
993.501	2670.1856	1325.6	443.3
993.6244	2671.4351	1326.6	446.05
993.7477	2672.6839	1330.25	447.05
993.8709	2673.9321	1338.1	457.5
993.9942	2675.1795	1334.05	455.15
994.1174	2676.4263	1336.95	456.2
994.2405	2677.6724	1339.9	460.5
994.3637	2678.9179	1343.75	458.9
994.4868	2680.1626	1346.25	468.2
994.6098	2681.4067	1343.25	461.45
994.7328	2682.6501	1343.8	462.65
994.8558	2683.8928	1341.25	460
994.9788	2685.1348	1339.75	459.4
995.1017	2686.3761	1332.35	451.2
995.2245	2687.6168	1326.2	445.4
995.3474	2688.8568	1331.85	452.7
995.4702	2690.0961	1330.75	451.45
995.5929	2691.3348	1323.95	443
995.7156	2692.5727	1325.85	443.5
995.8383	2693.81	1318.5	437.55
995.961	2695.0466	1324.8	444.6
996.0836	2696.2826	1324.45	443
996.2062	2697.5178	1320.65	436.35
996.3287	2698.7524	1311.65	431.3
996.4512	2699.9863	1323.9	440.15
996.5737	2701.2195	1327	447.25
996.6961	2702.452	1325.05	445.3
996.8185	2703.6839	1331.05	449.3
996.9408	2704.9151	1334.85	457.15
997.0631	2706.1456	1341.7	460.75
997.1854	2707.3755	1358.5	476.25
997.3077	2708.6046	1358	475.8
997.4299	2709.8331	1361.3	478.7
997.552	2711.0609	1367.45	486.15
997.6742	2712.2881	1377.7	496.75
997.7963	2713.5145	1395.2	511.7
997.9183	2714.7403	1399.8	520.75
998.0403	2715.9654	1411.6	529
998.1623	2717.1899	1439.6	542.35
998.2842	2718.4136	1432.05	550.55
998.4062	2719.6367	1447.85	566.15
998.528	2720.8591	1473.25	587.4
998.6498	2722.0809	1469.2	588.45
998.7716	2723.3019	1482.7	598.25
998.8934	2724.5223	1491.35	610.65
999.0151	2725.7421	1494.35	609.65
999.1368	2726.9611	1505	621.75
999.2584	2728.1795	1494.25	607.15
999.38	2729.3972	1497.8	617.05
999.5016	2730.6142	1491.9	596.75
999.6231	2731.8306	1463.15	580.6
999.7446	2733.0462	1459.55	576.65
999.8661	2734.2612	1445.8	560.9
999.9875	2735.4756	1425.5	542.7
1000.1089	2736.6892	1410.7	531.05
1000.2302	2737.9022	1389.7	507.65
1000.3515	2739.1145	1379.55	500.2
1000.4728	2740.3262	1370.75	481.4
1000.594	2741.5372	1349.6	470.4
1000.7152	2742.7475	1345.8	464.3
1000.8363	2743.9571	1334.8	451.95
1000.9575	2745.1661	1325.65	440.5
1001.0785	2746.3744	1314.6	433.95
1001.1996	2747.582	1297.85	416.4
1001.3206	2748.7889	1301.05	418.4
1001.4415	2749.9952	1297.1	415.85
1001.5625	2751.2008	1290.1	407.6
1001.6833	2752.4057	1280.5	398.35
1001.8042	2753.61	1287.2	403.25
1001.925	2754.8136	1280.25	395.05
1002.0458	2756.0165	1275.75	394.4
1002.1665	2757.2188	1281	401.1
1002.2872	2758.4204	1277.85	396
1002.4078	2759.6213	1282.05	398.4
1002.5285	2760.8215	1286.6	399.85
1002.649	2762.0211	1279.85	396.95
1002.7696	2763.22	1284.65	401.8
1002.8901	2764.4182	1274.7	393.5
1003.0106	2765.6158	1272.35	390.9
1003.131	2766.8127	1276.3	393.2
1003.2514	2768.009	1268.5	386.15
1003.3717	2769.2045	1269.55	388.9
1003.492	2770.3994	1263.85	382.55
1003.6123	2771.5936	1264.75	382.8
1003.7325	2772.7872	1257.75	376.5
1003.8527	2773.9801	1258.9	375.15
1003.9729	2775.1723	1279.8	380.75
1004.093	2776.3639	1261.05	380.9
1004.2131	2777.5548	1265.15	379.8
1004.3331	2778.745	1260.3	378.5
1004.4531	2779.9346	1270.2	389
1004.5731	2781.1235	1269.4	385.1
1004.693	2782.3117	1270.9	391.05
1004.8129	2783.4992	1286.35	406.55
1004.9328	2784.6861	1289.2	409.05
1005.0526	2785.8723	1288.4	407.15
1005.1723	2787.0579	1296.3	415.2
1005.2921	2788.2428	1302.8	421.5
1005.4118	2789.427	1307.75	426.6
1005.5314	2790.6106	1328.5	447.05
1005.651	2791.7935	1338.2	455.45
1005.7706	2792.9757	1355.2	476.9
1005.8902	2794.1573	1368.65	486.85
1006.0097	2795.3382	1378.95	497
1006.1291	2796.5184	1392.3	511.85
1006.2485	2797.698	1413.1	527.8
1006.3679	2798.8769	1423.6	542.35
1006.4873	2800.0551	1450.9	568.9
1006.6066	2801.2327	1466.85	582.65
1006.7258	2802.4096	1492.55	614.35
1006.8451	2803.5859	1509.3	627.7
1006.9642	2804.7615	1540.75	657.4
1007.0834	2805.9364	1566.5	688.4
1007.2025	2807.1106	1592.05	710.2
1007.3216	2808.2842	1617.4	735.35
1007.4406	2809.4572	1654.4	773.1
1007.5596	2810.6294	1690.95	807.9
1007.6785	2811.801	1729.8	848.35
1007.7975	2812.972	1776.75	896.9
1007.9163	2814.1423	1818.35	935.7
1008.0352	2815.3119	1887.5	1007.3
1008.154	2816.4808	1920.6	1038.65
1008.2727	2817.6491	1968.95	1088.85
1008.3914	2818.8167	2022.1	1141.4
1008.5101	2819.9837	2090.3	1203.9
1008.6288	2821.15	2124.6	1243.35
1008.7474	2822.3157	2170.75	1289.05
1008.8659	2823.4807	2222.05	1340.7
1008.9844	2824.645	2262.15	1380.15
1009.1029	2825.8086	2304.4	1425.7
1009.2214	2826.9716	2333.05	1452.65
1009.3398	2828.134	2383.75	1506.15
1009.4581	2829.2957	2418.9	1537.65
1009.5764	2830.4567	2437.9	1559.05
1009.6947	2831.617	2469.25	1587.7
1009.813	2832.7767	2473.45	1593.6
1009.9312	2833.9358	2478.45	1596.2
1010.0493	2835.0941	2479.75	1596.75
1010.1675	2836.2519	2470.25	1587.85
1010.2855	2837.4089	2458.15	1576.75
1010.4036	2838.5653	2448	1566.75
1010.5216	2839.7211	2456.45	1576.55
1010.6396	2840.8761	2458	1574.45
1010.7575	2842.0306	2473.85	1593.3
1010.8754	2843.1843	2514.2	1633.8
1010.9932	2844.3374	2563.3	1682.7
1011.111	2845.4899	2619.05	1736.4
1011.2288	2846.6417	2695.15	1816.05
1011.3465	2847.7928	2775.1	1894.4
1011.4642	2848.9433	2852.2	1971.8
1011.5818	2850.0931	2938.4	2057.85
1011.6995	2851.2422	3031	2149.45
1011.817	2852.3907	3103.45	2221.9
1011.9345	2853.5385	3169.3	2290.05
1012.052	2854.6857	3247.45	2340.9
1012.1695	2855.8323	3299.05	2420.05
1012.2869	2856.9781	3346.35	2464.95
1012.4042	2858.1233	3398.9	2517.5
1012.5216	2859.2679	3432.4	2552
1012.6389	2860.4118	3463.9	2582.15
1012.7561	2861.555	3514.6	2629.3
1012.8733	2862.6976	3560.9	2677.45
1012.9905	2863.8395	3598.25	2717.3
1013.1076	2864.9808	3632.25	2750.2
1013.2247	2866.1214	3634.75	2755.15
1013.3417	2867.2614	3659.15	2778
1013.4587	2868.4007	3694.15	2809.45
1013.5757	2869.5393	3694	2808.85
1013.6926	2870.6773	3693.35	2809.2
1013.8095	2871.8146	3714.45	2827.65
1013.9263	2872.9513	3729.5	2847.45
1014.0431	2874.0874	3719.45	2838.65
1014.1599	2875.2227	3714.9	2831.65
1014.2766	2876.3574	3703.9	2823.3
1014.3933	2877.4915	3681.45	2801.1
1014.51	2878.6249	3652.3	2770.65
1014.6266	2879.7577	3636.9	2754.95
1014.7431	2880.8898	3619.35	2726.8
1014.8596	2882.0212	3585.55	2706.7
1014.9761	2883.152	3581.65	2701.1
1015.0925	2884.2821	3582	2700.95
1015.2089	2885.4116	3551.75	2671.65
1015.3253	2886.5405	3550.55	2669.4
1015.4416	2887.6686	3566.85	2681.65
1015.5579	2888.7962	3557.05	2679.15
1015.6741	2889.923	3573.2	2693.15
1015.7903	2891.0493	3592.8	2713.55
1015.9065	2892.1748	3603.4	2721.15
1016.0226	2893.2997	3626.35	2745.3
1016.1387	2894.424	3640.35	2759.95
1016.2547	2895.5476	3640.35	2759.2
1016.3707	2896.6706	3662.2	2780.1
1016.4866	2897.7929	3701	2819
1016.6025	2898.9145	3722.5	2842.9
1016.7184	2900.0355	3762.85	2880.6
1016.8342	2901.1559	3787.2	2904.7
1016.95	2902.2756	3825.2	2944.4
1017.0658	2903.3946	3872.65	2992.3
1017.1815	2904.513	3895.75	3011.35
1017.2971	2905.6308	3932	3050.25
1017.4127	2906.7479	3954.7	3073.5
1017.5283	2907.8643	3976.8	3096.3
1017.6439	2908.9801	3992.9	3112.2
1017.7594	2910.0953	4009.35	3128.95
1017.8748	2911.2098	4001.6	3118.05
1017.9902	2912.3236	4017.35	3128
1018.1056	2913.4368	4014.25	3130.85
1018.2209	2914.5494	3964.8	3082.5
1018.3362	2915.6613	3954.85	3068
1018.4515	2916.7725	3932.85	3050.75
1018.5667	2917.8831	3898.4	3015.45
1018.6819	2918.9931	3869.05	2984.95
1018.797	2920.1024	3835.1	2952.3
1018.9121	2921.211	3826	2943.6
1019.0271	2922.319	3778.85	2896.9
1019.1421	2923.4264	3781.45	2902.2
1019.2571	2924.5331	3764.9	2885.9
1019.372	2925.6391	3754.85	2873.85
1019.4869	2926.7445	3753.15	2875.05
1019.6017	2927.8493	3737.1	2856.4
1019.7165	2928.9534	3717.45	2836.3
1019.8313	2930.0569	3722.5	2840.5
1019.946	2931.1597	3708.4	2827.05
1020.0606	2932.2619	3707.1	2823.2
1020.1753	2933.3634	3703.3	2822.9
1020.2899	2934.4643	3686.4	2798.95
1020.4044	2935.5645	3666.1	2780.8
1020.5189	2936.6641	3627.95	2741.45
1020.6334	2937.763	3572.55	2692
1020.7478	2938.8613	3541.6	2658.75
1020.8622	2939.959	3476.55	2590.2
1020.9765	2941.056	3389.95	2510.45
1021.0908	2942.1523	3310.35	2425.4
1021.2051	2943.248	3228.8	2348.95
1021.3193	2944.3431	3136.05	2254.35
1021.4334	2945.4375	3029.65	2149.15
1021.5476	2946.5313	2920.95	2042.8
1021.6617	2947.6244	2819.7	1938.7
1021.7757	2948.7169	2709.9	1825.9
1021.8897	2949.8087	2610.2	1729.8
1022.0037	2950.8999	2511.05	1630.15
1022.1176	2951.9904	2436.9	1556.85
1022.2315	2953.0803	2349.25	1466.55
1022.3453	2954.1696	2292.15	1412.05
1022.4591	2955.2582	2240.6	1360.6
1022.5728	2956.3462	2187.05	1307.15
1022.6865	2957.4335	2148.25	1267.25
1022.8002	2958.5202	2105.75	1222.25
1022.9138	2959.6062	2078.7	1197.75
1023.0274	2960.6916	2044	1163.25
1023.141	2961.7764	2036.6	1155.35
1023.2545	2962.8605	2012.45	1131.9
1023.3679	2963.9439	1998.45	1115.9
1023.4813	2965.0267	1990.7	1106.8
1023.5947	2966.1089	1997.85	1096.15
1023.708	2967.1905	1983.55	1102.25
1023.8213	2968.2714	1975.45	1095.75
1023.9346	2969.3516	1982.75	1099.7
1024.0478	2970.4312	1981.4	1095.25
1024.1609	2971.5102	1973.6	1092.05
1024.274	2972.5885	1969.7	1088.95
1024.3871	2973.6662	1981.3	1094.95
1024.5002	2974.7432	1971.55	1091.2
1024.6132	2975.8196	1959.1	1079.45
1024.7261	2976.8954	1957.85	1077.6
1024.839	2977.9705	1950.65	1068.35
1024.9519	2979.045	1937.4	1057.85
1025.0647	2980.1188	1916.45	1037.5
1025.1775	2981.192	1890.75	1011.05
1025.2902	2982.2645	1880.65	1000.2
1025.4029	2983.3364	1855.35	973.4
1025.5156	2984.4077	1824.75	945.85
1025.6282	2985.4783	1803.15	917.2
1025.7407	2986.5483	1755.8	874.1
1025.8532	2987.6177	1728.5	847.2
1025.9657	2988.6864	1684.9	801.8
1026.0782	2989.7545	1660.55	777.4
1026.1906	2990.8219	1616.7	736.2
1026.3029	2991.8887	1596.65	712.85
1026.4152	2992.9548	1552.5	672.3
1026.5275	2994.0204	1522.35	642.9
1026.6397	2995.0852	1500.45	620.95
1026.7519	2996.1495	1471.3	590.9
1026.864	2997.2131	1450	567.5
1026.9761	2998.276	1421.8	541.05
1027.0882	2999.3383	1409.1	526
1027.2002	3000.4	1392.85	512.45
1027.3122	3001.4611	1380.05	499.15
1027.4241	3002.5215	1361.25	479.35
1027.536	3003.5812	1346.15	464.85
1027.6478	3004.6404	1336.2	453.75
1027.7596	3005.6989	1329.35	448
1027.8714	3006.7567	1315.85	436.1
1027.9831	3007.8139	1327.8	428.95
1028.0947	3008.8705	1299.4	420.5
1028.2064	3009.9264	1301.7	418.15
1028.3179	3010.9818	1292.55	412.15
1028.4295	3012.0364	1290.55	411.15
1028.541	3013.0905	1287.15	406.25
1028.6524	3014.1439	1293.6	411.25
1028.7638	3015.1966	1287.35	407.4
1028.8752	3016.2487	1283.95	402.7
1028.9865	3017.3002	1296.1	411.45
1029.0978	3018.3511	1283.7	403.7
1029.209	3019.4013	1287.6	406.5
1029.3202	3020.4509	1277.85	398.4
1029.4314	3021.4998	1288.15	409.55
1029.5425	3022.5481	1288.25	408.15
1029.6535	3023.5958	1295.35	413.25
1029.7645	3024.6428	1295.3	414
1029.8755	3025.6892	1293.8	412.6
1029.9864	3026.735	1294.45	413.7
1030.0973	3027.7802	1297.9	417.55
1030.2082	3028.8247	1297.6	418
1030.319	3029.8685	1305.85	423.95
1030.4297	3030.9118	1304.6	423.45
1030.5404	3031.9544	1312.2	432.15
1030.6511	3032.9963	1318.15	439.25
1030.7617	3034.0376	1328.3	446.95
1030.8723	3035.0783	1330.4	447.75
1030.9829	3036.1184	1335	455.45
1031.0934	3037.1578	1336.25	455.6
1031.2038	3038.1966	1342.2	461
1031.3142	3039.2348	1348.5	467.1
1031.4246	3040.2723	1346.15	454.7
1031.5349	3041.3092	1334.55	455.3
1031.6452	3042.3455	1340.7	458.5
1031.7554	3043.3811	1338.45	457.5
1031.8656	3044.4161	1324.55	443.75
1031.9758	3045.4505	1326.3	446.5
1032.0859	3046.4842	1323.55	444.35
1032.1959	3047.5173	1316.9	435.25
1032.3059	3048.5498	1308.2	427.4
1032.4159	3049.5816	1303.8	422.65
1032.5258	3050.6128	1298.35	415.1
1032.6357	3051.6434	1293.55	410.3
1032.7455	3052.6734	1288.05	404.65
1032.8553	3053.7027	1275.75	395.75
1032.9651	3054.7314	1273.3	392.75
1033.0748	3055.7594	1264.7	384.95
1033.1845	3056.7868	1258.7	378
1033.2941	3057.8136	1252.25	370.95
1033.4037	3058.8398	1244.2	362.85
1033.5132	3059.8653	1239.65	358.1
1033.6227	3060.8902	1235.25	353.95
1033.7321	3061.9145	1229.95	350.4
1033.8415	3062.9381	1232.3	352.9
1033.9509	3063.9612	1238.65	344.4
1034.0602	3064.9835	1212.95	333.15
1034.1694	3066.0053	1207.55	324.2
1034.2787	3067.0264	1197.5	316.75
1034.3878	3068.0469	1194	310.6
1034.497	3069.0668	1191.65	308.25
1034.6061	3070.086	1177.2	296.55
1034.7151	3071.1046	1173.05	288.7
1034.8241	3072.1226	1162.25	279.65
1034.9331	3073.1399	1152.55	272.65
1035.042	3074.1567	1141.15	259.65
1035.1508	3075.1727	1135.85	254.1
1035.2597	3076.1882	1125.2	245.65
1035.3684	3077.203	1113.65	232.45
1035.4772	3078.2173	1104.45	223.6
1035.5859	3079.2308	1102.5	218.45
1035.6945	3080.2438	1092.9	208.65
1035.8031	3081.2561	1085.5	203.55
1035.9117	3082.2678	1077.5	196.65
1036.0202	3083.2789	1070.85	189.2
1036.1286	3084.2893	1065.8	185.35
1036.2371	3085.2991	1058.55	178.1
1036.3454	3086.3083	1056.75	170.8
1036.4538	3087.3169	1053.1	172
1036.562	3088.3248	1045.3	163.7
1036.6703	3089.3321	1041.15	158.45
1036.7785	3090.3388	1036.1	156.85
1036.8866	3091.3449	1030.55	149.75
1036.9948	3092.3503	1029.05	146.6
1037.1028	3093.3551	1021.55	142.9
1037.2108	3094.3593	1022.05	141.1
1037.3188	3095.3629	1016.1	137.15
1037.4267	3096.3658	1020.55	137.05
1037.5346	3097.3681	1014.6	135.05
1037.6425	3098.3698	1010.05	129.95
1037.7503	3099.3708	1007.7	125.5
1037.858	3100.3713	1005.7	126.1
1037.9657	3101.3711	1002.55	120.85
1038.0734	3102.3702	1144.85	125.7
1038.181	3103.3688	1001.6	118.5
1038.2886	3104.3667	996.5	115.4
1038.3961	3105.364	999.35	120.35
1038.5036	3106.3607	998.1	115.8
1038.611	3107.3568	996.3	115.2
1038.7184	3108.3522	990.35	111.4
1038.8257	3109.347	994.55	112.2
1038.933	3110.3412	992.8	108.55
1039.0403	3111.3348	989.7	108.15
1039.1475	3112.3277	987.15	107.3
1039.2547	3113.32	985.25	105.95
1039.3618	3114.3117	985.95	107.05
1039.4689	3115.3028	985.55	105.35
1039.5759	3116.2932	985.95	103.2
1039.6829	3117.2831	988	101.85
1039.7898	3118.2723	981.9	100.7
1039.8967	3119.2608	978.25	96.3
1040.0035	3120.2488	981	99.95
1040.1103	3121.2361	977.6	94.9
1040.2171	3122.2229	978.1	97.5
1040.3238	3123.209	976.2	95.9
1040.4305	3124.1944	977.5	100.15
1040.5371	3125.1793	975.1	91.75
1040.6437	3126.1635	972.7	92.85
1040.7502	3127.1471	971.9	92
1040.8567	3128.1301	974.15	93.55
1040.9631	3129.1125	968	87.2
1041.0695	3130.0942	971.45	92.05
1041.1759	3131.0753	979.55	91.75
1041.2822	3132.0558	972.1	88.05
1041.3884	3133.0357	968.35	86.35
1041.4946	3134.015	969.7	89.1
1041.6008	3134.9936	964.6	83.6
1041.7069	3135.9716	983.75	82.95
1041.813	3136.949	963.05	81.5
1041.919	3137.9258	980.1	83.55
1042.025	3138.902	968.65	81.3
1042.1309	3139.8775	958.05	79.85
1042.2368	3140.8524	961.8	81.25
1042.3427	3141.8267	962.7	78.05
1042.4485	3142.8004	959.6	78.55
1042.5542	3143.7735	964.8	78.2
1042.6599	3144.7459	960.1	78.85
1042.7656	3145.7178	955.55	75.25
1042.8712	3146.689	950.2	69.5
1042.9768	3147.6596	957.25	76.1
1043.0823	3148.6295	955.9	74.05
1043.1878	3149.5989	951.45	70.2
1043.2932	3150.5676	951.95	72.5
1043.3986	3151.5357	947.8	67.8
1043.5039	3152.5032	953.6	73.25
1043.6092	3153.4701	952.3	71.8
1043.7145	3154.4364	953.5	69.6
1043.8197	3155.402	945.8	66.7
1043.9248	3156.367	950.7	67.95
1044.03	3157.3315	988.4	65.75
1044.135	3158.2952	947.05	66.85
1044.24	3159.2584	945.6	66.4
1044.345	3160.221	948.85	70.15
1044.4499	3161.1829	946.6	63.9
1044.5548	3162.1442	943.95	62.2
1044.6596	3163.105	944.35	63.35
1044.7644	3164.065	943	62.95
1044.8692	3165.0245	942.95	61.45
1044.9739	3165.9834	941	63
1045.0785	3166.9416	942.75	64.7
1045.1831	3167.8993	940.55	57.7
1045.2877	3168.8563	942.35	61.55
1045.3922	3169.8127	938.5	58.95
1045.4966	3170.7684	938.9	60.1
1045.6011	3171.7236	940.05	58
1045.7054	3172.6782	940.1	61.25
1045.8098	3173.6321	940.1	61.15
1045.914	3174.5854	937.7	52.9
1046.0183	3175.5381	938.1	58.7
1046.1224	3176.4902	935.5	57.2
1046.2266	3177.4417	937.6	57.7
1046.3307	3178.3926	935.3	55
1046.4347	3179.3428	935.95	55.95
1046.5387	3180.2924	937.65	58.2
1046.6427	3181.2415	937.35	57.3
1046.7466	3182.1899	935.3	55.25
1046.8504	3183.1377	933.4	51.3
1046.9542	3184.0848	934.2	50.2
1047.058	3185.0314	937	57.25
1047.1617	3185.9773	931.75	49.9
1047.2654	3186.9227	934.75	53.05
1047.369	3187.8674	933.65	51.35
1047.4726	3188.8115	937.5	52.2
1047.5761	3189.755	932.25	51.45
1047.6796	3190.6979	931.9	52.9
1047.783	3191.6402	930.65	50.8
1047.8864	3192.5818	932.95	53.15
1047.9898	3193.5229	952.55	52
1048.0931	3194.4633	933.75	54.55
1048.1963	3195.4031	929.15	47.75
1048.2995	3196.3423	927.45	46.35
1048.4027	3197.2809	929.7	49.45
1048.5058	3198.2189	930.3	49.75
1048.6089	3199.1563	946.9	51.15
1048.7119	3200.0931	929.7	50.55
1048.8148	3201.0292	926.5	47.5
1048.9178	3201.9648	927.45	48.45
1049.0206	3202.8997	931.85	48.9
1049.1235	3203.834	927.7	46.9
1049.2262	3204.7677	925.05	43.6
1049.329	3205.7008	928.9	47.8
1049.4317	3206.6333	927.3	49.05
1049.5343	3207.5652	930.85	48.05
1049.6369	3208.4964	924.8	45.35
1049.7394	3209.4271	927.9	47.05
1049.8419	3210.3571	922.8	42.2
1049.9444	3211.2865	925.55	43.55
1050.0468	3212.2154	926.2	45.9
1050.1491	3213.1436	927	43.55
1050.2514	3214.0712	931	44.65
1050.3537	3214.9982	927.35	48.4
1050.4559	3215.9246	924.75	44.45
1050.5581	3216.8503	921.85	41.8
1050.6602	3217.7755	924.35	44.5
1050.7623	3218.7001	925	44.45
1050.8643	3219.624	926.5	45.8
1050.9663	3220.5473	921.55	40.85
1051.0682	3221.4701	924.2	41.85
1051.1701	3222.3922	923.4	43.25
1051.2719	3223.3137	922.05	40.2
1051.3737	3224.2346	922.8	43.25
1051.4754	3225.1549	923.3	44.35
1051.5771	3226.0746	921.55	42.8
1051.6788	3226.9937	922.7	44.2
1051.7804	3227.9121	921.5	41.85
1051.8819	3228.83	921.75	43.05
1051.9834	3229.7473	920.6	38.25
1052.0849	3230.6639	920.25	41.95
1052.1863	3231.5799	917.5	36.25
1052.2876	3232.4954	924.8	42.6
1052.3889	3233.4102	917.85	38.55
1052.4902	3234.3244	921.05	40.55
1052.5914	3235.238	918.8	39.1
1052.6926	3236.151	941.15	35.95
1052.7937	3237.0634	918.1	38.5
1052.8948	3237.9752	919.5	41.45
1052.9958	3238.8864	920.15	39.85
1053.0968	3239.797	918.7	38.95
1053.1977	3240.7069	916.05	36.65
1053.2986	3241.6163	918.25	38.2
1053.3994	3242.5251	918.1	40.4
1053.5002	3243.4332	918.2	39
1053.6009	3244.3408	918.5	37.6
1053.7016	3245.2477	913.6	33.6
1053.8022	3246.154	916.8	35.45
1053.9028	3247.0598	917.2	35.4
1054.0034	3247.9649	914.6	34.05
1054.1039	3248.8694	914.55	34.75
1054.2043	3249.7733	917.25	37.35
1054.3047	3250.6766	914.8	34.5
1054.4051	3251.5793	915.6	35.15
1054.5054	3252.4814	916.5	35.5
1054.6056	3253.3829	913.4	35.15
1054.7058	3254.2838	914.2	34.75
1054.806	3255.1841	913.1	33.55
1054.9061	3256.0838	912.3	33.05
1055.0061	3256.9829	912.5	32.5
1055.1062	3257.8814	915.25	32.3
1055.2061	3258.7792	915.9	31.25
1055.306	3259.6765	912.15	31.65
1055.4059	3260.5731	911.5	32.45
1055.5057	3261.4692	909.95	30.35
1055.6055	3262.3647	912.35	32.1
1055.7052	3263.2595	911.2	31.25
1055.8049	3264.1538	909.15	31.75
1055.9045	3265.0474	908.55	26.9
1056.0041	3265.9404	907.15	28.25
1056.1036	3266.8329	907.95	27.65
1056.2031	3267.7247	917.05	27.3
1056.3025	3268.616	905.55	26.1
1056.4019	3269.5066	905.75	26.15
1056.5013	3270.3966	906.8	23.85
1056.6005	3271.286	901.85	23.9
