Software Version:	3.9.2.0
Unit SN:	10000200
Spectrometer SN:	6960
Date:	3/14/2024 12:33:45 PM
Data Line Index:	25
Spectral Points:	2048
Integration time (ms):	125
Averages:	20
Delay (ms):	30000
Sequence Number:	1
Processing:	dark subtract
Laser Power (mW):	300
Laser Current (mA):	823
Laser Diode Temp (C):	25.1
Laser Case Temp (C):	26.4
System Temp (C):	26.4
Spectrometer Temp (C):	23.9
CCD Temp (C):	0.005
Secondary Temp (C):	20.006
Heatsink Temp (C):	22.796
CCDPCB Temp (C):	36.474
SecondaryPCB Temp (C):	33.728

Wavelength	RamanShift	Raw Counts	Dark Subtracted
787.061	30.1047	416.85	5.1
787.2016	32.3739	416.35	7.6
787.3422	34.6426	419.3	8.65
787.4828	36.9109	419.35	5.85
787.6235	39.1787	423.75	6.75
787.7642	41.4461	430.9	9.15
787.9049	43.7131	433.9	10.55
788.0456	45.9796	438.25	8.35
788.1863	48.2456	441.9	8.9
788.3271	50.5112	446.15	7.4
788.4679	52.7764	448.95	8.75
788.6087	55.0411	451.8	10.35
788.7496	57.3054	457.9	10.9
788.8904	59.5692	462.4	13.85
789.0313	61.8326	466.2	12.5
789.1722	64.0955	472.2	14.7
789.3132	66.3579	479.4	16.05
789.4541	68.6199	486.65	23.1
789.5951	70.8815	491.7	25.15
789.7361	73.1426	507.85	38.2
789.8771	75.4032	540.9	65.25
790.0181	77.6634	606.75	126.55
790.1592	79.9231	754.55	270.65
790.3003	82.1824	1075.2	586.95
790.4414	84.4412	1601.75	1109.9
790.5825	86.6995	2299.5	1799.25
790.7237	88.9574	2983.9	2477.85
790.8648	91.2148	3464.25	2954.75
791.006	93.4717	3701.35	3186.4
791.1472	95.7282	3754.65	3236.15
791.2885	97.9842	3785.05	3263.9
791.4297	100.2398	3755.4	3231.75
791.571	102.4949	3715.5	3188.1
791.7123	104.7495	3688.4	3158.8
791.8536	107.0036	3675.65	3142.6
791.9949	109.2573	3622.4	3092.25
792.1363	111.5105	3559	3025.25
792.2777	113.7632	3507.8	2972.95
792.4191	116.0154	3448.25	2903.15
792.5605	118.2672	3381.25	2842.85
792.7019	120.5185	3288.65	2749.7
792.8434	122.7693	3236.95	2695.15
792.9849	125.0197	3169.85	2624.25
793.1264	127.2696	3094	2547.25
793.2679	129.519	3058.25	2509.3
793.4094	131.7679	3037.7	2485.05
793.551	134.0163	3030.4	2473.6
793.6926	136.2642	3026.3	2466.75
793.8342	138.5117	3017.75	2454.05
793.9758	140.7587	3004.95	2441.65
794.1175	143.0052	2994.4	2428.3
794.2591	145.2512	2932.6	2364.05
794.4008	147.4967	2906.55	2337.75
794.5425	149.7417	2861.9	2290.45
794.6842	151.9863	2829.9	2253.25
794.826	154.2304	2819.3	2240.7
794.9677	156.4739	2815.65	2231.5
795.1095	158.717	2815.55	2234.5
795.2513	160.9596	2839.45	2250.6
795.3931	163.2017	2854.15	2264.75
795.535	165.4433	2858.65	2264.6
795.6768	167.6844	2882.2	2289
795.8187	169.925	2859.4	2263
795.9606	172.1651	2821.2	2220.65
796.1025	174.4047	2788.3	2183.85
796.2445	176.6439	2740.55	2132.2
796.3864	178.8825	2722.7	2111.9
796.5284	181.1206	2713.3	2101.4
796.6704	183.3582	2702.55	2085.55
796.8124	185.5954	2698.45	2081.8
796.9544	187.832	2689.75	2064.95
797.0965	190.0681	2688.35	2064.95
797.2386	192.3037	2697.1	2069.7
797.3806	194.5388	2682.7	2054.65
797.5228	196.7734	2698.35	2066.75
797.6649	199.0075	2715	2077.8
797.807	201.2411	2727.35	2087.1
797.9492	203.4742	2741.15	2101.85
798.0914	205.7068	2764.7	2122.6
798.2336	207.9389	2781.95	2141.15
798.3758	210.1704	2803.1	2158.8
798.518	212.4015	2782.1	2132.15
798.6603	214.632	2788.6	2141.4
798.8025	216.862	2777.05	2134.5
798.9448	219.0915	2782.8	2147.35
799.0871	221.3205	2789.35	2155.05
799.2294	223.549	2774.85	2148.1
799.3718	225.777	2787.85	2161.35
799.5141	228.0044	2777.85	2145.5
799.6565	230.2314	2776.75	2150
799.7989	232.4578	2766.55	2136.5
799.9413	234.6837	2764.95	2126.45
800.0837	236.909	2751.55	2113.7
800.2262	239.1339	2750.35	2088.65
800.3687	241.3582	2725.65	2079.7
800.5111	243.582	2748	2074
800.6536	245.8053	2743.65	2075.7
800.7961	248.0281	2736.5	2075.35
800.9387	250.2503	2745.5	2078.25
801.0812	252.472	2759.15	2087.75
801.2238	254.6932	2745.55	2072.3
801.3664	256.9139	2753.85	2078.35
801.509	259.134	2768.7	2089.55
801.6516	261.3536	2776.4	2097.15
801.7942	263.5727	2803.95	2121.85
801.9369	265.7912	2825.75	2145.65
802.0795	268.0092	2875.5	2194.55
802.2222	270.2267	2909.9	2228.95
802.3649	272.4436	2941.45	2257.5
802.5076	274.6601	2975.7	2284.95
802.6504	276.8759	2981.8	2294.45
802.7931	279.0913	3005.55	2317.55
802.9359	281.3061	3015.75	2325.25
803.0787	283.5204	3027.1	2333.45
803.2215	285.7341	3055.15	2359.9
803.3643	287.9473	3062.75	2366.6
803.5071	290.16	3065.3	2361.8
803.6499	292.3721	3038.25	2340.45
803.7928	294.5837	2997.25	2295.95
803.9357	296.7947	2958.6	2260.7
804.0786	299.0052	2938.35	2239.05
804.2215	301.2152	2909.55	2204.95
804.3644	303.4246	2905.4	2206.8
804.5074	305.6334	2901.2	2201.1
804.6503	307.8418	2902.05	2197.35
804.7933	310.0495	2891.5	2186.8
804.9363	312.2568	2857.4	2152.5
805.0793	314.4635	2817.7	2112.3
805.2223	316.6696	2779.75	2074.15
805.3653	318.8752	2740	2025.35
805.5084	321.0802	2716.15	2008.65
805.6514	323.2847	2706.55	1993.95
805.7945	325.4887	2702.95	1993.15
805.9376	327.692	2709.8	1999
806.0807	329.8949	2743.65	2031.2
806.2238	332.0972	2775.65	2060
806.367	334.2989	2806.75	2088.05
806.5101	336.5001	2806.9	2087.75
806.6533	338.7007	2790.45	2070.6
806.7965	340.9008	2751.95	2030.2
806.9397	343.1003	2716.2	1991.8
807.0829	345.2992	2668.6	1943.2
807.2261	347.4976	2634.9	1909.5
807.3693	349.6955	2601.1	1870.85
807.5126	351.8927	2596.65	1866.05
807.6559	354.0895	2580.65	1839.4
807.7991	356.2856	2562.4	1830.45
807.9424	358.4812	2545.4	1814.2
808.0857	360.6763	2546.1	1815.3
808.2291	362.8707	2540	1804.25
808.3724	365.0646	2541.95	1805.45
808.5158	367.258	2530.05	1790.6
808.6591	369.4508	2546.75	1805.2
808.8025	371.643	2569.45	1829
808.9459	373.8346	2578.85	1833.85
809.0893	376.0257	2614.15	1867.05
809.2327	378.2162	2649.6	1899.75
809.3762	380.4062	2670.25	1918.15
809.5196	382.5956	2651.25	1899.3
809.6631	384.7844	2615.85	1864.1
809.8066	386.9726	2572.8	1817.5
809.9501	389.1603	2534.25	1781.1
810.0936	391.3474	2542.55	1763.4
810.2371	393.5339	2514.8	1760.8
810.3806	395.7199	2510.5	1762.75
810.5241	397.9052	2528.3	1782.75
810.6677	400.09	2560.3	1815.65
810.8113	402.2743	2584.55	1840.15
810.9548	404.4579	2612.25	1865.65
811.0984	406.641	2639.6	1891.4
811.2421	408.8235	2667	1919
811.3857	411.0054	2711.4	1961.8
811.5293	413.1868	2780.05	2029.1
811.673	415.3675	2855.95	2101.65
811.8166	417.5477	2880.35	2124.8
811.9603	419.7273	2824.1	2063.55
812.104	421.9064	2732.8	1969.2
812.2477	424.0848	2664.7	1904.5
812.3914	426.2627	2593.25	1829
812.5351	428.4399	2557.25	1792.55
812.6788	430.6166	2513.65	1744
812.8226	432.7928	2477.95	1709.8
812.9663	434.9683	2441.65	1671.2
813.1101	437.1432	2424.4	1650.5
813.2539	439.3176	2407.7	1634.25
813.3977	441.4914	2388.65	1613.85
813.5415	443.6645	2396.75	1619.7
813.6853	445.8371	2386.3	1609.3
813.8291	448.0091	2387.9	1612.25
813.973	450.1806	2379.9	1602.25
814.1168	452.3514	2357.25	1580.3
814.2607	454.5216	2367.9	1582.5
814.4046	456.6913	2357.35	1576.55
814.5485	458.8603	2368.05	1588.2
814.6924	461.0288	2362.1	1580.5
814.8363	463.1967	2372.6	1592.2
814.9802	465.3639	2358	1573.7
815.1241	467.5306	2363.25	1580.4
815.2681	469.6967	2349.95	1568.05
815.412	471.8622	2334.35	1551.05
815.556	474.0271	2333.8	1549.5
815.7	476.1914	2329	1542.1
815.844	478.3551	2329.05	1543.7
815.988	480.5182	2332.2	1544
816.132	482.6807	2334.65	1546.15
816.276	484.8426	2345.85	1557.1
816.4201	487.0039	2383.7	1596.85
816.5641	489.1647	2425.65	1637.45
816.7082	491.3248	2446.3	1657.75
816.8522	493.4843	2457.45	1669.45
816.9963	495.6432	2458.05	1669.35
817.1404	497.8015	2430.15	1636.9
817.2845	499.9592	2407.65	1614.9
817.4286	502.1163	2360.75	1567.45
817.5727	504.2728	2319.45	1524.6
817.7168	506.4287	2299.8	1508.2
817.861	508.5839	2285.15	1493.95
818.0051	510.7386	2288.25	1494.25
818.1493	512.8927	2284.25	1483.15
818.2935	515.0461	2291.3	1496.5
818.4377	517.199	2287.05	1491.55
818.5818	519.3512	2327.9	1532.55
818.726	521.5029	2364.6	1561.8
818.8703	523.6539	2423.8	1626.9
819.0145	525.8043	2430.7	1634.15
819.1587	527.9541	2402.8	1601.6
819.303	530.1033	2340.85	1540.15
819.4472	532.2519	2292.1	1490.6
819.5915	534.3999	2285.4	1483.55
819.7357	536.5472	2273.55	1471.15
819.88	538.694	2269.35	1466.35
820.0243	540.8401	2283	1479.2
820.1686	542.9856	2293.05	1487.25
820.3129	545.1305	2302.75	1495.45
820.4572	547.2748	2324.25	1517.7
820.6016	549.4185	2320.9	1514.85
820.7459	551.5615	2317.85	1512.45
820.8902	553.704	2328.35	1521.55
821.0346	555.8458	2348.9	1543.2
821.1789	557.987	2363.15	1556.95
821.3233	560.1276	2380.7	1571.45
821.4677	562.2675	2422.25	1617.8
821.6121	564.4069	2482.5	1674.8
821.7565	566.5456	2529.75	1722.25
821.9009	568.6837	2509.6	1701.5
822.0453	570.8212	2447.85	1638.1
822.1897	572.958	2377.65	1566.3
822.3342	575.0942	2338.1	1529.45
822.4786	577.2299	2317.5	1506
822.6231	579.3648	2282.35	1471.5
822.7675	581.4992	2255.85	1441
822.912	583.6329	2256.45	1444.55
823.0565	585.766	2277.55	1467.4
823.201	587.8985	2299.25	1486.5
823.3454	590.0304	2356.55	1533.45
823.4899	592.1616	2373.65	1558.55
823.6345	594.2922	2380	1563
823.779	596.4222	2356.75	1541.05
823.9235	598.5515	2306.25	1489.85
824.068	600.6802	2269.9	1453.9
824.2126	602.8083	2229.9	1414.25
824.3571	604.9358	2214.5	1396.4
824.5017	607.0626	2209.75	1393.25
824.6462	609.1888	2207.35	1388
824.7908	611.3144	2224.35	1406.15
824.9354	613.4393	2245.15	1427.45
825.08	615.5636	2287.5	1470
825.2246	617.6873	2337.45	1518.45
825.3692	619.8103	2367.65	1546.35
825.5138	621.9327	2374.55	1549.35
825.6584	624.0544	2339.55	1518.35
825.803	626.1756	2297.5	1476.05
825.9477	628.2961	2249.35	1425.75
826.0923	630.4159	2221.8	1398.95
826.237	632.5351	2213.95	1390.9
826.3816	634.6537	2213.3	1388.2
826.5263	636.7716	2214.6	1390.25
826.6709	638.8889	2203.95	1380.5
826.8156	641.0056	2203.55	1379.7
826.9603	643.1216	2212.1	1386.55
827.105	645.237	2231.55	1403.65
827.2497	647.3518	2209.5	1381.95
827.3944	649.4659	2195.05	1367.6
827.5391	651.5793	2175.85	1348.65
827.6838	653.6922	2161.35	1334.2
827.8285	655.8043	2144.8	1318.35
827.9733	657.9159	2140.3	1309.95
828.118	660.0268	2131.4	1301.8
828.2627	662.137	2126.95	1297.75
828.4075	664.2466	2126	1295.85
828.5522	666.3556	2129.7	1299.35
828.697	668.4639	2126.25	1292.05
828.8418	670.5716	2117.3	1285.6
828.9865	672.6786	2112.05	1279.7
829.1313	674.785	2112	1278.3
829.2761	676.8907	2101.65	1270.6
829.4209	678.9958	2104.2	1272.5
829.5657	681.1002	2084.6	1251.05
829.7105	683.204	2103.05	1265.35
829.8553	685.3072	2088.95	1254.45
830.0001	687.4097	2096.2	1260.55
830.1449	689.5115	2103.95	1268.2
830.2898	691.6127	2095.5	1262.15
830.4346	693.7132	2092.7	1257.3
830.5794	695.8131	2095.1	1244.6
830.7243	697.9123	2092.95	1256.65
830.8691	700.0109	2089.05	1250.7
831.014	702.1089	2103.5	1267.8
831.1588	704.2061	2117.05	1280.95
831.3037	706.3028	2129.95	1290.65
831.4486	708.3987	2145	1308.6
831.5935	710.4941	2161.85	1323.45
831.7383	712.5887	2158.2	1319.15
831.8832	714.6827	2159.9	1315.3
832.0281	716.7761	2150.95	1311.85
832.173	718.8688	2139.05	1296.85
832.3179	720.9608	2135.7	1292.85
832.4628	723.0522	2149.3	1305.3
832.6077	725.1429	2161.6	1320.25
832.7527	727.233	2188.9	1347.7
832.8976	729.3224	2238	1397.95
833.0425	731.4112	2286	1444.45
833.1874	733.4993	2294.9	1453.25
833.3324	735.5867	2274.05	1432.45
833.4773	737.6735	2219.1	1375
833.6222	739.7596	2176.25	1333.15
833.7672	741.845	2154.55	1310.1
833.9122	743.9298	2147.1	1301.1
834.0571	746.014	2147.15	1303.65
834.2021	748.0974	2163.05	1317.25
834.347	750.1802	2169.7	1323.85
834.492	752.2624	2161.25	1314.8
834.637	754.3439	2145.8	1302.15
834.782	756.4247	2137.4	1283.2
834.9269	758.5048	2123.5	1277.1
835.0719	760.5843	2130	1284.1
835.2169	762.6631	2157.85	1311.95
835.3619	764.7413	2184.8	1341.4
835.5069	766.8188	2249.65	1401.8
835.6519	768.8956	2302.9	1454.45
835.7969	770.9718	2358.3	1510.85
835.9419	773.0473	2347.55	1501.6
836.0869	775.1221	2314.4	1467.2
836.232	777.1962	2296.35	1447.55
836.377	779.2697	2335.2	1486.8
836.522	781.3426	2439.35	1580.15
836.667	783.4147	2489.9	1639.65
836.8121	785.4862	2490.35	1641.6
836.9571	787.557	2424.85	1575.7
837.1021	789.6271	2334.2	1485.15
837.2472	791.6966	2236.25	1385.65
837.3922	793.7654	2140.3	1288.05
837.5373	795.8335	2095.65	1246.8
837.6823	797.901	2061.55	1213
837.8274	799.9678	2050.95	1199.75
837.9724	802.0339	2043.3	1194.15
838.1175	804.0993	2064.3	1202.25
838.2626	806.1641	2046.95	1194.45
838.4076	808.2282	2041.5	1190.35
838.5527	810.2916	2029.9	1176.3
838.6978	812.3544	2015.7	1166
838.8428	814.4164	1999.15	1148.55
838.9879	816.4778	2005.65	1154.05
839.133	818.5385	2011.65	1162.65
839.2781	820.5986	2024.9	1172.75
839.4232	822.658	2072.65	1220.35
839.5682	824.7166	2132.55	1280.05
839.7133	826.7747	2201.25	1349.65
839.8584	828.832	2258.15	1405.7
840.0035	830.8886	2302.1	1445.65
840.1486	832.9446	2334.3	1478.9
840.2937	834.9999	2314.2	1462.25
840.4388	837.0545	2256.4	1399.1
840.5839	839.1085	2181.8	1329.8
840.729	841.1618	2131.85	1273.75
840.8741	843.2143	2081.7	1227.45
841.0192	845.2662	2044.25	1190.8
841.1643	847.3175	2029.45	1174.9
841.3095	849.368	2022.55	1167.25
841.4546	851.4179	2022.5	1168.35
841.5997	853.467	2017.9	1163.1
841.7448	855.5155	2017.05	1160.8
841.8899	857.5633	2026	1171.45
842.0351	859.6105	2013	1157.85
842.1802	861.6569	1989.1	1134.5
842.3253	863.7027	1991.3	1133.55
842.4704	865.7478	1981.3	1124.9
842.6156	867.7922	1979.5	1122.85
842.7607	869.8359	1958.05	1099.9
842.9058	871.8789	1959.6	1102.25
843.0509	873.9212	1988.35	1094.85
843.1961	875.9629	1963.1	1106.8
843.3412	878.0039	1974.25	1116.5
843.4863	880.0441	1968	1110.6
843.6315	882.0837	1995.8	1137.4
843.7766	884.1226	2002.55	1139.9
843.9218	886.1609	2027.65	1172.15
844.0669	888.1984	2067.75	1209.5
844.212	890.2352	2105.4	1247.35
844.3572	892.2714	2115.55	1251.45
844.5023	894.3069	2108.05	1247.55
844.6475	896.3416	2064.25	1204.95
844.7926	898.3757	2018.65	1158.55
844.9377	900.4091	2000.95	1141.2
845.0829	902.4418	2007.8	1144.1
845.228	904.4739	2014.15	1153.45
845.3732	906.5052	2034.7	1173.1
845.5183	908.5358	2033.65	1174.55
845.6635	910.5658	2016.3	1153.55
845.8086	912.595	1987.25	1127.8
845.9538	914.6236	1970.85	1109.55
846.0989	916.6515	1936.15	1077.45
846.2441	918.6786	1928	1066.1
846.3892	920.7051	1906.6	1043.55
846.5344	922.7309	1898.05	1037.3
846.6795	924.756	1900.35	1039.75
846.8246	926.7804	1911.05	1048.25
846.9698	928.8041	1911.65	1048
847.1149	930.8272	1933.85	1071.55
847.2601	932.8495	1932.05	1070.4
847.4052	934.8711	1942	1078.15
847.5504	936.892	1946.25	1082.45
847.6955	938.9123	1956.9	1092.45
847.8407	940.9318	1983.35	1119.7
847.9858	942.9506	1993.55	1130.25
848.131	944.9688	1996.65	1133.2
848.2761	946.9862	1968.6	1102.7
848.4213	949.003	1943.05	1079.45
848.5664	951.019	1922.3	1057.6
848.7115	953.0344	1902.6	1038.75
848.8567	955.0491	1896.7	1032.65
849.0018	957.063	1892.2	1028.9
849.147	959.0763	1879.9	1015.95
849.2921	961.0888	1880.65	1012.55
849.4373	963.1007	1869.5	1004
849.5824	965.1119	1870.65	1006.25
849.7275	967.1223	1866.8	1000.85
849.8727	969.1321	1848.65	983.3
850.0178	971.1412	1861.3	995.9
850.1629	973.1495	1846.75	980.5
850.3081	975.1572	1900.5	983.15
850.4532	977.1641	1842.65	976.5
850.5983	979.1704	1847.85	980.45
850.7435	981.1759	1840.45	970.05
850.8886	983.1808	1832.6	964.75
851.0337	985.1849	1834.55	957.25
851.1788	987.1884	1827.2	959.05
851.324	989.1911	1838.25	969.6
851.4691	991.1932	1831.2	961.95
851.6142	993.1945	1836.15	969.55
851.7593	995.1951	1830.9	965.55
851.9045	997.1951	1837	963.5
852.0496	999.1943	1824.25	959.15
852.1947	1001.1928	1822.9	954.25
852.3398	1003.1906	1825.85	957.2
852.4849	1005.1877	1845.1	976.9
852.63	1007.1841	1864	995.7
852.7751	1009.1798	1880.95	1014
852.9202	1011.1748	1870.6	1003.2
853.0653	1013.1691	1850.15	981.6
853.2104	1015.1627	1824.1	954.75
853.3555	1017.1556	1796.6	926.6
853.5006	1019.1477	1788.3	918.3
853.6457	1021.1392	1772.4	904.65
853.7908	1023.1299	1753.85	885.05
853.9359	1025.12	1751.35	879.55
854.081	1027.1093	1757.6	888.6
854.2261	1029.0979	1767.5	898.05
854.3712	1031.0859	1777.35	908.85
854.5163	1033.0731	1795.95	925.15
854.6613	1035.0596	1787.6	917.7
854.8064	1037.0454	1780.85	908.9
854.9515	1039.0304	1779.45	909.05
855.0965	1041.0148	1762.7	893.95
855.2416	1042.9985	1739.4	867.25
855.3867	1044.9814	1724.55	855.9
855.5317	1046.9636	1731.1	858.25
855.6768	1048.9452	1730.4	862
855.8219	1050.926	1743.1	871.25
855.9669	1052.9061	1755.75	885.5
856.112	1054.8855	1764.6	892.85
856.257	1056.8642	1745.6	875.85
856.4021	1058.8421	1751.45	874.55
856.5471	1060.8194	1748.3	876.4
856.6921	1062.7959	1747.25	875.35
856.8372	1064.7717	1740.3	866.8
856.9822	1066.7469	1739.35	866
857.1272	1068.7213	1741.8	868.75
857.2723	1070.695	1744.5	874.15
857.4173	1072.6679	1762.25	890.55
857.5623	1074.6402	1777.15	904.9
857.7073	1076.6117	1793.55	917.55
857.8523	1078.5826	1777.3	905.5
857.9973	1080.5527	1753.6	879.4
858.1423	1082.5221	1719.65	844.5
858.2873	1084.4908	1696	823.75
858.4323	1086.4587	1689.05	814.4
858.5773	1088.426	1675.5	803.35
858.7223	1090.3925	1675.05	798.85
858.8673	1092.3584	1673.6	800.9
859.0123	1094.3235	1675	802.4
859.1573	1096.2879	1686.75	811.85
859.3022	1098.2515	1698.6	825.1
859.4472	1100.2145	1711.3	838
859.5922	1102.1767	1742	865.95
859.7371	1104.1382	1779.3	901.8
859.8821	1106.099	1817.1	942.7
860.027	1108.0591	1851.95	976.55
860.172	1110.0185	1882.85	1008.3
860.3169	1111.9771	1899	1026.95
860.4619	1113.9351	1943.9	1069.1
860.6068	1115.8923	1997.7	1123.3
860.7517	1117.8488	2032.5	1156
860.8967	1119.8045	2004.55	1130.75
861.0416	1121.7596	1922.7	1048.35
861.1865	1123.7139	1848.25	974.9
861.3314	1125.6675	1786.6	911.45
861.4763	1127.6204	1779.25	904.55
861.6212	1129.5726	1791	915.85
861.7661	1131.524	1791.6	918.9
861.911	1133.4748	1774.25	901.05
862.0559	1135.4248	1720.15	844.45
862.2008	1137.3741	1675.25	800.35
862.3457	1139.3226	1659.85	784
862.4905	1141.2705	1648.25	774.1
862.6354	1143.2176	1661	778.5
862.7803	1145.164	1672.65	793.5
862.9251	1147.1097	1662.15	786.4
863.07	1149.0546	1653.4	776.35
863.2148	1150.9989	1630.25	755.65
863.3597	1152.9424	1617.65	741.95
863.5045	1154.8852	1602.4	728.35
863.6493	1156.8272	1599.55	724.1
863.7942	1158.7686	1593.4	711.3
863.939	1160.7092	1581.15	703.75
864.0838	1162.6491	1592.05	711.85
864.2286	1164.5883	1602.9	727.3
864.3734	1166.5267	1609.35	733.25
864.5182	1168.4644	1625.15	749.1
864.663	1170.4014	1642.8	760.1
864.8078	1172.3377	1668.6	793.4
864.9526	1174.2732	1699.25	823.05
865.0974	1176.2081	1756.2	880.6
865.2421	1178.1421	1846.05	965.45
865.3869	1180.0755	1957.3	1084.15
865.5317	1182.0082	2015.5	1140.05
865.6764	1183.9401	2026.6	1148.85
865.8212	1185.8713	1954.9	1078.3
865.9659	1187.8017	1867.6	991
866.1106	1189.7315	1766.9	889.95
866.2554	1191.6605	1718.95	813.35
866.4001	1193.5888	1660.7	782.75
866.5448	1195.5163	1625.9	748.95
866.6895	1197.4432	1606.8	728.75
866.8342	1199.3693	1594.9	718.4
866.9789	1201.2947	1586.5	701.3
867.1236	1203.2193	1573.3	696.55
867.2683	1205.1432	1574.25	696.2
867.413	1207.0664	1561.85	683.35
867.5576	1208.9889	1572.8	691.95
867.7023	1210.9106	1567.65	691.7
867.847	1212.8316	1562.25	686.35
867.9916	1214.7519	1577.95	689.9
868.1363	1216.6715	1579.25	702.75
868.2809	1218.5903	1587.3	709.3
868.4255	1220.5084	1591.85	715.2
868.5701	1222.4257	1603.45	725.75
868.7148	1224.3424	1605	728.75
868.8594	1226.2583	1632.3	746.9
869.004	1228.1735	1637.8	757.75
869.1486	1230.0879	1661.6	782.5
869.2932	1232.0016	1696.45	817.75
869.4377	1233.9146	1718.2	838.5
869.5823	1235.8269	1723.25	844.4
869.7269	1237.7384	1726.8	848.85
869.8715	1239.6492	1723.35	846.25
870.016	1241.5592	1734.05	854.2
870.1606	1243.4686	1761.35	882.35
870.3051	1245.3772	1812.15	935.1
870.4496	1247.285	1881.85	1002.3
870.5941	1249.1922	1925	1046.75
870.7387	1251.0986	1990.6	1111.7
870.8832	1253.0042	2031.5	1152.05
871.0277	1254.9092	2080.2	1201.55
871.1722	1256.8134	2155.35	1277.95
871.3167	1258.7169	2236.75	1356.2
871.4611	1260.6196	2298.25	1420.1
871.6056	1262.5216	2331.35	1451.75
871.7501	1264.4229	2336.85	1459.35
871.8945	1266.3234	2313.55	1436.25
872.039	1268.2232	2263.6	1383
872.1834	1270.1223	2210.4	1329.8
872.3278	1272.0207	2183.9	1304.1
872.4723	1273.9183	2170.85	1285.7
872.6167	1275.8151	2172.2	1293.35
872.7611	1277.7113	2184.75	1304.45
872.9055	1279.6067	2233.7	1354.45
873.0499	1281.5014	2335.25	1453.65
873.1943	1283.3953	2479.4	1599.05
873.3386	1285.2885	2641.9	1762
873.483	1287.181	2772.1	1890.05
873.6274	1289.0727	2857.7	1978.5
873.7717	1290.9637	2803.75	1922.75
873.9161	1292.854	2711.8	1830.7
874.0604	1294.7435	2600.15	1719.45
874.2047	1296.6323	2490.05	1608.85
874.349	1298.5204	2405.25	1521.3
874.4933	1300.4077	2345.75	1465
874.6376	1302.2943	2274.95	1395
874.7819	1304.1802	2253.3	1374.75
874.9262	1306.0653	2230.55	1348.05
875.0705	1307.9497	2190.55	1309.7
875.2147	1309.8333	2178.15	1298.05
875.359	1311.7162	2169.5	1289.85
875.5032	1313.5984	2151.05	1268.9
875.6475	1315.4798	2147.7	1255.7
875.7917	1317.3605	2147.3	1250.35
875.9359	1319.2405	2149.35	1267
876.0801	1321.1197	2148.95	1266.2
876.2243	1322.9982	2136.85	1253.8
876.3685	1324.876	2093.1	1212
876.5127	1326.753	2036.65	1156.2
876.6569	1328.6293	1959	1075.8
876.801	1330.5048	1885.95	1005.85
876.9452	1332.3796	1817.2	936
877.0893	1334.2537	1777.6	872
877.2335	1336.127	1720.2	838.4
877.3776	1337.9996	1700.85	820.1
877.5217	1339.8714	1685.8	802.25
877.6658	1341.7426	1704	778.6
877.8099	1343.6129	1651.45	768.6
877.954	1345.4826	1634.3	753.15
878.0981	1347.3515	1628.05	744.9
878.2422	1349.2196	1604.9	720.55
878.3862	1351.087	1606.2	725.85
878.5303	1352.9537	1599.75	718.35
878.6743	1354.8197	1600.9	720.15
878.8184	1356.6849	1603.75	723.15
878.9624	1358.5493	1613.55	731.65
879.1064	1360.4131	1627.35	746.8
879.2504	1362.276	1645.2	765.1
879.3944	1364.1383	1680.45	799.2
879.5384	1365.9998	1704.35	816.05
879.6823	1367.8606	1691.95	809.45
879.8263	1369.7206	1688.9	808.5
879.9702	1371.5799	1691.3	808.95
880.1142	1373.4384	1683.95	802.9
880.2581	1375.2962	1661.95	778.3
880.402	1377.1533	1618.35	736.6
880.5459	1379.0096	1596	711.35
880.6898	1380.8652	1557.9	675.2
880.8337	1382.7201	1544.75	663.5
880.9776	1384.5742	1523.9	641.35
881.1215	1386.4275	1511	629.5
881.2653	1388.2802	1493.45	613.15
881.4092	1390.132	1483.65	601.45
881.553	1391.9832	1478.35	595.6
881.6968	1393.8336	1470.65	590.25
881.8406	1395.6832	1470	585.35
881.9844	1397.5322	1452.4	569.45
882.1282	1399.3803	1453.9	565.1
882.272	1401.2278	1448.25	564.45
882.4158	1403.0745	1432.05	549.55
882.5595	1404.9204	1427.5	547.7
882.7033	1406.7656	1422.5	539.4
882.847	1408.6101	1425.35	543.35
882.9908	1410.4538	1416.15	532.75
883.1345	1412.2968	1415.9	532.95
883.2782	1414.139	1416.2	533.25
883.4219	1415.9805	1415.55	533.65
883.5656	1417.8213	1433.1	543.8
883.7092	1419.6613	1445.15	564.25
883.8529	1421.5006	1458.05	574
883.9965	1423.3391	1490.2	607.6
884.1402	1425.1769	1526.75	643
884.2838	1427.0139	1573.3	691.9
884.4274	1428.8502	1653.5	768.55
884.571	1430.6858	1700.95	818.85
884.7146	1432.5206	1713.7	830.3
884.8582	1434.3547	1707.65	824
885.0018	1436.188	1701.1	818.05
885.1453	1438.0206	1689.45	805.9
885.2889	1439.8524	1672.55	789.8
885.4324	1441.6835	1671.5	788.1
885.5759	1443.5139	1681.8	795.6
885.7194	1445.3435	1679.85	795.05
885.8629	1447.1724	1676.5	791.45
886.0064	1449.0005	1673.6	790.45
886.1499	1450.8279	1672	788.1
886.2933	1452.6545	1668.25	783.85
886.4368	1454.4804	1664.95	783.15
886.5802	1456.3056	1661.7	771.3
886.7237	1458.13	1644.7	763.35
886.8671	1459.9536	1625.8	740.45
887.0105	1461.7766	1597.9	716.4
887.1539	1463.5987	1569.75	686.05
887.2972	1465.4202	1542.65	658.35
887.4406	1467.2409	1509.8	624.7
887.584	1469.0608	1492	607.8
887.7273	1470.88	1468.2	584.1
887.8706	1472.6984	1445.9	563.4
888.0139	1474.5161	1424.2	538.7
888.1572	1476.3331	1413.8	531.3
888.3005	1478.1493	1405.7	520.3
888.4438	1479.9648	1397.65	514.35
888.5871	1481.7795	1399.65	515
888.7303	1483.5935	1403.35	518.45
888.8736	1485.4067	1404.9	521.15
889.0168	1487.2192	1401.6	517.25
889.16	1489.031	1408.4	520.55
889.3032	1490.842	1402.05	519.25
889.4464	1492.6522	1408.7	524.4
889.5896	1494.4618	1398.95	514.25
889.7327	1496.2705	1398.75	517.15
889.8759	1498.0785	1394.45	510.1
890.019	1499.8858	1390.4	505.4
890.1622	1501.6924	1382.1	500.05
890.3053	1503.4981	1374.15	490.6
890.4484	1505.3032	1378.5	497.15
890.5914	1507.1075	1372.25	488.55
890.7345	1508.911	1365.55	481
890.8776	1510.7138	1364	479.95
891.0206	1512.5159	1355.8	471.65
891.1637	1514.3172	1352.3	468.7
891.3067	1516.1178	1345	462.75
891.4497	1517.9176	1349.9	461.9
891.5927	1519.7166	1335.75	452.9
891.7357	1521.515	1335.9	445.35
891.8786	1523.3126	1332.35	448.4
892.0216	1525.1094	1332.2	445.05
892.1645	1526.9055	1320.3	437.3
892.3074	1528.7008	1316.6	432.95
892.4503	1530.4954	1316.65	426.35
892.5932	1532.2893	1304.9	423.15
892.7361	1534.0824	1316.65	427.35
892.879	1535.8747	1314.45	429.2
893.0218	1537.6663	1305.95	420.8
893.1647	1539.4572	1306.6	418.55
893.3075	1541.2473	1304.25	420
893.4503	1543.0367	1301	417.05
893.5931	1544.8253	1311.2	420.9
893.7359	1546.6132	1307.1	419.4
893.8787	1548.4003	1313.75	417.05
894.0214	1550.1867	1322.05	429.05
894.1642	1551.9723	1321.15	431.25
894.3069	1553.7572	1328.85	445.05
894.4496	1555.5414	1335.15	450.75
894.5923	1557.3247	1359.45	474.3
894.735	1559.1074	1372.65	489.6
894.8777	1560.8893	1409.8	526.6
895.0204	1562.6705	1441.2	554.5
895.163	1564.4509	1456.65	573
895.3056	1566.2305	1458.45	574.55
895.4482	1568.0094	1470.75	585.6
895.5908	1569.7876	1465.65	579.85
895.7334	1571.565	1459.05	572.65
895.876	1573.3417	1465.6	581.05
896.0186	1575.1176	1464.55	580.35
896.1611	1576.8928	1474.5	590.35
896.3036	1578.6672	1484.25	599.75
896.4461	1580.4409	1513.9	631.8
896.5886	1582.2138	1539.3	653.85
896.7311	1583.986	1561.25	676
896.8736	1585.7575	1595.65	711.75
897.0161	1587.5282	1621.15	737.65
897.1585	1589.2981	1636	752.25
897.3009	1591.0673	1642.3	756.3
897.4433	1592.8358	1655.4	768.5
897.5857	1594.6035	1660.2	771.95
897.7281	1596.3704	1644.05	759.1
897.8705	1598.1366	1630.55	745.5
898.0128	1599.9021	1606.35	721.45
898.1551	1601.6668	1588.3	700.45
898.2975	1603.4308	1572.95	686.45
898.4398	1605.194	1567.8	675.85
898.5821	1606.9564	1565.65	679.95
898.7243	1608.7182	1612.85	722.05
898.8666	1610.4791	1663.85	778.15
899.0088	1612.2394	1733.2	849.4
899.1511	1613.9988	1811.5	923.85
899.2933	1615.7576	1878.6	992.6
899.4355	1617.5156	1927.55	1036.55
899.5776	1619.2728	1914.1	1030.55
899.7198	1621.0293	1848.1	964.45
899.862	1622.785	1780.1	889.95
900.0041	1624.54	1690.05	800.15
900.1462	1626.2942	1604.45	717.7
900.2883	1628.0477	1527.6	640.25
900.4304	1629.8005	1463.45	572.3
900.5725	1631.5525	1412.2	527.4
900.7145	1633.3037	1366.15	480.4
900.8566	1635.0542	1338.25	453.25
900.9986	1636.804	1321.5	437.05
901.1406	1638.553	1360.1	415.1
901.2826	1640.3013	1279.9	396.55
901.4245	1642.0488	1261.6	374.8
901.5665	1643.7955	1253.4	369.35
901.7085	1645.5416	1243.95	357.95
901.8504	1647.2868	1238.75	354.1
901.9923	1649.0313	1226.1	339.8
902.1342	1650.7751	1231.45	341.6
902.2761	1652.5181	1223.05	336.65
902.4179	1654.2604	1222.4	337.3
902.5598	1656.0019	1227.25	341.05
902.7016	1657.7427	1232.05	345
902.8434	1659.4828	1239.15	354.45
902.9852	1661.222	1259.7	373.75
903.127	1662.9606	1284.55	401.2
903.2687	1664.6984	1310.8	425
903.4105	1666.4354	1327.15	440.7
903.5522	1668.1717	1316	430.3
903.6939	1669.9072	1297.4	412.1
903.8356	1671.642	1266.6	378
903.9773	1673.3761	1232.85	348.45
904.119	1675.1094	1212.3	326
904.2606	1676.8419	1190.75	304.45
904.4022	1678.5737	1181.85	297.55
904.5439	1680.3048	1173.55	288.4
904.6855	1682.0351	1167.2	283.2
904.827	1683.7646	1164.9	276.55
904.9686	1685.4934	1162.15	278.2
905.1101	1687.2215	1150.25	263.8
905.2517	1688.9488	1148.95	263.2
905.3932	1690.6754	1142.95	257.75
905.5347	1692.4012	1146.4	259.55
905.6761	1694.1263	1146	259.25
905.8176	1695.8506	1139.45	255.85
905.9591	1697.5742	1136.3	250.35
906.1005	1699.297	1137.8	253.75
906.2419	1701.0191	1134.25	250.2
906.3833	1702.7404	1134.15	249.1
906.5246	1704.461	1133.8	247.7
906.666	1706.1808	1133.65	246.15
906.8073	1707.8999	1130.25	242.2
906.9487	1709.6182	1133.4	246.4
907.09	1711.3358	1126.9	239.25
907.2313	1713.0527	1126.9	242.95
907.3725	1714.7688	1128.2	238.2
907.5138	1716.4841	1123.35	235.3
907.655	1718.1987	1125.45	233.8
907.7962	1719.9126	1119.6	235.05
907.9374	1721.6257	1121.05	232.3
908.0786	1723.338	1120.9	234.3
908.2198	1725.0496	1121.05	234.9
908.3609	1726.7605	1115.2	228
908.502	1728.4706	1111.95	222.85
908.6431	1730.18	1115.15	225.55
908.7842	1731.8886	1117.55	231.75
908.9253	1733.5964	1133.65	228.85
909.0664	1735.3036	1113.9	224.15
909.2074	1737.0099	1116.3	229.25
909.3484	1738.7156	1107.85	223.4
909.4894	1740.4204	1110.95	222.55
909.6304	1742.1246	1114.65	225.95
909.7714	1743.8279	1112.95	226.7
909.9123	1745.5306	1114.9	227.8
910.0532	1747.2325	1113.5	228.6
910.1941	1748.9336	1111	225.8
910.335	1750.634	1107.75	218.35
910.4759	1752.3336	1110.35	222.85
910.6168	1754.0325	1108.35	222.6
910.7576	1755.7307	1102.25	217.05
910.8984	1757.4281	1106.35	219.75
911.0392	1759.1247	1116.55	225
911.18	1760.8206	1111.4	220.8
911.3208	1762.5158	1109.9	221.6
911.4615	1764.2102	1105.55	220.55
911.6022	1765.9039	1105.85	220.9
911.7429	1767.5968	1101.85	215.2
911.8836	1769.289	1101.55	215.9
912.0243	1770.9804	1101.25	213.55
912.1649	1772.6711	1104.6	216.5
912.3056	1774.361	1100.5	212.35
912.4462	1776.0502	1100.6	215.6
912.5868	1777.7386	1095.8	206.15
912.7274	1779.4263	1099.95	213.15
912.8679	1781.1132	1099	212
913.0084	1782.7994	1100.2	212.85
913.149	1784.4849	1099.3	214.6
913.2895	1786.1696	1102	207.95
913.4299	1787.8535	1099.55	212.35
913.5704	1789.5367	1095.55	208.4
913.7108	1791.2192	1092.15	204.95
913.8513	1792.9009	1106.25	207.85
913.9917	1794.5818	1096.65	210.2
914.132	1796.2621	1088.3	203.85
914.2724	1797.9415	1092.15	205.15
914.4128	1799.6202	1094.05	207.5
914.5531	1801.2982	1090	202.45
914.6934	1802.9755	1083.85	196.55
914.8337	1804.6519	1090.3	204.2
914.9739	1806.3277	1087.85	202.1
915.1142	1808.0027	1084.9	199.95
915.2544	1809.6769	1087.1	199.8
915.3946	1811.3504	1087.95	198.55
915.5348	1813.0231	1086.65	200.95
915.675	1814.6951	1083.6	197
915.8151	1816.3664	1085.8	198.5
915.9553	1818.0369	1083.15	198.5
916.0954	1819.7067	1082.7	195.75
916.2355	1821.3757	1082.8	195.9
916.3755	1823.044	1083.15	196.95
916.5156	1824.7115	1079.25	192.75
916.6556	1826.3783	1082.1	196.85
916.7956	1828.0443	1083.25	198.65
916.9356	1829.7096	1081.85	194.35
917.0756	1831.3741	1086.85	198.15
917.2155	1833.0379	1081.55	198.5
917.3555	1834.701	1078.45	189.1
917.4954	1836.3633	1080.3	192.15
917.6353	1838.0248	1080.3	190.55
917.7751	1839.6856	1075.55	190.9
917.915	1841.3457	1075.25	189.35
918.0548	1843.005	1078.4	191.2
918.1946	1844.6636	1077.4	193.5
918.3344	1846.3214	1075.7	189.15
918.4742	1847.9785	1077.3	191.45
918.6139	1849.6349	1074.7	187.35
918.7537	1851.2904	1081.4	185.55
918.8934	1852.9453	1076.35	188.45
919.0331	1854.5994	1075.15	185.5
919.1727	1856.2528	1074.15	183.3
919.3124	1857.9054	1073.1	185.4
919.452	1859.5572	1072.5	188.05
919.5916	1861.2083	1076.7	187.65
919.7312	1862.8587	1068.5	183.6
919.8708	1864.5084	1076.45	188.75
920.0103	1866.1572	1072.05	186.1
920.1498	1867.8054	1072.1	185.95
920.2893	1869.4528	1069.7	183.65
920.4288	1871.0994	1066	179.15
920.5683	1872.7453	1068.95	181.15
920.7077	1874.3905	1079.7	185.7
920.8471	1876.0349	1066.55	180.4
920.9865	1877.6786	1067.95	180.9
921.1259	1879.3215	1070.25	185.6
921.2653	1880.9637	1065.6	176.9
921.4046	1882.6051	1068.35	181.75
921.5439	1884.2458	1067.1	178.2
921.6832	1885.8858	1063.85	174.9
921.8225	1887.525	1068.25	180.5
921.9617	1889.1634	1064.95	180.65
922.101	1890.8011	1062.9	175.1
922.2402	1892.4381	1061.3	175.55
922.3794	1894.0743	1063.65	176.65
922.5185	1895.7098	1063.75	177.85
922.6577	1897.3446	1065.05	178.5
922.7968	1898.9786	1067.15	177.95
922.9359	1900.6118	1058.3	172.95
923.075	1902.2443	1057.45	166.5
923.214	1903.8761	1056.45	168.85
923.3531	1905.5071	1061.3	173.15
923.4921	1907.1374	1056.2	168.9
923.6311	1908.7669	1059.65	172.9
923.77	1910.3957	1060.6	175.15
923.909	1912.0237	1056.4	171.35
924.0479	1913.651	1059.5	170.6
924.1868	1915.2776	1059.85	174.4
924.3257	1916.9034	1057.3	173
924.4646	1918.5285	1055.55	167.8
924.6034	1920.1528	1060.85	173.8
924.7422	1921.7764	1055.2	167.65
924.881	1923.3992	1054.95	170.85
925.0198	1925.0213	1052.15	164.5
925.1586	1926.6427	1047.85	161.6
925.2973	1928.2633	1141.15	168.9
925.436	1929.8832	1058.85	170
925.5747	1931.5023	1050.75	162.8
925.7134	1933.1207	1053.25	166.05
925.852	1934.7383	1050.2	163.65
925.9906	1936.3552	1050.75	164.45
926.1292	1937.9714	1054.7	166.85
926.2678	1939.5868	1052.75	164.1
926.4064	1941.2015	1046.15	159.65
926.5449	1942.8154	1047.5	158.55
926.6834	1944.4286	1047.45	160.95
926.8219	1946.041	1068.4	160.9
926.9604	1947.6528	1055.9	162.45
927.0988	1949.2637	1045.9	159.55
927.2372	1950.8739	1046.35	158
927.3756	1952.4834	1045.6	161.1
927.514	1954.0921	1046.15	159.75
927.6523	1955.7001	1051.65	158.15
927.7907	1957.3074	1044.5	156.3
927.929	1958.9139	1043.75	157.5
928.0673	1960.5197	1046.4	159.6
928.2055	1962.1247	1043.8	156.35
928.3438	1963.729	1040.5	154.6
928.482	1965.3325	1062.7	151.3
928.6202	1966.9353	1044.5	157.4
928.7584	1968.5374	1039.3	151
928.8965	1970.1387	1041.2	155.2
929.0346	1971.7393	1039.4	150
929.1727	1973.3392	1041.75	154.9
929.3108	1974.9383	1037.05	152.1
929.4489	1976.5366	1038.5	153.2
929.5869	1978.1342	1038.95	151.4
929.7249	1979.7311	1038.85	154.2
929.8629	1981.3273	1036.85	149.25
930.0009	1982.9227	1039.65	151.1
930.1388	1984.5173	1039.3	152.5
930.2767	1986.1112	1036.25	149.35
930.4146	1987.7044	1031.9	145.6
930.5525	1989.2968	1036.5	146.8
930.6904	1990.8885	1041.2	148.8
930.8282	1992.4795	1037	148.3
930.966	1994.0697	1034.95	147.7
931.1038	1995.6592	1033.9	147.55
931.2415	1997.2479	1033.9	147.1
931.3793	1998.8359	1033.45	144.5
931.517	2000.4232	1032.9	145.5
931.6547	2002.0097	1034.85	147.45
931.7923	2003.5955	1036	149.85
931.93	2005.1805	1034.3	144.1
932.0676	2006.7648	1034.15	148.25
932.2052	2008.3484	1034.05	146.1
932.3427	2009.9312	1034.2	144
932.4803	2011.5133	1032.2	145.45
932.6178	2013.0946	1032.25	144.3
932.7553	2014.6752	1032.6	146.8
932.8928	2016.2551	1036.75	148.25
933.0302	2017.8342	1031.75	142.75
933.1676	2019.4126	1031.25	144.45
933.305	2020.9902	1029	143.7
933.4424	2022.5672	1032.05	144.55
933.5798	2024.1433	1031.15	138.95
933.7171	2025.7188	1030.85	145.1
933.8544	2027.2935	1028.05	139.4
933.9917	2028.8674	1029.7	144.05
934.129	2030.4406	1027.75	143.4
934.2662	2032.0131	1026.6	138.4
934.4034	2033.5849	1029.3	137.85
934.5406	2035.1559	1026.95	139.3
934.6778	2036.7261	1024.45	139.45
934.8149	2038.2957	1023.35	136.15
934.952	2039.8645	1027.7	142
935.0891	2041.4325	1026.75	137
935.2262	2042.9998	1026.45	139.35
935.3632	2044.5664	1029.15	138.45
935.5002	2046.1323	1025.8	140.5
935.6372	2047.6974	1026.35	139.05
935.7742	2049.2617	1024.75	138.8
935.9111	2050.8254	1056.5	135.15
936.048	2052.3883	1027.2	138.35
936.1849	2053.9504	1028.65	141.6
936.3218	2055.5118	1024.85	137.25
936.4586	2057.0725	1029.35	136.9
936.5955	2058.6325	1029.2	142.9
936.7323	2060.1917	1024.55	138.65
936.869	2061.7502	1027.1	139.2
937.0058	2063.3079	1021.8	134.6
937.1425	2064.8649	1024.85	133.7
937.2792	2066.4212	1024.25	137.5
937.4159	2067.9767	1021.8	135.55
937.5525	2069.5315	1021.45	135.9
937.6891	2071.0856	1026.3	140
937.8257	2072.6389	1022.9	134.4
937.9623	2074.1915	1017.5	132
938.0989	2075.7433	1019.2	130.4
938.2354	2077.2945	1023.75	139.15
938.3719	2078.8448	1019.65	133
938.5084	2080.3945	1023	135.5
938.6448	2081.9434	1020.3	132.35
938.7812	2083.4916	1021.5	135.05
938.9176	2085.039	1017.8	129.25
939.054	2086.5857	1022.6	137.45
939.1903	2088.1317	1019.5	133.8
939.3267	2089.677	1019.1	132.45
939.463	2091.2215	1019	131.95
939.5992	2092.7652	1019.15	131.2
939.7355	2094.3083	1020.4	132.75
939.8717	2095.8506	1019.95	134.8
940.0079	2097.3921	1014.85	129.95
940.1441	2098.933	1018.6	130.65
940.2802	2100.4731	1016.45	131.3
940.4163	2102.0124	1023.05	130.05
940.5524	2103.5511	1018.7	131.5
940.6885	2105.089	1019.25	132.05
940.8245	2106.6261	1019.9	132.2
940.9606	2108.1626	1018.9	132
941.0965	2109.6983	1048.95	134.85
941.2325	2111.2332	1020.85	130
941.3684	2112.7675	1018.5	131.1
941.5044	2114.301	1019.8	131
941.6403	2115.8337	1020.3	133.55
941.7761	2117.3657	1015.85	129.25
941.912	2118.897	1022	133.15
942.0478	2120.4276	1023	131.3
942.1835	2121.9575	1016.7	131.85
942.3193	2123.4866	1029.7	128.35
942.455	2125.0149	1018.15	129
942.5907	2126.5426	1015.7	127.75
942.7264	2128.0695	1017.25	126.45
942.8621	2129.5956	1013.25	126.4
942.9977	2131.1211	1023.65	130.75
943.1333	2132.6458	1017.35	130.15
943.2689	2134.1698	1019.8	132.15
943.4044	2135.693	1017	127.85
943.54	2137.2155	1017.45	127.75
943.6755	2138.7373	1017.35	127.75
943.8109	2140.2584	1013.65	126.3
943.9464	2141.7787	1016.5	123.55
944.0818	2143.2983	1013.95	128
944.2172	2144.8171	1011.7	125.05
944.3526	2146.3353	1015.75	127.7
944.4879	2147.8527	1011.45	125.85
944.6232	2149.3693	1011.7	123.95
944.7585	2150.8853	1014.6	127.75
944.8938	2152.4005	1010.9	123.05
945.029	2153.9149	1013.1	126.6
945.1642	2155.4287	1010.65	123.3
945.2994	2156.9417	1013.75	124
945.4346	2158.454	1017.7	127.5
945.5697	2159.9655	1015.05	129.65
945.7048	2161.4764	1010.95	122.3
945.8399	2162.9865	1014.85	129.95
945.9749	2164.4958	1015.4	126.8
946.1099	2166.0045	1011.75	121.65
946.2449	2167.5124	1012.6	126.85
946.3799	2169.0195	1009.3	122.85
946.5148	2170.526	1010.5	124.5
946.6498	2172.0317	1008.9	121.45
946.7846	2173.5367	1008.75	121.7
946.9195	2175.0409	1008.55	120.55
947.0543	2176.5445	1008.75	123.1
947.1891	2178.0473	1010.2	122
947.3239	2179.5494	1011.3	122.2
947.4587	2181.0507	1008.85	122.15
947.5934	2182.5513	1008.9	123.15
947.7281	2184.0512	1009	121.45
947.8628	2185.5504	1006.65	119.35
947.9974	2187.0488	1006.5	118.8
948.132	2188.5465	1007.5	119.7
948.2666	2190.0435	1010	123.95
948.4012	2191.5397	1007.7	121.65
948.5357	2193.0353	1004.35	117.9
948.6702	2194.5301	1004.85	116.2
948.8047	2196.0241	1006.95	122.65
948.9392	2197.5175	1003.95	115.7
949.0736	2199.0101	1009.3	120.2
949.208	2200.502	1006.75	120.5
949.3424	2201.9931	1001.05	115.55
949.4767	2203.4835	1006.05	118.6
949.611	2204.9733	1008.9	114.8
949.7453	2206.4622	1004.8	117.8
949.8796	2207.9505	1005.65	116.15
950.0138	2209.438	1005.3	118.35
950.148	2210.9248	1004.15	116
950.2822	2212.4109	1003.45	117.9
950.4164	2213.8962	1005.45	115.1
950.5505	2215.3809	1002.95	115.1
950.6846	2216.8648	998	110.6
950.8186	2218.3479	1005.65	115.75
950.9527	2219.8304	999.45	110.5
951.0867	2221.3121	1004.25	116.7
951.2207	2222.7931	1000.2	113.6
951.3546	2224.2733	1002.45	115.5
951.4886	2225.7529	1003.25	115.2
951.6225	2227.2317	1002.4	113.95
951.7563	2228.7098	997.05	110.25
951.8902	2230.1872	997.95	112.3
952.024	2231.6638	998.75	110.75
952.1578	2233.1397	1002.65	112.75
952.2916	2234.6149	998.55	111.15
952.4253	2236.0894	998.5	109.45
952.559	2237.5632	1004.9	108.9
952.6927	2239.0362	995.8	107.1
952.8263	2240.5085	996.85	110
952.9599	2241.9801	997.55	111.3
953.0935	2243.4509	995.45	109.25
953.2271	2244.921	992.25	104.75
953.3606	2246.3904	997.4	107.7
953.4941	2247.8591	996.35	110
953.6276	2249.3271	992.65	105.75
953.7611	2250.7943	993.35	105.65
953.8945	2252.2608	991.45	106.15
954.0279	2253.7266	992.95	106.15
954.1612	2255.1917	991.4	105.55
954.2946	2256.656	993.9	106.8
954.4279	2258.1197	993.9	107.85
954.5612	2259.5826	993.25	104.15
954.6944	2261.0447	992.4	104.95
954.8276	2262.5062	998.05	108.9
954.9608	2263.9669	991.95	103.3
955.094	2265.4269	990.85	104.45
955.2271	2266.8862	991.5	104.5
955.3602	2268.3448	990.75	103.95
955.4933	2269.8026	992.9	105.45
955.6264	2271.2598	990.6	103.05
955.7594	2272.7162	990.6	102.95
955.8924	2274.1719	990.35	103
956.0253	2275.6268	987.85	102.3
956.1583	2277.0811	990.05	101.35
956.2912	2278.5346	986	101.25
956.4241	2279.9874	987.45	100.2
956.5569	2281.4395	989.45	102.6
956.6897	2282.8908	995.6	103.95
956.8225	2284.3414	991.2	102.85
956.9553	2285.7914	986.5	99.1
957.088	2287.2406	987.8	99.5
957.2207	2288.689	986.75	98.95
957.3534	2290.1368	989.25	101.95
957.486	2291.5838	989.65	99.45
957.6186	2293.0302	988.8	102.6
957.7512	2294.4758	983.8	98.45
957.8838	2295.9206	991.4	100.9
958.0163	2297.3648	988.05	101.95
958.1488	2298.8082	986.85	97.9
958.2813	2300.251	983.65	99
958.4137	2301.693	987.3	99.15
958.5461	2303.1343	986.1	97.5
958.6785	2304.5748	984.05	96.35
958.8108	2306.0147	985.2	95.85
958.9432	2307.4538	987.65	95.95
959.0754	2308.8922	983.65	97.95
959.2077	2310.3299	985.6	98.25
959.3399	2311.7669	984.95	98.55
959.4721	2313.2031	985.45	97.9
959.6043	2314.6387	984.95	96.95
959.7365	2316.0735	982	95.95
959.8686	2317.5076	985.65	98.45
960.0006	2318.941	980.8	94.55
960.1327	2320.3737	984.05	96.75
960.2647	2321.8056	989.25	100.25
960.3967	2323.2369	982.8	95.5
960.5287	2324.6674	985.35	98.1
960.6606	2326.0972	989.05	101.4
960.7925	2327.5263	989.75	102.55
960.9244	2328.9547	989.4	102.25
961.0562	2330.3823	993.6	107.3
961.1881	2331.8092	987.8	96.7
961.3198	2333.2355	983	96.65
961.4516	2334.661	983.4	95.2
961.5833	2336.0858	984.2	95.05
961.715	2337.5098	979.4	93.15
961.8467	2338.9332	980.1	92.7
961.9783	2340.3558	983.6	93.1
962.1099	2341.7778	979.25	92.35
962.2415	2343.199	979.25	90.9
962.373	2344.6195	980.4	94.5
962.5045	2346.0393	976.65	90.45
962.636	2347.4583	980.85	92.3
962.7675	2348.8767	978.4	90.8
962.8989	2350.2943	977.7	89.7
963.0303	2351.7113	978.05	89.95
963.1617	2353.1275	978.4	91.5
963.293	2354.543	999.7	89.95
963.4243	2355.9578	979.75	93.1
963.5556	2357.3718	978.75	92.2
963.6868	2358.7852	979.8	89.75
963.818	2360.1978	972.9	85.05
963.9492	2361.6098	975.7	88.05
964.0803	2363.021	981.35	90.75
964.2114	2364.4315	977.75	91.25
964.3425	2365.8413	974.65	86.85
964.4736	2367.2504	974.75	90.8
964.6046	2368.6587	979.05	92.85
964.7356	2370.0664	971.3	85.1
964.8666	2371.4733	976.35	88.25
964.9975	2372.8795	976.6	88.9
965.1284	2374.285	973.35	84.1
965.2593	2375.6899	972.2	84.85
965.3901	2377.0939	971.2	85.9
965.5209	2378.4973	971.1	85.75
965.6517	2379.9	974.85	86.85
965.7825	2381.3019	973.3	85.55
965.9132	2382.7032	972.3	85.8
966.0439	2384.1037	972.75	85.75
966.1745	2385.5035	973.8	87.45
966.3051	2386.9027	972.3	87.25
966.4357	2388.3011	975.15	85.5
966.5663	2389.6987	973.1	85.45
966.6968	2391.0957	972.2	85.15
966.8273	2392.492	969.1	80.4
966.9578	2393.8876	970.8	80.8
967.0882	2395.2824	970.1	82.9
967.2186	2396.6765	967.3	82.65
967.349	2398.07	966.7	79.45
967.4793	2399.4627	968.55	80.4
967.6097	2400.8547	969.9	82.05
967.7399	2402.246	976.25	83.5
967.8702	2403.6366	966.95	80.15
968.0004	2405.0265	966.65	81.7
968.1306	2406.4156	972.85	82.95
968.2607	2407.8041	969.55	79.45
968.3909	2409.1918	968.75	79.6
968.521	2410.5789	966.55	77.55
968.651	2411.9652	971.2	82.65
968.781	2413.3508	966.3	78
968.911	2414.7358	965.8	77.55
969.041	2416.12	965.35	78.5
969.1709	2417.5035	962.3	75.25
969.3008	2418.8863	966.95	77.95
969.4307	2420.2684	961.8	75.7
969.5606	2421.6497	965.65	76.6
969.6904	2423.0304	963.05	76.5
969.8201	2424.4104	965.65	79.05
969.9499	2425.7896	967.25	76.7
970.0796	2427.1682	965.9	79.8
970.2093	2428.546	967.7	81
970.3389	2429.9232	964.2	74.5
970.4685	2431.2996	964.9	77.5
970.5981	2432.6753	961.35	74
970.7277	2434.0503	963.05	74.85
970.8572	2435.4246	962	74.2
970.9867	2436.7982	966.85	77.25
971.1161	2438.1711	963.1	76.75
971.2456	2439.5433	963.2	76.45
971.375	2440.9148	967.6	74.75
971.5043	2442.2856	962.1	75.05
971.6336	2443.6557	962.3	72.95
971.7629	2445.025	961.3	72.75
971.8922	2446.3937	961.55	73.45
972.0214	2447.7617	960.8	73.25
972.1506	2449.1289	962.4	73.8
972.2798	2450.4955	963.1	71.4
972.4089	2451.8613	959.35	72.5
972.538	2453.2265	959.65	71.9
972.6671	2454.5909	961.45	75.05
972.7961	2455.9546	955.05	67.7
972.9251	2457.3177	958.25	72.75
973.0541	2458.68	962.35	72.75
973.1831	2460.0416	959.45	70.55
973.312	2461.4025	959.6	70.95
973.4408	2462.7627	968.9	70.5
973.5697	2464.1222	957.8	72.25
973.6985	2465.4811	959.95	73.25
973.8273	2466.8392	960.95	73.25
973.956	2468.1966	960.15	69.6
974.0847	2469.5533	960.6	69.05
974.2134	2470.9093	958.65	70.65
974.3421	2472.2645	957.55	69.95
974.4707	2473.6191	957.45	71
974.5993	2474.973	955.75	70.2
974.7278	2476.3262	956.7	67.8
974.8563	2477.6787	957.7	73.5
974.9848	2479.0305	956.8	69.65
975.1132	2480.3816	959.1	73.25
975.2417	2481.7319	956.4	70.5
975.37	2483.0816	957.7	70.5
975.4984	2484.4306	958.65	70
975.6267	2485.7789	954.65	69.1
975.755	2487.1264	958	68.1
975.8833	2488.4733	956.35	69.8
976.0115	2489.8195	972.4	67.65
976.1397	2491.165	960.2	72.2
976.2678	2492.5097	958.1	68.35
976.3959	2493.8538	955.35	68.2
976.524	2495.1972	953.4	66.1
976.6521	2496.5398	954.9	66.6
976.7801	2497.8818	955.6	68
976.9081	2499.2231	953.75	67.15
977.036	2500.5637	956.6	68.6
977.164	2501.9035	957	71.15
977.2918	2503.2427	958.85	66.1
977.4197	2504.5812	952.85	63.95
977.5475	2505.919	954.6	65.3
977.6753	2507.256	952.75	65.8
977.8031	2508.5924	956	67.65
977.9308	2509.9281	957	63.25
978.0585	2511.2631	951.45	63.75
978.1861	2512.5974	951.65	64.3
978.3137	2513.9309	953.4	67.6
978.4413	2515.2638	983.15	66.4
978.5689	2516.596	952.2	63.9
978.6964	2517.9275	949.8	61.05
978.8239	2519.2583	950.25	63.2
978.9513	2520.5884	950.05	60.5
979.0788	2521.9178	951.75	64.2
979.2062	2523.2465	952.4	65.1
979.3335	2524.5745	953.55	67.1
979.4608	2525.9018	949.45	64.3
979.5881	2527.2284	950	64.25
979.7154	2528.5543	945.75	60.05
979.8426	2529.8796	948.05	59
979.9698	2531.2041	949	61.6
980.0969	2532.5279	949.75	63.8
980.224	2533.851	950.4	62.55
980.3511	2535.1735	946.05	58.4
980.4781	2536.4952	948.9	61.45
980.6052	2537.8163	950.65	60.65
980.7321	2539.1366	949.2	62.15
980.8591	2540.4562	947.45	59.15
980.986	2541.7752	947.95	61.5
981.1129	2543.0935	946.9	59.4
981.2397	2544.411	947.65	59.5
981.3665	2545.7279	944.2	58.2
981.4933	2547.0441	946.9	59
981.62	2548.3596	950.6	61.2
981.7467	2549.6744	944.8	58.5
981.8734	2550.9885	947.7	57.3
982.0001	2552.3019	943.9	58.2
982.1267	2553.6146	948.65	59.35
982.2532	2554.9266	947.7	59.65
982.3798	2556.2379	947.55	59.75
982.5063	2557.5485	944.1	58.75
982.6327	2558.8585	953.3	63.05
982.7592	2560.1677	948.85	56.8
982.8856	2561.4762	943.6	55.55
983.0119	2562.7841	947.8	59.45
983.1383	2564.0913	941.8	54.7
983.2646	2565.3977	944.1	56.9
983.3908	2566.7035	946.55	56.85
983.517	2568.0086	946.55	58.7
983.6432	2569.313	945.2	57.7
983.7694	2570.6167	947.05	56.35
983.8955	2571.9197	943.55	58.25
984.0216	2573.222	950	59.25
984.1476	2574.5236	943.3	55.6
984.2737	2575.8246	947.8	58.25
984.3996	2577.1248	949.8	59.65
984.5256	2578.4244	942.55	56.65
984.6515	2579.7232	943.95	56.4
984.7774	2581.0214	974.85	57.3
984.9032	2582.3189	945.3	59.85
985.029	2583.6157	949.45	57.15
985.1548	2584.9118	946.85	59.85
985.2806	2586.2072	944.1	59.4
985.4063	2587.5019	943.45	57.5
985.5319	2588.7959	944.55	55.2
985.6576	2590.0893	945.05	56.75
985.7832	2591.3819	940.2	54.4
985.9087	2592.6739	944.55	59.25
986.0343	2593.9652	942.6	55.65
986.1597	2595.2557	942.65	56.95
986.2852	2596.5456	944.35	53.3
986.4106	2597.8348	943.15	56.2
986.536	2599.1234	941.3	54.95
986.6614	2600.4112	942.5	55.8
986.7867	2601.6983	949.2	59.7
986.912	2602.9848	942.6	53.05
987.0372	2604.2705	948.2	55.1
987.1624	2605.5556	946.15	58.8
987.2876	2606.84	945.75	58
987.4128	2608.1237	943	54.05
987.5379	2609.4067	943.55	57.4
987.6629	2610.689	951.9	55.4
987.788	2611.9707	948.85	58
987.913	2613.2516	946.75	57.45
988.0379	2614.5319	941.4	56.2
988.1629	2615.8115	941.6	51.6
988.2878	2617.0903	943.05	55.8
988.4126	2618.3685	940.25	52.65
988.5375	2619.6461	943.1	55.95
988.6622	2620.9229	937.65	51
988.787	2622.199	942.9	55.8
988.9117	2623.4745	939.9	52.35
989.0364	2624.7493	939.3	51.85
989.161	2626.0234	939.45	54.25
989.2857	2627.2968	940.1	53.85
989.4102	2628.5695	939.7	49.8
989.5348	2629.8415	938.35	50.7
989.6593	2631.1128	939.55	52.45
989.7837	2632.3835	941.8	54.6
989.9082	2633.6535	937.75	51.55
990.0326	2634.9228	938.45	50.55
990.1569	2636.1914	936.85	50.65
990.2812	2637.4593	942.15	49.25
990.4055	2638.7265	939.5	48.9
990.5298	2639.9931	939	51.4
990.654	2641.259	940.95	51.8
990.7782	2642.5242	939.95	52.1
990.9023	2643.7887	937.5	50.7
991.0264	2645.0525	934.8	46
991.1505	2646.3156	937.1	50.05
991.2745	2647.5781	936.2	47.5
991.3985	2648.8398	936.9	50.9
991.5225	2650.1009	975.05	50.5
991.6464	2651.3613	938.1	50.5
991.7703	2652.6211	938.3	50.35
991.8942	2653.8801	933.7	47.25
992.018	2655.1385	938.45	50.8
992.1418	2656.3961	933.6	46.5
992.2655	2657.6531	936.25	48.6
992.3892	2658.9094	933.45	45.15
992.5129	2660.1651	931.7	45.6
992.6366	2661.42	936.1	46.85
992.7602	2662.6743	936.2	46.45
992.8837	2663.9279	934.15	47.7
993.0073	2665.1808	935.65	46.15
993.1307	2666.433	938.25	50.65
993.2542	2667.6846	936.45	48.6
993.3776	2668.9354	939.65	48.6
993.501	2670.1856	935.8	47
993.6244	2671.4351	937.25	51.8
993.7477	2672.6839	934.85	47.6
993.8709	2673.9321	937.85	51.25
993.9942	2675.1795	933.9	47.15
994.1174	2676.4263	935.45	48.6
994.2405	2677.6724	938.05	49.55
994.3637	2678.9179	936.7	47.6
994.4868	2680.1626	933.55	45.7
994.6098	2681.4067	937.6	51.25
994.7328	2682.6501	937.2	50.85
994.8558	2683.8928	935.85	47.6
994.9788	2685.1348	933.4	47.7
995.1017	2686.3761	932	45.4
995.2245	2687.6168	935.05	47.8
995.3474	2688.8568	934.7	45.9
995.4702	2690.0961	931.85	47.8
995.5929	2691.3348	934.65	48.05
995.7156	2692.5727	933.8	45.95
995.8383	2693.81	932.15	45.1
995.961	2695.0466	931.6	47.2
996.0836	2696.2826	933.35	45.95
996.2062	2697.5178	935.65	45.85
996.3287	2698.7524	933.25	46.45
996.4512	2699.9863	931.65	42.6
996.5737	2701.2195	931.1	45.55
996.6961	2702.452	935.05	45.05
996.8185	2703.6839	931.9	44.4
996.9408	2704.9151	931.95	45.7
997.0631	2706.1456	930.35	43.1
997.1854	2707.3755	935.55	49.05
997.3077	2708.6046	936.15	47.5
997.4299	2709.8331	933.05	45.7
997.552	2711.0609	934.6	45.75
997.6742	2712.2881	935.75	48.5
997.7963	2713.5145	934.45	44.85
997.9183	2714.7403	935.05	48.45
998.0403	2715.9654	936.55	49.6
998.1623	2717.1899	937.1	46.65
998.2842	2718.4136	938.15	51
998.4062	2719.6367	936.6	50.45
998.528	2720.8591	943.3	47.6
998.6498	2722.0809	938.85	52.9
998.7716	2723.3019	943.45	53.55
998.8934	2724.5223	939.95	51.25
999.0151	2725.7421	941.9	53.55
999.1368	2726.9611	941.2	50.05
999.2584	2728.1795	942.65	51.05
999.38	2729.3972	938.9	50.4
999.5016	2730.6142	949.45	47.15
999.6231	2731.8306	935.3	47.1
999.7446	2733.0462	937.05	45.4
999.8661	2734.2612	937.15	46.3
999.9875	2735.4756	934.5	46.45
1000.1089	2736.6892	931.3	44.25
1000.2302	2737.9022	931.45	44.95
1000.3515	2739.1145	932.15	45.6
1000.4728	2740.3262	935.45	39.1
1000.594	2741.5372	930.8	43.35
1000.7152	2742.7475	929.6	41.35
1000.8363	2743.9571	933.2	46
1000.9575	2745.1661	934.2	44
1001.0785	2746.3744	931.6	41.6
1001.1996	2747.582	929.65	44.2
1001.3206	2748.7889	927.05	38.45
1001.4415	2749.9952	925.15	38.55
1001.5625	2751.2008	926.6	37.3
1001.6833	2752.4057	926.05	38.25
1001.8042	2753.61	927.2	39.9
1001.925	2754.8136	926.6	38.05
1002.0458	2756.0165	924.55	37
1002.1665	2757.2188	925	36.1
1002.2872	2758.4204	926	37.7
1002.4078	2759.6213	928.05	39.2
1002.5285	2760.8215	932	37.7
1002.649	2762.0211	928.75	39.6
1002.7696	2763.22	928.25	38.35
1002.8901	2764.4182	924.8	35.75
1003.0106	2765.6158	925	37.7
1003.131	2766.8127	923.55	34.5
1003.2514	2768.009	923.3	37.4
1003.3717	2769.2045	923.85	33.95
1003.492	2770.3994	930	38.2
1003.6123	2771.5936	924.75	36.45
1003.7325	2772.7872	923.7	36.85
1003.8527	2773.9801	922.7	34.05
1003.9729	2775.1723	940.25	36.6
1004.093	2776.3639	921.55	33.5
1004.2131	2777.5548	922.6	35.25
1004.3331	2778.745	923.35	36.25
1004.4531	2779.9346	922.75	36.95
1004.5731	2781.1235	925.8	36.65
1004.693	2782.3117	921.45	34
1004.8129	2783.4992	921.55	34.1
1004.9328	2784.6861	922.25	33.75
1005.0526	2785.8723	921.55	33.3
1005.1723	2787.0579	921.7	33.5
1005.2921	2788.2428	923.9	37.95
1005.4118	2789.427	920.95	36.6
1005.5314	2790.6106	921.25	32.85
1005.651	2791.7935	923	35.95
1005.7706	2792.9757	919.75	32.55
1005.8902	2794.1573	924.1	34.5
1006.0097	2795.3382	922.95	33.25
1006.1291	2796.5184	920.1	35.8
1006.2485	2797.698	925.2	35.8
1006.3679	2798.8769	922.75	35.65
1006.4873	2800.0551	923.9	34.75
1006.6066	2801.2327	923.7	33.2
1006.7258	2802.4096	922.85	36.85
1006.8451	2803.5859	924.7	36.55
1006.9642	2804.7615	924.05	34.25
1007.0834	2805.9364	924.75	36.25
1007.2025	2807.1106	923.05	36.75
1007.3216	2808.2842	926.2	38.95
1007.4406	2809.4572	924.55	36.2
1007.5596	2810.6294	924.75	35.5
1007.6785	2811.801	926.85	40.15
1007.7975	2812.972	927.85	41.75
1007.9163	2814.1423	929.25	40.1
1008.0352	2815.3119	930.15	43.05
1008.154	2816.4808	932.85	46.75
1008.2727	2817.6491	936.15	47.25
1008.3914	2818.8167	935.9	48.95
1008.5101	2819.9837	944.4	51.55
1008.6288	2821.15	943.95	56.4
1008.7474	2822.3157	944.55	57.8
1008.8659	2823.4807	950.6	62.6
1008.9844	2824.645	956.55	69.3
1009.1029	2825.8086	958.75	72.35
1009.2214	2826.9716	966.65	81.25
1009.3398	2828.134	973.7	85.75
1009.4581	2829.2957	978.3	89.7
1009.5764	2830.4567	978.4	91.65
1009.6947	2831.617	986.3	98.65
1009.813	2832.7767	986.2	99.2
1009.9312	2833.9358	986.05	99.8
1010.0493	2835.0941	987.5	99.05
1010.1675	2836.2519	986.8	99.8
1010.2855	2837.4089	982.9	94.65
1010.4036	2838.5653	978.8	91.45
1010.5216	2839.7211	976.25	90.55
1010.6396	2840.8761	975.35	87.15
1010.7575	2842.0306	974.55	88.95
1010.8754	2843.1843	973.9	86.65
1010.9932	2844.3374	978.65	91.75
1011.111	2845.4899	977.05	89.6
1011.2288	2846.6417	978.25	90.35
1011.3465	2847.7928	978.95	94.65
1011.4642	2848.9433	978.15	89.05
1011.5818	2850.0931	976.8	91.85
1011.6995	2851.2422	984.1	96.15
1011.817	2852.3907	984.25	95.5
1011.9345	2853.5385	981.4	92.65
1012.052	2854.6857	1011.5	97.35
1012.1695	2855.8323	981.95	96.35
1012.2869	2856.9781	986.15	100
1012.4042	2858.1233	988.2	100.3
1012.5216	2859.2679	986.4	99.65
1012.6389	2860.4118	991.4	106.65
1012.7561	2861.555	995.6	104.05
1012.8733	2862.6976	996.75	108.4
1012.9905	2863.8395	997.85	109.95
1013.1076	2864.9808	998.45	112.95
1013.2247	2866.1214	999.25	112.2
1013.3417	2867.2614	1001.2	112.15
1013.4587	2868.4007	1005.85	117.35
1013.5757	2869.5393	1004.9	115.8
1013.6926	2870.6773	1007.85	118
1013.8095	2871.8146	1014.25	124.5
1013.9263	2872.9513	1014.2	124.95
1014.0431	2874.0874	1008.4	123.9
1014.1599	2875.2227	1013.8	125.6
1014.2766	2876.3574	1011.9	125.15
1014.3933	2877.4915	1011.85	125.45
1014.51	2878.6249	1017.8	129.6
1014.6266	2879.7577	1022.2	132.05
1014.7431	2880.8898	1029.25	129.05
1014.8596	2882.0212	1020.75	133
1014.9761	2883.152	1020.7	134
1015.0925	2884.2821	1023.8	137.75
1015.2089	2885.4116	1025.5	141.4
1015.3253	2886.5405	1024.55	139.65
1015.4416	2887.6686	1030.15	138.95
1015.5579	2888.7962	1028.8	143.2
1015.6741	2889.923	1028.5	141.4
1015.7903	2891.0493	1028.35	142.8
1015.9065	2892.1748	1029.9	142.5
1016.0226	2893.2997	1031	141.3
1016.1387	2894.424	1029.65	143.9
1016.2547	2895.5476	1028.15	140.65
1016.3707	2896.6706	1024.5	137.95
1016.4866	2897.7929	1023.45	136.75
1016.6025	2898.9145	1025.7	137.55
1016.7184	2900.0355	1024.45	136.35
1016.8342	2901.1559	1028.15	138.6
1016.95	2902.2756	1025.95	140.25
1017.0658	2903.3946	1024.6	136.95
1017.1815	2904.513	1028.35	137.5
1017.2971	2905.6308	1026.2	141.55
1017.4127	2906.7479	1022.75	133.55
1017.5283	2907.8643	1023.1	137
1017.6439	2908.9801	1019.6	131.9
1017.7594	2910.0953	1020.8	133.8
1017.8748	2911.2098	1025.9	134.8
1017.9902	2912.3236	1029.3	133.85
1018.1056	2913.4368	1022.3	130.3
1018.2209	2914.5494	1017.85	130.75
1018.3362	2915.6613	1024.7	129.8
1018.4515	2916.7725	1019.35	131.4
1018.5667	2917.8831	1016.05	128.45
1018.6819	2918.9931	1015.1	125.3
1018.797	2920.1024	1014.95	126.85
1018.9121	2921.211	1009.35	120.8
1019.0271	2922.319	1006.75	120.4
1019.1421	2923.4264	1007.8	119.65
1019.2571	2924.5331	1005.4	117.7
1019.372	2925.6391	1008.95	122.3
1019.4869	2926.7445	1003.2	117.15
1019.6017	2927.8493	1008.8	122.2
1019.7165	2928.9534	1012.2	125.55
1019.8313	2930.0569	1012.25	121.7
1019.946	2931.1597	1010.8	123.2
1020.0606	2932.2619	1010.25	121.35
1020.1753	2933.3634	1008.6	122.6
1020.2899	2934.4643	1017.55	124.8
1020.4044	2935.5645	1019.15	125.3
1020.5189	2936.6641	1016.05	124.8
1020.6334	2937.763	1011.9	124.05
1020.7478	2938.8613	1016.15	129.55
1020.8622	2939.959	1016.7	126.85
1020.9765	2941.056	1010.1	120.8
1021.0908	2942.1523	1006.8	120
1021.2051	2943.248	1003.85	116.2
1021.3193	2944.3431	995.6	110.45
1021.4334	2945.4375	993.2	106.15
1021.5476	2946.5313	986.9	100.55
1021.6617	2947.6244	982.15	95.05
1021.7757	2948.7169	977.7	88.65
1021.8897	2949.8087	976.15	87.8
1022.0037	2950.8999	970.75	85.2
1022.1176	2951.9904	962.2	75.35
1022.2315	2953.0803	960.2	74.05
1022.3453	2954.1696	953.55	65.6
1022.4591	2955.2582	956.25	68.3
1022.5728	2956.3462	953.35	65.6
1022.6865	2957.4335	952.35	64.95
1022.8002	2958.5202	956.35	69.3
1022.9138	2959.6062	954.7	66.85
1023.0274	2960.6916	951.2	64.05
1023.141	2961.7764	952.6	64.3
1023.2545	2962.8605	954.1	64
1023.3679	2963.9439	951.85	64.6
1023.4813	2965.0267	951.95	64.25
1023.5947	2966.1089	973.75	63.7
1023.708	2967.1905	949.45	59.6
1023.8213	2968.2714	948.05	61.15
1023.9346	2969.3516	947.95	60.25
1024.0478	2970.4312	955.15	60.2
1024.1609	2971.5102	949	62.2
1024.274	2972.5885	950.8	65.25
1024.3871	2973.6662	950.75	57.5
1024.5002	2974.7432	949.75	62.05
1024.6132	2975.8196	952.95	64.2
1024.7261	2976.8954	947.75	60.15
1024.839	2977.9705	948.45	62.8
1024.9519	2979.045	947.95	61.6
1025.0647	2980.1188	950	63.25
1025.1775	2981.192	949.55	61.7
1025.2902	2982.2645	945	54.45
1025.4029	2983.3364	945.7	57.9
1025.5156	2984.4077	942.25	55.15
1025.6282	2985.4783	948.6	57.85
1025.7407	2986.5483	940.6	54.9
1025.8532	2987.6177	938.4	51.5
1025.9657	2988.6864	938.45	53.25
1026.0782	2989.7545	937.8	50.65
1026.1906	2990.8219	936.8	50.85
1026.3029	2991.8887	934.9	45.7
1026.4152	2992.9548	933.95	44.45
1026.5275	2994.0204	929	42.9
1026.6397	2995.0852	925.4	39.3
1026.7519	2996.1495	924.55	35.65
1026.864	2997.2131	924.65	36.65
1026.9761	2998.276	922.8	34
1027.0882	2999.3383	922.15	34.25
1027.2002	3000.4	921.95	34.15
1027.3122	3001.4611	916.3	26.75
1027.4241	3002.5215	916.1	28.25
1027.536	3003.5812	916.45	29.6
1027.6478	3004.6404	918.45	31.05
1027.7596	3005.6989	915.8	26.35
1027.8714	3006.7567	912.4	26.2
1027.9831	3007.8139	943.9	25.35
1028.0947	3008.8705	911.35	26.8
1028.2064	3009.9264	928.85	24.5
1028.3179	3010.9818	910.7	23.7
1028.4295	3012.0364	910.45	22.15
1028.541	3013.0905	909.95	23.6
1028.6524	3014.1439	909.4	21.05
1028.7638	3015.1966	908.45	22.5
1028.8752	3016.2487	910.2	23.3
1028.9865	3017.3002	914.15	23.4
1029.0978	3018.3511	909	22.95
1029.209	3019.4013	911.2	21.65
1029.3202	3020.4509	908.45	21.5
1029.4314	3021.4998	908.25	21.3
1029.5425	3022.5481	909.05	23.3
1029.6535	3023.5958	907.4	20.75
1029.7645	3024.6428	908.7	20.85
1029.8755	3025.6892	906.2	17.7
1029.9864	3026.735	907.35	19.75
1030.0973	3027.7802	907.75	19.75
1030.2082	3028.8247	906.95	21.45
1030.319	3029.8685	907.95	19.9
1030.4297	3030.9118	908.25	20.6
1030.5404	3031.9544	906.3	20.5
1030.6511	3032.9963	909.45	21.95
1030.7617	3034.0376	906.65	20.8
1030.8723	3035.0783	912.8	21.45
1030.9829	3036.1184	909.25	19.95
1031.0934	3037.1578	907.65	20.4
1031.2038	3038.1966	911.5	22.65
1031.3142	3039.2348	906.75	22.65
1031.4246	3040.2723	916.3	22
1031.5349	3041.3092	908.75	21.45
1031.6452	3042.3455	908.15	21
1031.7554	3043.3811	909.35	21.8
1031.8656	3044.4161	909	20.55
1031.9758	3045.4505	907.4	20.5
1032.0859	3046.4842	907.55	17
1032.1959	3047.5173	907.9	22.95
1032.3059	3048.5498	907.95	19.8
1032.4159	3049.5816	908.5	20.3
1032.5258	3050.6128	910.4	23.1
1032.6357	3051.6434	910.3	21.05
1032.7455	3052.6734	909.6	22.25
1032.8553	3053.7027	911.3	23.85
1032.9651	3054.7314	906.65	18.45
1033.0748	3055.7594	908.1	21.75
1033.1845	3056.7868	909	21.1
1033.2941	3057.8136	909.7	25.15
1033.4037	3058.8398	908.85	21.95
1033.5132	3059.8653	908.2	22.4
1033.6227	3060.8902	908.85	22.05
1033.7321	3061.9145	910.3	23.3
1033.8415	3062.9381	906.75	18.9
1033.9509	3063.9612	926.1	22.3
1034.0602	3064.9835	912.3	23.4
1034.1694	3066.0053	910.55	22.7
1034.2787	3067.0264	907.6	20.2
1034.3878	3068.0469	910.5	23.2
1034.497	3069.0668	909.2	19.6
1034.6061	3070.086	908.05	23.25
1034.7151	3071.1046	912.25	23.05
1034.8241	3072.1226	910.55	21.5
1034.9331	3073.1399	906	17.95
1035.042	3074.1567	908.9	21.45
1035.1508	3075.1727	908.7	19.85
1035.2597	3076.1882	906.7	21.2
1035.3684	3077.203	910.3	23.15
1035.4772	3078.2173	907.25	20.4
1035.5859	3079.2308	910.4	19.6
1035.6945	3080.2438	907.8	17.95
1035.8031	3081.2561	909.5	23.1
1035.9117	3082.2678	906.6	18.35
1036.0202	3083.2789	902.55	14.75
1036.1286	3084.2893	902.55	16.65
1036.2371	3085.2991	903.55	16.65
1036.3454	3086.3083	911.3	19.15
1036.4538	3087.3169	907.5	18.7
1036.562	3088.3248	905.35	16.1
1036.6703	3089.3321	905.1	16
1036.7785	3090.3388	903.15	15.75
1036.8866	3091.3449	902.55	15.45
1036.9948	3092.3503	903.65	12.45
1037.1028	3093.3551	901.25	15.1
1037.2108	3094.3593	900.05	14.8
1037.3188	3095.3629	900.35	11.7
1037.4267	3096.3658	902.45	15.15
1037.5346	3097.3681	904.05	18.3
1037.6425	3098.3698	904.55	16
1037.7503	3099.3708	903.2	16.8
1037.858	3100.3713	900.8	14.55
1037.9657	3101.3711	901.6	16.1
1038.0734	3102.3702	1045.35	18.65
1038.181	3103.3688	903.9	14
1038.2886	3104.3667	900.75	13.4
1038.3961	3105.364	899.1	11.95
1038.5036	3106.3607	902.85	14.25
1038.611	3107.3568	902.7	15.45
1038.7184	3108.3522	900.65	14.25
1038.8257	3109.347	902.2	13.7
1038.933	3110.3412	903.95	13.35
1039.0403	3111.3348	900.45	11.85
1039.1475	3112.3277	898.8	10.7
1039.2547	3113.32	898.75	11.85
1039.3618	3114.3117	901.1	13.6
1039.4689	3115.3028	899.9	10.45
1039.5759	3116.2932	902.2	13.2
1039.6829	3117.2831	905	12.5
1039.7898	3118.2723	900.05	11.3
1039.8967	3119.2608	898.8	12.75
1040.0035	3120.2488	901.1	13
1040.1103	3121.2361	898	9.95
1040.2171	3122.2229	899.15	11.65
1040.3238	3123.209	898.35	10.35
1040.4305	3124.1944	898.45	12.2
1040.5371	3125.1793	899.05	10.45
1040.6437	3126.1635	896.75	11.65
1040.7502	3127.1471	897.6	10.7
1040.8567	3128.1301	895.9	8.45
1040.9631	3129.1125	899.2	13
1041.0695	3130.0942	898.8	10.75
1041.1759	3131.0753	904	9.55
1041.2822	3132.0558	901.4	13.15
1041.3884	3133.0357	899.45	11.6
1041.4946	3134.015	898.05	11.4
1041.6008	3134.9936	898.45	12.3
1041.7069	3135.9716	919.55	12.25
1041.813	3136.949	896.4	9.75
1041.919	3137.9258	916.4	11.4
1042.025	3138.902	901.4	9.6
1042.1309	3139.8775	898.15	12.05
1042.2368	3140.8524	897.35	10.15
1042.3427	3141.8267	898.65	10.55
1042.4485	3142.8004	897.35	8.45
1042.5542	3143.7735	901	6.95
1042.6599	3144.7459	898.8	10.9
1042.7656	3145.7178	896.8	9.8
1042.8712	3146.689	895.4	9.7
1042.9768	3147.6596	897.2	8.95
1043.0823	3148.6295	896.35	7.85
1043.1878	3149.5989	895.55	7.25
1043.2932	3150.5676	894.6	8.6
1043.3986	3151.5357	894.65	8.15
1043.5039	3152.5032	893.65	6.3
1043.6092	3153.4701	895.75	8.65
1043.7145	3154.4364	899.8	8.45
1043.8197	3155.402	896.35	9.7
1043.9248	3156.367	895.55	7
1044.03	3157.3315	932.75	5.9
1044.135	3158.2952	895.55	8.25
1044.24	3159.2584	894.7	7.95
1044.345	3160.221	896.95	9.35
1044.4499	3161.1829	896.25	9.05
1044.5548	3162.1442	896.85	8.55
1044.6596	3163.105	896.15	9.15
1044.7644	3164.065	895.4	6.25
1044.8692	3165.0245	897.5	5.7
1044.9739	3165.9834	893.45	7.65
1045.0785	3166.9416	894.65	7.45
1045.1831	3167.8993	896	8.1
1045.2877	3168.8563	896.55	9.3
1045.3922	3169.8127	896.05	7.85
1045.4966	3170.7684	892.85	6.7
1045.6011	3171.7236	898.05	9.45
1045.7054	3172.6782	895.45	6.7
1045.8098	3173.6321	896.4	8.5
1045.914	3174.5854	897.75	5.1
1046.0183	3175.5381	894.85	7.9
1046.1224	3176.4902	895.55	8.55
1046.2266	3177.4417	893.15	6.9
1046.3307	3178.3926	896.85	11
1046.4347	3179.3428	891.9	5.25
1046.5387	3180.2924	892.9	7.7
1046.6427	3181.2415	893.75	6.15
1046.7466	3182.1899	895.1	5.8
1046.8504	3183.1377	893.85	7.55
1046.9542	3184.0848	899.75	9.4
1047.058	3185.0314	895.75	10.85
1047.1617	3185.9773	894.55	5.7
1047.2654	3186.9227	898.4	9.2
1047.369	3187.8674	892.2	6.6
1047.4726	3188.8115	899.9	7.4
1047.5761	3189.755	894.15	7.4
1047.6796	3190.6979	894	7.3
1047.783	3191.6402	894.8	7.25
1047.8864	3192.5818	893.65	8.3
1047.9898	3193.5229	899.6	5.45
1048.0931	3194.4633	894.85	6.65
1048.1963	3195.4031	894.3	5.55
1048.2995	3196.3423	895.3	8.3
1048.4027	3197.2809	894.25	8.65
1048.5058	3198.2189	895.5	6.25
1048.6089	3199.1563	901.2	8.25
1048.7119	3200.0931	893.65	7.85
1048.8148	3201.0292	895	10.2
1048.9178	3201.9648	892.85	6.45
1049.0206	3202.8997	896.65	6.4
1049.1235	3203.834	894.3	6.15
1049.2262	3204.7677	894.15	7.7
1049.329	3205.7008	893.65	2.55
1049.4317	3206.6333	890.95	5.1
1049.5343	3207.5652	896.55	6.1
1049.6369	3208.4964	893.8	5.1
1049.7394	3209.4271	894.5	7.2
1049.8419	3210.3571	894.05	5.65
1049.9444	3211.2865	892.75	4.55
1050.0468	3212.2154	895.75	7.15
1050.1491	3213.1436	895.7	5.3
1050.2514	3214.0712	899.55	5.8
1050.3537	3214.9982	894.2	6.05
1050.4559	3215.9246	892.75	6.6
1050.5581	3216.8503	892.3	8.7
1050.6602	3217.7755	892.5	5.3
1050.7623	3218.7001	892.05	7.15
1050.8643	3219.624	894.25	7.1
1050.9663	3220.5473	893.15	6.6
1051.0682	3221.4701	895.85	6.05
1051.1701	3222.3922	893.4	3.1
1051.2719	3223.3137	895.45	8.8
1051.3737	3224.2346	892.35	5.9
1051.4754	3225.1549	890.65	2.8
1051.5771	3226.0746	893.1	8.55
1051.6788	3226.9937	892.55	2.8
1051.7804	3227.9121	891.35	8.05
1051.8819	3228.83	892.7	4.5
1051.9834	3229.7473	893.35	6.3
1052.0849	3230.6639	892.7	6.45
1052.1863	3231.5799	893.6	6.6
1052.2876	3232.4954	894.1	6.1
1052.3889	3233.4102	892.15	5.2
1052.4902	3234.3244	892.1	4.35
1052.5914	3235.238	893.55	6.85
1052.6926	3236.151	918.05	4.9
1052.7937	3237.0634	892.5	5.45
1052.8948	3237.9752	892.7	7.15
1052.9958	3238.8864	893	5.35
1053.0968	3239.797	892.2	4.7
1053.1977	3240.7069	892.6	3.1
1053.2986	3241.6163	892.65	3.55
1053.3994	3242.5251	892.35	6.5
1053.5002	3243.4332	891.3	4.5
1053.6009	3244.3408	892.6	3.55
1053.7016	3245.2477	890.2	4
1053.8022	3246.154	894.15	6.3
1053.9028	3247.0598	894.3	5.25
1054.0034	3247.9649	893.15	5.15
1054.1039	3248.8694	892.2	5.6
1054.2043	3249.7733	892.35	6
1054.3047	3250.6766	891.3	5.85
1054.4051	3251.5793	892.75	4.1
1054.5054	3252.4814	891.85	5.75
1054.6056	3253.3829	890.85	2.7
1054.7058	3254.2838	891.2	2.65
1054.806	3255.1841	891.2	5
1054.9061	3256.0838	891.3	3.05
1055.0061	3256.9829	890.5	4.15
1055.1062	3257.8814	894.7	6.7
1055.2061	3258.7792	894.2	3.4
1055.306	3259.6765	893.25	5.95
1055.4059	3260.5731	891.45	5.8
1055.5057	3261.4692	892.2	4.95
1055.6055	3262.3647	892.3	3.5
1055.7052	3263.2595	893.05	6.4
1055.8049	3264.1538	891.4	5.35
1055.9045	3265.0474	892	3.85
1056.0041	3265.9404	890.95	1.9
1056.1036	3266.8329	891.3	3.15
1056.2031	3267.7247	901.8	3.4
1056.3025	3268.616	890.75	4.2
1056.4019	3269.5066	890.2	1.65
1056.5013	3270.3966	892.4	2.65
1056.6005	3271.286	890.65	6.45
