Software Version:	3.9.2.0
Unit SN:	10000200
Spectrometer SN:	6960
Date:	3/14/2024 1:39:28 PM
Data Line Index:	25
Spectral Points:	2048
Integration time (ms):	125
Averages:	20
Delay (ms):	30000
Sequence Number:	1
Processing:	dark subtract
Laser Power (mW):	305
Laser Current (mA):	824
Laser Diode Temp (C):	25
Laser Case Temp (C):	28.7
System Temp (C):	28.7
Spectrometer Temp (C):	26.5
CCD Temp (C):	0.008
Secondary Temp (C):	20.007
Heatsink Temp (C):	24.709
CCDPCB Temp (C):	38.152
SecondaryPCB Temp (C):	35.796

Wavelength	RamanShift	Raw Counts	Dark Subtracted
787.061	30.1047	470.7	58.45
787.2016	32.3739	470.25	60.4
787.3422	34.6426	474.65	63.1
787.4828	36.9109	481.5	69.4
787.6235	39.1787	489.3	71.3
787.7642	41.4461	501.35	80.05
787.9049	43.7131	514	89.45
788.0456	45.9796	521.7	93.45
788.1863	48.2456	531.4	98.55
788.3271	50.5112	541.4	106.1
788.4679	52.7764	550.6	111.7
788.6087	55.0411	564	121.85
788.7496	57.3054	573.95	126.4
788.8904	59.5692	586.9	136.15
789.0313	61.8326	601.45	147.05
789.1722	64.0955	609.55	151.9
789.3132	66.3579	629.45	165.2
789.4541	68.6199	653.6	186.65
789.5951	70.8815	694.45	226.95
789.7361	73.1426	774	302.85
789.8771	75.4032	997.6	521.3
790.0181	77.6634	1539.3	1056.3
790.1592	79.9231	2832.05	2342.95
790.3003	82.1824	5678.9	5178.75
790.4414	84.4412	10905.2	10385.9
790.5825	86.6995	18215.35	17673.2
790.7237	88.9574	25494.5	24930.8
790.8648	91.2148	30688	30107.4
791.006	93.4717	33053	32461.65
791.1472	95.7282	33591.3	32998.1
791.2885	97.9842	33482.05	32883.05
791.4297	100.2398	32860.1	32260.15
791.571	102.4949	32192.9	31588
791.7123	104.7495	31333.85	30721.25
791.8536	107.0036	30453.9	29846
791.9949	109.2573	29651.15	29044.5
792.1363	111.5105	28918.35	28308.65
792.2777	113.7632	28213.9	27602.8
792.4191	116.0154	27643.6	27021.35
792.5605	118.2672	27242.5	26626
792.7019	120.5185	26768.9	26151.4
792.8434	122.7693	26466.3	25846.4
792.9849	125.0197	26182.8	25557.75
793.1264	127.2696	25887.15	25261.2
793.2679	129.519	25763.5	25134.8
793.4094	131.7679	25509.05	24877.25
793.551	134.0163	25255	24621.05
793.6926	136.2642	24976.15	24336.75
793.8342	138.5117	24688.3	24037.35
793.9758	140.7587	24359.6	23718.8
794.1175	143.0052	24073.3	23429.65
794.2591	145.2512	23765.55	23122.5
794.4008	147.4967	23490.9	22846.8
794.5425	149.7417	23339.9	22694.3
794.6842	151.9863	23144.05	22496.35
794.826	154.2304	23038.6	22385.95
794.9677	156.4739	22866.75	22207.55
795.1095	158.717	22814.25	22157.35
795.2513	160.9596	22631.6	21970.55
795.3931	163.2017	22324.05	21659.95
795.535	165.4433	22020.9	21356.8
795.6768	167.6844	21692.2	21021.45
795.8187	169.925	21371.3	20698.45
795.9606	172.1651	20945.85	20270.25
796.1025	174.4047	20667.1	19987.65
796.2445	176.6439	20403.7	19723.95
796.3864	178.8825	20145.65	19464.2
796.5284	181.1206	20005.6	19321.75
796.6704	183.3582	19814.1	19126.95
796.8124	185.5954	19708.7	19019.3
796.9544	187.832	19617.85	18926.6
797.0965	190.0681	19593.5	18897.1
797.2386	192.3037	19595.1	18898.25
797.3806	194.5388	19557.35	18854.35
797.5228	196.7734	19589.35	18884
797.6649	199.0075	19682.45	18974
797.807	201.2411	19858.4	19149.6
797.9492	203.4742	19883.45	19169.55
798.0914	205.7068	20010.95	19301.2
798.2336	207.9389	20163.8	19452.15
798.3758	210.1704	20310.05	19596.65
798.518	212.4015	20372.25	19652.35
798.6603	214.632	20549.8	19829.95
798.8025	216.862	20681.35	19968.8
798.9448	219.0915	20795.9	20091.75
799.0871	221.3205	20953.1	20253.25
799.2294	223.549	21101.25	20405.8
799.3718	225.777	21267.65	20574.75
799.5141	228.0044	21507.65	20809.45
799.6565	230.2314	21868.45	21172.75
799.7989	232.4578	22126.75	21428.8
799.9413	234.6837	22345.2	21641.95
800.0837	236.909	22490.3	21782.95
800.2262	239.1339	22541.7	21813.05
800.3687	241.3582	22348.3	21633.2
800.5111	243.582	22143.1	21407.65
800.6536	245.8053	21907.65	21175.75
800.7961	248.0281	21734.95	21004.1
800.9387	250.2503	21590.1	20857.9
801.0812	252.472	21520.25	20781.4
801.2238	254.6932	21599.55	20858.65
801.3664	256.9139	21582.35	20841.75
801.509	259.134	21691.85	20948.05
801.6516	261.3536	21796.05	21052.85
801.7942	263.5727	22002.55	21254.4
801.9369	265.7912	22085.3	21342.95
802.0795	268.0092	22243.75	21499.85
802.2222	270.2267	22332.05	21585.8
802.3649	272.4436	22354.55	21609.55
802.5076	274.6601	22264.7	21505.2
802.6504	276.8759	22169.3	21421.4
802.7931	279.0913	22085.15	21332.55
802.9359	281.3061	21992.95	21238
803.0787	283.5204	21967.35	21209.3
803.2215	285.7341	21956.55	21199.75
803.3643	287.9473	22041.5	21271.75
803.5071	290.16	22207.75	21441.35
803.6499	292.3721	22410.05	21650.55
803.7928	294.5837	22739.8	21979.1
803.9357	296.7947	23011.9	22251.55
804.0786	299.0052	23142.95	22382.15
804.2215	301.2152	23030.75	22263.8
804.3644	303.4246	22799	22037.5
804.5074	305.6334	22317.2	21557.05
804.6503	307.8418	21777.9	21012.95
804.7933	310.0495	21314.3	20548.45
804.9363	312.2568	20939.3	20175.4
805.0793	314.4635	20578.15	19811.65
805.2223	316.6696	20373.1	19606.85
805.3653	318.8752	20236.85	19462.6
805.5084	321.0802	20220.3	19451.3
805.6514	323.2847	20265.45	19496.55
805.7945	325.4887	20273.25	19503.65
805.9376	327.692	20237.85	19469.1
806.0807	329.8949	20157.5	19386.25
806.2238	332.0972	19886.6	19109.6
806.367	334.2989	19661.25	18886.8
806.5101	336.5001	19367.95	18591.95
806.6533	338.7007	19135.7	18363.4
806.7965	340.9008	19003.65	18223.25
806.9397	343.1003	18858.15	18077.4
807.0829	345.2992	18754.1	17972.55
807.2261	347.4976	18701.95	17920.2
807.3693	349.6955	18637.9	17851.85
807.5126	351.8927	18633.6	17846.4
807.6559	354.0895	18576.75	17777.1
807.7991	356.2856	18585.95	17796.55
807.9424	358.4812	18498.5	17711.35
808.0857	360.6763	18554.8	17766.8
808.2291	362.8707	18553	17763.8
808.3724	365.0646	18575.05	17779.15
808.5158	367.258	18576.7	17782.7
808.6591	369.4508	18600.35	17803.55
808.8025	371.643	18693.6	17897.2
808.9459	373.8346	18695.7	17896.35
809.0893	376.0257	18727.7	17928.05
809.2327	378.2162	18685.4	17881
809.3762	380.4062	18603.35	17796.4
809.5196	382.5956	18435.3	17630
809.6631	384.7844	18316.35	17513.95
809.8066	386.9726	18169.15	17358.6
809.9501	389.1603	18079.05	17273.3
810.0936	391.3474	18039.8	17204
810.2371	393.5339	17993.45	17186.25
810.3806	395.7199	17894.55	17095.5
810.5241	397.9052	17912.5	17114.7
810.6677	400.09	17911.45	17114.05
810.8113	402.2743	18044.6	17248.5
810.9548	404.4579	18149.8	17353.5
811.0984	406.641	18352.35	17556.45
811.2421	408.8235	18523.05	17728.6
811.3857	411.0054	18760.95	17960.25
811.5293	413.1868	19075.25	18275.05
811.673	415.3675	19254.95	18449.25
811.8166	417.5477	19354.05	18549.7
811.9603	419.7273	19337.6	18531.45
812.104	421.9064	19205.2	18393.25
812.2477	424.0848	19097.75	18287.15
812.3914	426.2627	18931.3	18117.25
812.5351	428.4399	18614.8	17803.1
812.6788	430.6166	18263.7	17443.75
812.8226	432.7928	17881.95	17065.9
812.9663	434.9683	17527.95	16712
813.1101	437.1432	17257.9	16433.95
813.2539	439.3176	17122.6	16303.4
813.3977	441.4914	16986.65	16166.05
813.5415	443.6645	16934.2	16112.35
813.6853	445.8371	16851.55	16028.8
813.8291	448.0091	16760	15936.3
813.973	450.1806	16737.45	15915.5
814.1168	452.3514	16677.7	15852.6
814.2607	454.5216	16710.5	15877.05
814.4046	456.6913	16613.9	15783.9
814.5485	458.8603	16633	15808.05
814.6924	461.0288	16696.45	15871.35
814.8363	463.1967	16668.9	15842.25
814.9802	465.3639	16740.3	15914.2
815.1241	467.5306	16769.05	15941.4
815.2681	469.6967	16814.15	15986
815.412	471.8622	16869.5	16042.45
815.556	474.0271	16958.55	16132.35
815.7	476.1914	17031.75	16202.4
815.844	478.3551	16995.25	16166.7
815.988	480.5182	17007.7	16177.65
816.132	482.6807	17056.35	16226.55
816.276	484.8426	17165.95	16338.5
816.4201	487.0039	17497.55	16667.65
816.5641	489.1647	17888.95	17057.05
816.7082	491.3248	18263.9	17435.95
816.8522	493.4843	18412.2	17582.65
816.9963	495.6432	18356.65	17523.05
817.1404	497.8015	18242.05	17409.65
817.2845	499.9592	18161.25	17331.4
817.4286	502.1163	17992.95	17161.15
817.5727	504.2728	17680.55	16844.8
817.7168	506.4287	17383.65	16548.3
817.861	508.5839	17033.85	16199.6
818.0051	510.7386	16718.95	15883.95
818.1493	512.8927	16569.25	15724.6
818.2935	515.0461	16472.6	15634.75
818.4377	517.199	16502.75	15666.65
818.5818	519.3512	16570.2	15734.9
818.726	521.5029	16710.15	15867.9
818.8703	523.6539	16867.35	16028.05
819.0145	525.8043	16935.25	16096.4
819.1587	527.9541	16887.4	16045
819.303	530.1033	16767	15925.45
819.4472	532.2519	16721.65	15882.3
819.5915	534.3999	16718.05	15875.2
819.7357	536.5472	16888.7	16049.75
819.88	538.694	17213	16372.55
820.0243	540.8401	17644.9	16802.4
820.1686	542.9856	18001.2	17156.7
820.3129	545.1305	18057.5	17214.65
820.4572	547.2748	17947.1	17102.45
820.6016	549.4185	17654.55	16809.85
820.7459	551.5615	17387.5	16543.35
820.8902	553.704	17278.4	16433.55
821.0346	555.8458	17291.75	16448.55
821.1789	557.987	17347.2	16502.75
821.3233	560.1276	17447.3	16599.8
821.4677	562.2675	17631.35	16785.75
821.6121	564.4069	17935.6	17090.95
821.7565	566.5456	18161.6	17318.15
821.9009	568.6837	18208.4	17365.45
822.0453	570.8212	17817.3	16973.8
822.1897	572.958	17283.95	16435.15
822.3342	575.0942	16760.6	15916.45
822.4786	577.2299	16419.4	15572.75
822.6231	579.3648	16294.3	15448.55
822.7675	581.4992	16271.15	15424.55
822.912	583.6329	16400.4	15554.95
823.0565	585.766	16605.3	15760.7
823.201	587.8985	16713	15868.65
823.3454	590.0304	16724.55	15852.1
823.4899	592.1616	16658.75	15806.45
823.6345	594.2922	16506.75	15658.6
823.779	596.4222	16317.05	15468.9
823.9235	598.5515	16091.55	15242.75
824.068	600.6802	15914.1	15063.8
824.2126	602.8083	15710.4	14861.85
824.3571	604.9358	15691	14840.1
824.5017	607.0626	15619.75	14769.2
824.6462	609.1888	15662.4	14813.65
824.7908	611.3144	15697.3	14848.75
824.9354	613.4393	15700.4	14852.65
825.08	615.5636	15676.75	14828.4
825.2246	617.6873	15639.65	14790.85
825.3692	619.8103	15555.65	14703.35
825.5138	621.9327	15388.95	14533.25
825.6584	624.0544	15262.6	14412.3
825.803	626.1756	15140.25	14287.95
825.9477	628.2961	15040.35	14185.3
826.0923	630.4159	14952.8	14100.65
826.237	632.5351	14896.85	14042.3
826.3816	634.6537	14813.45	13959.2
826.5263	636.7716	14851.4	13994
826.6709	638.8889	14829.15	13972.95
826.8156	641.0056	14825.9	13971.45
826.9603	643.1216	14786.65	13928.65
827.105	645.237	14806.25	13948.3
827.2497	647.3518	14717.55	13859.65
827.3944	649.4659	14674.9	13818.3
827.5391	651.5793	14649.6	13792.15
827.6838	653.6922	14609.95	13751.75
827.8285	655.8043	14565.15	13708.1
827.9733	657.9159	14539.05	13682.1
828.118	660.0268	14465.15	13605
828.2627	662.137	14440.4	13582.75
828.4075	664.2466	14408.1	13548.75
828.5522	666.3556	14396.65	13537.7
828.697	668.4639	14355.7	13494.35
828.8418	670.5716	14368.25	13509.5
828.9865	672.6786	14367	13507.4
829.1313	674.785	14318.95	13456.5
829.2761	676.8907	14320.7	13462.05
829.4209	678.9958	14388.8	13529.1
829.5657	681.1002	14339.95	13478.1
829.7105	683.204	14292.6	13427.7
829.8553	685.3072	14254.45	13394
830.0001	687.4097	14197.75	13337.45
830.1449	689.5115	14177.25	13312.15
830.2898	691.6127	14118.5	13255.7
830.4346	693.7132	14086	13221.6
830.5794	695.8131	14072.15	13198.1
830.7243	697.9123	14036.8	13175.2
830.8691	700.0109	14003.6	13139.45
831.014	702.1089	13956.6	13096.65
831.1588	704.2061	13974.95	13113.1
831.3037	706.3028	14040.05	13174.05
831.4486	708.3987	14053.55	13186.4
831.5935	710.4941	14106	13241.05
831.7383	712.5887	14207.9	13343.7
831.8832	714.6827	14411.85	13543.3
832.0281	716.7761	14624.5	13759.25
832.173	718.8688	14881.9	14015.1
832.3179	720.9608	15067.95	14198.1
832.4628	723.0522	15130.2	14260.15
832.6077	725.1429	15078.7	14214.55
832.7527	727.233	14947.55	14083.2
832.8976	729.3224	14878.55	14011.45
833.0425	731.4112	14656.1	13790.45
833.1874	733.4993	14474.9	13603.85
833.3324	735.5867	14241.25	13374.1
833.4773	737.6735	14047.85	13178.9
833.6222	739.7596	13894.5	13025.05
833.7672	741.845	13783.05	12916.15
833.9122	743.9298	13698.05	12827.1
834.0571	746.014	13661.1	12794.95
834.2021	748.0974	13636.95	12768.6
834.347	750.1802	13661.4	12793.15
834.492	752.2624	13654.85	12786
834.637	754.3439	13688.15	12817.35
834.782	756.4247	13778.9	12901.4
834.9269	758.5048	13901.85	13032.8
835.0719	760.5843	14146.2	13276.6
835.2169	762.6631	14522.35	13656.05
835.3619	764.7413	15069.2	14200.45
835.5069	766.8188	15726.25	14857.5
835.6519	768.8956	16246.2	15375.45
835.7969	770.9718	16554.05	15683.55
835.9419	773.0473	16438.65	15572.1
836.0869	775.1221	16128.05	15257.65
836.232	777.1962	15777.95	14907.8
836.377	779.2697	15638.05	14765.55
836.522	781.3426	15646.45	14766.75
836.667	783.4147	15792.35	14920.1
836.8121	785.4862	15972	15103.6
836.9571	787.557	15885.2	15013
837.1021	789.6271	15451.55	14580.95
837.2472	791.6966	14838.45	13968.45
837.3922	793.7654	14224.1	13353.95
837.5373	795.8335	13822.15	12952.85
837.6823	797.901	13551.9	12684.9
837.8274	799.9678	13419.6	12546.05
837.9724	802.0339	13347.95	12477.85
838.1175	804.0993	13322.45	12440.1
838.2626	806.1641	13296	12426
838.4076	808.2282	13226.7	12354.8
838.5527	810.2916	13128.5	12253.85
838.6978	812.3544	13019.1	12145.4
838.8428	814.4164	12934.75	12063.05
838.9879	816.4778	12930.65	12057.8
839.133	818.5385	12969.05	12097.1
839.2781	820.5986	13053	12181.25
839.4232	822.658	13221.1	12350.25
839.5682	824.7166	13453.2	12581.25
839.7133	826.7747	13833.85	12963.8
839.8584	828.832	14178.75	13306
840.0035	830.8886	14426.05	13548.7
840.1486	832.9446	14598.35	13721.65
840.2937	834.9999	14527.5	13655.4
840.4388	837.0545	14367.25	13489.45
840.5839	839.1085	14161.2	13285.85
840.729	841.1618	13967.65	13089.55
840.8741	843.2143	13762.65	12889.15
841.0192	845.2662	13628.75	12755.3
841.1643	847.3175	13504	12631.15
841.3095	849.368	13356.15	12483.1
841.4546	851.4179	13212.4	12337.7
841.5997	853.467	13076.25	12203.3
841.7448	855.5155	12984.95	12109.95
841.8899	857.5633	12883.25	12009.8
842.0351	859.6105	12742.8	11868.65
842.1802	861.6569	12668.55	11793.9
842.3253	863.7027	12599.3	11722.95
842.4704	865.7478	12577.6	11700.4
842.6156	867.7922	12535.9	11660.05
842.7607	869.8359	12529.65	11654.1
842.9058	871.8789	12590.15	11713.35
843.0509	873.9212	12718.8	11809.4
843.1961	875.9629	12799.15	11922.65
843.3412	878.0039	12916.85	12040.35
843.4863	880.0441	13036.35	12160.45
843.6315	882.0837	13058.25	12182.5
843.7766	884.1226	13024.6	12146.1
843.9218	886.1609	12973.4	12099.45
844.0669	888.1984	12969.3	12092.75
844.212	890.2352	13004.3	12130.55
844.3572	892.2714	13018.05	12139.3
844.5023	894.3069	12936.7	12059.95
844.6475	896.3416	12804.6	11926.1
844.7926	898.3757	12720.95	11846.2
844.9377	900.4091	12644.15	11767.6
845.0829	902.4418	12620.05	11738.15
845.228	904.4739	12662.8	11785.95
845.3732	906.5052	12644.9	11768.5
845.5183	908.5358	12557.75	11680.8
845.6635	910.5658	12437.45	11558.4
845.8086	912.595	12246.05	11369.9
845.9538	914.6236	12000.55	11123.65
846.0989	916.6515	11920.65	11045.25
846.2441	918.6786	11861.4	10980.75
846.3892	920.7051	11885.15	11004.7
846.5344	922.7309	11943.1	11065.1
846.6795	924.756	11928.2	11048.65
846.8246	926.7804	12019.45	11138.45
846.9698	928.8041	11998.65	11120.05
847.1149	930.8272	12021	11143
847.2601	932.8495	11984.35	11107
847.4052	934.8711	11924.3	11045.2
847.5504	936.892	11859.95	10981.1
847.6955	938.9123	11771	10893.55
847.8407	940.9318	11674.4	10792.55
847.9858	942.9506	11595.05	10716.9
848.131	944.9688	11533.9	10653.1
848.2761	946.9862	11445.8	10568.2
848.4213	949.003	11327.85	10448.6
848.5664	951.019	11268.4	10387.55
848.7115	953.0344	11210.15	10329.5
848.8567	955.0491	11211.75	10332.7
849.0018	957.063	11261.7	10384.6
849.147	959.0763	11337.5	10458.5
849.2921	961.0888	11365.25	10483.95
849.4373	963.1007	11440.55	10559.05
849.5824	965.1119	11473.95	10594.5
849.7275	967.1223	11458.4	10580.55
849.8727	969.1321	11441.3	10563.35
850.0178	971.1412	11436.25	10557.2
850.1629	973.1495	11465.8	10585.85
850.3081	975.1572	11445.4	10532.1
850.4532	977.1641	11474.35	10593.7
850.5983	979.1704	11419.45	10541.55
850.7435	981.1759	11413.7	10531.2
850.8886	983.1808	11435.75	10553.9
851.0337	985.1849	11491.05	10601.35
851.1788	987.1884	11565.15	10681.25
851.324	989.1911	11674.9	10791.75
851.4691	991.1932	11779.4	10899.6
851.6142	993.1945	11811.3	10931.2
851.7593	995.1951	11753.3	10873.55
851.9045	997.1951	11739.5	10856.55
852.0496	999.1943	11692.7	10814.3
852.1947	1001.1928	11619.8	10740.65
852.3398	1003.1906	11646.9	10764.85
852.4849	1005.1877	11730.95	10850.15
852.63	1007.1841	11741.1	10860.5
852.7751	1009.1798	11735.7	10855.15
852.9202	1011.1748	11606.15	10727
853.0653	1013.1691	11411.45	10528.35
853.2104	1015.1627	11178.2	10297.4
853.3555	1017.1556	10968.8	10089.65
853.5006	1019.1477	10840.75	9960.05
853.6457	1021.1392	10730.55	9851.35
853.7908	1023.1299	10672.2	9789.4
853.9359	1025.12	10710.05	9826.95
854.081	1027.1093	10784.15	9902.4
854.2261	1029.0979	10849.8	9968.7
854.3712	1031.0859	10923.05	10041.15
854.5163	1033.0731	10929.55	10046.6
854.6613	1035.0596	10848.75	9969.25
854.8064	1037.0454	10727.3	9844.9
854.9515	1039.0304	10603.95	9723
855.0965	1041.0148	10449.1	9567.5
855.2416	1042.9985	10363.75	9482.85
855.3867	1044.9814	10297.85	9419.45
855.5317	1046.9636	10235	9349.95
855.6768	1048.9452	10235.35	9357.4
855.8219	1050.926	10255.25	9373.45
855.9669	1052.9061	10232.4	9351.25
856.112	1054.8855	10251.75	9370.5
856.257	1056.8642	10281.25	9398.85
856.4021	1058.8421	10328.15	9445.55
856.5471	1060.8194	10349.1	9466
856.6921	1062.7959	10373	9492.55
856.8372	1064.7717	10412.95	9531.65
856.9822	1066.7469	10446.15	9563.1
857.1272	1068.7213	10493.15	9608.7
857.2723	1070.695	10523.4	9644.65
857.4173	1072.6679	10506.75	9621.35
857.5623	1074.6402	10473.1	9589.7
857.7073	1076.6117	10467	9581.2
857.8523	1078.5826	10364.9	9483.15
857.9973	1080.5527	10309.2	9425.75
858.1423	1082.5221	10316.15	9434.65
858.2873	1084.4908	10334.1	9453.3
858.4323	1086.4587	10458.65	9575.3
858.5773	1088.426	10533.6	9651.6
858.7223	1090.3925	10556.25	9669.25
858.8673	1092.3584	10539.35	9657.3
859.0123	1094.3235	10456.6	9575.45
859.1573	1096.2879	10460.3	9578.3
859.3022	1098.2515	10507.9	9626.65
859.4472	1100.2145	10642.45	9760.35
859.5922	1102.1767	10769.55	9884.25
859.7371	1104.1382	10967.1	10085.8
859.8821	1106.099	11177.6	10292.8
860.027	1108.0591	11423.5	10541.9
860.172	1110.0185	11584.8	10702.7
860.3169	1111.9771	11656.65	10776.15
860.4619	1113.9351	11480.85	10598.65
860.6068	1115.8923	11254.2	10367.5
860.7517	1117.8488	11017.5	10130.35
860.8967	1119.8045	10775.7	9895.25
861.0416	1121.7596	10639.85	9755.15
861.1865	1123.7139	10528.15	9647.05
861.3314	1125.6675	10521.95	9637.9
861.4763	1127.6204	10567.55	9686.4
861.6212	1129.5726	10516.85	9632.15
861.7661	1131.524	10420.95	9537.85
861.911	1133.4748	10351.55	9468.6
862.0559	1135.4248	10225.95	9339.6
862.2008	1137.3741	10139.75	9256.45
862.3457	1139.3226	10057.15	9171.4
862.4905	1141.2705	9968.65	9085.1
862.6354	1143.2176	9864.25	8975.55
862.7803	1145.164	9843.6	8959
862.9251	1147.1097	9811.8	8931.15
863.07	1149.0546	9762.75	8879.65
863.2148	1150.9989	9639.6	8754.2
863.3597	1152.9424	9515.45	8633.4
863.5045	1154.8852	9393.15	8509.35
863.6493	1156.8272	9300.85	8417.7
863.7942	1158.7686	9294.4	8404.05
863.939	1160.7092	9269.35	8384.6
864.0838	1162.6491	9297.6	8413.8
864.2286	1164.5883	9389.8	8507.1
864.3734	1166.5267	9480.6	8595.8
864.5182	1168.4644	9624.05	8744.25
864.663	1170.4014	9834.35	8950.8
864.8078	1172.3377	10089.2	9208.25
864.9526	1174.2732	10355.4	9473.05
865.0974	1176.2081	10698.9	9816.1
865.2421	1178.1421	11084.25	10197.25
865.3869	1180.0755	11455.6	10571.7
865.5317	1182.0082	11710.35	10825.95
865.6764	1183.9401	11838.4	10954.3
865.8212	1185.8713	11714.95	10832.4
865.9659	1187.8017	11426.2	10542.95
866.1106	1189.7315	11077.95	10196.6
866.2554	1191.6605	10741.05	9828.65
866.4001	1193.5888	10476.2	9592.05
866.5448	1195.5163	10303.45	9418.2
866.6895	1197.4432	10240.4	9355.4
866.8342	1199.3693	10175	9290.65
866.9789	1201.2947	10145.95	9255.8
867.1236	1203.2193	10130.3	9246.1
867.2683	1205.1432	10126.85	9240.8
867.413	1207.0664	10120.95	9238.45
867.5576	1208.9889	10111.45	9225.5
867.7023	1210.9106	10084.6	9202.8
867.847	1212.8316	10103	9218.75
867.9916	1214.7519	10162.05	9267.2
868.1363	1216.6715	10163.9	9278.45
868.2809	1218.5903	10223	9339.55
868.4255	1220.5084	10276.15	9393.85
868.5701	1222.4257	10313.1	9430.15
868.7148	1224.3424	10309.6	9426
868.8594	1226.2583	10400.45	9511.5
869.004	1228.1735	10515.05	9626.25
869.1486	1230.0879	10635.8	9749.7
869.2932	1232.0016	10792.05	9908.35
869.4377	1233.9146	10819.25	9934.35
869.5823	1235.8269	10811.65	9930.55
869.7269	1237.7384	10692.15	9809.45
869.8715	1239.6492	10530.45	9649.25
870.016	1241.5592	10439.65	9553.75
870.1606	1243.4686	10404.55	9520.5
870.3051	1245.3772	10480.3	9596.65
870.4496	1247.285	10574.4	9690.8
870.5941	1249.1922	10642.7	9758.4
870.7387	1251.0986	10736.15	9852.4
870.8832	1253.0042	10765.9	9880.2
871.0277	1254.9092	10817.35	9931.3
871.1722	1256.8134	10910.2	10027.55
871.3167	1258.7169	11044.45	10160.9
871.4611	1260.6196	11205.8	10323.7
871.6056	1262.5216	11438.2	10554.65
871.7501	1264.4229	11660	10777.05
871.8945	1266.3234	11783.6	10898.25
872.039	1268.2232	11899.8	11016.7
872.1834	1270.1223	11937	11050.85
872.3278	1272.0207	11931.8	11044.85
872.4723	1273.9183	11938.75	11047.55
872.6167	1275.8151	11820.35	10937.7
872.7611	1277.7113	11779	10892.45
872.9055	1279.6067	11756.25	10873.2
873.0499	1281.5014	11821.85	10934.85
873.1943	1283.3953	12005.65	11120.8
873.3386	1285.2885	12311	11427.35
873.483	1287.181	12587.6	11700.85
873.6274	1289.0727	12909.85	12027.7
873.7717	1290.9637	13084.25	12197.7
873.9161	1292.854	13233.25	12347.35
874.0604	1294.7435	13276.75	12392.6
874.2047	1296.6323	13294.35	12408.2
874.349	1298.5204	13308.4	12421
874.4933	1300.4077	13288.7	12403.85
874.6376	1302.2943	13221.2	12334.4
874.7819	1304.1802	13104.75	12220.5
874.9262	1306.0653	12796.6	11908.4
875.0705	1307.9497	12414.55	11528.7
875.2147	1309.8333	12122.1	11239.15
875.359	1311.7162	11916.4	11029.6
875.5032	1313.5984	11831.95	10943.45
875.6475	1315.4798	11814.5	10914.5
875.7917	1317.3605	11803.8	10903.45
875.9359	1319.2405	11755.2	10868.55
876.0801	1321.1197	11630.95	10742.85
876.2243	1322.9982	11406.45	10516.85
876.3685	1324.876	11229.55	10346.05
876.5127	1326.753	11005.15	10119.15
876.6569	1328.6293	10899.9	10014
876.801	1330.5048	10815.65	9926.7
876.9452	1332.3796	10702.9	9818.2
877.0893	1334.2537	10694.55	9786.95
877.2335	1336.127	10600.25	9713.1
877.3776	1337.9996	10584.4	9699.6
877.5217	1339.8714	10567.6	9683.1
877.6658	1341.7426	10563.85	9637.2
877.8099	1343.6129	10563.45	9677.85
877.954	1345.4826	10544.4	9658.85
878.0981	1347.3515	10529.8	9642.7
878.2422	1349.2196	10510.2	9624.15
878.3862	1351.087	10542.85	9658.2
878.5303	1352.9537	10579.95	9692.85
878.6743	1354.8197	10708.85	9821.25
878.8184	1356.6849	10851.3	9968.6
878.9624	1358.5493	10983	10095.85
879.1064	1360.4131	11126.85	10243.5
879.2504	1362.276	11213.25	10328.9
879.3944	1364.1383	11168.7	10283.6
879.5384	1365.9998	10938.9	10048.7
879.6823	1367.8606	10601.6	9714.4
879.8263	1369.7206	10226.9	9340.5
879.9702	1371.5799	9918.85	9031.7
880.1142	1373.4384	9687.45	8803.1
880.2581	1375.2962	9483.05	8598.2
880.402	1377.1533	9154.85	8271.65
880.5459	1379.0096	8815.3	7927
880.6898	1380.8652	8512.7	7628.95
880.8337	1382.7201	8201.2	7314.55
880.9776	1384.5742	7961.15	7073.4
881.1215	1386.4275	7778.7	6891.35
881.2653	1388.2802	7645.75	6762.2
881.4092	1390.132	7521.3	6635.4
881.553	1391.9832	7475.8	6589.9
881.6968	1393.8336	7373.95	6489.85
881.8406	1395.6832	7362.3	6475.15
881.9844	1397.5322	7285.55	6401.4
882.1282	1399.3803	7282.5	6391.35
882.272	1401.2278	7249.9	6361.9
882.4158	1403.0745	7237.6	6351
882.5595	1404.9204	7225.7	6341.25
882.7033	1406.7656	7254.1	6369.25
882.847	1408.6101	7250.55	6365.65
882.9908	1410.4538	7306.3	6420.6
883.1345	1412.2968	7346.4	6460.85
883.2782	1414.139	7416.75	6532.2
883.4219	1415.9805	7518.3	6632.75
883.5656	1417.8213	7583.3	6690.35
883.7092	1419.6613	7691	6806.75
883.8529	1421.5006	7844.1	6959
883.9965	1423.3391	8094.4	7207.4
884.1402	1425.1769	8407.5	7521.3
884.2838	1427.0139	8859.75	7973.25
884.4274	1428.8502	9429.35	8543.4
884.571	1430.6858	9985.25	9101.25
884.7146	1432.5206	10394.65	9511.25
884.8582	1434.3547	10663.3	9778.45
885.0018	1436.188	10640.1	9755.5
885.1453	1438.0206	10550.85	9665.5
885.2889	1439.8524	10399.45	9512.55
885.4324	1441.6835	10265.85	9379.6
885.5759	1443.5139	10189.7	9300.75
885.7194	1445.3435	10101.9	9217.9
885.8629	1447.1724	10074.25	9187.8
886.0064	1449.0005	10021.3	9136.75
886.1499	1450.8279	9896.15	9008.85
886.2933	1452.6545	9896.55	9011.5
886.4368	1454.4804	9928.05	9042.8
886.5802	1456.3056	9927.6	9034.6
886.7237	1458.13	9826.1	8938.65
886.8671	1459.9536	9673.75	8786.75
887.0105	1461.7766	9345.85	8461
887.1539	1463.5987	9003.3	8117
887.2972	1465.4202	8616.55	7729.8
887.4406	1467.2409	8252.8	7367.6
887.584	1469.0608	7971.9	7086.55
887.7273	1470.88	7705.2	6818.8
887.8706	1472.6984	7501.4	6618.65
888.0139	1474.5161	7280.55	6391
888.1572	1476.3331	7130	6244.6
888.3005	1478.1493	6993.3	6107.25
888.4438	1479.9648	6908.9	6023.55
888.5871	1481.7795	6822.7	5938.6
888.7303	1483.5935	6730.85	5846
888.8736	1485.4067	6681.3	5797.55
889.0168	1487.2192	6637.6	5753.25
889.16	1489.031	6605.6	5718.65
889.3032	1490.842	6549.9	5664.85
889.4464	1492.6522	6519	5634.2
889.5896	1494.4618	6487	5599.8
889.7327	1496.2705	6442.7	5558.05
889.8759	1498.0785	6404.5	5518.15
890.019	1499.8858	6354.1	5469.25
890.1622	1501.6924	6329.55	5444.3
890.3053	1503.4981	6293.5	5407.65
890.4484	1505.3032	6275.7	5388.55
890.5914	1507.1075	6238.65	5355.2
890.7345	1508.911	6203.05	5319.8
890.8776	1510.7138	6151.45	5265.15
891.0206	1512.5159	6116.15	5230.35
891.1637	1514.3172	6080.2	5194.25
891.3067	1516.1178	6032.65	5147.05
891.4497	1517.9176	6038	5151.75
891.5927	1519.7166	5987.55	5103.9
891.7357	1521.515	5949.9	5059.4
891.8786	1523.3126	5942.7	5058
892.0216	1525.1094	5916.8	5026.8
892.1645	1526.9055	5886.6	5003.2
892.3074	1528.7008	5862.35	4976.3
892.4503	1530.4954	5832.35	4944.35
892.5932	1532.2893	5824.2	4940.6
892.7361	1534.0824	5785.85	4896.85
892.879	1535.8747	5816.5	4930.55
893.0218	1537.6663	5791.25	4904.45
893.1647	1539.4572	5800.65	4912.4
893.3075	1541.2473	5791.05	4906.3
893.4503	1543.0367	5765.4	4881.35
893.5931	1544.8253	5789.95	4900.05
893.7359	1546.6132	5785.75	4898.25
893.8787	1548.4003	5817.1	4922.4
894.0214	1550.1867	5846.95	4952.45
894.1642	1551.9723	5903.85	5012.95
894.3069	1553.7572	5975.15	5090.55
894.4496	1555.5414	6025.2	5138.4
894.5923	1557.3247	6123.15	5238.85
894.735	1559.1074	6274.75	5391.9
894.8777	1560.8893	6392.7	5509.7
895.0204	1562.6705	6542.8	5656.45
895.163	1564.4509	6629.9	5745
895.3056	1566.2305	6707.05	5821.5
895.4482	1568.0094	6767.45	5882.3
895.5908	1569.7876	6786.05	5900.2
895.7334	1571.565	6767.1	5881.85
895.876	1573.3417	6769.85	5886.3
896.0186	1575.1176	6756.95	5871.65
896.1611	1576.8928	6745.05	5858.3
896.3036	1578.6672	6696.2	5810.95
896.4461	1580.4409	6658.5	5775.05
896.5886	1582.2138	6621.25	5735.95
896.7311	1583.986	6585.4	5698.8
896.8736	1585.7575	6600.35	5717.5
897.0161	1587.5282	6608.7	5724.55
897.1585	1589.2981	6659.4	5775.3
897.3009	1591.0673	6703.05	5817
897.4433	1592.8358	6756.1	5871.95
897.5857	1594.6035	6822.45	5934.6
897.7281	1596.3704	6865.45	5980.8
897.8705	1598.1366	6950.25	6065.45
898.0128	1599.9021	7035.05	6151.75
898.1551	1601.6668	7088.55	6199.45
898.2975	1603.4308	7204.1	6319.45
898.4398	1605.194	7357.6	6467.55
898.5821	1606.9564	7512.35	6628.4
898.7243	1608.7182	7748.85	6858.6
898.8666	1610.4791	7978.45	7094.55
899.0088	1612.2394	8235.95	7351.35
899.1511	1613.9988	8514.95	7630.15
899.2933	1615.7576	8774.1	7889.45
899.4355	1617.5156	8987.6	8095.9
899.5776	1619.2728	9102.7	8218.6
899.7198	1621.0293	9131.55	8247.85
899.862	1622.785	9051.9	8162.75
900.0041	1624.54	8848.95	7960.4
900.1462	1626.2942	8593.65	7709.15
900.2883	1628.0477	8284.95	7395.05
900.4304	1629.8005	7999.35	7112.3
900.5725	1631.5525	7714.3	6828.4
900.7145	1633.3037	7483.15	6599
900.8566	1635.0542	7312.3	6428
900.9986	1636.804	7194.65	6309.3
901.1406	1638.553	7120.35	6181.25
901.2826	1640.3013	7026.1	6141.9
901.4245	1642.0488	7020.9	6133.85
901.5665	1643.7955	7061.35	6178.8
901.7085	1645.5416	7121	6234.35
901.8504	1647.2868	7221.25	6337.2
901.9923	1649.0313	7322.85	6438.8
902.1342	1650.7751	7506.95	6619.25
902.2761	1652.5181	7637.35	6755.3
902.4179	1654.2604	7826.75	6942.2
902.5598	1656.0019	8061.25	7176.3
902.7016	1657.7427	8351.1	7467.3
902.8434	1659.4828	8627.95	7742.65
902.9852	1661.222	8819.75	7935.1
903.127	1662.9606	8782.85	7898.15
903.2687	1664.6984	8538.05	7654.55
903.4105	1666.4354	8131	7246
903.5522	1668.1717	7573.2	6690.25
903.6939	1669.9072	7023.4	6141.1
903.8356	1671.642	6543.5	5658.6
903.9773	1673.3761	6162.2	5278.55
904.119	1675.1094	5874.95	4991.35
904.2606	1676.8419	5629.85	4745.65
904.4022	1678.5737	5437.55	4553.1
904.5439	1680.3048	5303.85	4420.8
904.6855	1682.0351	5181.35	4296.35
904.827	1683.7646	5087.95	4201.4
904.9686	1685.4934	5018.25	4137.2
905.1101	1687.2215	4953.35	4069.75
905.2517	1688.9488	4883.5	4000.7
905.3932	1690.6754	4822.55	3940.1
905.5347	1692.4012	4780.5	3896.55
905.6761	1694.1263	4760.3	3876.15
905.8176	1695.8506	4711.4	3826.55
905.9591	1697.5742	4684.5	3802
906.1005	1699.297	4644.2	3760.35
906.2419	1701.0191	4599.65	3716.8
906.3833	1702.7404	4582	3698.1
906.5246	1704.461	4529.1	3643.95
906.666	1706.1808	4497	3613.45
906.8073	1707.8999	4492.35	3606.2
906.9487	1709.6182	4469.75	3587.15
907.09	1711.3358	4456.4	3572.45
907.2313	1713.0527	4415.95	3531.55
907.3725	1714.7688	4390.55	3502.65
907.5138	1716.4841	4372.05	3487.35
907.655	1718.1987	4370.1	3481.45
907.7962	1719.9126	4345.25	3461.85
907.9374	1721.6257	4328.65	3443.5
908.0786	1723.338	4313.35	3428.85
908.2198	1725.0496	4299.05	3413.8
908.3609	1726.7605	4294.7	3410.1
908.502	1728.4706	4280.2	3396
908.6431	1730.18	4256	3370.1
908.7842	1731.8886	4231.95	3348.15
908.9253	1733.5964	4244	3352.9
909.0664	1735.3036	4203.65	3317.4
909.2074	1737.0099	4182.4	3298.65
909.3484	1738.7156	4172.4	3289.85
909.4894	1740.4204	4140.15	3254.15
909.6304	1742.1246	4135.4	3249.3
909.7714	1743.8279	4116.15	3231.9
909.9123	1745.5306	4101.6	3216.7
910.0532	1747.2325	4083.55	3199.45
910.1941	1748.9336	4061.4	3178.2
910.335	1750.634	4056.05	3168.8
910.4759	1752.3336	4046.65	3162.05
910.6168	1754.0325	4019.4	3136.1
910.7576	1755.7307	4023.4	3139.05
910.8984	1757.4281	4019.3	3136.9
911.0392	1759.1247	3996.7	3104.75
911.18	1760.8206	3992.8	3105.2
911.3208	1762.5158	3984.25	3097.95
911.4615	1764.2102	3957.3	3074.75
911.6022	1765.9039	3952.15	3067.65
911.7429	1767.5968	3939.9	3055.95
911.8836	1769.289	3934.55	3051.6
912.0243	1770.9804	3927.25	3043.7
912.1649	1772.6711	3917.1	3035.15
912.3056	1774.361	3906.25	3022.5
912.4462	1776.0502	3912.55	3030.9
912.5868	1777.7386	3882.55	2996
912.7274	1779.4263	3889.85	3003.85
912.8679	1781.1132	3877.7	2992.4
913.0084	1782.7994	3869	2983.75
913.149	1784.4849	3859	2974.85
913.2895	1786.1696	3860.95	2957.75
913.4299	1787.8535	3843.4	2960.3
913.5704	1789.5367	3834.9	2950.6
913.7108	1791.2192	3838.35	2953.15
913.8513	1792.9009	3830.05	2931.45
913.9917	1794.5818	3811.25	2927.9
914.132	1796.2621	3827.75	2945.45
914.2724	1797.9415	3797.95	2914.55
914.4128	1799.6202	3785.1	2899
914.5531	1801.2982	3781.1	2897.8
914.6934	1802.9755	3775.3	2890.35
914.8337	1804.6519	3764.7	2880.35
914.9739	1806.3277	3742.75	2860.4
915.1142	1808.0027	3728.6	2845.95
915.2544	1809.6769	3743.2	2857.85
915.3946	1811.3504	3729.05	2843.7
915.5348	1813.0231	3718.5	2831.6
915.675	1814.6951	3724.75	2841.4
915.8151	1816.3664	3717.3	2830.25
915.9553	1818.0369	3710.9	2826.8
916.0954	1819.7067	3691.7	2808.45
916.2355	1821.3757	3694.5	2809.75
916.3755	1823.044	3699.65	2815.7
916.5156	1824.7115	3688.5	2804.9
916.6556	1826.3783	3668.25	2787.65
916.7956	1828.0443	3659.4	2776.35
916.9356	1829.7096	3661.5	2776.3
917.0756	1831.3741	3650.3	2764.3
917.2155	1833.0379	3647.75	2762.75
917.3555	1834.701	3631	2746
917.4954	1836.3633	3647.45	2762.4
917.6353	1838.0248	3633.45	2748.6
917.7751	1839.6856	3620.5	2737.1
917.915	1841.3457	3602.45	2721.75
918.0548	1843.005	3608.1	2725.15
918.1946	1844.6636	3606.55	2723.25
918.3344	1846.3214	3595.6	2711.85
918.4742	1847.9785	3603.1	2720.4
918.6139	1849.6349	3581	2696.5
918.7537	1851.2904	3590.95	2699
918.8934	1852.9453	3572.85	2691.4
919.0331	1854.5994	3587.45	2700
919.1727	1856.2528	3575.3	2686.65
919.3124	1857.9054	3553.35	2669.2
919.452	1859.5572	3548.15	2665.35
919.5916	1861.2083	3543	2657.35
919.7312	1862.8587	3549.3	2666.95
919.8708	1864.5084	3537.6	2652.6
920.0103	1866.1572	3519.4	2637.75
920.1498	1867.8054	3523.8	2639.95
920.2893	1869.4528	3508.7	2624.95
920.4288	1871.0994	3509.9	2627
920.5683	1872.7453	3511.7	2629.3
920.7077	1874.3905	3520.25	2619.65
920.8471	1876.0349	3482.7	2598.35
920.9865	1877.6786	3474.75	2588.45
921.1259	1879.3215	3481.6	2600.15
921.2653	1880.9637	3482.55	2600.1
921.4046	1882.6051	3459.9	2574.95
921.5439	1884.2458	3464.3	2579.5
921.6832	1885.8858	3442	2558.9
921.8225	1887.525	3425.65	2542.45
921.9617	1889.1634	3437.1	2554.7
922.101	1890.8011	3429.25	2545.85
922.2402	1892.4381	3416.45	2533.9
922.3794	1894.0743	3408.4	2524.85
922.5185	1895.7098	3425.85	2542.45
922.6577	1897.3446	3412	2528.4
922.7968	1898.9786	3407.85	2521.5
922.9359	1900.6118	3390.5	2510.05
923.075	1902.2443	3379.65	2494
923.214	1903.8761	3362.75	2478.5
923.3531	1905.5071	3349.65	2466.1
923.4921	1907.1374	3344.8	2460.15
923.6311	1908.7669	3352.2	2470.65
923.77	1910.3957	3353.6	2471.35
923.909	1912.0237	3320.45	2436.9
924.0479	1913.651	3324.85	2438.85
924.1868	1915.2776	3341.95	2461
924.3257	1916.9034	3315.5	2434
924.4646	1918.5285	3301.65	2419.35
924.6034	1920.1528	3286.8	2403.2
924.7422	1921.7764	3291.55	2409.3
924.881	1923.3992	3285.85	2402.55
925.0198	1925.0213	3254.5	2370.05
925.1586	1926.6427	3258.45	2377.3
925.2973	1928.2633	3439.1	2325.6
925.436	1929.8832	3273.7	2387.85
925.5747	1931.5023	3232.75	2350.25
925.7134	1933.1207	3220.5	2337.95
925.852	1934.7383	3229.25	2345.1
925.9906	1936.3552	3210.1	2327.3
926.1292	1937.9714	3212.1	2330
926.2678	1939.5868	3205.1	2320.1
926.4064	1941.2015	3184.85	2301.35
926.5449	1942.8154	3179.5	2294.95
926.6834	1944.4286	3168.9	2283.6
926.8219	1946.041	3174.95	2267
926.9604	1947.6528	3156	2269
927.0988	1949.2637	3149.3	2266.65
927.2372	1950.8739	3138.55	2252.9
927.3756	1952.4834	3127.75	2244.2
927.514	1954.0921	3127.65	2245
927.6523	1955.7001	3128.35	2241.4
927.7907	1957.3074	3121.55	2237.85
927.929	1958.9139	3109.45	2227.7
928.0673	1960.5197	3091.45	2206.05
928.2055	1962.1247	3076.75	2194.05
928.3438	1963.729	3066.6	2182.8
928.482	1965.3325	3079.7	2172.3
928.6202	1966.9353	3061.15	2177.75
928.7584	1968.5374	3044.4	2160.15
928.8965	1970.1387	3047.95	2165.1
929.0346	1971.7393	3040.15	2155.35
929.1727	1973.3392	3042.75	2157
929.3108	1974.9383	3021.9	2140.3
929.4489	1976.5366	3020.85	2137.25
929.5869	1978.1342	3012.75	2129.5
929.7249	1979.7311	2996.95	2112.65
929.8629	1981.3273	3004.1	2121
930.0009	1982.9227	2989.65	2103.8
930.1388	1984.5173	2984.1	2102.55
930.2767	1986.1112	2979.7	2097.05
930.4146	1987.7044	2971.95	2091.05
930.5525	1989.2968	2981.05	2096.75
930.6904	1990.8885	2969.5	2082.6
930.8282	1992.4795	2970.6	2086.45
930.966	1994.0697	2942.7	2058.05
931.1038	1995.6592	2933.95	2051.2
931.2415	1997.2479	2932.75	2048.85
931.3793	1998.8359	2934.55	2052.1
931.517	2000.4232	2921.15	2039
931.6547	2002.0097	2913.35	2029.9
931.7923	2003.5955	2909	2025.1
931.93	2005.1805	2906.3	2019
932.0676	2006.7648	2897.15	2013.55
932.2052	2008.3484	2890.8	2006.2
932.3427	2009.9312	2910.5	2023.6
932.4803	2011.5133	2892.3	2008.9
932.6178	2013.0946	2885.3	2001.35
932.7553	2014.6752	2873.45	1989.45
932.8928	2016.2551	2878.35	1996.55
933.0302	2017.8342	2872.2	1988.4
933.1676	2019.4126	2863.35	1979.9
933.305	2020.9902	2852.55	1969
933.4424	2022.5672	2846.95	1961.7
933.5798	2024.1433	2850.5	1963.2
933.7171	2025.7188	2833.3	1952.95
933.8544	2027.2935	2828.25	1944.7
933.9917	2028.8674	2819.25	1936
934.129	2030.4406	2818.9	1938
934.2662	2032.0131	2817.8	1933.45
934.4034	2033.5849	2818.1	1924.7
934.5406	2035.1559	2796.9	1913.85
934.6778	2036.7261	2797.1	1912
934.8149	2038.2957	2796.95	1915
934.952	2039.8645	2787.25	1903.55
935.0891	2041.4325	2789.2	1903
935.2262	2042.9998	2768.4	1886.2
935.3632	2044.5664	2777.6	1888.65
935.5002	2046.1323	2773.2	1890.05
935.6372	2047.6974	2769.55	1885.35
935.7742	2049.2617	2755.8	1872.1
935.9111	2050.8254	2777.25	1855.8
936.048	2052.3883	2757.3	1868.05
936.1849	2053.9504	2743.15	1852.6
936.3218	2055.5118	2735.7	1841.35
936.4586	2057.0725	2723.85	1825.25
936.5955	2058.6325	2730.75	1834.5
936.7323	2060.1917	2727.45	1828.75
936.869	2061.7502	2722.7	1819.25
937.0058	2063.3079	2700.2	1800.8
937.1425	2064.8649	2710.6	1805.5
937.2792	2066.4212	2698.75	1799.9
937.4159	2067.9767	2685.8	1789.3
937.5525	2069.5315	2681.8	1786.9
937.6891	2071.0856	2688.3	1798.65
937.8257	2072.6389	2681.6	1791.95
937.9623	2074.1915	2664.8	1782.15
938.0989	2075.7433	2659.05	1771.6
938.2354	2077.2945	2654.95	1771.2
938.3719	2078.8448	2651.1	1769.05
938.5084	2080.3945	2642.7	1758.25
938.6448	2081.9434	2649.9	1767.5
938.7812	2083.4916	2635.8	1750.45
938.9176	2085.039	2620.6	1735.55
939.054	2086.5857	2624	1740.55
939.1903	2088.1317	2620.75	1737.9
939.3267	2089.677	2616.35	1734.5
939.463	2091.2215	2608	1724.2
939.5992	2092.7652	2606.2	1720.4
939.7355	2094.3083	2611.35	1729.55
939.8717	2095.8506	2585.4	1703.45
940.0079	2097.3921	2608.05	1725.2
940.1441	2098.933	2593.7	1708.65
940.2802	2100.4731	2584.15	1701.2
940.4163	2102.0124	2596.1	1697.2
940.5524	2103.5511	2579.15	1695.5
940.6885	2105.089	2579.65	1696.1
940.8245	2106.6261	2577.55	1694.4
940.9606	2108.1626	2579.45	1694.7
941.0965	2109.6983	2592.2	1680.35
941.2325	2111.2332	2564.15	1677.65
941.3684	2112.7675	2559.9	1675.15
941.5044	2114.301	2559.2	1675.25
941.6403	2115.8337	2557.3	1673.7
941.7761	2117.3657	2547.9	1665.5
941.912	2118.897	2550.25	1665.3
942.0478	2120.4276	2547.85	1659.8
942.1835	2121.9575	2530.75	1646.55
942.3193	2123.4866	2551.05	1652.45
942.455	2125.0149	2528.8	1642.5
942.5907	2126.5426	2508.6	1623.65
942.7264	2128.0695	2508.3	1620.35
942.8621	2129.5956	2510.7	1627.2
942.9977	2131.1211	2527.35	1639
943.1333	2132.6458	2503.5	1621.75
943.2689	2134.1698	2504.1	1620.15
943.4044	2135.693	2500.45	1615.2
943.54	2137.2155	2488.8	1604.2
943.6755	2138.7373	2486.95	1601.7
943.8109	2140.2584	2484.3	1601.35
943.9464	2141.7787	2478.85	1589.55
944.0818	2143.2983	2454.9	1571.7
944.2172	2144.8171	2457.9	1575.5
944.3526	2146.3353	2468.4	1583.6
944.4879	2147.8527	2445.35	1563.2
944.6232	2149.3693	2448.25	1564.2
944.7585	2150.8853	2438.55	1553.95
944.8938	2152.4005	2432.95	1551.4
945.029	2153.9149	2440.05	1554.9
945.1642	2155.4287	2435.15	1552.1
945.2994	2156.9417	2429.2	1544
945.4346	2158.454	2420.7	1535.3
945.5697	2159.9655	2415.1	1533.4
945.7048	2161.4764	2416.85	1531.45
945.8399	2162.9865	2419.4	1535.05
945.9749	2164.4958	2414.45	1527.45
946.1099	2166.0045	2417.15	1529
946.2449	2167.5124	2416.5	1534.15
946.3799	2169.0195	2404.75	1519.75
946.5148	2170.526	2390.8	1507.25
946.6498	2172.0317	2396.1	1512.15
946.7846	2173.5367	2395.4	1509.55
946.9195	2175.0409	2387.65	1504.05
947.0543	2176.5445	2382.1	1498.75
947.1891	2178.0473	2374.35	1491.05
947.3239	2179.5494	2372.6	1485.85
947.4587	2181.0507	2357.55	1472.8
947.5934	2182.5513	2370.85	1487.6
947.7281	2184.0512	2362.55	1478.7
947.8628	2185.5504	2359.55	1474.5
947.9974	2187.0488	2345.8	1462.6
948.132	2188.5465	2342.65	1458.5
948.2666	2190.0435	2334.5	1450.7
948.4012	2191.5397	2338.85	1456.25
948.5357	2193.0353	2328.45	1444.8
948.6702	2194.5301	2319.55	1434.8
948.8047	2196.0241	2317.75	1433.4
948.9392	2197.5175	2318.15	1434.8
949.0736	2199.0101	2312.65	1426.8
949.208	2200.502	2302.95	1419.7
949.3424	2201.9931	2298.55	1413.9
949.4767	2203.4835	2298.55	1413.75
949.611	2204.9733	2294.9	1406.15
949.7453	2206.4622	2289.1	1404.15
949.8796	2207.9505	2285.9	1399.6
950.0138	2209.438	2269.45	1387.1
950.148	2210.9248	2273.2	1387.35
950.2822	2212.4109	2273.6	1390.3
950.4164	2213.8962	2258.7	1373.7
950.5505	2215.3809	2262.05	1378.65
950.6846	2216.8648	2259.25	1374.4
950.8186	2218.3479	2259.75	1371.65
950.9527	2219.8304	2248.95	1362.45
951.0867	2221.3121	2242.1	1357.9
951.2207	2222.7931	2236.3	1352.5
951.3546	2224.2733	2229.8	1345.85
951.4886	2225.7529	2226.75	1340.85
951.6225	2227.2317	2225.55	1340.45
951.7563	2228.7098	2225.25	1341.65
951.8902	2230.1872	2218.2	1333.5
952.024	2231.6638	2211.8	1327.3
952.1578	2233.1397	2210	1319.35
952.2916	2234.6149	2205.15	1322.05
952.4253	2236.0894	2197.25	1312.7
952.559	2237.5632	2206.3	1311.7
952.6927	2239.0362	2200.15	1317.55
952.8263	2240.5085	2182.45	1299.25
952.9599	2241.9801	2182.15	1297.75
953.0935	2243.4509	2185.05	1300.1
953.2271	2244.921	2173.45	1288.6
953.3606	2246.3904	2175.35	1289.35
953.4941	2247.8591	2167.3	1284.7
953.6276	2249.3271	2160.25	1276.45
953.7611	2250.7943	2147.3	1263.65
953.8945	2252.2608	2139.9	1256.45
954.0279	2253.7266	2137.35	1256.05
954.1612	2255.1917	2148.1	1264.7
954.2946	2256.656	2137.4	1254.2
954.4279	2258.1197	2132.95	1250.2
954.5612	2259.5826	2134.55	1249.2
954.6944	2261.0447	2128.5	1244.8
954.8276	2262.5062	2120.45	1232.15
954.9608	2263.9669	2123.85	1237.8
955.094	2265.4269	2114.85	1231.5
955.2271	2266.8862	2104.7	1222.35
955.3602	2268.3448	2110.05	1225.25
955.4933	2269.8026	2110.5	1226.2
955.6264	2271.2598	2111.5	1228.15
955.7594	2272.7162	2112.35	1229.65
955.8924	2274.1719	2102.8	1219.65
956.0253	2275.6268	2097.95	1213.5
956.1583	2277.0811	2107.1	1223.4
956.2912	2278.5346	2094.55	1209.65
956.4241	2279.9874	2098.45	1214.55
956.5569	2281.4395	2090.2	1206.8
956.6897	2282.8908	2093.45	1205.05
956.8225	2284.3414	2085.9	1200.45
956.9553	2285.7914	2079.1	1195.2
957.088	2287.2406	2079.35	1194.95
957.2207	2288.689	2076.55	1193.15
957.3534	2290.1368	2068.3	1185.15
957.486	2291.5838	2067.95	1183.4
957.6186	2293.0302	2057.95	1175.2
957.7512	2294.4758	2059.35	1176.7
957.8838	2295.9206	2057.75	1172.05
958.0163	2297.3648	2048.6	1164.25
958.1488	2298.8082	2051.75	1168.4
958.2813	2300.251	2032.55	1149.15
958.4137	2301.693	2036.8	1149.25
958.5461	2303.1343	2042.4	1157.7
958.6785	2304.5748	2036.7	1152.2
958.8108	2306.0147	2033	1149.15
958.9432	2307.4538	2043.7	1156.1
959.0754	2308.8922	2029.65	1148.15
959.2077	2310.3299	2016.6	1132.75
959.3399	2311.7669	2023.85	1140.75
959.4721	2313.2031	2008.95	1127.3
959.6043	2314.6387	2015.2	1130.3
959.7365	2316.0735	2006.65	1122.3
959.8686	2317.5076	2001.7	1117.4
960.0006	2318.941	2004.6	1120.25
960.1327	2320.3737	2004.35	1120
960.2647	2321.8056	2003.45	1117.35
960.3967	2323.2369	1990.85	1108.1
960.5287	2324.6674	1986.95	1101.1
960.6606	2326.0972	1984.85	1098.75
960.7925	2327.5263	1987.85	1103.5
960.9244	2328.9547	1978.2	1095.45
961.0562	2330.3823	1977	1090.35
961.1881	2331.8092	1983.8	1096.45
961.3198	2333.2355	1966.5	1082.35
961.4516	2334.661	1964.4	1079.4
961.5833	2336.0858	1962.35	1075.75
961.715	2337.5098	1968.2	1084.25
961.8467	2338.9332	1965.5	1081.15
961.9783	2340.3558	1960.75	1073.45
962.1099	2341.7778	1958.55	1074.65
962.2415	2343.199	1948.2	1061.9
962.373	2344.6195	1955.2	1071.8
962.5045	2346.0393	1944.7	1061.35
962.636	2347.4583	1947.9	1064
962.7675	2348.8767	1945.1	1062.55
962.8989	2350.2943	1940.1	1057.2
963.0303	2351.7113	1944.85	1059.7
963.1617	2353.1275	1941.95	1058.85
963.293	2354.543	1956.35	1049.35
963.4243	2355.9578	1936.9	1052
963.5556	2357.3718	1920.65	1037.35
963.6868	2358.7852	1923.2	1038.35
963.818	2360.1978	1917.6	1033.4
963.9492	2361.6098	1922.4	1039.25
964.0803	2363.021	1926.85	1040.2
964.2114	2364.4315	1909.2	1027.3
964.3425	2365.8413	1915.8	1032.3
964.4736	2367.2504	1903.3	1020.45
964.6046	2368.6587	1903	1017.4
964.7356	2370.0664	1903.4	1019.05
964.8666	2371.4733	1897.7	1013.25
964.9975	2372.8795	1894.8	1011.75
965.1284	2374.285	1891.15	1007.7
965.2593	2375.6899	1889.45	1007.85
965.3901	2377.0939	1884.5	1002.6
965.5209	2378.4973	1880.5	998.15
965.6517	2379.9	1885.1	998.2
965.7825	2381.3019	1869.75	987.45
965.9132	2382.7032	1856.8	972.15
966.0439	2384.1037	1865.1	982.55
966.1745	2385.5035	1857.75	974.15
966.3051	2386.9027	1867.9	984.3
966.4357	2388.3011	1864.9	978.35
966.5663	2389.6987	1856.65	975.1
966.6968	2391.0957	1854.2	969.2
966.8273	2392.492	1838.7	954
966.9578	2393.8876	1836.5	952.85
967.0882	2395.2824	1838.65	954.6
967.2186	2396.6765	1828.05	944.8
967.349	2398.07	1830.95	947.25
967.4793	2399.4627	1828.1	945.25
967.6097	2400.8547	1825.35	942.25
967.7399	2402.246	1835.85	945.85
967.8702	2403.6366	1827.9	945.45
968.0004	2405.0265	1820.3	936.35
968.1306	2406.4156	1817.1	930.25
968.2607	2407.8041	1812.35	926.25
968.3909	2409.1918	1812.3	927.45
968.521	2410.5789	1808.95	924.7
968.651	2411.9652	1810.95	924.4
968.781	2413.3508	1794.3	909.25
968.911	2414.7358	1801.15	916.15
969.041	2416.12	1791.6	910.9
969.1709	2417.5035	1791.4	908.75
969.3008	2418.8863	1786.25	902
969.4307	2420.2684	1788.55	908
969.5606	2421.6497	1787.05	905.9
969.6904	2423.0304	1776.25	892.95
969.8201	2424.4104	1784.55	900.1
969.9499	2425.7896	1779.05	891.2
970.0796	2427.1682	1764.3	881.25
970.2093	2428.546	1775.55	890.2
970.3389	2429.9232	1772.95	889
970.4685	2431.2996	1768.6	884.3
970.5981	2432.6753	1776.85	893.75
970.7277	2434.0503	1761.5	878.15
970.8572	2435.4246	1748.25	865.1
970.9867	2436.7982	1762	876.8
971.1161	2438.1711	1747.05	864.5
971.2456	2439.5433	1739.5	854.5
971.375	2440.9148	1742.7	854.7
971.5043	2442.2856	1739.9	856.95
971.6336	2443.6557	1750.1	863.6
971.7629	2445.025	1740.8	857.45
971.8922	2446.3937	1734.5	850
972.0214	2447.7617	1737.2	851.95
972.1506	2449.1289	1728.55	846.1
972.2798	2450.4955	1735.95	848.4
972.4089	2451.8613	1725.65	844.55
972.538	2453.2265	1733.15	850.65
972.6671	2454.5909	1731	847.55
972.7961	2455.9546	1714.35	831.55
972.9251	2457.3177	1708.45	826.35
973.0541	2458.68	1718.55	835.05
973.1831	2460.0416	1713.1	828.1
973.312	2461.4025	1718.2	831.65
973.4408	2462.7627	1730.35	834.55
973.5697	2464.1222	1717.85	835.25
973.6985	2465.4811	1718.4	832.85
973.8273	2466.8392	1712.45	830.55
973.956	2468.1966	1710.2	822.7
974.0847	2469.5533	1711.05	825.45
974.2134	2470.9093	1709.6	824.6
974.3421	2472.2645	1705.4	820
974.4707	2473.6191	1708.45	825.9
974.5993	2474.973	1700.65	816.25
974.7278	2476.3262	1700.6	815.75
974.8563	2477.6787	1692.35	810.85
974.9848	2479.0305	1688.9	804.9
975.1132	2480.3816	1694.8	808.35
975.2417	2481.7319	1684.3	798.55
975.37	2483.0816	1682.95	799.05
975.4984	2484.4306	1680.45	795.25
975.6267	2485.7789	1677.55	794.1
975.755	2487.1264	1675.05	789.75
975.8833	2488.4733	1666.15	782.15
976.0115	2489.8195	1690.55	789.05
976.1397	2491.165	1668.25	781.7
976.2678	2492.5097	1663.45	775.9
976.3959	2493.8538	1662.85	778.1
976.524	2495.1972	1652.55	769.15
976.6521	2496.5398	1647.95	762.5
976.7801	2497.8818	1648.45	763.15
976.9081	2499.2231	1649.2	764.85
977.036	2500.5637	1655.05	771.65
977.164	2501.9035	1662	777.05
977.2918	2503.2427	1646.15	759.75
977.4197	2504.5812	1647.2	764.3
977.5475	2505.919	1640.95	754.7
977.6753	2507.256	1645	761.35
977.8031	2508.5924	1638.65	755.75
977.9308	2509.9281	1635.55	746.55
978.0585	2511.2631	1625.15	741.8
978.1861	2512.5974	1639.65	758
978.3137	2513.9309	1636.15	751.95
978.4413	2515.2638	1653.5	741.3
978.5689	2516.596	1625.5	743
978.6964	2517.9275	1622.4	735.8
978.8239	2519.2583	1621.75	737.65
978.9513	2520.5884	1628.1	742.2
979.0788	2521.9178	1619.75	735.3
979.2062	2523.2465	1613.8	729.75
979.3335	2524.5745	1619.45	735.1
979.4608	2525.9018	1609.1	725.1
979.5881	2527.2284	1605.55	723.4
979.7154	2528.5543	1610.4	728.35
979.8426	2529.8796	1607.4	722.2
979.9698	2531.2041	1605.45	719.35
980.0969	2532.5279	1598.75	716.5
980.224	2533.851	1604.8	719.75
980.3511	2535.1735	1604.75	721.85
980.4781	2536.4952	1604.7	723.8
980.6052	2537.8163	1600.05	716.4
980.7321	2539.1366	1597.95	716
980.8591	2540.4562	1595.35	708.5
980.986	2541.7752	1599.05	716.35
981.1129	2543.0935	1593.4	709.9
981.2397	2544.411	1594.05	707.25
981.3665	2545.7279	1587.75	705.6
981.4933	2547.0441	1587.55	700.75
981.62	2548.3596	1584.6	699.05
981.7467	2549.6744	1584.5	700.95
981.8734	2550.9885	1582	697.35
982.0001	2552.3019	1581.05	699.6
982.1267	2553.6146	1580.15	695.7
982.2532	2554.9266	1579.25	696.75
982.3798	2556.2379	1575.5	690.35
982.5063	2557.5485	1568.05	686.15
982.6327	2558.8585	1580.55	689.45
982.7592	2560.1677	1579.25	691.3
982.8856	2561.4762	1570.8	687.35
983.0119	2562.7841	1573.05	686.9
983.1383	2564.0913	1567.1	683.6
983.2646	2565.3977	1572.2	688.65
983.3908	2566.7035	1565.25	682.45
983.517	2568.0086	1561.9	675.1
983.6432	2569.313	1553.95	671.7
983.7694	2570.6167	1565.7	678.8
983.8955	2571.9197	1566.55	685.05
984.0216	2573.222	1563.45	676.8
984.1476	2574.5236	1562.8	678.05
984.2737	2575.8246	1565	677.9
984.3996	2577.1248	1561.1	670.75
984.5256	2578.4244	1550.3	666.3
984.6515	2579.7232	1556.3	672.8
984.7774	2581.0214	1585	669.1
984.9032	2582.3189	1559.75	675.55
985.029	2583.6157	1556.45	667.65
985.1548	2584.9118	1552.85	671.5
985.2806	2586.2072	1556.95	674.35
985.4063	2587.5019	1555.6	671
985.5319	2588.7959	1558.9	675
985.6576	2590.0893	1556.3	670.2
985.7832	2591.3819	1563	681.15
985.9087	2592.6739	1559.25	676.85
986.0343	2593.9652	1555.95	671.85
986.1597	2595.2557	1553.85	671.35
986.2852	2596.5456	1556.4	670
986.4106	2597.8348	1558.75	676.45
986.536	2599.1234	1556.85	673.8
986.6614	2600.4112	1552.4	669.5
986.7867	2601.6983	1555.4	669.65
986.912	2602.9848	1562.05	677.55
987.0372	2604.2705	1557.75	667.6
987.1624	2605.5556	1556.4	672.9
987.2876	2606.84	1544.45	660.2
987.4128	2608.1237	1544.05	659.4
987.5379	2609.4067	1546.15	662.1
987.6629	2610.689	1547.8	656.55
987.788	2611.9707	1542.45	655.15
987.913	2613.2516	1544	655.95
988.0379	2614.5319	1534.65	651.8
988.1629	2615.8115	1527	643.3
988.2878	2617.0903	1528.8	646.35
988.4126	2618.3685	1525.95	642.2
988.5375	2619.6461	1526.55	640.3
988.6622	2620.9229	1522.8	641.15
988.787	2622.199	1523.6	638.5
988.9117	2623.4745	1530.2	643.7
989.0364	2624.7493	1525.75	641.9
989.161	2626.0234	1522.25	640.9
989.2857	2627.2968	1518.75	633.75
989.4102	2628.5695	1527.4	642.7
989.5348	2629.8415	1519.1	635.4
989.6593	2631.1128	1517.45	631.8
989.7837	2632.3835	1518.4	636.1
989.9082	2633.6535	1515.15	631.55
990.0326	2634.9228	1517.85	634.35
990.1569	2636.1914	1514.8	631.75
990.2812	2637.4593	1514	629.55
990.4055	2638.7265	1508.85	624.55
990.5298	2639.9931	1509.95	628.1
990.654	2641.259	1510.85	626.35
990.7782	2642.5242	1507.55	621.6
990.9023	2643.7887	1506.8	624.7
991.0264	2645.0525	1499.1	617.25
991.1505	2646.3156	1500.3	616.55
991.2745	2647.5781	1500.9	617.9
991.3985	2648.8398	1495.35	610.2
991.5225	2650.1009	1528.35	610.15
991.6464	2651.3613	1498.8	615.55
991.7703	2652.6211	1489.7	607.5
991.8942	2653.8801	1492.3	610.2
992.018	2655.1385	1482.3	595.05
992.1418	2656.3961	1492.2	608.25
992.2655	2657.6531	1486.1	603.05
992.3892	2658.9094	1492.7	607.4
992.5129	2660.1651	1487.65	604.4
992.6366	2661.42	1492.2	608.6
992.7602	2662.6743	1498.05	614.6
992.8837	2663.9279	1492.45	610.1
993.0073	2665.1808	1496.55	612.5
993.1307	2666.433	1496.35	612.1
993.2542	2667.6846	1498.75	614.4
993.3776	2668.9354	1499	611.85
993.501	2670.1856	1505.7	620.7
993.6244	2671.4351	1506.15	621.6
993.7477	2672.6839	1510.5	626
993.8709	2673.9321	1503.9	621.5
993.9942	2675.1795	1510.05	624.55
994.1174	2676.4263	1511.15	628.15
994.2405	2677.6724	1510.85	627.35
994.3637	2678.9179	1504.65	621.7
994.4868	2680.1626	1514.9	631.3
994.6098	2681.4067	1505.4	620.7
994.7328	2682.6501	1508.3	624.85
994.8558	2683.8928	1520.5	635.15
994.9788	2685.1348	1504.5	621.5
995.1017	2686.3761	1493	609.65
995.2245	2687.6168	1497.65	609.85
995.3474	2688.8568	1488.9	605.45
995.4702	2690.0961	1481.15	598.55
995.5929	2691.3348	1476.65	592.6
995.7156	2692.5727	1483.5	599.3
995.8383	2693.81	1488.7	606.9
995.961	2695.0466	1475.35	594.3
996.0836	2696.2826	1479.55	593.5
996.2062	2697.5178	1495.1	592.9
996.3287	2698.7524	1480.85	597.9
996.4512	2699.9863	1479.35	592.7
996.5737	2701.2195	1479.75	595.85
996.6961	2702.452	1488.3	603.35
996.8185	2703.6839	1486	601.65
996.9408	2704.9151	1499.4	618.15
997.0631	2706.1456	1499.35	613.75
997.1854	2707.3755	1506.1	624.75
997.3077	2708.6046	1511.3	626.35
997.4299	2709.8331	1522.55	640.15
997.552	2711.0609	1521.15	638
997.6742	2712.2881	1528.65	645.2
997.7963	2713.5145	1540.6	654.35
997.9183	2714.7403	1542.3	661.6
998.0403	2715.9654	1554.55	670.65
998.1623	2717.1899	1584.25	685.15
998.2842	2718.4136	1572.3	690.7
998.4062	2719.6367	1589.25	706.5
998.528	2720.8591	1602.55	712.9
998.6498	2722.0809	1604.1	719.2
998.7716	2723.3019	1622.1	735.05
998.8934	2724.5223	1628.95	744.45
999.0151	2725.7421	1633.9	748.4
999.1368	2726.9611	1635.7	749.6
999.2584	2728.1795	1635.1	747.8
999.38	2729.3972	1625.4	742.4
999.5016	2730.6142	1629.5	733.25
999.6231	2731.8306	1603.7	720.9
999.7446	2733.0462	1588.6	703.7
999.8661	2734.2612	1577.85	689.65
999.9875	2735.4756	1556.45	672.5
1000.1089	2736.6892	1538.8	655.5
1000.2302	2737.9022	1516.55	634.4
1000.3515	2739.1145	1511.8	628.05
1000.4728	2740.3262	1514.45	622.8
1000.594	2741.5372	1486.65	604.9
1000.7152	2742.7475	1479	593.65
1000.8363	2743.9571	1468.85	585.2
1000.9575	2745.1661	1459.75	572.45
1001.0785	2746.3744	1448.2	562.7
1001.1996	2747.582	1440.9	556.9
1001.3206	2748.7889	1436.15	551.1
1001.4415	2749.9952	1419.7	535.45
1001.5625	2751.2008	1424.7	539.7
1001.6833	2752.4057	1416.7	529.35
1001.8042	2753.61	1415.75	530
1001.925	2754.8136	1415.4	530.5
1002.0458	2756.0165	1411.9	529.05
1002.1665	2757.2188	1406.9	524.35
1002.2872	2758.4204	1413.85	531.45
1002.4078	2759.6213	1406.7	519.85
1002.5285	2760.8215	1413.45	526.1
1002.649	2762.0211	1419.25	534.45
1002.7696	2763.22	1407.5	522.85
1002.8901	2764.4182	1407.5	520.05
1003.0106	2765.6158	1399.1	514.7
1003.131	2766.8127	1403.65	521.3
1003.2514	2768.009	1394.15	511.5
1003.3717	2769.2045	1392.45	508.25
1003.492	2770.3994	1394.1	507.4
1003.6123	2771.5936	1388.4	502.9
1003.7325	2772.7872	1380.15	496.85
1003.8527	2773.9801	1384.55	498.85
1003.9729	2775.1723	1394.05	493.55
1004.093	2776.3639	1378.45	494.35
1004.2131	2777.5548	1382.2	496.55
1004.3331	2778.745	1376.05	490.85
1004.4531	2779.9346	1380	498.05
1004.5731	2781.1235	1375.5	491.05
1004.693	2782.3117	1384.55	501.65
1004.8129	2783.4992	1384.9	502
1004.9328	2784.6861	1383.9	500.15
1005.0526	2785.8723	1393.05	505.85
1005.1723	2787.0579	1401.4	517.9
1005.2921	2788.2428	1394.55	510.8
1005.4118	2789.427	1411.75	527.65
1005.5314	2790.6106	1423.1	539.95
1005.651	2791.7935	1423.35	539.05
1005.7706	2792.9757	1430.65	547.85
1005.8902	2794.1573	1441.05	556.35
1006.0097	2795.3382	1454.7	570.7
1006.1291	2796.5184	1461.8	580.65
1006.2485	2797.698	1476.45	590.55
1006.3679	2798.8769	1495.65	612.3
1006.4873	2800.0551	1507.05	622.45
1006.6066	2801.2327	1525.5	637.2
1006.7258	2802.4096	1532.8	647.75
1006.8451	2803.5859	1553.6	667.4
1006.9642	2804.7615	1578.1	694.95
1007.0834	2805.9364	1586.55	704.55
1007.2025	2807.1106	1613	730.1
1007.3216	2808.2842	1645.95	761.5
1007.4406	2809.4572	1667.95	783.1
1007.5596	2810.6294	1707.1	824.5
1007.6785	2811.801	1739.75	856.95
1007.7975	2812.972	1773.3	889.65
1007.9163	2814.1423	1814.8	931.05
1008.0352	2815.3119	1861.85	979.3
1008.154	2816.4808	1903.9	1020.5
1008.2727	2817.6491	1957.8	1076.05
1008.3914	2818.8167	2012.4	1129.45
1008.5101	2819.9837	2059.15	1170.95
1008.6288	2821.15	2109.4	1226.35
1008.7474	2822.3157	2164.55	1283.75
1008.8659	2823.4807	2218.75	1333.5
1008.9844	2824.645	2274.25	1390.05
1009.1029	2825.8086	2328.55	1446
1009.2214	2826.9716	2368.55	1485.9
1009.3398	2828.134	2418.5	1536.95
1009.4581	2829.2957	2456.85	1574.2
1009.5764	2830.4567	2497.65	1614.1
1009.6947	2831.617	2514.45	1629.45
1009.813	2832.7767	2515.35	1632.15
1009.9312	2833.9358	2530.95	1649.15
1010.0493	2835.0941	2523.9	1637.7
1010.1675	2836.2519	2518.55	1636.7
1010.2855	2837.4089	2500	1615.75
1010.4036	2838.5653	2486.6	1603.75
1010.5216	2839.7211	2470.85	1588
1010.6396	2840.8761	2478.45	1591.95
1010.7575	2842.0306	2488.6	1605.85
1010.8754	2843.1843	2514.55	1630.45
1010.9932	2844.3374	2539.1	1656.2
1011.111	2845.4899	2600.35	1715.85
1011.2288	2846.6417	2647.15	1765.2
1011.3465	2847.7928	2716	1833.7
1011.4642	2848.9433	2789.3	1906.55
1011.5818	2850.0931	2848.1	1965.55
1011.6995	2851.2422	2914.85	2028.7
1011.817	2852.3907	2972.35	2089.15
1011.9345	2853.5385	3040.4	2157.2
1012.052	2854.6857	3123.2	2213.65
1012.1695	2855.8323	3145.85	2263.9
1012.2869	2856.9781	3195.15	2309.95
1012.4042	2858.1233	3246.45	2364.85
1012.5216	2859.2679	3297.55	2414.2
1012.6389	2860.4118	3340.55	2459.75
1012.7561	2861.555	3403.1	2514.6
1012.8733	2862.6976	3427.2	2541.25
1012.9905	2863.8395	3466.35	2585.85
1013.1076	2864.9808	3502.7	2619.35
1013.2247	2866.1214	3507.95	2625.85
1013.3417	2867.2614	3531.15	2645.7
1013.4587	2868.4007	3556.5	2672.2
1013.5757	2869.5393	3580.7	2694.75
1013.6926	2870.6773	3580.95	2694.75
1013.8095	2871.8146	3589.25	2703.3
1013.9263	2872.9513	3607.55	2722.25
1014.0431	2874.0874	3588.2	2704.65
1014.1599	2875.2227	3579.55	2694.4
1014.2766	2876.3574	3562.55	2677.9
1014.3933	2877.4915	3544.35	2660.35
1014.51	2878.6249	3498.35	2616.6
1014.6266	2879.7577	3481.25	2596.8
1014.7431	2880.8898	3467.75	2572.75
1014.8596	2882.0212	3444.75	2560.65
1014.9761	2883.152	3445.7	2562.55
1015.0925	2884.2821	3414.05	2532.35
1015.2089	2885.4116	3418.95	2535.85
1015.3253	2886.5405	3416.5	2531.2
1015.4416	2887.6686	3422.85	2536.5
1015.5579	2888.7962	3411.3	2530.25
1015.6741	2889.923	3427.4	2544.8
1015.7903	2891.0493	3451.55	2568.9
1015.9065	2892.1748	3437.95	2554.05
1016.0226	2893.2997	3465	2582.35
1016.1387	2894.424	3475.95	2594.4
1016.2547	2895.5476	3494.7	2610.2
1016.3707	2896.6706	3541.1	2660.9
1016.4866	2897.7929	3540.1	2656.8
1016.6025	2898.9145	3572.45	2690.4
1016.7184	2900.0355	3588.85	2703.1
1016.8342	2901.1559	3629.9	2746.7
1016.95	2902.2756	3666.45	2784.35
1017.0658	2903.3946	3701.65	2818.1
1017.1815	2904.513	3717.7	2833.3
1017.2971	2905.6308	3740.9	2858.25
1017.4127	2906.7479	3760.65	2875.9
1017.5283	2907.8643	3789.45	2905
1017.6439	2908.9801	3812.85	2928.1
1017.7594	2910.0953	3804.2	2920.8
1017.8748	2911.2098	3821.1	2934.65
1017.9902	2912.3236	3815.05	2923.9
1018.1056	2913.4368	3795.6	2908.75
1018.2209	2914.5494	3784.3	2900.45
1018.3362	2915.6613	3751.85	2862.85
1018.4515	2916.7725	3720.4	2833.95
1018.5667	2917.8831	3699.55	2815.65
1018.6819	2918.9931	3672.65	2785.55
1018.797	2920.1024	3636.85	2751.75
1018.9121	2921.211	3604.05	2721.9
1019.0271	2922.319	3589.85	2703.3
1019.1421	2923.4264	3586.25	2703.65
1019.2571	2924.5331	3581.8	2701.15
1019.372	2925.6391	3570.85	2687.05
1019.4869	2926.7445	3568.45	2686.85
1019.6017	2927.8493	3556.15	2672.6
1019.7165	2928.9534	3555.85	2672.15
1019.8313	2930.0569	3567.4	2679.7
1019.946	2931.1597	3557.7	2672.45
1020.0606	2932.2619	3546.35	2661.9
1020.1753	2933.3634	3555	2674.2
1020.2899	2934.4643	3556.4	2665.7
1020.4044	2935.5645	3544.1	2655.9
1020.5189	2936.6641	3512.55	2624.7
1020.6334	2937.763	3482.85	2600.75
1020.7478	2938.8613	3438.05	2554.7
1020.8622	2939.959	3413.15	2525.55
1020.9765	2941.056	3327.1	2443.95
1021.0908	2942.1523	3254.45	2369.45
1021.2051	2943.248	3179.4	2295.2
1021.3193	2944.3431	3081.2	2198.5
1021.4334	2945.4375	2983.15	2099
1021.5476	2946.5313	2880.4	1999
1021.6617	2947.6244	2790.55	1904.85
1021.7757	2948.7169	2702.55	1816.9
1021.8897	2949.8087	2588.85	1706.7
1022.0037	2950.8999	2511.55	1627.2
1022.1176	2951.9904	2423.55	1538.2
1022.2315	2953.0803	2360.5	1477.4
1022.3453	2954.1696	2288.65	1405.5
1022.4591	2955.2582	2240.5	1359.1
1022.5728	2956.3462	2185.85	1302.65
1022.6865	2957.4335	2157.3	1272.1
1022.8002	2958.5202	2117.85	1233.35
1022.9138	2959.6062	2089.8	1208.85
1023.0274	2960.6916	2059.8	1176.95
1023.141	2961.7764	2044.9	1159.85
1023.2545	2962.8605	2027.4	1145.35
1023.3679	2963.9439	2013	1129.45
1023.4813	2965.0267	2009.1	1124.3
1023.5947	2966.1089	2021.6	1114
1023.708	2967.1905	1987.25	1104.1
1023.8213	2968.2714	1999.15	1116.25
1023.9346	2969.3516	1992.6	1109
1024.0478	2970.4312	1995.6	1103.65
1024.1609	2971.5102	1995.6	1113.3
1024.274	2972.5885	1994.6	1112.05
1024.3871	2973.6662	2008.45	1120.7
1024.5002	2974.7432	1997.6	1116.05
1024.6132	2975.8196	1988.2	1104.25
1024.7261	2976.8954	1986.1	1103.2
1024.839	2977.9705	1968.95	1086.25
1024.9519	2979.045	1970.7	1089.45
1025.0647	2980.1188	1947.45	1065.8
1025.1775	2981.192	1934.2	1052.95
1025.2902	2982.2645	1913	1026.75
1025.4029	2983.3364	1894.5	1011.5
1025.5156	2984.4077	1862.4	978.75
1025.6282	2985.4783	1848.8	959.8
1025.7407	2986.5483	1804.8	921.25
1025.8532	2987.6177	1766.2	883.8
1025.9657	2988.6864	1737.65	854.95
1026.0782	2989.7545	1709.5	824.05
1026.1906	2990.8219	1666.65	782.95
1026.3029	2991.8887	1643.6	759.7
1026.4152	2992.9548	1611.9	728.9
1026.5275	2994.0204	1576.4	694.05
1026.6397	2995.0852	1552.2	668.65
1026.7519	2996.1495	1524.35	640.3
1026.864	2997.2131	1496.6	613.6
1026.9761	2998.276	1471.85	588.7
1027.0882	2999.3383	1451.9	567.45
1027.2002	3000.4	1433	547.55
1027.3122	3001.4611	1420.75	538.9
1027.4241	3002.5215	1400.3	515.95
1027.536	3003.5812	1386.7	504.25
1027.6478	3004.6404	1373	491.6
1027.7596	3005.6989	1360.45	475.45
1027.8714	3006.7567	1350.7	467.5
1027.9831	3007.8139	1371.85	461.95
1028.0947	3008.8705	1335.8	452.75
1028.2064	3009.9264	1348.75	449.65
1028.3179	3010.9818	1324.35	442.55
1028.4295	3012.0364	1312.4	427.9
1028.541	3013.0905	1309.05	426.8
1028.6524	3014.1439	1307.3	423.15
1028.7638	3015.1966	1303.15	420.85
1028.8752	3016.2487	1294.5	412.9
1028.9865	3017.3002	1301.05	411.95
1029.0978	3018.3511	1285.45	404.65
1029.209	3019.4013	1295.15	413.95
1029.3202	3020.4509	1293.3	411.65
1029.4314	3021.4998	1293.9	410
1029.5425	3022.5481	1286.55	403.45
1029.6535	3023.5958	1290.75	407.9
1029.7645	3024.6428	1289.25	404.05
1029.8755	3025.6892	1288.2	406.55
1029.9864	3026.735	1295.6	412.15
1030.0973	3027.7802	1287.7	404.8
1030.2082	3028.8247	1293.55	411.7
1030.319	3029.8685	1291.5	409.35
1030.4297	3030.9118	1288.9	405.2
1030.5404	3031.9544	1302.4	420.2
1030.6511	3032.9963	1296.6	412.6
1030.7617	3034.0376	1299.95	417.05
1030.8723	3035.0783	1310.45	424.9
1030.9829	3036.1184	1307.5	424.55
1031.0934	3037.1578	1309.1	426.55
1031.2038	3038.1966	1312.8	428.35
1031.3142	3039.2348	1312.85	429.05
1031.4246	3040.2723	1317.8	424.95
1031.5349	3041.3092	1318	436.9
1031.6452	3042.3455	1319.4	436.15
1031.7554	3043.3811	1307.45	423.45
1031.8656	3044.4161	1311.65	426.3
1031.9758	3045.4505	1307.5	426.1
1032.0859	3046.4842	1304.85	420.35
1032.1959	3047.5173	1298.45	415.55
1032.3059	3048.5498	1297.1	413.2
1032.4159	3049.5816	1296.4	412.15
1032.5258	3050.6128	1290.3	405.25
1032.6357	3051.6434	1286.2	400.95
1032.7455	3052.6734	1279.1	393.75
1032.8553	3053.7027	1270.35	388.6
1032.9651	3054.7314	1271.25	388
1033.0748	3055.7594	1263.65	381.2
1033.1845	3056.7868	1258.2	374.5
1033.2941	3057.8136	1263.8	381.9
1033.4037	3058.8398	1252.65	372.1
1033.5132	3059.8653	1253.75	370.85
1033.6227	3060.8902	1243.05	361.45
1033.7321	3061.9145	1247.15	363.4
1033.8415	3062.9381	1243.15	359.3
1033.9509	3063.9612	1251.6	352.45
1034.0602	3064.9835	1234.45	350.6
1034.1694	3066.0053	1238.3	354.65
1034.2787	3067.0264	1228.2	343.85
1034.3878	3068.0469	1225.9	340.55
1034.497	3069.0668	1214.75	329.2
1034.6061	3070.086	1210.85	329.05
1034.7151	3071.1046	1203.5	317.05
1034.8241	3072.1226	1194.55	312.7
1034.9331	3073.1399	1183.5	300.1
1035.042	3074.1567	1179.7	297.3
1035.1508	3075.1727	1172.6	286.55
1035.2597	3076.1882	1162.5	280.1
1035.3684	3077.203	1159.5	274.25
1035.4772	3078.2173	1155.45	270.45
1035.5859	3079.2308	1145.7	260.2
1035.6945	3080.2438	1139.05	252.9
1035.8031	3081.2561	1132.3	248.4
1035.9117	3082.2678	1125.5	243.65
1036.0202	3083.2789	1122.75	238.75
1036.1286	3084.2893	1117.65	237.35
1036.2371	3085.2991	1106.05	221.55
1036.3454	3086.3083	1105.6	219.1
1036.4538	3087.3169	1100.75	217.4
1036.562	3088.3248	1096.85	211.45
1036.6703	3089.3321	1089.3	205.35
1036.7785	3090.3388	1081.15	199.65
1036.8866	3091.3449	1081.15	198.8
1036.9948	3092.3503	1080.85	194.9
1037.1028	3093.3551	1073.6	191.5
1037.2108	3094.3593	1074.1	194.4
1037.3188	3095.3629	1065.15	181.8
1037.4267	3096.3658	1069.7	186.45
1037.5346	3097.3681	1065.65	183.9
1037.6425	3098.3698	1065.75	183.15
1037.7503	3099.3708	1063.2	171.85
1037.858	3100.3713	1054.6	170.6
1037.9657	3101.3711	1055.25	171.1
1038.0734	3102.3702	1192.35	172.3
1038.181	3103.3688	1048.55	164.05
1038.2886	3104.3667	1046.6	165.15
1038.3961	3105.364	1045.55	163.55
1038.5036	3106.3607	1046.2	163.85
1038.611	3107.3568	1043.55	160.5
1038.7184	3108.3522	1038.05	154.15
1038.8257	3109.347	1038.95	156.75
1038.933	3110.3412	1039.4	152.85
1039.0403	3111.3348	1033.6	152.55
1039.1475	3112.3277	1033.95	152.6
1039.2547	3113.32	1030	149.5
1039.3618	3114.3117	1030.8	147.6
1039.4689	3115.3028	1026.8	144.8
1039.5759	3116.2932	1029.85	145.35
1039.6829	3117.2831	1028.35	142.3
1039.7898	3118.2723	1020.4	139.3
1039.8967	3119.2608	1023	139.9
1040.0035	3120.2488	1019.15	134.15
1040.1103	3121.2361	1019.65	134.15
1040.2171	3122.2229	1018.95	137.05
1040.3238	3123.209	1015.3	130.15
1040.4305	3124.1944	1011.05	131
1040.5371	3125.1793	1014.15	131.05
1040.6437	3126.1635	1014.6	132.85
1040.7502	3127.1471	1013.8	132.45
1040.8567	3128.1301	1008.9	126.5
1040.9631	3129.1125	1009.15	124.4
1041.0695	3130.0942	1006.85	124.55
1041.1759	3131.0753	1018.7	126.4
1041.2822	3132.0558	1008.35	123.6
1041.3884	3133.0357	1006.55	122.2
1041.4946	3134.015	1002.45	119.85
1041.6008	3134.9936	1005.3	123.3
1041.7069	3135.9716	1021.8	119.4
1041.813	3136.949	999.8	117.5
1041.919	3137.9258	1015.65	114.3
1042.025	3138.902	1005.15	116.5
1042.1309	3139.8775	997.15	117.45
1042.2368	3140.8524	996.65	112.9
1042.3427	3141.8267	998.3	114.65
1042.4485	3142.8004	990.45	105.95
1042.5542	3143.7735	997.2	106.9
1042.6599	3144.7459	993.15	109.2
1042.7656	3145.7178	989.95	108.25
1042.8712	3146.689	989.5	108.6
1042.9768	3147.6596	991	106.05
1043.0823	3148.6295	991.2	108.95
1043.1878	3149.5989	990.35	108.3
1043.2932	3150.5676	988	106.25
1043.3986	3151.5357	985.5	102.25
1043.5039	3152.5032	983.85	101.15
1043.6092	3153.4701	988.6	105.15
1043.7145	3154.4364	988	102.5
1043.8197	3155.402	980.25	98.9
1043.9248	3156.367	985.05	99.15
1044.03	3157.3315	1009.6	95.75
1044.135	3158.2952	983.15	99.5
1044.24	3159.2584	978.05	97.65
1044.345	3160.221	980.65	96.5
1044.4499	3161.1829	980.2	97.15
1044.5548	3162.1442	978.9	97.85
1044.6596	3163.105	977.45	92.7
1044.7644	3164.065	976.15	92.85
1044.8692	3165.0245	980.65	94.35
1044.9739	3165.9834	970.1	88.1
1045.0785	3166.9416	974.65	92.5
1045.1831	3167.8993	974.4	89.85
1045.2877	3168.8563	974.3	89.7
1045.3922	3169.8127	968.65	85.5
1045.4966	3170.7684	972.95	90.45
1045.6011	3171.7236	972	89.35
1045.7054	3172.6782	971.9	86.75
1045.8098	3173.6321	971.55	89.85
1045.914	3174.5854	975.1	87.55
1046.0183	3175.5381	968.6	84
1046.1224	3176.4902	970.45	88.25
1046.2266	3177.4417	966.8	87.3
1046.3307	3178.3926	969.8	86.35
1046.4347	3179.3428	968.2	87.8
1046.5387	3180.2924	967.5	84.1
1046.6427	3181.2415	966.2	83.95
1046.7466	3182.1899	966	82.1
1046.8504	3183.1377	963.65	83.3
1046.9542	3184.0848	969.5	85.4
1047.058	3185.0314	963.05	79.7
1047.1617	3185.9773	962.3	77.7
1047.2654	3186.9227	965.3	78.9
1047.369	3187.8674	962.1	79.4
1047.4726	3188.8115	970.65	85.35
1047.5761	3189.755	960.4	75.8
1047.6796	3190.6979	963.65	80.6
1047.783	3191.6402	960	77.55
1047.8864	3192.5818	959.45	76.15
1047.9898	3193.5229	980.45	75.4
1048.0931	3194.4633	957.35	74.85
1048.1963	3195.4031	963.35	80.4
1048.2995	3196.3423	955.8	72.2
1048.4027	3197.2809	959.8	75.6
1048.5058	3198.2189	956.85	75.3
1048.6089	3199.1563	972.85	71.4
1048.7119	3200.0931	956.05	73.15
1048.8148	3201.0292	952.75	71.4
1048.9178	3201.9648	956.9	74.3
1049.0206	3202.8997	957	70.1
1049.1235	3203.834	955.55	74.1
1049.2262	3204.7677	958.4	76.45
1049.329	3205.7008	955.35	71.65
1049.4317	3206.6333	956.75	76.75
1049.5343	3207.5652	958.1	74.95
1049.6369	3208.4964	953.6	70.2
1049.7394	3209.4271	954.4	70.8
1049.8419	3210.3571	951.3	68.6
1049.9444	3211.2865	952.55	69
1050.0468	3212.2154	950.8	68.7
1050.1491	3213.1436	953.15	69.8
1050.2514	3214.0712	955	65.75
1050.3537	3214.9982	950.25	67.7
1050.4559	3215.9246	948.5	64.25
1050.5581	3216.8503	951.2	69.3
1050.6602	3217.7755	949.4	65.45
1050.7623	3218.7001	946.8	65.1
1050.8643	3219.624	947.5	65.65
1050.9663	3220.5473	947.1	66.1
1051.0682	3221.4701	950.65	67.75
1051.1701	3222.3922	948.4	64.45
1051.2719	3223.3137	947.6	66.05
1051.3737	3224.2346	945.3	63.4
1051.4754	3225.1549	944.4	60.45
1051.5771	3226.0746	943.95	61.75
1051.6788	3226.9937	949	65.5
1051.7804	3227.9121	945.8	63.65
1051.8819	3228.83	945.2	64.15
1051.9834	3229.7473	943.6	59.8
1052.0849	3230.6639	945.15	62.3
1052.1863	3231.5799	944.7	62
1052.2876	3232.4954	945.15	61.65
1052.3889	3233.4102	941.2	58.3
1052.4902	3234.3244	943.95	61.35
1052.5914	3235.238	943.5	61.95
1052.6926	3236.151	965.1	58.35
1052.7937	3237.0634	940	58.15
1052.8948	3237.9752	941.35	59.65
1052.9958	3238.8864	942.95	61.2
1053.0968	3239.797	942.95	62.05
1053.1977	3240.7069	939.65	56.95
1053.2986	3241.6163	941.35	57.35
1053.3994	3242.5251	938.75	57.9
1053.5002	3243.4332	938.5	56
1053.6009	3244.3408	938.8	56.45
1053.7016	3245.2477	938.05	55.1
1053.8022	3246.154	941.05	58.2
1053.9028	3247.0598	940.15	56.35
1054.0034	3247.9649	935.2	53.3
1054.1039	3248.8694	936.8	55.9
1054.2043	3249.7733	935.8	55.35
1054.3047	3250.6766	936.45	53.5
1054.4051	3251.5793	936.5	52.45
1054.5054	3252.4814	933.95	52.85
1054.6056	3253.3829	934.15	51.6
1054.7058	3254.2838	932.75	50.35
1054.806	3255.1841	933.3	49.35
1054.9061	3256.0838	931.7	48.25
1055.0061	3256.9829	930.25	48.85
1055.1062	3257.8814	933.25	48.6
1055.2061	3258.7792	934.75	50.75
1055.306	3259.6765	930.6	48.4
1055.4059	3260.5731	929.75	45.95
1055.5057	3261.4692	929.35	44.25
1055.6055	3262.3647	929.25	46
1055.7052	3263.2595	927.6	45.4
1055.8049	3264.1538	925.25	43
1055.9045	3265.0474	929.65	45.95
1056.0041	3265.9404	924.6	41.85
1056.1036	3266.8329	924.75	44.35
1056.2031	3267.7247	935.95	44.9
1056.3025	3268.616	920.45	38.7
1056.4019	3269.5066	924.1	39.4
1056.5013	3270.3966	922.65	37.75
1056.6005	3271.286	918.55	35.45
