Software Version:	3.9.2.0
Unit SN:	10000200
Spectrometer SN:	6960
Date:	3/14/2024 1:28:27 PM
Data Line Index:	25
Spectral Points:	2048
Integration time (ms):	125
Averages:	20
Delay (ms):	30000
Sequence Number:	1
Processing:	dark subtract
Laser Power (mW):	300
Laser Current (mA):	825
Laser Diode Temp (C):	25
Laser Case Temp (C):	28.5
System Temp (C):	28.5
Spectrometer Temp (C):	26.2
CCD Temp (C):	0.002
Secondary Temp (C):	20.008
Heatsink Temp (C):	24.377
CCDPCB Temp (C):	37.752
SecondaryPCB Temp (C):	35.595

Wavelength	RamanShift	Raw Counts	Dark Subtracted
787.061	30.1047	463.9	51.25
787.2016	32.3739	469.2	59.7
787.3422	34.6426	472.85	60.85
787.4828	36.9109	479.6	65.05
787.6235	39.1787	493.3	75.5
787.7642	41.4461	500.65	77.25
787.9049	43.7131	509.4	83.75
788.0456	45.9796	519	90.9
788.1863	48.2456	529.6	97.65
788.3271	50.5112	542	106.85
788.4679	52.7764	547.95	110.45
788.6087	55.0411	560.9	118.6
788.7496	57.3054	572.8	125.5
788.8904	59.5692	583.1	133.45
789.0313	61.8326	600.95	147.45
789.1722	64.0955	612.65	154.3
789.3132	66.3579	630.45	166.8
789.4541	68.6199	650.5	184.65
789.5951	70.8815	689.15	222.2
789.7361	73.1426	779.45	306.5
789.8771	75.4032	999.15	521.6
790.0181	77.6634	1555.4	1071.2
790.1592	79.9231	2848.1	2358.25
790.3003	82.1824	5711.05	5210.65
790.4414	84.4412	10959.55	10438.65
790.5825	86.6995	18279.85	17733.05
790.7237	88.9574	25518.9	24952.15
790.8648	91.2148	30521.7	29934.8
791.006	93.4717	32929.55	32325.15
791.1472	95.7282	33375.55	32769.95
791.2885	97.9842	33254.7	32648.7
791.4297	100.2398	32551.3	31940.95
791.571	102.4949	31808.15	31197.65
791.7123	104.7495	30885.85	30269.1
791.8536	107.0036	30019.1	29401.65
791.9949	109.2573	29225.1	28610
792.1363	111.5105	28493.75	27877.55
792.2777	113.7632	27822.4	27203.5
792.4191	116.0154	27321.1	26690.2
792.5605	118.2672	26984.5	26359.4
792.7019	120.5185	26619.3	25993
792.8434	122.7693	26339.25	25713.9
792.9849	125.0197	26094.6	25461.95
793.1264	127.2696	25858.3	25226.6
793.2679	129.519	25709.7	25071.1
793.4094	131.7679	25406.65	24767.2
793.551	134.0163	25195.1	24550
793.6926	136.2642	24851.6	24204.35
793.8342	138.5117	24506.65	23855.15
793.9758	140.7587	24148.05	23500.5
794.1175	143.0052	23856.25	23204.4
794.2591	145.2512	23496.35	22846.45
794.4008	147.4967	23180.45	22528.8
794.5425	149.7417	22957.05	22302.5
794.6842	151.9863	22798.15	22143.5
794.826	154.2304	22695.65	22034
794.9677	156.4739	22513.75	21844.25
795.1095	158.717	22400	21734.05
795.2513	160.9596	22222.3	21552.4
795.3931	163.2017	21938.45	21267.1
795.535	165.4433	21671.5	20998.7
795.6768	167.6844	21387.05	20709.4
795.8187	169.925	21090.7	20412.6
795.9606	172.1651	20713.4	20028.7
796.1025	174.4047	20436.85	19751.55
796.2445	176.6439	20192.2	19505.65
796.3864	178.8825	19966.05	19275.75
796.5284	181.1206	19819.55	19128.55
796.6704	183.3582	19705.5	19008.9
796.8124	185.5954	19610.7	18914.5
796.9544	187.832	19512.15	18808.4
797.0965	190.0681	19494.1	18789.25
797.2386	192.3037	19505.75	18803.25
797.3806	194.5388	19479.05	18769.85
797.5228	196.7734	19509.45	18794.35
797.6649	199.0075	19587.25	18869.9
797.807	201.2411	19714.25	18996.6
797.9492	203.4742	19772	19052
798.0914	205.7068	19956.35	19240.15
798.2336	207.9389	20028.35	19310.45
798.3758	210.1704	20156.55	19436.15
798.518	212.4015	20288.3	19561.85
798.6603	214.632	20456.35	19732.15
798.8025	216.862	20582.25	19865.1
798.9448	219.0915	20635.75	19924.45
799.0871	221.3205	20743.6	20034.85
799.2294	223.549	20843.15	20140
799.3718	225.777	20949.75	20246.6
799.5141	228.0044	21061.7	20355.5
799.6565	230.2314	21220.05	20519.75
799.7989	232.4578	21303.1	20600.95
799.9413	234.6837	21391.6	20680.95
800.0837	236.909	21517.15	20806.7
800.2262	239.1339	21485	20749.7
800.3687	241.3582	21426.65	20705.7
800.5111	243.582	21272.45	20527.35
800.6536	245.8053	21207.9	20467.45
800.7961	248.0281	21168.75	20430.65
800.9387	250.2503	21118.45	20376.35
801.0812	252.472	21164	20423.2
801.2238	254.6932	21281.9	20535.15
801.3664	256.9139	21381.15	20635.25
801.509	259.134	21563.85	20810.85
801.6516	261.3536	21738	20987.6
801.7942	263.5727	22008.15	21253.5
801.9369	265.7912	22245.25	21493.1
802.0795	268.0092	22527.7	21777.95
802.2222	270.2267	22655.65	21905.75
802.3649	272.4436	22794	22038
802.5076	274.6601	22842.2	22076.75
802.6504	276.8759	22704.05	21948.8
802.7931	279.0913	22611.3	21855.25
802.9359	281.3061	22498.15	21737.1
803.0787	283.5204	22432.5	21672.4
803.2215	285.7341	22403.05	21637.75
803.3643	287.9473	22459.25	21684
803.5071	290.16	22484.2	21711
803.6499	292.3721	22582.55	21813.55
803.7928	294.5837	22807.25	22041.55
803.9357	296.7947	22970.25	22205.55
804.0786	299.0052	23139.6	22373.6
804.2215	301.2152	23089.3	22319
804.3644	303.4246	22936.05	22168.4
804.5074	305.6334	22564.85	21798.65
804.6503	307.8418	22121.35	21351.65
804.7933	310.0495	21697.45	20926.75
804.9363	312.2568	21292.15	20520.85
805.0793	314.4635	20844.65	20072.75
805.2223	316.6696	20576.6	19803.8
805.3653	318.8752	20354.7	19575.1
805.5084	321.0802	20268.95	19493.8
805.6514	323.2847	20230.9	19454.4
805.7945	325.4887	20280.35	19505.6
805.9376	327.692	20255.05	19480.4
806.0807	329.8949	20246.75	19468.95
806.2238	332.0972	20054.2	19271.65
806.367	334.2989	19821.6	19040.75
806.5101	336.5001	19568.85	18786.2
806.6533	338.7007	19354.15	18570.7
806.7965	340.9008	19215.3	18431
806.9397	343.1003	19036.55	18247.75
807.0829	345.2992	18892.1	18106.2
807.2261	347.4976	18806.9	18017.25
807.3693	349.6955	18696.05	17903.35
807.5126	351.8927	18699.9	17908.5
807.6559	354.0895	18583.95	17779.85
807.7991	356.2856	18567.2	17773.2
807.9424	358.4812	18484	17691.75
808.0857	360.6763	18513.9	17720.3
808.2291	362.8707	18461	17663.55
808.3724	365.0646	18497.3	17699.6
808.5158	367.258	18514.65	17716.75
808.6591	369.4508	18547.95	17747.45
808.8025	371.643	18691.25	17889.35
808.9459	373.8346	18722.8	17916.8
809.0893	376.0257	18791.8	17985.3
809.2327	378.2162	18778.35	17972.15
809.3762	380.4062	18747.4	17935.45
809.5196	382.5956	18644.05	17832.9
809.6631	384.7844	18543.6	17732.9
809.8066	386.9726	18343.3	17525.2
809.9501	389.1603	18278.95	17462.05
810.0936	391.3474	18216.3	17367.95
810.2371	393.5339	18154	17339.2
810.3806	395.7199	18076.7	17269.8
810.5241	397.9052	18106	17303.9
810.6677	400.09	18162	17357.7
810.8113	402.2743	18297.8	17494.45
810.9548	404.4579	18412.9	17610.75
811.0984	406.641	18627.45	17825.4
811.2421	408.8235	18791.3	17989.8
811.3857	411.0054	18927.45	18125
811.5293	413.1868	19112.4	18305.3
811.673	415.3675	19157.75	18350.8
811.8166	417.5477	19168.2	18358.95
811.9603	419.7273	19090.45	18282.5
812.104	421.9064	18982.25	18163.05
812.2477	424.0848	18915.55	18099.75
812.3914	426.2627	18743.6	17928
812.5351	428.4399	18493.15	17671.4
812.6788	430.6166	18127.4	17301.9
812.8226	432.7928	17830.75	17005.3
812.9663	434.9683	17511.95	16688.8
813.1101	437.1432	17235.8	16408.7
813.2539	439.3176	17045.95	16222.65
813.3977	441.4914	16929.85	16105.25
813.5415	443.6645	16909.9	16080.25
813.6853	445.8371	16822.5	15995.65
813.8291	448.0091	16737.05	15909.05
813.973	450.1806	16692.7	15868.8
814.1168	452.3514	16658.4	15829.85
814.2607	454.5216	16693.7	15857.1
814.4046	456.6913	16612.2	15780
814.5485	458.8603	16656.35	15828.1
814.6924	461.0288	16708.55	15878.95
814.8363	463.1967	16679.2	15847.8
814.9802	465.3639	16698.3	15867.85
815.1241	467.5306	16669.1	15837.75
815.2681	469.6967	16677.85	15847.05
815.412	471.8622	16679.9	15848
815.556	474.0271	16723.9	15895.4
815.7	476.1914	16717.9	15883.35
815.844	478.3551	16742.15	15906.25
815.988	480.5182	16783.35	15948.85
816.132	482.6807	16829.7	15992.75
816.276	484.8426	17038.65	16205.3
816.4201	487.0039	17335.05	16500.7
816.5641	489.1647	17675.55	16839.2
816.7082	491.3248	18035.65	17201.6
816.8522	493.4843	18103.05	17268.75
816.9963	495.6432	18032.95	17199.6
817.1404	497.8015	17879	17039
817.2845	499.9592	17786.8	16948.15
817.4286	502.1163	17522.7	16686.15
817.5727	504.2728	17236.6	16398.4
817.7168	506.4287	16945.4	16104.65
817.861	508.5839	16617.15	15778.15
818.0051	510.7386	16419.25	15582.45
818.1493	512.8927	16330.3	15483
818.2935	515.0461	16296.2	15457.25
818.4377	517.199	16321.95	15481.15
818.5818	519.3512	16480	15640.6
818.726	521.5029	16709.5	15861.25
818.8703	523.6539	16965.7	16121.25
819.0145	525.8043	17051.3	16208.75
819.1587	527.9541	16984.3	16140.1
819.303	530.1033	16783.2	15938.9
819.4472	532.2519	16624.9	15781.65
819.5915	534.3999	16523.95	15674.25
819.7357	536.5472	16616	15768.55
819.88	538.694	16779.5	15933.9
820.0243	540.8401	17084.75	16235.4
820.1686	542.9856	17265.55	16419.8
820.3129	545.1305	17304.25	16454.1
820.4572	547.2748	17203.4	16355.3
820.6016	549.4185	17022.95	16174.8
820.7459	551.5615	16843.35	15994.65
820.8902	553.704	16831.45	15985.7
821.0346	555.8458	16836.8	15987.85
821.1789	557.987	17015.55	16166.85
821.3233	560.1276	17216.7	16367.65
821.4677	562.2675	17560.25	16713.4
821.6121	564.4069	18060.4	17208.6
821.7565	566.5456	18475.45	17626.35
821.9009	568.6837	18591.15	17743.65
822.0453	570.8212	18221.1	17372.35
822.1897	572.958	17521.95	16674.85
822.3342	575.0942	16886.8	16039.55
822.4786	577.2299	16443.9	15595.15
822.6231	579.3648	16249.05	15402.4
822.7675	581.4992	16158.15	15308.6
822.912	583.6329	16243.2	15394.65
823.0565	585.766	16376.4	15527.3
823.201	587.8985	16499	15645.6
823.3454	590.0304	16530.3	15653.3
823.4899	592.1616	16477.25	15624.9
823.6345	594.2922	16331.45	15480.6
823.779	596.4222	16134	15280.6
823.9235	598.5515	15919	15065.85
824.068	600.6802	15740.65	14890.55
824.2126	602.8083	15519.85	14665.75
824.3571	604.9358	15516.25	14664.45
824.5017	607.0626	15518.3	14664.45
824.6462	609.1888	15578.7	14724.75
824.7908	611.3144	15709.65	14856.1
824.9354	613.4393	15821	14966.85
825.08	615.5636	15931.95	15076.4
825.2246	617.6873	15930.7	15077.1
825.3692	619.8103	15857.25	15000.55
825.5138	621.9327	15697	14839.95
825.6584	624.0544	15436.55	14577.95
825.803	626.1756	15264.3	14408.75
825.9477	628.2961	15117.3	14259.8
826.0923	630.4159	15012.3	14155.1
826.237	632.5351	14982.25	14127.05
826.3816	634.6537	14919.05	14061.35
826.5263	636.7716	14905.5	14045.15
826.6709	638.8889	14939.85	14083.9
826.8156	641.0056	14958.25	14097.4
826.9603	643.1216	14925	14065.4
827.105	645.237	14891.05	14028.65
827.2497	647.3518	14763.4	13904.85
827.3944	649.4659	14702.3	13843.9
827.5391	651.5793	14610.1	13751
827.6838	653.6922	14593	13735.2
827.8285	655.8043	14575.9	13717.4
827.9733	657.9159	14560.65	13701.7
828.118	660.0268	14521.65	13661.3
828.2627	662.137	14506.55	13642.15
828.4075	664.2466	14484.3	13621.95
828.5522	666.3556	14482.35	13620.4
828.697	668.4639	14431.9	13567.2
828.8418	670.5716	14433.2	13571.8
828.9865	672.6786	14361.45	13498.35
829.1313	674.785	14264.35	13403.35
829.2761	676.8907	14235.9	13373.6
829.4209	678.9958	14251.7	13391.85
829.5657	681.1002	14169.45	13302.2
829.7105	683.204	14170.2	13304.1
829.8553	685.3072	14155.15	13291
830.0001	687.4097	14109.25	13245.95
830.1449	689.5115	14082.3	13213
830.2898	691.6127	14092.65	13230.2
830.4346	693.7132	14024.55	13158.5
830.5794	695.8131	14021.45	13140.15
830.7243	697.9123	14034.8	13166.4
830.8691	700.0109	14058.15	13193.1
831.014	702.1089	14087.15	13221.45
831.1588	704.2061	14117.3	13250.5
831.3037	706.3028	14152.6	13284.5
831.4486	708.3987	14183.8	13319.45
831.5935	710.4941	14168.2	13302.4
831.7383	712.5887	14252.1	13384.4
831.8832	714.6827	14318.4	13444.8
832.0281	716.7761	14459.5	13594.05
832.173	718.8688	14620.65	13753.3
832.3179	720.9608	14717.25	13845.3
832.4628	723.0522	14891.75	14018.9
832.6077	725.1429	14910.45	14039.55
832.7527	727.233	14938.45	14070.4
832.8976	729.3224	15000.45	14130.4
833.0425	731.4112	14908	14038.35
833.1874	733.4993	14753.3	13880.25
833.3324	735.5867	14494.65	13624.65
833.4773	737.6735	14265.65	13392.4
833.6222	739.7596	14059.45	13187.05
833.7672	741.845	13918.3	13043.75
833.9122	743.9298	13809.1	12936
834.0571	746.014	13736.05	12867.85
834.2021	748.0974	13725.15	12855.25
834.347	750.1802	13690.35	12821.7
834.492	752.2624	13718.05	12850
834.637	754.3439	13743.85	12870.9
834.782	756.4247	13847.3	12965.7
834.9269	758.5048	13980.85	13109.65
835.0719	760.5843	14260.45	13388.6
835.2169	762.6631	14631.25	13758.35
835.3619	764.7413	15138.5	14269.95
835.5069	766.8188	15858.2	14984.05
835.6519	768.8956	16403.25	15529.65
835.7969	770.9718	16822.85	15951.85
835.9419	773.0473	16735.7	15862.55
836.0869	775.1221	16490.7	15618.65
836.232	777.1962	16191.6	15320.05
836.377	779.2697	16112.95	15240.05
836.522	781.3426	16120.3	15238.4
836.667	783.4147	16240.75	15366.5
836.8121	785.4862	16316.2	15443.4
836.9571	787.557	16136.45	15262.25
837.1021	789.6271	15618.25	14743.9
837.2472	791.6966	15001.6	14127.15
837.3922	793.7654	14384.85	13511.7
837.5373	795.8335	13956.1	13083.2
837.6823	797.901	13637.35	12763.05
837.8274	799.9678	13456.5	12580.4
837.9724	802.0339	13348.9	12475.2
838.1175	804.0993	13302.15	12419.45
838.2626	806.1641	13235.85	12360.35
838.4076	808.2282	13159	12285.15
838.5527	810.2916	13066.25	12190
838.6978	812.3544	12988	12113.7
838.8428	814.4164	12921.95	12050.7
838.9879	816.4778	12967.7	12093.25
839.133	818.5385	12948	12075.15
839.2781	820.5986	13103.35	12229.2
839.4232	822.658	13326.9	12451
839.5682	824.7166	13621.85	12749
839.7133	826.7747	14126.65	13250.3
839.8584	828.832	14634.7	13759.05
840.0035	830.8886	14988.7	14113.4
840.1486	832.9446	15172.35	14297.1
840.2937	834.9999	15034.55	14160.35
840.4388	837.0545	14767.25	13889
840.5839	839.1085	14385.35	13510.15
840.729	841.1618	14065.4	13183.6
840.8741	843.2143	13808.9	12935.85
841.0192	845.2662	13578.8	12702.85
841.1643	847.3175	13458.5	12581.75
841.3095	849.368	13322.25	12445.5
841.4546	851.4179	13210.95	12336.25
841.5997	853.467	13087.45	12211.85
841.7448	855.5155	13017.65	12143.35
841.8899	857.5633	12924.3	12050.25
842.0351	859.6105	12823.95	11947.35
842.1802	861.6569	12729	11852.35
842.3253	863.7027	12662	11783.75
842.4704	865.7478	12594.4	11717.25
842.6156	867.7922	12536.35	11659.5
842.7607	869.8359	12507.5	11631.4
842.9058	871.8789	12546.75	11668.15
843.0509	873.9212	12623.75	11709.7
843.1961	875.9629	12679.45	11801.8
843.3412	878.0039	12766.4	11886.9
843.4863	880.0441	12867.25	11989.15
843.6315	882.0837	12890.15	12011.4
843.7766	884.1226	12948.95	12070.95
843.9218	886.1609	12965.8	12088.6
844.0669	888.1984	13029.55	12152.25
844.212	890.2352	13142.75	12268.25
844.3572	892.2714	13149.3	12268.5
844.5023	894.3069	13107.5	12229.15
844.6475	896.3416	12960	12080.1
844.7926	898.3757	12803.95	11926.6
844.9377	900.4091	12681.6	11802
845.0829	902.4418	12666.9	11782.3
845.228	904.4739	12679.9	11797.95
845.3732	906.5052	12715.15	11838.05
845.5183	908.5358	12696.3	11819.95
845.6635	910.5658	12559	11675.95
845.8086	912.595	12334.45	11454
845.9538	914.6236	12120.2	11241.85
846.0989	916.6515	11968.2	11092.1
846.2441	918.6786	11841.3	10958.45
846.3892	920.7051	11839.55	10958.6
846.5344	922.7309	11867.5	10986.6
846.6795	924.756	11887.85	11009.2
846.8246	926.7804	11965.2	11085.15
846.9698	928.8041	11916.95	11032.45
847.1149	930.8272	11965.8	11086.1
847.2601	932.8495	11929.05	11049.5
847.4052	934.8711	11926.15	11046.2
847.5504	936.892	11856.4	10976.95
847.6955	938.9123	11812.35	10930.5
847.8407	940.9318	11850.05	10971.8
847.9858	942.9506	11822.25	10942.7
848.131	944.9688	11749.05	10867.85
848.2761	946.9862	11648.05	10769.9
848.4213	949.003	11495.5	10614.8
848.5664	951.019	11389.95	10509.75
848.7115	953.0344	11339.85	10459.55
848.8567	955.0491	11309.25	10431.65
849.0018	957.063	11320.9	10439.7
849.147	959.0763	11404.75	10525.85
849.2921	961.0888	11442	10557.6
849.4373	963.1007	11461.95	10580.8
849.5824	965.1119	11450.75	10568
849.7275	967.1223	11454.5	10571.65
849.8727	969.1321	11431.35	10548.25
850.0178	971.1412	11395.9	10514.85
850.1629	973.1495	11358	10479.1
850.3081	975.1572	11410.8	10495.35
850.4532	977.1641	11383.45	10503.85
850.5983	979.1704	11328.1	10445.9
850.7435	981.1759	11301.6	10417.15
850.8886	983.1808	11304	10418.6
851.0337	985.1849	11325.95	10434.35
851.1788	987.1884	11355.85	10471.95
851.324	989.1911	11462.85	10579.2
851.4691	991.1932	11528	10643.45
851.6142	993.1945	11519.65	10639.7
851.7593	995.1951	11486.5	10604.2
851.9045	997.1951	11483.3	10595.8
852.0496	999.1943	11408.35	10526.7
852.1947	1001.1928	11376.95	10494.9
852.3398	1003.1906	11399.85	10519.55
852.4849	1005.1877	11514.3	10628.8
852.63	1007.1841	11601.45	10720.25
852.7751	1009.1798	11589.6	10708.65
852.9202	1011.1748	11520.8	10640.8
853.0653	1013.1691	11365.15	10484.25
853.2104	1015.1627	11144.95	10261.3
853.3555	1017.1556	10925.9	10045.05
853.5006	1019.1477	10799.9	9915.1
853.6457	1021.1392	10664.9	9784.55
853.7908	1023.1299	10632.7	9750.5
853.9359	1025.12	10656.65	9772.15
854.081	1027.1093	10684.6	9803.75
854.2261	1029.0979	10789.3	9907
854.3712	1031.0859	10874.1	9993.8
854.5163	1033.0731	10918.5	10034.25
854.6613	1035.0596	10843.1	9962.6
854.8064	1037.0454	10705	9824.1
854.9515	1039.0304	10610.6	9729.45
855.0965	1041.0148	10479.4	9596.65
855.2416	1042.9985	10368.2	9485.9
855.3867	1044.9814	10312.6	9431.9
855.5317	1046.9636	10252.7	9367.25
855.6768	1048.9452	10216.25	9335.1
855.8219	1050.926	10241.75	9359.7
855.9669	1052.9061	10273.35	9393.7
856.112	1054.8855	10297.85	9414.8
856.257	1056.8642	10316.05	9434.15
856.4021	1058.8421	10349.5	9464.15
856.5471	1060.8194	10372	9489.25
856.6921	1062.7959	10399.3	9519.8
856.8372	1064.7717	10467.3	9583.85
856.9822	1066.7469	10507.4	9623.9
857.1272	1068.7213	10623.25	9739.35
857.2723	1070.695	10681.8	9800.45
857.4173	1072.6679	10683.5	9801.65
857.5623	1074.6402	10692.45	9810.8
857.7073	1076.6117	10664.8	9777.3
857.8523	1078.5826	10565.9	9683.9
857.9973	1080.5527	10400	9513.75
858.1423	1082.5221	10315.75	9433.05
858.2873	1084.4908	10274.6	9392.7
858.4323	1086.4587	10273.85	9390.25
858.5773	1088.426	10339.95	9456.7
858.7223	1090.3925	10342.4	9454.8
858.8673	1092.3584	10358.8	9477
859.0123	1094.3235	10354.85	9474.25
859.1573	1096.2879	10410.15	9525.9
859.3022	1098.2515	10525.15	9643.3
859.4472	1100.2145	10678.3	9797
859.5922	1102.1767	10845.55	9960.95
859.7371	1104.1382	11082.3	10196.35
859.8821	1106.099	11313.45	10432.05
860.027	1108.0591	11529.7	10645.6
860.172	1110.0185	11693.5	10807.95
860.3169	1111.9771	11764.3	10883.1
860.4619	1113.9351	11671.4	10788.1
860.6068	1115.8923	11565.9	10680.5
860.7517	1117.8488	11384.95	10500.1
860.8967	1119.8045	11202.75	10320.05
861.0416	1121.7596	11048.95	10166.4
861.1865	1123.7139	10890.45	10007.75
861.3314	1125.6675	10830.65	9949.8
861.4763	1127.6204	10855.45	9972.85
861.6212	1129.5726	10797.65	9915.1
861.7661	1131.524	10727	9847.55
861.911	1133.4748	10582.6	9699.55
862.0559	1135.4248	10389.3	9505.75
862.2008	1137.3741	10234.15	9353
862.3457	1139.3226	10098.5	9215.6
862.4905	1141.2705	10035.45	9152.6
862.6354	1143.2176	9970.55	9080.05
862.7803	1145.164	9904.6	9017.05
862.9251	1147.1097	9848.2	8964
863.07	1149.0546	9738.05	8853.7
863.2148	1150.9989	9636.1	8750.15
863.3597	1152.9424	9526.3	8641.75
863.5045	1154.8852	9426.65	8541.75
863.6493	1156.8272	9390.5	8508.4
863.7942	1158.7686	9406.6	8517.65
863.939	1160.7092	9412	8528.6
864.0838	1162.6491	9426.3	8539
864.2286	1164.5883	9531.5	8649.45
864.3734	1166.5267	9634.4	8749.05
864.5182	1168.4644	9793.4	8909.3
864.663	1170.4014	9981.65	9094.85
864.8078	1172.3377	10225.9	9342.75
864.9526	1174.2732	10544.85	9660.8
865.0974	1176.2081	10952	10068.65
865.2421	1178.1421	11433.5	10547.65
865.3869	1180.0755	11934.45	11050.45
865.5317	1182.0082	12315.15	11433.6
865.6764	1183.9401	12475.15	11589.5
865.8212	1185.8713	12349.35	11464.5
865.9659	1187.8017	12004.65	11121.9
866.1106	1189.7315	11616.1	10732.7
866.2554	1191.6605	11198.8	10287.55
866.4001	1193.5888	10865.3	9981.2
866.5448	1195.5163	10688.5	9803.2
866.6895	1197.4432	10574.25	9689.8
866.8342	1199.3693	10526.3	9643.55
866.9789	1201.2947	10484.5	9593.4
867.1236	1203.2193	10454.8	9571
867.2683	1205.1432	10447.1	9564.3
867.413	1207.0664	10410.05	9526.6
867.5576	1208.9889	10375.35	9488.3
867.7023	1210.9106	10330.4	9448.75
867.847	1212.8316	10328.2	9445.3
867.9916	1214.7519	10392.4	9498.55
868.1363	1216.6715	10401.9	9519.45
868.2809	1218.5903	10469.35	9585.3
868.4255	1220.5084	10570.15	9687.55
868.5701	1222.4257	10683	9799.7
868.7148	1224.3424	10712.95	9828.65
868.8594	1226.2583	10815.6	9926.4
869.004	1228.1735	10974.7	10088.95
869.1486	1230.0879	11117.75	10235.35
869.2932	1232.0016	11313.05	10428.55
869.4377	1233.9146	11457.6	10571.45
869.5823	1235.8269	11492.15	10609.25
869.7269	1237.7384	11412.9	10529.45
869.8715	1239.6492	11266.6	10385.65
870.016	1241.5592	11247.55	10362.1
870.1606	1243.4686	11266.3	10380.85
870.3051	1245.3772	11495.35	10613.7
870.4496	1247.285	11687.7	10803.65
870.5941	1249.1922	11866.35	10981.6
870.7387	1251.0986	12033.3	11149.4
870.8832	1253.0042	12129.8	11245.8
871.0277	1254.9092	12256.5	11373.6
871.1722	1256.8134	12325.7	11441.05
871.3167	1258.7169	12485.5	11599.1
871.4611	1260.6196	12632.7	11749.1
871.6056	1262.5216	12836.75	11950.45
871.7501	1264.4229	13017.15	12133.05
871.8945	1266.3234	13218.75	12333.85
872.039	1268.2232	13366.05	12482.1
872.1834	1270.1223	13416.5	12531.4
872.3278	1272.0207	13440.8	12559.15
872.4723	1273.9183	13425.4	12534.2
872.6167	1275.8151	13350.35	12468.3
872.7611	1277.7113	13333.1	12448.05
872.9055	1279.6067	13410.7	12528.25
873.0499	1281.5014	13643.35	12757.1
873.1943	1283.3953	14061.85	13175.35
873.3386	1285.2885	14612.85	13729.95
873.483	1287.181	15166.95	14281.45
873.6274	1289.0727	15693.55	14809.75
873.7717	1290.9637	16085	15202.2
873.9161	1292.854	16272.75	15391.1
874.0604	1294.7435	16257.25	15371.55
874.2047	1296.6323	16163.15	15278.7
874.349	1298.5204	15917.35	15030.85
874.4933	1300.4077	15701.85	14818.25
874.6376	1302.2943	15428.85	14544.45
874.7819	1304.1802	15088.3	14203.6
874.9262	1306.0653	14582.9	13695.8
875.0705	1307.9497	14081.5	13197.5
875.2147	1309.8333	13656.75	12771.9
875.359	1311.7162	13298.6	12412.8
875.5032	1313.5984	13113.15	12227.4
875.6475	1315.4798	12960	12065.25
875.7917	1317.3605	12877.4	11977.25
875.9359	1319.2405	12742	11856.05
876.0801	1321.1197	12509.6	11622.55
876.2243	1322.9982	12162.5	11274.2
876.3685	1324.876	11892.2	11005.5
876.5127	1326.753	11622.7	10738.25
876.6569	1328.6293	11386.95	10501.25
876.801	1330.5048	11200.1	10315.1
876.9452	1332.3796	11025.65	10143.1
877.0893	1334.2537	10902.05	9989.25
877.2335	1336.127	10801.05	9918.35
877.3776	1337.9996	10781.35	9897.75
877.5217	1339.8714	10771.05	9887.45
877.6658	1341.7426	10769.8	9840.6
877.8099	1343.6129	10779.35	9893.85
877.954	1345.4826	10765.2	9881.8
878.0981	1347.3515	10756.9	9869.65
878.2422	1349.2196	10733.85	9849.05
878.3862	1351.087	10732.3	9847.55
878.5303	1352.9537	10793.65	9907.25
878.6743	1354.8197	10904.3	10017.45
878.8184	1356.6849	11073.9	10189.4
878.9624	1358.5493	11229.05	10343
879.1064	1360.4131	11415.7	10530.5
879.2504	1362.276	11574.2	10691.85
879.3944	1364.1383	11597.7	10713.9
879.5384	1365.9998	11424.3	10533
879.6823	1367.8606	11088.15	10201.75
879.8263	1369.7206	10732.5	9846.5
879.9702	1371.5799	10420.65	9532.5
880.1142	1373.4384	10147.6	9264.8
880.2581	1375.2962	9912.85	9028.95
880.402	1377.1533	9591	8706
880.5459	1379.0096	9219.15	8332.8
880.6898	1380.8652	8892.95	8005.7
880.8337	1382.7201	8587.45	7702.65
880.9776	1384.5742	8348.85	7462.75
881.1215	1386.4275	8149.1	7262.55
881.2653	1388.2802	8012.1	7129.45
881.4092	1390.132	7897.4	7010.9
881.553	1391.9832	7825.45	6939.5
881.6968	1393.8336	7749.75	6865.05
881.8406	1395.6832	7704.3	6816.4
881.9844	1397.5322	7662.65	6778.6
882.1282	1399.3803	7633.7	6745.7
882.272	1401.2278	7566.55	6681.65
882.4158	1403.0745	7552.35	6666.65
882.5595	1404.9204	7523.95	6640.2
882.7033	1406.7656	7544.15	6658.8
882.847	1408.6101	7555.1	6670.25
882.9908	1410.4538	7570.15	6684.4
883.1345	1412.2968	7601.95	6715.95
883.2782	1414.139	7658.6	6774.1
883.4219	1415.9805	7750.4	6863.8
883.5656	1417.8213	7812.8	6921.25
883.7092	1419.6613	7931.35	7045.65
883.8529	1421.5006	8058.95	7172.5
883.9965	1423.3391	8253.95	7367.3
884.1402	1425.1769	8517.6	7634.05
884.2838	1427.0139	8933.2	8047.15
884.4274	1428.8502	9476.3	8591.5
884.571	1430.6858	9993.75	9109.8
884.7146	1432.5206	10358.95	9473
884.8582	1434.3547	10565.55	9679.65
885.0018	1436.188	10573.75	9688.55
885.1453	1438.0206	10506	9620.95
885.2889	1439.8524	10338.1	9453.6
885.4324	1441.6835	10230	9341.8
885.5759	1443.5139	10149.4	9262.3
885.7194	1445.3435	10046.95	9162.95
885.8629	1447.1724	10030.05	9147.8
886.0064	1449.0005	9976.55	9092
886.1499	1450.8279	9910.85	9025.55
886.2933	1452.6545	9910.4	9025.95
886.4368	1454.4804	9967.4	9084.25
886.5802	1456.3056	9961.1	9070.6
886.7237	1458.13	9870.05	8985.75
886.8671	1459.9536	9707.45	8821.85
887.0105	1461.7766	9455.35	8571.4
887.1539	1463.5987	9150.3	8264.4
887.2972	1465.4202	8837.85	7953.15
887.4406	1467.2409	8503.05	7618.8
887.584	1469.0608	8219.25	7335.15
887.7273	1470.88	7954.6	7069.8
887.8706	1472.6984	7731.65	6846.85
888.0139	1474.5161	7542.35	6655.3
888.1572	1476.3331	7384.3	6500.7
888.3005	1478.1493	7274.4	6387.55
888.4438	1479.9648	7192.75	6308.8
888.5871	1481.7795	7128.85	6244.95
888.7303	1483.5935	7062	6177.35
888.8736	1485.4067	7009.75	6125.4
889.0168	1487.2192	6965	6081.05
889.16	1489.031	6939.7	6053.55
889.3032	1490.842	6889.85	6004.6
889.4464	1492.6522	6839	5953
889.5896	1494.4618	6812.55	5925.7
889.7327	1496.2705	6784.1	5899.95
889.8759	1498.0785	6776.05	5890.05
890.019	1499.8858	6714.35	5826.75
890.1622	1501.6924	6664.7	5781.55
890.3053	1503.4981	6635.75	5751.7
890.4484	1505.3032	6601.3	5715.85
890.5914	1507.1075	6561.5	5676.85
890.7345	1508.911	6518.1	5634
890.8776	1510.7138	6450.05	5563.8
891.0206	1512.5159	6422	5538.95
891.1637	1514.3172	6371.95	5488
891.3067	1516.1178	6330.1	5444.7
891.4497	1517.9176	6314.7	5427.25
891.5927	1519.7166	6260.05	5377.1
891.7357	1521.515	6237.5	5345.75
891.8786	1523.3126	6228.3	5342.7
892.0216	1525.1094	6200.15	5313.85
892.1645	1526.9055	6161.15	5280.25
892.3074	1528.7008	6157.05	5273.8
892.4503	1530.4954	6104.85	5217.55
892.5932	1532.2893	6102.2	5220.8
892.7361	1534.0824	6095.25	5205.25
892.879	1535.8747	6088.65	5204.35
893.0218	1537.6663	6063.95	5179.45
893.1647	1539.4572	6065.2	5179.5
893.3075	1541.2473	6067.45	5180.8
893.4503	1543.0367	6074.3	5190.6
893.5931	1544.8253	6091.05	5201.8
893.7359	1546.6132	6113.95	5227.75
893.8787	1548.4003	6132.85	5239
894.0214	1550.1867	6190.05	5294.6
894.1642	1551.9723	6237.05	5349.15
894.3069	1553.7572	6334.85	5451.4
894.4496	1555.5414	6437.6	5551.9
894.5923	1557.3247	6556.2	5670.95
894.735	1559.1074	6724.3	5840.4
894.8777	1560.8893	6903.65	6021.6
895.0204	1562.6705	7061.25	6176.65
895.163	1564.4509	7208.1	6319.7
895.3056	1566.2305	7276.05	6392.15
895.4482	1568.0094	7327.5	6443.8
895.5908	1569.7876	7348.65	6464.7
895.7334	1571.565	7332.5	6446.5
895.876	1573.3417	7277.15	6393.95
896.0186	1575.1176	7284.6	6403.3
896.1611	1576.8928	7304.8	6421.05
896.3036	1578.6672	7298.45	6416.7
896.4461	1580.4409	7323	6441.8
896.5886	1582.2138	7342.6	6455.35
896.7311	1583.986	7402.25	6517.75
896.8736	1585.7575	7503.4	6618.25
897.0161	1587.5282	7603.2	6720.65
897.1585	1589.2981	7710.4	6827.35
897.3009	1591.0673	7789.05	6907.1
897.4433	1592.8358	7908.2	7024.4
897.5857	1594.6035	8009.05	7123.55
897.7281	1596.3704	8074	7191.3
897.8705	1598.1366	8172.95	7290.15
898.0128	1599.9021	8255.15	7371.2
898.1551	1601.6668	8336.4	7447.9
898.2975	1603.4308	8439.7	7554.65
898.4398	1605.194	8620.45	7732
898.5821	1606.9564	8818.2	7935.15
898.7243	1608.7182	9077.45	8187.9
898.8666	1610.4791	9390.75	8509.05
899.0088	1612.2394	9706.45	8824.25
899.1511	1613.9988	10004.05	9119.9
899.2933	1615.7576	10313.9	9431.15
899.4355	1617.5156	10528.55	9640.65
899.5776	1619.2728	10613.65	9730
899.7198	1621.0293	10544.95	9662.1
899.862	1622.785	10296.55	9407.85
900.0041	1624.54	10003.9	9117.45
900.1462	1626.2942	9618.2	8731.9
900.2883	1628.0477	9172.15	8286.2
900.4304	1629.8005	8814.1	7927.3
900.5725	1631.5525	8454.6	7571.35
900.7145	1633.3037	8151.7	7268.1
900.8566	1635.0542	7939.55	7054.9
900.9986	1636.804	7737.95	6854.9
901.1406	1638.553	7653.75	6718.8
901.2826	1640.3013	7497.2	6616.25
901.4245	1642.0488	7476.6	6590.3
901.5665	1643.7955	7486.4	6604.8
901.7085	1645.5416	7537.9	6654.9
901.8504	1647.2868	7626.4	6742.7
901.9923	1649.0313	7713.15	6830.75
902.1342	1650.7751	7851.85	6966.35
902.2761	1652.5181	7984.45	7102.85
902.4179	1654.2604	8128.2	7243.4
902.5598	1656.0019	8361.2	7478.25
902.7016	1657.7427	8593.4	7709.45
902.8434	1659.4828	8828.85	7944.85
902.9852	1661.222	9003.7	8119.65
903.127	1662.9606	8989.65	8106.65
903.2687	1664.6984	8785.85	7902.95
903.4105	1666.4354	8381.9	7499.25
903.5522	1668.1717	7866.85	6985.1
903.6939	1669.9072	7300.15	6418.1
903.8356	1671.642	6830.95	5946.05
903.9773	1673.3761	6448.3	5568.05
904.119	1675.1094	6135.4	5252.2
904.2606	1676.8419	5904.3	5022.9
904.4022	1678.5737	5712.5	4831.3
904.5439	1680.3048	5564.85	4682.4
904.6855	1682.0351	5436.05	4553.3
904.827	1683.7646	5319.15	4433
904.9686	1685.4934	5237.35	4357.5
905.1101	1687.2215	5173.95	4290.95
905.2517	1688.9488	5095.35	4213.55
905.3932	1690.6754	5039	4157.95
905.5347	1692.4012	4988.4	4105.95
905.6761	1694.1263	4944.45	4062.05
905.8176	1695.8506	4892.3	4009.35
905.9591	1697.5742	4865.3	3983.7
906.1005	1699.297	4831.65	3948.75
906.2419	1701.0191	4793.6	3911.85
906.3833	1702.7404	4754.75	3871.35
906.5246	1704.461	4707.2	3824.5
906.666	1706.1808	4677.65	3793.85
906.8073	1707.8999	4672.65	3788.2
906.9487	1709.6182	4667.7	3783.45
907.09	1711.3358	4614.95	3734.15
907.2313	1713.0527	4585.65	3705.15
907.3725	1714.7688	4567.55	3679.2
907.5138	1716.4841	4544.8	3659.7
907.655	1718.1987	4526.3	3639.25
907.7962	1719.9126	4494.05	3614.5
907.9374	1721.6257	4491.1	3605.6
908.0786	1723.338	4465.6	3582.7
908.2198	1725.0496	4449.15	3565.5
908.3609	1726.7605	4445.2	3559.45
908.502	1728.4706	4432.05	3548.8
908.6431	1730.18	4409.3	3525.05
908.7842	1731.8886	4390.5	3508.35
908.9253	1733.5964	4399.7	3512.15
909.0664	1735.3036	4373.15	3487.6
909.2074	1737.0099	4348.65	3466.4
909.3484	1738.7156	4327.65	3446.1
909.4894	1740.4204	4291.75	3407.45
909.6304	1742.1246	4286.85	3402.05
909.7714	1743.8279	4258.35	3375.3
909.9123	1745.5306	4254.95	3370.75
910.0532	1747.2325	4220.45	3339.3
910.1941	1748.9336	4203.65	3322.4
910.335	1750.634	4179.1	3295.2
910.4759	1752.3336	4162.1	3279.7
910.6168	1754.0325	4167.6	3285.95
910.7576	1755.7307	4171.8	3288.65
910.8984	1757.4281	4150.3	3268.2
911.0392	1759.1247	4159.75	3270.8
911.18	1760.8206	4130.35	3243.6
911.3208	1762.5158	4118.6	3232.1
911.4615	1764.2102	4105.7	3225.95
911.6022	1765.9039	4097.95	3214.6
911.7429	1767.5968	4082.9	3199
911.8836	1769.289	4077.05	3194.5
912.0243	1770.9804	4067.9	3183.95
912.1649	1772.6711	4056.8	3176.2
912.3056	1774.361	4051.7	3168.05
912.4462	1776.0502	4063	3178.15
912.5868	1777.7386	4046.3	3161.6
912.7274	1779.4263	4030.05	3147.6
912.8679	1781.1132	4020.95	3141.55
913.0084	1782.7994	4018.4	3134.4
913.149	1784.4849	3997.4	3113.4
913.2895	1786.1696	4004.7	3102.95
913.4299	1787.8535	3977	3093.35
913.5704	1789.5367	3964.8	3083.9
913.7108	1791.2192	3978.25	3095.4
913.8513	1792.9009	3961.95	3065
913.9917	1794.5818	3956.85	3075.6
914.132	1796.2621	3928.15	3046.55
914.2724	1797.9415	3936.85	3054.55
914.4128	1799.6202	3922.8	3038.55
914.5531	1801.2982	3932.65	3050.7
914.6934	1802.9755	3913.05	3029.95
914.8337	1804.6519	3906.7	3022.2
914.9739	1806.3277	3885.25	3001.75
915.1142	1808.0027	3888.85	3005.45
915.2544	1809.6769	3899.3	3016.7
915.3946	1811.3504	3870.8	2986.15
915.5348	1813.0231	3858.55	2975.05
915.675	1814.6951	3869.95	2987.7
915.8151	1816.3664	3857.85	2973.7
915.9553	1818.0369	3843.25	2960.7
916.0954	1819.7067	3821.2	2939.5
916.2355	1821.3757	3831.55	2946.4
916.3755	1823.044	3818.15	2936.95
916.5156	1824.7115	3816.1	2934.4
916.6556	1826.3783	3791.6	2909.9
916.7956	1828.0443	3814.65	2933.8
916.9356	1829.7096	3793.45	2908.9
917.0756	1831.3741	3783.1	2898.6
917.2155	1833.0379	3776.35	2891.95
917.3555	1834.701	3776.4	2892.9
917.4954	1836.3633	3759.4	2873.6
917.6353	1838.0248	3742.55	2857.8
917.7751	1839.6856	3747	2863.35
917.915	1841.3457	3738.8	2857.25
918.0548	1843.005	3719.05	2838.5
918.1946	1844.6636	3737.65	2856.9
918.3344	1846.3214	3739.95	2856.75
918.4742	1847.9785	3725.2	2844.3
918.6139	1849.6349	3721.65	2838.95
918.7537	1851.2904	3728.25	2838.55
918.8934	1852.9453	3701	2819.3
919.0331	1854.5994	3691.7	2806.75
919.1727	1856.2528	3692.55	2805.95
919.3124	1857.9054	3684.95	2803.4
919.452	1859.5572	3670.1	2787.5
919.5916	1861.2083	3685.8	2804.35
919.7312	1862.8587	3679.25	2797.15
919.8708	1864.5084	3660.5	2779.05
920.0103	1866.1572	3651.8	2772.1
920.1498	1867.8054	3637.75	2754.3
920.2893	1869.4528	3642.95	2761.7
920.4288	1871.0994	3628.85	2745.3
920.5683	1872.7453	3625.85	2742.7
920.7077	1874.3905	3634.75	2735.25
920.8471	1876.0349	3607.85	2724.55
920.9865	1877.6786	3604.85	2721.5
921.1259	1879.3215	3612.25	2730.45
921.2653	1880.9637	3608.9	2723.35
921.4046	1882.6051	3596.65	2716
921.5439	1884.2458	3586.3	2701.05
921.6832	1885.8858	3570.7	2690.3
921.8225	1887.525	3566.15	2684.95
921.9617	1889.1634	3558.75	2676.85
922.101	1890.8011	3542.65	2662.4
922.2402	1892.4381	3530.2	2646.5
922.3794	1894.0743	3514.35	2632.25
922.5185	1895.7098	3521.1	2637.4
922.6577	1897.3446	3518.7	2636.7
922.7968	1898.9786	3513.95	2628.75
922.9359	1900.6118	3515.4	2634.1
923.075	1902.2443	3499	2614
923.214	1903.8761	3492.7	2610.7
923.3531	1905.5071	3479.7	2595.55
923.4921	1907.1374	3468.1	2585.1
923.6311	1908.7669	3460.05	2577.25
923.77	1910.3957	3455.2	2575.4
923.909	1912.0237	3443.6	2560.2
924.0479	1913.651	3442.75	2560.55
924.1868	1915.2776	3437.8	2558.4
924.3257	1916.9034	3416.6	2535.1
924.4646	1918.5285	3413.85	2532.35
924.6034	1920.1528	3400.9	2518.4
924.7422	1921.7764	3386.15	2506.05
924.881	1923.3992	3388.65	2508.1
925.0198	1925.0213	3371.2	2490.1
925.1586	1926.6427	3381.3	2501.25
925.2973	1928.2633	3452.1	2461.65
925.436	1929.8832	3369.75	2486.65
925.5747	1931.5023	3351.5	2471.05
925.7134	1933.1207	3335.9	2453.75
925.852	1934.7383	3350.05	2467.3
925.9906	1936.3552	3330.2	2448.95
926.1292	1937.9714	3319.7	2436
926.2678	1939.5868	3302.9	2419.75
926.4064	1941.2015	3303.35	2420.75
926.5449	1942.8154	3290.45	2409.65
926.6834	1944.4286	3273.65	2389.9
926.8219	1946.041	3277.05	2370.3
926.9604	1947.6528	3263.25	2377.3
927.0988	1949.2637	3251	2370.3
927.2372	1950.8739	3231.5	2347.35
927.3756	1952.4834	3238.1	2355.9
927.514	1954.0921	3230.9	2349.15
927.6523	1955.7001	3232.9	2346.95
927.7907	1957.3074	3217.3	2336.1
927.929	1958.9139	3204.4	2322.25
928.0673	1960.5197	3198.5	2314.8
928.2055	1962.1247	3185.2	2302
928.3438	1963.729	3177.95	2295.8
928.482	1965.3325	3195.2	2288.6
928.6202	1966.9353	3170.7	2290.45
928.7584	1968.5374	3155.15	2272.45
928.8965	1970.1387	3143.05	2263.9
929.0346	1971.7393	3128.75	2246.8
929.1727	1973.3392	3137.9	2257.4
929.3108	1974.9383	3112.05	2228.5
929.4489	1976.5366	3125.4	2244.85
929.5869	1978.1342	3108.3	2226.55
929.7249	1979.7311	3099.05	2215.45
929.8629	1981.3273	3087	2204.95
930.0009	1982.9227	3090.15	2207.35
930.1388	1984.5173	3099.25	2219.35
930.2767	1986.1112	3081.15	2200.55
930.4146	1987.7044	3075.5	2194.7
930.5525	1989.2968	3072.75	2189.5
930.6904	1990.8885	3074.85	2187.65
930.8282	1992.4795	3064.4	2180.9
930.966	1994.0697	3055.35	2173.65
931.1038	1995.6592	3036.1	2154.55
931.2415	1997.2479	3025.2	2142.2
931.3793	1998.8359	3022.65	2139.25
931.517	2000.4232	3010.7	2128.95
931.6547	2002.0097	3022.85	2141.65
931.7923	2003.5955	3004.65	2121
931.93	2005.1805	2996.9	2112.55
932.0676	2006.7648	3003.1	2122.3
932.2052	2008.3484	2972.25	2088.95
932.3427	2009.9312	2993.15	2108.35
932.4803	2011.5133	2981.8	2101.25
932.6178	2013.0946	2979.9	2096.4
932.7553	2014.6752	2975	2092.8
932.8928	2016.2551	2973.6	2090.65
933.0302	2017.8342	2954.9	2072.45
933.1676	2019.4126	2941.25	2058.65
933.305	2020.9902	2946.45	2066.4
933.4424	2022.5672	2934.2	2050.85
933.5798	2024.1433	2932.15	2044.9
933.7171	2025.7188	2918.35	2038.4
933.8544	2027.2935	2921.35	2037.8
933.9917	2028.8674	2918.25	2034.95
934.129	2030.4406	2908.1	2026.55
934.2662	2032.0131	2893.95	2013.65
934.4034	2033.5849	2897.6	2008.9
934.5406	2035.1559	2900.4	2018.75
934.6778	2036.7261	2886.2	2004.4
934.8149	2038.2957	2882.15	1999.1
934.952	2039.8645	2869.45	1989
935.0891	2041.4325	2882.55	1997.55
935.2262	2042.9998	2871.7	1991.9
935.3632	2044.5664	2863.75	1979.4
935.5002	2046.1323	2861.35	1979.6
935.6372	2047.6974	2837.3	1954.85
935.7742	2049.2617	2841.45	1960.75
935.9111	2050.8254	2881.75	1964.75
936.048	2052.3883	2837.65	1954.15
936.1849	2053.9504	2837.35	1954.4
936.3218	2055.5118	2813.1	1929.9
936.4586	2057.0725	2820.25	1933.4
936.5955	2058.6325	2824.15	1941.3
936.7323	2060.1917	2814.3	1932.3
936.869	2061.7502	2798.2	1913.8
937.0058	2063.3079	2797.5	1915.85
937.1425	2064.8649	2788.65	1902.1
937.2792	2066.4212	2786.6	1903.45
937.4159	2067.9767	2777.95	1896.05
937.5525	2069.5315	2773.05	1890.65
937.6891	2071.0856	2765.4	1883.05
937.8257	2072.6389	2754.3	1870.95
937.9623	2074.1915	2740.45	1858.75
938.0989	2075.7433	2755.2	1871.1
938.2354	2077.2945	2736.25	1855.2
938.3719	2078.8448	2739.85	1856.5
938.5084	2080.3945	2726.1	1845.7
938.6448	2081.9434	2725.35	1842.25
938.7812	2083.4916	2722.4	1840.6
938.9176	2085.039	2707.95	1825.8
939.054	2086.5857	2703.55	1821.05
939.1903	2088.1317	2706.9	1825.65
939.3267	2089.677	2700.35	1817.8
939.463	2091.2215	2687.1	1804.45
939.5992	2092.7652	2681.6	1799.6
939.7355	2094.3083	2682.4	1798.95
939.8717	2095.8506	2680.05	1798.75
940.0079	2097.3921	2667.35	1785.05
940.1441	2098.933	2676.45	1795
940.2802	2100.4731	2675.5	1794.2
940.4163	2102.0124	2682.7	1781.95
940.5524	2103.5511	2661	1778.45
940.6885	2105.089	2657.35	1775.5
940.8245	2106.6261	2652.85	1770.45
940.9606	2108.1626	2662.9	1779.45
941.0965	2109.6983	2673.45	1761.1
941.2325	2111.2332	2639.55	1755.5
941.3684	2112.7675	2635	1750.45
941.5044	2114.301	2637.75	1754.6
941.6403	2115.8337	2637.9	1755.95
941.7761	2117.3657	2623.55	1741.65
941.912	2118.897	2617.95	1736.75
942.0478	2120.4276	2611	1724.55
942.1835	2121.9575	2603.2	1719.9
942.3193	2123.4866	2625.15	1728.1
942.455	2125.0149	2603.05	1719.85
942.5907	2126.5426	2591.9	1709.4
942.7264	2128.0695	2598.8	1711.35
942.8621	2129.5956	2589.55	1708.5
942.9977	2131.1211	2595	1710.15
943.1333	2132.6458	2579.6	1697.9
943.2689	2134.1698	2579.05	1695.85
943.4044	2135.693	2569.45	1683.9
943.54	2137.2155	2567.1	1681
943.6755	2138.7373	2553	1669.6
943.8109	2140.2584	2549.55	1665.45
943.9464	2141.7787	2551.9	1664.05
944.0818	2143.2983	2541.8	1658.9
944.2172	2144.8171	2536	1655.45
944.3526	2146.3353	2526.4	1641.5
944.4879	2147.8527	2516.65	1635.45
944.6232	2149.3693	2514.25	1632.75
944.7585	2150.8853	2521.5	1637.8
944.8938	2152.4005	2515.25	1633.75
945.029	2153.9149	2516.5	1633.45
945.1642	2155.4287	2500.3	1620.55
945.2994	2156.9417	2497.2	1613.2
945.4346	2158.454	2498.6	1614.15
945.5697	2159.9655	2480.6	1599.35
945.7048	2161.4764	2482.5	1601.9
945.8399	2162.9865	2483.95	1600.95
945.9749	2164.4958	2487.1	1604.1
946.1099	2166.0045	2471.8	1586.15
946.2449	2167.5124	2465.35	1582.8
946.3799	2169.0195	2463.9	1581.75
946.5148	2170.526	2458.6	1574.45
946.6498	2172.0317	2447.4	1567
946.7846	2173.5367	2464.35	1582.75
946.9195	2175.0409	2455.25	1573.2
947.0543	2176.5445	2456.3	1576.35
947.1891	2178.0473	2437.35	1555.2
947.3239	2179.5494	2436.6	1549.1
947.4587	2181.0507	2426.1	1544.1
947.5934	2182.5513	2424.65	1543.4
947.7281	2184.0512	2426.15	1544.05
947.8628	2185.5504	2425.95	1544.95
947.9974	2187.0488	2413.6	1530.2
948.132	2188.5465	2416	1535.65
948.2666	2190.0435	2404.5	1520.85
948.4012	2191.5397	2410.15	1528.65
948.5357	2193.0353	2394.95	1514.45
948.6702	2194.5301	2397.75	1514.65
948.8047	2196.0241	2396.25	1514.9
948.9392	2197.5175	2386.65	1503.95
949.0736	2199.0101	2374.4	1489.85
949.208	2200.502	2370.8	1490.1
949.3424	2201.9931	2358.05	1473.85
949.4767	2203.4835	2354.25	1472.25
949.611	2204.9733	2354.45	1465.85
949.7453	2206.4622	2347.75	1464.2
949.8796	2207.9505	2348.25	1461.95
950.0138	2209.438	2340.35	1458.05
950.148	2210.9248	2330.05	1447.6
950.2822	2212.4109	2323.7	1441.75
950.4164	2213.8962	2328.4	1444.3
950.5505	2215.3809	2327.55	1446.25
950.6846	2216.8648	2326.55	1444.65
950.8186	2218.3479	2324.45	1437.45
950.9527	2219.8304	2306	1422.4
951.0867	2221.3121	2307.9	1423.25
951.2207	2222.7931	2293.25	1413.5
951.3546	2224.2733	2296.5	1413.75
951.4886	2225.7529	2292.7	1410.2
951.6225	2227.2317	2285	1400.25
951.7563	2228.7098	2281.65	1399.9
951.8902	2230.1872	2267.75	1384.9
952.024	2231.6638	2282.6	1399.15
952.1578	2233.1397	2270.5	1383.55
952.2916	2234.6149	2263.6	1380.2
952.4253	2236.0894	2256.7	1373.8
952.559	2237.5632	2258.6	1367.2
952.6927	2239.0362	2249.1	1368.3
952.8263	2240.5085	2240.2	1358
952.9599	2241.9801	2234.15	1354.1
953.0935	2243.4509	2238.25	1355.4
953.2271	2244.921	2234.1	1352.3
953.3606	2246.3904	2215.9	1331
953.4941	2247.8591	2209.15	1329.25
953.6276	2249.3271	2218.5	1335.3
953.7611	2250.7943	2214.7	1333.05
953.8945	2252.2608	2203.05	1322.35
954.0279	2253.7266	2196.3	1311.2
954.1612	2255.1917	2202.65	1322
954.2946	2256.656	2205	1321.6
954.4279	2258.1197	2193.55	1311.7
954.5612	2259.5826	2189.75	1305.45
954.6944	2261.0447	2181.1	1297.55
954.8276	2262.5062	2176.55	1291.1
954.9608	2263.9669	2181.15	1297.55
955.094	2265.4269	2159.65	1279.7
955.2271	2266.8862	2174.95	1294
955.3602	2268.3448	2174.7	1291.5
955.4933	2269.8026	2168.5	1284.15
955.6264	2271.2598	2155.25	1273.1
955.7594	2272.7162	2157.3	1275.25
955.8924	2274.1719	2152.35	1270.35
956.0253	2275.6268	2150.15	1269.4
956.1583	2277.0811	2146.25	1263.15
956.2912	2278.5346	2147.6	1265.1
956.4241	2279.9874	2147.1	1265.2
956.5569	2281.4395	2147.55	1268.1
956.6897	2282.8908	2143.35	1253.25
956.8225	2284.3414	2137	1253.5
956.9553	2285.7914	2134.8	1255.75
957.088	2287.2406	2130.45	1245.75
957.2207	2288.689	2120.2	1238.95
957.3534	2290.1368	2121.85	1238.2
957.486	2291.5838	2113.1	1228.25
957.6186	2293.0302	2118.85	1234.55
957.7512	2294.4758	2106.25	1224.05
957.8838	2295.9206	2104	1219.05
958.0163	2297.3648	2107.55	1225.2
958.1488	2298.8082	2116.65	1234.35
958.2813	2300.251	2099.85	1218.15
958.4137	2301.693	2095.95	1211.45
958.5461	2303.1343	2100.2	1218.65
958.6785	2304.5748	2082.5	1200.5
958.8108	2306.0147	2079.45	1197.05
958.9432	2307.4538	2092.85	1206.85
959.0754	2308.8922	2079.45	1198.6
959.2077	2310.3299	2081.05	1199.15
959.3399	2311.7669	2067.5	1186.8
959.4721	2313.2031	2071.6	1189.35
959.6043	2314.6387	2060.35	1177.1
959.7365	2316.0735	2059.6	1179.8
959.8686	2317.5076	2067.15	1185.35
960.0006	2318.941	2046.45	1166.45
960.1327	2320.3737	2043.7	1161.5
960.2647	2321.8056	2058.45	1173
960.3967	2323.2369	2050.3	1167.6
960.5287	2324.6674	2044.75	1160.05
960.6606	2326.0972	2047	1163.05
960.7925	2327.5263	2036.65	1154.45
960.9244	2328.9547	2039.25	1156.85
961.0562	2330.3823	2029.7	1144.6
961.1881	2331.8092	2037.45	1153.6
961.3198	2333.2355	2016.85	1135.55
961.4516	2334.661	2014.15	1130.05
961.5833	2336.0858	2018.95	1134.6
961.715	2337.5098	2008.15	1126.3
961.8467	2338.9332	2001.7	1118.6
961.9783	2340.3558	2011	1124.2
962.1099	2341.7778	2005.85	1123.5
962.2415	2343.199	2004.6	1121.8
962.373	2344.6195	1992.6	1110.85
962.5045	2346.0393	1988.5	1104.85
962.636	2347.4583	1997.05	1115.3
962.7675	2348.8767	1996.5	1113.6
962.8989	2350.2943	1995.95	1114.35
963.0303	2351.7113	1993.2	1111.2
963.1617	2353.1275	1983.6	1101
963.293	2354.543	2005.3	1101.5
963.4243	2355.9578	1977.8	1094.7
963.5556	2357.3718	1971.35	1089.65
963.6868	2358.7852	1975.3	1091.7
963.818	2360.1978	1980.85	1097.75
963.9492	2361.6098	1970.2	1089.75
964.0803	2363.021	1962.7	1077.4
964.2114	2364.4315	1967.2	1087.1
964.3425	2365.8413	1957.25	1073.65
964.4736	2367.2504	1962.6	1082.1
964.6046	2368.6587	1942.25	1059.65
964.7356	2370.0664	1936.75	1054.85
964.8666	2371.4733	1953.4	1070.9
964.9975	2372.8795	1948.45	1069.2
965.1284	2374.285	1929.15	1047.8
965.2593	2375.6899	1932.5	1051.5
965.3901	2377.0939	1929.65	1046.6
965.5209	2378.4973	1921.6	1040.7
965.6517	2379.9	1915.85	1034.2
965.7825	2381.3019	1912.25	1029.35
965.9132	2382.7032	1923.8	1043.35
966.0439	2384.1037	1922.25	1043.65
966.1745	2385.5035	1914.9	1033.45
966.3051	2386.9027	1894.65	1013.9
966.4357	2388.3011	1909.75	1023.15
966.5663	2389.6987	1900.9	1019.3
966.6968	2391.0957	1894.05	1013.45
966.8273	2392.492	1889.65	1008.95
966.9578	2393.8876	1888.1	1006.55
967.0882	2395.2824	1875.9	994.7
967.2186	2396.6765	1873.2	992.25
967.349	2398.07	1879.9	1000.05
967.4793	2399.4627	1874	991.65
967.6097	2400.8547	1875.8	994.2
967.7399	2402.246	1862.15	975.6
967.8702	2403.6366	1863.9	981.75
968.0004	2405.0265	1860	977.75
968.1306	2406.4156	1867.95	980.45
968.2607	2407.8041	1861.5	978.25
968.3909	2409.1918	1851.8	966.45
968.521	2410.5789	1849.55	966.6
968.651	2411.9652	1850.7	967.4
968.781	2413.3508	1841.35	961.05
968.911	2414.7358	1844.7	963.9
969.041	2416.12	1837.7	957.45
969.1709	2417.5035	1834.8	952.8
969.3008	2418.8863	1829.75	950
969.4307	2420.2684	1832.25	951.1
969.5606	2421.6497	1824.6	941.25
969.6904	2423.0304	1817.6	936.3
969.8201	2424.4104	1824.9	941.45
969.9499	2425.7896	1819.75	933.2
970.0796	2427.1682	1816.7	933.55
970.2093	2428.546	1819.2	936.4
970.3389	2429.9232	1813.45	928.9
970.4685	2431.2996	1813.7	933.1
970.5981	2432.6753	1809	926.85
970.7277	2434.0503	1790.25	909.3
970.8572	2435.4246	1803.05	920.95
970.9867	2436.7982	1799.9	917.4
971.1161	2438.1711	1792.45	911.35
971.2456	2439.5433	1795.35	913.05
971.375	2440.9148	1793.5	906.1
971.5043	2442.2856	1784.6	903.65
971.6336	2443.6557	1781.25	898
971.7629	2445.025	1780.1	897.95
971.8922	2446.3937	1772	889.75
972.0214	2447.7617	1774.05	891.55
972.1506	2449.1289	1765.3	886.55
972.2798	2450.4955	1769.05	883.4
972.4089	2451.8613	1759.55	880.6
972.538	2453.2265	1774.65	893.2
972.6671	2454.5909	1758.25	876.85
972.7961	2455.9546	1761.15	879.65
972.9251	2457.3177	1754.9	873.15
973.0541	2458.68	1755.3	870.25
973.1831	2460.0416	1751.4	869
973.312	2461.4025	1758.65	875.15
973.4408	2462.7627	1755.65	861.1
973.5697	2464.1222	1748.6	868.95
973.6985	2465.4811	1743.7	861.45
973.8273	2466.8392	1741.45	859.75
973.956	2468.1966	1755.2	871.3
974.0847	2469.5533	1743.4	859.35
974.2134	2470.9093	1740.3	857
974.3421	2472.2645	1746.7	861.95
974.4707	2473.6191	1733.9	852.95
974.5993	2474.973	1731.8	847.55
974.7278	2476.3262	1725.75	841.2
974.8563	2477.6787	1724	843.85
974.9848	2479.0305	1724.8	841.9
975.1132	2480.3816	1720.7	838.6
975.2417	2481.7319	1723.05	841.75
975.37	2483.0816	1721.25	835.3
975.4984	2484.4306	1714.1	831.7
975.6267	2485.7789	1713.65	832.45
975.755	2487.1264	1712.25	828.5
975.8833	2488.4733	1708.75	826.9
976.0115	2489.8195	1703.2	814.6
976.1397	2491.165	1710.4	824.85
976.2678	2492.5097	1705.5	820.4
976.3959	2493.8538	1692.05	809
976.524	2495.1972	1689.4	806.4
976.6521	2496.5398	1693.95	809.35
976.7801	2497.8818	1693.1	811.05
976.9081	2499.2231	1683.2	800.65
977.036	2500.5637	1680.7	798.45
977.164	2501.9035	1680.6	798.1
977.2918	2503.2427	1677.4	791.95
977.4197	2504.5812	1677.7	794.85
977.5475	2505.919	1678.9	792.4
977.6753	2507.256	1672.2	790.65
977.8031	2508.5924	1665.25	782.4
977.9308	2509.9281	1667.3	777.3
978.0585	2511.2631	1660.8	779.35
978.1861	2512.5974	1658.05	776.1
978.3137	2513.9309	1658.5	776.1
978.4413	2515.2638	1685.1	775.1
978.5689	2516.596	1652.05	769.95
978.6964	2517.9275	1655.15	773.55
978.8239	2519.2583	1647.25	765.2
978.9513	2520.5884	1650.95	766.8
979.0788	2521.9178	1647.55	765.7
979.2062	2523.2465	1641.15	756.3
979.3335	2524.5745	1647.5	766.95
979.4608	2525.9018	1642.9	758.45
979.5881	2527.2284	1640.75	759.35
979.7154	2528.5543	1633.7	753.45
979.8426	2529.8796	1637.3	756.6
979.9698	2531.2041	1641.8	759.25
980.0969	2532.5279	1637.75	758.4
980.224	2533.851	1628.85	746
980.3511	2535.1735	1629.15	748
980.4781	2536.4952	1626.9	744.45
980.6052	2537.8163	1629.2	747.8
980.7321	2539.1366	1623.8	743.25
980.8591	2540.4562	1626	742.7
980.986	2541.7752	1627.35	747.1
981.1129	2543.0935	1616	735.35
981.2397	2544.411	1628.25	744.65
981.3665	2545.7279	1621.85	739.25
981.4933	2547.0441	1615.4	732.95
981.62	2548.3596	1621.9	737.5
981.7467	2549.6744	1617.05	735.15
981.8734	2550.9885	1619.3	733.85
982.0001	2552.3019	1613.3	734.2
982.1267	2553.6146	1608.65	727.6
982.2532	2554.9266	1608.7	726.95
982.3798	2556.2379	1609.85	727.55
982.5063	2557.5485	1606.3	726.6
982.6327	2558.8585	1615.9	726.65
982.7592	2560.1677	1613.6	727.75
982.8856	2561.4762	1605.1	724.9
983.0119	2562.7841	1601.25	715.85
983.1383	2564.0913	1606.1	723.95
983.2646	2565.3977	1601.35	720.85
983.3908	2566.7035	1596.3	713.65
983.517	2568.0086	1597.95	716.35
983.6432	2569.313	1597.7	717.45
983.7694	2570.6167	1602.5	719.55
983.8955	2571.9197	1592.25	711
984.0216	2573.222	1597.4	712.85
984.1476	2574.5236	1590.4	706.95
984.2737	2575.8246	1589.8	706.95
984.3996	2577.1248	1596.65	712.15
984.5256	2578.4244	1590.35	710.95
984.6515	2579.7232	1588.6	707.25
984.7774	2581.0214	1617.35	706.05
984.9032	2582.3189	1583.4	701.55
985.029	2583.6157	1590.5	703.65
985.1548	2584.9118	1583.7	701.25
985.2806	2586.2072	1586.95	704.8
985.4063	2587.5019	1589.95	709.6
985.5319	2588.7959	1589.2	707.35
985.6576	2590.0893	1587.95	704.7
985.7832	2591.3819	1581.9	701.65
985.9087	2592.6739	1586.5	706.8
986.0343	2593.9652	1582.1	701.65
986.1597	2595.2557	1587.1	705.9
986.2852	2596.5456	1586.95	702.4
986.4106	2597.8348	1592	712.8
986.536	2599.1234	1579.85	697.25
986.6614	2600.4112	1584.3	703.8
986.7867	2601.6983	1580.1	695.8
986.912	2602.9848	1589.55	707.35
987.0372	2604.2705	1580.5	690.85
987.1624	2605.5556	1581.25	700.7
987.2876	2606.84	1576.25	695.75
987.4128	2608.1237	1571.1	691.05
987.5379	2609.4067	1564	680.6
987.6629	2610.689	1575.5	684.15
987.788	2611.9707	1560	675.55
987.913	2613.2516	1560	674.3
988.0379	2614.5319	1560.5	680.85
988.1629	2615.8115	1549	666.95
988.2878	2617.0903	1553.9	669.75
988.4126	2618.3685	1557.3	673.1
988.5375	2619.6461	1544.8	664.3
988.6622	2620.9229	1543.45	663.45
988.787	2622.199	1547.2	663.9
988.9117	2623.4745	1548.45	664.9
989.0364	2624.7493	1542.2	662
989.161	2626.0234	1542.4	662
989.2857	2627.2968	1539.1	658.75
989.4102	2628.5695	1540.9	658.7
989.5348	2629.8415	1535	653.75
989.6593	2631.1128	1543.75	661.25
989.7837	2632.3835	1529.35	648.2
989.9082	2633.6535	1530.15	648.65
990.0326	2634.9228	1536.95	656.35
990.1569	2636.1914	1540.35	659.25
990.2812	2637.4593	1531.65	648.65
990.4055	2638.7265	1527.2	645.95
990.5298	2639.9931	1526	643.1
990.654	2641.259	1526	644.45
990.7782	2642.5242	1519.95	639.4
990.9023	2643.7887	1515.7	634.65
991.0264	2645.0525	1520.9	639.5
991.1505	2646.3156	1519.4	636.25
991.2745	2647.5781	1520.7	638.75
991.3985	2648.8398	1513.4	631.1
991.5225	2650.1009	1546.8	628.95
991.6464	2651.3613	1501	618.55
991.7703	2652.6211	1507.35	628.35
991.8942	2653.8801	1501.75	620.1
992.018	2655.1385	1504.55	620.5
992.1418	2656.3961	1497.9	616.05
992.2655	2657.6531	1500.9	619.8
992.3892	2658.9094	1502.65	619.45
992.5129	2660.1651	1498.3	619.1
992.6366	2661.42	1506.8	625.85
992.7602	2662.6743	1505.45	622.25
992.8837	2663.9279	1508.2	628.75
993.0073	2665.1808	1510.2	628.3
993.1307	2666.433	1513.85	630.7
993.2542	2667.6846	1509	626.9
993.3776	2668.9354	1517.3	632.15
993.501	2670.1856	1508.6	627.1
993.6244	2671.4351	1521.65	641.15
993.7477	2672.6839	1520.85	636.55
993.8709	2673.9321	1516.75	636.45
993.9942	2675.1795	1512.45	629.75
994.1174	2676.4263	1519.35	638.9
994.2405	2677.6724	1522.05	639.9
994.3637	2678.9179	1515.55	631.45
994.4868	2680.1626	1527.8	648.7
994.6098	2681.4067	1521.65	640.3
994.7328	2682.6501	1517.7	635.85
994.8558	2683.8928	1519.15	636.45
994.9788	2685.1348	1511.55	631.05
995.1017	2686.3761	1502.55	620.25
995.2245	2687.6168	1500.95	620.9
995.3474	2688.8568	1496.05	613.9
995.4702	2690.0961	1498.65	619.4
995.5929	2691.3348	1497.4	615.7
995.7156	2692.5727	1488.75	607.35
995.8383	2693.81	1486.15	604.95
995.961	2695.0466	1483	604.5
996.0836	2696.2826	1482.6	600.6
996.2062	2697.5178	1491.05	605.2
996.3287	2698.7524	1485.95	604
996.4512	2699.9863	1486.95	604.2
996.5737	2701.2195	1489.9	609.6
996.6961	2702.452	1490.65	605.8
996.8185	2703.6839	1492.15	608.55
996.9408	2704.9151	1509.15	626.7
997.0631	2706.1456	1504.65	623
997.1854	2707.3755	1508.65	625.7
997.3077	2708.6046	1521.05	639.5
997.4299	2709.8331	1515.9	634
997.552	2711.0609	1527.8	645.45
997.6742	2712.2881	1534.25	653.9
997.7963	2713.5145	1538.7	655.9
997.9183	2714.7403	1545	664.4
998.0403	2715.9654	1552.1	669.45
998.1623	2717.1899	1570.35	673.35
998.2842	2718.4136	1576.1	695.3
998.4062	2719.6367	1586.2	706.15
998.528	2720.8591	1596.35	709.6
998.6498	2722.0809	1604.4	722.95
998.7716	2723.3019	1618.05	734.35
998.8934	2724.5223	1624.85	742.8
999.0151	2725.7421	1624.9	741.75
999.1368	2726.9611	1630.95	747.55
999.2584	2728.1795	1630.3	744.3
999.38	2729.3972	1612.8	731.45
999.5016	2730.6142	1609.5	715.95
999.6231	2731.8306	1597.85	715.25
999.7446	2733.0462	1577.7	692.3
999.8661	2734.2612	1573.45	687.3
999.9875	2735.4756	1557.95	674.9
1000.1089	2736.6892	1534.9	651.35
1000.2302	2737.9022	1523.25	645.45
1000.3515	2739.1145	1513.7	631.05
1000.4728	2740.3262	1499.85	610.05
1000.594	2741.5372	1494.45	612.55
1000.7152	2742.7475	1481.85	601.3
1000.8363	2743.9571	1472.35	588.5
1000.9575	2745.1661	1467.6	581.7
1001.0785	2746.3744	1452.1	570.85
1001.1996	2747.582	1447.85	567.3
1001.3206	2748.7889	1438.75	555.2
1001.4415	2749.9952	1435.8	553.15
1001.5625	2751.2008	1425.3	544.55
1001.6833	2752.4057	1423.15	542
1001.8042	2753.61	1416.5	533.4
1001.925	2754.8136	1419.75	535.8
1002.0458	2756.0165	1412.8	532.9
1002.1665	2757.2188	1406.65	526.3
1002.2872	2758.4204	1413	530
1002.4078	2759.6213	1417.85	532.7
1002.5285	2760.8215	1414.6	528.35
1002.649	2762.0211	1415.35	531.65
1002.7696	2763.22	1412.6	526.75
1002.8901	2764.4182	1405	521.75
1003.0106	2765.6158	1406.15	524.5
1003.131	2766.8127	1402.75	518.7
1003.2514	2768.009	1401.35	521.05
1003.3717	2769.2045	1397.25	514.8
1003.492	2770.3994	1396.95	513.35
1003.6123	2771.5936	1390.9	507.85
1003.7325	2772.7872	1384.6	502.5
1003.8527	2773.9801	1383.95	500.55
1003.9729	2775.1723	1401.85	505.55
1004.093	2776.3639	1383.1	505.7
1004.2131	2777.5548	1375.65	492.4
1004.3331	2778.745	1383.3	500.95
1004.4531	2779.9346	1382.65	500.6
1004.5731	2781.1235	1376.8	495.2
1004.693	2782.3117	1385.75	503.2
1004.8129	2783.4992	1382.65	500.25
1004.9328	2784.6861	1388.8	507.35
1005.0526	2785.8723	1387.8	505.45
1005.1723	2787.0579	1400.7	518.1
1005.2921	2788.2428	1400.5	518.35
1005.4118	2789.427	1404.2	523.3
1005.5314	2790.6106	1398.7	518.3
1005.651	2791.7935	1411.75	531
1005.7706	2792.9757	1417.3	535.3
1005.8902	2794.1573	1425.35	543.55
1006.0097	2795.3382	1434.45	553.1
1006.1291	2796.5184	1438.85	556.9
1006.2485	2797.698	1452.8	570.55
1006.3679	2798.8769	1462.1	580.6
1006.4873	2800.0551	1468.1	586.6
1006.6066	2801.2327	1477.55	593.85
1006.7258	2802.4096	1494.55	614.6
1006.8451	2803.5859	1507.1	624.85
1006.9642	2804.7615	1528.45	645.95
1007.0834	2805.9364	1535.55	655.85
1007.2025	2807.1106	1550.1	668.65
1007.3216	2808.2842	1573.15	690.75
1007.4406	2809.4572	1602.9	720.9
1007.5596	2810.6294	1628.65	748.95
1007.6785	2811.801	1665.95	784.65
1007.7975	2812.972	1694.8	814.85
1007.9163	2814.1423	1728.8	845.6
1008.0352	2815.3119	1776.75	897.15
1008.154	2816.4808	1818.7	938.5
1008.2727	2817.6491	1865.45	983.4
1008.3914	2818.8167	1917.9	1037.8
1008.5101	2819.9837	1971.3	1085.6
1008.6288	2821.15	2019.85	1139.7
1008.7474	2822.3157	2063.3	1183
1008.8659	2823.4807	2129.65	1246.25
1008.9844	2824.645	2190.65	1306.45
1009.1029	2825.8086	2240.7	1358.05
1009.2214	2826.9716	2289.75	1407.45
1009.3398	2828.134	2341.2	1459.45
1009.4581	2829.2957	2382.6	1501.35
1009.5764	2830.4567	2416.05	1535.9
1009.6947	2831.617	2428.55	1546.8
1009.813	2832.7767	2450	1570.8
1009.9312	2833.9358	2447.65	1566.85
1010.0493	2835.0941	2439.9	1554.1
1010.1675	2836.2519	2421.9	1541.9
1010.2855	2837.4089	2404.9	1522.85
1010.4036	2838.5653	2382.35	1500.45
1010.5216	2839.7211	2378.55	1498.35
1010.6396	2840.8761	2369.3	1485
1010.7575	2842.0306	2370.55	1489.95
1010.8754	2843.1843	2399.35	1517.1
1010.9932	2844.3374	2417.1	1536.9
1011.111	2845.4899	2466.9	1584.05
1011.2288	2846.6417	2499.75	1618.85
1011.3465	2847.7928	2559	1681.15
1011.4642	2848.9433	2622.75	1741.2
1011.5818	2850.0931	2674.3	1794.45
1011.6995	2851.2422	2725.1	1841.95
1011.817	2852.3907	2783.35	1899.75
1011.9345	2853.5385	2839.2	1956.7
1012.052	2854.6857	2916.35	2008.45
1012.1695	2855.8323	2935.5	2054.75
1012.2869	2856.9781	2975.7	2094.5
1012.4042	2858.1233	3029	2148.35
1012.5216	2859.2679	3071.8	2192.8
1012.6389	2860.4118	3112.7	2229.9
1012.7561	2861.555	3166.3	2281.35
1012.8733	2862.6976	3209.65	2327
1012.9905	2863.8395	3241.9	2361.55
1013.1076	2864.9808	3270.7	2388.65
1013.2247	2866.1214	3283.15	2401.05
1013.3417	2867.2614	3312	2430.25
1013.4587	2868.4007	3317	2434.15
1013.5757	2869.5393	3344.2	2460.7
1013.6926	2870.6773	3351.35	2465.75
1013.8095	2871.8146	3367.2	2481.55
1013.9263	2872.9513	3369.05	2486.55
1014.0431	2874.0874	3350.8	2469
1014.1599	2875.2227	3348.2	2466.5
1014.2766	2876.3574	3334.35	2452.9
1014.3933	2877.4915	3301.45	2420.65
1014.51	2878.6249	3275.55	2392.95
1014.6266	2879.7577	3247.2	2364
1014.7431	2880.8898	3252.95	2360.1
1014.8596	2882.0212	3227.4	2346.55
1014.9761	2883.152	3202.6	2320.7
1015.0925	2884.2821	3200.85	2320.4
1015.2089	2885.4116	3189.15	2308.95
1015.3253	2886.5405	3201.4	2320.85
1015.4416	2887.6686	3213.35	2330.2
1015.5579	2888.7962	3211.4	2330.9
1015.6741	2889.923	3220.4	2339.35
1015.7903	2891.0493	3223.75	2344.5
1015.9065	2892.1748	3228.6	2345.35
1016.0226	2893.2997	3242.75	2360.35
1016.1387	2894.424	3255.2	2373.75
1016.2547	2895.5476	3258.2	2376.85
1016.3707	2896.6706	3277.15	2396.65
1016.4866	2897.7929	3304.3	2423.4
1016.6025	2898.9145	3334.85	2453.75
1016.7184	2900.0355	3352	2470.1
1016.8342	2901.1559	3385.7	2503.3
1016.95	2902.2756	3402.15	2519.15
1017.0658	2903.3946	3447.9	2566.2
1017.1815	2904.513	3469.05	2584.75
1017.2971	2905.6308	3491.85	2612.15
1017.4127	2906.7479	3495.7	2613
1017.5283	2907.8643	3533.05	2652.25
1017.6439	2908.9801	3539.15	2657.9
1017.7594	2910.0953	3546.3	2665.6
1017.8748	2911.2098	3540.3	2656.35
1017.9902	2912.3236	3538.9	2648.8
1018.1056	2913.4368	3527	2641.7
1018.2209	2914.5494	3506.3	2623.7
1018.3362	2915.6613	3466.05	2577.8
1018.4515	2916.7725	3454.1	2569.6
1018.5667	2917.8831	3421.2	2538
1018.6819	2918.9931	3386.95	2502.55
1018.797	2920.1024	3358.5	2475.9
1018.9121	2921.211	3332.25	2452.25
1019.0271	2922.319	3326.75	2442.7
1019.1421	2923.4264	3323.3	2441.6
1019.2571	2924.5331	3302.3	2421.95
1019.372	2925.6391	3301.9	2422.25
1019.4869	2926.7445	3293.6	2411.45
1019.6017	2927.8493	3312.25	2429.95
1019.7165	2928.9534	3294.95	2413.8
1019.8313	2930.0569	3317.35	2433.15
1019.946	2931.1597	3318.45	2434.8
1020.0606	2932.2619	3319.85	2437.9
1020.1753	2933.3634	3327.7	2446.9
1020.2899	2934.4643	3322.4	2435.25
1020.4044	2935.5645	3326.85	2438.8
1020.5189	2936.6641	3306.05	2421.05
1020.6334	2937.763	3278.8	2398.25
1020.7478	2938.8613	3247.35	2365.6
1020.8622	2939.959	3202.9	2318.25
1020.9765	2941.056	3142.5	2259.8
1021.0908	2942.1523	3086.9	2206
1021.2051	2943.248	3013.45	2130
1021.3193	2944.3431	2941.45	2059.15
1021.4334	2945.4375	2847.3	1964.8
1021.5476	2946.5313	2758.25	1878.1
1021.6617	2947.6244	2668.8	1788.25
1021.7757	2948.7169	2570.7	1687.5
1021.8897	2949.8087	2478.05	1594.35
1022.0037	2950.8999	2397.3	1516.15
1022.1176	2951.9904	2321.2	1439.2
1022.2315	2953.0803	2250	1368.75
1022.3453	2954.1696	2201.3	1319.6
1022.4591	2955.2582	2149.7	1268.95
1022.5728	2956.3462	2112.55	1230.35
1022.6865	2957.4335	2073.45	1190.1
1022.8002	2958.5202	2040.85	1156.85
1022.9138	2959.6062	2013.15	1132.9
1023.0274	2960.6916	1991.1	1110.4
1023.141	2961.7764	1993	1108.55
1023.2545	2962.8605	1965	1082.65
1023.3679	2963.9439	1954	1073.65
1023.4813	2965.0267	1935	1053.4
1023.5947	2966.1089	1950.6	1047.95
1023.708	2967.1905	1928.75	1048.6
1023.8213	2968.2714	1917.65	1037.55
1023.9346	2969.3516	1928.5	1048.25
1024.0478	2970.4312	1936.1	1045.55
1024.1609	2971.5102	1923.9	1042.5
1024.274	2972.5885	1932	1049.3
1024.3871	2973.6662	1932.85	1046.45
1024.5002	2974.7432	1926.05	1045.6
1024.6132	2975.8196	1928.8	1048.6
1024.7261	2976.8954	1936.65	1055.85
1024.839	2977.9705	1925.55	1043.45
1024.9519	2979.045	1911.2	1030.15
1025.0647	2980.1188	1905.75	1027.5
1025.1775	2981.192	1881.6	1002
1025.2902	2982.2645	1873.45	991.4
1025.4029	2983.3364	1845.8	965.3
1025.5156	2984.4077	1816.8	934.65
1025.6282	2985.4783	1800.45	914.9
1025.7407	2986.5483	1768.15	886.35
1025.8532	2987.6177	1734.95	856.55
1025.9657	2988.6864	1706.1	824.8
1026.0782	2989.7545	1682	799.2
1026.1906	2990.8219	1647.35	767.6
1026.3029	2991.8887	1620.1	736.8
1026.4152	2992.9548	1586.2	705.95
1026.5275	2994.0204	1559.6	679.35
1026.6397	2995.0852	1537.15	657.2
1026.7519	2996.1495	1501.95	620.9
1026.864	2997.2131	1480.7	599.55
1026.9761	2998.276	1455.25	573.7
1027.0882	2999.3383	1443.2	562.65
1027.2002	3000.4	1419.65	537.2
1027.3122	3001.4611	1402.55	522.05
1027.4241	3002.5215	1381.25	499.7
1027.536	3003.5812	1366.25	485.65
1027.6478	3004.6404	1361.5	481.5
1027.7596	3005.6989	1349.2	463.2
1027.8714	3006.7567	1332.8	451.8
1027.9831	3007.8139	1344.85	436.85
1028.0947	3008.8705	1310.25	427.6
1028.2064	3009.9264	1319.15	419.65
1028.3179	3010.9818	1299.2	416.5
1028.4295	3012.0364	1293.6	412.3
1028.541	3013.0905	1291.75	409.45
1028.6524	3014.1439	1281.15	400.05
1028.7638	3015.1966	1279.5	399.7
1028.8752	3016.2487	1271.65	390.4
1028.9865	3017.3002	1268.65	384.3
1029.0978	3018.3511	1262.1	384.6
1029.209	3019.4013	1267.3	386.15
1029.3202	3020.4509	1257.9	376.6
1029.4314	3021.4998	1261	378.5
1029.5425	3022.5481	1258.6	379.85
1029.6535	3023.5958	1258.3	377.3
1029.7645	3024.6428	1259	377.9
1029.8755	3025.6892	1253.3	373.55
1029.9864	3026.735	1254.8	373.6
1030.0973	3027.7802	1250.7	369.5
1030.2082	3028.8247	1257.25	374.85
1030.319	3029.8685	1254.3	371.55
1030.4297	3030.9118	1253.5	373
1030.5404	3031.9544	1253.4	373.6
1030.6511	3032.9963	1258.9	377.15
1030.7617	3034.0376	1258.55	377.2
1030.8723	3035.0783	1260.7	378.7
1030.9829	3036.1184	1261.65	378.5
1031.0934	3037.1578	1265.85	384.65
1031.2038	3038.1966	1266	382.1
1031.3142	3039.2348	1265.25	386.6
1031.4246	3040.2723	1276.4	386.15
1031.5349	3041.3092	1261.9	383.25
1031.6452	3042.3455	1260.5	378.35
1031.7554	3043.3811	1264	382.05
1031.8656	3044.4161	1265.4	384.85
1031.9758	3045.4505	1261.95	380.25
1032.0859	3046.4842	1254.4	371.5
1032.1959	3047.5173	1257.3	376.45
1032.3059	3048.5498	1254.85	373.45
1032.4159	3049.5816	1253.4	371.85
1032.5258	3050.6128	1247	364.5
1032.6357	3051.6434	1253.05	368.15
1032.7455	3052.6734	1243.95	361.8
1032.8553	3053.7027	1244.5	363.05
1032.9651	3054.7314	1236.55	355.2
1033.0748	3055.7594	1237.25	358.35
1033.1845	3056.7868	1234	351.2
1033.2941	3057.8136	1234.6	355
1033.4037	3058.8398	1232.15	351.4
1033.5132	3059.8653	1222.4	338.6
1033.6227	3060.8902	1221.7	339.8
1033.7321	3061.9145	1222	339.7
1033.8415	3062.9381	1216.4	337.1
1033.9509	3063.9612	1236.15	338.85
1034.0602	3064.9835	1212.9	332.4
1034.1694	3066.0053	1215.6	334.65
1034.2787	3067.0264	1211.2	330.6
1034.3878	3068.0469	1208.7	325.95
1034.497	3069.0668	1204.15	321.8
1034.6061	3070.086	1196.8	318.8
1034.7151	3071.1046	1198.95	314.15
1034.8241	3072.1226	1188.4	306.4
1034.9331	3073.1399	1183.65	303.55
1035.042	3074.1567	1181.15	299.65
1035.1508	3075.1727	1169.8	285.5
1035.2597	3076.1882	1159.75	277.8
1035.3684	3077.203	1158.3	276.25
1035.4772	3078.2173	1150.75	268
1035.5859	3079.2308	1145.05	260.35
1035.6945	3080.2438	1139.5	257.35
1035.8031	3081.2561	1138.8	257.9
1035.9117	3082.2678	1129.4	250.65
1036.0202	3083.2789	1126.55	245.15
1036.1286	3084.2893	1114.75	234.1
1036.2371	3085.2991	1108.45	228.15
1036.3454	3086.3083	1114.45	227.7
1036.4538	3087.3169	1103.35	222
1036.562	3088.3248	1099.25	216.55
1036.6703	3089.3321	1098.5	215.6
1036.7785	3090.3388	1095.95	217.65
1036.8866	3091.3449	1084.65	204.35
1036.9948	3092.3503	1086.2	203.05
1037.1028	3093.3551	1081.3	201.25
1037.2108	3094.3593	1077.45	198.7
1037.3188	3095.3629	1075.25	193.55
1037.4267	3096.3658	1077.05	195.05
1037.5346	3097.3681	1073	191.95
1037.6425	3098.3698	1073.7	191.1
1037.7503	3099.3708	1071.5	182.75
1037.858	3100.3713	1061.6	182.35
1037.9657	3101.3711	1059.45	177.45
1038.0734	3102.3702	1195.2	173.2
1038.181	3103.3688	1061.3	180.3
1038.2886	3104.3667	1052.6	172.6
1038.3961	3105.364	1051.8	172.8
1038.5036	3106.3607	1055.9	173.1
1038.611	3107.3568	1047.9	164
1038.7184	3108.3522	1045.55	166.55
1038.8257	3109.347	1050.2	169.4
1038.933	3110.3412	1048.15	163.7
1039.0403	3111.3348	1041.6	161
1039.1475	3112.3277	1040.1	158.95
1039.2547	3113.32	1037.55	157.75
1039.3618	3114.3117	1036.2	153.55
1039.4689	3115.3028	1034.2	153.25
1039.5759	3116.2932	1031.3	147.75
1039.6829	3117.2831	1038.35	151.6
1039.7898	3118.2723	1027.95	146.9
1039.8967	3119.2608	1028.8	146.65
1040.0035	3120.2488	1026.5	145.05
1040.1103	3121.2361	1024.95	144.65
1040.2171	3122.2229	1023.25	142.1
1040.3238	3123.209	1025.7	143.9
1040.4305	3124.1944	1020.75	141.95
1040.5371	3125.1793	1020.3	135.2
1040.6437	3126.1635	1017.4	136.7
1040.7502	3127.1471	1014.85	133.6
1040.8567	3128.1301	1016.9	134.7
1040.9631	3129.1125	1015.25	133.6
1041.0695	3130.0942	1016.3	134.5
1041.1759	3131.0753	1020.25	130.6
1041.2822	3132.0558	1010.9	128.05
1041.3884	3133.0357	1007.5	126.15
1041.4946	3134.015	1010.6	128.1
1041.6008	3134.9936	1010.2	125.65
1041.7069	3135.9716	1030.05	127.6
1041.813	3136.949	1003.25	123.7
1041.919	3137.9258	1026.3	125.8
1042.025	3138.902	1008.45	122.75
1042.1309	3139.8775	1003.05	122.55
1042.2368	3140.8524	1004.3	124.55
1042.3427	3141.8267	1000.1	117.9
1042.4485	3142.8004	1001.65	119.5
1042.5542	3143.7735	1006.25	118.75
1042.6599	3144.7459	1002.15	120.2
1042.7656	3145.7178	991.45	111.15
1042.8712	3146.689	994.45	114.85
1042.9768	3147.6596	998.6	115.4
1043.0823	3148.6295	992.8	111.4
1043.1878	3149.5989	994	111.35
1043.2932	3150.5676	991.8	114.3
1043.3986	3151.5357	990.65	107.65
1043.5039	3152.5032	991.2	110.5
1043.6092	3153.4701	991.5	111.15
1043.7145	3154.4364	994.05	111.35
1043.8197	3155.402	990.4	111.75
1043.9248	3156.367	988.65	105.35
1044.03	3157.3315	1018.45	106.1
1044.135	3158.2952	989.1	107.8
1044.24	3159.2584	984.8	103.7
1044.345	3160.221	985.5	102.1
1044.4499	3161.1829	983.05	102.8
1044.5548	3162.1442	983.85	101.15
1044.6596	3163.105	983.4	103.75
1044.7644	3164.065	984.5	102
1044.8692	3165.0245	983.3	98.75
1044.9739	3165.9834	976.35	96.1
1045.0785	3166.9416	980.55	101.3
1045.1831	3167.8993	979.1	98.45
1045.2877	3168.8563	980.4	96.5
1045.3922	3169.8127	978.65	97.85
1045.4966	3170.7684	977	94.75
1045.6011	3171.7236	981.55	100.75
1045.7054	3172.6782	974.75	93.6
1045.8098	3173.6321	976.55	93.45
1045.914	3174.5854	977.3	89
1046.0183	3175.5381	975.55	94.6
1046.1224	3176.4902	975.95	95.2
1046.2266	3177.4417	969.75	89.35
1046.3307	3178.3926	975.7	94.75
1046.4347	3179.3428	969.7	88.8
1046.5387	3180.2924	971.75	91.85
1046.6427	3181.2415	970.9	90.95
1046.7466	3182.1899	971.25	89.3
1046.8504	3183.1377	970.65	90.35
1046.9542	3184.0848	974.15	91.15
1047.058	3185.0314	968.95	87.9
1047.1617	3185.9773	969.2	87.4
1047.2654	3186.9227	967.55	86
1047.369	3187.8674	968.2	86.4
1047.4726	3188.8115	972.1	88.15
1047.5761	3189.755	969.85	89.65
1047.6796	3190.6979	963.95	82.85
1047.783	3191.6402	968.3	90.05
1047.8864	3192.5818	965	82.15
1047.9898	3193.5229	984.45	83.65
1048.0931	3194.4633	966.4	86.5
1048.1963	3195.4031	963.85	82.8
1048.2995	3196.3423	961.15	80
1048.4027	3197.2809	963.55	80.3
1048.5058	3198.2189	962.75	81.2
1048.6089	3199.1563	979.05	82.25
1048.7119	3200.0931	959	78.2
1048.8148	3201.0292	956.9	75.55
1048.9178	3201.9648	960.65	78.65
1049.0206	3202.8997	963.35	79.45
1049.1235	3203.834	959.6	80.2
1049.2262	3204.7677	959	78.9
1049.329	3205.7008	958.8	75.1
1049.4317	3206.6333	959.8	81.15
1049.5343	3207.5652	961	79
1049.6369	3208.4964	957.4	75.2
1049.7394	3209.4271	953.3	73.25
1049.8419	3210.3571	955.95	73.45
1049.9444	3211.2865	959.55	76.65
1050.0468	3212.2154	955.1	71.35
1050.1491	3213.1436	955.95	71.2
1050.2514	3214.0712	959.05	72.2
1050.3537	3214.9982	953.25	72.9
1050.4559	3215.9246	956.25	74.4
1050.5581	3216.8503	953.55	74.5
1050.6602	3217.7755	951.85	69.6
1050.7623	3218.7001	950.45	69.8
1050.8643	3219.624	951.35	71.2
1050.9663	3220.5473	955.05	74.3
1051.0682	3221.4701	952.85	70
1051.1701	3222.3922	953.9	70.35
1051.2719	3223.3137	947.75	66.6
1051.3737	3224.2346	949.7	69.4
1051.4754	3225.1549	949.45	69.45
1051.5771	3226.0746	949.55	67.05
1051.6788	3226.9937	951.2	68.65
1051.7804	3227.9121	946.1	66.2
1051.8819	3228.83	949.55	68.8
1051.9834	3229.7473	947.7	66.6
1052.0849	3230.6639	946.8	66.15
1052.1863	3231.5799	946.55	67.5
1052.2876	3232.4954	946.5	63.2
1052.3889	3233.4102	947.15	66.55
1052.4902	3234.3244	945.2	61.85
1052.5914	3235.238	943.4	64.2
1052.6926	3236.151	964.15	59.1
1052.7937	3237.0634	941.5	60.1
1052.8948	3237.9752	942.3	60.65
1052.9958	3238.8864	942.9	60.1
1053.0968	3239.797	943.15	64.5
1053.1977	3240.7069	941.15	58.2
1053.2986	3241.6163	941.35	59.65
1053.3994	3242.5251	940.2	59.4
1053.5002	3243.4332	939.05	60.35
1053.6009	3244.3408	939.4	58.4
1053.7016	3245.2477	942.45	60.2
1053.8022	3246.154	942.85	59.8
1053.9028	3247.0598	936.45	54.3
1054.0034	3247.9649	937.9	57
1054.1039	3248.8694	935.8	55.1
1054.2043	3249.7733	936.85	56.7
1054.3047	3250.6766	937.7	56.15
1054.4051	3251.5793	935.95	55.4
1054.5054	3252.4814	936.25	54.95
1054.6056	3253.3829	934.45	54.2
1054.7058	3254.2838	933	51.45
1054.806	3255.1841	937.4	55.7
1054.9061	3256.0838	935	53.5
1055.0061	3256.9829	932.2	52.55
1055.1062	3257.8814	934.85	52.5
1055.2061	3258.7792	933.25	51.35
1055.306	3259.6765	934.75	52.2
1055.4059	3260.5731	932.9	52.9
1055.5057	3261.4692	930.85	50.3
1055.6055	3262.3647	932.15	50.25
1055.7052	3263.2595	930.9	49.5
1055.8049	3264.1538	928.75	47.55
1055.9045	3265.0474	929.1	47.25
1056.0041	3265.9404	926.7	45.7
1056.1036	3266.8329	924.3	42.15
1056.2031	3267.7247	937.25	44.1
1056.3025	3268.616	925.5	46.7
1056.4019	3269.5066	923.5	42.45
1056.5013	3270.3966	924.75	42.1
1056.6005	3271.286	921.75	40.85
