Software Version:	3.9.2.0
Unit SN:	10000200
Spectrometer SN:	6960
Date:	3/14/2024 1:56:47 PM
Data Line Index:	25
Spectral Points:	2048
Integration time (ms):	125
Averages:	20
Delay (ms):	30000
Sequence Number:	1
Processing:	dark subtract
Laser Power (mW):	305
Laser Current (mA):	823
Laser Diode Temp (C):	25
Laser Case Temp (C):	29
System Temp (C):	28.9
Spectrometer Temp (C):	26.8
CCD Temp (C):	0.009
Secondary Temp (C):	20.013
Heatsink Temp (C):	24.792
CCDPCB Temp (C):	38.041
SecondaryPCB Temp (C):	35.884

Wavelength	RamanShift	Raw Counts	Dark Subtracted
787.061	30.1047	462.75	50.7
787.2016	32.3739	466.6	58
787.3422	34.6426	472.05	61.1
787.4828	36.9109	475.5	65.95
787.6235	39.1787	486.95	70.9
787.7642	41.4461	495.5	75.3
787.9049	43.7131	506.8	82.05
788.0456	45.9796	512.35	83.95
788.1863	48.2456	525.75	93.35
788.3271	50.5112	535.15	99.25
788.4679	52.7764	543.85	105.5
788.6087	55.0411	550.8	110.3
788.7496	57.3054	563.75	117.4
788.8904	59.5692	574.1	124.9
789.0313	61.8326	587.4	134.35
789.1722	64.0955	601.95	143.45
789.3132	66.3579	623	161.35
789.4541	68.6199	634.9	169.5
789.5951	70.8815	667.6	199.4
789.7361	73.1426	751.4	280.35
789.8771	75.4032	947.25	469.5
790.0181	77.6634	1444.8	962.2
790.1592	79.9231	2599.1	2110.2
790.3003	82.1824	5165.1	4667.15
790.4414	84.4412	9954.9	9440.15
790.5825	86.6995	16688.35	16149.5
790.7237	88.9574	23488.35	22931.3
790.8648	91.2148	28314.2	27741.4
791.006	93.4717	30718.9	30135.25
791.1472	95.7282	31376.05	30787.75
791.2885	97.9842	31440.65	30850.35
791.4297	100.2398	30997.05	30404.55
791.571	102.4949	30445.5	29849.55
791.7123	104.7495	29715.95	29115.2
791.8536	107.0036	28939	28335.3
791.9949	109.2573	28184.2	27581.9
792.1363	111.5105	27417.4	26813.75
792.2777	113.7632	26645.45	26041.35
792.4191	116.0154	25993.2	25377.45
792.5605	118.2672	25523.55	24914.25
792.7019	120.5185	25019.3	24410.3
792.8434	122.7693	24603.8	23990.4
792.9849	125.0197	24334.2	23721.2
793.1264	127.2696	24022.35	23404
793.2679	129.519	23892.05	23273.15
793.4094	131.7679	23702.35	23074.95
793.551	134.0163	23604.75	22976.65
793.6926	136.2642	23417.25	22785.2
793.8342	138.5117	23240.55	22599.8
793.9758	140.7587	23038.25	22403
794.1175	143.0052	22878.6	22239.8
794.2591	145.2512	22635.75	21997.7
794.4008	147.4967	22426.1	21786.8
794.5425	149.7417	22262.9	21622.25
794.6842	151.9863	22168.95	21525.5
794.826	154.2304	22083.85	21434
794.9677	156.4739	21948.25	21296.25
795.1095	158.717	21892.55	21243.1
795.2513	160.9596	21701.65	21042.7
795.3931	163.2017	21418.45	20761.6
795.535	165.4433	21168.15	20505.55
795.6768	167.6844	20791.35	20128.7
795.8187	169.925	20449.9	19784.85
795.9606	172.1651	20053.6	19383.9
796.1025	174.4047	19755.3	19083.2
796.2445	176.6439	19451.15	18777.8
796.3864	178.8825	19162.3	18487.65
796.5284	181.1206	19046.75	18369.55
796.6704	183.3582	18840.55	18154.4
796.8124	185.5954	18701.85	18019.35
796.9544	187.832	18578.6	17890.25
797.0965	190.0681	18543.1	17852.6
797.2386	192.3037	18526.15	17831.85
797.3806	194.5388	18513.85	17818.05
797.5228	196.7734	18552.5	17853.4
797.6649	199.0075	18594.4	17892.55
797.807	201.2411	18767.25	18062.95
797.9492	203.4742	18808.85	18109
798.0914	205.7068	18927.3	18222.1
798.2336	207.9389	19004.8	18298.55
798.3758	210.1704	19158.45	18449.05
798.518	212.4015	19268	18557.5
798.6603	214.632	19450.95	18739.7
798.8025	216.862	19637.65	18930.95
798.9448	219.0915	19760.55	19063.95
799.0871	221.3205	19978	19284.4
799.2294	223.549	20261.05	19571.75
799.3718	225.777	20596.4	19906.5
799.5141	228.0044	21023.75	20332.35
799.6565	230.2314	21541.3	20848.2
799.7989	232.4578	22046.5	21354.05
799.9413	234.6837	22429.3	21729.45
800.0837	236.909	22672.05	21967.95
800.2262	239.1339	22645.25	21922.65
800.3687	241.3582	22339.7	21629.3
800.5111	243.582	21926.5	21189.4
800.6536	245.8053	21512.55	20784.25
800.7961	248.0281	21119	20398
800.9387	250.2503	20802.9	20073.85
801.0812	252.472	20619.45	19886.5
801.2238	254.6932	20502.65	19767.4
801.3664	256.9139	20343.4	19608.6
801.509	259.134	20274.95	19533.75
801.6516	261.3536	20229	19489.55
801.7942	263.5727	20207.9	19468.75
801.9369	265.7912	20075.35	19338.25
802.0795	268.0092	20028.8	19290.55
802.2222	270.2267	19918.95	19179.15
802.3649	272.4436	19860.8	19117.65
802.5076	274.6601	19807.1	19058.4
802.6504	276.8759	19714.8	18974.1
802.7931	279.0913	19675.45	18929
802.9359	281.3061	19705.75	18957.6
803.0787	283.5204	19787.95	19038
803.2215	285.7341	19889.4	19135.85
803.3643	287.9473	20098.15	19332.25
803.5071	290.16	20367.45	19607.65
803.6499	292.3721	20679.6	19925.4
803.7928	294.5837	21098.95	20344.4
803.9357	296.7947	21512.9	20761.2
804.0786	299.0052	21691.2	20937.55
804.2215	301.2152	21528.05	20767.6
804.3644	303.4246	21127.1	20375.7
804.5074	305.6334	20469.25	19712.3
804.6503	307.8418	19931	19174.25
804.7933	310.0495	19465.45	18706.55
804.9363	312.2568	19160.6	18402.15
805.0793	314.4635	18922.3	18164.1
805.2223	316.6696	18842.1	18081.5
805.3653	318.8752	18853.6	18084.75
805.5084	321.0802	18903.95	18140.1
805.6514	323.2847	19027.15	18265.45
805.7945	325.4887	19096.1	18332.25
805.9376	327.692	19012.5	18247.15
806.0807	329.8949	18866.75	18101.85
806.2238	332.0972	18541.6	17773.85
806.367	334.2989	18258.95	17488.35
806.5101	336.5001	17957	17183.85
806.6533	338.7007	17732.55	16962.2
806.7965	340.9008	17609.65	16836
806.9397	343.1003	17485.4	16710.5
807.0829	345.2992	17418.55	16642.6
807.2261	347.4976	17411.6	16633.4
807.3693	349.6955	17392.15	16610.95
807.5126	351.8927	17480.15	16699.65
807.6559	354.0895	17420.95	16628.35
807.7991	356.2856	17497	16713.65
807.9424	358.4812	17471.65	16691.2
808.0857	360.6763	17452.45	16668.2
808.2291	362.8707	17427.45	16643.25
808.3724	365.0646	17428.1	16640.9
808.5158	367.258	17395.7	16604.25
808.6591	369.4508	17431.75	16640.8
808.8025	371.643	17456.35	16665.3
808.9459	373.8346	17403.75	16610.8
809.0893	376.0257	17362.6	16566.25
809.2327	378.2162	17283.4	16484.55
809.3762	380.4062	17164.1	16362.2
809.5196	382.5956	17000.85	16198.25
809.6631	384.7844	16863.85	16061.05
809.8066	386.9726	16744.55	15942.15
809.9501	389.1603	16679.5	15875.2
810.0936	391.3474	16618.95	15785.3
810.2371	393.5339	16573.4	15772.35
810.3806	395.7199	16507.9	15711.85
810.5241	397.9052	16508	15714.75
810.6677	400.09	16527.3	15731.4
810.8113	402.2743	16527.45	15737.15
810.9548	404.4579	16579.1	15787.4
811.0984	406.641	16731.8	15938.8
811.2421	408.8235	16961.6	16170.95
811.3857	411.0054	17291	16496.85
811.5293	413.1868	17770.9	16972.35
811.673	415.3675	18147	17348.35
811.8166	417.5477	18400.1	17601.55
811.9603	419.7273	18402.75	17602.9
812.104	421.9064	18265.25	17456.75
812.2477	424.0848	18103.6	17296.9
812.3914	426.2627	17880.1	17073.05
812.5351	428.4399	17576.35	16768.05
812.6788	430.6166	17173.65	16361.5
812.8226	432.7928	16753.45	15940.5
812.9663	434.9683	16427.75	15613.95
813.1101	437.1432	16188.4	15373.15
813.2539	439.3176	16007.65	15193.9
813.3977	441.4914	15894.4	15076.1
813.5415	443.6645	15826.05	15004.2
813.6853	445.8371	15762.1	14945
813.8291	448.0091	15661.75	14849
813.973	450.1806	15627.65	14810.55
814.1168	452.3514	15517.35	14696.8
814.2607	454.5216	15512.55	14686.5
814.4046	456.6913	15434.55	14611.6
814.5485	458.8603	15432.6	14613.7
814.6924	461.0288	15485.2	14663.1
814.8363	463.1967	15525.95	14706.45
814.9802	465.3639	15652.65	14831.05
815.1241	467.5306	15754.45	14931.8
815.2681	469.6967	15924.2	15099.7
815.412	471.8622	16087.55	15265.2
815.556	474.0271	16247.3	15423.75
815.7	476.1914	16286.1	15460.6
815.844	478.3551	16258.55	15435.35
815.988	480.5182	16230.9	15405.3
816.132	482.6807	16199.8	15375.55
816.276	484.8426	16196.55	15372.25
816.4201	487.0039	16511.65	15685.3
816.5641	489.1647	16911.9	16083.9
816.7082	491.3248	17336.3	16509.35
816.8522	493.4843	17537.7	16714.65
816.9963	495.6432	17532.8	16706.25
817.1404	497.8015	17442.7	16611.75
817.2845	499.9592	17475.15	16649.15
817.4286	502.1163	17445.4	16621
817.5727	504.2728	17189.3	16361.4
817.7168	506.4287	16844.4	16015.35
817.861	508.5839	16371.25	15544.3
818.0051	510.7386	16017.75	15188.25
818.1493	512.8927	15763.4	14926.9
818.2935	515.0461	15609.6	14780.1
818.4377	517.199	15518.7	14685.95
818.5818	519.3512	15467.15	14634.35
818.726	521.5029	15462.65	14623.85
818.8703	523.6539	15483.5	14648
819.0145	525.8043	15471.45	14637.8
819.1587	527.9541	15506.25	14671.3
819.303	530.1033	15504.75	14671.65
819.4472	532.2519	15582.95	14748.05
819.5915	534.3999	15726.05	14887.75
819.7357	536.5472	16073.1	15233.5
819.88	538.694	16571.05	15732.05
820.0243	540.8401	17231.8	16393.2
820.1686	542.9856	17818.1	16976.15
820.3129	545.1305	17953.5	17113.3
820.4572	547.2748	17755.05	16914.65
820.6016	549.4185	17322.5	16478.95
820.7459	551.5615	16897.6	16057.05
820.8902	553.704	16705.95	15864.55
821.0346	555.8458	16573.65	15734.25
821.1789	557.987	16536.85	15698.9
821.3233	560.1276	16466.3	15622.25
821.4677	562.2675	16365.2	15528
821.6121	564.4069	16254.05	15415.15
821.7565	566.5456	16166.55	15326.25
821.9009	568.6837	16000.45	15160.15
822.0453	570.8212	15732.2	14892.5
822.1897	572.958	15464.65	14622.9
822.3342	575.0942	15246.85	14406.25
822.4786	577.2299	15120.8	14281.6
822.6231	579.3648	15135.8	14294.55
822.7675	581.4992	15202.95	14361.35
822.912	583.6329	15395.7	14555.5
823.0565	585.766	15655.6	14815.1
823.201	587.8985	15797.2	14958
823.3454	590.0304	15765.65	14900.55
823.4899	592.1616	15682.25	14833.9
823.6345	594.2922	15591.1	14749.25
823.779	596.4222	15423.15	14578.65
823.9235	598.5515	15251.6	14407.85
824.068	600.6802	15041.55	14198.9
824.2126	602.8083	14828.5	13983.45
824.3571	604.9358	14742	13894.5
824.5017	607.0626	14644.4	13798
824.6462	609.1888	14565.7	13715.65
824.7908	611.3144	14451.4	13603.6
824.9354	613.4393	14300.8	13452.35
825.08	615.5636	14147.1	13300.8
825.2246	617.6873	14026.8	13183.75
825.3692	619.8103	13946.35	13095.8
825.5138	621.9327	13914.05	13064.8
825.6584	624.0544	13841.8	12995.25
825.803	626.1756	13859.8	13014.35
825.9477	628.2961	13767.25	12919.4
826.0923	630.4159	13724.8	12876.1
826.237	632.5351	13674.65	12827.2
826.3816	634.6537	13600.9	12750.85
826.5263	636.7716	13558.85	12706
826.6709	638.8889	13544.4	12693.35
826.8156	641.0056	13553.75	12704
826.9603	643.1216	13533.5	12682.8
827.105	645.237	13563	12709.45
827.2497	647.3518	13549.7	12699.55
827.3944	649.4659	13546.05	12693.95
827.5391	651.5793	13551.7	12698.1
827.6838	653.6922	13520.95	12671.8
827.8285	655.8043	13495.55	12643.05
827.9733	657.9159	13468.35	12615.15
828.118	660.0268	13359.1	12501.9
828.2627	662.137	13326.35	12472.75
828.4075	664.2466	13243.9	12389.5
828.5522	666.3556	13194.45	12339.4
828.697	668.4639	13162.65	12305.4
828.8418	670.5716	13228.8	12372.9
828.9865	672.6786	13306.9	12448.95
829.1313	674.785	13360.3	12505
829.2761	676.8907	13433.3	12578.8
829.4209	678.9958	13496.95	12642.9
829.5657	681.1002	13475.2	12618.45
829.7105	683.204	13429.7	12569.05
829.8553	685.3072	13357.35	12500.7
830.0001	687.4097	13259.65	12403.7
830.1449	689.5115	13202.3	12341.25
830.2898	691.6127	13125.05	12270.2
830.4346	693.7132	13033.75	12176.55
830.5794	695.8131	12953.25	12073.85
830.7243	697.9123	12904.8	12045.2
830.8691	700.0109	12850.05	11990.6
831.014	702.1089	12794.95	11936.85
831.1588	704.2061	12780.75	11921.75
831.3037	706.3028	12845.25	11982.6
831.4486	708.3987	12854.45	11997.35
831.5935	710.4941	12948.45	12091.45
831.7383	712.5887	13154.2	12294.45
831.8832	714.6827	13445.4	12579.7
832.0281	716.7761	13833.65	12972.75
832.173	718.8688	14214.45	13352.7
832.3179	720.9608	14387.4	13521.7
832.4628	723.0522	14403.4	13539.3
832.6077	725.1429	14119.15	13257.45
832.7527	727.233	13762.65	12899.6
832.8976	729.3224	13449.45	12586.25
833.0425	731.4112	13104.2	12241.7
833.1874	733.4993	12883.55	12019.15
833.3324	735.5867	12709.35	11845.05
833.4773	737.6735	12630.55	11766.5
833.6222	739.7596	12550.8	11686.25
833.7672	741.845	12524.3	11658.95
833.9122	743.9298	12481.5	11616.4
834.0571	746.014	12489.55	11627.05
834.2021	748.0974	12476.1	11611.05
834.347	750.1802	12426.05	11564.45
834.492	752.2624	12447	11585.25
834.637	754.3439	12462.45	11596.6
834.782	756.4247	12517.85	11643.15
834.9269	758.5048	12593.25	11728.35
835.0719	760.5843	12788.5	11925
835.2169	762.6631	13020.15	12155.65
835.3619	764.7413	13468.3	12606
835.5069	766.8188	14046.85	13179.65
835.6519	768.8956	14486.5	13617.95
835.7969	770.9718	14829.2	13965.15
835.9419	773.0473	14652.65	13788.1
836.0869	775.1221	14292.3	13425.7
836.232	777.1962	13894.4	13029.4
836.377	779.2697	13703.6	12836.85
836.522	781.3426	13759.65	12874.9
836.667	783.4147	14027	13162.55
836.8121	785.4862	14352.9	13488.45
836.9571	787.557	14360.05	13494.3
837.1021	789.6271	14017.65	13150.2
837.2472	791.6966	13431.2	12565.25
837.3922	793.7654	12868.65	12003.25
837.5373	795.8335	12539.4	11673.05
837.6823	797.901	12363.8	11497.55
837.8274	799.9678	12280.2	11409.5
837.9724	802.0339	12272.15	11405.55
838.1175	804.0993	12353.5	11479.25
838.2626	806.1641	12316.6	11448.6
838.4076	808.2282	12212.7	11345.3
838.5527	810.2916	12109.3	11238.1
838.6978	812.3544	12012.3	11148.05
838.8428	814.4164	11938.35	11070.9
838.9879	816.4778	11890.35	11021.5
839.133	818.5385	11866.45	11000.35
839.2781	820.5986	11891.8	11025.45
839.4232	822.658	11990.1	11120.7
839.5682	824.7166	12017.8	11151.2
839.7133	826.7747	12161	11292.55
839.8584	828.832	12303.2	11434.8
840.0035	830.8886	12379.05	11510.5
840.1486	832.9446	12531.35	11661
840.2937	834.9999	12588.05	11721.3
840.4388	837.0545	12607.2	11734.25
840.5839	839.1085	12655.25	11785.8
840.729	841.1618	12643.15	11769.2
840.8741	843.2143	12618.1	11748.55
841.0192	845.2662	12531.55	11662.25
841.1643	847.3175	12472.1	11604.85
841.3095	849.368	12337.25	11466.6
841.4546	851.4179	12209.85	11342.05
841.5997	853.467	12050.55	11182.2
841.7448	855.5155	11929.25	11060.25
841.8899	857.5633	11808.55	10938.9
842.0351	859.6105	11701.25	10829.95
842.1802	861.6569	11576.2	10709.35
842.3253	863.7027	11509.75	10638.25
842.4704	865.7478	11512.85	10640.3
842.6156	867.7922	11508.3	10636.8
842.7607	869.8359	11541.5	10670.75
842.9058	871.8789	11657.45	10783.7
843.0509	873.9212	11857.85	10953.25
843.1961	875.9629	11968	11096
843.3412	878.0039	12165.35	11292.4
843.4863	880.0441	12221.25	11351.55
843.6315	882.0837	12223.75	11349.3
843.7766	884.1226	12080.35	11207.1
843.9218	886.1609	11927.9	11056.9
844.0669	888.1984	11785.75	10915.15
844.212	890.2352	11749.25	10877.35
844.3572	892.2714	11689.95	10814.25
844.5023	894.3069	11647.5	10775.4
844.6475	896.3416	11558	10685.1
844.7926	898.3757	11514.85	10642.25
844.9377	900.4091	11501.65	10629.8
845.0829	902.4418	11515.25	10639.2
845.228	904.4739	11498.25	10621.6
845.3732	906.5052	11496.1	10622.4
845.5183	908.5358	11391.75	10519.25
845.6635	910.5658	11248.2	10373.5
845.8086	912.595	11058.4	10183.05
845.9538	914.6236	10901.55	10030.75
846.0989	916.6515	10857.25	9984.35
846.2441	918.6786	10831.65	9957.95
846.3892	920.7051	10897.9	10020.65
846.5344	922.7309	10991.7	10120.25
846.6795	924.756	11062.4	10187.45
846.8246	926.7804	11124.1	10248.55
846.9698	928.8041	11073.7	10199.45
847.1149	930.8272	11099.85	10226.35
847.2601	932.8495	11008.75	10133.95
847.4052	934.8711	10954.3	10074.85
847.5504	936.892	10781.65	9907.7
847.6955	938.9123	10599.8	9723.5
847.8407	940.9318	10455.95	9579.5
847.9858	942.9506	10340.55	9466.35
848.131	944.9688	10231.9	9355.45
848.2761	946.9862	10182.9	9308.45
848.4213	949.003	10119.95	9245.7
848.5664	951.019	10117.95	9243.2
848.7115	953.0344	10139.6	9262.3
848.8567	955.0491	10158.4	9281.75
849.0018	957.063	10220.25	9344.5
849.147	959.0763	10297.65	9423.85
849.2921	961.0888	10333.75	9456.2
849.4373	963.1007	10418.6	9543.3
849.5824	965.1119	10469.85	9594.55
849.7275	967.1223	10480.2	9603.5
849.8727	969.1321	10495.15	9620.65
850.0178	971.1412	10521.5	9646.4
850.1629	973.1495	10537	9662.55
850.3081	975.1572	10598.85	9687.45
850.4532	977.1641	10589.1	9711
850.5983	979.1704	10564.2	9684.85
850.7435	981.1759	10537.85	9660
850.8886	983.1808	10586.7	9709.15
851.0337	985.1849	10685.45	9801.4
851.1788	987.1884	10840.1	9964.05
851.324	989.1911	11043.2	10164.3
851.4691	991.1932	11188.55	10307.5
851.6142	993.1945	11219.2	10344.7
851.7593	995.1951	11180.35	10302.7
851.9045	997.1951	11136.8	10253.7
852.0496	999.1943	11059.6	10184.95
852.1947	1001.1928	11004.45	10127.55
852.3398	1003.1906	10954	10081.95
852.4849	1005.1877	10979.65	10103.05
852.63	1007.1841	10932.4	10055.25
852.7751	1009.1798	10873.3	9996.15
852.9202	1011.1748	10664.45	9789.2
853.0653	1013.1691	10418.3	9540.9
853.2104	1015.1627	10195	9315.8
853.3555	1017.1556	9986.95	9112.55
853.5006	1019.1477	9920	9041.6
853.6457	1021.1392	9826.1	8951
853.7908	1023.1299	9820.8	8943.45
853.9359	1025.12	9831.05	8949.7
854.081	1027.1093	9880.45	9003.6
854.2261	1029.0979	9951.35	9075.7
854.3712	1031.0859	10016.4	9137.9
854.5163	1033.0731	10021.6	9142.8
854.6613	1035.0596	9900.85	9023.5
854.8064	1037.0454	9780	8903.55
854.9515	1039.0304	9640.3	8760.8
855.0965	1041.0148	9515.65	8639.1
855.2416	1042.9985	9404.75	8526.25
855.3867	1044.9814	9380.7	8504.65
855.5317	1046.9636	9306.8	8426.6
855.6768	1048.9452	9284.7	8409.6
855.8219	1050.926	9284.4	8406.4
855.9669	1052.9061	9256.85	8379.45
856.112	1054.8855	9235.8	8358.55
856.257	1056.8642	9281.8	8405.1
856.4021	1058.8421	9310	8429.35
856.5471	1060.8194	9334.35	8456.5
856.6921	1062.7959	9361.65	8485.2
856.8372	1064.7717	9361.65	8481.75
856.9822	1066.7469	9355.75	8478.05
857.1272	1068.7213	9335	8455.2
857.2723	1070.695	9301.9	8424.4
857.4173	1072.6679	9215.25	8335.65
857.5623	1074.6402	9155.2	8275.65
857.7073	1076.6117	9142.5	8259.4
857.8523	1078.5826	9153.2	8273.25
857.9973	1080.5527	9218.2	8336.8
858.1423	1082.5221	9332.25	8455.85
858.2873	1084.4908	9538.7	8661.6
858.4323	1086.4587	9737.7	8858.45
858.5773	1088.426	9881.9	9001.9
858.7223	1090.3925	9900.3	9018.2
858.8673	1092.3584	9798.55	8923.75
859.0123	1094.3235	9660.8	8783.55
859.1573	1096.2879	9517.65	8638.75
859.3022	1098.2515	9494	8613.5
859.4472	1100.2145	9533.4	8654.7
859.5922	1102.1767	9602	8721.1
859.7371	1104.1382	9750.45	8870.45
859.8821	1106.099	9945.75	9064.25
860.027	1108.0591	10155.8	9278.6
860.172	1110.0185	10309.65	9427.85
860.3169	1111.9771	10271.35	9394.75
860.4619	1113.9351	10034.35	9155.85
860.6068	1115.8923	9717.1	8837.25
860.7517	1117.8488	9375.5	8492.2
860.8967	1119.8045	9094.25	8213.25
861.0416	1121.7596	8959.05	8078.95
861.1865	1123.7139	8890.3	8011.45
861.3314	1125.6675	8885.7	8007.05
861.4763	1127.6204	8931.1	8052.45
861.6212	1129.5726	8929.1	8049.4
861.7661	1131.524	8941.75	8063.4
861.911	1133.4748	8988.2	8111.15
862.0559	1135.4248	8992.4	8112.45
862.2008	1137.3741	9002.6	8124.65
862.3457	1139.3226	8981.4	8098.3
862.4905	1141.2705	8913.45	8035.5
862.6354	1143.2176	8828.6	7945.3
862.7803	1145.164	8841.35	7961.35
862.9251	1147.1097	8872	7992.55
863.07	1149.0546	8853.25	7973.35
863.2148	1150.9989	8746.1	7866.05
863.3597	1152.9424	8581.05	7700.5
863.5045	1154.8852	8383.7	7502.9
863.6493	1156.8272	8266.8	7389.05
863.7942	1158.7686	8187.55	7297.9
863.939	1160.7092	8146	7265
864.0838	1162.6491	8144.7	7262.8
864.2286	1164.5883	8193.25	7313.2
864.3734	1166.5267	8258.75	7378.4
864.5182	1168.4644	8416.65	7536.4
864.663	1170.4014	8595.75	7710.45
864.8078	1172.3377	8795.1	7917.45
864.9526	1174.2732	9050.2	8167.9
865.0974	1176.2081	9252.95	8373.4
865.2421	1178.1421	9425.65	8543.5
865.3869	1180.0755	9551	8672.95
865.5317	1182.0082	9613	8733.1
865.6764	1183.9401	9545.55	8666.25
865.8212	1185.8713	9357.8	8476.85
865.9659	1187.8017	9132.55	8251.65
866.1106	1189.7315	8866.05	7985.35
866.2554	1191.6605	8615.75	7707.65
866.4001	1193.5888	8418.3	7537.5
866.5448	1195.5163	8309.45	7431.45
866.6895	1197.4432	8190.5	7307.9
866.8342	1199.3693	8142.7	7262.85
866.9789	1201.2947	8061	7179.15
867.1236	1203.2193	8072.95	7192.55
867.2683	1205.1432	8126.25	7243.35
867.413	1207.0664	8126.15	7247.1
867.5576	1208.9889	8191.7	7307.15
867.7023	1210.9106	8237.2	7358.4
867.847	1212.8316	8316.9	7436.35
867.9916	1214.7519	8400.1	7511.85
868.1363	1216.6715	8404.75	7524.75
868.2809	1218.5903	8408.9	7529.1
868.4255	1220.5084	8334.4	7452.8
868.5701	1222.4257	8323.65	7444.85
868.7148	1224.3424	8252.85	7371.55
868.8594	1226.2583	8322.45	7438.8
869.004	1228.1735	8408.75	7527.85
869.1486	1230.0879	8523.65	7643.9
869.2932	1232.0016	8634.2	7752.65
869.4377	1233.9146	8661.25	7780.35
869.5823	1235.8269	8578.35	7699.45
869.7269	1237.7384	8443.9	7564.15
869.8715	1239.6492	8235.1	7354.95
870.016	1241.5592	8122.9	7240.4
870.1606	1243.4686	8051.1	7171.2
870.3051	1245.3772	7981.8	7102.35
870.4496	1247.285	7929.6	7048.35
870.5941	1249.1922	7885.1	7004.3
870.7387	1251.0986	7868.15	6988.8
870.8832	1253.0042	7877.15	6995.05
871.0277	1254.9092	7934.8	7053.55
871.1722	1256.8134	8013.15	7133.9
871.3167	1258.7169	8156.65	7275.7
871.4611	1260.6196	8310.05	7430.05
871.6056	1262.5216	8492.55	7609.35
871.7501	1264.4229	8640.4	7760.45
871.8945	1266.3234	8761.85	7878.9
872.039	1268.2232	8810.7	7929.4
872.1834	1270.1223	8785.55	7904.9
872.3278	1272.0207	8787.4	7907.1
872.4723	1273.9183	8728	7840.9
872.6167	1275.8151	8640.55	7760.5
872.7611	1277.7113	8565.9	7686.15
872.9055	1279.6067	8403.45	7523.95
873.0499	1281.5014	8251.5	7370.2
873.1943	1283.3953	8143.5	7261.6
873.3386	1285.2885	8084.65	7204.4
873.483	1287.181	8028.85	7147.8
873.6274	1289.0727	8074.8	7194.45
873.7717	1290.9637	8118.4	7236.85
873.9161	1292.854	8203	7322.2
874.0604	1294.7435	8343.65	7463.7
874.2047	1296.6323	8536.4	7654.35
874.349	1298.5204	8777.1	7894.15
874.4933	1300.4077	9008.45	8127
874.6376	1302.2943	9188.5	8306.25
874.7819	1304.1802	9259.05	8377.95
874.9262	1306.0653	9177.6	8293.5
875.0705	1307.9497	9045.4	8166
875.2147	1309.8333	8930.25	8046.8
875.359	1311.7162	8918.8	8037.2
875.5032	1313.5984	8975.35	8091.8
875.6475	1315.4798	9130.8	8237.05
875.7917	1317.3605	9263.15	8363.4
875.9359	1319.2405	9391.35	8506.8
876.0801	1321.1197	9424.15	8540.1
876.2243	1322.9982	9339.75	8455.4
876.3685	1324.876	9303.95	8423.45
876.5127	1326.753	9271.15	8388.85
876.6569	1328.6293	9289.35	8405.4
876.801	1330.5048	9299.65	8415.95
876.9452	1332.3796	9265.95	8384.85
877.0893	1334.2537	9264.1	8354
877.2335	1336.127	9184.6	8305.1
877.3776	1337.9996	9146.65	8264.65
877.5217	1339.8714	9119.3	8236.8
877.6658	1341.7426	9070.35	8146.4
877.8099	1343.6129	9027.65	8147.15
877.954	1345.4826	8936.1	8052.9
878.0981	1347.3515	8903.8	8019.2
878.2422	1349.2196	8859.9	7976.55
878.3862	1351.087	8857.4	7976.45
878.5303	1352.9537	8905	8021.8
878.6743	1354.8197	9016.3	8133.1
878.8184	1356.6849	9172.6	8292.1
878.9624	1358.5493	9276.6	8394.1
879.1064	1360.4131	9292.85	8411.2
879.2504	1362.276	9208.75	8327.7
879.3944	1364.1383	9059.95	8178.8
879.5384	1365.9998	8825.45	7938.2
879.6823	1367.8606	8526.65	7644.55
879.8263	1369.7206	8250.65	7369.95
879.9702	1371.5799	8090.45	7206.55
880.1142	1373.4384	7964.7	7085.35
880.2581	1375.2962	7817.2	6933.55
880.402	1377.1533	7611.1	6729
880.5459	1379.0096	7334.1	6451.35
880.6898	1380.8652	7054.35	6170.25
880.8337	1382.7201	6779.8	5898.55
880.9776	1384.5742	6583.35	5697.05
881.1215	1386.4275	6431	5548.85
881.2653	1388.2802	6317.45	5436.6
881.4092	1390.132	6231.85	5347.95
881.553	1391.9832	6168.1	5283.05
881.6968	1393.8336	6108.95	5227.4
881.8406	1395.6832	6085.4	5201.45
881.9844	1397.5322	6051.15	5167.8
882.1282	1399.3803	6033.6	5144.6
882.272	1401.2278	6000.25	5117.95
882.4158	1403.0745	6016.8	5133.85
882.5595	1404.9204	6010.5	5128.9
882.7033	1406.7656	6036.2	5152.85
882.847	1408.6101	6045.75	5164.25
882.9908	1410.4538	6051.9	5170.1
883.1345	1412.2968	6105.3	5223.6
883.2782	1414.139	6148.25	5268.15
883.4219	1415.9805	6245.9	5365.05
883.5656	1417.8213	6329.95	5440.4
883.7092	1419.6613	6463.65	5582.9
883.8529	1421.5006	6640.55	5757.45
883.9965	1423.3391	6920.6	6039.5
884.1402	1425.1769	7259.95	6376.5
884.2838	1427.0139	7793.75	6910.5
884.4274	1428.8502	8376.05	7489.5
884.571	1430.6858	8959.75	8076.75
884.7146	1432.5206	9389.25	8505.7
884.8582	1434.3547	9627.9	8742.65
885.0018	1436.188	9680.7	8799.45
885.1453	1438.0206	9618.15	8735.75
885.2889	1439.8524	9454.25	8572
885.4324	1441.6835	9342.85	8461.05
885.5759	1443.5139	9241.9	8355.45
885.7194	1445.3435	9171.75	8291.8
885.8629	1447.1724	9152.95	8268.7
886.0064	1449.0005	9057.1	8175.6
886.1499	1450.8279	8957.45	8070.8
886.2933	1452.6545	8918.1	8036.25
886.4368	1454.4804	8961.25	8079.35
886.5802	1456.3056	8953.65	8064.75
886.7237	1458.13	8848.8	7967.3
886.8671	1459.9536	8611.8	7728.25
887.0105	1461.7766	8255.8	7375.65
887.1539	1463.5987	7846.35	6961.8
887.2972	1465.4202	7466.45	6585.25
887.4406	1467.2409	7110.7	6228.5
887.584	1469.0608	6843.75	5962.2
887.7273	1470.88	6567.55	5685.7
887.8706	1472.6984	6347.15	5465
888.0139	1474.5161	6138.75	5252.4
888.1572	1476.3331	6004.05	5123.6
888.3005	1478.1493	5870.15	4987.5
888.4438	1479.9648	5786.65	4906.7
888.5871	1481.7795	5692.9	4809.9
888.7303	1483.5935	5619.4	4738.85
888.8736	1485.4067	5562.5	4680.45
889.0168	1487.2192	5529.7	4646.45
889.16	1489.031	5468.55	4584.9
889.3032	1490.842	5432.4	4549.25
889.4464	1492.6522	5396.6	4516
889.5896	1494.4618	5370.85	4488.6
889.7327	1496.2705	5343.75	4460.6
889.8759	1498.0785	5318.85	4436.3
890.019	1499.8858	5289.05	4407.45
890.1622	1501.6924	5275.1	4393
890.3053	1503.4981	5239.3	4358.3
890.4484	1505.3032	5225.55	4341.35
890.5914	1507.1075	5191.1	4310.45
890.7345	1508.911	5177.25	4295.75
890.8776	1510.7138	5150.6	4268.75
891.0206	1512.5159	5120.15	4235.85
891.1637	1514.3172	5070.5	4185.9
891.3067	1516.1178	5044.55	4162.15
891.4497	1517.9176	5020	4135
891.5927	1519.7166	4993.45	4111.7
891.7357	1521.515	4988.9	4099.35
891.8786	1523.3126	4960.35	4079.15
892.0216	1525.1094	4928.35	4043.15
892.1645	1526.9055	4921.55	4040.9
892.3074	1528.7008	4880.45	3998.95
892.4503	1530.4954	4866.55	3983.15
892.5932	1532.2893	4856.1	3972.65
892.7361	1534.0824	4830.45	3943.2
892.879	1535.8747	4857.3	3974.25
893.0218	1537.6663	4832.65	3951.75
893.1647	1539.4572	4818.4	3934.85
893.3075	1541.2473	4798.4	3913.45
893.4503	1543.0367	4803.9	3922.55
893.5931	1544.8253	4796.35	3909.6
893.7359	1546.6132	4823.9	3939.15
893.8787	1548.4003	4796.4	3904
894.0214	1550.1867	4821.3	3929.2
894.1642	1551.9723	4829.95	3941.85
894.3069	1553.7572	4858.35	3975.45
894.4496	1555.5414	4882.35	3998.7
894.5923	1557.3247	4939.3	4055.2
894.735	1559.1074	4961.4	4081.6
894.8777	1560.8893	5015.85	4133.65
895.0204	1562.6705	5086.15	4204.1
895.163	1564.4509	5176.35	4293.7
895.3056	1566.2305	5242.75	4361.85
895.4482	1568.0094	5333.05	4453.4
895.5908	1569.7876	5390.7	4510.05
895.7334	1571.565	5446.1	4564.8
895.876	1573.3417	5490.95	4607.6
896.0186	1575.1176	5471.6	4589.85
896.1611	1576.8928	5446.1	4564.3
896.3036	1578.6672	5372	4490.6
896.4461	1580.4409	5258.15	4378.05
896.5886	1582.2138	5147.95	4264.05
896.7311	1583.986	5019.25	4136.45
896.8736	1585.7575	4939	4058.25
897.0161	1587.5282	4887.5	4005.55
897.1585	1589.2981	4824.7	3944
897.3009	1591.0673	4788.5	3906.25
897.4433	1592.8358	4777.75	3895.6
897.5857	1594.6035	4787.9	3903.55
897.7281	1596.3704	4773.5	3892.9
897.8705	1598.1366	4791	3909.8
898.0128	1599.9021	4825.45	3946.55
898.1551	1601.6668	4859.4	3974.3
898.2975	1603.4308	4915.75	4035
898.4398	1605.194	4976.4	4089.95
898.5821	1606.9564	5096.35	4214.95
898.7243	1608.7182	5197.6	4310.9
898.8666	1610.4791	5340.75	4456.5
899.0088	1612.2394	5486.8	4606.65
899.1511	1613.9988	5653.65	4769.95
899.2933	1615.7576	5873.25	4990.95
899.4355	1617.5156	6137.7	5249.95
899.5776	1619.2728	6356.15	5474.5
899.7198	1621.0293	6498.45	5619.45
899.862	1622.785	6565.5	5683.65
900.0041	1624.54	6504.6	5620.3
900.1462	1626.2942	6381.9	5501.1
900.2883	1628.0477	6150.9	5267.05
900.4304	1629.8005	5930.6	5046.6
900.5725	1631.5525	5708.95	4825.95
900.7145	1633.3037	5517.45	4633.7
900.8566	1635.0542	5371.8	4491.15
900.9986	1636.804	5269.95	4388.05
901.1406	1638.553	5253.25	4298
901.2826	1640.3013	5149.25	4268.5
901.4245	1642.0488	5119.35	4239.65
901.5665	1643.7955	5114	4235.2
901.7085	1645.5416	5158.9	4277.8
901.8504	1647.2868	5224.55	4346
901.9923	1649.0313	5321.75	4440.6
902.1342	1650.7751	5442.95	4559
902.2761	1652.5181	5624.6	4744.15
902.4179	1654.2604	5862.4	4979.55
902.5598	1656.0019	6179.5	5299.95
902.7016	1657.7427	6509.65	5628.45
902.8434	1659.4828	6841.05	5960.5
902.9852	1661.222	7048.6	6164
903.127	1662.9606	7074.45	6194.4
903.2687	1664.6984	6901.8	6021.7
903.4105	1666.4354	6542	5661.65
903.5522	1668.1717	6056.05	5176.95
903.6939	1669.9072	5603.6	4723.7
903.8356	1671.642	5228.3	4347.3
903.9773	1673.3761	4908.35	4029.65
904.119	1675.1094	4682.6	3801.65
904.2606	1676.8419	4509.25	3628.4
904.4022	1678.5737	4357.25	3478
904.5439	1680.3048	4263.8	3382.95
904.6855	1682.0351	4188.85	3308.05
904.827	1683.7646	4131.9	3251
904.9686	1685.4934	4076.3	3197.35
905.1101	1687.2215	4048.65	3169.25
905.2517	1688.9488	4002.6	3121.65
905.3932	1690.6754	3955.55	3073.9
905.5347	1692.4012	3943.65	3063.85
905.6761	1694.1263	3912.55	3032.35
905.8176	1695.8506	3896.35	3016.15
905.9591	1697.5742	3877.05	2996
906.1005	1699.297	3857.05	2976.2
906.2419	1701.0191	3812.8	2933.9
906.3833	1702.7404	3804.85	2923.6
906.5246	1704.461	3780.25	2898.25
906.666	1706.1808	3753.65	2871.75
906.8073	1707.8999	3749.65	2869.55
906.9487	1709.6182	3725.8	2845.1
907.09	1711.3358	3727.65	2848.65
907.2313	1713.0527	3703.25	2822.6
907.3725	1714.7688	3692.2	2804.2
907.5138	1716.4841	3670.7	2787.75
907.655	1718.1987	3674.4	2789
907.7962	1719.9126	3645.5	2766.1
907.9374	1721.6257	3629.2	2745.4
908.0786	1723.338	3618.8	2738.2
908.2198	1725.0496	3601.15	2721.6
908.3609	1726.7605	3588.25	2707.55
908.502	1728.4706	3580.2	2699.2
908.6431	1730.18	3563.55	2682.55
908.7842	1731.8886	3554.35	2672.15
908.9253	1733.5964	3557.55	2673.95
909.0664	1735.3036	3545.85	2662.65
909.2074	1737.0099	3529.1	2649
909.3484	1738.7156	3517.3	2637.1
909.4894	1740.4204	3511.45	2628.2
909.6304	1742.1246	3497.85	2615.15
909.7714	1743.8279	3481.95	2602.8
909.9123	1745.5306	3480.1	2598.3
910.0532	1747.2325	3458.15	2579.1
910.1941	1748.9336	3453.85	2572.85
910.335	1750.634	3449.3	2566.4
910.4759	1752.3336	3439.2	2559.7
910.6168	1754.0325	3433.3	2553.6
910.7576	1755.7307	3429.15	2548.25
910.8984	1757.4281	3416.3	2534.6
911.0392	1759.1247	3419.75	2531.5
911.18	1760.8206	3414.65	2531.15
911.3208	1762.5158	3407.95	2525.15
911.4615	1764.2102	3392.05	2514.7
911.6022	1765.9039	3361	2480.55
911.7429	1767.5968	3377.05	2496.75
911.8836	1769.289	3364.2	2482.35
912.0243	1770.9804	3356.45	2475.95
912.1649	1772.6711	3350.75	2471.3
912.3056	1774.361	3339.7	2457.2
912.4462	1776.0502	3345.55	2467.55
912.5868	1777.7386	3331.85	2449.7
912.7274	1779.4263	3317.35	2436.95
912.8679	1781.1132	3319.45	2439.65
913.0084	1782.7994	3297.8	2415.5
913.149	1784.4849	3294.85	2415.6
913.2895	1786.1696	3320.05	2420.65
913.4299	1787.8535	3288.95	2408.35
913.5704	1789.5367	3273.7	2391.2
913.7108	1791.2192	3287.15	2407.15
913.8513	1792.9009	3283.15	2376.9
913.9917	1794.5818	3267.25	2386.2
914.132	1796.2621	3246.2	2367.7
914.2724	1797.9415	3240.45	2356.7
914.4128	1799.6202	3244.7	2365.25
914.5531	1801.2982	3240.3	2359.4
914.6934	1802.9755	3226.45	2343.8
914.8337	1804.6519	3229.35	2349.35
914.9739	1806.3277	3210.45	2329.05
915.1142	1808.0027	3193.35	2315.85
915.2544	1809.6769	3211.5	2327.8
915.3946	1811.3504	3196	2315.75
915.5348	1813.0231	3193.7	2311.6
915.675	1814.6951	3193.1	2312.25
915.8151	1816.3664	3189.95	2307.45
915.9553	1818.0369	3175.8	2294.45
916.0954	1819.7067	3167.1	2286.1
916.2355	1821.3757	3170.95	2288.35
916.3755	1823.044	3160.6	2281.15
916.5156	1824.7115	3162.6	2281.55
916.6556	1826.3783	3154.45	2275
916.7956	1828.0443	3133.15	2253.3
916.9356	1829.7096	3137.55	2255.9
917.0756	1831.3741	3144.65	2260.15
917.2155	1833.0379	3131.6	2253.1
917.3555	1834.701	3122.7	2238.2
917.4954	1836.3633	3118.3	2236.65
917.6353	1838.0248	3117.75	2237.25
917.7751	1839.6856	3115.45	2233.2
917.915	1841.3457	3109.55	2231.95
918.0548	1843.005	3104.6	2225.8
918.1946	1844.6636	3106.15	2229.45
918.3344	1846.3214	3082.95	2201.95
918.4742	1847.9785	3091.8	2212.3
918.6139	1849.6349	3088.35	2206.55
918.7537	1851.2904	3091	2201.8
918.8934	1852.9453	3078.3	2197.7
919.0331	1854.5994	3064.55	2181.3
919.1727	1856.2528	3065.6	2180.6
919.3124	1857.9054	3066.75	2186.25
919.452	1859.5572	3045.55	2164.7
919.5916	1861.2083	3065.7	2185.5
919.7312	1862.8587	3039.2	2160.6
919.8708	1864.5084	3034.25	2154.7
920.0103	1866.1572	3035.5	2157.15
920.1498	1867.8054	3013.95	2137.05
920.2893	1869.4528	3018.8	2138.25
920.4288	1871.0994	3019.95	2140.1
920.5683	1872.7453	3011.65	2129
920.7077	1874.3905	3008.7	2108.95
920.8471	1876.0349	2988.4	2106
920.9865	1877.6786	2996.75	2113.85
921.1259	1879.3215	2982.9	2102.95
921.2653	1880.9637	2983.25	2101
921.4046	1882.6051	2969.45	2091.15
921.5439	1884.2458	2973.55	2091.15
921.6832	1885.8858	2954.95	2074.55
921.8225	1887.525	2958	2078.2
921.9617	1889.1634	2944.7	2065.1
922.101	1890.8011	2948.55	2069.3
922.2402	1892.4381	2930.75	2050.75
922.3794	1894.0743	2928.3	2050.3
922.5185	1895.7098	2924.9	2044.55
922.6577	1897.3446	2929.1	2048.45
922.7968	1898.9786	2916.2	2032.3
922.9359	1900.6118	2907.3	2028.4
923.075	1902.2443	2897.15	2014.7
923.214	1903.8761	2879.4	1999.4
923.3531	1905.5071	2886.4	2006
923.4921	1907.1374	2881.05	2001
923.6311	1908.7669	2876.85	1996.05
923.77	1910.3957	2878.55	1996.35
923.909	1912.0237	2863.45	1982.35
924.0479	1913.651	2862.95	1981.85
924.1868	1915.2776	2866.1	1986.4
924.3257	1916.9034	2841.55	1962.45
924.4646	1918.5285	2840.5	1959.75
924.6034	1920.1528	2838.7	1958.45
924.7422	1921.7764	2823.25	1944.15
924.881	1923.3992	2811.45	1931.05
925.0198	1925.0213	2808.4	1928.3
925.1586	1926.6427	2804.35	1924.15
925.2973	1928.2633	3013.9	1901.05
925.436	1929.8832	2832.4	1947.5
925.5747	1931.5023	2794.2	1914.25
925.7134	1933.1207	2776	1896.2
925.852	1934.7383	2778.4	1897.6
925.9906	1936.3552	2774.35	1894.4
926.1292	1937.9714	2765.5	1885.3
926.2678	1939.5868	2762.3	1882.9
926.4064	1941.2015	2746.75	1867.95
926.5449	1942.8154	2735.5	1855.65
926.6834	1944.4286	2726.65	1847.6
926.8219	1946.041	2745.65	1841
926.9604	1947.6528	2726.3	1842.55
927.0988	1949.2637	2710.5	1831.5
927.2372	1950.8739	2709.25	1826.3
927.3756	1952.4834	2699.65	1819.45
927.514	1954.0921	2699.05	1816.3
927.6523	1955.7001	2691.5	1805.8
927.7907	1957.3074	2685.1	1805.35
927.929	1958.9139	2680.4	1801.5
928.0673	1960.5197	2669.2	1787.7
928.2055	1962.1247	2658.6	1780.55
928.3438	1963.729	2638.5	1760.4
928.482	1965.3325	2660.65	1756.95
928.6202	1966.9353	2650.2	1771.7
928.7584	1968.5374	2636.7	1756.7
928.8965	1970.1387	2626.8	1745.1
929.0346	1971.7393	2636.95	1755.4
929.1727	1973.3392	2612.4	1735.2
929.3108	1974.9383	2608.85	1731.05
929.4489	1976.5366	2598	1719.05
929.5869	1978.1342	2603.05	1723.05
929.7249	1979.7311	2593.9	1712.65
929.8629	1981.3273	2586.6	1706.2
930.0009	1982.9227	2598.4	1715.3
930.1388	1984.5173	2580.95	1701.15
930.2767	1986.1112	2566.85	1686.85
930.4146	1987.7044	2568.35	1689.8
930.5525	1989.2968	2559.95	1678.7
930.6904	1990.8885	2560.5	1677.05
930.8282	1992.4795	2553.95	1670.75
930.966	1994.0697	2548.3	1668.6
931.1038	1995.6592	2549.05	1668.55
931.2415	1997.2479	2545.4	1663.7
931.3793	1998.8359	2536.05	1654.85
931.517	2000.4232	2522.95	1643.8
931.6547	2002.0097	2519.3	1640
931.7923	2003.5955	2511.05	1633.9
931.93	2005.1805	2521.3	1640.85
932.0676	2006.7648	2501.65	1622.85
932.2052	2008.3484	2509.4	1627.5
932.3427	2009.9312	2512.75	1631.7
932.4803	2011.5133	2483.1	1601.75
932.6178	2013.0946	2490.55	1611.2
932.7553	2014.6752	2481.65	1603.5
932.8928	2016.2551	2483.2	1601
933.0302	2017.8342	2482.55	1601.75
933.1676	2019.4126	2483.4	1604.05
933.305	2020.9902	2468.15	1588.7
933.4424	2022.5672	2463.7	1583.95
933.5798	2024.1433	2468.5	1580.85
933.7171	2025.7188	2449.15	1570.65
933.8544	2027.2935	2456.15	1573.85
933.9917	2028.8674	2451.55	1570.1
934.129	2030.4406	2442.05	1561.8
934.2662	2032.0131	2434.6	1554.1
934.4034	2033.5849	2438.4	1553.2
934.5406	2035.1559	2434.45	1556.55
934.6778	2036.7261	2435.6	1556.1
934.8149	2038.2957	2414.7	1536
934.952	2039.8645	2416.9	1535.7
935.0891	2041.4325	2424.95	1542.55
935.2262	2042.9998	2407.9	1529.7
935.3632	2044.5664	2404.25	1521.75
935.5002	2046.1323	2409.75	1529.9
935.6372	2047.6974	2399.3	1519
935.7742	2049.2617	2386.15	1505.95
935.9111	2050.8254	2423.6	1509.35
936.048	2052.3883	2396.55	1516.05
936.1849	2053.9504	2391.25	1511.15
936.3218	2055.5118	2391.9	1511.3
936.4586	2057.0725	2381.1	1495.75
936.5955	2058.6325	2381.3	1500.85
936.7323	2060.1917	2375.2	1495.1
936.869	2061.7502	2383.15	1501.3
937.0058	2063.3079	2361.7	1483.25
937.1425	2064.8649	2359.9	1476.15
937.2792	2066.4212	2352.55	1472.55
937.4159	2067.9767	2345.55	1465.6
937.5525	2069.5315	2333.8	1453.95
937.6891	2071.0856	2320.5	1440.25
937.8257	2072.6389	2324.6	1443.35
937.9623	2074.1915	2319.2	1441
938.0989	2075.7433	2318	1435.95
938.2354	2077.2945	2309.2	1431.35
938.3719	2078.8448	2308.55	1429
938.5084	2080.3945	2295.2	1416.15
938.6448	2081.9434	2306.75	1426.1
938.7812	2083.4916	2293.25	1413.3
938.9176	2085.039	2287.05	1405.35
939.054	2086.5857	2281.7	1400.3
939.1903	2088.1317	2279.35	1398.15
939.3267	2089.677	2274.1	1394.4
939.463	2091.2215	2265	1383.55
939.5992	2092.7652	2267	1385.6
939.7355	2094.3083	2273.25	1392.85
939.8717	2095.8506	2251.3	1374.5
940.0079	2097.3921	2258.95	1380.5
940.1441	2098.933	2261.4	1380.65
940.2802	2100.4731	2263	1384.3
940.4163	2102.0124	2263.65	1376.05
940.5524	2103.5511	2249.7	1370.2
940.6885	2105.089	2236.6	1357.45
940.8245	2106.6261	2245.85	1367.05
940.9606	2108.1626	2236.65	1355.45
941.0965	2109.6983	2259.15	1349.3
941.2325	2111.2332	2232.1	1350.25
941.3684	2112.7675	2230.6	1349.1
941.5044	2114.301	2224.35	1343.7
941.6403	2115.8337	2224.25	1345.35
941.7761	2117.3657	2222.2	1342
941.912	2118.897	2213.7	1332.9
942.0478	2120.4276	2199.05	1313
942.1835	2121.9575	2203.2	1322.85
942.3193	2123.4866	2213.6	1320.35
942.455	2125.0149	2209.7	1328.2
942.5907	2126.5426	2197.05	1316.25
942.7264	2128.0695	2193.4	1307.4
942.8621	2129.5956	2183.9	1305.8
942.9977	2131.1211	2194.8	1307.9
943.1333	2132.6458	2171.85	1293.15
943.2689	2134.1698	2177.05	1297.95
943.4044	2135.693	2177.8	1296.85
943.54	2137.2155	2180.3	1299.3
943.6755	2138.7373	2166.45	1284.95
943.8109	2140.2584	2164	1283.55
943.9464	2141.7787	2166.75	1282.4
944.0818	2143.2983	2158.5	1280.5
944.2172	2144.8171	2155.15	1277.65
944.3526	2146.3353	2146.55	1264.45
944.4879	2147.8527	2148.15	1266.95
944.6232	2149.3693	2142.8	1262.75
944.7585	2150.8853	2136.1	1256.15
944.8938	2152.4005	2132.95	1252.45
945.029	2153.9149	2134.4	1254.55
945.1642	2155.4287	2125.65	1245.85
945.2994	2156.9417	2131.45	1250.05
945.4346	2158.454	2119.7	1236.4
945.5697	2159.9655	2124	1243.95
945.7048	2161.4764	2106.1	1227.5
945.8399	2162.9865	2099.25	1219.55
945.9749	2164.4958	2109.45	1226.8
946.1099	2166.0045	2104.2	1219.15
946.2449	2167.5124	2099.15	1220.8
946.3799	2169.0195	2102.35	1224.8
946.5148	2170.526	2101	1220.65
946.6498	2172.0317	2100.45	1222.1
946.7846	2173.5367	2092.3	1213.25
946.9195	2175.0409	2092.55	1212.15
947.0543	2176.5445	2082.85	1205.05
947.1891	2178.0473	2071.8	1193.3
947.3239	2179.5494	2088.75	1204.2
947.4587	2181.0507	2079.9	1201.7
947.5934	2182.5513	2076.9	1195.6
947.7281	2184.0512	2069.35	1190.7
947.8628	2185.5504	2070.7	1191.05
947.9974	2187.0488	2057	1175.85
948.132	2188.5465	2060.95	1180.75
948.2666	2190.0435	2057.2	1175.95
948.4012	2191.5397	2048.95	1170.65
948.5357	2193.0353	2042.3	1163.6
948.6702	2194.5301	2042.8	1164.8
948.8047	2196.0241	2029.9	1149.3
948.9392	2197.5175	2032.15	1152.45
949.0736	2199.0101	2038.5	1157
949.208	2200.502	2032.65	1152.85
949.3424	2201.9931	2023.7	1141.95
949.4767	2203.4835	2013	1133.3
949.611	2204.9733	2019.6	1133.9
949.7453	2206.4622	2014.25	1134.5
949.8796	2207.9505	2007.8	1125.2
950.0138	2209.438	1992.75	1112.85
950.148	2210.9248	1992.1	1111.35
950.2822	2212.4109	1985.7	1105.7
950.4164	2213.8962	2002.9	1121.1
950.5505	2215.3809	2001.05	1120
950.6846	2216.8648	1996.85	1118.85
950.8186	2218.3479	1989.9	1105.1
950.9527	2219.8304	1973.95	1094.2
951.0867	2221.3121	1967	1085.65
951.2207	2222.7931	1963.2	1081.9
951.3546	2224.2733	1970.75	1091.6
951.4886	2225.7529	1958.9	1078.4
951.6225	2227.2317	1957.65	1074.25
951.7563	2228.7098	1963.65	1084.45
951.8902	2230.1872	1946.95	1067.2
952.024	2231.6638	1955.55	1075.9
952.1578	2233.1397	1948.5	1063.05
952.2916	2234.6149	1942	1063.3
952.4253	2236.0894	1934.05	1052.3
952.559	2237.5632	1939.6	1048.15
952.6927	2239.0362	1927.05	1045.7
952.8263	2240.5085	1928.9	1048.3
952.9599	2241.9801	1923.3	1042.7
953.0935	2243.4509	1921.3	1040.55
953.2271	2244.921	1919.15	1041.6
953.3606	2246.3904	1913	1029.45
953.4941	2247.8591	1906.9	1027
953.6276	2249.3271	1904.55	1024.3
953.7611	2250.7943	1907.6	1026.6
953.8945	2252.2608	1895.5	1016.8
954.0279	2253.7266	1897.3	1018.4
954.1612	2255.1917	1896.2	1016.55
954.2946	2256.656	1886.25	1006.35
954.4279	2258.1197	1887.6	1008.4
954.5612	2259.5826	1885.55	1003.55
954.6944	2261.0447	1886.15	1005.25
954.8276	2262.5062	1877.55	995.6
954.9608	2263.9669	1879.3	997.8
955.094	2265.4269	1873.9	995.05
955.2271	2266.8862	1863.6	982.9
955.3602	2268.3448	1864.95	985.35
955.4933	2269.8026	1871.6	990.55
955.6264	2271.2598	1866.95	988.2
955.7594	2272.7162	1859.4	980.15
955.8924	2274.1719	1857.25	978.65
956.0253	2275.6268	1856.35	975.6
956.1583	2277.0811	1854.2	973.3
956.2912	2278.5346	1860.45	981.6
956.4241	2279.9874	1855.05	975.6
956.5569	2281.4395	1857.25	980.15
956.6897	2282.8908	1847.75	962.55
956.8225	2284.3414	1845.2	963
956.9553	2285.7914	1843.7	963.15
957.088	2287.2406	1841.9	959.95
957.2207	2288.689	1831.6	952.05
957.3534	2290.1368	1824.65	943.75
957.486	2291.5838	1839.2	956.9
957.6186	2293.0302	1831.05	951.2
957.7512	2294.4758	1820.8	940.85
957.8838	2295.9206	1834.05	951.1
958.0163	2297.3648	1828.45	946.3
958.1488	2298.8082	1818.85	938.1
958.2813	2300.251	1813.95	935.85
958.4137	2301.693	1809.5	925.5
958.5461	2303.1343	1813.4	932.55
958.6785	2304.5748	1806.25	926.3
958.8108	2306.0147	1798.2	916.2
958.9432	2307.4538	1805.8	924.35
959.0754	2308.8922	1800.15	919.7
959.2077	2310.3299	1796.4	918
959.3399	2311.7669	1793.55	914.6
959.4721	2313.2031	1791	908.65
959.6043	2314.6387	1782.6	902.2
959.7365	2316.0735	1783.2	902.5
959.8686	2317.5076	1781.4	901.95
960.0006	2318.941	1782.05	901.9
960.1327	2320.3737	1775.1	894.3
960.2647	2321.8056	1770.55	889.6
960.3967	2323.2369	1773.65	892.35
960.5287	2324.6674	1769.85	887.6
960.6606	2326.0972	1758	879.2
960.7925	2327.5263	1758.45	878
960.9244	2328.9547	1760.9	881.55
961.0562	2330.3823	1762	881.4
961.1881	2331.8092	1756.15	874.4
961.3198	2333.2355	1745.75	866.9
961.4516	2334.661	1751.4	871.1
961.5833	2336.0858	1754.25	870.95
961.715	2337.5098	1754.7	876.1
961.8467	2338.9332	1746.25	864.7
961.9783	2340.3558	1736.05	853.6
962.1099	2341.7778	1734.4	854.45
962.2415	2343.199	1747.25	866.75
962.373	2344.6195	1738.6	858.45
962.5045	2346.0393	1734.75	854.25
962.636	2347.4583	1738.6	858.4
962.7675	2348.8767	1738.7	858.6
962.8989	2350.2943	1736.25	856.05
963.0303	2351.7113	1734.5	851.85
963.1617	2353.1275	1727.2	849.6
963.293	2354.543	1742.95	840.55
963.4243	2355.9578	1734.75	854.4
963.5556	2357.3718	1718.8	839.25
963.6868	2358.7852	1719.65	837.1
963.818	2360.1978	1709.4	827.45
963.9492	2361.6098	1712.85	834.4
964.0803	2363.021	1715.3	831.35
964.2114	2364.4315	1703.6	824.8
964.3425	2365.8413	1711.7	831.8
964.4736	2367.2504	1706	826.9
964.6046	2368.6587	1695.1	817.55
964.7356	2370.0664	1699.95	820.2
964.8666	2371.4733	1693.4	813.7
964.9975	2372.8795	1684.3	806.85
965.1284	2374.285	1691.05	810
965.2593	2375.6899	1680.9	801.5
965.3901	2377.0939	1688.6	808.95
965.5209	2378.4973	1678.15	800.05
965.6517	2379.9	1682.9	804.6
965.7825	2381.3019	1681.85	802.65
965.9132	2382.7032	1676	796.75
966.0439	2384.1037	1665.75	788.2
966.1745	2385.5035	1659.9	778.95
966.3051	2386.9027	1670.25	790.3
966.4357	2388.3011	1663.5	780.25
966.5663	2389.6987	1662.1	782.55
966.6968	2391.0957	1655.55	775.9
966.8273	2392.492	1641.9	763.35
966.9578	2393.8876	1648.8	768
967.0882	2395.2824	1647.85	770
967.2186	2396.6765	1629.15	752.1
967.349	2398.07	1640.3	762.7
967.4793	2399.4627	1639.1	758.05
967.6097	2400.8547	1638.5	760.15
967.7399	2402.246	1638.6	752.9
967.8702	2403.6366	1631.35	751.75
968.0004	2405.0265	1631.2	751.85
968.1306	2406.4156	1630	746.3
968.2607	2407.8041	1626.9	742.85
968.3909	2409.1918	1620.95	740.15
968.521	2410.5789	1620.3	740.1
968.651	2411.9652	1625.2	742.9
968.781	2413.3508	1614.25	736.65
968.911	2414.7358	1609.75	730.25
969.041	2416.12	1614.6	735.55
969.1709	2417.5035	1617.35	738.2
969.3008	2418.8863	1611.45	732.2
969.4307	2420.2684	1607.7	728.35
969.5606	2421.6497	1605.9	727.8
969.6904	2423.0304	1594.65	714.7
969.8201	2424.4104	1603.25	724.15
969.9499	2425.7896	1608.4	721.1
970.0796	2427.1682	1601.7	721.1
970.2093	2428.546	1598.1	717.3
970.3389	2429.9232	1592.9	713.65
970.4685	2431.2996	1589.8	710.7
970.5981	2432.6753	1592.8	714.6
970.7277	2434.0503	1593.25	714.65
970.8572	2435.4246	1582.95	706.05
970.9867	2436.7982	1581.95	701.8
971.1161	2438.1711	1574.05	697.15
971.2456	2439.5433	1582.7	703.75
971.375	2440.9148	1572.05	685.4
971.5043	2442.2856	1568.65	690.35
971.6336	2443.6557	1573.2	691.65
971.7629	2445.025	1566.5	685.75
971.8922	2446.3937	1569.55	688.85
972.0214	2447.7617	1565.1	684.4
972.1506	2449.1289	1562.35	684.25
972.2798	2450.4955	1565.05	682.45
972.4089	2451.8613	1559.45	682.15
972.538	2453.2265	1561.4	681.1
972.6671	2454.5909	1554.75	674.4
972.7961	2455.9546	1558.05	678.2
972.9251	2457.3177	1557.3	679.2
973.0541	2458.68	1548.5	667.25
973.1831	2460.0416	1550.1	669.35
973.312	2461.4025	1553.2	672.85
973.4408	2462.7627	1559.9	667
973.5697	2464.1222	1550.55	672.3
973.6985	2465.4811	1540.95	660.35
973.8273	2466.8392	1547.65	667.7
973.956	2468.1966	1545.55	665.7
974.0847	2469.5533	1541.25	661
974.2134	2470.9093	1539.85	659.2
974.3421	2472.2645	1550.7	669
974.4707	2473.6191	1540.45	660.6
974.5993	2474.973	1531.7	651.4
974.7278	2476.3262	1536.1	654.05
974.8563	2477.6787	1535.1	658.55
974.9848	2479.0305	1535.55	655.65
975.1132	2480.3816	1533.5	652.75
975.2417	2481.7319	1519.75	638.75
975.37	2483.0816	1525.45	645.4
975.4984	2484.4306	1524.1	643.75
975.6267	2485.7789	1521.55	642.1
975.755	2487.1264	1522.45	639.45
975.8833	2488.4733	1515.8	637.6
976.0115	2489.8195	1530.4	633.8
976.1397	2491.165	1513.75	630.5
976.2678	2492.5097	1507.1	625.5
976.3959	2493.8538	1504.3	623.7
976.524	2495.1972	1502.55	620.8
976.6521	2496.5398	1506.15	625
976.7801	2497.8818	1500.25	619.7
976.9081	2499.2231	1508.15	630.9
977.036	2500.5637	1501	618.35
977.164	2501.9035	1498.65	617.3
977.2918	2503.2427	1492.3	608.45
977.4197	2504.5812	1496.15	617.2
977.5475	2505.919	1495.9	615.15
977.6753	2507.256	1488.75	609.5
977.8031	2508.5924	1486.4	606.5
977.9308	2509.9281	1495.2	610.05
978.0585	2511.2631	1485.65	605.65
978.1861	2512.5974	1479.85	601.2
978.3137	2513.9309	1486.25	605.85
978.4413	2515.2638	1507.75	601.35
978.5689	2516.596	1479.6	599.95
978.6964	2517.9275	1477	596.2
978.8239	2519.2583	1475.15	596.35
978.9513	2520.5884	1480	599.65
979.0788	2521.9178	1472.35	592.5
979.2062	2523.2465	1479.05	599.25
979.3335	2524.5745	1467.55	587.9
979.4608	2525.9018	1469.6	587.8
979.5881	2527.2284	1462.1	583.6
979.7154	2528.5543	1461.45	581.6
979.8426	2529.8796	1461.95	582.9
979.9698	2531.2041	1461.4	583.65
980.0969	2532.5279	1460	580.85
980.224	2533.851	1461.85	583.55
980.3511	2535.1735	1462.9	584.2
980.4781	2536.4952	1459.5	580.75
980.6052	2537.8163	1457.4	578.1
980.7321	2539.1366	1451.2	572.7
980.8591	2540.4562	1450.95	569.8
980.986	2541.7752	1445.4	566.65
981.1129	2543.0935	1443.65	562.85
981.2397	2544.411	1444.15	562.3
981.3665	2545.7279	1448.45	569.8
981.4933	2547.0441	1451.25	570.6
981.62	2548.3596	1445.35	563.05
981.7467	2549.6744	1438.85	560.35
981.8734	2550.9885	1445.3	556.8
982.0001	2552.3019	1445.7	568.05
982.1267	2553.6146	1441.5	562.45
982.2532	2554.9266	1440.45	560.2
982.3798	2556.2379	1434.25	552.7
982.5063	2557.5485	1435.85	558.85
982.6327	2558.8585	1441.15	553.45
982.7592	2560.1677	1435.1	552.3
982.8856	2561.4762	1429.55	551.05
983.0119	2562.7841	1433.2	549.75
983.1383	2564.0913	1431.45	555.75
983.2646	2565.3977	1424.35	544.4
983.3908	2566.7035	1423.2	544.75
983.517	2568.0086	1426	544.6
983.6432	2569.313	1432.3	553.35
983.7694	2570.6167	1422	538.15
983.8955	2571.9197	1414.9	535.85
984.0216	2573.222	1430.7	546.75
984.1476	2574.5236	1423.3	542.3
984.2737	2575.8246	1425.05	544.25
984.3996	2577.1248	1424.05	542.9
984.5256	2578.4244	1419.1	539.95
984.6515	2579.7232	1415.85	535.75
984.7774	2581.0214	1451.45	543.2
984.9032	2582.3189	1421.6	543.15
985.029	2583.6157	1431	545.95
985.1548	2584.9118	1421.65	540.95
985.2806	2586.2072	1425.55	545.6
985.4063	2587.5019	1418.4	540.45
985.5319	2588.7959	1418.5	537.35
985.6576	2590.0893	1431.5	550.35
985.7832	2591.3819	1426.55	548.35
985.9087	2592.6739	1423.6	543.35
986.0343	2593.9652	1435.6	555.6
986.1597	2595.2557	1427.7	549.1
986.2852	2596.5456	1434	551.95
986.4106	2597.8348	1430.7	553.1
986.536	2599.1234	1422.85	542
986.6614	2600.4112	1435.75	557.15
986.7867	2601.6983	1434.75	553.25
986.912	2602.9848	1430.9	550.85
987.0372	2604.2705	1432	546.25
987.1624	2605.5556	1429.35	551.7
987.2876	2606.84	1427.4	547.5
987.4128	2608.1237	1428.7	547.25
987.5379	2609.4067	1428.2	546.2
987.6629	2610.689	1434.85	547.95
987.788	2611.9707	1422.1	538.4
987.913	2613.2516	1425.95	544.35
988.0379	2614.5319	1418.05	540.5
988.1629	2615.8115	1413.4	534.3
988.2878	2617.0903	1415.3	533.9
988.4126	2618.3685	1412.55	532.65
988.5375	2619.6461	1416.8	537.3
988.6622	2620.9229	1419.45	539.7
988.787	2622.199	1417.8	537.1
988.9117	2623.4745	1417.75	538.7
989.0364	2624.7493	1408.3	527.7
989.161	2626.0234	1409.75	531.45
989.2857	2627.2968	1414.7	536.7
989.4102	2628.5695	1412.35	531.3
989.5348	2629.8415	1409.15	530.5
989.6593	2631.1128	1410.4	528.3
989.7837	2632.3835	1417.8	537.3
989.9082	2633.6535	1408.35	530.35
990.0326	2634.9228	1409.25	528.95
990.1569	2636.1914	1408.1	530.3
990.2812	2637.4593	1408.05	527.3
990.4055	2638.7265	1404.65	524.65
990.5298	2639.9931	1405.45	527.75
990.654	2641.259	1405.15	523.85
990.7782	2642.5242	1404.3	525.6
990.9023	2643.7887	1404.55	523.15
991.0264	2645.0525	1401.6	520.3
991.1505	2646.3156	1398.3	517
991.2745	2647.5781	1391.9	513.5
991.3985	2648.8398	1388.75	509.35
991.5225	2650.1009	1416.6	497.65
991.6464	2651.3613	1395.8	517.3
991.7703	2652.6211	1390.6	510.7
991.8942	2653.8801	1391.5	511.95
992.018	2655.1385	1391.65	507.95
992.1418	2656.3961	1396.9	517.45
992.2655	2657.6531	1389.2	510.95
992.3892	2658.9094	1390.35	509.4
992.5129	2660.1651	1390.2	511.25
992.6366	2661.42	1395.3	515.15
992.7602	2662.6743	1395.75	515.75
992.8837	2663.9279	1398.25	520
993.0073	2665.1808	1400.1	517.85
993.1307	2666.433	1403.3	522.25
993.2542	2667.6846	1397.3	518.5
993.3776	2668.9354	1403.05	521
993.501	2670.1856	1411.55	532.55
993.6244	2671.4351	1414.7	538.4
993.7477	2672.6839	1411.2	528.45
993.8709	2673.9321	1409.9	530.75
993.9942	2675.1795	1412.75	532.2
994.1174	2676.4263	1410	528.95
994.2405	2677.6724	1413.25	535.8
994.3637	2678.9179	1416	534.2
994.4868	2680.1626	1413.95	535.55
994.6098	2681.4067	1407.85	528.65
994.7328	2682.6501	1417.6	539.05
994.8558	2683.8928	1415.5	534.2
994.9788	2685.1348	1411.15	531
995.1017	2686.3761	1408.1	527.8
995.2245	2687.6168	1399.7	519.75
995.3474	2688.8568	1397.8	517.85
995.4702	2690.0961	1396.7	518.8
995.5929	2691.3348	1389.9	510.25
995.7156	2692.5727	1389.45	509.05
995.8383	2693.81	1393.65	515.2
995.961	2695.0466	1395.25	517.9
996.0836	2696.2826	1395.25	514
996.2062	2697.5178	1387.6	504.7
996.3287	2698.7524	1388.3	509.85
996.4512	2699.9863	1388.75	507.3
996.5737	2701.2195	1391.5	513.7
996.6961	2702.452	1400.3	517.95
996.8185	2703.6839	1395.3	513.35
996.9408	2704.9151	1403.3	524.75
997.0631	2706.1456	1416.4	536.8
997.1854	2707.3755	1415.65	535.05
997.3077	2708.6046	1424.45	543.95
997.4299	2709.8331	1431.4	550
997.552	2711.0609	1437.95	558.3
997.6742	2712.2881	1444.45	565.6
997.7963	2713.5145	1453.6	571.75
997.9183	2714.7403	1462.75	586.15
998.0403	2715.9654	1475.6	594.65
998.1623	2717.1899	1492.4	597.65
998.2842	2718.4136	1498.05	619.55
998.4062	2719.6367	1509.45	629.35
998.528	2720.8591	1521.95	635.65
998.6498	2722.0809	1530.35	649.3
998.7716	2723.3019	1535.4	653.75
998.8934	2724.5223	1552.05	670.05
999.0151	2725.7421	1547.2	666.45
999.1368	2726.9611	1552.45	672.85
999.2584	2728.1795	1558.15	673.45
999.38	2729.3972	1549.3	670.35
999.5016	2730.6142	1548.2	656.75
999.6231	2731.8306	1522	642.35
999.7446	2733.0462	1511.9	629.75
999.8661	2734.2612	1482.9	599.75
999.9875	2735.4756	1477.45	596.75
1000.1089	2736.6892	1460.15	580.55
1000.2302	2737.9022	1444.75	565.55
1000.3515	2739.1145	1429.25	550.2
1000.4728	2740.3262	1427.85	541
1000.594	2741.5372	1403.35	525.35
1000.7152	2742.7475	1397.8	519
1000.8363	2743.9571	1392.9	511.75
1000.9575	2745.1661	1373.5	489.65
1001.0785	2746.3744	1367.65	486.45
1001.1996	2747.582	1361.4	482.1
1001.3206	2748.7889	1353.25	471.75
1001.4415	2749.9952	1349	469.25
1001.5625	2751.2008	1338.55	457.75
1001.6833	2752.4057	1345.7	462.85
1001.8042	2753.61	1339.45	458.85
1001.925	2754.8136	1338.1	456.35
1002.0458	2756.0165	1329.5	448.85
1002.1665	2757.2188	1327.35	449.15
1002.2872	2758.4204	1333.75	455.65
1002.4078	2759.6213	1335.05	454.55
1002.5285	2760.8215	1338.4	453.15
1002.649	2762.0211	1336.4	455.3
1002.7696	2763.22	1336.4	452.75
1002.8901	2764.4182	1322.15	441
1003.0106	2765.6158	1325.7	444.5
1003.131	2766.8127	1325.65	445.45
1003.2514	2768.009	1317.75	438.1
1003.3717	2769.2045	1315.6	434.4
1003.492	2770.3994	1318.15	435.75
1003.6123	2771.5936	1319.75	439.5
1003.7325	2772.7872	1314.15	433.4
1003.8527	2773.9801	1312.7	432.25
1003.9729	2775.1723	1323.35	424.8
1004.093	2776.3639	1307.95	429.45
1004.2131	2777.5548	1310.65	426.45
1004.3331	2778.745	1314.85	431.65
1004.4531	2779.9346	1316.5	438.1
1004.5731	2781.1235	1323.9	443.95
1004.693	2782.3117	1321	440.75
1004.8129	2783.4992	1323.45	444.65
1004.9328	2784.6861	1329.45	451.3
1005.0526	2785.8723	1336.85	458.55
1005.1723	2787.0579	1346.65	466.8
1005.2921	2788.2428	1351.85	470.9
1005.4118	2789.427	1358.1	480.25
1005.5314	2790.6106	1360.8	481.65
1005.651	2791.7935	1384.15	504.2
1005.7706	2792.9757	1388.4	510.4
1005.8902	2794.1573	1414.55	531.3
1006.0097	2795.3382	1419.4	539.6
1006.1291	2796.5184	1432.7	554.05
1006.2485	2797.698	1451	569.85
1006.3679	2798.8769	1461.8	582.55
1006.4873	2800.0551	1479	600
1006.6066	2801.2327	1505.9	624.7
1006.7258	2802.4096	1519.55	639.4
1006.8451	2803.5859	1539.2	659.55
1006.9642	2804.7615	1568.75	688.25
1007.0834	2805.9364	1592.55	715
1007.2025	2807.1106	1621.55	740.85
1007.3216	2808.2842	1647.35	768.7
1007.4406	2809.4572	1682.75	803.65
1007.5596	2810.6294	1720.1	840.3
1007.6785	2811.801	1759.9	881.55
1007.7975	2812.972	1797.95	919
1007.9163	2814.1423	1840.05	958.8
1008.0352	2815.3119	1890.8	1011.3
1008.154	2816.4808	1929.85	1051.75
1008.2727	2817.6491	1984.35	1104
1008.3914	2818.8167	2026.8	1149.7
1008.5101	2819.9837	2083.45	1200
1008.6288	2821.15	2125.45	1245.7
1008.7474	2822.3157	2168.2	1291.05
1008.8659	2823.4807	2235.85	1355.15
1008.9844	2824.645	2264.1	1382.05
1009.1029	2825.8086	2303.9	1423.8
1009.2214	2826.9716	2344.7	1464.95
1009.3398	2828.134	2389.5	1509.75
1009.4581	2829.2957	2418.5	1538.8
1009.5764	2830.4567	2455.2	1577.6
1009.6947	2831.617	2474.65	1594.2
1009.813	2832.7767	2470.1	1591.5
1009.9312	2833.9358	2483.9	1606
1010.0493	2835.0941	2464.05	1584.25
1010.1675	2836.2519	2461.4	1581.75
1010.2855	2837.4089	2447.6	1567.3
1010.4036	2838.5653	2441.7	1560.55
1010.5216	2839.7211	2433.25	1554.8
1010.6396	2840.8761	2443.45	1562.05
1010.7575	2842.0306	2471	1591.9
1010.8754	2843.1843	2501.75	1623.25
1010.9932	2844.3374	2550.85	1671.3
1011.111	2845.4899	2615.85	1736.35
1011.2288	2846.6417	2678.85	1800.05
1011.3465	2847.7928	2745.9	1867.25
1011.4642	2848.9433	2839.55	1959.25
1011.5818	2850.0931	2922.85	2044.2
1011.6995	2851.2422	3004.55	2121.75
1011.817	2852.3907	3060.35	2179.65
1011.9345	2853.5385	3122.2	2240.6
1012.052	2854.6857	3210.6	2305
1012.1695	2855.8323	3242.5	2363.3
1012.2869	2856.9781	3281.35	2400.25
1012.4042	2858.1233	3337.15	2457.3
1012.5216	2859.2679	3379.45	2499.55
1012.6389	2860.4118	3433.15	2554.25
1012.7561	2861.555	3469.65	2585.95
1012.8733	2862.6976	3499.45	2617.6
1012.9905	2863.8395	3520.6	2642.1
1013.1076	2864.9808	3561.3	2681.6
1013.2247	2866.1214	3577.55	2698.9
1013.3417	2867.2614	3594.1	2713.5
1013.4587	2868.4007	3607.65	2727.75
1013.5757	2869.5393	3615.85	2734.2
1013.6926	2870.6773	3616.55	2736
1013.8095	2871.8146	3656.65	2774.5
1013.9263	2872.9513	3648.5	2767
1014.0431	2874.0874	3645	2765.05
1014.1599	2875.2227	3632.3	2750.65
1014.2766	2876.3574	3624.75	2745.45
1014.3933	2877.4915	3589.8	2711.35
1014.51	2878.6249	3577.7	2698.65
1014.6266	2879.7577	3550.9	2671.2
1014.7431	2880.8898	3544.25	2650.9
1014.8596	2882.0212	3522.15	2645
1014.9761	2883.152	3504.45	2624.8
1015.0925	2884.2821	3483.25	2606.3
1015.2089	2885.4116	3477.2	2598.8
1015.3253	2886.5405	3480.35	2600.65
1015.4416	2887.6686	3495.75	2612.65
1015.5579	2888.7962	3488.45	2611.45
1015.6741	2889.923	3482.4	2603.9
1015.7903	2891.0493	3511.25	2632.6
1015.9065	2892.1748	3531.95	2650.85
1016.0226	2893.2997	3537.45	2659.45
1016.1387	2894.424	3564.15	2685.6
1016.2547	2895.5476	3584.05	2705
1016.3707	2896.6706	3605.95	2727.55
1016.4866	2897.7929	3634.3	2754.6
1016.6025	2898.9145	3660.3	2780.3
1016.7184	2900.0355	3689.65	2809.9
1016.8342	2901.1559	3735.2	2854.8
1016.95	2902.2756	3761.95	2882.45
1017.0658	2903.3946	3795.4	2915.85
1017.1815	2904.513	3814	2931.65
1017.2971	2905.6308	3847.95	2968.8
1017.4127	2906.7479	3872	2991.1
1017.5283	2907.8643	3893.5	3013.2
1017.6439	2908.9801	3899	3018.8
1017.7594	2910.0953	3905.9	3026.65
1017.8748	2911.2098	3914.95	3030.9
1017.9902	2912.3236	3906.15	3018.15
1018.1056	2913.4368	3885.75	3001.65
1018.2209	2914.5494	3883.7	3003.4
1018.3362	2915.6613	3854.5	2969.2
1018.4515	2916.7725	3812.15	2929.8
1018.5667	2917.8831	3777.1	2897
1018.6819	2918.9931	3746.15	2865.45
1018.797	2920.1024	3733.35	2852.45
1018.9121	2921.211	3720.7	2842.15
1019.0271	2922.319	3683.05	2803.05
1019.1421	2923.4264	3672.6	2794.25
1019.2571	2924.5331	3654.1	2776.65
1019.372	2925.6391	3647.1	2766.5
1019.4869	2926.7445	3646.6	2769.15
1019.6017	2927.8493	3623.9	2743.5
1019.7165	2928.9534	3623	2741.85
1019.8313	2930.0569	3629.55	2746.8
1019.946	2931.1597	3629.45	2748.75
1020.0606	2932.2619	3610.4	2731.2
1020.1753	2933.3634	3607.15	2728.3
1020.2899	2934.4643	3607	2719.9
1020.4044	2935.5645	3572.95	2686.9
1020.5189	2936.6641	3531.6	2649.15
1020.6334	2937.763	3480.5	2601.9
1020.7478	2938.8613	3453.65	2575.05
1020.8622	2939.959	3388.75	2501.35
1020.9765	2941.056	3320.8	2442.95
1021.0908	2942.1523	3239.25	2358.1
1021.2051	2943.248	3150.05	2270.4
1021.3193	2944.3431	3054.4	2175
1021.4334	2945.4375	2970.85	2091.25
1021.5476	2946.5313	2851.65	1973.1
1021.6617	2947.6244	2748.55	1869.3
1021.7757	2948.7169	2654.4	1774.75
1021.8897	2949.8087	2549.95	1672.45
1022.0037	2950.8999	2472.55	1592.65
1022.1176	2951.9904	2388.3	1510.6
1022.2315	2953.0803	2311.25	1430.9
1022.3453	2954.1696	2245.35	1366.6
1022.4591	2955.2582	2199.3	1319.35
1022.5728	2956.3462	2141.5	1261.3
1022.6865	2957.4335	2117.7	1237.4
1022.8002	2958.5202	2078.75	1198.1
1022.9138	2959.6062	2051.55	1173
1023.0274	2960.6916	2039.95	1160.15
1023.141	2961.7764	2013.9	1134
1023.2545	2962.8605	1997.65	1118.55
1023.3679	2963.9439	1993.05	1114.4
1023.4813	2965.0267	1979	1098.8
1023.5947	2966.1089	1986.2	1083.25
1023.708	2967.1905	1963.55	1084.3
1023.8213	2968.2714	1965.85	1087.15
1023.9346	2969.3516	1956.85	1076.65
1024.0478	2970.4312	1972.8	1084.9
1024.1609	2971.5102	1958.65	1079.85
1024.274	2972.5885	1955.8	1075.85
1024.3871	2973.6662	1960.65	1076.95
1024.5002	2974.7432	1956.15	1077.7
1024.6132	2975.8196	1953.95	1073.7
1024.7261	2976.8954	1942.65	1064
1024.839	2977.9705	1935	1054.15
1024.9519	2979.045	1919.5	1041.9
1025.0647	2980.1188	1894.3	1015.75
1025.1775	2981.192	1893.45	1016.45
1025.2902	2982.2645	1864	983.55
1025.4029	2983.3364	1828.3	947.35
1025.5156	2984.4077	1808.35	928.25
1025.6282	2985.4783	1784.85	900.3
1025.7407	2986.5483	1752.05	874.85
1025.8532	2987.6177	1714.25	834.4
1025.9657	2988.6864	1679.6	799.6
1026.0782	2989.7545	1654.4	774.7
1026.1906	2990.8219	1614.75	736.05
1026.3029	2991.8887	1581.2	699.1
1026.4152	2992.9548	1552.8	671.4
1026.5275	2994.0204	1522.9	644.25
1026.6397	2995.0852	1495.05	616.8
1026.7519	2996.1495	1467.45	587.25
1026.864	2997.2131	1450	569.5
1026.9761	2998.276	1433.2	555.25
1027.0882	2999.3383	1412.25	530.95
1027.2002	3000.4	1392.1	512.15
1027.3122	3001.4611	1382.75	503.8
1027.4241	3002.5215	1367.65	490.4
1027.536	3003.5812	1346.55	466.8
1027.6478	3004.6404	1343.1	463.65
1027.7596	3005.6989	1333.35	452.4
1027.8714	3006.7567	1321.55	442.2
1027.9831	3007.8139	1341.6	434.8
1028.0947	3008.8705	1313.1	433.9
1028.2064	3009.9264	1302.55	420.5
1028.3179	3010.9818	1310	430.35
1028.4295	3012.0364	1299.05	418.05
1028.541	3013.0905	1287.65	408.5
1028.6524	3014.1439	1289.6	410.7
1028.7638	3015.1966	1291.75	412
1028.8752	3016.2487	1286.1	406.65
1028.9865	3017.3002	1297.7	414.05
1029.0978	3018.3511	1290.35	412.45
1029.209	3019.4013	1293	415.5
1029.3202	3020.4509	1288.8	407.8
1029.4314	3021.4998	1291.05	411.35
1029.5425	3022.5481	1290.35	410.9
1029.6535	3023.5958	1289.65	411.25
1029.7645	3024.6428	1294.1	413.95
1029.8755	3025.6892	1290.25	410.6
1029.9864	3026.735	1298.95	420
1030.0973	3027.7802	1299.5	420.2
1030.2082	3028.8247	1300.8	421.65
1030.319	3029.8685	1311.5	432.45
1030.4297	3030.9118	1303.9	422.95
1030.5404	3031.9544	1313.25	435.75
1030.6511	3032.9963	1314.2	434.8
1030.7617	3034.0376	1324.8	445.5
1030.8723	3035.0783	1327.95	447.25
1030.9829	3036.1184	1336.3	456.75
1031.0934	3037.1578	1332.45	456.25
1031.2038	3038.1966	1339.95	458.05
1031.3142	3039.2348	1343.35	464.75
1031.4246	3040.2723	1347.6	459
1031.5349	3041.3092	1333.95	456.1
1031.6452	3042.3455	1335.25	455.1
1031.7554	3043.3811	1334.8	456.5
1031.8656	3044.4161	1329.7	448.45
1031.9758	3045.4505	1316.6	437.75
1032.0859	3046.4842	1317.5	436.85
1032.1959	3047.5173	1308.35	431
1032.3059	3048.5498	1302	422.35
1032.4159	3049.5816	1298.2	418.25
1032.5258	3050.6128	1295.85	414.85
1032.6357	3051.6434	1284.25	402.8
1032.7455	3052.6734	1284.9	404.55
1032.8553	3053.7027	1276.35	395.5
1032.9651	3054.7314	1264.35	385.65
1033.0748	3055.7594	1264.15	384.6
1033.1845	3056.7868	1259.9	379.55
1033.2941	3057.8136	1252.95	372.85
1033.4037	3058.8398	1241.85	363.8
1033.5132	3059.8653	1241.55	361.9
1033.6227	3060.8902	1245.1	366.25
1033.7321	3061.9145	1232.05	353.35
1033.8415	3062.9381	1234.25	356.25
1033.9509	3063.9612	1246.45	350.4
1034.0602	3064.9835	1220	340.05
1034.1694	3066.0053	1213.05	330.55
1034.2787	3067.0264	1202.15	324.1
1034.3878	3068.0469	1196.55	315.45
1034.497	3069.0668	1196.55	314.2
1034.6061	3070.086	1182.65	302.45
1034.7151	3071.1046	1180.6	298.8
1034.8241	3072.1226	1170.6	291
1034.9331	3073.1399	1160.6	280.85
1035.042	3074.1567	1149.6	269.2
1035.1508	3075.1727	1140.9	260.2
1035.2597	3076.1882	1136.35	258.05
1035.3684	3077.203	1125	247.5
1035.4772	3078.2173	1119.8	239.3
1035.5859	3079.2308	1112.45	228.15
1035.6945	3080.2438	1104.4	221.55
1035.8031	3081.2561	1093	213.95
1035.9117	3082.2678	1086.9	209.3
1036.0202	3083.2789	1078.95	197.5
1036.1286	3084.2893	1075.8	198.3
1036.2371	3085.2991	1072.4	191.6
1036.3454	3086.3083	1066.5	181.9
1036.4538	3087.3169	1060.9	180.15
1036.562	3088.3248	1056.2	176.3
1036.6703	3089.3321	1052.35	172.5
1036.7785	3090.3388	1046.15	166.1
1036.8866	3091.3449	1043.6	165.3
1036.9948	3092.3503	1043.1	160.2
1037.1028	3093.3551	1028.65	151.75
1037.2108	3094.3593	1034.15	154.7
1037.3188	3095.3629	1029.55	149.85
1037.4267	3096.3658	1027.05	145
1037.5346	3097.3681	1031.2	151.75
1037.6425	3098.3698	1024	144.85
1037.7503	3099.3708	1028.85	143.2
1037.858	3100.3713	1016.5	138.7
1037.9657	3101.3711	1019.7	139.75
1038.0734	3102.3702	1156.25	135.8
1038.181	3103.3688	1014.6	133.6
1038.2886	3104.3667	1012.8	134.7
1038.3961	3105.364	1005.75	128.25
1038.5036	3106.3607	1009.65	129
1038.611	3107.3568	1009.4	126.3
1038.7184	3108.3522	1003.8	125
1038.8257	3109.347	1007.6	124.9
1038.933	3110.3412	1008	125
1039.0403	3111.3348	1003.4	124.35
1039.1475	3112.3277	1000.75	120.25
1039.2547	3113.32	997.8	118.85
1039.3618	3114.3117	999.5	119.6
1039.4689	3115.3028	996.25	118.25
1039.5759	3116.2932	999.65	117.4
1039.6829	3117.2831	999	115.75
1039.7898	3118.2723	993.2	112.55
1039.8967	3119.2608	992.85	113.45
1040.0035	3120.2488	991.95	113.8
1040.1103	3121.2361	986.9	106.9
1040.2171	3122.2229	989.7	108.85
1040.3238	3123.209	987.75	108.55
1040.4305	3124.1944	988.75	110.8
1040.5371	3125.1793	987.45	106.75
1040.6437	3126.1635	984.5	105.2
1040.7502	3127.1471	985.05	108.25
1040.8567	3128.1301	985.6	106.45
1040.9631	3129.1125	981.95	102.85
1041.0695	3130.0942	981.3	102.45
1041.1759	3131.0753	989.05	100.25
1041.2822	3132.0558	985.4	106.5
1041.3884	3133.0357	980.8	99.7
1041.4946	3134.015	981.35	100.4
1041.6008	3134.9936	976.25	95.55
1041.7069	3135.9716	995.2	91.95
1041.813	3136.949	972	93
1041.919	3137.9258	992.45	94.05
1042.025	3138.902	979.2	94.5
1042.1309	3139.8775	971.45	93.25
1042.2368	3140.8524	970	89.6
1042.3427	3141.8267	970.25	87.3
1042.4485	3142.8004	969.55	89.95
1042.5542	3143.7735	974.95	89.8
1042.6599	3144.7459	966.25	85.65
1042.7656	3145.7178	969.8	88.95
1042.8712	3146.689	967.7	89.85
1042.9768	3147.6596	969.1	89.25
1043.0823	3148.6295	965.05	87
1043.1878	3149.5989	965.25	86.15
1043.2932	3150.5676	961.15	82.9
1043.3986	3151.5357	962.25	83.75
1043.5039	3152.5032	959.05	81.35
1043.6092	3153.4701	958.45	80.2
1043.7145	3154.4364	964.95	83.35
1043.8197	3155.402	957.7	80.3
1043.9248	3156.367	960.9	79.2
1044.03	3157.3315	992.05	78.1
1044.135	3158.2952	957.15	76.9
1044.24	3159.2584	954.95	75.35
1044.345	3160.221	953.95	73.75
1044.4499	3161.1829	955.3	75.55
1044.5548	3162.1442	953.3	73.7
1044.6596	3163.105	953.05	74.85
1044.7644	3164.065	953.25	74.35
1044.8692	3165.0245	952.7	70.25
1044.9739	3165.9834	949.45	71
1045.0785	3166.9416	952.75	75.25
1045.1831	3167.8993	950.65	72.15
1045.2877	3168.8563	950.5	72.4
1045.3922	3169.8127	951	71.15
1045.4966	3170.7684	948.25	68.05
1045.6011	3171.7236	951.5	69.55
1045.7054	3172.6782	950.05	71.2
1045.8098	3173.6321	949.85	67.75
1045.914	3174.5854	949.15	67.45
1046.0183	3175.5381	946.2	67.4
1046.1224	3176.4902	946.65	69.85
1046.2266	3177.4417	945.1	66.8
1046.3307	3178.3926	945.9	67.85
1046.4347	3179.3428	943.1	65.6
1046.5387	3180.2924	942.6	62.9
1046.6427	3181.2415	944.35	65.9
1046.7466	3182.1899	944.55	63.8
1046.8504	3183.1377	942.5	64.6
1046.9542	3184.0848	943.6	60.05
1047.058	3185.0314	944.45	68.55
1047.1617	3185.9773	944.2	64.25
1047.2654	3186.9227	943.7	61.75
1047.369	3187.8674	944.95	64.05
1047.4726	3188.8115	943.9	61.45
1047.5761	3189.755	939.75	60.65
1047.6796	3190.6979	942.6	65.15
1047.783	3191.6402	937	57
1047.8864	3192.5818	940.05	62.25
1047.9898	3193.5229	967.4	60.9
1048.0931	3194.4633	940.6	59.65
1048.1963	3195.4031	937.65	58
1048.2995	3196.3423	933.7	54.5
1048.4027	3197.2809	937.65	58.5
1048.5058	3198.2189	939.05	58.7
1048.6089	3199.1563	955.5	58.8
1048.7119	3200.0931	935.8	57.1
1048.8148	3201.0292	935.2	58.45
1048.9178	3201.9648	936.1	56.65
1049.0206	3202.8997	940.9	57.65
1049.1235	3203.834	938.7	59.2
1049.2262	3204.7677	935.85	58.75
1049.329	3205.7008	936.85	55
1049.4317	3206.6333	931.6	52.45
1049.5343	3207.5652	935.5	54.25
1049.6369	3208.4964	933.1	53.45
1049.7394	3209.4271	931.85	54.65
1049.8419	3210.3571	934.25	55.75
1049.9444	3211.2865	935.05	54.9
1050.0468	3212.2154	934.45	55.8
1050.1491	3213.1436	934.6	52.75
1050.2514	3214.0712	939.65	52.75
1050.3537	3214.9982	935.6	57.05
1050.4559	3215.9246	929.35	48.65
1050.5581	3216.8503	928.5	50.25
1050.6602	3217.7755	928.6	48.1
1050.7623	3218.7001	930.7	52.1
1050.8643	3219.624	929.9	48.8
1050.9663	3220.5473	930.75	52.35
1051.0682	3221.4701	932.5	51.7
1051.1701	3222.3922	932.55	51.75
1051.2719	3223.3137	931.45	52.55
1051.3737	3224.2346	930.95	51.5
1051.4754	3225.1549	927.8	49.5
1051.5771	3226.0746	927.15	49.05
1051.6788	3226.9937	927.05	48.15
1051.7804	3227.9121	927.4	51.2
1051.8819	3228.83	926.9	48.95
1051.9834	3229.7473	927.85	48.55
1052.0849	3230.6639	929.6	51.35
1052.1863	3231.5799	926	45.6
1052.2876	3232.4954	927.8	45.65
1052.3889	3233.4102	927.1	49.25
1052.4902	3234.3244	925.95	44.75
1052.5914	3235.238	925.95	46.55
1052.6926	3236.151	952.75	48.7
1052.7937	3237.0634	928.35	49.35
1052.8948	3237.9752	927.95	47.3
1052.9958	3238.8864	926.05	47.05
1053.0968	3239.797	924.75	44.65
1053.1977	3240.7069	923.3	43.1
1053.2986	3241.6163	926.9	46
1053.3994	3242.5251	924.15	45.6
1053.5002	3243.4332	921	42.75
1053.6009	3244.3408	921.55	42.25
1053.7016	3245.2477	921.75	43.95
1053.8022	3246.154	923.95	43.1
1053.9028	3247.0598	922.1	40.1
1054.0034	3247.9649	919.55	39.35
1054.1039	3248.8694	920.25	39.35
1054.2043	3249.7733	920.4	41.25
1054.3047	3250.6766	922.2	42.2
1054.4051	3251.5793	920.85	41.95
1054.5054	3252.4814	919.3	41.25
1054.6056	3253.3829	917.75	41.05
1054.7058	3254.2838	919.7	39.6
1054.806	3255.1841	920.3	42.15
1054.9061	3256.0838	916.1	37.2
1055.0061	3256.9829	918	39.4
1055.1062	3257.8814	918.5	37.2
1055.2061	3258.7792	918.65	38.2
1055.306	3259.6765	917.6	38.1
1055.4059	3260.5731	916.5	37.1
1055.5057	3261.4692	915.75	37.2
1055.6055	3262.3647	915.3	35.85
1055.7052	3263.2595	912.8	34
1055.8049	3264.1538	912.75	33.25
1055.9045	3265.0474	913.1	31.4
1056.0041	3265.9404	912.95	32.95
1056.1036	3266.8329	913.15	35.65
1056.2031	3267.7247	920.45	29.05
1056.3025	3268.616	910.2	32.45
1056.4019	3269.5066	908.85	28.35
1056.5013	3270.3966	910.4	31.1
1056.6005	3271.286	908.25	31.6
