Software Version:	3.9.2.0
Unit SN:	10000200
Spectrometer SN:	6960
Date:	3/14/2024 2:27:29 PM
Data Line Index:	25
Spectral Points:	2048
Integration time (ms):	125
Averages:	20
Delay (ms):	30000
Sequence Number:	1
Processing:	dark subtract
Laser Power (mW):	305
Laser Current (mA):	825
Laser Diode Temp (C):	25
Laser Case Temp (C):	29.3
System Temp (C):	29.2
Spectrometer Temp (C):	27
CCD Temp (C):	0.009
Secondary Temp (C):	20.013
Heatsink Temp (C):	25.14
CCDPCB Temp (C):	38.463
SecondaryPCB Temp (C):	36.085

Wavelength	RamanShift	Raw Counts	Dark Subtracted
787.061	30.1047	455.05	44.8
787.2016	32.3739	455.05	46.5
787.3422	34.6426	461.15	50.75
787.4828	36.9109	468.15	57.2
787.6235	39.1787	474.6	58.85
787.7642	41.4461	484.3	64.7
787.9049	43.7131	490.75	67.7
788.0456	45.9796	501.2	73.85
788.1863	48.2456	511.15	78.85
788.3271	50.5112	521	84.35
788.4679	52.7764	528.05	91.6
788.6087	55.0411	537.15	96.95
788.7496	57.3054	548.35	102.35
788.8904	59.5692	560.05	111.05
789.0313	61.8326	571.95	117.65
789.1722	64.0955	586.65	128.85
789.3132	66.3579	602.4	139.7
789.4541	68.6199	621.35	156.7
789.5951	70.8815	650.45	184.7
789.7361	73.1426	726.65	254.05
789.8771	75.4032	908.7	431.05
790.0181	77.6634	1357.8	875.35
790.1592	79.9231	2450.65	1963.3
790.3003	82.1824	4816.25	4317.6
790.4414	84.4412	9201.75	8686.25
790.5825	86.6995	15392	14858
790.7237	88.9574	21646.15	21090.8
790.8648	91.2148	26112.3	25546.85
791.006	93.4717	28312.5	27735.45
791.1472	95.7282	28857.7	28275.7
791.2885	97.9842	28878.5	28296.65
791.4297	100.2398	28388.15	27802.3
791.571	102.4949	27836.5	27247.7
791.7123	104.7495	27068.8	26474.25
791.8536	107.0036	26244.9	25649.8
791.9949	109.2573	25460.7	24865.6
792.1363	111.5105	24597.75	24004.3
792.2777	113.7632	23737.2	23138.4
792.4191	116.0154	23050.9	22441.1
792.5605	118.2672	22470.45	21868.2
792.7019	120.5185	21926.45	21323.9
792.8434	122.7693	21470	20865.15
792.9849	125.0197	21134	20525.7
793.1264	127.2696	20813.25	20202.45
793.2679	129.519	20637.95	20027.3
793.4094	131.7679	20460.7	19848.3
793.551	134.0163	20345.4	19727.55
793.6926	136.2642	20204	19582.35
793.8342	138.5117	20029.05	19396.35
793.9758	140.7587	19822	19194.85
794.1175	143.0052	19657.55	19027.95
794.2591	145.2512	19444.9	18817.05
794.4008	147.4967	19220.8	18587.65
794.5425	149.7417	19065.2	18428.85
794.6842	151.9863	18942.55	18304.7
794.826	154.2304	18883.9	18248.1
794.9677	156.4739	18748.6	18104.05
795.1095	158.717	18681.1	18037.6
795.2513	160.9596	18553.45	17904.4
795.3931	163.2017	18250.8	17598.15
795.535	165.4433	17940.8	17286.75
795.6768	167.6844	17613.95	16959.45
795.8187	169.925	17216.55	16561.8
795.9606	172.1651	16821.8	16160.1
796.1025	174.4047	16517.45	15852.95
796.2445	176.6439	16197	15529.2
796.3864	178.8825	15910.4	15239.6
796.5284	181.1206	15709.2	15037.55
796.6704	183.3582	15507.25	14830.6
796.8124	185.5954	15388.3	14711.2
796.9544	187.832	15246.65	14565.6
797.0965	190.0681	15193.4	14512.25
797.2386	192.3037	15161.8	14475.8
797.3806	194.5388	15133.5	14445.25
797.5228	196.7734	15185.05	14493.5
797.6649	199.0075	15216.8	14520.85
797.807	201.2411	15354.5	14657.05
797.9492	203.4742	15425	14728.65
798.0914	205.7068	15518.95	14820.85
798.2336	207.9389	15616.35	14919.8
798.3758	210.1704	15769.25	15066.75
798.518	212.4015	15885.7	15181.8
798.6603	214.632	16063.05	15356.55
798.8025	216.862	16248.25	15549.3
798.9448	219.0915	16456.35	15763.35
799.0871	221.3205	16702.2	16012.8
799.2294	223.549	16998.6	16316.9
799.3718	225.777	17373.05	16692.7
799.5141	228.0044	17868.5	17183.5
799.6565	230.2314	18432.95	17749.2
799.7989	232.4578	18954.4	18269.2
799.9413	234.6837	19447	18755.75
800.0837	236.909	19697.45	19002.85
800.2262	239.1339	19652.65	18935.8
800.3687	241.3582	19380	18678.05
800.5111	243.582	18926.6	18197.1
800.6536	245.8053	18485.3	17767.2
800.7961	248.0281	18023.65	17306.5
800.9387	250.2503	17656.75	16936.55
801.0812	252.472	17413.95	16685.3
801.2238	254.6932	17229.05	16501.05
801.3664	256.9139	17075.3	16345.55
801.509	259.134	16990.1	16255.55
801.6516	261.3536	16851.45	16120.95
801.7942	263.5727	16810.25	16079.05
801.9369	265.7912	16623.5	15893.2
802.0795	268.0092	16557.5	15824.65
802.2222	270.2267	16447.45	15713.5
802.3649	272.4436	16365.85	15630
802.5076	274.6601	16315.15	15571.65
802.6504	276.8759	16265.6	15526.9
802.7931	279.0913	16235.2	15494.75
802.9359	281.3061	16263.4	15522
803.0787	283.5204	16376.35	15632.6
803.2215	285.7341	16511.7	15764.75
803.3643	287.9473	16733.35	15973.85
803.5071	290.16	16980.7	16224.9
803.6499	292.3721	17353.1	16603.95
803.7928	294.5837	17840.65	17090
803.9357	296.7947	18261.75	17515.55
804.0786	299.0052	18480.15	17733.35
804.2215	301.2152	18329.4	17578.5
804.3644	303.4246	17901.4	17155.35
804.5074	305.6334	17296.45	16547.55
804.6503	307.8418	16731.65	15980.05
804.7933	310.0495	16242.05	15487.15
804.9363	312.2568	15886.6	15133.4
805.0793	314.4635	15661.3	14908.35
805.2223	316.6696	15585.8	14830.95
805.3653	318.8752	15576.3	14812.7
805.5084	321.0802	15623.75	14866.95
805.6514	323.2847	15790.4	15035.1
805.7945	325.4887	15810.85	15054.25
805.9376	327.692	15770.4	15012.75
806.0807	329.8949	15645.3	14888.2
806.2238	332.0972	15323.85	14562.9
806.367	334.2989	15036.8	14270.2
806.5101	336.5001	14700.75	13936.45
806.6533	338.7007	14457.9	13689.35
806.7965	340.9008	14308.05	13542.15
806.9397	343.1003	14164.45	13392.45
807.0829	345.2992	14126.75	13356
807.2261	347.4976	14085.95	13318.35
807.3693	349.6955	14054.85	13280.2
807.5126	351.8927	14132.55	13356.75
807.6559	354.0895	14136.75	13349.85
807.7991	356.2856	14187	13408.15
807.9424	358.4812	14155.2	13376.05
808.0857	360.6763	14158.6	13381.2
808.2291	362.8707	14136.15	13356.05
808.3724	365.0646	14170.65	13387.6
808.5158	367.258	14128.45	13343.45
808.6591	369.4508	14153.45	13365.3
808.8025	371.643	14175	13390
808.9459	373.8346	14132.95	13343.95
809.0893	376.0257	14101.55	13312.1
809.2327	378.2162	14020.95	13228.35
809.3762	380.4062	13864.15	13070.45
809.5196	382.5956	13691.15	12894.7
809.6631	384.7844	13583.75	12788.55
809.8066	386.9726	13461.9	12664.15
809.9501	389.1603	13386.45	12588.7
810.0936	391.3474	13376.65	12541.9
810.2371	393.5339	13325.15	12529.6
810.3806	395.7199	13239.25	12447.25
810.5241	397.9052	13253.55	12462.7
810.6677	400.09	13250.1	12461.55
810.8113	402.2743	13274.4	12487.25
810.9548	404.4579	13307.3	12518.25
811.0984	406.641	13484.75	12698.3
811.2421	408.8235	13701.15	12913.4
811.3857	411.0054	14069.75	13282.3
811.5293	413.1868	14573.8	13782.7
811.673	415.3675	14996.25	14202.65
811.8166	417.5477	15246.3	14453.7
811.9603	419.7273	15362.35	14566.15
812.104	421.9064	15233.45	14429.8
812.2477	424.0848	15049.55	14251.9
812.3914	426.2627	14802.75	13999.85
812.5351	428.4399	14497	13695.2
812.6788	430.6166	14086.2	13276.05
812.8226	432.7928	13689.15	12882.45
812.9663	434.9683	13321.3	12515.4
813.1101	437.1432	13072.9	12263.1
813.2539	439.3176	12863.9	12054.15
813.3977	441.4914	12756.85	11946.85
813.5415	443.6645	12716.8	11900.9
813.6853	445.8371	12627.95	11816.35
813.8291	448.0091	12542.05	11731.3
813.973	450.1806	12507.25	11693.9
814.1168	452.3514	12440	11625.9
814.2607	454.5216	12417.25	11592.2
814.4046	456.6913	12343.45	11531.05
814.5485	458.8603	12353.4	11540.2
814.6924	461.0288	12383	11566.6
814.8363	463.1967	12429.85	11615.75
814.9802	465.3639	12570.35	11755
815.1241	467.5306	12697.6	11879.9
815.2681	469.6967	12887.55	12070.2
815.412	471.8622	13061.8	12244.7
815.556	474.0271	13221.5	12401.8
815.7	476.1914	13341.5	12520.1
815.844	478.3551	13285.35	12466.45
815.988	480.5182	13249.4	12428.9
816.132	482.6807	13177.45	12356.9
816.276	484.8426	13202.55	12382.25
816.4201	487.0039	13440.7	12618.6
816.5641	489.1647	13840.25	13018.8
816.7082	491.3248	14330.2	13509
816.8522	493.4843	14567.8	13746.1
816.9963	495.6432	14595.5	13773.95
817.1404	497.8015	14547.8	13724.8
817.2845	499.9592	14590.15	13766.9
817.4286	502.1163	14575.8	13753.15
817.5727	504.2728	14364.85	13540.7
817.7168	506.4287	13993.8	13167.65
817.861	508.5839	13562.4	12737.95
818.0051	510.7386	13142.75	12319.15
818.1493	512.8927	12865.15	12036.1
818.2935	515.0461	12664.25	11835.25
818.4377	517.199	12521.4	11697.05
818.5818	519.3512	12419.5	11594.35
818.726	521.5029	12405.85	11575.2
818.8703	523.6539	12400.65	11572.15
819.0145	525.8043	12439.5	11607.65
819.1587	527.9541	12457.95	11626.75
819.303	530.1033	12485.8	11654.25
819.4472	532.2519	12576.95	11745.6
819.5915	534.3999	12748.55	11913.55
819.7357	536.5472	13084.55	12252.5
819.88	538.694	13623.25	12790.4
820.0243	540.8401	14348.9	13516.6
820.1686	542.9856	14932.8	14098.9
820.3129	545.1305	15164.05	14330.65
820.4572	547.2748	15013.75	14180.45
820.6016	549.4185	14579.7	13742.6
820.7459	551.5615	14146.05	13309.15
820.8902	553.704	13897.9	13063.2
821.0346	555.8458	13731.5	12896.75
821.1789	557.987	13686.75	12851.05
821.3233	560.1276	13529.25	12690.7
821.4677	562.2675	13385.2	12549.15
821.6121	564.4069	13247.85	12411.75
821.7565	566.5456	13095.1	12260.1
821.9009	568.6837	12905.15	12067.45
822.0453	570.8212	12666.75	11831.55
822.1897	572.958	12435.3	11597.65
822.3342	575.0942	12274.1	11438.05
822.4786	577.2299	12130.75	11292.15
822.6231	579.3648	12126.75	11291.4
822.7675	581.4992	12259.5	11421.65
822.912	583.6329	12472.1	11636.3
823.0565	585.766	12765.9	11927.4
823.201	587.8985	12899.2	12065
823.3454	590.0304	12912.6	12050.9
823.4899	592.1616	12816.85	11973.95
823.6345	594.2922	12716.15	11874.9
823.779	596.4222	12585.25	11746.1
823.9235	598.5515	12402.85	11562.25
824.068	600.6802	12226.65	11383.65
824.2126	602.8083	12021.45	11177.75
824.3571	604.9358	11911.35	11067.55
824.5017	607.0626	11809.4	10967.8
824.6462	609.1888	11717.75	10874.55
824.7908	611.3144	11562	10722
824.9354	613.4393	11373.05	10529.7
825.08	615.5636	11203.15	10361.05
825.2246	617.6873	11071.35	10229.5
825.3692	619.8103	11000.4	10155.35
825.5138	621.9327	10917.85	10070.2
825.6584	624.0544	10925.15	10081.4
825.803	626.1756	10928.35	10084.5
825.9477	628.2961	10879.4	10036.25
826.0923	630.4159	10829.9	9987.55
826.237	632.5351	10778.65	9931.75
826.3816	634.6537	10700.55	9856.5
826.5263	636.7716	10654.35	9806.95
826.6709	638.8889	10611.7	9766.3
826.8156	641.0056	10637.35	9789.8
826.9603	643.1216	10630.85	9781.9
827.105	645.237	10658.85	9811.05
827.2497	647.3518	10634.55	9786.4
827.3944	649.4659	10683.55	9837.9
827.5391	651.5793	10663.65	9814.1
827.6838	653.6922	10661.9	9814.45
827.8285	655.8043	10618.4	9771.45
827.9733	657.9159	10585.75	9736.15
828.118	660.0268	10465.95	9612.8
828.2627	662.137	10407.55	9558.1
828.4075	664.2466	10331.7	9480.7
828.5522	666.3556	10316.75	9466.55
828.697	668.4639	10314.6	9463.45
828.8418	670.5716	10333.25	9480.3
828.9865	672.6786	10427.95	9574.45
829.1313	674.785	10516.35	9662.75
829.2761	676.8907	10595.25	9742.4
829.4209	678.9958	10703.05	9852.15
829.5657	681.1002	10672.55	9820.85
829.7105	683.204	10632.3	9774.85
829.8553	685.3072	10567.45	9712.05
830.0001	687.4097	10464.2	9609.35
830.1449	689.5115	10400.65	9545.55
830.2898	691.6127	10310.15	9456.8
830.4346	693.7132	10218.2	9364.65
830.5794	695.8131	10141.45	9264.35
830.7243	697.9123	10086.6	9228.2
830.8691	700.0109	9991.15	9135.7
831.014	702.1089	9982.7	9126.1
831.1588	704.2061	9991.5	9135.65
831.3037	706.3028	9962.4	9102.1
831.4486	708.3987	10028.2	9172.15
831.5935	710.4941	10120.3	9266.7
831.7383	712.5887	10326.6	9469.8
831.8832	714.6827	10650.5	9789.15
832.0281	716.7761	11052.7	10194.8
832.173	718.8688	11482.4	10623.8
832.3179	720.9608	11725.05	10863.6
832.4628	723.0522	11717.1	10854.7
832.6077	725.1429	11448	10590.85
832.7527	727.233	11068.3	10207.1
832.8976	729.3224	10684.65	9823.15
833.0425	731.4112	10318	9458.55
833.1874	733.4993	10052.95	9192.4
833.3324	735.5867	9894.2	9034.1
833.4773	737.6735	9787.2	8928.1
833.6222	739.7596	9736.45	8874.45
833.7672	741.845	9705.8	8845.35
833.9122	743.9298	9694.65	8833.65
834.0571	746.014	9712.4	8851.15
834.2021	748.0974	9684	8822.1
834.347	750.1802	9707.25	8846.5
834.492	752.2624	9687.9	8828.25
834.637	754.3439	9701.25	8840
834.782	756.4247	9764.65	8892.95
834.9269	758.5048	9847.7	8988.65
835.0719	760.5843	10019.3	9156.8
835.2169	762.6631	10290.1	9427.6
835.3619	764.7413	10689.25	9826
835.5069	766.8188	11272.7	10409.3
835.6519	768.8956	11783.5	10920.1
835.7969	770.9718	12128.9	11267.8
835.9419	773.0473	12056.75	11194.55
836.0869	775.1221	11710.7	10850.5
836.232	777.1962	11307.85	10445.35
836.377	779.2697	11060.4	10198.1
836.522	781.3426	11135.15	10252.45
836.667	783.4147	11420.2	10557.25
836.8121	785.4862	11752	10890.05
836.9571	787.557	11813.25	10950.2
837.1021	789.6271	11456.85	10594
837.2472	791.6966	10889.6	10027.25
837.3922	793.7654	10352.1	9488.35
837.5373	795.8335	9990.95	9125.4
837.6823	797.901	9770.95	8906.55
837.8274	799.9678	9695.1	8828.95
837.9724	802.0339	9701.35	8838.5
838.1175	804.0993	9782.65	8908.5
838.2626	806.1641	9754.7	8891.9
838.4076	808.2282	9703.8	8840
838.5527	810.2916	9600.25	8735.2
838.6978	812.3544	9446	8580.9
838.8428	814.4164	9381.9	8516.95
838.9879	816.4778	9312.6	8448.65
839.133	818.5385	9321.55	8456.95
839.2781	820.5986	9337.95	8472.85
839.4232	822.658	9382.25	8515.6
839.5682	824.7166	9402.45	8537.3
839.7133	826.7747	9522.1	8658.05
839.8584	828.832	9622.55	8755.7
840.0035	830.8886	9734.1	8865.65
840.1486	832.9446	9869.45	9000.55
840.2937	834.9999	9975.2	9113.1
840.4388	837.0545	10083.4	9213.75
840.5839	839.1085	10156.15	9290.85
840.729	841.1618	10143.5	9274.85
840.8741	843.2143	10151.7	9285.2
841.0192	845.2662	10089.65	9224.75
841.1643	847.3175	10056.65	9190.35
841.3095	849.368	9924.4	9056.55
841.4546	851.4179	9779.1	8911.35
841.5997	853.467	9617.2	8746.15
841.7448	855.5155	9494.2	8627.8
841.8899	857.5633	9359.85	8490.3
842.0351	859.6105	9239.4	8371.15
842.1802	861.6569	9158.6	8292.35
842.3253	863.7027	9073.35	8206.2
842.4704	865.7478	9059.15	8189.2
842.6156	867.7922	9064.6	8198.85
842.7607	869.8359	9103.3	8234.55
842.9058	871.8789	9238.7	8367.55
843.0509	873.9212	9438.95	8535.9
843.1961	875.9629	9616.5	8748.55
843.3412	878.0039	9817.55	8949.55
843.4863	880.0441	9917.2	9048.05
843.6315	882.0837	9892.45	9023.65
843.7766	884.1226	9757.5	8885.1
843.9218	886.1609	9562.1	8692.5
844.0669	888.1984	9427.85	8560.4
844.212	890.2352	9342.6	8473
844.3572	892.2714	9272.15	8397.5
844.5023	894.3069	9237.5	8366.9
844.6475	896.3416	9158.1	8287.4
844.7926	898.3757	9137.95	8266.45
844.9377	900.4091	9132.1	8262.35
845.0829	902.4418	9135.1	8258.1
845.228	904.4739	9141.65	8269.4
845.3732	906.5052	9114.45	8244.15
845.5183	908.5358	8994.9	8124.45
845.6635	910.5658	8830.25	7959
845.8086	912.595	8687.85	7815.75
845.9538	914.6236	8554.4	7683.8
846.0989	916.6515	8503.55	7632.9
846.2441	918.6786	8492.6	7619.65
846.3892	920.7051	8557.5	7682
846.5344	922.7309	8650.35	7781.85
846.6795	924.756	8747.7	7878.05
846.8246	926.7804	8848.85	7977.45
846.9698	928.8041	8813.2	7938.75
847.1149	930.8272	8809.15	7938.55
847.2601	932.8495	8768.15	7894.55
847.4052	934.8711	8672.5	7801.05
847.5504	936.892	8515.75	7642.5
847.6955	938.9123	8330.5	7456.05
847.8407	940.9318	8174.5	7303.35
847.9858	942.9506	8040.2	7165.45
848.131	944.9688	7927.25	7053.65
848.2761	946.9862	7891.9	7020.25
848.4213	949.003	7833.75	6960.4
848.5664	951.019	7851.95	6979.9
848.7115	953.0344	7878.05	7004.4
848.8567	955.0491	7923.05	7048.8
849.0018	957.063	7979.7	7108.3
849.147	959.0763	8070.75	7196.55
849.2921	961.0888	8133.4	7259.55
849.4373	963.1007	8222.95	7347.4
849.5824	965.1119	8259.75	7387.2
849.7275	967.1223	8297.9	7424.55
849.8727	969.1321	8319.1	7447.65
850.0178	971.1412	8357.35	7483.2
850.1629	973.1495	8391.95	7517.85
850.3081	975.1572	8459.95	7552.95
850.4532	977.1641	8452.75	7580.6
850.5983	979.1704	8425.9	7551.1
850.7435	981.1759	8425.45	7549.55
850.8886	983.1808	8480.35	7607.3
851.0337	985.1849	8607.25	7722.75
851.1788	987.1884	8759.35	7882.5
851.324	989.1911	8977.6	8099.65
851.4691	991.1932	9111.95	8236.8
851.6142	993.1945	9198.3	8324.65
851.7593	995.1951	9177.85	8305.45
851.9045	997.1951	9143.4	8263.65
852.0496	999.1943	9038.7	8163.9
852.1947	1001.1928	8992.15	8118.9
852.3398	1003.1906	8978.7	8104.65
852.4849	1005.1877	9021.05	8146.45
852.63	1007.1841	8956.6	8080.9
852.7751	1009.1798	8830.8	7956.85
852.9202	1011.1748	8658.6	7782.3
853.0653	1013.1691	8465.9	7588.55
853.2104	1015.1627	8226.8	7352.75
853.3555	1017.1556	8020.25	7145.05
853.5006	1019.1477	7909.45	7033.9
853.6457	1021.1392	7847.65	6974
853.7908	1023.1299	7841.5	6966.85
853.9359	1025.12	7856.5	6978.9
854.081	1027.1093	7933.2	7058.8
854.2261	1029.0979	8008.8	7134.85
854.3712	1031.0859	8070.75	7195.8
854.5163	1033.0731	8062.55	7186.45
854.6613	1035.0596	7986.25	7111.8
854.8064	1037.0454	7837.45	6963.5
854.9515	1039.0304	7729.75	6853.15
855.0965	1041.0148	7621.9	6747.1
855.2416	1042.9985	7510.6	6635.9
855.3867	1044.9814	7468.3	6590
855.5317	1046.9636	7405.55	6527.15
855.6768	1048.9452	7402.15	6527.7
855.8219	1050.926	7404.6	6530.85
855.9669	1052.9061	7371.45	6496.4
856.112	1054.8855	7368.65	6491.65
856.257	1056.8642	7375.05	6501.65
856.4021	1058.8421	7435.25	6555.35
856.5471	1060.8194	7458.1	6582.65
856.6921	1062.7959	7476.4	6601.6
856.8372	1064.7717	7495.4	6617.65
856.9822	1066.7469	7492.6	6616
857.1272	1068.7213	7469.9	6590.25
857.2723	1070.695	7435.35	6560.1
857.4173	1072.6679	7377.15	6500.6
857.5623	1074.6402	7323.95	6447.1
857.7073	1076.6117	7305.55	6423.85
857.8523	1078.5826	7324.7	6448
857.9973	1080.5527	7389.05	6510.9
858.1423	1082.5221	7526.05	6649.8
858.2873	1084.4908	7760.65	6884.05
858.4323	1086.4587	7989.75	7110.3
858.5773	1088.426	8175.65	7297.6
858.7223	1090.3925	8182.2	7301.85
858.8673	1092.3584	8090.35	7214.95
859.0123	1094.3235	7940.9	7063.65
859.1573	1096.2879	7838.3	6962.25
859.3022	1098.2515	7783.65	6904.45
859.4472	1100.2145	7789.1	6910.2
859.5922	1102.1767	7861.05	6981.35
859.7371	1104.1382	7975.8	7098.1
859.8821	1106.099	8175.35	7293.95
860.027	1108.0591	8431.5	7553.25
860.172	1110.0185	8556.35	7679.25
860.3169	1111.9771	8548.8	7673.15
860.4619	1113.9351	8346.5	7467
860.6068	1115.8923	7994.75	7119.95
860.7517	1117.8488	7649.65	6771.4
860.8967	1119.8045	7358.45	6480.35
861.0416	1121.7596	7191.95	6313.15
861.1865	1123.7139	7096.95	6219.1
861.3314	1125.6675	7090.35	6214.1
861.4763	1127.6204	7150.9	6273.5
861.6212	1129.5726	7201.4	6320.85
861.7661	1131.524	7233.85	6357.35
861.911	1133.4748	7272.8	6393.4
862.0559	1135.4248	7341.15	6462.55
862.2008	1137.3741	7354.9	6478.05
862.3457	1139.3226	7328.6	6451.75
862.4905	1141.2705	7305.5	6428.45
862.6354	1143.2176	7245.65	6361.2
862.7803	1145.164	7258.55	6380
862.9251	1147.1097	7283.9	6405
863.07	1149.0546	7261.2	6379.7
863.2148	1150.9989	7161	6280.5
863.3597	1152.9424	6976	6097.35
863.5045	1154.8852	6776.85	5897.8
863.6493	1156.8272	6633.2	5756.7
863.7942	1158.7686	6560.35	5675.25
863.939	1160.7092	6507.35	5628.6
864.0838	1162.6491	6491.35	5609.55
864.2286	1164.5883	6548.1	5669.6
864.3734	1166.5267	6639.35	5758.6
864.5182	1168.4644	6783.35	5906
864.663	1170.4014	6954.35	6071.2
864.8078	1172.3377	7191	6315.3
864.9526	1174.2732	7390.95	6512.15
865.0974	1176.2081	7594.4	6717.9
865.2421	1178.1421	7766.65	6884.45
865.3869	1180.0755	7898.7	7022.95
865.5317	1182.0082	7927.5	7046.3
865.6764	1183.9401	7870.85	6990.15
865.8212	1185.8713	7640.3	6764.1
865.9659	1187.8017	7384.85	6506.55
866.1106	1189.7315	7141.45	6264.35
866.2554	1191.6605	6932.1	6023.3
866.4001	1193.5888	6685.4	5806.05
866.5448	1195.5163	6542.15	5663.4
866.6895	1197.4432	6441.7	5561.1
866.8342	1199.3693	6382.05	5502.45
866.9789	1201.2947	6340.15	5458.65
867.1236	1203.2193	6313.1	5432.45
867.2683	1205.1432	6336.35	5457.8
867.413	1207.0664	6368.5	5488.6
867.5576	1208.9889	6470.65	5589.5
867.7023	1210.9106	6564.1	5685.8
867.847	1212.8316	6645.3	5766.7
867.9916	1214.7519	6746.15	5858.75
868.1363	1216.6715	6768.8	5889.9
868.2809	1218.5903	6752.8	5875.55
868.4255	1220.5084	6692.4	5812.6
868.5701	1222.4257	6661.95	5782.7
868.7148	1224.3424	6614.7	5736.95
868.8594	1226.2583	6662.15	5778.25
869.004	1228.1735	6771.9	5893.25
869.1486	1230.0879	6899.8	6018
869.2932	1232.0016	7037	6157.85
869.4377	1233.9146	7082.95	6204.35
869.5823	1235.8269	7008.35	6129.4
869.7269	1237.7384	6850.05	5969.85
869.8715	1239.6492	6704.95	5823.9
870.016	1241.5592	6572.55	5691.7
870.1606	1243.4686	6480.3	5600.2
870.3051	1245.3772	6422.55	5542.3
870.4496	1247.285	6341.6	5462.15
870.5941	1249.1922	6294.3	5415
870.7387	1251.0986	6301.25	5424.5
870.8832	1253.0042	6302.3	5424.15
871.0277	1254.9092	6346.8	5467.65
871.1722	1256.8134	6454.7	5576.1
871.3167	1258.7169	6612.95	5732.4
871.4611	1260.6196	6767.7	5889.35
871.6056	1262.5216	6933.5	6053.15
871.7501	1264.4229	7093.55	6214.9
871.8945	1266.3234	7201.45	6322.35
872.039	1268.2232	7257.15	6376
872.1834	1270.1223	7227.75	6346.2
872.3278	1272.0207	7188.5	6308.9
872.4723	1273.9183	7154.35	6267.2
872.6167	1275.8151	7109.7	6228.55
872.7611	1277.7113	6997	6116.4
872.9055	1279.6067	6843.15	5961.75
873.0499	1281.5014	6684.45	5803.65
873.1943	1283.3953	6540.6	5660.2
873.3386	1285.2885	6441.75	5562.65
873.483	1287.181	6352.95	5472
873.6274	1289.0727	6337.7	5458.15
873.7717	1290.9637	6376.2	5496.6
873.9161	1292.854	6483.1	5602.95
874.0604	1294.7435	6655	5772.75
874.2047	1296.6323	6864	5983.55
874.349	1298.5204	7137.05	6252.05
874.4933	1300.4077	7389.85	6510.65
874.6376	1302.2943	7612.55	6730.9
874.7819	1304.1802	7710.95	6833.55
874.9262	1306.0653	7661.8	6778.85
875.0705	1307.9497	7542.35	6664.3
875.2147	1309.8333	7482.95	6604.9
875.359	1311.7162	7473.2	6594.05
875.5032	1313.5984	7572.35	6688.7
875.6475	1315.4798	7718	6827
875.7917	1317.3605	7913.45	7018
875.9359	1319.2405	8052	7169.05
876.0801	1321.1197	8095.95	7214.3
876.2243	1322.9982	8077.25	7189.8
876.3685	1324.876	8075.45	7195.8
876.5127	1326.753	8051.1	7168.5
876.6569	1328.6293	8072.45	7191.25
876.801	1330.5048	8108.95	7226.3
876.9452	1332.3796	8075.05	7193.85
877.0893	1334.2537	8075.55	7170.1
877.2335	1336.127	7986.25	7105.05
877.3776	1337.9996	7953.55	7072.9
877.5217	1339.8714	7892.35	7010.8
877.6658	1341.7426	7858.85	6932.6
877.8099	1343.6129	7778.75	6898.3
877.954	1345.4826	7704.35	6820.05
878.0981	1347.3515	7647.4	6766.25
878.2422	1349.2196	7585.8	6705.05
878.3862	1351.087	7578	6697.5
878.5303	1352.9537	7595.8	6715.85
878.6743	1354.8197	7707.45	6825.55
878.8184	1356.6849	7893	7012.95
878.9624	1358.5493	7992.45	7111.55
879.1064	1360.4131	7995.7	7111.75
879.2504	1362.276	7894.4	7016
879.3944	1364.1383	7743.35	6862.55
879.5384	1365.9998	7540.95	6655.1
879.6823	1367.8606	7253.5	6371.5
879.8263	1369.7206	7019.45	6137.1
879.9702	1371.5799	6836.65	5953.75
880.1142	1373.4384	6729	5845.95
880.2581	1375.2962	6598.75	5715.2
880.402	1377.1533	6377.7	5495.55
880.5459	1379.0096	6110.2	5226.7
880.6898	1380.8652	5824.7	4944
880.8337	1382.7201	5609.9	4728.35
880.9776	1384.5742	5407.95	4525.45
881.1215	1386.4275	5264.35	4382.15
881.2653	1388.2802	5142.1	4260.5
881.4092	1390.132	5051.75	4170.3
881.553	1391.9832	4998.65	4116.3
881.6968	1393.8336	4943.05	4063.6
881.8406	1395.6832	4912.35	4029.55
881.9844	1397.5322	4873.6	3992.35
882.1282	1399.3803	4858.9	3971.7
882.272	1401.2278	4834.7	3951.75
882.4158	1403.0745	4825.25	3943.4
882.5595	1404.9204	4829.5	3949.95
882.7033	1406.7656	4846.7	3963.75
882.847	1408.6101	4861	3980.55
882.9908	1410.4538	4872.25	3990.75
883.1345	1412.2968	4941.1	4060.15
883.2782	1414.139	4985.7	4106.1
883.4219	1415.9805	5090.7	4208.25
883.5656	1417.8213	5158.3	4267.05
883.7092	1419.6613	5328.8	4449.65
883.8529	1421.5006	5504.45	4620
883.9965	1423.3391	5749.7	4867.5
884.1402	1425.1769	6147.5	5263.8
884.2838	1427.0139	6664.6	5782.8
884.4274	1428.8502	7288.1	6405.7
884.571	1430.6858	7915.7	7033.75
884.7146	1432.5206	8379.3	7497.85
884.8582	1434.3547	8674.6	7790.95
885.0018	1436.188	8754.3	7871.9
885.1453	1438.0206	8690	7811.4
885.2889	1439.8524	8555.75	7671.8
885.4324	1441.6835	8491.85	7611.15
885.5759	1443.5139	8373.85	7488.05
885.7194	1445.3435	8287.5	7403.65
885.8629	1447.1724	8257.25	7375
886.0064	1449.0005	8188.15	7308.4
886.1499	1450.8279	8079.75	7194.05
886.2933	1452.6545	8024.95	7143.9
886.4368	1454.4804	8062.8	7181.75
886.5802	1456.3056	8070.4	7181.65
886.7237	1458.13	7972.75	7093.15
886.8671	1459.9536	7757.35	6873.05
887.0105	1461.7766	7383.1	6502.2
887.1539	1463.5987	6946.9	6064.05
887.2972	1465.4202	6537.25	5655.75
887.4406	1467.2409	6179.5	5296.15
887.584	1469.0608	5901.15	5021.25
887.7273	1470.88	5637.6	4754.4
887.8706	1472.6984	5389.9	4508.15
888.0139	1474.5161	5198.55	4315.55
888.1572	1476.3331	5038.9	4157.25
888.3005	1478.1493	4890.9	4008.6
888.4438	1479.9648	4777.85	3897.25
888.5871	1481.7795	4682.05	3799.8
888.7303	1483.5935	4627.1	3747.05
888.8736	1485.4067	4571.55	3689.2
889.0168	1487.2192	4520.15	3638.4
889.16	1489.031	4476.5	3593.55
889.3032	1490.842	4434.15	3553.65
889.4464	1492.6522	4412.35	3530.75
889.5896	1494.4618	4371.25	3488.55
889.7327	1496.2705	4347.1	3465.1
889.8759	1498.0785	4319.75	3438.4
890.019	1499.8858	4298.65	3416.45
890.1622	1501.6924	4283.85	3403.95
890.3053	1503.4981	4275.75	3392.9
890.4484	1505.3032	4253.45	3372.75
890.5914	1507.1075	4240.6	3359.1
890.7345	1508.911	4198.7	3315.9
890.8776	1510.7138	4193.7	3311.1
891.0206	1512.5159	4156.85	3274.8
891.1637	1514.3172	4122.75	3240.95
891.3067	1516.1178	4087.9	3207.75
891.4497	1517.9176	4060.95	3176.1
891.5927	1519.7166	4036.95	3154.75
891.7357	1521.515	4034.1	3144.4
891.8786	1523.3126	3994	3113.7
892.0216	1525.1094	3997.35	3113.8
892.1645	1526.9055	3969.7	3087.45
892.3074	1528.7008	3964.1	3079.95
892.4503	1530.4954	3942.7	3056.8
892.5932	1532.2893	3940.85	3061.4
892.7361	1534.0824	3914.6	3029.05
892.879	1535.8747	3918.15	3036.15
893.0218	1537.6663	3903.4	3021.45
893.1647	1539.4572	3892.5	3010.65
893.3075	1541.2473	3890.9	3006.95
893.4503	1543.0367	3890.8	3011.05
893.5931	1544.8253	3870.5	2983.6
893.7359	1546.6132	3900.1	3015.3
893.8787	1548.4003	3891.7	3000.35
894.0214	1550.1867	3907.6	3018.5
894.1642	1551.9723	3918.25	3032.5
894.3069	1553.7572	3929.7	3047
894.4496	1555.5414	3958.4	3077.55
894.5923	1557.3247	3999.3	3118.55
894.735	1559.1074	4048.55	3166.3
894.8777	1560.8893	4080.3	3199.95
895.0204	1562.6705	4138.6	3256.5
895.163	1564.4509	4206.8	3326.4
895.3056	1566.2305	4293.8	3412.35
895.4482	1568.0094	4395.2	3513.65
895.5908	1569.7876	4481.3	3600.55
895.7334	1571.565	4561.35	3678.75
895.876	1573.3417	4622.7	3742.3
896.0186	1575.1176	4648	3765.35
896.1611	1576.8928	4613.75	3731.45
896.3036	1578.6672	4557.1	3676.75
896.4461	1580.4409	4439.95	3561.35
896.5886	1582.2138	4318.85	3434.2
896.7311	1583.986	4185.05	3304.15
896.8736	1585.7575	4081.95	3202.6
897.0161	1587.5282	4001.85	3121.5
897.1585	1589.2981	3952.55	3072.45
897.3009	1591.0673	3911.35	3029.95
897.4433	1592.8358	3867.75	2984.6
897.5857	1594.6035	3852.1	2967.2
897.7281	1596.3704	3874.65	2991
897.8705	1598.1366	3870.65	2992.1
898.0128	1599.9021	3894.45	3013.75
898.1551	1601.6668	3926	3042.6
898.2975	1603.4308	3968.6	3086
898.4398	1605.194	4044	3159.55
898.5821	1606.9564	4120.9	3239.7
898.7243	1608.7182	4225.15	3337.9
898.8666	1610.4791	4365	3485.9
899.0088	1612.2394	4503.8	3621.75
899.1511	1613.9988	4681.9	3802.15
899.2933	1615.7576	4929.85	4049.4
899.4355	1617.5156	5176.7	4288.3
899.5776	1619.2728	5413.85	4533.2
899.7198	1621.0293	5589.2	4709.5
899.862	1622.785	5696.05	4809.8
900.0041	1624.54	5665.15	4782.45
900.1462	1626.2942	5537.85	4654.6
900.2883	1628.0477	5284.95	4400.8
900.4304	1629.8005	5057.9	4171.7
900.5725	1631.5525	4820.15	3939.5
900.7145	1633.3037	4619.85	3740.25
900.8566	1635.0542	4435.6	3554
900.9986	1636.804	4301.1	3419.4
901.1406	1638.553	4266.45	3304.95
901.2826	1640.3013	4148.25	3265.95
901.4245	1642.0488	4095.45	3211.75
901.5665	1643.7955	4085.45	3203.75
901.7085	1645.5416	4098.15	3217.5
901.8504	1647.2868	4152.75	3272.7
901.9923	1649.0313	4237.9	3357.85
902.1342	1650.7751	4366.05	3481.2
902.2761	1652.5181	4561.9	3680.6
902.4179	1654.2604	4801.15	3918.45
902.5598	1656.0019	5125.6	4247.55
902.7016	1657.7427	5486	4604.1
902.8434	1659.4828	5835.2	4954.3
902.9852	1661.222	6102.6	5220.95
903.127	1662.9606	6163.15	5284.45
903.2687	1664.6984	6026.5	5144.4
903.4105	1666.4354	5691.3	4809.05
903.5522	1668.1717	5266.75	4386.25
903.6939	1669.9072	4829.4	3949.75
903.8356	1671.642	4436.1	3553.1
903.9773	1673.3761	4138.5	3258.45
904.119	1675.1094	3903.4	3023.45
904.2606	1676.8419	3735.5	2855.75
904.4022	1678.5737	3585.55	2704.9
904.5439	1680.3048	3511.05	2631.2
904.6855	1682.0351	3437	2556.8
904.827	1683.7646	3365.1	2483.85
904.9686	1685.4934	3327.7	2446.05
905.1101	1687.2215	3277.55	2393.2
905.2517	1688.9488	3256.2	2377.2
905.3932	1690.6754	3221.45	2339.9
905.5347	1692.4012	3195	2313.1
905.6761	1694.1263	3190.95	2309.65
905.8176	1695.8506	3161.7	2281
905.9591	1697.5742	3147.85	2266.95
906.1005	1699.297	3115.65	2235.15
906.2419	1701.0191	3112.6	2232.05
906.3833	1702.7404	3095.55	2216.1
906.5246	1704.461	3068.15	2183.9
906.666	1706.1808	3050.15	2167.6
906.8073	1707.8999	3041.65	2159.35
906.9487	1709.6182	3041.75	2159.7
907.09	1711.3358	3018.35	2139.15
907.2313	1713.0527	3002.35	2123.2
907.3725	1714.7688	2997.15	2110.4
907.5138	1716.4841	2975.5	2095.15
907.655	1718.1987	2970.95	2083.85
907.7962	1719.9126	2961.65	2081.8
907.9374	1721.6257	2946.3	2060.05
908.0786	1723.338	2939.3	2057.6
908.2198	1725.0496	2932.75	2050.9
908.3609	1726.7605	2920.3	2039.95
908.502	1728.4706	2906	2025.2
908.6431	1730.18	2902.8	2017.85
908.7842	1731.8886	2887.25	2007.6
908.9253	1733.5964	2882.35	1998.95
909.0664	1735.3036	2866	1981.95
909.2074	1737.0099	2862.35	1983.35
909.3484	1738.7156	2859.65	1979.15
909.4894	1740.4204	2852.25	1969.35
909.6304	1742.1246	2858.8	1975.85
909.7714	1743.8279	2836	1955.75
909.9123	1745.5306	2841.7	1960.2
910.0532	1747.2325	2817.7	1936.2
910.1941	1748.9336	2805.55	1927.65
910.335	1750.634	2810.65	1930.15
910.4759	1752.3336	2803.25	1921.95
910.6168	1754.0325	2783.7	1904.5
910.7576	1755.7307	2782.15	1903.65
910.8984	1757.4281	2789.25	1907.4
911.0392	1759.1247	2787.65	1900.5
911.18	1760.8206	2771	1886.05
911.3208	1762.5158	2775.45	1891.45
911.4615	1764.2102	2759.5	1880.35
911.6022	1765.9039	2754.8	1872.55
911.7429	1767.5968	2751.95	1870.45
911.8836	1769.289	2744.85	1863.8
912.0243	1770.9804	2743.3	1864.95
912.1649	1772.6711	2737	1855.25
912.3056	1774.361	2723.45	1842.35
912.4462	1776.0502	2721.6	1841.05
912.5868	1777.7386	2724.35	1840.05
912.7274	1779.4263	2712.4	1831.5
912.8679	1781.1132	2697.1	1814.4
913.0084	1782.7994	2687.8	1802.85
913.149	1784.4849	2691.5	1813.55
913.2895	1786.1696	2699.25	1801.9
913.4299	1787.8535	2685.95	1805.95
913.5704	1789.5367	2678.45	1797.7
913.7108	1791.2192	2672.45	1793.45
913.8513	1792.9009	2685.65	1778.5
913.9917	1794.5818	2678.5	1796.1
914.132	1796.2621	2654.6	1776.75
914.2724	1797.9415	2639.7	1759.2
914.4128	1799.6202	2646.5	1764.75
914.5531	1801.2982	2645.35	1766.1
914.6934	1802.9755	2638.65	1758.85
914.8337	1804.6519	2634.25	1752.7
914.9739	1806.3277	2623.45	1743.75
915.1142	1808.0027	2624.8	1743.8
915.2544	1809.6769	2610.3	1732.15
915.3946	1811.3504	2619.55	1737.35
915.5348	1813.0231	2618.8	1736.35
915.675	1814.6951	2602.55	1722.6
915.8151	1816.3664	2618.3	1735.25
915.9553	1818.0369	2605	1725.45
916.0954	1819.7067	2589.3	1710.9
916.2355	1821.3757	2600.55	1717
916.3755	1823.044	2590.1	1710.45
916.5156	1824.7115	2588.05	1706.15
916.6556	1826.3783	2567.75	1690.25
916.7956	1828.0443	2567.05	1686.6
916.9356	1829.7096	2554.05	1671.95
917.0756	1831.3741	2560.1	1677.15
917.2155	1833.0379	2568.45	1688.85
917.3555	1834.701	2561.55	1678.7
917.4954	1836.3633	2564	1684.45
917.6353	1838.0248	2548.85	1667.7
917.7751	1839.6856	2541.1	1662.05
917.915	1841.3457	2538.7	1659.55
918.0548	1843.005	2536.5	1657.05
918.1946	1844.6636	2535.2	1657.6
918.3344	1846.3214	2530.7	1649.15
918.4742	1847.9785	2539.05	1661.8
918.6139	1849.6349	2543.1	1660.9
918.7537	1851.2904	2535.5	1646.3
918.8934	1852.9453	2536.75	1655.9
919.0331	1854.5994	2512.95	1629.9
919.1727	1856.2528	2528.85	1642.55
919.3124	1857.9054	2511.2	1631.2
919.452	1859.5572	2518.8	1638.45
919.5916	1861.2083	2493.5	1612.5
919.7312	1862.8587	2494.3	1614.25
919.8708	1864.5084	2503.35	1625.9
920.0103	1866.1572	2492.45	1613.6
920.1498	1867.8054	2488.25	1609.75
920.2893	1869.4528	2485.15	1604.2
920.4288	1871.0994	2477.2	1594.65
920.5683	1872.7453	2471.15	1590.35
920.7077	1874.3905	2477.05	1578.95
920.8471	1876.0349	2466.75	1585.45
920.9865	1877.6786	2465	1582.75
921.1259	1879.3215	2455.4	1576.85
921.2653	1880.9637	2455.25	1573.7
921.4046	1882.6051	2448.2	1568.7
921.5439	1884.2458	2451.85	1568.6
921.6832	1885.8858	2434.55	1553.05
921.8225	1887.525	2440.3	1559.15
921.9617	1889.1634	2424.5	1545.1
922.101	1890.8011	2429.45	1550.15
922.2402	1892.4381	2411.15	1531.7
922.3794	1894.0743	2412.95	1533.2
922.5185	1895.7098	2407.6	1527.35
922.6577	1897.3446	2412.15	1530.95
922.7968	1898.9786	2407.6	1522.05
922.9359	1900.6118	2392.6	1513.15
923.075	1902.2443	2391.05	1509.25
923.214	1903.8761	2396.15	1516.45
923.3531	1905.5071	2379.7	1497.75
923.4921	1907.1374	2375.5	1493.4
923.6311	1908.7669	2375.75	1493.5
923.77	1910.3957	2371.05	1490.4
923.909	1912.0237	2362	1481.6
924.0479	1913.651	2362.85	1482.45
924.1868	1915.2776	2355.8	1476.9
924.3257	1916.9034	2356.7	1476.05
924.4646	1918.5285	2343.2	1464.1
924.6034	1920.1528	2342.4	1462.1
924.7422	1921.7764	2338.2	1458.65
924.881	1923.3992	2331.2	1450.95
925.0198	1925.0213	2327.15	1446.65
925.1586	1926.6427	2320.2	1440.55
925.2973	1928.2633	2388	1430.5
925.436	1929.8832	2321.6	1440.75
925.5747	1931.5023	2316.35	1436.8
925.7134	1933.1207	2309.55	1428
925.852	1934.7383	2303.45	1422.45
925.9906	1936.3552	2299.6	1419.8
926.1292	1937.9714	2292.65	1411.2
926.2678	1939.5868	2284.65	1403.8
926.4064	1941.2015	2280	1398.6
926.5449	1942.8154	2269.55	1391.4
926.6834	1944.4286	2257.75	1378.65
926.8219	1946.041	2279.2	1374.25
926.9604	1947.6528	2262.8	1376.7
927.0988	1949.2637	2249.4	1370
927.2372	1950.8739	2236.95	1355.85
927.3756	1952.4834	2245.5	1365.7
927.514	1954.0921	2232.7	1351.5
927.6523	1955.7001	2242.95	1359.15
927.7907	1957.3074	2224.05	1345.55
927.929	1958.9139	2223.45	1342.75
928.0673	1960.5197	2217.65	1335.35
928.2055	1962.1247	2211.9	1331.8
928.3438	1963.729	2202.85	1325.4
928.482	1965.3325	2221.85	1319
928.6202	1966.9353	2210.15	1329.75
928.7584	1968.5374	2183.85	1303.4
928.8965	1970.1387	2189	1310.4
929.0346	1971.7393	2179.5	1299.45
929.1727	1973.3392	2186.05	1304.5
929.3108	1974.9383	2178.45	1299.6
929.4489	1976.5366	2166.95	1285.6
929.5869	1978.1342	2166.2	1287.15
929.7249	1979.7311	2164.15	1280.7
929.8629	1981.3273	2168.65	1285.9
930.0009	1982.9227	2150.15	1267.7
930.1388	1984.5173	2149.2	1269
930.2767	1986.1112	2145.9	1264.85
930.4146	1987.7044	2144.05	1265.25
930.5525	1989.2968	2131.75	1249.6
930.6904	1990.8885	2132.45	1249.65
930.8282	1992.4795	2136.85	1255.2
930.966	1994.0697	2121.5	1240.45
931.1038	1995.6592	2128.15	1248
931.2415	1997.2479	2119.5	1238.05
931.3793	1998.8359	2116.85	1236.5
931.517	2000.4232	2112.05	1232.6
931.6547	2002.0097	2106.65	1227.1
931.7923	2003.5955	2091.65	1210.85
931.93	2005.1805	2115.4	1231.75
932.0676	2006.7648	2099.05	1219.15
932.2052	2008.3484	2106.25	1225.6
932.3427	2009.9312	2089	1206
932.4803	2011.5133	2088.65	1208.75
932.6178	2013.0946	2085.9	1206.5
932.7553	2014.6752	2076.9	1196.6
932.8928	2016.2551	2078.55	1196.9
933.0302	2017.8342	2085	1203.15
933.1676	2019.4126	2068.6	1189.7
933.305	2020.9902	2062.6	1178.65
933.4424	2022.5672	2077.15	1194.9
933.5798	2024.1433	2067.35	1178.8
933.7171	2025.7188	2057.25	1179.25
933.8544	2027.2935	2058.55	1177.35
933.9917	2028.8674	2049.9	1170.35
934.129	2030.4406	2050.25	1170.25
934.2662	2032.0131	2049.3	1170.65
934.4034	2033.5849	2039.55	1155
934.5406	2035.1559	2037.5	1156.5
934.6778	2036.7261	2036.85	1155.55
934.8149	2038.2957	2037.6	1159.55
934.952	2039.8645	2031.05	1153.25
935.0891	2041.4325	2029.85	1146.75
935.2262	2042.9998	2031	1150.65
935.3632	2044.5664	2019.5	1136.85
935.5002	2046.1323	2018.5	1138.35
935.6372	2047.6974	2015.1	1132.6
935.7742	2049.2617	2014.15	1134
935.9111	2050.8254	2012	1127
936.048	2052.3883	2001.25	1120
936.1849	2053.9504	2005.95	1126.7
936.3218	2055.5118	1993.95	1111.1
936.4586	2057.0725	1995.7	1111.65
936.5955	2058.6325	1995.7	1113.55
936.7323	2060.1917	1983.85	1104.3
936.869	2061.7502	1985.8	1101.7
937.0058	2063.3079	1983.6	1102.85
937.1425	2064.8649	1990.75	1106.95
937.2792	2066.4212	1979.6	1098.05
937.4159	2067.9767	1972.95	1093.05
937.5525	2069.5315	1972.35	1092.1
937.6891	2071.0856	1972.65	1093.15
937.8257	2072.6389	1956.3	1073.95
937.9623	2074.1915	1952.95	1074.8
938.0989	2075.7433	1965.05	1083.45
938.2354	2077.2945	1944.9	1066.65
938.3719	2078.8448	1941.9	1064.5
938.5084	2080.3945	1936.45	1055.5
938.6448	2081.9434	1931.2	1050.7
938.7812	2083.4916	1934.55	1053.75
938.9176	2085.039	1929.95	1046.5
939.054	2086.5857	1932.95	1051.6
939.1903	2088.1317	1917.15	1037.15
939.3267	2089.677	1908.5	1026.4
939.463	2091.2215	1922.6	1043.5
939.5992	2092.7652	1920	1037.4
939.7355	2094.3083	1913	1034
939.8717	2095.8506	1910.5	1031.15
940.0079	2097.3921	1908.55	1030.25
940.1441	2098.933	1905.05	1025.1
940.2802	2100.4731	1905.05	1025
940.4163	2102.0124	1914.7	1023.95
940.5524	2103.5511	1917	1036.55
940.6885	2105.089	1891.8	1009.45
940.8245	2106.6261	1892.1	1013.3
940.9606	2108.1626	1889.7	1008.4
941.0965	2109.6983	1920.15	1012.6
941.2325	2111.2332	1886.8	1006.8
941.3684	2112.7675	1887.1	1006.05
941.5044	2114.301	1888.9	1005.85
941.6403	2115.8337	1877.8	995.3
941.7761	2117.3657	1884.45	1002.95
941.912	2118.897	1884.4	1004.45
942.0478	2120.4276	1870.1	982.6
942.1835	2121.9575	1865.8	985.4
942.3193	2123.4866	1874.7	980.45
942.455	2125.0149	1879.4	997.25
942.5907	2126.5426	1856	974
942.7264	2128.0695	1867.6	983.4
942.8621	2129.5956	1848.5	970.65
942.9977	2131.1211	1859.6	972.9
943.1333	2132.6458	1854.65	974.8
943.2689	2134.1698	1850.45	968.5
943.4044	2135.693	1850.4	966.4
943.54	2137.2155	1849	967.55
943.6755	2138.7373	1850.9	969.15
943.8109	2140.2584	1850.6	969.5
943.9464	2141.7787	1839.55	951.55
944.0818	2143.2983	1831.75	951.9
944.2172	2144.8171	1836.2	957.3
944.3526	2146.3353	1828.7	944.4
944.4879	2147.8527	1833.7	952.6
944.6232	2149.3693	1830.35	948.95
944.7585	2150.8853	1819.6	939.85
944.8938	2152.4005	1814.5	934.8
945.029	2153.9149	1821.35	941.9
945.1642	2155.4287	1810.95	929.75
945.2994	2156.9417	1813.55	931.2
945.4346	2158.454	1817.3	935.25
945.5697	2159.9655	1814.55	932.3
945.7048	2161.4764	1810.05	930.05
945.8399	2162.9865	1808.4	925.9
945.9749	2164.4958	1806.95	924.3
946.1099	2166.0045	1799.85	914.4
946.2449	2167.5124	1799.65	918.8
946.3799	2169.0195	1792	912.5
946.5148	2170.526	1790.8	911.05
946.6498	2172.0317	1786	907
946.7846	2173.5367	1797.4	915.2
946.9195	2175.0409	1782.8	904
947.0543	2176.5445	1786.4	907
947.1891	2178.0473	1784.5	903.55
947.3239	2179.5494	1781.75	896.9
947.4587	2181.0507	1783.05	902.75
947.5934	2182.5513	1780.65	899.15
947.7281	2184.0512	1767.25	887.95
947.8628	2185.5504	1763.15	882.5
947.9974	2187.0488	1758.6	877.95
948.132	2188.5465	1762.05	881.05
948.2666	2190.0435	1752.75	871.55
948.4012	2191.5397	1750.75	873.05
948.5357	2193.0353	1755.2	875.05
948.6702	2194.5301	1752.8	873.6
948.8047	2196.0241	1745.8	863.85
948.9392	2197.5175	1745.55	865.2
949.0736	2199.0101	1753.3	870.8
949.208	2200.502	1747.55	867.85
949.3424	2201.9931	1746.45	864.8
949.4767	2203.4835	1735.05	851.85
949.611	2204.9733	1742.2	853.95
949.7453	2206.4622	1735.45	855.6
949.8796	2207.9505	1726.6	841.35
950.0138	2209.438	1727.8	849.3
950.148	2210.9248	1723.95	842.95
950.2822	2212.4109	1719.7	838.6
950.4164	2213.8962	1724.7	840.75
950.5505	2215.3809	1728.1	846.5
950.6846	2216.8648	1721.55	841
950.8186	2218.3479	1716.5	831.35
950.9527	2219.8304	1712.9	829.05
951.0867	2221.3121	1707.1	824.95
951.2207	2222.7931	1698.75	817.8
951.3546	2224.2733	1696.9	815.9
951.4886	2225.7529	1706.8	824.6
951.6225	2227.2317	1702.15	819
951.7563	2228.7098	1690.75	810.9
951.8902	2230.1872	1687.3	804.6
952.024	2231.6638	1688.75	808.65
952.1578	2233.1397	1689.45	806.1
952.2916	2234.6149	1678.45	796.1
952.4253	2236.0894	1679.55	796.25
952.559	2237.5632	1682.25	798.25
952.6927	2239.0362	1683.85	803
952.8263	2240.5085	1666.6	786.45
952.9599	2241.9801	1665.9	783.7
953.0935	2243.4509	1660.8	780.8
953.2271	2244.921	1659.65	780.3
953.3606	2246.3904	1672.05	787.35
953.4941	2247.8591	1651.85	771.75
953.6276	2249.3271	1656.15	773.4
953.7611	2250.7943	1647.25	762.6
953.8945	2252.2608	1645.45	766.25
954.0279	2253.7266	1647.4	766.2
954.1612	2255.1917	1645.35	763.75
954.2946	2256.656	1648.25	766.3
954.4279	2258.1197	1633.3	752.55
954.5612	2259.5826	1645.65	762.1
954.6944	2261.0447	1644.6	764.65
954.8276	2262.5062	1635.75	751.9
954.9608	2263.9669	1637.45	753.55
955.094	2265.4269	1636.05	757.1
955.2271	2266.8862	1625.65	744.1
955.3602	2268.3448	1627.55	744.8
955.4933	2269.8026	1621.65	739.15
955.6264	2271.2598	1622.5	741.3
955.7594	2272.7162	1628.75	750.25
955.8924	2274.1719	1621	738.8
956.0253	2275.6268	1614.5	733.25
956.1583	2277.0811	1614.8	732.35
956.2912	2278.5346	1613.8	732.95
956.4241	2279.9874	1617.75	737.2
956.5569	2281.4395	1613.65	732.75
956.6897	2282.8908	1626	739.75
956.8225	2284.3414	1609.9	726.75
956.9553	2285.7914	1603.25	723.3
957.088	2287.2406	1607.25	724.25
957.2207	2288.689	1596.65	714.95
957.3534	2290.1368	1606.65	726.1
957.486	2291.5838	1603.05	718.6
957.6186	2293.0302	1598.3	717.5
957.7512	2294.4758	1592.95	711.9
957.8838	2295.9206	1601.5	720.6
958.0163	2297.3648	1592.75	711.4
958.1488	2298.8082	1593.65	712.1
958.2813	2300.251	1581.2	700.5
958.4137	2301.693	1593.8	710.85
958.5461	2303.1343	1585.85	702.7
958.6785	2304.5748	1584	702.95
958.8108	2306.0147	1586.85	706.85
958.9432	2307.4538	1579.45	696.5
959.0754	2308.8922	1572.45	693
959.2077	2310.3299	1582.45	700.65
959.3399	2311.7669	1578.15	697.6
959.4721	2313.2031	1577.1	695.6
959.6043	2314.6387	1561.1	679.25
959.7365	2316.0735	1562.7	680.75
959.8686	2317.5076	1559.1	677.95
960.0006	2318.941	1561.35	681.2
960.1327	2320.3737	1560.35	680
960.2647	2321.8056	1560.8	677.7
960.3967	2323.2369	1553.25	671.95
960.5287	2324.6674	1556.1	673.95
960.6606	2326.0972	1551.9	671.1
960.7925	2327.5263	1556.8	675.3
960.9244	2328.9547	1556.4	672.65
961.0562	2330.3823	1548.8	669.4
961.1881	2331.8092	1552.4	669.6
961.3198	2333.2355	1546.25	664.15
961.4516	2334.661	1543.1	661.3
961.5833	2336.0858	1538.85	657.25
961.715	2337.5098	1535.55	654.35
961.8467	2338.9332	1535.85	653.2
961.9783	2340.3558	1540.55	654.75
962.1099	2341.7778	1537.45	656.45
962.2415	2343.199	1536.3	651.5
962.373	2344.6195	1529.6	649.6
962.5045	2346.0393	1530.45	648.45
962.636	2347.4583	1532.65	648.7
962.7675	2348.8767	1529.3	646.9
962.8989	2350.2943	1530.85	649.85
963.0303	2351.7113	1535.85	654.95
963.1617	2353.1275	1533.7	654.35
963.293	2354.543	1552.25	644.9
963.4243	2355.9578	1522.5	642.95
963.5556	2357.3718	1525.35	644.7
963.6868	2358.7852	1526.3	642.25
963.818	2360.1978	1518.4	637.7
963.9492	2361.6098	1510.3	629.65
964.0803	2363.021	1521.4	637.55
964.2114	2364.4315	1512.1	631.75
964.3425	2365.8413	1518.2	632.25
964.4736	2367.2504	1510.25	630.6
964.6046	2368.6587	1514.3	633.05
964.7356	2370.0664	1506.2	626.05
964.8666	2371.4733	1502.2	622.6
964.9975	2372.8795	1497	617
965.1284	2374.285	1499.9	618.45
965.2593	2375.6899	1495.35	612.7
965.3901	2377.0939	1490.1	611.25
965.5209	2378.4973	1497.9	617.85
965.6517	2379.9	1495.45	615.6
965.7825	2381.3019	1492.1	610.95
965.9132	2382.7032	1485.9	604.7
966.0439	2384.1037	1482.35	604.55
966.1745	2385.5035	1480.45	599.4
966.3051	2386.9027	1486.45	606.05
966.4357	2388.3011	1483.95	601.1
966.5663	2389.6987	1478.75	597.95
966.6968	2391.0957	1470.1	591.85
966.8273	2392.492	1471.65	592.9
966.9578	2393.8876	1460.25	580.05
967.0882	2395.2824	1463.95	583.9
967.2186	2396.6765	1464.45	586
967.349	2398.07	1468.2	589
967.4793	2399.4627	1457.3	577.2
967.6097	2400.8547	1452.9	571.95
967.7399	2402.246	1459.2	573.85
967.8702	2403.6366	1460.25	578.9
968.0004	2405.0265	1455.65	575.35
968.1306	2406.4156	1457.65	573.85
968.2607	2407.8041	1451.95	567.9
968.3909	2409.1918	1451.7	569.55
968.521	2410.5789	1450.1	570.1
968.651	2411.9652	1450.7	568.85
968.781	2413.3508	1447.85	570.05
968.911	2414.7358	1447.6	564.6
969.041	2416.12	1444.25	567
969.1709	2417.5035	1444.35	564.55
969.3008	2418.8863	1444.75	563.15
969.4307	2420.2684	1445.3	564.95
969.5606	2421.6497	1442.05	559.85
969.6904	2423.0304	1439.3	559.6
969.8201	2424.4104	1433.85	550.95
969.9499	2425.7896	1430.85	543.2
970.0796	2427.1682	1435.05	554.85
970.2093	2428.546	1430.15	548.8
970.3389	2429.9232	1436.5	555.1
970.4685	2431.2996	1425.05	543.2
970.5981	2432.6753	1427.2	545.3
970.7277	2434.0503	1425.5	544.8
970.8572	2435.4246	1422.65	544.8
970.9867	2436.7982	1428.15	545.1
971.1161	2438.1711	1418.2	539.75
971.2456	2439.5433	1421.05	538.4
971.375	2440.9148	1413	528.1
971.5043	2442.2856	1412.45	533.65
971.6336	2443.6557	1419.05	536.4
971.7629	2445.025	1407.75	524.9
971.8922	2446.3937	1412.6	534.7
972.0214	2447.7617	1411.3	531.4
972.1506	2449.1289	1409.65	529.15
972.2798	2450.4955	1406.8	521.85
972.4089	2451.8613	1406.2	525
972.538	2453.2265	1403	521.85
972.6671	2454.5909	1401.5	521.05
972.7961	2455.9546	1402.4	521.8
972.9251	2457.3177	1397.6	517.55
973.0541	2458.68	1401.15	519.6
973.1831	2460.0416	1399.25	516.15
973.312	2461.4025	1403.8	522
973.4408	2462.7627	1411.15	518.4
973.5697	2464.1222	1399.8	520.5
973.6985	2465.4811	1405.95	523.15
973.8273	2466.8392	1401.9	521.2
973.956	2468.1966	1404.6	522.4
974.0847	2469.5533	1401.55	518.15
974.2134	2470.9093	1395.35	515.75
974.3421	2472.2645	1397.95	514.9
974.4707	2473.6191	1397.45	519.55
974.5993	2474.973	1390.85	510.4
974.7278	2476.3262	1398.55	518.4
974.8563	2477.6787	1387.45	506.65
974.9848	2479.0305	1388.95	509.3
975.1132	2480.3816	1390.45	507.1
975.2417	2481.7319	1376.65	494.05
975.37	2483.0816	1385.3	503.05
975.4984	2484.4306	1390.15	507.9
975.6267	2485.7789	1381.65	502.45
975.755	2487.1264	1376.8	493.75
975.8833	2488.4733	1376.45	496.05
976.0115	2489.8195	1391	494.25
976.1397	2491.165	1376.5	492.6
976.2678	2492.5097	1376.65	493.3
976.3959	2493.8538	1374.3	493.9
976.524	2495.1972	1368.8	487.55
976.6521	2496.5398	1370.9	490.3
976.7801	2497.8818	1370.1	487.35
976.9081	2499.2231	1366.25	486.95
977.036	2500.5637	1365.2	481.85
977.164	2501.9035	1369.5	488.4
977.2918	2503.2427	1370.75	485.95
977.4197	2504.5812	1369.4	488.45
977.5475	2505.919	1358.95	474.85
977.6753	2507.256	1355.45	476.75
977.8031	2508.5924	1360.75	478.6
977.9308	2509.9281	1357.85	472.7
978.0585	2511.2631	1352.1	469.9
978.1861	2512.5974	1353.1	474.4
978.3137	2513.9309	1354.5	472.65
978.4413	2515.2638	1385.55	477.1
978.5689	2516.596	1364.9	485.05
978.6964	2517.9275	1355.25	473.75
978.8239	2519.2583	1353.9	473.55
978.9513	2520.5884	1349.65	466
979.0788	2521.9178	1345	465.8
979.2062	2523.2465	1351.35	471.8
979.3335	2524.5745	1344.1	462.15
979.4608	2525.9018	1341.15	460.7
979.5881	2527.2284	1338.15	458.25
979.7154	2528.5543	1341.55	463.85
979.8426	2529.8796	1343.85	462.8
979.9698	2531.2041	1344.45	463.35
980.0969	2532.5279	1339.25	459.15
980.224	2533.851	1334.05	451.45
980.3511	2535.1735	1340.2	460
980.4781	2536.4952	1343.25	464.8
980.6052	2537.8163	1339.3	458.05
980.7321	2539.1366	1333.4	452.2
980.8591	2540.4562	1331.65	451.35
980.986	2541.7752	1332.55	451.2
981.1129	2543.0935	1334.8	453.15
981.2397	2544.411	1334.2	451.1
981.3665	2545.7279	1328.1	447.45
981.4933	2547.0441	1331.85	451.2
981.62	2548.3596	1330.55	445.4
981.7467	2549.6744	1326.4	446.3
981.8734	2550.9885	1327.55	443.85
982.0001	2552.3019	1318.5	440.3
982.1267	2553.6146	1326.85	446.6
982.2532	2554.9266	1322.25	440.3
982.3798	2556.2379	1316.5	434.3
982.5063	2557.5485	1319.95	441.9
982.6327	2558.8585	1324.2	436.95
982.7592	2560.1677	1313.35	428.45
982.8856	2561.4762	1315.45	433.65
983.0119	2562.7841	1313.65	430.25
983.1383	2564.0913	1313.6	433.2
983.2646	2565.3977	1317.05	436.65
983.3908	2566.7035	1316.85	435.9
983.517	2568.0086	1319.75	437.4
983.6432	2569.313	1307.15	425.9
983.7694	2570.6167	1311.25	426.45
983.8955	2571.9197	1311.25	430.3
984.0216	2573.222	1312.25	427.3
984.1476	2574.5236	1315.1	432.05
984.2737	2575.8246	1309.65	426.6
984.3996	2577.1248	1310.05	426.15
984.5256	2578.4244	1313	434.75
984.6515	2579.7232	1314	432.05
984.7774	2581.0214	1343.85	431.3
984.9032	2582.3189	1317.9	437.1
985.029	2583.6157	1317.5	430.55
985.1548	2584.9118	1307.1	427.05
985.2806	2586.2072	1315.95	434.45
985.4063	2587.5019	1323.05	441.85
985.5319	2588.7959	1318.25	437.85
985.6576	2590.0893	1323.4	442.85
985.7832	2591.3819	1315.8	436.4
985.9087	2592.6739	1322.95	442.7
986.0343	2593.9652	1327.35	445.6
986.1597	2595.2557	1319.7	438.1
986.2852	2596.5456	1326.1	445.2
986.4106	2597.8348	1320.8	442.35
986.536	2599.1234	1320.1	440.9
986.6614	2600.4112	1331.75	450.9
986.7867	2601.6983	1332.95	448.1
986.912	2602.9848	1327.6	447.5
987.0372	2604.2705	1343.65	454.1
987.1624	2605.5556	1335.2	455
987.2876	2606.84	1327.85	444.8
987.4128	2608.1237	1326.85	445.45
987.5379	2609.4067	1329.25	448
987.6629	2610.689	1333.15	443.7
987.788	2611.9707	1333.3	450.5
987.913	2613.2516	1327.95	442.15
988.0379	2614.5319	1324.7	443.5
988.1629	2615.8115	1321.05	440.05
988.2878	2617.0903	1327.85	444.75
988.4126	2618.3685	1323.85	442.95
988.5375	2619.6461	1323.85	444.3
988.6622	2620.9229	1325.15	446.15
988.787	2622.199	1318.3	435.55
988.9117	2623.4745	1320.15	437.85
989.0364	2624.7493	1321.05	439.15
989.161	2626.0234	1325.1	446.65
989.2857	2627.2968	1321.05	441.2
989.4102	2628.5695	1321.5	438.95
989.5348	2629.8415	1323.6	443.1
989.6593	2631.1128	1324.1	440.6
989.7837	2632.3835	1321.5	439.4
989.9082	2633.6535	1319.9	439.65
990.0326	2634.9228	1321.2	440.55
990.1569	2636.1914	1318.75	436.75
990.2812	2637.4593	1324.55	442.7
990.4055	2638.7265	1326.6	447.4
990.5298	2639.9931	1321.9	440.5
990.654	2641.259	1320.5	438.5
990.7782	2642.5242	1321.2	438.4
990.9023	2643.7887	1318.6	435.55
991.0264	2645.0525	1310	429.8
991.1505	2646.3156	1309.85	428.15
991.2745	2647.5781	1308.05	427.9
991.3985	2648.8398	1303.5	423.55
991.5225	2650.1009	1317.45	428.45
991.6464	2651.3613	1308.45	428.35
991.7703	2652.6211	1308.7	428.2
991.8942	2653.8801	1305.6	425.6
992.018	2655.1385	1313.65	429.05
992.1418	2656.3961	1314.5	434.1
992.2655	2657.6531	1309.6	429.45
992.3892	2658.9094	1312.4	431.65
992.5129	2660.1651	1310.15	428.85
992.6366	2661.42	1308.5	427.35
992.7602	2662.6743	1310.6	426.85
992.8837	2663.9279	1319.2	436.65
993.0073	2665.1808	1317.95	433.6
993.1307	2666.433	1326.55	444.55
993.2542	2667.6846	1320.2	439.5
993.3776	2668.9354	1324.8	440.9
993.501	2670.1856	1328.5	447.2
993.6244	2671.4351	1335.1	454.45
993.7477	2672.6839	1330.55	449.3
993.8709	2673.9321	1330.3	448.8
993.9942	2675.1795	1330.45	448.65
994.1174	2676.4263	1332.4	451.7
994.2405	2677.6724	1341.5	462.2
994.3637	2678.9179	1340.15	456.65
994.4868	2680.1626	1341.15	460.95
994.6098	2681.4067	1343.7	462.3
994.7328	2682.6501	1343.8	462.75
994.8558	2683.8928	1340.95	460.15
994.9788	2685.1348	1338.5	459.75
995.1017	2686.3761	1337.4	456.85
995.2245	2687.6168	1335.3	455.65
995.3474	2688.8568	1335.15	455.45
995.4702	2690.0961	1326.35	446.8
995.5929	2691.3348	1323.7	441.5
995.7156	2692.5727	1324.55	442.95
995.8383	2693.81	1315.4	434.7
995.961	2695.0466	1317.15	439.1
996.0836	2696.2826	1324.75	440.95
996.2062	2697.5178	1326.45	441.05
996.3287	2698.7524	1323.85	443.15
996.4512	2699.9863	1321.3	436
996.5737	2701.2195	1319.9	438.8
996.6961	2702.452	1327.85	447.55
996.8185	2703.6839	1331.6	448.95
996.9408	2704.9151	1339.4	458.35
997.0631	2706.1456	1338.65	455.75
997.1854	2707.3755	1348.35	468.1
997.3077	2708.6046	1357.3	473.7
997.4299	2709.8331	1361.25	477.85
997.552	2711.0609	1369.15	487.3
997.6742	2712.2881	1380.65	500.45
997.7963	2713.5145	1388.05	504.6
997.9183	2714.7403	1399.4	519.55
998.0403	2715.9654	1412.85	529.65
998.1623	2717.1899	1433.45	536.7
998.2842	2718.4136	1432.3	552.1
998.4062	2719.6367	1449.7	568.55
998.528	2720.8591	1466.5	577.45
998.6498	2722.0809	1463.75	581.35
998.7716	2723.3019	1475.55	592.65
998.8934	2724.5223	1491.25	610.2
999.0151	2725.7421	1497.5	615.25
999.1368	2726.9611	1505	622.2
999.2584	2728.1795	1503.2	616.2
999.38	2729.3972	1496.35	614.75
999.5016	2730.6142	1497.7	603.75
999.6231	2731.8306	1467.85	585.6
999.7446	2733.0462	1456.45	575.1
999.8661	2734.2612	1440.3	552.35
999.9875	2735.4756	1421.5	539.3
1000.1089	2736.6892	1408.2	527
1000.2302	2737.9022	1386.65	505
1000.3515	2739.1145	1384.45	501.35
1000.4728	2740.3262	1374.5	484.85
1000.594	2741.5372	1358.45	476.45
1000.7152	2742.7475	1338.05	457.45
1000.8363	2743.9571	1335.15	453.4
1000.9575	2745.1661	1323.8	436.6
1001.0785	2746.3744	1315.15	433.25
1001.1996	2747.582	1304.6	423.35
1001.3206	2748.7889	1302	419.55
1001.4415	2749.9952	1293.7	412.05
1001.5625	2751.2008	1289.6	406.8
1001.6833	2752.4057	1287.4	404.55
1001.8042	2753.61	1283.1	402.25
1001.925	2754.8136	1282.7	398.65
1002.0458	2756.0165	1276.6	395.7
1002.1665	2757.2188	1267.8	389.9
1002.2872	2758.4204	1273.5	391.65
1002.4078	2759.6213	1281.75	398.6
1002.5285	2760.8215	1291.4	403.05
1002.649	2762.0211	1278.8	396.4
1002.7696	2763.22	1279.25	395.2
1002.8901	2764.4182	1275.45	394.5
1003.0106	2765.6158	1272.8	393.05
1003.131	2766.8127	1268.25	387.05
1003.2514	2768.009	1272.9	390.6
1003.3717	2769.2045	1268.1	386.2
1003.492	2770.3994	1265.65	382.1
1003.6123	2771.5936	1264.15	381.4
1003.7325	2772.7872	1262.2	382.6
1003.8527	2773.9801	1257.9	374.25
1003.9729	2775.1723	1277.1	379.9
1004.093	2776.3639	1255.95	376.4
1004.2131	2777.5548	1260.3	376.9
1004.3331	2778.745	1264.4	382.95
1004.4531	2779.9346	1266.35	385.45
1004.5731	2781.1235	1271.75	390.15
1004.693	2782.3117	1267.3	386.6
1004.8129	2783.4992	1278.2	396.85
1004.9328	2784.6861	1289.2	408.15
1005.0526	2785.8723	1295.05	413.35
1005.1723	2787.0579	1303.8	419.6
1005.2921	2788.2428	1305.9	424.5
1005.4118	2789.427	1315.65	434.95
1005.5314	2790.6106	1325.95	445.5
1005.651	2791.7935	1338.75	455.85
1005.7706	2792.9757	1352.05	472.1
1005.8902	2794.1573	1362.75	480.2
1006.0097	2795.3382	1382.05	499.9
1006.1291	2796.5184	1396.15	514.55
1006.2485	2797.698	1416.85	533.55
1006.3679	2798.8769	1430.45	550.1
1006.4873	2800.0551	1446.25	562.8
1006.6066	2801.2327	1472.6	590.5
1006.7258	2802.4096	1500.55	622.2
1006.8451	2803.5859	1521.35	639
1006.9642	2804.7615	1532.9	653.15
1007.0834	2805.9364	1566.95	686.65
1007.2025	2807.1106	1587.25	705.55
1007.3216	2808.2842	1623.45	740.8
1007.4406	2809.4572	1647.55	766.9
1007.5596	2810.6294	1694.75	812.3
1007.6785	2811.801	1739.3	858.3
1007.7975	2812.972	1776.05	894.15
1007.9163	2814.1423	1822.25	942.4
1008.0352	2815.3119	1881.65	998.15
1008.154	2816.4808	1923.45	1045.6
1008.2727	2817.6491	1966.75	1084.05
1008.3914	2818.8167	2026.95	1148.05
1008.5101	2819.9837	2072.25	1184.9
1008.6288	2821.15	2131.15	1250.15
1008.7474	2822.3157	2166.85	1283.95
1008.8659	2823.4807	2213.75	1331.1
1008.9844	2824.645	2258.7	1373.45
1009.1029	2825.8086	2305.55	1424.55
1009.2214	2826.9716	2342.4	1462.4
1009.3398	2828.134	2389.5	1506.95
1009.4581	2829.2957	2420.1	1539.65
1009.5764	2830.4567	2450.25	1568.9
1009.6947	2831.617	2473.85	1593.65
1009.813	2832.7767	2489.45	1609.45
1009.9312	2833.9358	2482.85	1602.75
1010.0493	2835.0941	2489.7	1606.9
1010.1675	2836.2519	2465.85	1583.85
1010.2855	2837.4089	2467.05	1584.1
1010.4036	2838.5653	2444.25	1563.55
1010.5216	2839.7211	2446.1	1565.75
1010.6396	2840.8761	2455.25	1572
1010.7575	2842.0306	2476.3	1594.95
1010.8754	2843.1843	2521.7	1640.55
1010.9932	2844.3374	2559.1	1679.05
1011.111	2845.4899	2628.05	1746.25
1011.2288	2846.6417	2686.95	1806.8
1011.3465	2847.7928	2772.7	1890.5
1011.4642	2848.9433	2854.75	1973.6
1011.5818	2850.0931	2940.15	2060.8
1011.6995	2851.2422	3022.35	2138.75
1011.817	2852.3907	3099.45	2218.55
1011.9345	2853.5385	3161.1	2277.65
1012.052	2854.6857	3256.95	2351.5
1012.1695	2855.8323	3289	2410.35
1012.2869	2856.9781	3357.25	2476.55
1012.4042	2858.1233	3400.2	2518.55
1012.5216	2859.2679	3447.25	2565.6
1012.6389	2860.4118	3486.45	2606
1012.7561	2861.555	3538.7	2652.95
1012.8733	2862.6976	3576.65	2690.5
1012.9905	2863.8395	3607	2727.3
1013.1076	2864.9808	3628	2745.8
1013.2247	2866.1214	3643.85	2764
1013.3417	2867.2614	3661.85	2778.7
1013.4587	2868.4007	3669.95	2787.55
1013.5757	2869.5393	3688.3	2805.45
1013.6926	2870.6773	3714.7	2829.15
1013.8095	2871.8146	3729.65	2846.05
1013.9263	2872.9513	3739.4	2855.25
1014.0431	2874.0874	3729.35	2846.4
1014.1599	2875.2227	3725.15	2842.15
1014.2766	2876.3574	3696.55	2813.75
1014.3933	2877.4915	3682.85	2802.3
1014.51	2878.6249	3653.45	2772.65
1014.6266	2879.7577	3632.2	2748.05
1014.7431	2880.8898	3624.4	2734.7
1014.8596	2882.0212	3595.65	2715.15
1014.9761	2883.152	3597.75	2717.45
1015.0925	2884.2821	3564.9	2685.35
1015.2089	2885.4116	3561.35	2680.9
1015.3253	2886.5405	3566	2684.45
1015.4416	2887.6686	3567.95	2685.2
1015.5579	2888.7962	3576.8	2695.5
1015.6741	2889.923	3587.4	2708
1015.7903	2891.0493	3575.2	2695.9
1015.9065	2892.1748	3605.05	2724.95
1016.0226	2893.2997	3616.45	2734.2
1016.1387	2894.424	3628.9	2748.75
1016.2547	2895.5476	3643.9	2763.75
1016.3707	2896.6706	3675.15	2796.4
1016.4866	2897.7929	3701.15	2818.6
1016.6025	2898.9145	3747.9	2866.6
1016.7184	2900.0355	3776.1	2893.4
1016.8342	2901.1559	3803.1	2920.65
1016.95	2902.2756	3839.05	2956.15
1017.0658	2903.3946	3882.2	2999.4
1017.1815	2904.513	3899.65	3014.45
1017.2971	2905.6308	3940.25	3059.55
1017.4127	2906.7479	3957.7	3076.9
1017.5283	2907.8643	3984	3101.45
1017.6439	2908.9801	3989.85	3109.4
1017.7594	2910.0953	3999.7	3119.2
1017.8748	2911.2098	4017.05	3131.65
1017.9902	2912.3236	4014.9	3126.05
1018.1056	2913.4368	3994.25	3109.75
1018.2209	2914.5494	3982.45	3100.2
1018.3362	2915.6613	3966.25	3079.25
1018.4515	2916.7725	3941.45	3056.85
1018.5667	2917.8831	3904.9	3023.05
1018.6819	2918.9931	3877.5	2994.45
1018.797	2920.1024	3849.3	2966.8
1018.9121	2921.211	3826.85	2947.95
1019.0271	2922.319	3805.3	2923.3
1019.1421	2923.4264	3800.3	2919.7
1019.2571	2924.5331	3771.35	2892.15
1019.372	2925.6391	3750.6	2871.7
1019.4869	2926.7445	3749.55	2869.8
1019.6017	2927.8493	3749.1	2867.95
1019.7165	2928.9534	3739.8	2856.4
1019.8313	2930.0569	3734.45	2849.1
1019.946	2931.1597	3717.75	2836.85
1020.0606	2932.2619	3715.2	2833
1020.1753	2933.3634	3702.85	2820.2
1020.2899	2934.4643	3698.5	2810.4
1020.4044	2935.5645	3674.25	2788.9
1020.5189	2936.6641	3642.75	2758.15
1020.6334	2937.763	3592.65	2712.3
1020.7478	2938.8613	3540.45	2657.9
1020.8622	2939.959	3483.45	2598.25
1020.9765	2941.056	3399.85	2520.6
1021.0908	2942.1523	3319.35	2437
1021.2051	2943.248	3235.75	2354.45
1021.3193	2944.3431	3142.95	2262.4
1021.4334	2945.4375	3034.9	2152.1
1021.5476	2946.5313	2935.65	2054.9
1021.6617	2947.6244	2827.1	1944.75
1021.7757	2948.7169	2724.45	1844.05
1021.8897	2949.8087	2622.4	1742.15
1022.0037	2950.8999	2520.6	1639.8
1022.1176	2951.9904	2439.65	1557.8
1022.2315	2953.0803	2353.1	1470.95
1022.3453	2954.1696	2293.3	1412.6
1022.4591	2955.2582	2244.35	1363.65
1022.5728	2956.3462	2187.55	1306.7
1022.6865	2957.4335	2159.35	1278.6
1022.8002	2958.5202	2114.8	1231.75
1022.9138	2959.6062	2071.85	1192.85
1023.0274	2960.6916	2052.45	1170.95
1023.141	2961.7764	2049.9	1169.7
1023.2545	2962.8605	2016.9	1134.9
1023.3679	2963.9439	2006.75	1127.35
1023.4813	2965.0267	1987.6	1104.45
1023.5947	2966.1089	2010.3	1106
1023.708	2967.1905	1979.6	1099.4
1023.8213	2968.2714	1964.15	1084.6
1023.9346	2969.3516	1965.65	1084.6
1024.0478	2970.4312	1983	1096.3
1024.1609	2971.5102	1976.4	1096.15
1024.274	2972.5885	1979.35	1098.75
1024.3871	2973.6662	1980.9	1094.25
1024.5002	2974.7432	1975.15	1093.95
1024.6132	2975.8196	1969.5	1087
1024.7261	2976.8954	1955.7	1076.75
1024.839	2977.9705	1941.2	1060.45
1024.9519	2979.045	1938	1057.75
1025.0647	2980.1188	1921.55	1041.05
1025.1775	2981.192	1903.8	1024.35
1025.2902	2982.2645	1889.85	1008.85
1025.4029	2983.3364	1856.15	975.2
1025.5156	2984.4077	1824.8	945.05
1025.6282	2985.4783	1797.3	910.9
1025.7407	2986.5483	1763.7	884.4
1025.8532	2987.6177	1730.05	849.6
1025.9657	2988.6864	1699.1	817.85
1026.0782	2989.7545	1660.75	778.35
1026.1906	2990.8219	1624.25	742.4
1026.3029	2991.8887	1599.15	714.4
1026.4152	2992.9548	1557	676.1
1026.5275	2994.0204	1526.6	646.35
1026.6397	2995.0852	1499.2	619.7
1026.7519	2996.1495	1479.55	597.5
1026.864	2997.2131	1440.35	560.55
1026.9761	2998.276	1431.1	550.35
1027.0882	2999.3383	1413.1	531.8
1027.2002	3000.4	1392.95	511.05
1027.3122	3001.4611	1380.15	498.3
1027.4241	3002.5215	1364.4	484.05
1027.536	3003.5812	1343.9	463.7
1027.6478	3004.6404	1337.6	455.75
1027.7596	3005.6989	1326.5	445.6
1027.8714	3006.7567	1320.95	439.65
1027.9831	3007.8139	1328.85	429.05
1028.0947	3008.8705	1305.35	425.3
1028.2064	3009.9264	1297.3	414.35
1028.3179	3010.9818	1296.55	414.45
1028.4295	3012.0364	1287.95	405.35
1028.541	3013.0905	1290	410.3
1028.6524	3014.1439	1286.9	405.95
1028.7638	3015.1966	1284.95	403.05
1028.8752	3016.2487	1287.5	406.45
1028.9865	3017.3002	1289.2	404.25
1029.0978	3018.3511	1281.45	402.8
1029.209	3019.4013	1281.4	400.85
1029.3202	3020.4509	1290.95	409.75
1029.4314	3021.4998	1288.5	408.8
1029.5425	3022.5481	1291	413
1029.6535	3023.5958	1293.95	411.9
1029.7645	3024.6428	1288.35	407.2
1029.8755	3025.6892	1292.4	412.2
1029.9864	3026.735	1295.2	414
1030.0973	3027.7802	1302.35	421.2
1030.2082	3028.8247	1302.05	421.35
1030.319	3029.8685	1311.85	430
1030.4297	3030.9118	1310.15	428.55
1030.5404	3031.9544	1314.15	433.4
1030.6511	3032.9963	1318.65	437.2
1030.7617	3034.0376	1325.35	446.55
1030.8723	3035.0783	1330.2	446.75
1030.9829	3036.1184	1331.35	448.7
1031.0934	3037.1578	1337.6	457.5
1031.2038	3038.1966	1340.4	458
1031.3142	3039.2348	1341.5	462.95
1031.4246	3040.2723	1351.05	461.15
1031.5349	3041.3092	1338.75	458.75
1031.6452	3042.3455	1337.05	456.65
1031.7554	3043.3811	1335.8	454.6
1031.8656	3044.4161	1330.95	450.15
1031.9758	3045.4505	1325.9	445.75
1032.0859	3046.4842	1323.65	441.8
1032.1959	3047.5173	1316.4	435.4
1032.3059	3048.5498	1309.9	430.75
1032.4159	3049.5816	1302.5	422.1
1032.5258	3050.6128	1293.8	413.05
1032.6357	3051.6434	1292.45	409.95
1032.7455	3052.6734	1283.4	400.05
1032.8553	3053.7027	1274.85	393.65
1032.9651	3054.7314	1268	387.55
1033.0748	3055.7594	1260.65	381.95
1033.1845	3056.7868	1257.7	377
1033.2941	3057.8136	1247.6	367.4
1033.4037	3058.8398	1245.6	365.65
1033.5132	3059.8653	1236.4	356.75
1033.6227	3060.8902	1240.2	358.2
1033.7321	3061.9145	1233.05	352.3
1033.8415	3062.9381	1228.55	347.9
1033.9509	3063.9612	1234.5	339.9
1034.0602	3064.9835	1214.4	334.5
1034.1694	3066.0053	1207.9	324.8
1034.2787	3067.0264	1201.95	322.1
1034.3878	3068.0469	1196.4	315.05
1034.497	3069.0668	1185.75	303.15
1034.6061	3070.086	1176.55	297.85
1034.7151	3071.1046	1177.2	293.4
1034.8241	3072.1226	1158.75	276.75
1034.9331	3073.1399	1153.2	274.05
1035.042	3074.1567	1149.85	266.95
1035.1508	3075.1727	1142	258.65
1035.2597	3076.1882	1126.05	246.6
1035.3684	3077.203	1116.9	235.1
1035.4772	3078.2173	1106.6	224.2
1035.5859	3079.2308	1105.45	222.55
1035.6945	3080.2438	1094.75	211.4
1035.8031	3081.2561	1081.65	201.9
1035.9117	3082.2678	1077.5	198.4
1036.0202	3083.2789	1067.05	184.85
1036.1286	3084.2893	1064.9	183.05
1036.2371	3085.2991	1062.9	181.4
1036.3454	3086.3083	1059.2	174.2
1036.4538	3087.3169	1050.3	167.65
1036.562	3088.3248	1045.65	163.1
1036.6703	3089.3321	1044	162.4
1036.7785	3090.3388	1033.4	152.75
1036.8866	3091.3449	1026.2	146.5
1036.9948	3092.3503	1030.85	149.65
1037.1028	3093.3551	1022.15	141.5
1037.2108	3094.3593	1019.45	140
1037.3188	3095.3629	1015.6	136.45
1037.4267	3096.3658	1014.8	132.3
1037.5346	3097.3681	1012.8	132.65
1037.6425	3098.3698	1011.45	129.5
1037.7503	3099.3708	1005.8	124.5
1037.858	3100.3713	1007.85	126.5
1037.9657	3101.3711	1002.1	120.3
1038.0734	3102.3702	1144.35	125.05
1038.181	3103.3688	1004.75	123.25
1038.2886	3104.3667	997.6	118.15
1038.3961	3105.364	997	117.5
1038.5036	3106.3607	997.2	115.6
1038.611	3107.3568	994.85	114.95
1038.7184	3108.3522	993.25	114.8
1038.8257	3109.347	992.1	109.1
1038.933	3110.3412	989.45	103.8
1039.0403	3111.3348	988.25	106.55
1039.1475	3112.3277	988.1	107.25
1039.2547	3113.32	985.05	104.95
1039.3618	3114.3117	985.2	103.7
1039.4689	3115.3028	983.5	104.55
1039.5759	3116.2932	983	99.05
1039.6829	3117.2831	987.45	100.2
1039.7898	3118.2723	978.85	99.05
1039.8967	3119.2608	981.9	101
1040.0035	3120.2488	981.45	100.65
1040.1103	3121.2361	977.7	96.15
1040.2171	3122.2229	979.6	97.9
1040.3238	3123.209	976.2	94.6
1040.4305	3124.1944	973.55	93.15
1040.5371	3125.1793	976.75	93.05
1040.6437	3126.1635	971.4	93.05
1040.7502	3127.1471	969.8	89.7
1040.8567	3128.1301	972.25	91.15
1040.9631	3129.1125	970	89.3
1041.0695	3130.0942	970	89.6
1041.1759	3131.0753	975.8	87.6
1041.2822	3132.0558	973.8	90.6
1041.3884	3133.0357	969.05	88.2
1041.4946	3134.015	967.45	86.25
1041.6008	3134.9936	966	85.25
1041.7069	3135.9716	986.1	81.75
1041.813	3136.949	964.15	83.55
1041.919	3137.9258	982.95	84.9
1042.025	3138.902	963.9	78.85
1042.1309	3139.8775	958.55	78.3
1042.2368	3140.8524	959.3	79.1
1042.3427	3141.8267	960.6	78.45
1042.4485	3142.8004	958.85	78.15
1042.5542	3143.7735	963.5	77.9
1042.6599	3144.7459	959.6	77.25
1042.7656	3145.7178	959	78.7
1042.8712	3146.689	954.2	74.9
1042.9768	3147.6596	956.1	73.75
1043.0823	3148.6295	955.05	74.15
1043.1878	3149.5989	951.5	71.4
1043.2932	3150.5676	951.25	72.25
1043.3986	3151.5357	948.5	69.05
1043.5039	3152.5032	950.45	71.2
1043.6092	3153.4701	949.5	69.2
1043.7145	3154.4364	956.35	72.35
1043.8197	3155.402	946.1	66.95
1043.9248	3156.367	950.5	67.45
1044.03	3157.3315	992	67.4
1044.135	3158.2952	948.55	68.95
1044.24	3159.2584	944.4	64.9
1044.345	3160.221	949.1	69.15
1044.4499	3161.1829	942.85	61.95
1044.5548	3162.1442	945.2	65
1044.6596	3163.105	942.45	62.65
1044.7644	3164.065	943.5	62.45
1044.8692	3165.0245	948.2	66.35
1044.9739	3165.9834	940.3	61.7
1045.0785	3166.9416	942.95	63.05
1045.1831	3167.8993	940	58
1045.2877	3168.8563	941.5	59
1045.3922	3169.8127	939.8	61.8
1045.4966	3170.7684	938.2	58.65
1045.6011	3171.7236	941.45	60.8
1045.7054	3172.6782	938.35	57.55
1045.8098	3173.6321	939.8	60.65
1045.914	3174.5854	940.8	57.05
1046.0183	3175.5381	937.15	57.75
1046.1224	3176.4902	936.3	57.25
1046.2266	3177.4417	938.95	57.4
1046.3307	3178.3926	932.8	53.05
1046.4347	3179.3428	931.95	52.15
1046.5387	3180.2924	935	56.4
1046.6427	3181.2415	934.85	54.15
1046.7466	3182.1899	937.2	53.9
1046.8504	3183.1377	934.75	53.2
1046.9542	3184.0848	936.9	54.65
1047.058	3185.0314	933.95	52.25
1047.1617	3185.9773	933.95	53.2
1047.2654	3186.9227	935.9	55
1047.369	3187.8674	933.75	53.15
1047.4726	3188.8115	937.9	53.55
1047.5761	3189.755	931.35	50.25
1047.6796	3190.6979	930.55	52
1047.783	3191.6402	932.2	53.6
1047.8864	3192.5818	928.1	49.3
1047.9898	3193.5229	952.4	51.25
1048.0931	3194.4633	930.8	50.55
1048.1963	3195.4031	931.6	50.95
1048.2995	3196.3423	929.7	49.85
1048.4027	3197.2809	929.2	46.75
1048.5058	3198.2189	928.55	49.95
1048.6089	3199.1563	945.35	45.9
1048.7119	3200.0931	928.05	48.8
1048.8148	3201.0292	926.5	47.45
1048.9178	3201.9648	926.05	44.75
1049.0206	3202.8997	929.8	46.35
1049.1235	3203.834	929.85	49.65
1049.2262	3204.7677	925.7	46.45
1049.329	3205.7008	928.35	44.6
1049.4317	3206.6333	924.4	46
1049.5343	3207.5652	927.65	44.7
1049.6369	3208.4964	927.2	48.6
1049.7394	3209.4271	925.1	44.8
1049.8419	3210.3571	926.2	47.7
1049.9444	3211.2865	926.4	43.6
1050.0468	3212.2154	926.55	44.4
1050.1491	3213.1436	926.35	44.05
1050.2514	3214.0712	928.15	40.95
1050.3537	3214.9982	924.9	46.6
1050.4559	3215.9246	925	42.15
1050.5581	3216.8503	922.85	44.55
1050.6602	3217.7755	924.8	42.85
1050.7623	3218.7001	923.45	43.45
1050.8643	3219.624	925.35	45.4
1050.9663	3220.5473	924.9	44.8
1051.0682	3221.4701	924.45	41.15
1051.1701	3222.3922	927.4	44.45
1051.2719	3223.3137	922.85	42
1051.3737	3224.2346	920.75	40.6
1051.4754	3225.1549	921.3	43.25
1051.5771	3226.0746	923	45.6
1051.6788	3226.9937	920.75	41.45
1051.7804	3227.9121	920.7	41.2
1051.8819	3228.83	921.35	42.9
1051.9834	3229.7473	922.75	41.3
1052.0849	3230.6639	920.2	39.85
1052.1863	3231.5799	920	40.6
1052.2876	3232.4954	923.15	41
1052.3889	3233.4102	918.35	40
1052.4902	3234.3244	921.55	40.75
1052.5914	3235.238	920.45	41.45
1052.6926	3236.151	944.35	40.15
1052.7937	3237.0634	919.45	41.45
1052.8948	3237.9752	916.25	37.2
1052.9958	3238.8864	919.95	38
1053.0968	3239.797	917.85	41.3
1053.1977	3240.7069	919.95	40.25
1053.2986	3241.6163	919.5	36.95
1053.3994	3242.5251	915.7	35.9
1053.5002	3243.4332	915.2	35.4
1053.6009	3244.3408	919.05	41.45
1053.7016	3245.2477	918.15	37.4
1053.8022	3246.154	917.3	36.3
1053.9028	3247.0598	918.75	39.05
1054.0034	3247.9649	915.1	35.3
1054.1039	3248.8694	916.9	35.9
1054.2043	3249.7733	915.25	35.85
1054.3047	3250.6766	918.2	37.3
1054.4051	3251.5793	915.55	34.8
1054.5054	3252.4814	912.45	33.5
1054.6056	3253.3829	912.95	32.4
1054.7058	3254.2838	914.15	34.6
1054.806	3255.1841	911	31.15
1054.9061	3256.0838	912.15	34.4
1055.0061	3256.9829	909.95	33.9
1055.1062	3257.8814	913.4	32.5
1055.2061	3258.7792	915.45	34.7
1055.306	3259.6765	912.25	32.2
1055.4059	3260.5731	911.1	32.3
1055.5057	3261.4692	909.75	29.95
1055.6055	3262.3647	911.1	30.2
1055.7052	3263.2595	908.15	27.45
1055.8049	3264.1538	908.55	29.9
1055.9045	3265.0474	908.85	29.5
1056.0041	3265.9404	909.1	29.95
1056.1036	3266.8329	908.6	29.5
1056.2031	3267.7247	917	27.9
1056.3025	3268.616	905.6	26.7
1056.4019	3269.5066	904.9	25.65
1056.5013	3270.3966	906	24.2
1056.6005	3271.286	904.6	27.15
