Software Version:	3.9.2.0
Unit SN:	10000200
Spectrometer SN:	6960
Date:	3/14/2024 1:02:56 PM
Data Line Index:	25
Spectral Points:	2048
Integration time (ms):	125
Averages:	20
Delay (ms):	30000
Sequence Number:	1
Processing:	dark subtract
Laser Power (mW):	300
Laser Current (mA):	823
Laser Diode Temp (C):	25
Laser Case Temp (C):	27.9
System Temp (C):	28
Spectrometer Temp (C):	25.9
CCD Temp (C):	0.007
Secondary Temp (C):	20.008
Heatsink Temp (C):	23.752
CCDPCB Temp (C):	37.574
SecondaryPCB Temp (C):	35.129

Wavelength	RamanShift	Raw Counts	Dark Subtracted
787.061	30.1047	418.8	6.7
787.2016	32.3739	416.05	5.8
787.3422	34.6426	420.05	9.5
787.4828	36.9109	423.8	12.75
787.6235	39.1787	428.35	13.45
787.7642	41.4461	430.95	10.5
787.9049	43.7131	436.25	11.85
788.0456	45.9796	439.05	11.15
788.1863	48.2456	444.4	12
788.3271	50.5112	450.05	12.75
788.4679	52.7764	454.2	14.9
788.6087	55.0411	458.45	16
788.7496	57.3054	463.5	15.9
788.8904	59.5692	465.75	16.15
789.0313	61.8326	471.7	18.35
789.1722	64.0955	479.25	20.45
789.3132	66.3579	485.55	22.7
789.4541	68.6199	490.1	25.15
789.5951	70.8815	496.95	29.9
789.7361	73.1426	511.25	39.2
789.8771	75.4032	548.35	70.4
790.0181	77.6634	626.85	143.5
790.1592	79.9231	795.25	308.7
790.3003	82.1824	1158.2	665.55
790.4414	84.4412	1777.8	1272.7
790.5825	86.6995	2579.2	2061.5
790.7237	88.9574	3392.3	2861.35
790.8648	91.2148	3957.65	3418.9
791.006	93.4717	4242.4	3698.55
791.1472	95.7282	4339.05	3788.95
791.2885	97.9842	4353.75	3803
791.4297	100.2398	4344.05	3787.5
791.571	102.4949	4317	3760.35
791.7123	104.7495	4273.4	3710.45
791.8536	107.0036	4249.7	3687.45
791.9949	109.2573	4178.5	3618.45
792.1363	111.5105	4116.9	3552.35
792.2777	113.7632	4039.55	3474.55
792.4191	116.0154	3979.65	3405.7
792.5605	118.2672	3901	3329.95
792.7019	120.5185	3823.25	3253.7
792.8434	122.7693	3767.65	3195.2
792.9849	125.0197	3705.5	3131.05
793.1264	127.2696	3663.25	3087.05
793.2679	129.519	3634.75	3053.9
793.4094	131.7679	3614.45	3032.5
793.551	134.0163	3599.2	3012.7
793.6926	136.2642	3596.15	3006.55
793.8342	138.5117	3596.55	3000.45
793.9758	140.7587	3570.3	2972.15
794.1175	143.0052	3539.05	2938
794.2591	145.2512	3491.3	2891.95
794.4008	147.4967	3457.05	2857.15
794.5425	149.7417	3441.2	2838.7
794.6842	151.9863	3399.55	2795.45
794.826	154.2304	3399.6	2791.95
794.9677	156.4739	3387.45	2773.65
795.1095	158.717	3396.75	2783
795.2513	160.9596	3403.3	2785.2
795.3931	163.2017	3421.65	2802.25
795.535	165.4433	3428	2805.9
795.6768	167.6844	3405.3	2782.95
795.8187	169.925	3396.7	2769.1
795.9606	172.1651	3362.9	2732.15
796.1025	174.4047	3314.6	2680
796.2445	176.6439	3290.9	2654.95
796.3864	178.8825	3255.45	2617.6
796.5284	181.1206	3260.55	2617.55
796.6704	183.3582	3236.5	2588.7
796.8124	185.5954	3240.85	2594.1
796.9544	187.832	3241.3	2590.1
797.0965	190.0681	3245.15	2591.95
797.2386	192.3037	3240.5	2585.6
797.3806	194.5388	3228.55	2568.8
797.5228	196.7734	3245.1	2584.3
797.6649	199.0075	3258.1	2592.6
797.807	201.2411	3266.4	2599.95
797.9492	203.4742	3280.7	2612.75
798.0914	205.7068	3308.75	2641.3
798.2336	207.9389	3316.25	2647.95
798.3758	210.1704	3332	2659.4
798.518	212.4015	3324.7	2648.3
798.6603	214.632	3321.4	2645.45
798.8025	216.862	3318.85	2645.95
798.9448	219.0915	3315.55	2653.55
799.0871	221.3205	3328.5	2666.5
799.2294	223.549	3315.8	2660.9
799.3718	225.777	3315.95	2660.9
799.5141	228.0044	3301.8	2645.05
799.6565	230.2314	3308.2	2654.75
799.7989	232.4578	3280.05	2622.35
799.9413	234.6837	3273.45	2608.95
800.0837	236.909	3264.65	2602.2
800.2262	239.1339	3287.65	2599.55
800.3687	241.3582	3252.15	2579.15
800.5111	243.582	3260	2563.5
800.6536	245.8053	3279.85	2587.5
800.7961	248.0281	3261	2572.7
800.9387	250.2503	3263	2571.1
801.0812	252.472	3265.3	2569.05
801.2238	254.6932	3274.3	2574.75
801.3664	256.9139	3268.5	2566.85
801.509	259.134	3270.15	2562.75
801.6516	261.3536	3289.9	2586.9
801.7942	263.5727	3330.25	2624.2
801.9369	265.7912	3351.9	2647.1
802.0795	268.0092	3387.65	2678.95
802.2222	270.2267	3406.5	2701.5
802.3649	272.4436	3440.4	2731.55
802.5076	274.6601	3479.6	2761.65
802.6504	276.8759	3478.15	2765
802.7931	279.0913	3485.25	2771.45
802.9359	281.3061	3486.25	2772.7
803.0787	283.5204	3513.95	2798.3
803.2215	285.7341	3524.55	2804
803.3643	287.9473	3533.55	2810.95
803.5071	290.16	3533.9	2805.35
803.6499	292.3721	3510.8	2789.65
803.7928	294.5837	3490	2766.25
803.9357	296.7947	3450.8	2725.8
804.0786	299.0052	3443.75	2723.25
804.2215	301.2152	3418.25	2690.8
804.3644	303.4246	3394.15	2670.85
804.5074	305.6334	3377	2653.4
804.6503	307.8418	3365	2636.25
804.7933	310.0495	3342.2	2612.7
804.9363	312.2568	3309.95	2583.55
805.0793	314.4635	3264.1	2536
805.2223	316.6696	3231.3	2498.55
805.3653	318.8752	3188.8	2448.55
805.5084	321.0802	3170.05	2436.45
805.6514	323.2847	3169.15	2434.2
805.7945	325.4887	3166.65	2432.85
805.9376	327.692	3163.7	2427.05
806.0807	329.8949	3192.25	2455.75
806.2238	332.0972	3220.45	2482.45
806.367	334.2989	3233.4	2490.4
806.5101	336.5001	3228.1	2487.75
806.6533	338.7007	3207.3	2468.35
806.7965	340.9008	3160.45	2417.45
806.9397	343.1003	3136.9	2390.55
807.0829	345.2992	3099.95	2354.5
807.2261	347.4976	3057.8	2307.4
807.3693	349.6955	3040.05	2287.45
807.5126	351.8927	3019.35	2267.9
807.6559	354.0895	2995.4	2233.2
807.7991	356.2856	2991.6	2239.8
807.9424	358.4812	2969.15	2214.8
808.0857	360.6763	2961.3	2205.35
808.2291	362.8707	2965.5	2207.85
808.3724	365.0646	2961.6	2203
808.5158	367.258	2971.9	2209.45
808.6591	369.4508	2980.1	2216.85
808.8025	371.643	2992.6	2229.6
808.9459	373.8346	3015.85	2250.45
809.0893	376.0257	3028.5	2259.05
809.2327	378.2162	3046	2276.3
809.3762	380.4062	3047.2	2275.35
809.5196	382.5956	3018.35	2244.75
809.6631	384.7844	2993.9	2222.15
809.8066	386.9726	2963.45	2186.2
809.9501	389.1603	2934.35	2158.35
810.0936	391.3474	2936.85	2125.95
810.2371	393.5339	2917.3	2142.1
810.3806	395.7199	2899	2129.05
810.5241	397.9052	2924.25	2151.8
810.6677	400.09	2942	2172.65
810.8113	402.2743	2966.3	2199.75
810.9548	404.4579	2972.5	2207.1
811.0984	406.641	3012.6	2245.7
811.2421	408.8235	3044.6	2275.7
811.3857	411.0054	3082.8	2316.7
811.5293	413.1868	3165.35	2393.2
811.673	415.3675	3203.75	2431.75
811.8166	417.5477	3199.2	2425.55
811.9603	419.7273	3131.05	2353.6
812.104	421.9064	3062.6	2281.35
812.2477	424.0848	2996.6	2220.1
812.3914	426.2627	2956.65	2174.4
812.5351	428.4399	2914.15	2130.35
812.6788	430.6166	2871	2083.6
812.8226	432.7928	2808.8	2020
812.9663	434.9683	2790.85	2002.95
813.1101	437.1432	2770.25	1979.65
813.2539	439.3176	2750.9	1959.75
813.3977	441.4914	2727.85	1937.3
813.5415	443.6645	2730.25	1935.05
813.6853	445.8371	2726.35	1931.25
813.8291	448.0091	2715	1924.05
813.973	450.1806	2707.1	1911.45
814.1168	452.3514	2703.5	1908
814.2607	454.5216	2710.35	1905.85
814.4046	456.6913	2696.05	1896.85
814.5485	458.8603	2699.05	1900.5
814.6924	461.0288	2690.1	1895.05
814.8363	463.1967	2687	1888.45
814.9802	465.3639	2680.9	1880.65
815.1241	467.5306	2677.05	1876.75
815.2681	469.6967	2663.85	1863.35
815.412	471.8622	2646.35	1848.05
815.556	474.0271	2644.55	1844
815.7	476.1914	2643.65	1841.45
815.844	478.3551	2636.7	1838
815.988	480.5182	2643.65	1839.9
816.132	482.6807	2642.05	1839.2
816.276	484.8426	2644.4	1838.7
816.4201	487.0039	2681.85	1878.15
816.5641	489.1647	2707.35	1900.7
816.7082	491.3248	2748.6	1943.1
816.8522	493.4843	2753.95	1950.9
816.9963	495.6432	2746.5	1941.3
817.1404	497.8015	2715.7	1905.7
817.2845	499.9592	2682.05	1874.15
817.4286	502.1163	2636.75	1828.55
817.5727	504.2728	2616	1802.25
817.7168	506.4287	2598.8	1789.75
817.861	508.5839	2586.45	1776.9
818.0051	510.7386	2570.7	1761.4
818.1493	512.8927	2573.3	1754.75
818.2935	515.0461	2586.6	1776.65
818.4377	517.199	2589.85	1776.9
818.5818	519.3512	2617.8	1808.35
818.726	521.5029	2657.7	1839.45
818.8703	523.6539	2695.3	1881.7
819.0145	525.8043	2705.5	1893.45
819.1587	527.9541	2664.05	1849.1
819.303	530.1033	2610.35	1794.05
819.4472	532.2519	2567.45	1753.45
819.5915	534.3999	2551.65	1735.85
819.7357	536.5472	2545.1	1730.75
819.88	538.694	2548.7	1732.4
820.0243	540.8401	2552.85	1735.25
820.1686	542.9856	2571.85	1751.4
820.3129	545.1305	2575.2	1753.8
820.4572	547.2748	2577.45	1757.15
820.6016	549.4185	2581.2	1759.8
820.7459	551.5615	2583.15	1762.65
820.8902	553.704	2595.85	1774.75
821.0346	555.8458	2603.65	1782.7
821.1789	557.987	2621.25	1801.65
821.3233	560.1276	2631.35	1810.6
821.4677	562.2675	2665.3	1843.75
821.6121	564.4069	2709.15	1886.7
821.7565	566.5456	2725.2	1901.4
821.9009	568.6837	2712.15	1888.65
822.0453	570.8212	2660.4	1837.25
822.1897	572.958	2626.35	1802.9
822.3342	575.0942	2581.9	1760.9
822.4786	577.2299	2551.8	1728.45
822.6231	579.3648	2534.85	1711.4
822.7675	581.4992	2504.15	1681.6
822.912	583.6329	2514.15	1691.95
823.0565	585.766	2528.6	1703.55
823.201	587.8985	2546.95	1724.25
823.3454	590.0304	2582.5	1745.1
823.4899	592.1616	2599.8	1771.5
823.6345	594.2922	2579.95	1751.55
823.779	596.4222	2548.45	1721.95
823.9235	598.5515	2519.45	1690.75
824.068	600.6802	2478.3	1653.1
824.2126	602.8083	2451.75	1624
824.3571	604.9358	2447.7	1618
824.5017	607.0626	2450.35	1620.6
824.6462	609.1888	2443.8	1614.15
824.7908	611.3144	2446.3	1614.4
824.9354	613.4393	2479.3	1649.95
825.08	615.5636	2497.7	1666.55
825.2246	617.6873	2555.05	1724.75
825.3692	619.8103	2559	1725.25
825.5138	621.9327	2549.85	1713.2
825.6584	624.0544	2527.45	1697.2
825.803	626.1756	2483.85	1653.9
825.9477	628.2961	2459.85	1627.8
826.0923	630.4159	2432.85	1600.5
826.237	632.5351	2435.9	1602.9
826.3816	634.6537	2421.55	1586.45
826.5263	636.7716	2413.75	1577.55
826.6709	638.8889	2408.55	1573.9
826.8156	641.0056	2400.7	1566.6
826.9603	643.1216	2419.1	1582.25
827.105	645.237	2422.05	1584
827.2497	647.3518	2399	1561.55
827.3944	649.4659	2389.4	1552.1
827.5391	651.5793	2371.9	1534.3
827.6838	653.6922	2358.7	1522.1
827.8285	655.8043	2347.3	1509.15
827.9733	657.9159	2342.9	1503.8
828.118	660.0268	2334.35	1492.5
828.2627	662.137	2316.4	1476.45
828.4075	664.2466	2328.25	1487.9
828.5522	666.3556	2325.15	1487
828.697	668.4639	2314.85	1471.95
828.8418	670.5716	2313.65	1474.2
828.9865	672.6786	2298.05	1456.9
829.1313	674.785	2300.95	1457.45
829.2761	676.8907	2290.3	1447
829.4209	678.9958	2292.45	1450.45
829.5657	681.1002	2282.9	1439.9
829.7105	683.204	2291.05	1444.45
829.8553	685.3072	2287.25	1440.5
830.0001	687.4097	2285.6	1442.85
830.1449	689.5115	2280.25	1436
830.2898	691.6127	2282.95	1442
830.4346	693.7132	2278.4	1433.4
830.5794	695.8131	2292.6	1439.1
830.7243	697.9123	2284.95	1436.7
830.8691	700.0109	2276.55	1431.75
831.014	702.1089	2287.2	1441.95
831.1588	704.2061	2297.1	1450.2
831.3037	706.3028	2299.3	1451.6
831.4486	708.3987	2323.65	1475.95
831.5935	710.4941	2320.5	1474.25
831.7383	712.5887	2316.6	1469
831.8832	714.6827	2337.05	1486.1
832.0281	716.7761	2336.4	1488.35
832.173	718.8688	2319.85	1471.95
832.3179	720.9608	2325.15	1475.75
832.4628	723.0522	2328.3	1477.9
832.6077	725.1429	2342.45	1494.25
832.7527	727.233	2363.1	1514.7
832.8976	729.3224	2408.8	1559.05
833.0425	731.4112	2455.5	1604.75
833.1874	733.4993	2451	1598.35
833.3324	735.5867	2417.05	1563.9
833.4773	737.6735	2356.8	1503.95
833.6222	739.7596	2326.25	1475.7
833.7672	741.845	2309	1457.4
833.9122	743.9298	2317.1	1461.7
834.0571	746.014	2326.1	1473
834.2021	748.0974	2320.2	1466.7
834.347	750.1802	2313.85	1460.95
834.492	752.2624	2301.25	1448
834.637	754.3439	2300.95	1447.6
834.782	756.4247	2300.6	1439.2
834.9269	758.5048	2292.4	1439.95
835.0719	760.5843	2297.1	1444.3
835.2169	762.6631	2318.75	1463.85
835.3619	764.7413	2340.25	1487.65
835.5069	766.8188	2422.8	1568.5
835.6519	768.8956	2460.35	1604.3
835.7969	770.9718	2487.4	1633.7
835.9419	773.0473	2479.8	1626
836.0869	775.1221	2448.5	1595.9
836.232	777.1962	2456.9	1600.3
836.377	779.2697	2493.25	1638.4
836.522	781.3426	2559.4	1694.75
836.667	783.4147	2584.9	1729.8
836.8121	785.4862	2577.75	1723.7
836.9571	787.557	2520.3	1667.4
837.1021	789.6271	2414	1559.05
837.2472	791.6966	2331.75	1474.3
837.3922	793.7654	2272.75	1417.2
837.5373	795.8335	2237.15	1380.35
837.6823	797.901	2214.95	1357.45
837.8274	799.9678	2200.6	1343.5
837.9724	802.0339	2195.25	1339.9
838.1175	804.0993	2213.1	1344.4
838.2626	806.1641	2189.45	1330.8
838.4076	808.2282	2177.75	1319.4
838.5527	810.2916	2174.75	1314.2
838.6978	812.3544	2159.35	1305.3
838.8428	814.4164	2148.9	1292.9
838.9879	816.4778	2161.55	1303.5
839.133	818.5385	2157.6	1300
839.2781	820.5986	2173.75	1316.5
839.4232	822.658	2206.8	1346.5
839.5682	824.7166	2252.75	1396.1
839.7133	826.7747	2313	1454
839.8584	828.832	2369.35	1512.6
840.0035	830.8886	2406.3	1545.45
840.1486	832.9446	2426.8	1564.45
840.2937	834.9999	2394.9	1537.55
840.4388	837.0545	2335.45	1470.8
840.5839	839.1085	2267.7	1405.5
840.729	841.1618	2238.65	1375.85
840.8741	843.2143	2199.35	1341.75
841.0192	845.2662	2169.5	1309.35
841.1643	847.3175	2155.5	1293.15
841.3095	849.368	2143.85	1283
841.4546	851.4179	2136.05	1277
841.5997	853.467	2140.3	1278.45
841.7448	855.5155	2138.3	1276.8
841.8899	857.5633	2142.9	1279.75
842.0351	859.6105	2143.5	1282.4
842.1802	861.6569	2123.45	1262.85
842.3253	863.7027	2128.3	1266.35
842.4704	865.7478	2097	1234.2
842.6156	867.7922	2097.55	1235.15
842.7607	869.8359	2085.25	1223.25
842.9058	871.8789	2074.55	1212.5
843.0509	873.9212	2106.65	1209.7
843.1961	875.9629	2088.25	1226
843.3412	878.0039	2091.8	1227.8
843.4863	880.0441	2105.9	1242.2
843.6315	882.0837	2125.95	1259.85
843.7766	884.1226	2120.35	1254.3
843.9218	886.1609	2150.75	1286.5
844.0669	888.1984	2187.55	1324.95
844.212	890.2352	2205.15	1344.35
844.3572	892.2714	2226.25	1359.15
844.5023	894.3069	2212.2	1348.2
844.6475	896.3416	2161.05	1296.4
844.7926	898.3757	2127.6	1263
844.9377	900.4091	2131.4	1265.65
845.0829	902.4418	2120.55	1251.55
845.228	904.4739	2120.7	1254.7
845.3732	906.5052	2143.55	1279.1
845.5183	908.5358	2125.3	1260.55
845.6635	910.5658	2121.3	1255.05
845.8086	912.595	2087.15	1222.45
845.9538	914.6236	2067.8	1203.25
846.0989	916.6515	2041.55	1178.45
846.2441	918.6786	2031.05	1162
846.3892	920.7051	2018.7	1154
846.5344	922.7309	2010.8	1146.35
846.6795	924.756	2006.15	1139.55
846.8246	926.7804	2027.6	1160.15
846.9698	928.8041	2023.7	1157.4
847.1149	930.8272	2034.15	1167.3
847.2601	932.8495	2035.5	1169.55
847.4052	934.8711	2035.85	1166.95
847.5504	936.892	2043.85	1178.2
847.6955	938.9123	2052.1	1183.35
847.8407	940.9318	2068.95	1202.25
847.9858	942.9506	2081.7	1213.35
848.131	944.9688	2063.5	1195.35
848.2761	946.9862	2032.65	1165
848.4213	949.003	2012.1	1144.5
848.5664	951.019	2006.7	1137.85
848.7115	953.0344	1989.75	1122.35
848.8567	955.0491	1977.6	1107.55
849.0018	957.063	1988.25	1119.6
849.147	959.0763	1973.25	1105.5
849.2921	961.0888	1957.15	1087.15
849.4373	963.1007	1962.65	1093.1
849.5824	965.1119	1960.4	1091
849.7275	967.1223	1957.9	1087.75
849.8727	969.1321	1953.95	1086.3
850.0178	971.1412	1948.25	1080.95
850.1629	973.1495	1942	1075.45
850.3081	975.1572	1970.7	1068.1
850.4532	977.1641	1946.6	1077.4
850.5983	979.1704	1940.05	1067.65
850.7435	981.1759	1934.8	1061.05
850.8886	983.1808	1929.85	1059.15
851.0337	985.1849	1931.35	1048.9
851.1788	987.1884	1916.9	1046
851.324	989.1911	1926.15	1051.65
851.4691	991.1932	1933.3	1062.9
851.6142	993.1945	1926.2	1056.45
851.7593	995.1951	1908.95	1040.85
851.9045	997.1951	1917.4	1043.15
852.0496	999.1943	1909.75	1040.45
852.1947	1001.1928	1904.95	1033.55
852.3398	1003.1906	1919.3	1048.55
852.4849	1005.1877	1925.3	1051.85
852.63	1007.1841	1931	1058.15
852.7751	1009.1798	1946	1073.6
852.9202	1011.1748	1927.1	1055.85
853.0653	1013.1691	1925.3	1052.7
853.2104	1015.1627	1901.65	1030.9
853.3555	1017.1556	1873.4	1001.8
853.5006	1019.1477	1856	984.85
853.6457	1021.1392	1842.15	971.4
853.7908	1023.1299	1829.5	957.45
853.9359	1025.12	1837.2	963.4
854.081	1027.1093	1836.8	966.65
854.2261	1029.0979	1852.75	982.2
854.3712	1031.0859	1853.6	981.9
854.5163	1033.0731	1863.15	990.75
854.6613	1035.0596	1865.95	994
854.8064	1037.0454	1849.5	976.2
854.9515	1039.0304	1839.65	967.45
855.0965	1041.0148	1819.5	947.95
855.2416	1042.9985	1802.15	928.6
855.3867	1044.9814	1801	929.35
855.5317	1046.9636	1799.7	926.05
855.6768	1048.9452	1798.75	926.95
855.8219	1050.926	1805.25	933.55
855.9669	1052.9061	1811.35	940.35
856.112	1054.8855	1813	940.8
856.257	1056.8642	1809.6	938.25
856.4021	1058.8421	1804.95	929.05
856.5471	1060.8194	1799.45	925.4
856.6921	1062.7959	1804.9	932.75
856.8372	1064.7717	1803.6	930.05
856.9822	1066.7469	1803.45	928.45
857.1272	1068.7213	1806.35	931.4
857.2723	1070.695	1803.95	929.65
857.4173	1072.6679	1823.5	947.9
857.5623	1074.6402	1834.45	962.15
857.7073	1076.6117	1838.35	959.4
857.8523	1078.5826	1828.25	954.7
857.9973	1080.5527	1797.4	920.1
858.1423	1082.5221	1775.95	900.1
858.2873	1084.4908	1754.3	879.7
858.4323	1086.4587	1741.35	865.45
858.5773	1088.426	1738.05	864.25
858.7223	1090.3925	1733.85	854.05
858.8673	1092.3584	1734.5	862.2
859.0123	1094.3235	1737.9	865.4
859.1573	1096.2879	1751.95	876.5
859.3022	1098.2515	1757.5	883.65
859.4472	1100.2145	1780	906.05
859.5922	1102.1767	1802.1	925.75
859.7371	1104.1382	1821.6	945.45
859.8821	1106.099	1859.4	982.55
860.027	1108.0591	1889.55	1014.75
860.172	1110.0185	1907.75	1032.9
860.3169	1111.9771	1929.85	1057.4
860.4619	1113.9351	1964.6	1091.3
860.6068	1115.8923	2009.6	1133.6
860.7517	1117.8488	2019.35	1143.35
860.8967	1119.8045	1986.45	1112.4
861.0416	1121.7596	1926.75	1054.25
861.1865	1123.7139	1841.2	967.75
861.3314	1125.6675	1806.05	930.7
861.4763	1127.6204	1817.8	943.1
861.6212	1129.5726	1816.6	937.95
861.7661	1131.524	1821.7	946.05
861.911	1133.4748	1799.2	923.2
862.0559	1135.4248	1754.85	879
862.2008	1137.3741	1716.9	842.05
862.3457	1139.3226	1698.3	820.75
862.4905	1141.2705	1698.1	820.55
862.6354	1143.2176	1708.75	828.4
862.7803	1145.164	1709.5	828.6
862.9251	1147.1097	1703.35	825.25
863.07	1149.0546	1691.7	813.4
863.2148	1150.9989	1669.85	793.3
863.3597	1152.9424	1656.65	779.1
863.5045	1154.8852	1650.25	774.1
863.6493	1156.8272	1642.25	766.6
863.7942	1158.7686	1656.6	774.3
863.939	1160.7092	1646.8	769.1
864.0838	1162.6491	1642.2	764.35
864.2286	1164.5883	1654.5	777.25
864.3734	1166.5267	1655.8	779.7
864.5182	1168.4644	1676.4	800.2
864.663	1170.4014	1696.05	815.2
864.8078	1172.3377	1719.35	844
864.9526	1174.2732	1756.9	880.9
865.0974	1176.2081	1813.55	938.15
865.2421	1178.1421	1891.3	1010.6
865.3869	1180.0755	1950.95	1075.85
865.5317	1182.0082	1997.75	1120.3
865.6764	1183.9401	1973.9	1094.9
865.8212	1185.8713	1900.9	1024.4
865.9659	1187.8017	1817.2	939.5
866.1106	1189.7315	1757.6	879.65
866.2554	1191.6605	1732.1	826.8
866.4001	1193.5888	1677.25	799.35
866.5448	1195.5163	1651.8	775.6
866.6895	1197.4432	1643.7	763.35
866.8342	1199.3693	1627.05	750.25
866.9789	1201.2947	1623.35	739.5
867.1236	1203.2193	1604.7	726.1
867.2683	1205.1432	1601.75	725.55
867.413	1207.0664	1603.25	726.35
867.5576	1208.9889	1606.65	726.9
867.7023	1210.9106	1596.7	720.4
867.847	1212.8316	1603.2	726.65
867.9916	1214.7519	1618.05	732.4
868.1363	1216.6715	1612.35	735.05
868.2809	1218.5903	1626	749
868.4255	1220.5084	1635.35	757.5
868.5701	1222.4257	1638.8	760.95
868.7148	1224.3424	1649.2	772.6
868.8594	1226.2583	1661.7	778.7
869.004	1228.1735	1676.85	800.95
869.1486	1230.0879	1694.1	815.35
869.2932	1232.0016	1714.4	835.3
869.4377	1233.9146	1743.75	864
869.5823	1235.8269	1744.45	865.7
869.7269	1237.7384	1761.85	883.25
869.8715	1239.6492	1753.4	876.85
870.016	1241.5592	1778.7	898.15
870.1606	1243.4686	1795.35	919.5
870.3051	1245.3772	1852.75	972.7
870.4496	1247.285	1897.1	1019.1
870.5941	1249.1922	1951.3	1073.7
870.7387	1251.0986	1992.75	1114.4
870.8832	1253.0042	2039.15	1158.25
871.0277	1254.9092	2097	1219.7
871.1722	1256.8134	2147.85	1269.55
871.3167	1258.7169	2190.8	1309.9
871.4611	1260.6196	2199.05	1321.6
871.6056	1262.5216	2192.25	1311.7
871.7501	1264.4229	2186.35	1308.95
871.8945	1266.3234	2155.5	1278.2
872.039	1268.2232	2123.45	1244.55
872.1834	1270.1223	2106.3	1226.55
872.3278	1272.0207	2079.2	1200
872.4723	1273.9183	2065.55	1181.2
872.6167	1275.8151	2066.3	1187.95
872.7611	1277.7113	2096.65	1214.15
872.9055	1279.6067	2160	1280.45
873.0499	1281.5014	2252	1369.7
873.1943	1283.3953	2355.8	1475.1
873.3386	1285.2885	2465	1584.25
873.483	1287.181	2540.6	1661.05
873.6274	1289.0727	2553	1675.05
873.7717	1290.9637	2534.45	1654.5
873.9161	1292.854	2469.9	1591.15
874.0604	1294.7435	2408.65	1528.7
874.2047	1296.6323	2345.9	1467.05
874.349	1298.5204	2287.85	1403.75
874.4933	1300.4077	2237.75	1355.85
874.6376	1302.2943	2203.35	1323.3
874.7819	1304.1802	2191.3	1312.85
874.9262	1306.0653	2167.65	1285.5
875.0705	1307.9497	2143.85	1263.9
875.2147	1309.8333	2116.5	1236.55
875.359	1311.7162	2091.85	1212.3
875.5032	1313.5984	2070	1186.35
875.6475	1315.4798	2078.25	1188.2
875.7917	1317.3605	2057.05	1172.65
875.9359	1319.2405	2049.1	1167.35
876.0801	1321.1197	2026.85	1144.3
876.2243	1322.9982	1991.6	1105.4
876.3685	1324.876	1941	1064.2
876.5127	1326.753	1877.15	995.45
876.6569	1328.6293	1822.45	941.55
876.801	1330.5048	1783.7	902.6
876.9452	1332.3796	1738.7	859.3
877.0893	1334.2537	1722.55	813.45
877.2335	1336.127	1674.3	792.9
877.3776	1337.9996	1667.2	786.2
877.5217	1339.8714	1653.1	772.95
877.6658	1341.7426	1678.7	754.45
877.8099	1343.6129	1634.6	754.1
877.954	1345.4826	1618.15	737.8
878.0981	1347.3515	1620.2	736.95
878.2422	1349.2196	1602.4	721.55
878.3862	1351.087	1597.45	717.1
878.5303	1352.9537	1592.8	712.6
878.6743	1354.8197	1600	720.2
878.8184	1356.6849	1593.05	711.95
878.9624	1358.5493	1607.25	727.3
879.1064	1360.4131	1625.95	746.25
879.2504	1362.276	1649.35	768.85
879.3944	1364.1383	1671.9	791.65
879.5384	1365.9998	1674.85	786.15
879.6823	1367.8606	1669.35	789.55
879.8263	1369.7206	1650.05	771.45
879.9702	1371.5799	1654.6	771.45
880.1142	1373.4384	1647.65	767.95
880.2581	1375.2962	1628.75	745.2
880.402	1377.1533	1603.4	724.2
880.5459	1379.0096	1567.95	685.8
880.6898	1380.8652	1543.9	663.75
880.8337	1382.7201	1529.5	649.25
880.9776	1384.5742	1511.2	630.75
881.1215	1386.4275	1498	615.5
881.2653	1388.2802	1487.9	606.75
881.4092	1390.132	1476.45	596.4
881.553	1391.9832	1460.55	578.85
881.6968	1393.8336	1456.85	575.75
881.8406	1395.6832	1454.25	570.3
881.9844	1397.5322	1445	564.55
882.1282	1399.3803	1449.35	560.3
882.272	1401.2278	1436.85	556.6
882.4158	1403.0745	1428.3	546.65
882.5595	1404.9204	1420.8	537.75
882.7033	1406.7656	1425	522.15
882.847	1408.6101	1410.2	516.8
882.9908	1410.4538	1421.3	539.9
883.1345	1412.2968	1417.15	536.35
883.2782	1414.139	1425.15	545.5
883.4219	1415.9805	1414.8	535.05
883.5656	1417.8213	1428.1	540.45
883.7092	1419.6613	1430	550.35
883.8529	1421.5006	1445.7	562.7
883.9965	1423.3391	1472.1	589.45
884.1402	1425.1769	1504.2	622.55
884.2838	1427.0139	1551.05	669.35
884.4274	1428.8502	1602.25	719.45
884.571	1430.6858	1642.05	760.9
884.7146	1432.5206	1653.8	770.35
884.8582	1434.3547	1643.55	760.8
885.0018	1436.188	1641.1	759.95
885.1453	1438.0206	1628.5	748.25
885.2889	1439.8524	1619.55	737.65
885.4324	1441.6835	1617.5	734.05
885.5759	1443.5139	1627.6	743.2
885.7194	1445.3435	1613.9	732.45
885.8629	1447.1724	1615.6	734.55
886.0064	1449.0005	1611.55	730.8
886.1499	1450.8279	1610.8	727.25
886.2933	1452.6545	1603.3	722.45
886.4368	1454.4804	1594.2	713.3
886.5802	1456.3056	1606.55	717.8
886.7237	1458.13	1591.55	709.45
886.8671	1459.9536	1576.75	692.85
887.0105	1461.7766	1543	663.2
887.1539	1463.5987	1525.85	642.3
887.2972	1465.4202	1499.75	616.6
887.4406	1467.2409	1479.9	595.7
887.584	1469.0608	1453.4	573.3
887.7273	1470.88	1435.7	553.1
887.8706	1472.6984	1414.65	533
888.0139	1474.5161	1414.55	528.95
888.1572	1476.3331	1394.25	513.35
888.3005	1478.1493	1390.9	507.05
888.4438	1479.9648	1392	510.5
888.5871	1481.7795	1380.55	496.3
888.7303	1483.5935	1389.3	508.05
888.8736	1485.4067	1379.7	498.9
889.0168	1487.2192	1385.2	502.7
889.16	1489.031	1380.6	496.8
889.3032	1490.842	1380.4	501.5
889.4464	1492.6522	1379.1	496.45
889.5896	1494.4618	1374.85	491.45
889.7327	1496.2705	1374.45	491.8
889.8759	1498.0785	1367.85	485.65
890.019	1499.8858	1361.4	479.15
890.1622	1501.6924	1353	470.7
890.3053	1503.4981	1356.45	473.4
890.4484	1505.3032	1349.25	468.4
890.5914	1507.1075	1348.75	467.3
890.7345	1508.911	1339.75	458.1
890.8776	1510.7138	1333.65	452
891.0206	1512.5159	1324.8	443.3
891.1637	1514.3172	1324.4	443.7
891.3067	1516.1178	1321.45	440
891.4497	1517.9176	1323.75	439.4
891.5927	1519.7166	1312.1	431.05
891.7357	1521.515	1317.6	428.35
891.8786	1523.3126	1310.65	429.4
892.0216	1525.1094	1305.75	420.9
892.1645	1526.9055	1299.7	419.65
892.3074	1528.7008	1299.6	415.7
892.4503	1530.4954	1297.8	410.45
892.5932	1532.2893	1286.95	407.05
892.7361	1534.0824	1295.2	409.15
892.879	1535.8747	1286.95	406.45
893.0218	1537.6663	1290.15	405.35
893.1647	1539.4572	1284.4	399.05
893.3075	1541.2473	1289.85	407.95
893.4503	1543.0367	1286.25	405.05
893.5931	1544.8253	1290.5	406.35
893.7359	1546.6132	1284.6	399.1
893.8787	1548.4003	1298.15	404.65
894.0214	1550.1867	1297.75	406.6
894.1642	1551.9723	1299.7	412.55
894.3069	1553.7572	1308.05	425
894.4496	1555.5414	1316.7	434
894.5923	1557.3247	1332.55	448.4
894.735	1559.1074	1347.1	465.15
894.8777	1560.8893	1367.2	486.15
895.0204	1562.6705	1391.1	506.9
895.163	1564.4509	1406.4	524.1
895.3056	1566.2305	1408.5	528.5
895.4482	1568.0094	1411.35	531.4
895.5908	1569.7876	1405.15	522.65
895.7334	1571.565	1402.75	519.5
895.876	1573.3417	1395	513.4
896.0186	1575.1176	1402.5	520.4
896.1611	1576.8928	1413.15	529.2
896.3036	1578.6672	1424.75	543.45
896.4461	1580.4409	1430.35	549.2
896.5886	1582.2138	1457.95	574.2
896.7311	1583.986	1478.4	594.75
896.8736	1585.7575	1496.15	615.4
897.0161	1587.5282	1504.35	624.25
897.1585	1589.2981	1515.6	634.45
897.3009	1591.0673	1523.1	640.35
897.4433	1592.8358	1530.65	649.95
897.5857	1594.6035	1533.45	648.1
897.7281	1596.3704	1527.15	645.15
897.8705	1598.1366	1517.65	635.35
898.0128	1599.9021	1500.9	617.35
898.1551	1601.6668	1491	605.7
898.2975	1603.4308	1484.55	601.9
898.4398	1605.194	1485.5	596.25
898.5821	1606.9564	1506.9	624.25
898.7243	1608.7182	1536.7	650.35
898.8666	1610.4791	1575.45	692.9
899.0088	1612.2394	1631.3	750.25
899.1511	1613.9988	1673.65	789.1
899.2933	1615.7576	1712.05	829.75
899.4355	1617.5156	1723.75	835.8
899.5776	1619.2728	1695.65	812.3
899.7198	1621.0293	1649.3	770.05
899.862	1622.785	1588.95	700.45
900.0041	1624.54	1513.9	627.8
900.1462	1626.2942	1457.85	573.95
900.2883	1628.0477	1397.85	511.05
900.4304	1629.8005	1360.25	474.85
900.5725	1631.5525	1325.3	444.3
900.7145	1633.3037	1295.75	412.25
900.8566	1635.0542	1274.1	393
900.9986	1636.804	1258.45	375.2
901.1406	1638.553	1307.35	361.25
901.2826	1640.3013	1231.4	347.65
901.4245	1642.0488	1224.45	342.25
901.5665	1643.7955	1213.1	332.1
901.7085	1645.5416	1203.65	321.1
901.8504	1647.2868	1203.9	323.1
901.9923	1649.0313	1190.2	307
902.1342	1650.7751	1191.45	303.15
902.2761	1652.5181	1191.5	309.4
902.4179	1654.2604	1184.5	300.95
902.5598	1656.0019	1196.5	316.2
902.7016	1657.7427	1201.05	318.75
902.8434	1659.4828	1208.05	324.75
902.9852	1661.222	1229.95	346.3
903.127	1662.9606	1236.95	354
903.2687	1664.6984	1252.4	369.9
903.4105	1666.4354	1255.05	374.05
903.5522	1668.1717	1239.85	356.2
903.6939	1669.9072	1213	330.15
903.8356	1671.642	1189.55	306.3
903.9773	1673.3761	1173	291.75
904.119	1675.1094	1157.85	276.85
904.2606	1676.8419	1143.35	261.05
904.4022	1678.5737	1139.25	258.9
904.5439	1680.3048	1134.05	253.3
904.6855	1682.0351	1131.05	248.2
904.827	1683.7646	1133.7	248.25
904.9686	1685.4934	1125.35	244.1
905.1101	1687.2215	1129.05	247.15
905.2517	1688.9488	1116.25	234.05
905.3932	1690.6754	1114.75	231.9
905.5347	1692.4012	1112.4	231.25
905.6761	1694.1263	1107.75	225.5
905.8176	1695.8506	1112.95	230.7
905.9591	1697.5742	1106.4	223.1
906.1005	1699.297	1106.4	225.55
906.2419	1701.0191	1102.3	218.7
906.3833	1702.7404	1102.5	223.45
906.5246	1704.461	1103.75	218.1
906.666	1706.1808	1096	212.25
906.8073	1707.8999	1097.2	213.7
906.9487	1709.6182	1098.35	214.6
907.09	1711.3358	1094.9	211.6
907.2313	1713.0527	1096.15	214.2
907.3725	1714.7688	1098.05	210
907.5138	1716.4841	1088.1	203.9
907.655	1718.1987	1099.9	213
907.7962	1719.9126	1086.65	203
907.9374	1721.6257	1092.8	206.8
908.0786	1723.338	1092.55	206.25
908.2198	1725.0496	1091.5	208.3
908.3609	1726.7605	1088.35	204.95
908.502	1728.4706	1090.45	207.65
908.6431	1730.18	1087.45	202.6
908.7842	1731.8886	1086.15	200.85
908.9253	1733.5964	1086.9	199.7
909.0664	1735.3036	1087.25	202.4
909.2074	1737.0099	1082.3	200.6
909.3484	1738.7156	1089.2	207.55
909.4894	1740.4204	1087.35	202.65
909.6304	1742.1246	1082.7	195.3
909.7714	1743.8279	1081.4	199.05
909.9123	1745.5306	1081.55	197.05
910.0532	1747.2325	1077.1	194.15
910.1941	1748.9336	1077.95	196.9
910.335	1750.634	1081.7	196.15
910.4759	1752.3336	1078.25	196.1
910.6168	1754.0325	1080.2	198.1
910.7576	1755.7307	1081.35	200.55
910.8984	1757.4281	1079.6	196.35
911.0392	1759.1247	1089.85	200.3
911.18	1760.8206	1082.75	197.05
911.3208	1762.5158	1080.05	192.5
911.4615	1764.2102	1076	192.2
911.6022	1765.9039	1075.8	192.6
911.7429	1767.5968	1076.2	192.25
911.8836	1769.289	1077.95	196.65
912.0243	1770.9804	1075.1	192.75
912.1649	1772.6711	1072.1	191.1
912.3056	1774.361	1071.8	189.2
912.4462	1776.0502	1073.2	191.15
912.5868	1777.7386	1075.7	190.15
912.7274	1779.4263	1076	193.65
912.8679	1781.1132	1069.65	186.25
913.0084	1782.7994	1075.55	191.7
913.149	1784.4849	1071.2	189.75
913.2895	1786.1696	1090.25	189.05
913.4299	1787.8535	1068.15	184.6
913.5704	1789.5367	1068.8	185.1
913.7108	1791.2192	1070.25	185.55
913.8513	1792.9009	1080.05	181.55
913.9917	1794.5818	1069	186.05
914.132	1796.2621	1070.3	188.5
914.2724	1797.9415	1064.4	182.9
914.4128	1799.6202	1066.05	183.15
914.5531	1801.2982	1063.3	179.55
914.6934	1802.9755	1064.2	180.15
914.8337	1804.6519	1063.9	180.9
914.9739	1806.3277	1060.05	177.2
915.1142	1808.0027	1064.5	182.35
915.2544	1809.6769	1059.35	176.35
915.3946	1811.3504	1062.6	178.45
915.5348	1813.0231	1062.9	177.15
915.675	1814.6951	1061.15	179.65
915.8151	1816.3664	1062.25	178.65
915.9553	1818.0369	1063.9	181.85
916.0954	1819.7067	1059.7	177.6
916.2355	1821.3757	1063.9	179
916.3755	1823.044	1057.6	174.05
916.5156	1824.7115	1057.7	173.7
916.6556	1826.3783	1056.25	177.05
916.7956	1828.0443	1057.9	176.9
916.9356	1829.7096	1058.9	175.3
917.0756	1831.3741	1057	170.35
917.2155	1833.0379	1059.1	177.15
917.3555	1834.701	1054.8	169.35
917.4954	1836.3633	1054.65	170.75
917.6353	1838.0248	1053.2	166.8
917.7751	1839.6856	1050.95	167.2
917.915	1841.3457	1050.05	168.95
918.0548	1843.005	1055.75	173.1
918.1946	1844.6636	1051.75	171.2
918.3344	1846.3214	1052.8	170.35
918.4742	1847.9785	1051.15	168.5
918.6139	1849.6349	1049.45	166.15
918.7537	1851.2904	1059.2	164.5
918.8934	1852.9453	1049.35	166.8
919.0331	1854.5994	1046.35	160.3
919.1727	1856.2528	1054.8	166.15
919.3124	1857.9054	1044.7	160.95
919.452	1859.5572	1044.7	163.15
919.5916	1861.2083	1048.3	166.25
919.7312	1862.8587	1043.8	161.65
919.8708	1864.5084	1045	160.55
920.0103	1866.1572	1045	162.05
920.1498	1867.8054	1043.5	161
920.2893	1869.4528	1045.65	161.9
920.4288	1871.0994	1046.75	163.9
920.5683	1872.7453	1046.7	161.6
920.7077	1874.3905	1064.4	162.75
920.8471	1876.0349	1042.75	161
920.9865	1877.6786	1046.25	161.75
921.1259	1879.3215	1042.35	159.75
921.2653	1880.9637	1043.05	158.05
921.4046	1882.6051	1038.3	154.15
921.5439	1884.2458	1047.75	163.25
921.6832	1885.8858	1041.5	157
921.8225	1887.525	1045.05	160
921.9617	1889.1634	1039.4	156.1
922.101	1890.8011	1038.75	155.05
922.2402	1892.4381	1036.3	153.65
922.3794	1894.0743	1036	153.85
922.5185	1895.7098	1035.65	154
922.6577	1897.3446	1038.2	154
922.7968	1898.9786	1042.85	155.8
922.9359	1900.6118	1034.5	153.4
923.075	1902.2443	1035.5	151.8
923.214	1903.8761	1032.5	152
923.3531	1905.5071	1038.6	153.35
923.4921	1907.1374	1034.15	151.4
923.6311	1908.7669	1033.15	149.65
923.77	1910.3957	1035.95	151.4
923.909	1912.0237	1038.65	155.05
924.0479	1913.651	1033.25	148.3
924.1868	1915.2776	1030.9	149.6
924.3257	1916.9034	1030.75	150.45
924.4646	1918.5285	1028.5	146.55
924.6034	1920.1528	1031.2	147.45
924.7422	1921.7764	1030.35	147.6
924.881	1923.3992	1029.8	146.95
925.0198	1925.0213	1031.7	148.75
925.1586	1926.6427	1025.7	145.8
925.2973	1928.2633	1136.85	146.6
925.436	1929.8832	1028.05	143.25
925.5747	1931.5023	1028.5	144.65
925.7134	1933.1207	1030.35	148.8
925.852	1934.7383	1027.3	143.2
925.9906	1936.3552	1028	145.8
926.1292	1937.9714	1027.2	145.15
926.2678	1939.5868	1029.85	145.1
926.4064	1941.2015	1024.1	142
926.5449	1942.8154	1023.05	137.7
926.6834	1944.4286	1022.65	138.3
926.8219	1946.041	1045.15	139.9
926.9604	1947.6528	1024.4	139.15
927.0988	1949.2637	1020.3	138.2
927.2372	1950.8739	1024	139.85
927.3756	1952.4834	1021.6	137.75
927.514	1954.0921	1022.1	138.4
927.6523	1955.7001	1026.65	139.7
927.7907	1957.3074	1022.3	138.7
927.929	1958.9139	1018.95	136.2
928.0673	1960.5197	1022.8	137.45
928.2055	1962.1247	1018.75	137.25
928.3438	1963.729	1019.7	137.7
928.482	1965.3325	1045.5	137.8
928.6202	1966.9353	1021.75	138.4
928.7584	1968.5374	1017.6	134.15
928.8965	1970.1387	1017.25	133.6
929.0346	1971.7393	1018.1	134.1
929.1727	1973.3392	1019.95	139.7
929.3108	1974.9383	1015.8	133.2
929.4489	1976.5366	1017.65	135.5
929.5869	1978.1342	1017.9	132.5
929.7249	1979.7311	1017.7	134.6
929.8629	1981.3273	1019.7	133.25
930.0009	1982.9227	1015.6	130.6
930.1388	1984.5173	1018.5	136.3
930.2767	1986.1112	1013.55	132.3
930.4146	1987.7044	1017.85	136.75
930.5525	1989.2968	1015.45	132.2
930.6904	1990.8885	1017	130
930.8282	1992.4795	1024.05	139
930.966	1994.0697	1019.2	135.4
931.1038	1995.6592	1011.9	126.6
931.2415	1997.2479	1013.7	129.9
931.3793	1998.8359	1014.3	130.7
931.517	2000.4232	1010.95	126.8
931.6547	2002.0097	1014.2	132.85
931.7923	2003.5955	1013.25	129.95
931.93	2005.1805	1017.45	133.1
932.0676	2006.7648	1014.25	130.75
932.2052	2008.3484	1014.9	128.55
932.3427	2009.9312	1013.8	127.1
932.4803	2011.5133	1013.35	131.05
932.6178	2013.0946	1012.5	129.65
932.7553	2014.6752	1009.5	127.35
932.8928	2016.2551	1010.7	126.2
933.0302	2017.8342	1013.6	130.7
933.1676	2019.4126	1008.05	124.75
933.305	2020.9902	1009.95	127.6
933.4424	2022.5672	1011.75	127.05
933.5798	2024.1433	1018.55	126.65
933.7171	2025.7188	1011.4	128.55
933.8544	2027.2935	1007.8	125.45
933.9917	2028.8674	1014.3	132.4
934.129	2030.4406	1010.25	127.6
934.2662	2032.0131	1009.15	125.2
934.4034	2033.5849	1011.35	121.2
934.5406	2035.1559	1011.1	127.85
934.6778	2036.7261	1013.55	130
934.8149	2038.2957	1008.85	126.05
934.952	2039.8645	1009.65	126.35
935.0891	2041.4325	1008.65	123.25
935.2262	2042.9998	1006.75	125.8
935.3632	2044.5664	1010.65	124.7
935.5002	2046.1323	1010.3	127.5
935.6372	2047.6974	1009.9	125.45
935.7742	2049.2617	1007	122.75
935.9111	2050.8254	1029.75	125.15
936.048	2052.3883	1012.15	127.35
936.1849	2053.9504	1006.85	119.5
936.3218	2055.5118	1007.3	122.35
936.4586	2057.0725	1011.95	124.75
936.5955	2058.6325	1006.3	120.7
936.7323	2060.1917	1006.4	122.85
936.869	2061.7502	1006.4	120.3
937.0058	2063.3079	1007.85	125.8
937.1425	2064.8649	1012.95	124.2
937.2792	2066.4212	1009.85	126.55
937.4159	2067.9767	1005.45	122.4
937.5525	2069.5315	1006.9	124.75
937.6891	2071.0856	1004.25	118.95
937.8257	2072.6389	1006	121.55
937.9623	2074.1915	1000.8	118.75
938.0989	2075.7433	1008.4	124.75
938.2354	2077.2945	1006.65	126.5
938.3719	2078.8448	1001.55	115.4
938.5084	2080.3945	1003.7	120.25
938.6448	2081.9434	1003.8	122.4
938.7812	2083.4916	1005.4	120.55
938.9176	2085.039	1004.75	122.4
939.054	2086.5857	1006.65	121.4
939.1903	2088.1317	1000.9	119
939.3267	2089.677	999.8	117.2
939.463	2091.2215	1001.1	119
939.5992	2092.7652	1005.9	121.85
939.7355	2094.3083	1004.55	121.9
939.8717	2095.8506	1003.15	121.1
940.0079	2097.3921	1002.65	119.3
940.1441	2098.933	1003.85	121.15
940.2802	2100.4731	1005.6	123.7
940.4163	2102.0124	1019.5	117.85
940.5524	2103.5511	1006.7	124.5
940.6885	2105.089	1002.8	120.75
940.8245	2106.6261	1005.55	121.45
940.9606	2108.1626	1006.05	122.85
941.0965	2109.6983	1031.25	117
941.2325	2111.2332	1005.15	122.7
941.3684	2112.7675	1001.95	117.95
941.5044	2114.301	1004.95	119.15
941.6403	2115.8337	1005	121.6
941.7761	2117.3657	1001.1	117.75
941.912	2118.897	1006.3	120.5
942.0478	2120.4276	1013.55	124.65
942.1835	2121.9575	1003.8	121.95
942.3193	2123.4866	1017	118.95
942.455	2125.0149	1007.1	122.6
942.5907	2126.5426	1002.7	118.3
942.7264	2128.0695	1007.75	119.25
942.8621	2129.5956	1002.1	117.6
942.9977	2131.1211	1009.6	119.8
943.1333	2132.6458	1000.85	118.15
943.2689	2134.1698	1003.25	121.9
943.4044	2135.693	1006.75	122.25
943.54	2137.2155	1005.45	121.7
943.6755	2138.7373	1004.6	120.4
943.8109	2140.2584	1000.95	116.85
943.9464	2141.7787	1007.75	119.75
944.0818	2143.2983	1002	119.3
944.2172	2144.8171	999	115.6
944.3526	2146.3353	999.8	115.35
944.4879	2147.8527	1000.8	119.65
944.6232	2149.3693	998.5	116.2
944.7585	2150.8853	1002.05	119.95
944.8938	2152.4005	1004.15	122.35
945.029	2153.9149	1003.95	121.25
945.1642	2155.4287	998.25	114.05
945.2994	2156.9417	1001.6	117.7
945.4346	2158.454	1004.35	118.95
945.5697	2159.9655	997	112.7
945.7048	2161.4764	997.1	113.4
945.8399	2162.9865	998.3	115.2
945.9749	2164.4958	999.85	115.35
946.1099	2166.0045	1003.2	118.8
946.2449	2167.5124	998.25	116.6
946.3799	2169.0195	994.6	111.65
946.5148	2170.526	999.8	117.1
946.6498	2172.0317	998.45	114.2
946.7846	2173.5367	1000.25	117.15
946.9195	2175.0409	997	113.9
947.0543	2176.5445	998.45	115.55
947.1891	2178.0473	995.05	114.5
947.3239	2179.5494	1000.45	114.05
947.4587	2181.0507	999.85	118.6
947.5934	2182.5513	994.1	110.8
947.7281	2184.0512	995.6	113.35
947.8628	2185.5504	998.95	115.9
947.9974	2187.0488	998.05	114.85
948.132	2188.5465	994.75	111.6
948.2666	2190.0435	993.25	110.55
948.4012	2191.5397	990.25	108.5
948.5357	2193.0353	995.65	113.4
948.6702	2194.5301	995.5	110.9
948.8047	2196.0241	998.4	118.6
948.9392	2197.5175	992.9	110.45
949.0736	2199.0101	994.1	108.25
949.208	2200.502	990.1	108.8
949.3424	2201.9931	993.05	109.05
949.4767	2203.4835	993.5	107.85
949.611	2204.9733	1000.8	111.5
949.7453	2206.4622	995.35	112.45
949.8796	2207.9505	998.25	111.1
950.0138	2209.438	992.75	110.5
950.148	2210.9248	992.55	107.8
950.2822	2212.4109	988.5	105.25
950.4164	2213.8962	992.35	105.5
950.5505	2215.3809	990.4	105.6
950.6846	2216.8648	990.2	105.9
950.8186	2218.3479	993.35	106.8
950.9527	2219.8304	991.15	106.6
951.0867	2221.3121	989.9	104.2
951.2207	2222.7931	988.2	106.25
951.3546	2224.2733	989.9	104.9
951.4886	2225.7529	986.9	104.5
951.6225	2227.2317	990.85	105
951.7563	2228.7098	987.7	105.15
951.8902	2230.1872	991.55	106.8
952.024	2231.6638	985.95	103.85
952.1578	2233.1397	991.05	104.45
952.2916	2234.6149	990.25	109
952.4253	2236.0894	990.5	105.85
952.559	2237.5632	997.15	104.9
952.6927	2239.0362	985.8	102.2
952.8263	2240.5085	984.1	100.2
952.9599	2241.9801	986.7	104.95
953.0935	2243.4509	984.8	99.85
953.2271	2244.921	986.1	103.6
953.3606	2246.3904	987.15	101.65
953.4941	2247.8591	985.7	101.9
953.6276	2249.3271	983.65	101.75
953.7611	2250.7943	984.4	101.65
953.8945	2252.2608	984.55	100.4
954.0279	2253.7266	982.6	100.15
954.1612	2255.1917	982.35	100.2
954.2946	2256.656	978.25	95.05
954.4279	2258.1197	979.6	97.45
954.5612	2259.5826	981.6	97.25
954.6944	2261.0447	983.25	99
954.8276	2262.5062	982.25	96.1
954.9608	2263.9669	981.7	94.95
955.094	2265.4269	983.4	101.55
955.2271	2266.8862	982.65	97.25
955.3602	2268.3448	983.95	100.95
955.4933	2269.8026	979.25	94.8
955.6264	2271.2598	981.6	99.35
955.7594	2272.7162	978.95	97.1
955.8924	2274.1719	982.6	98.7
956.0253	2275.6268	979.25	98.6
956.1583	2277.0811	978.6	94.2
956.2912	2278.5346	977.4	95.4
956.4241	2279.9874	979.5	96.55
956.5569	2281.4395	980.1	97.05
956.6897	2282.8908	987.1	101.1
956.8225	2284.3414	980.25	93.85
956.9553	2285.7914	975.9	93.1
957.088	2287.2406	979.4	95.65
957.2207	2288.689	981.6	97.95
957.3534	2290.1368	977.65	92.65
957.486	2291.5838	976.8	91.85
957.6186	2293.0302	979.5	95.55
957.7512	2294.4758	977.95	96.55
957.8838	2295.9206	982.55	99.7
958.0163	2297.3648	974.15	91.7
958.1488	2298.8082	976.95	91.35
958.2813	2300.251	976.05	93.1
958.4137	2301.693	979.1	92.2
958.5461	2303.1343	976	92.4
958.6785	2304.5748	971.5	88.15
958.8108	2306.0147	981	97.85
958.9432	2307.4538	978.1	92.95
959.0754	2308.8922	976.2	95.15
959.2077	2310.3299	975.1	93.1
959.3399	2311.7669	973.65	93.15
959.4721	2313.2031	971.1	88.4
959.6043	2314.6387	975.6	92.85
959.7365	2316.0735	973.6	88.9
959.8686	2317.5076	974.3	90.65
960.0006	2318.941	974.5	91.85
960.1327	2320.3737	974.4	90.8
960.2647	2321.8056	974.25	90.4
960.3967	2323.2369	975.85	93.2
960.5287	2324.6674	976.4	91.55
960.6606	2326.0972	978.05	94.55
960.7925	2327.5263	976.65	92.55
960.9244	2328.9547	981.2	97.05
961.0562	2330.3823	975.45	93.1
961.1881	2331.8092	977.7	91.3
961.3198	2333.2355	973.4	89.85
961.4516	2334.661	972.15	88.45
961.5833	2336.0858	971.05	87.35
961.715	2337.5098	969.65	85.95
961.8467	2338.9332	971.9	89.6
961.9783	2340.3558	974.75	87.45
962.1099	2341.7778	970.15	86.25
962.2415	2343.199	969.85	85.2
962.373	2344.6195	967.6	85.95
962.5045	2346.0393	970.7	88.9
962.636	2347.4583	966.7	83.05
962.7675	2348.8767	969.55	85.6
962.8989	2350.2943	969.4	86.45
963.0303	2351.7113	970.05	86.5
963.1617	2353.1275	966.45	83.85
963.293	2354.543	973.5	81
963.4243	2355.9578	968.2	83.65
963.5556	2357.3718	967.45	84.9
963.6868	2358.7852	967.3	81.05
963.818	2360.1978	969.3	85.45
963.9492	2361.6098	966.2	83.25
964.0803	2363.021	972.6	85.45
964.2114	2364.4315	968.85	85.1
964.3425	2365.8413	968.75	83.2
964.4736	2367.2504	961.45	79.65
964.6046	2368.6587	964.4	79.75
964.7356	2370.0664	963.85	81.25
964.8666	2371.4733	969.3	85.95
964.9975	2372.8795	963.45	81.15
965.1284	2374.285	966.2	83.55
965.2593	2375.6899	960.9	79.25
965.3901	2377.0939	960.75	77.95
965.5209	2378.4973	963.45	81.85
965.6517	2379.9	965.25	81.35
965.7825	2381.3019	964.75	82.35
965.9132	2382.7032	962.55	78.55
966.0439	2384.1037	962.8	80.45
966.1745	2385.5035	963.15	79.45
966.3051	2386.9027	957.5	76.1
966.4357	2388.3011	963.9	77.2
966.5663	2389.6987	961.4	77.15
966.6968	2391.0957	960.6	76.6
966.8273	2392.492	958.6	76.25
966.9578	2393.8876	961.15	77.3
967.0882	2395.2824	957.95	74.05
967.2186	2396.6765	958.7	78.9
967.349	2398.07	958.05	75.55
967.4793	2399.4627	959.65	75.4
967.6097	2400.8547	960.1	79.15
967.7399	2402.246	965.1	75.85
967.8702	2403.6366	958.6	76.05
968.0004	2405.0265	958.55	75.6
968.1306	2406.4156	959.95	71.8
968.2607	2407.8041	960.65	74.75
968.3909	2409.1918	958.2	74.5
968.521	2410.5789	956.2	71.8
968.651	2411.9652	959	71.95
968.781	2413.3508	958.05	75.9
968.911	2414.7358	959.55	76.4
969.041	2416.12	961.15	79.1
969.1709	2417.5035	955.95	73.8
969.3008	2418.8863	958	72.65
969.4307	2420.2684	953.75	72.2
969.5606	2421.6497	956.15	71.15
969.6904	2423.0304	953.6	71.7
969.8201	2424.4104	955.25	72.3
969.9499	2425.7896	958.3	69.15
970.0796	2427.1682	952.75	70.7
970.2093	2428.546	957.1	72.35
970.3389	2429.9232	955.1	70.6
970.4685	2431.2996	954.65	72.7
970.5981	2432.6753	955.4	70.7
970.7277	2434.0503	954.3	70.3
970.8572	2435.4246	951.95	70.3
970.9867	2436.7982	958	72.25
971.1161	2438.1711	949.75	67.95
971.2456	2439.5433	955.5	73
971.375	2440.9148	957.95	70.05
971.5043	2442.2856	948.55	66.6
971.6336	2443.6557	954.55	70.05
971.7629	2445.025	949.9	64.85
971.8922	2446.3937	952.05	69.05
972.0214	2447.7617	954.7	70.9
972.1506	2449.1289	952.65	70.55
972.2798	2450.4955	953.8	67.05
972.4089	2451.8613	950.2	68.35
972.538	2453.2265	948.55	66.4
972.6671	2454.5909	951.85	68.15
972.7961	2455.9546	948.4	64.5
972.9251	2457.3177	949.4	67.25
973.0541	2458.68	951.05	65.05
973.1831	2460.0416	949.5	66
973.312	2461.4025	951.15	64.95
973.4408	2462.7627	963.15	69.2
973.5697	2464.1222	949.1	66.1
973.6985	2465.4811	949.75	64.55
973.8273	2466.8392	951.9	67.85
973.956	2468.1966	952	68.2
974.0847	2469.5533	954.15	68.95
974.2134	2470.9093	947.35	62.5
974.3421	2472.2645	948.15	64.5
974.4707	2473.6191	947.95	64.75
974.5993	2474.973	949.65	66.95
974.7278	2476.3262	953.05	67.25
974.8563	2477.6787	947.45	65.75
974.9848	2479.0305	949.1	64.95
975.1132	2480.3816	949.4	64.4
975.2417	2481.7319	950.7	67.6
975.37	2483.0816	949.6	63.35
975.4984	2484.4306	950.05	64.65
975.6267	2485.7789	948.6	67.3
975.755	2487.1264	949.15	64.85
975.8833	2488.4733	945.9	62.25
976.0115	2489.8195	964.55	64.75
976.1397	2491.165	947.7	59.85
976.2678	2492.5097	946.05	61.35
976.3959	2493.8538	942.8	57.95
976.524	2495.1972	947.7	63.45
976.6521	2496.5398	945.3	60.95
976.7801	2497.8818	947.25	60.9
976.9081	2499.2231	943.75	59.85
977.036	2500.5637	951.1	64.25
977.164	2501.9035	945.6	61.8
977.2918	2503.2427	946.9	59.95
977.4197	2504.5812	942.95	61.4
977.5475	2505.919	945.4	60.2
977.6753	2507.256	943.6	61.65
977.8031	2508.5924	941.85	58.95
977.9308	2509.9281	947.85	60.1
978.0585	2511.2631	944.35	60.8
978.1861	2512.5974	943.6	59.95
978.3137	2513.9309	943	61.75
978.4413	2515.2638	971.8	58.35
978.5689	2516.596	944.35	60.35
978.6964	2517.9275	942.7	59.6
978.8239	2519.2583	941.1	58.35
978.9513	2520.5884	943.55	60.4
979.0788	2521.9178	940.15	57.35
979.2062	2523.2465	939.95	56.6
979.3335	2524.5745	939.7	58.25
979.4608	2525.9018	941.3	55.75
979.5881	2527.2284	938.5	55.65
979.7154	2528.5543	940.3	58.3
979.8426	2529.8796	942.75	59.9
979.9698	2531.2041	941.25	59.65
980.0969	2532.5279	938.2	56.35
980.224	2533.851	942	58.25
980.3511	2535.1735	938.3	55.3
980.4781	2536.4952	940.3	57.75
980.6052	2537.8163	941.1	57.95
980.7321	2539.1366	943.9	61.4
980.8591	2540.4562	939.5	54.6
980.986	2541.7752	938.8	55.4
981.1129	2543.0935	940.2	56.85
981.2397	2544.411	940.6	55.65
981.3665	2545.7279	938.8	53.75
981.4933	2547.0441	939.5	57.6
981.62	2548.3596	942.25	57.25
981.7467	2549.6744	938.55	55.2
981.8734	2550.9885	941	56.5
982.0001	2552.3019	939.15	57.45
982.1267	2553.6146	937.55	55.3
982.2532	2554.9266	933.6	49.95
982.3798	2556.2379	937	50.55
982.5063	2557.5485	937.65	54.7
982.6327	2558.8585	943.35	52.55
982.7592	2560.1677	940.65	53.3
982.8856	2561.4762	938.4	55.15
983.0119	2562.7841	940.8	54.9
983.1383	2564.0913	936.15	54.8
983.2646	2565.3977	934.05	50.8
983.3908	2566.7035	934.35	51.95
983.517	2568.0086	938.1	54.2
983.6432	2569.313	937.1	53.8
983.7694	2570.6167	941.25	54.8
983.8955	2571.9197	934.55	53.45
984.0216	2573.222	937.85	51.25
984.1476	2574.5236	936.45	52.1
984.2737	2575.8246	938.6	54.5
984.3996	2577.1248	938.2	52.75
984.5256	2578.4244	934.3	49.85
984.6515	2579.7232	934.95	51.75
984.7774	2581.0214	967.6	53
984.9032	2582.3189	931.15	48.05
985.029	2583.6157	941.25	52.1
985.1548	2584.9118	935.2	52.5
985.2806	2586.2072	934.45	54.4
985.4063	2587.5019	935.1	50.5
985.5319	2588.7959	936.25	53.6
985.6576	2590.0893	936	52.7
985.7832	2591.3819	933.7	52.85
985.9087	2592.6739	936.25	54.25
986.0343	2593.9652	938.15	53
986.1597	2595.2557	932.2	49
986.2852	2596.5456	935.15	49.6
986.4106	2597.8348	933.7	50.35
986.536	2599.1234	932.1	49.35
986.6614	2600.4112	935.15	52.25
986.7867	2601.6983	935.35	48.9
986.912	2602.9848	932.7	50.7
987.0372	2604.2705	939.8	50.9
987.1624	2605.5556	932.95	50.45
987.2876	2606.84	931.7	51.2
987.4128	2608.1237	935	50.1
987.5379	2609.4067	933.3	48.65
987.6629	2610.689	939.6	46.5
987.788	2611.9707	934.5	48.85
987.913	2613.2516	938.1	51.5
988.0379	2614.5319	928.95	45.95
988.1629	2615.8115	931.6	47.2
988.2878	2617.0903	931.7	49.3
988.4126	2618.3685	934.75	51.35
988.5375	2619.6461	929.75	47.25
988.6622	2620.9229	930.45	48.3
988.787	2622.199	928.55	42.3
988.9117	2623.4745	930.8	47.5
989.0364	2624.7493	931.85	47.9
989.161	2626.0234	927.4	43.05
989.2857	2627.2968	929.45	45.45
989.4102	2628.5695	931.25	46.1
989.5348	2629.8415	931.25	46.85
989.6593	2631.1128	929.45	45.25
989.7837	2632.3835	925.5	43.1
989.9082	2633.6535	928.8	46.65
990.0326	2634.9228	927.75	45.05
990.1569	2636.1914	926.8	44.8
990.2812	2637.4593	933.55	45.75
990.4055	2638.7265	930.65	47.1
990.5298	2639.9931	930.75	47.3
990.654	2641.259	930.4	46.4
990.7782	2642.5242	926.55	42.15
990.9023	2643.7887	928.7	45.8
991.0264	2645.0525	926	43.5
991.1505	2646.3156	931.4	47.6
991.2745	2647.5781	927.85	43.45
991.3985	2648.8398	926.75	44.95
991.5225	2650.1009	967.1	47.05
991.6464	2651.3613	928.1	44.6
991.7703	2652.6211	929.9	47.2
991.8942	2653.8801	925.85	46.6
992.018	2655.1385	926.65	42.5
992.1418	2656.3961	925.45	43.25
992.2655	2657.6531	922.35	38.5
992.3892	2658.9094	925.55	42.75
992.5129	2660.1651	924.6	40.75
992.6366	2661.42	923.55	38.5
992.7602	2662.6743	927.1	42.6
992.8837	2663.9279	924.8	43.25
993.0073	2665.1808	927.5	44.9
993.1307	2666.433	928.2	44.9
993.2542	2667.6846	924.35	41.25
993.3776	2668.9354	928	42.1
993.501	2670.1856	926.5	44.25
993.6244	2671.4351	924.2	40.7
993.7477	2672.6839	926	39.3
993.8709	2673.9321	924	40.6
993.9942	2675.1795	926.95	41.85
994.1174	2676.4263	927.4	44.3
994.2405	2677.6724	923.8	42.65
994.3637	2678.9179	924.25	41.9
994.4868	2680.1626	924.75	41.25
994.6098	2681.4067	926.8	45.05
994.7328	2682.6501	922.65	40.6
994.8558	2683.8928	924.85	39
994.9788	2685.1348	925.25	43.8
995.1017	2686.3761	923.4	40.55
995.2245	2687.6168	923.85	40.05
995.3474	2688.8568	922.95	39.05
995.4702	2690.0961	922.2	41.25
995.5929	2691.3348	922.4	40.6
995.7156	2692.5727	921.2	37.85
995.8383	2693.81	921.05	37.9
995.961	2695.0466	918.6	36.3
996.0836	2696.2826	923.4	37.75
996.2062	2697.5178	925.7	40.2
996.3287	2698.7524	921.5	39.05
996.4512	2699.9863	924.5	37.8
996.5737	2701.2195	921.35	36.95
996.6961	2702.452	924.35	40.4
996.8185	2703.6839	924.05	38.05
996.9408	2704.9151	920.15	37.15
997.0631	2706.1456	923.35	39.75
997.1854	2707.3755	922.4	40.05
997.3077	2708.6046	925.7	40.45
997.4299	2709.8331	924.6	41.5
997.552	2711.0609	922.7	38.1
997.6742	2712.2881	924.05	40.7
997.7963	2713.5145	924.7	37.5
997.9183	2714.7403	920.85	38.85
998.0403	2715.9654	923.4	40.45
998.1623	2717.1899	939.15	41.25
998.2842	2718.4136	927.1	44.9
998.4062	2719.6367	925.75	42.65
998.528	2720.8591	933.65	46.3
998.6498	2722.0809	925	42.65
998.7716	2723.3019	929.5	44.65
998.8934	2724.5223	926.25	42.95
999.0151	2725.7421	927.75	41.3
999.1368	2726.9611	929.4	43.5
999.2584	2728.1795	933.7	43.6
999.38	2729.3972	923.55	41.6
999.5016	2730.6142	936.9	39.4
999.6231	2731.8306	925.65	42.15
999.7446	2733.0462	926.6	41.6
999.8661	2734.2612	926.3	39.4
999.9875	2735.4756	919.95	37.35
1000.1089	2736.6892	919.85	35.9
1000.2302	2737.9022	919.55	38.35
1000.3515	2739.1145	921.3	39
1000.4728	2740.3262	928.2	38.8
1000.594	2741.5372	921.35	40.75
1000.7152	2742.7475	921.2	37.55
1000.8363	2743.9571	918.75	34.2
1000.9575	2745.1661	921.9	34.4
1001.0785	2746.3744	918.7	33.55
1001.1996	2747.582	918.35	35.25
1001.3206	2748.7889	916.8	32.35
1001.4415	2749.9952	913	29.8
1001.5625	2751.2008	916.95	31.65
1001.6833	2752.4057	921.4	36.9
1001.8042	2753.61	918.3	33.95
1001.925	2754.8136	919.5	34.4
1002.0458	2756.0165	916.5	34.7
1002.1665	2757.2188	914.75	30.4
1002.2872	2758.4204	913.1	32.4
1002.4078	2759.6213	917.4	30.1
1002.5285	2760.8215	921.45	31.15
1002.649	2762.0211	916.4	30.2
1002.7696	2763.22	918.75	34.85
1002.8901	2764.4182	917.7	34.25
1003.0106	2765.6158	915.55	32.5
1003.131	2766.8127	915.7	33.1
1003.2514	2768.009	915.75	31.6
1003.3717	2769.2045	912.75	29.35
1003.492	2770.3994	915.7	31.35
1003.6123	2771.5936	914.45	31.55
1003.7325	2772.7872	913	31.15
1003.8527	2773.9801	915.6	30.15
1003.9729	2775.1723	933.05	32.95
1004.093	2776.3639	912.55	31.1
1004.2131	2777.5548	914	27.8
1004.3331	2778.745	914.95	31.2
1004.4531	2779.9346	913.85	29.1
1004.5731	2781.1235	914.25	28.65
1004.693	2782.3117	911.5	30.65
1004.8129	2783.4992	912.55	29.05
1004.9328	2784.6861	914.85	30.65
1005.0526	2785.8723	916.7	32.9
1005.1723	2787.0579	913.9	28.15
1005.2921	2788.2428	912.95	29.7
1005.4118	2789.427	913.4	30.8
1005.5314	2790.6106	913.45	29.95
1005.651	2791.7935	913.5	29.75
1005.7706	2792.9757	911.05	28.2
1005.8902	2794.1573	912.25	27.1
1006.0097	2795.3382	912.7	30.1
1006.1291	2796.5184	913.1	30.9
1006.2485	2797.698	916.85	31.3
1006.3679	2798.8769	912.4	28.8
1006.4873	2800.0551	912.3	29.7
1006.6066	2801.2327	915.25	29.45
1006.7258	2802.4096	912.65	30.5
1006.8451	2803.5859	916.5	32.85
1006.9642	2804.7615	913.75	29.75
1007.0834	2805.9364	913.25	31.1
1007.2025	2807.1106	912.85	29.75
1007.3216	2808.2842	915.75	32.6
1007.4406	2809.4572	917.7	34.55
1007.5596	2810.6294	919.2	36.45
1007.6785	2811.801	913.65	32.6
1007.7975	2812.972	918.95	36.9
1007.9163	2814.1423	918.4	36.55
1008.0352	2815.3119	918.25	33.6
1008.154	2816.4808	919.5	36.95
1008.2727	2817.6491	923.5	38.6
1008.3914	2818.8167	924.4	41.5
1008.5101	2819.9837	934.35	45.7
1008.6288	2821.15	928.7	44.7
1008.7474	2822.3157	930.95	49.7
1008.8659	2823.4807	937.1	54.65
1008.9844	2824.645	941.35	57.35
1009.1029	2825.8086	940.85	57.25
1009.2214	2826.9716	946.95	63.8
1009.3398	2828.134	949.55	65.7
1009.4581	2829.2957	956.55	73.2
1009.5764	2830.4567	957.7	76.45
1009.6947	2831.617	959	73.1
1009.813	2832.7767	960.3	80.65
1009.9312	2833.9358	960.5	75.2
1010.0493	2835.0941	964.85	82.2
1010.1675	2836.2519	961.05	76.55
1010.2855	2837.4089	961.6	77.4
1010.4036	2838.5653	954.65	71.55
1010.5216	2839.7211	951.7	71.65
1010.6396	2840.8761	954.05	68.65
1010.7575	2842.0306	949.3	70.4
1010.8754	2843.1843	951.15	70.05
1010.9932	2844.3374	949.25	66.3
1011.111	2845.4899	950.9	67.05
1011.2288	2846.6417	951.95	68.85
1011.3465	2847.7928	950.9	69.3
1011.4642	2848.9433	952.7	69.8
1011.5818	2850.0931	956.8	74.95
1011.6995	2851.2422	957.8	73.55
1011.817	2852.3907	955.3	72.2
1011.9345	2853.5385	958.45	75.75
1012.052	2854.6857	981.85	72.95
1012.1695	2855.8323	958.8	77.85
1012.2869	2856.9781	958.25	73.7
1012.4042	2858.1233	962.75	79.4
1012.5216	2859.2679	961.05	77.5
1012.6389	2860.4118	965.45	81.75
1012.7561	2861.555	970.5	83.1
1012.8733	2862.6976	970.65	85.9
1012.9905	2863.8395	968.95	86.75
1013.1076	2864.9808	970.35	88.15
1013.2247	2866.1214	968.85	86.4
1013.3417	2867.2614	973.35	89.85
1013.4587	2868.4007	972.1	87.5
1013.5757	2869.5393	973.4	87.15
1013.6926	2870.6773	977.75	92.35
1013.8095	2871.8146	979.6	93.7
1013.9263	2872.9513	978.2	92.3
1014.0431	2874.0874	977	95.8
1014.1599	2875.2227	977.1	92.9
1014.2766	2876.3574	978.35	96.35
1014.3933	2877.4915	977.4	93.3
1014.51	2878.6249	981	98.45
1014.6266	2879.7577	980.55	97.2
1014.7431	2880.8898	994.65	100.25
1014.8596	2882.0212	982.55	100.65
1014.9761	2883.152	984.95	100.35
1015.0925	2884.2821	985.2	102
1015.2089	2885.4116	983	99.9
1015.3253	2886.5405	986.15	102.45
1015.4416	2887.6686	992.05	105.15
1015.5579	2888.7962	988.45	108.3
1015.6741	2889.923	985.9	102.95
1015.7903	2891.0493	991.15	109.4
1015.9065	2892.1748	987.85	105
1016.0226	2893.2997	987.75	106.75
1016.1387	2894.424	984.85	101.85
1016.2547	2895.5476	988.45	106.55
1016.3707	2896.6706	981.55	99.7
1016.4866	2897.7929	990.55	107.95
1016.6025	2898.9145	986.95	103.85
1016.7184	2900.0355	990.1	106.35
1016.8342	2901.1559	990.15	106.55
1016.95	2902.2756	991.95	104.8
1017.0658	2903.3946	984.9	102.85
1017.1815	2904.513	992.7	105.7
1017.2971	2905.6308	989.45	108.15
1017.4127	2906.7479	986.65	100.95
1017.5283	2907.8643	986.8	104.15
1017.6439	2908.9801	983	100
1017.7594	2910.0953	985.2	103.15
1017.8748	2911.2098	991.1	103.3
1017.9902	2912.3236	995.15	103.6
1018.1056	2913.4368	990.6	104.9
1018.2209	2914.5494	986.8	102.65
1018.3362	2915.6613	990.35	102.15
1018.4515	2916.7725	984.95	99.3
1018.5667	2917.8831	983.45	99
1018.6819	2918.9931	981.8	97.7
1018.797	2920.1024	978.35	94.4
1018.9121	2921.211	977.6	94.25
1019.0271	2922.319	973.55	89.1
1019.1421	2923.4264	973.35	91.25
1019.2571	2924.5331	974.6	93.15
1019.372	2925.6391	973	88.95
1019.4869	2926.7445	970.6	87.85
1019.6017	2927.8493	973.95	92.3
1019.7165	2928.9534	972.05	87.65
1019.8313	2930.0569	976.9	91.45
1019.946	2931.1597	978.9	94.9
1020.0606	2932.2619	972.6	90.65
1020.1753	2933.3634	979.95	97.2
1020.2899	2934.4643	985.25	94.9
1020.4044	2935.5645	985.9	96.55
1020.5189	2936.6641	984.45	97.2
1020.6334	2937.763	979.2	98.25
1020.7478	2938.8613	980.05	97.75
1020.8622	2939.959	984.5	94.8
1020.9765	2941.056	976.9	96.55
1021.0908	2942.1523	972.55	88.05
1021.2051	2943.248	971.2	87.45
1021.3193	2944.3431	968.85	86.25
1021.4334	2945.4375	962.4	79.2
1021.5476	2946.5313	954.15	73
1021.6617	2947.6244	954.35	71.25
1021.7757	2948.7169	948.65	64.45
1021.8897	2949.8087	946.1	63.7
1022.0037	2950.8999	946.5	62.1
1022.1176	2951.9904	939.65	56.3
1022.2315	2953.0803	940.15	54.65
1022.3453	2954.1696	937.15	53.75
1022.4591	2955.2582	930.9	48.9
1022.5728	2956.3462	933.4	49.45
1022.6865	2957.4335	935.7	52
1022.8002	2958.5202	936.95	51.05
1022.9138	2959.6062	932	49.05
1023.0274	2960.6916	929.5	47.95
1023.141	2961.7764	933.8	50.1
1023.2545	2962.8605	932.7	48.7
1023.3679	2963.9439	930.45	48.2
1023.4813	2965.0267	932.8	48.65
1023.5947	2966.1089	955.75	48.55
1023.708	2967.1905	928.75	45.35
1023.8213	2968.2714	928.4	46.75
1023.9346	2969.3516	931.95	47.4
1024.0478	2970.4312	933.8	43.7
1024.1609	2971.5102	931.95	47.75
1024.274	2972.5885	929.4	46.4
1024.3871	2973.6662	933.5	46.2
1024.5002	2974.7432	930.3	48.25
1024.6132	2975.8196	930.45	48.2
1024.7261	2976.8954	930.7	48.5
1024.839	2977.9705	930.7	46.15
1024.9519	2979.045	929.15	48.45
1025.0647	2980.1188	927.95	44.45
1025.1775	2981.192	929.25	49
1025.2902	2982.2645	930.4	46.25
1025.4029	2983.3364	929.2	45.8
1025.5156	2984.4077	926.5	43.6
1025.6282	2985.4783	931.9	43.75
1025.7407	2986.5483	922.85	40.15
1025.8532	2987.6177	921.3	37.2
1025.9657	2988.6864	925.3	40.1
1026.0782	2989.7545	921.05	37.45
1026.1906	2990.8219	919.7	34.85
1026.3029	2991.8887	918	32.35
1026.4152	2992.9548	917.3	34.15
1026.5275	2994.0204	913.95	31.45
1026.6397	2995.0852	910.75	28.7
1026.7519	2996.1495	914.05	31.7
1026.864	2997.2131	912.05	30.2
1026.9761	2998.276	911.65	29.9
1027.0882	2999.3383	910.2	24.55
1027.2002	3000.4	907.3	23.2
1027.3122	3001.4611	906.35	23.15
1027.4241	3002.5215	905.85	22.4
1027.536	3003.5812	904	22.25
1027.6478	3004.6404	904.1	20.15
1027.7596	3005.6989	908.35	21.45
1027.8714	3006.7567	904.2	21.35
1027.9831	3007.8139	929.8	21.35
1028.0947	3008.8705	901.7	20.5
1028.2064	3009.9264	920.85	21.3
1028.3179	3010.9818	903.5	21.35
1028.4295	3012.0364	903.3	19.75
1028.541	3013.0905	901.15	18.1
1028.6524	3014.1439	901.6	16.55
1028.7638	3015.1966	901.1	18.05
1028.8752	3016.2487	900.75	16.3
1028.9865	3017.3002	906.55	17.65
1029.0978	3018.3511	901.15	17.85
1029.209	3019.4013	901.05	18.1
1029.3202	3020.4509	900.3	19.85
1029.4314	3021.4998	899.6	16.2
1029.5425	3022.5481	899.1	16.05
1029.6535	3023.5958	899.65	17.4
1029.7645	3024.6428	902.7	20.2
1029.8755	3025.6892	898.4	15.9
1029.9864	3026.735	900.25	18.1
1030.0973	3027.7802	900.6	17.85
1030.2082	3028.8247	899.75	13.95
1030.319	3029.8685	899.95	15.2
1030.4297	3030.9118	900	16.6
1030.5404	3031.9544	899.1	15.95
1030.6511	3032.9963	899	16.7
1030.7617	3034.0376	900.4	17
1030.8723	3035.0783	902.9	17.45
1030.9829	3036.1184	902.3	16.4
1031.0934	3037.1578	898.05	15.75
1031.2038	3038.1966	899.25	15.7
1031.3142	3039.2348	899	17.75
1031.4246	3040.2723	908.25	15.1
1031.5349	3041.3092	898.35	17.3
1031.6452	3042.3455	900.15	16.1
1031.7554	3043.3811	897.85	14.9
1031.8656	3044.4161	900.95	16.4
1031.9758	3045.4505	897.5	14.25
1032.0859	3046.4842	900.8	18.25
1032.1959	3047.5173	897.5	14.95
1032.3059	3048.5498	899.85	16
1032.4159	3049.5816	900.8	18.3
1032.5258	3050.6128	900.75	18.3
1032.6357	3051.6434	900.45	15.75
1032.7455	3052.6734	900.4	15.6
1032.8553	3053.7027	898.85	15.4
1032.9651	3054.7314	898.45	16.05
1033.0748	3055.7594	899.5	16.4
1033.1845	3056.7868	900.2	15.45
1033.2941	3057.8136	899.35	17.25
1033.4037	3058.8398	897.95	16.15
1033.5132	3059.8653	899.45	16.3
1033.6227	3060.8902	900.4	16.8
1033.7321	3061.9145	900.4	18.05
1033.8415	3062.9381	900.15	15.9
1033.9509	3063.9612	919.1	20.15
1034.0602	3064.9835	902.1	17.8
1034.1694	3066.0053	902	15.95
1034.2787	3067.0264	898.75	15.6
1034.3878	3068.0469	900.2	16.4
1034.497	3069.0668	904.9	20.95
1034.6061	3070.086	900.85	18.6
1034.7151	3071.1046	902.05	17.2
1034.8241	3072.1226	900.95	17.2
1034.9331	3073.1399	901	17.3
1035.042	3074.1567	900.8	17.45
1035.1508	3075.1727	902.45	17.65
1035.2597	3076.1882	899.25	15.25
1035.3684	3077.203	898.95	16.35
1035.4772	3078.2173	900.15	16.1
1035.5859	3079.2308	902.8	18.15
1035.6945	3080.2438	901.6	18
1035.8031	3081.2561	897.7	15.3
1035.9117	3082.2678	897.9	15.75
1036.0202	3083.2789	897	12.35
1036.1286	3084.2893	897.2	12.75
1036.2371	3085.2991	896.35	12.5
1036.3454	3086.3083	902	15.15
1036.4538	3087.3169	898.6	15.1
1036.562	3088.3248	897.9	12.95
1036.6703	3089.3321	898.95	14.6
1036.7785	3090.3388	894.2	12.3
1036.8866	3091.3449	894	8.85
1036.9948	3092.3503	896	10.7
1037.1028	3093.3551	895.35	12.1
1037.2108	3094.3593	894.05	10.8
1037.3188	3095.3629	897.2	14.8
1037.4267	3096.3658	897.3	13.15
1037.5346	3097.3681	897.65	14.25
1037.6425	3098.3698	897	12.75
1037.7503	3099.3708	902.65	12.2
1037.858	3100.3713	892.6	10.3
1037.9657	3101.3711	894.6	11.45
1038.0734	3102.3702	1035.5	13.95
1038.181	3103.3688	896.3	12.5
1038.2886	3104.3667	893.55	11
1038.3961	3105.364	892.9	10.25
1038.5036	3106.3607	893.2	8.05
1038.611	3107.3568	896.2	10.8
1038.7184	3108.3522	892	9.65
1038.8257	3109.347	892.9	8.2
1038.933	3110.3412	898.15	10
1039.0403	3111.3348	894.7	12.35
1039.1475	3112.3277	894.65	12.75
1039.2547	3113.32	892.75	10.2
1039.3618	3114.3117	893.5	10.3
1039.4689	3115.3028	893.8	10.85
1039.5759	3116.2932	894.9	9.45
1039.6829	3117.2831	899.75	12.25
1039.7898	3118.2723	892.6	10.25
1039.8967	3119.2608	891.55	7
1040.0035	3120.2488	893.05	11.35
1040.1103	3121.2361	891.4	7.1
1040.2171	3122.2229	893.35	11.9
1040.3238	3123.209	893.5	8.9
1040.4305	3124.1944	890.85	7.95
1040.5371	3125.1793	893.4	7.75
1040.6437	3126.1635	891.55	9.7
1040.7502	3127.1471	891.15	10.5
1040.8567	3128.1301	892.2	9.15
1040.9631	3129.1125	892.7	9.15
1041.0695	3130.0942	891.3	10.55
1041.1759	3131.0753	898.4	5.85
1041.2822	3132.0558	895.1	8.7
1041.3884	3133.0357	891.05	7.05
1041.4946	3134.015	893.2	8.85
1041.6008	3134.9936	891.95	6.9
1041.7069	3135.9716	910.3	6.65
1041.813	3136.949	893.3	12.15
1041.919	3137.9258	908.65	8.3
1042.025	3138.902	897.05	9.85
1042.1309	3139.8775	891.15	7.25
1042.2368	3140.8524	890.8	7
1042.3427	3141.8267	890.75	6.35
1042.4485	3142.8004	889.35	5.4
1042.5542	3143.7735	896.2	9.45
1042.6599	3144.7459	892.8	7.45
1042.7656	3145.7178	893	10.3
1042.8712	3146.689	891.3	8.75
1042.9768	3147.6596	891.8	9.3
1043.0823	3148.6295	890.25	6.95
1043.1878	3149.5989	890.6	7.95
1043.2932	3150.5676	890.7	12.35
1043.3986	3151.5357	887.25	5.85
1043.5039	3152.5032	889.6	6.95
1043.6092	3153.4701	889.85	7.95
1043.7145	3154.4364	891.65	6.45
1043.8197	3155.402	888.15	7.15
1043.9248	3156.367	890.5	5.95
1044.03	3157.3315	908.65	7
1044.135	3158.2952	891.45	8.8
1044.24	3159.2584	889.9	4.8
1044.345	3160.221	892.55	9.6
1044.4499	3161.1829	889.5	5.4
1044.5548	3162.1442	889.3	6.15
1044.6596	3163.105	888.8	5.2
1044.7644	3164.065	891.65	9.45
1044.8692	3165.0245	891.65	5.85
1044.9739	3165.9834	888.1	7.9
1045.0785	3166.9416	889.65	5.55
1045.1831	3167.8993	891.35	8.2
1045.2877	3168.8563	890.3	5.6
1045.3922	3169.8127	888.7	5.9
1045.4966	3170.7684	889.45	5.1
1045.6011	3171.7236	892.15	8.5
1045.7054	3172.6782	889.95	7.3
1045.8098	3173.6321	892.2	8.65
1045.914	3174.5854	893.85	5.7
1046.0183	3175.5381	889.35	5.4
1046.1224	3176.4902	888.1	3.5
1046.2266	3177.4417	889.35	7.45
1046.3307	3178.3926	888.3	4.15
1046.4347	3179.3428	890.6	8.55
1046.5387	3180.2924	888.95	4.65
1046.6427	3181.2415	889.6	8.35
1046.7466	3182.1899	891.2	5.9
1046.8504	3183.1377	889	6.1
1046.9542	3184.0848	892.4	6.15
1047.058	3185.0314	889.95	6.6
1047.1617	3185.9773	889.05	5.95
1047.2654	3186.9227	889.9	5.9
1047.369	3187.8674	889.7	5.45
1047.4726	3188.8115	892.05	3.75
1047.5761	3189.755	889.1	6.65
1047.6796	3190.6979	889.45	4
1047.783	3191.6402	886.75	5.75
1047.8864	3192.5818	889.9	5.8
1047.9898	3193.5229	895.65	7.15
1048.0931	3194.4633	888.6	6.15
1048.1963	3195.4031	888.8	5.35
1048.2995	3196.3423	887.5	6.2
1048.4027	3197.2809	887.3	2.3
1048.5058	3198.2189	889.35	4.25
1048.6089	3199.1563	905.1	4
1048.7119	3200.0931	889.95	5.85
1048.8148	3201.0292	886.5	5.05
1048.9178	3201.9648	889	5.1
1049.0206	3202.8997	891.15	6.4
1049.1235	3203.834	887.7	5.6
1049.2262	3204.7677	888.35	5.9
1049.329	3205.7008	890.25	4.1
1049.4317	3206.6333	886.65	2.75
1049.5343	3207.5652	892.75	6.95
1049.6369	3208.4964	888.25	4.45
1049.7394	3209.4271	887.85	5.45
1049.8419	3210.3571	888	5
1049.9444	3211.2865	889.05	6.1
1050.0468	3212.2154	888.85	6.25
1050.1491	3213.1436	891.25	4.05
1050.2514	3214.0712	896.25	8.5
1050.3537	3214.9982	888.55	3.85
1050.4559	3215.9246	887.1	3.5
1050.5581	3216.8503	886.15	3
1050.6602	3217.7755	887.35	2.55
1050.7623	3218.7001	887.35	2.4
1050.8643	3219.624	890	5.25
1050.9663	3220.5473	888	5.45
1051.0682	3221.4701	887.85	3.4
1051.1701	3222.3922	890.85	6.9
1051.2719	3223.3137	888.5	5.15
1051.3737	3224.2346	889	4.7
1051.4754	3225.1549	887.8	5.75
1051.5771	3226.0746	886.55	3.4
1051.6788	3226.9937	887.25	4.95
1051.7804	3227.9121	886.95	4.45
1051.8819	3228.83	887.25	3.3
1051.9834	3229.7473	888.65	5.25
1052.0849	3230.6639	887.2	3.7
1052.1863	3231.5799	890	8.55
1052.2876	3232.4954	888.8	4.2
1052.3889	3233.4102	887.3	4.3
1052.4902	3234.3244	887.6	3.3
1052.5914	3235.238	886.05	3.55
1052.6926	3236.151	911.75	1.7
1052.7937	3237.0634	885.4	1.65
1052.8948	3237.9752	888.8	8.05
1052.9958	3238.8864	888.45	4.45
1053.0968	3239.797	887.4	3.95
1053.1977	3240.7069	888.35	3.05
1053.2986	3241.6163	889.1	4.9
1053.3994	3242.5251	888.75	6.7
1053.5002	3243.4332	886.9	5.25
1053.6009	3244.3408	888.6	4
1053.7016	3245.2477	887.9	5.1
1053.8022	3246.154	889.65	6.65
1053.9028	3247.0598	887.7	2.45
1054.0034	3247.9649	888.15	2.55
1054.1039	3248.8694	887.95	3
1054.2043	3249.7733	887.3	3.55
1054.3047	3250.6766	888.35	5.8
1054.4051	3251.5793	888.4	3.85
1054.5054	3252.4814	886.95	4.9
1054.6056	3253.3829	887	5.75
1054.7058	3254.2838	886.8	4.5
1054.806	3255.1841	885.65	4.6
1054.9061	3256.0838	887.1	3.95
1055.0061	3256.9829	885.9	3.5
1055.1062	3257.8814	890.8	5.4
1055.2061	3258.7792	888.75	3.85
1055.306	3259.6765	888.55	5.65
1055.4059	3260.5731	886.45	4.25
1055.5057	3261.4692	888.25	2.15
1055.6055	3262.3647	887.8	2.2
1055.7052	3263.2595	885.15	2.6
1055.8049	3264.1538	886.8	2.55
1055.9045	3265.0474	888.5	4.1
1056.0041	3265.9404	885.15	2.25
1056.1036	3266.8329	886.3	4.35
1056.2031	3267.7247	895.85	3.3
1056.3025	3268.616	886.6	4.45
1056.4019	3269.5066	886.7	3.4
1056.5013	3270.3966	887.15	2
1056.6005	3271.286	885.45	2.55
