Software Version:	3.9.2.0
Unit SN:	10000200
Spectrometer SN:	6960
Date:	3/14/2024 2:25:55 PM
Data Line Index:	25
Spectral Points:	2048
Integration time (ms):	125
Averages:	20
Delay (ms):	30000
Sequence Number:	1
Processing:	dark subtract
Laser Power (mW):	300
Laser Current (mA):	825
Laser Diode Temp (C):	25
Laser Case Temp (C):	29.2
System Temp (C):	29.2
Spectrometer Temp (C):	26.9
CCD Temp (C):	0.004
Secondary Temp (C):	20.011
Heatsink Temp (C):	25.167
CCDPCB Temp (C):	38.174
SecondaryPCB Temp (C):	36.162

Wavelength	RamanShift	Raw Counts	Dark Subtracted
787.061	30.1047	455.45	45.55
787.2016	32.3739	458.6	51.15
787.3422	34.6426	462.15	52.85
787.4828	36.9109	467.45	58.4
787.6235	39.1787	474.6	60.15
787.7642	41.4461	484.2	67.2
787.9049	43.7131	495.85	73.35
788.0456	45.9796	502.8	77.6
788.1863	48.2456	513	82.8
788.3271	50.5112	522.6	87
788.4679	52.7764	526.2	88.5
788.6087	55.0411	538.2	97.55
788.7496	57.3054	549.15	101.25
788.8904	59.5692	560.95	111.5
789.0313	61.8326	576.2	123.55
789.1722	64.0955	584.35	126.3
789.3132	66.3579	604.25	142.55
789.4541	68.6199	618	153.05
789.5951	70.8815	647.75	180.75
789.7361	73.1426	723.15	251.95
789.8771	75.4032	911.4	433.75
790.0181	77.6634	1365.3	882.9
790.1592	79.9231	2455	1966.7
790.3003	82.1824	4839.35	4343.45
790.4414	84.4412	9201.85	8687.7
790.5825	86.6995	15438.35	14904.8
790.7237	88.9574	21707.1	21154.65
790.8648	91.2148	26169.9	25604.85
791.006	93.4717	28394.35	27818.85
791.1472	95.7282	28970.15	28388.45
791.2885	97.9842	28945.7	28360.3
791.4297	100.2398	28461.65	27874.25
791.571	102.4949	27923.4	27335.85
791.7123	104.7495	27133.75	26542.05
791.8536	107.0036	26307.25	25714.25
791.9949	109.2573	25472.1	24876.2
792.1363	111.5105	24684.1	24091.05
792.2777	113.7632	23839.8	23244.2
792.4191	116.0154	23105.35	22500
792.5605	118.2672	22549.95	21950.7
792.7019	120.5185	21964.3	21359.15
792.8434	122.7693	21526.6	20921.8
792.9849	125.0197	21207.15	20600.65
793.1264	127.2696	20907	20296.3
793.2679	129.519	20726.4	20115.75
793.4094	131.7679	20527.65	19915.1
793.551	134.0163	20401.85	19781.95
793.6926	136.2642	20224.65	19601.45
793.8342	138.5117	20086.05	19455.25
793.9758	140.7587	19906.4	19279.9
794.1175	143.0052	19733.55	19104.45
794.2591	145.2512	19501.5	18875
794.4008	147.4967	19308.4	18677.6
794.5425	149.7417	19142.65	18507.4
794.6842	151.9863	19023.1	18389.1
794.826	154.2304	18958.45	18320.55
794.9677	156.4739	18794.35	18150.1
795.1095	158.717	18744.05	18103.6
795.2513	160.9596	18590.35	17941.1
795.3931	163.2017	18346.05	17695.05
795.535	165.4433	18020.35	17369.9
795.6768	167.6844	17663.85	17008.25
795.8187	169.925	17321	16663.35
795.9606	172.1651	16871.25	16208.95
796.1025	174.4047	16542.9	15874.9
796.2445	176.6439	16247.3	15583.45
796.3864	178.8825	15993.45	15326.15
796.5284	181.1206	15796.45	15120.55
796.6704	183.3582	15615.65	14942.95
796.8124	185.5954	15436.65	14759.15
796.9544	187.832	15344.7	14665.5
797.0965	190.0681	15277.65	14597.85
797.2386	192.3037	15251.8	14565.05
797.3806	194.5388	15237.85	14550.55
797.5228	196.7734	15272.45	14578.6
797.6649	199.0075	15308.35	14610.4
797.807	201.2411	15424.45	14724.9
797.9492	203.4742	15462.25	14765
798.0914	205.7068	15579.25	14880.65
798.2336	207.9389	15692.75	14995.45
798.3758	210.1704	15837.85	15137.35
798.518	212.4015	15980.8	15277.25
798.6603	214.632	16129.35	15422.1
798.8025	216.862	16327.45	15629.45
798.9448	219.0915	16500.6	15811.35
799.0871	221.3205	16774.05	16085.9
799.2294	223.549	17081.55	16398.9
799.3718	225.777	17466.1	16784.65
799.5141	228.0044	17917.15	17231.4
799.6565	230.2314	18472.75	17793.1
799.7989	232.4578	19051.2	18366.35
799.9413	234.6837	19467.4	18774.6
800.0837	236.909	19787.85	19093.6
800.2262	239.1339	19727.7	19010
800.3687	241.3582	19464.75	18762.7
800.5111	243.582	18987.75	18261.3
800.6536	245.8053	18564.2	17844.35
800.7961	248.0281	18089.4	17370
800.9387	250.2503	17719.65	16998.8
801.0812	252.472	17487.65	16761.9
801.2238	254.6932	17343.5	16615.8
801.3664	256.9139	17153	16422.75
801.509	259.134	17060.6	16326.7
801.6516	261.3536	16940	16210.55
801.7942	263.5727	16865.55	16133.3
801.9369	265.7912	16722.7	15990.75
802.0795	268.0092	16631.2	15902.25
802.2222	270.2267	16526.5	15789.5
802.3649	272.4436	16427.05	15692.9
802.5076	274.6601	16342.55	15599.6
802.6504	276.8759	16297.05	15561.1
802.7931	279.0913	16346.05	15610.3
802.9359	281.3061	16338.75	15597.5
803.0787	283.5204	16456.35	15710.3
803.2215	285.7341	16571.7	15825.75
803.3643	287.9473	16760.1	16002.05
803.5071	290.16	17059.35	16303.85
803.6499	292.3721	17416.65	16667.3
803.7928	294.5837	17908.95	17160.65
803.9357	296.7947	18335.7	17587.75
804.0786	299.0052	18555.65	17807.6
804.2215	301.2152	18405.55	17654.8
804.3644	303.4246	18003.15	17251.95
804.5074	305.6334	17375.4	16625.35
804.6503	307.8418	16758.65	16004.7
804.7933	310.0495	16318.15	15565.4
804.9363	312.2568	15939.25	15188.55
805.0793	314.4635	15731.5	14976.65
805.2223	316.6696	15671.65	14916.1
805.3653	318.8752	15636.85	14873.35
805.5084	321.0802	15692	14937
805.6514	323.2847	15813.5	15056.9
805.7945	325.4887	15911.35	15150.9
805.9376	327.692	15824.05	15064.65
806.0807	329.8949	15687	14925.75
806.2238	332.0972	15381	14618.4
806.367	334.2989	15107.65	14341.55
806.5101	336.5001	14771.25	14006.5
806.6533	338.7007	14530.15	13767
806.7965	340.9008	14379.2	13608.9
806.9397	343.1003	14247.15	13479.3
807.0829	345.2992	14197.2	13424.1
807.2261	347.4976	14168.85	13398.4
807.3693	349.6955	14148.25	13372.65
807.5126	351.8927	14235.65	13461.45
807.6559	354.0895	14212.95	13425.5
807.7991	356.2856	14243.45	13466
807.9424	358.4812	14227.4	13448.75
808.0857	360.6763	14229.4	13452.5
808.2291	362.8707	14184.1	13403.8
808.3724	365.0646	14222.1	13443.95
808.5158	367.258	14210.15	13428.7
808.6591	369.4508	14213.8	13428.4
808.8025	371.643	14282.8	13497.35
808.9459	373.8346	14219.85	13430.35
809.0893	376.0257	14182.8	13390.4
809.2327	378.2162	14062.1	13271.45
809.3762	380.4062	13948.25	13153.55
809.5196	382.5956	13802.1	13005.2
809.6631	384.7844	13650.65	12858.9
809.8066	386.9726	13553.35	12752.95
809.9501	389.1603	13457.85	12662.55
810.0936	391.3474	13447.5	12610.55
810.2371	393.5339	13397.2	12601.85
810.3806	395.7199	13321.85	12532.7
810.5241	397.9052	13332.8	12544.25
810.6677	400.09	13334.25	12549.9
810.8113	402.2743	13349.2	12563.75
810.9548	404.4579	13410.65	12626.35
811.0984	406.641	13540.45	12755.45
811.2421	408.8235	13772	12986.35
811.3857	411.0054	14106.1	13317.5
811.5293	413.1868	14605.2	13814.75
811.673	415.3675	15068.7	14275.25
811.8166	417.5477	15308.05	14515.1
811.9603	419.7273	15383.75	14588.75
812.104	421.9064	15296	14493.45
812.2477	424.0848	15127.2	14327.8
812.3914	426.2627	14882.35	14076.1
812.5351	428.4399	14569.2	13767.1
812.6788	430.6166	14152.5	13349
812.8226	432.7928	13725	12919.85
812.9663	434.9683	13388.05	12579.5
813.1101	437.1432	13146.25	12337.3
813.2539	439.3176	12948	12138.95
813.3977	441.4914	12804.7	11989.75
813.5415	443.6645	12748.75	11936.05
813.6853	445.8371	12687.5	11874.5
813.8291	448.0091	12634.9	11825
813.973	450.1806	12543.05	11733.6
814.1168	452.3514	12464.85	11651.75
814.2607	454.5216	12486.5	11663.25
814.4046	456.6913	12388.15	11573.05
814.5485	458.8603	12407.1	11594.1
814.6924	461.0288	12437.45	11623
814.8363	463.1967	12458.25	11642.4
814.9802	465.3639	12601.25	11782.5
815.1241	467.5306	12746.95	11929.65
815.2681	469.6967	12922.8	12105.95
815.412	471.8622	13129.15	12312.05
815.556	474.0271	13295.85	12478.7
815.7	476.1914	13371.85	12554.3
815.844	478.3551	13361.05	12542.15
815.988	480.5182	13288.7	12469.6
816.132	482.6807	13246.2	12427.3
816.276	484.8426	13288.65	12468.6
816.4201	487.0039	13531	12709.3
816.5641	489.1647	13930.3	13111.35
816.7082	491.3248	14392.15	13571.8
816.8522	493.4843	14611.95	13792.15
816.9963	495.6432	14646.2	13825.55
817.1404	497.8015	14575.95	13752.4
817.2845	499.9592	14596.65	13775.45
817.4286	502.1163	14609.6	13785.25
817.5727	504.2728	14407.8	13579.15
817.7168	506.4287	14092.55	13267.15
817.861	508.5839	13570.85	12744.9
818.0051	510.7386	13167.5	12343.05
818.1493	512.8927	12938.6	12111.25
818.2935	515.0461	12754.65	11929.2
818.4377	517.199	12593.75	11766
818.5818	519.3512	12494.05	11669.25
818.726	521.5029	12470.4	11637.1
818.8703	523.6539	12477.05	11648.55
819.0145	525.8043	12501.95	11672.1
819.1587	527.9541	12542.25	11709.55
819.303	530.1033	12540.9	11712.05
819.4472	532.2519	12639	11809.25
819.5915	534.3999	12819.5	11987.8
819.7357	536.5472	13128.8	12292.95
819.88	538.694	13678.65	12846.1
820.0243	540.8401	14390.3	13559.6
820.1686	542.9856	14999.1	14164.45
820.3129	545.1305	15244	14410.25
820.4572	547.2748	15094.8	14260.25
820.6016	549.4185	14631.35	13796.1
820.7459	551.5615	14200.15	13368.45
820.8902	553.704	13945.15	13110.45
821.0346	555.8458	13779.4	12949.8
821.1789	557.987	13735.7	12902.35
821.3233	560.1276	13564.4	12726
821.4677	562.2675	13434.9	12600.25
821.6121	564.4069	13291.5	12456.75
821.7565	566.5456	13153.9	12319.1
821.9009	568.6837	12959.05	12124.5
822.0453	570.8212	12732.55	11899.35
822.1897	572.958	12504.1	11665.45
822.3342	575.0942	12327.55	11493.05
822.4786	577.2299	12195.05	11356.25
822.6231	579.3648	12206.8	11368.65
822.7675	581.4992	12313.35	11471.25
822.912	583.6329	12550	11712.7
823.0565	585.766	12814.05	11976.25
823.201	587.8985	12955.7	12116.95
823.3454	590.0304	12981.7	12118.95
823.4899	592.1616	12920.3	12078.4
823.6345	594.2922	12809.25	11967.55
823.779	596.4222	12627.05	11786.4
823.9235	598.5515	12475.55	11636.1
824.068	600.6802	12285	11444.15
824.2126	602.8083	12063.7	11222.95
824.3571	604.9358	11971.55	11131.05
824.5017	607.0626	11868.65	11027
824.6462	609.1888	11779.25	10937.55
824.7908	611.3144	11625.9	10783.65
824.9354	613.4393	11413.5	10571.2
825.08	615.5636	11250.3	10409.45
825.2246	617.6873	11125.3	10283.85
825.3692	619.8103	11044.9	10201.05
825.5138	621.9327	10995.2	10147.85
825.6584	624.0544	10970.45	10126.25
825.803	626.1756	10935.25	10094.25
825.9477	628.2961	10933.05	10089.05
826.0923	630.4159	10860.25	10016.4
826.237	632.5351	10825.35	9977.65
826.3816	634.6537	10730.95	9883.6
826.5263	636.7716	10703.65	9857.15
826.6709	638.8889	10717.3	9871.9
826.8156	641.0056	10702.15	9854.85
826.9603	643.1216	10688.35	9840.05
827.105	645.237	10712.15	9862.25
827.2497	647.3518	10700.35	9853.75
827.3944	649.4659	10720.6	9872.25
827.5391	651.5793	10732.25	9882.8
827.6838	653.6922	10721.15	9871.85
827.8285	655.8043	10681.2	9831.95
827.9733	657.9159	10627.15	9776.85
828.118	660.0268	10541.55	9690.05
828.2627	662.137	10462.1	9609.45
828.4075	664.2466	10411.05	9558.65
828.5522	666.3556	10362.75	9511.4
828.697	668.4639	10351	9497.15
828.8418	670.5716	10399.9	9548.3
828.9865	672.6786	10459.1	9607.7
829.1313	674.785	10560.95	9707.15
829.2761	676.8907	10649.3	9798.15
829.4209	678.9958	10750.7	9901.05
829.5657	681.1002	10748	9895
829.7105	683.204	10685.05	9829.9
829.8553	685.3072	10636.4	9782.05
830.0001	687.4097	10515.15	9660.35
830.1449	689.5115	10449.55	9594.3
830.2898	691.6127	10346.95	9496.9
830.4346	693.7132	10254.75	9399.6
830.5794	695.8131	10214.3	9339.35
830.7243	697.9123	10137.4	9282.25
830.8691	700.0109	10077.95	9223.3
831.014	702.1089	10045.25	9190.6
831.1588	704.2061	10032	9177.45
831.3037	706.3028	10044.85	9186.45
831.4486	708.3987	10081.65	9224.65
831.5935	710.4941	10187.95	9332.85
831.7383	712.5887	10390.2	9532.25
831.8832	714.6827	10724.75	9863.3
832.0281	716.7761	11116.3	10262.3
832.173	718.8688	11526.05	10667
832.3179	720.9608	11773.45	10910.35
832.4628	723.0522	11779.4	10916.55
832.6077	725.1429	11526.45	10670.35
832.7527	727.233	11137.1	10278.75
832.8976	729.3224	10750.85	9892.45
833.0425	731.4112	10390.45	9530.5
833.1874	733.4993	10114	9253.3
833.3324	735.5867	9947.4	9088.75
833.4773	737.6735	9858.85	8999
833.6222	739.7596	9814.65	8954.4
833.7672	741.845	9780.5	8919.75
833.9122	743.9298	9736.75	8873.85
834.0571	746.014	9751.55	8892.45
834.2021	748.0974	9780.65	8916.9
834.347	750.1802	9756.6	8894.9
834.492	752.2624	9750.5	8892.9
834.637	754.3439	9765.6	8901.55
834.782	756.4247	9821.4	8951
834.9269	758.5048	9916.1	9056.15
835.0719	760.5843	10075.9	9214.75
835.2169	762.6631	10346.4	9482.9
835.3619	764.7413	10753.35	9893.35
835.5069	766.8188	11315	10451.45
835.6519	768.8956	11818.25	10955.15
835.7969	770.9718	12173.25	11311.05
835.9419	773.0473	12075.8	11212.7
836.0869	775.1221	11744.25	10883.15
836.232	777.1962	11374.15	10511.4
836.377	779.2697	11172.15	10306.55
836.522	781.3426	11229.3	10345.7
836.667	783.4147	11507.25	10644.65
836.8121	785.4862	11840.65	10980.65
836.9571	787.557	11881.65	11017.9
837.1021	789.6271	11494.3	10629.25
837.2472	791.6966	10954.05	10092.55
837.3922	793.7654	10395.75	9529.25
837.5373	795.8335	10044.25	9184
837.6823	797.901	9823.1	8958.95
837.8274	799.9678	9739	8873.1
837.9724	802.0339	9761.9	8898.95
838.1175	804.0993	9828.3	8954.6
838.2626	806.1641	9812.1	8945.6
838.4076	808.2282	9770.6	8908.05
838.5527	810.2916	9655.3	8790.05
838.6978	812.3544	9535	8673.1
838.8428	814.4164	9429.85	8566.35
838.9879	816.4778	9413.95	8549.8
839.133	818.5385	9353.65	8487.3
839.2781	820.5986	9391.25	8526.65
839.4232	822.658	9421.7	8555.6
839.5682	824.7166	9459.65	8598.4
839.7133	826.7747	9576.2	8711.35
839.8584	828.832	9680.4	8814.75
840.0035	830.8886	9763.4	8898.05
840.1486	832.9446	9942.65	9075.8
840.2937	834.9999	10035.3	9170.25
840.4388	837.0545	10131.5	9261.1
840.5839	839.1085	10228.05	9360.9
840.729	841.1618	10234.55	9363.8
840.8741	843.2143	10203.6	9338.7
841.0192	845.2662	10142.4	9272.35
841.1643	847.3175	10070.2	9201.4
841.3095	849.368	9983.7	9116.9
841.4546	851.4179	9856.85	8990.3
841.5997	853.467	9660.85	8794.6
841.7448	855.5155	9568.1	8699.8
841.8899	857.5633	9446.35	8580.55
842.0351	859.6105	9317.85	8447.4
842.1802	861.6569	9230	8362.05
842.3253	863.7027	9145.2	8275
842.4704	865.7478	9078.6	8208.95
842.6156	867.7922	9101.15	8234.25
842.7607	869.8359	9166	8296.25
842.9058	871.8789	9295.65	8425.75
843.0509	873.9212	9518.6	8614.65
843.1961	875.9629	9647.8	8776.55
843.3412	878.0039	9843.95	8972.55
843.4863	880.0441	9953.85	9083.7
843.6315	882.0837	9939.85	9069.95
843.7766	884.1226	9790.25	8919.25
843.9218	886.1609	9622.5	8752.5
844.0669	888.1984	9462.45	8592.65
844.212	890.2352	9380.75	8512.4
844.3572	892.2714	9333.05	8459.75
844.5023	894.3069	9277.8	8407.9
844.6475	896.3416	9214.55	8344.35
844.7926	898.3757	9199.7	8327.7
844.9377	900.4091	9180.15	8309
845.0829	902.4418	9196.9	8323.85
845.228	904.4739	9190.75	8318.45
845.3732	906.5052	9176	8305.25
845.5183	908.5358	9052.6	8184.1
845.6635	910.5658	8895.8	8022.55
845.8086	912.595	8723.35	7851.8
845.9538	914.6236	8570.55	7701.65
846.0989	916.6515	8540.6	7669.2
846.2441	918.6786	8541.8	7666.75
846.3892	920.7051	8631	7758
846.5344	922.7309	8726.75	7854.8
846.6795	924.756	8799.3	7930.65
846.8246	926.7804	8878.7	8004.95
846.9698	928.8041	8878.65	8004.25
847.1149	930.8272	8880.95	8008.75
847.2601	932.8495	8807.65	7931.65
847.4052	934.8711	8735.2	7862.1
847.5504	936.892	8553.55	7680.65
847.6955	938.9123	8373.5	7502.15
847.8407	940.9318	8248.5	7377.1
847.9858	942.9506	8095.4	7221.9
848.131	944.9688	7975.8	7103.35
848.2761	946.9862	7920.65	7049.45
848.4213	949.003	7875.05	7002.3
848.5664	951.019	7882.65	7007.55
848.7115	953.0344	7909.8	7037.05
848.8567	955.0491	7946.25	7075
849.0018	957.063	8031.75	7157.7
849.147	959.0763	8142.2	7270.4
849.2921	961.0888	8203.95	7329.3
849.4373	963.1007	8279.6	7406.65
849.5824	965.1119	8308.4	7435.75
849.7275	967.1223	8355.15	7481
849.8727	969.1321	8379.85	7508.3
850.0178	971.1412	8394.65	7521.5
850.1629	973.1495	8436.6	7563.55
850.3081	975.1572	8498.9	7590
850.4532	977.1641	8467.95	7595
850.5983	979.1704	8472.15	7599.5
850.7435	981.1759	8476.75	7598.1
850.8886	983.1808	8536.1	7661.8
851.0337	985.1849	8663.45	7779.25
851.1788	987.1884	8823.65	7948.3
851.324	989.1911	8996.15	8118.4
851.4691	991.1932	9166.7	8290.95
851.6142	993.1945	9242.15	8368.7
851.7593	995.1951	9214.2	8337.15
851.9045	997.1951	9172.1	8294.8
852.0496	999.1943	9100.35	8225.2
852.1947	1001.1928	9048.55	8173.55
852.3398	1003.1906	9017.15	8142.3
852.4849	1005.1877	9039.55	8164.8
852.63	1007.1841	8997.1	8120.45
852.7751	1009.1798	8896.2	8023.35
852.9202	1011.1748	8703.1	7830.35
853.0653	1013.1691	8486.85	7610.95
853.2104	1015.1627	8263.75	7389.2
853.3555	1017.1556	8088.5	7214.15
853.5006	1019.1477	7982.75	7106.75
853.6457	1021.1392	7893.25	7019.8
853.7908	1023.1299	7898.9	7026.3
853.9359	1025.12	7911.05	7033
854.081	1027.1093	7982.8	7107.5
854.2261	1029.0979	8067.7	7192.85
854.3712	1031.0859	8117.3	7241.85
854.5163	1033.0731	8113.6	7236.6
854.6613	1035.0596	8025.8	7151.1
854.8064	1037.0454	7896.25	7020.9
854.9515	1039.0304	7782.75	6909.95
855.0965	1041.0148	7647.15	6770.6
855.2416	1042.9985	7552.4	6674.05
855.3867	1044.9814	7479.7	6605.9
855.5317	1046.9636	7448.85	6574
855.6768	1048.9452	7442.1	6566.2
855.8219	1050.926	7455.15	6581.85
855.9669	1052.9061	7420.9	6544.1
856.112	1054.8855	7422.1	6547.5
856.257	1056.8642	7437	6561.6
856.4021	1058.8421	7481.65	6602.85
856.5471	1060.8194	7506.9	6629.35
856.6921	1062.7959	7540.95	6665
856.8372	1064.7717	7549.55	6673
856.9822	1066.7469	7539.55	6661.4
857.1272	1068.7213	7516.75	6638
857.2723	1070.695	7484.5	6608.15
857.4173	1072.6679	7410.35	6534.4
857.5623	1074.6402	7347.55	6469.55
857.7073	1076.6117	7332.8	6451.75
857.8523	1078.5826	7358.75	6481.1
857.9973	1080.5527	7406.65	6527.55
858.1423	1082.5221	7571.3	6693.1
858.2873	1084.4908	7802.5	6927.55
858.4323	1086.4587	8024.1	7147.7
858.5773	1088.426	8204.1	7325.2
858.7223	1090.3925	8233.85	7349.6
858.8673	1092.3584	8150.35	7273.55
859.0123	1094.3235	7966.9	7090.5
859.1573	1096.2879	7864.6	6985.75
859.3022	1098.2515	7810.15	6930.95
859.4472	1100.2145	7834.3	6957.45
859.5922	1102.1767	7881.1	6999.85
859.7371	1104.1382	8025.65	7148.95
859.8821	1106.099	8222	7341.5
860.027	1108.0591	8456.2	7579.25
860.172	1110.0185	8597.05	7718
860.3169	1111.9771	8586.1	7708.8
860.4619	1113.9351	8377.45	7500.75
860.6068	1115.8923	8032.85	7157.55
860.7517	1117.8488	7703.65	6824.1
860.8967	1119.8045	7424.65	6550.85
861.0416	1121.7596	7223.75	6345.55
861.1865	1123.7139	7154.3	6277.85
861.3314	1125.6675	7147.85	6270.45
861.4763	1127.6204	7180.1	6301.3
861.6212	1129.5726	7233.5	6353.65
861.7661	1131.524	7272.5	6394
861.911	1133.4748	7320.25	6443.05
862.0559	1135.4248	7337.8	6459.3
862.2008	1137.3741	7373.55	6495.45
862.3457	1139.3226	7374.6	6496.45
862.4905	1141.2705	7332.3	6454.75
862.6354	1143.2176	7274.85	6389.6
862.7803	1145.164	7294.7	6414.2
862.9251	1147.1097	7307.4	6429.45
863.07	1149.0546	7322.65	6443.15
863.2148	1150.9989	7213	6332.8
863.3597	1152.9424	7023.5	6143.15
863.5045	1154.8852	6816.85	5938.05
863.6493	1156.8272	6702.65	5826.2
863.7942	1158.7686	6601.8	5718.15
863.939	1160.7092	6540.5	5661.95
864.0838	1162.6491	6529.3	5647.65
864.2286	1164.5883	6592.35	5713.65
864.3734	1166.5267	6684.2	5803.15
864.5182	1168.4644	6817.35	5936.4
864.663	1170.4014	6996.4	6115.8
864.8078	1172.3377	7234.7	6356.65
864.9526	1174.2732	7416.9	6538.65
865.0974	1176.2081	7617.85	6743.1
865.2421	1178.1421	7824.8	6940.9
865.3869	1180.0755	7949.6	7072.9
865.5317	1182.0082	7977.05	7098.3
865.6764	1183.9401	7891.95	7013.6
865.8212	1185.8713	7692.65	6814.2
865.9659	1187.8017	7429.1	6547.05
866.1106	1189.7315	7165.25	6287.95
866.2554	1191.6605	6935	6028.45
866.4001	1193.5888	6739.45	5859.2
866.5448	1195.5163	6596.8	5718.2
866.6895	1197.4432	6490.35	5611.7
866.8342	1199.3693	6414.7	5536
866.9789	1201.2947	6375.9	5492.5
867.1236	1203.2193	6355.2	5476.3
867.2683	1205.1432	6382.2	5502.05
867.413	1207.0664	6413	5533
867.5576	1208.9889	6498.75	5617.85
867.7023	1210.9106	6602.55	5724.25
867.847	1212.8316	6684.05	5804.55
867.9916	1214.7519	6762.4	5873.9
868.1363	1216.6715	6802.35	5923.2
868.2809	1218.5903	6779.4	5899.95
868.4255	1220.5084	6733.05	5853.05
868.5701	1222.4257	6699.7	5820
868.7148	1224.3424	6653.6	5779.85
868.8594	1226.2583	6693.8	5808.1
869.004	1228.1735	6799.3	5920.8
869.1486	1230.0879	6945.05	6063.15
869.2932	1232.0016	7084.25	6205.35
869.4377	1233.9146	7133.4	6252.35
869.5823	1235.8269	7023.95	6144
869.7269	1237.7384	6911.05	6031.85
869.8715	1239.6492	6743.35	5863.5
870.016	1241.5592	6619.6	5738.25
870.1606	1243.4686	6501.95	5621.8
870.3051	1245.3772	6436.7	5558.25
870.4496	1247.285	6375.55	5495.4
870.5941	1249.1922	6338.25	5457.9
870.7387	1251.0986	6313.5	5435.05
870.8832	1253.0042	6346.15	5467.05
871.0277	1254.9092	6402.25	5520.95
871.1722	1256.8134	6506.6	5628.85
871.3167	1258.7169	6651.95	5771.75
871.4611	1260.6196	6800.35	5922
871.6056	1262.5216	6958.35	6078.6
871.7501	1264.4229	7129.75	6250.55
871.8945	1266.3234	7242.5	6361.85
872.039	1268.2232	7279.5	6395.5
872.1834	1270.1223	7276.35	6396.1
872.3278	1272.0207	7243.1	6361.65
872.4723	1273.9183	7202.95	6315.05
872.6167	1275.8151	7133.85	6254.55
872.7611	1277.7113	7039.35	6158.4
872.9055	1279.6067	6888.9	6007.45
873.0499	1281.5014	6716.95	5835.8
873.1943	1283.3953	6563.35	5679.75
873.3386	1285.2885	6457.85	5580.25
873.483	1287.181	6392.75	5511.35
873.6274	1289.0727	6398.75	5518.6
873.7717	1290.9637	6420.15	5538.35
873.9161	1292.854	6532.2	5652.95
874.0604	1294.7435	6677	5795.9
874.2047	1296.6323	6897.4	6016.65
874.349	1298.5204	7174.15	6288.65
874.4933	1300.4077	7422.05	6543.15
874.6376	1302.2943	7622.25	6742.2
874.7819	1304.1802	7743.75	6865.5
874.9262	1306.0653	7690.25	6808.7
875.0705	1307.9497	7587.1	6704.25
875.2147	1309.8333	7494.5	6613.75
875.359	1311.7162	7481.65	6601.2
875.5032	1313.5984	7603.55	6717.6
875.6475	1315.4798	7734.75	6838.25
875.7917	1317.3605	7940.9	7044.5
875.9359	1319.2405	8105	7221.65
876.0801	1321.1197	8138.5	7256.95
876.2243	1322.9982	8120.55	7235
876.3685	1324.876	8098.25	7218.7
876.5127	1326.753	8064.55	7183.05
876.6569	1328.6293	8115.55	7233.9
876.801	1330.5048	8115.6	7230.15
876.9452	1332.3796	8102.7	7221.15
877.0893	1334.2537	8090.45	7181.4
877.2335	1336.127	8019.85	7138.75
877.3776	1337.9996	7977.55	7096
877.5217	1339.8714	7925	7042.7
877.6658	1341.7426	7878.95	6952.55
877.8099	1343.6129	7807.15	6926.2
877.954	1345.4826	7762.45	6880.3
878.0981	1347.3515	7695.4	6813.7
878.2422	1349.2196	7613.9	6733.45
878.3862	1351.087	7624.95	6742.1
878.5303	1352.9537	7656.75	6775.45
878.6743	1354.8197	7751.55	6870.65
878.8184	1356.6849	7902.65	7021.2
878.9624	1358.5493	8010	7128.3
879.1064	1360.4131	7984.1	7103.6
879.2504	1362.276	7923.1	7041.25
879.3944	1364.1383	7780.1	6897.2
879.5384	1365.9998	7595.4	6709.1
879.6823	1367.8606	7293.9	6413.25
879.8263	1369.7206	7035.9	6155.45
879.9702	1371.5799	6879.65	5996.05
880.1142	1373.4384	6740.65	5858.2
880.2581	1375.2962	6617.6	5736.15
880.402	1377.1533	6398.15	5519.15
880.5459	1379.0096	6127.15	5241.75
880.6898	1380.8652	5853.4	4973.85
880.8337	1382.7201	5625.85	4742.4
880.9776	1384.5742	5434.65	4552.55
881.1215	1386.4275	5300.65	4419.25
881.2653	1388.2802	5172.2	4290.7
881.4092	1390.132	5075.75	4194.3
881.553	1391.9832	5025.05	4141.55
881.6968	1393.8336	4957.25	4077.15
881.8406	1395.6832	4915.25	4032.9
881.9844	1397.5322	4895.6	4012.95
882.1282	1399.3803	4873.7	3987.3
882.272	1401.2278	4855.5	3974.3
882.4158	1403.0745	4854.9	3972.7
882.5595	1404.9204	4863.95	3982.65
882.7033	1406.7656	4875.15	3992.25
882.847	1408.6101	4901.8	4020.4
882.9908	1410.4538	4892.1	4010.3
883.1345	1412.2968	4943.6	4061.7
883.2782	1414.139	5005.35	4123.05
883.4219	1415.9805	5083.95	4201.6
883.5656	1417.8213	5185.95	4296.85
883.7092	1419.6613	5328.9	4448.55
883.8529	1421.5006	5521.7	4639.3
883.9965	1423.3391	5802	4920.2
884.1402	1425.1769	6165.2	5280.85
884.2838	1427.0139	6676.85	5793.3
884.4274	1428.8502	7307.15	6424
884.571	1430.6858	7925.5	7044.05
884.7146	1432.5206	8408.5	7526.15
884.8582	1434.3547	8701.4	7816.9
885.0018	1436.188	8790.65	7909.7
885.1453	1438.0206	8706.25	7821.5
885.2889	1439.8524	8598	7716.4
885.4324	1441.6835	8479.55	7597.1
885.5759	1443.5139	8394.55	7509.05
885.7194	1445.3435	8336.05	7456.05
885.8629	1447.1724	8292.8	7409.85
886.0064	1449.0005	8208.25	7326.7
886.1499	1450.8279	8102.75	7220.55
886.2933	1452.6545	8059.1	7177.95
886.4368	1454.4804	8101.95	7220.05
886.5802	1456.3056	8082.55	7193.3
886.7237	1458.13	7976.5	7095.15
886.8671	1459.9536	7769.9	6885.7
887.0105	1461.7766	7407.05	6526.7
887.1539	1463.5987	6972.15	6090.05
887.2972	1465.4202	6582.05	5698.95
887.4406	1467.2409	6226.7	5344.95
887.584	1469.0608	5904.35	5023.5
887.7273	1470.88	5655.15	4770.95
887.8706	1472.6984	5420.6	4539.65
888.0139	1474.5161	5228.45	4344.45
888.1572	1476.3331	5059.9	4177.3
888.3005	1478.1493	4910.2	4027.85
888.4438	1479.9648	4826.1	3944.2
888.5871	1481.7795	4728.2	3843.85
888.7303	1483.5935	4639.2	3758.1
888.8736	1485.4067	4584.55	3699.2
889.0168	1487.2192	4536.5	3653.45
889.16	1489.031	4483.15	3598.7
889.3032	1490.842	4455.4	3574.1
889.4464	1492.6522	4424.45	3542.65
889.5896	1494.4618	4407.1	3524
889.7327	1496.2705	4378.1	3497.25
889.8759	1498.0785	4352.65	3470.1
890.019	1499.8858	4326.55	3444.3
890.1622	1501.6924	4320.25	3439
890.3053	1503.4981	4306.8	3423.65
890.4484	1505.3032	4285.35	3403.25
890.5914	1507.1075	4260.7	3378.45
890.7345	1508.911	4237.65	3356.2
890.8776	1510.7138	4196.4	3313.85
891.0206	1512.5159	4172.05	3289.65
891.1637	1514.3172	4157.7	3276.15
891.3067	1516.1178	4102.35	3221.75
891.4497	1517.9176	4088.5	3203.75
891.5927	1519.7166	4056.45	3176.4
891.7357	1521.515	4052.05	3164.35
891.8786	1523.3126	4027.9	3146.95
892.0216	1525.1094	4013.65	3129.05
892.1645	1526.9055	3993.8	3112.95
892.3074	1528.7008	3988.15	3106.1
892.4503	1530.4954	3972.35	3083.9
892.5932	1532.2893	3938.5	3057.05
892.7361	1534.0824	3943	3056.4
892.879	1535.8747	3916.8	3034.1
893.0218	1537.6663	3908.5	3025.25
893.1647	1539.4572	3917.55	3033.8
893.3075	1541.2473	3908.3	3025.4
893.4503	1543.0367	3916.35	3035.4
893.5931	1544.8253	3914.3	3027.8
893.7359	1546.6132	3912.25	3028.05
893.8787	1548.4003	3927.2	3034.95
894.0214	1550.1867	3919.15	3029.55
894.1642	1551.9723	3964.45	3078.8
894.3069	1553.7572	3959.15	3075.1
894.4496	1555.5414	3974.5	3093.7
894.5923	1557.3247	4014.9	3129.55
894.735	1559.1074	4057.3	3177.5
894.8777	1560.8893	4099	3217.5
895.0204	1562.6705	4167	3286.15
895.163	1564.4509	4246.95	3365.1
895.3056	1566.2305	4321.5	3442.75
895.4482	1568.0094	4430.2	3548.55
895.5908	1569.7876	4498.7	3617.15
895.7334	1571.565	4581.9	3700.35
895.876	1573.3417	4638.9	3756.6
896.0186	1575.1176	4659.35	3778.6
896.1611	1576.8928	4653.3	3771.4
896.3036	1578.6672	4551.75	3673.2
896.4461	1580.4409	4440.15	3559.1
896.5886	1582.2138	4316.8	3434.8
896.7311	1583.986	4207.05	3324.45
896.8736	1585.7575	4108.35	3227.5
897.0161	1587.5282	4021.65	3140.95
897.1585	1589.2981	3965.6	3083.85
897.3009	1591.0673	3927.25	3044.55
897.4433	1592.8358	3892.1	3010.4
897.5857	1594.6035	3910.1	3025.15
897.7281	1596.3704	3882	3001.3
897.8705	1598.1366	3889.5	3006.35
898.0128	1599.9021	3925.4	3046.6
898.1551	1601.6668	3936.25	3050.95
898.2975	1603.4308	3983.1	3100.1
898.4398	1605.194	4068.4	3182.7
898.5821	1606.9564	4142.35	3260.2
898.7243	1608.7182	4249.25	3364.15
898.8666	1610.4791	4373.75	3491.5
899.0088	1612.2394	4499.1	3618.35
899.1511	1613.9988	4714.2	3831.8
899.2933	1615.7576	4932.6	4051.5
899.4355	1617.5156	5184.6	4298.9
899.5776	1619.2728	5412.15	4531.5
899.7198	1621.0293	5606.35	4723.6
899.862	1622.785	5701.85	4818
900.0041	1624.54	5664.2	4781.5
900.1462	1626.2942	5549.45	4665.8
900.2883	1628.0477	5304.3	4421.4
900.4304	1629.8005	5085.75	4200.2
900.5725	1631.5525	4848.95	3965.55
900.7145	1633.3037	4621.6	3741.6
900.8566	1635.0542	4455.3	3571.05
900.9986	1636.804	4323.2	3442.85
901.1406	1638.553	4289.95	3328.1
901.2826	1640.3013	4173.8	3293
901.4245	1642.0488	4107.15	3225.25
901.5665	1643.7955	4109.75	3228.9
901.7085	1645.5416	4112.4	3230.9
901.8504	1647.2868	4164.15	3285
901.9923	1649.0313	4246	3365.25
902.1342	1650.7751	4385.85	3499.65
902.2761	1652.5181	4570.7	3690.3
902.4179	1654.2604	4814.5	3933.45
902.5598	1656.0019	5131.2	4252.45
902.7016	1657.7427	5497.8	4616.85
902.8434	1659.4828	5872.6	4991.05
902.9852	1661.222	6111.6	5229.25
903.127	1662.9606	6164.4	5283.85
903.2687	1664.6984	6046	5164.9
903.4105	1666.4354	5724.9	4844
903.5522	1668.1717	5295.35	4416.65
903.6939	1669.9072	4844.4	3963.7
903.8356	1671.642	4468.8	3587.5
903.9773	1673.3761	4176.8	3296.9
904.119	1675.1094	3930.35	3049.55
904.2606	1676.8419	3750.2	2870.7
904.4022	1678.5737	3613.8	2731.85
904.5439	1680.3048	3508.1	2626.65
904.6855	1682.0351	3447.35	2567
904.827	1683.7646	3391.65	2509.25
904.9686	1685.4934	3343.2	2464.8
905.1101	1687.2215	3310.2	2428.2
905.2517	1688.9488	3269.95	2391.35
905.3932	1690.6754	3244.3	2365.35
905.5347	1692.4012	3222.35	2343.15
905.6761	1694.1263	3199.8	2319.35
905.8176	1695.8506	3183.4	2303.15
905.9591	1697.5742	3156.75	2275.9
906.1005	1699.297	3136.5	2255.5
906.2419	1701.0191	3120.1	2238.4
906.3833	1702.7404	3108.85	2229.4
906.5246	1704.461	3076.7	2195.2
906.666	1706.1808	3075	2192.9
906.8073	1707.8999	3057.05	2172.65
906.9487	1709.6182	3039.5	2157.05
907.09	1711.3358	3035.9	2157.2
907.2313	1713.0527	3025.1	2144.05
907.3725	1714.7688	3008.55	2124.05
907.5138	1716.4841	2988.6	2106.05
907.655	1718.1987	2983.3	2096.65
907.7962	1719.9126	2964.8	2085
907.9374	1721.6257	2964.4	2080.1
908.0786	1723.338	2938.5	2055.9
908.2198	1725.0496	2932.65	2052.05
908.3609	1726.7605	2927.4	2047.15
908.502	1728.4706	2914.85	2034.25
908.6431	1730.18	2909	2026.45
908.7842	1731.8886	2909.9	2028.75
908.9253	1733.5964	2905.65	2019.95
909.0664	1735.3036	2896.7	2012.4
909.2074	1737.0099	2874.5	1996.45
909.3484	1738.7156	2875.7	1992.8
909.4894	1740.4204	2864.6	1981.1
909.6304	1742.1246	2856.35	1974.95
909.7714	1743.8279	2857.5	1976.4
909.9123	1745.5306	2844.2	1963.45
910.0532	1747.2325	2838.45	1958.15
910.1941	1748.9336	2836.25	1955.85
910.335	1750.634	2837.25	1954.7
910.4759	1752.3336	2824	1942.7
910.6168	1754.0325	2813.35	1934.3
910.7576	1755.7307	2801.75	1921.15
910.8984	1757.4281	2797.15	1913.9
911.0392	1759.1247	2796.3	1908.1
911.18	1760.8206	2792.1	1906.9
911.3208	1762.5158	2778.95	1896.35
911.4615	1764.2102	2775.15	1895.05
911.6022	1765.9039	2773.6	1893.4
911.7429	1767.5968	2763.4	1882
911.8836	1769.289	2755	1876.25
912.0243	1770.9804	2759.1	1877
912.1649	1772.6711	2755.25	1873.8
912.3056	1774.361	2734.85	1853.75
912.4462	1776.0502	2734.95	1855.45
912.5868	1777.7386	2734.55	1849.85
912.7274	1779.4263	2715	1835.65
912.8679	1781.1132	2714.15	1832.2
913.0084	1782.7994	2713.05	1826.9
913.149	1784.4849	2714.7	1834.3
913.2895	1786.1696	2724.65	1823.9
913.4299	1787.8535	2704.4	1824.65
913.5704	1789.5367	2697.9	1815.7
913.7108	1791.2192	2696.8	1815.5
913.8513	1792.9009	2700.45	1793.25
913.9917	1794.5818	2681.15	1800.3
914.132	1796.2621	2667.5	1789.85
914.2724	1797.9415	2674	1792.85
914.4128	1799.6202	2659.4	1780.35
914.5531	1801.2982	2659.75	1778.9
914.6934	1802.9755	2653.75	1773.2
914.8337	1804.6519	2666.55	1785.45
914.9739	1806.3277	2648.05	1767.65
915.1142	1808.0027	2644.4	1761.2
915.2544	1809.6769	2637.45	1756.6
915.3946	1811.3504	2623.9	1740.45
915.5348	1813.0231	2632.35	1751.7
915.675	1814.6951	2628.7	1749.65
915.8151	1816.3664	2636.05	1753.9
915.9553	1818.0369	2621.85	1742
916.0954	1819.7067	2609.05	1729.3
916.2355	1821.3757	2616.3	1733.9
916.3755	1823.044	2599.45	1718.4
916.5156	1824.7115	2592.55	1710.35
916.6556	1826.3783	2597.15	1719.15
916.7956	1828.0443	2588.15	1709.45
916.9356	1829.7096	2583.35	1701.05
917.0756	1831.3741	2593.75	1711.2
917.2155	1833.0379	2581.2	1701.2
917.3555	1834.701	2574.9	1692.3
917.4954	1836.3633	2577.1	1697.1
917.6353	1838.0248	2568.25	1685.75
917.7751	1839.6856	2561.85	1681.55
917.915	1841.3457	2560.2	1680.15
918.0548	1843.005	2558.15	1677.6
918.1946	1844.6636	2547.4	1667.6
918.3344	1846.3214	2549.6	1667.15
918.4742	1847.9785	2551.4	1671.3
918.6139	1849.6349	2542.65	1660.4
918.7537	1851.2904	2554.15	1663.75
918.8934	1852.9453	2533.55	1653.25
919.0331	1854.5994	2527.6	1644.8
919.1727	1856.2528	2537.1	1650.2
919.3124	1857.9054	2527.9	1647.85
919.452	1859.5572	2531.15	1651.15
919.5916	1861.2083	2522.9	1641.4
919.7312	1862.8587	2515.9	1634.45
919.8708	1864.5084	2516.45	1636.7
920.0103	1866.1572	2502.05	1624.55
920.1498	1867.8054	2492.8	1612.4
920.2893	1869.4528	2490.25	1610.1
920.4288	1871.0994	2495.65	1614.4
920.5683	1872.7453	2489.4	1609.6
920.7077	1874.3905	2489.3	1590.15
920.8471	1876.0349	2476.8	1595.1
920.9865	1877.6786	2474.4	1592.05
921.1259	1879.3215	2470.95	1588.65
921.2653	1880.9637	2458.6	1576.75
921.4046	1882.6051	2459.35	1579.65
921.5439	1884.2458	2452.85	1572.45
921.6832	1885.8858	2447.95	1566.65
921.8225	1887.525	2438.35	1553.85
921.9617	1889.1634	2440.55	1560.15
922.101	1890.8011	2433.1	1551
922.2402	1892.4381	2426.45	1547.8
922.3794	1894.0743	2424.95	1544.45
922.5185	1895.7098	2411.15	1531.6
922.6577	1897.3446	2409.25	1527.2
922.7968	1898.9786	2425.25	1542.3
922.9359	1900.6118	2420.9	1542.55
923.075	1902.2443	2402.05	1520.7
923.214	1903.8761	2396.7	1514.95
923.3531	1905.5071	2388	1506.4
923.4921	1907.1374	2392.7	1511
923.6311	1908.7669	2387.35	1504.3
923.77	1910.3957	2369.7	1487.9
923.909	1912.0237	2374.05	1493.2
924.0479	1913.651	2377.45	1495.55
924.1868	1915.2776	2373.7	1493.95
924.3257	1916.9034	2364.05	1486
924.4646	1918.5285	2364.35	1484.55
924.6034	1920.1528	2347.1	1464.8
924.7422	1921.7764	2353.9	1473.3
924.881	1923.3992	2342.5	1463.2
925.0198	1925.0213	2338.55	1457.15
925.1586	1926.6427	2333.2	1454.2
925.2973	1928.2633	2395.75	1407.65
925.436	1929.8832	2326.35	1445.65
925.5747	1931.5023	2319.75	1438.6
925.7134	1933.1207	2320.25	1439.4
925.852	1934.7383	2318.05	1436.05
925.9906	1936.3552	2308	1426.35
926.1292	1937.9714	2306.2	1426.2
926.2678	1939.5868	2304.8	1424.55
926.4064	1941.2015	2285.15	1404.3
926.5449	1942.8154	2291.05	1410.15
926.6834	1944.4286	2275.75	1394.8
926.8219	1946.041	2301	1399.05
926.9604	1947.6528	2269.1	1384.1
927.0988	1949.2637	2264.95	1384.15
927.2372	1950.8739	2259.85	1378.65
927.3756	1952.4834	2258.55	1378.4
927.514	1954.0921	2250.95	1369.05
927.6523	1955.7001	2239	1353.05
927.7907	1957.3074	2237.35	1357.05
927.929	1958.9139	2237.65	1359
928.0673	1960.5197	2239.65	1357.8
928.2055	1962.1247	2231.7	1351.05
928.3438	1963.729	2205.75	1326.75
928.482	1965.3325	2227.65	1321.75
928.6202	1966.9353	2207.5	1327
928.7584	1968.5374	2199.4	1319.65
928.8965	1970.1387	2194	1312.55
929.0346	1971.7393	2187.25	1304.3
929.1727	1973.3392	2186.65	1306.7
929.3108	1974.9383	2186.3	1306.65
929.4489	1976.5366	2183.2	1300.4
929.5869	1978.1342	2177.65	1298.65
929.7249	1979.7311	2180.9	1300.35
929.8629	1981.3273	2167.4	1284.8
930.0009	1982.9227	2158.95	1276.55
930.1388	1984.5173	2162.3	1281.2
930.2767	1986.1112	2158.4	1277.25
930.4146	1987.7044	2150.5	1271
930.5525	1989.2968	2151.2	1269.45
930.6904	1990.8885	2145.75	1262.6
930.8282	1992.4795	2158.6	1276.45
930.966	1994.0697	2148	1267.75
931.1038	1995.6592	2132.65	1252.05
931.2415	1997.2479	2127.9	1245.05
931.3793	1998.8359	2133.75	1254.15
931.517	2000.4232	2121.75	1240.7
931.6547	2002.0097	2117.15	1237.25
931.7923	2003.5955	2117.7	1239.7
931.93	2005.1805	2123.8	1242.8
932.0676	2006.7648	2120.2	1240.3
932.2052	2008.3484	2101.2	1220.4
932.3427	2009.9312	2117.9	1236.35
932.4803	2011.5133	2099.8	1222.05
932.6178	2013.0946	2100.8	1219.8
932.7553	2014.6752	2091.75	1210.6
932.8928	2016.2551	2092.8	1211.1
933.0302	2017.8342	2090.75	1209.6
933.1676	2019.4126	2085.7	1205.9
933.305	2020.9902	2074.9	1195.95
933.4424	2022.5672	2069.9	1187.35
933.5798	2024.1433	2070.75	1184.6
933.7171	2025.7188	2067.8	1186.85
933.8544	2027.2935	2065.9	1184.1
933.9917	2028.8674	2060.45	1178.4
934.129	2030.4406	2063.25	1182.05
934.2662	2032.0131	2054.05	1174.6
934.4034	2033.5849	2054.9	1164.85
934.5406	2035.1559	2056.6	1175.5
934.6778	2036.7261	2045.65	1163.4
934.8149	2038.2957	2043.35	1162.8
934.952	2039.8645	2045.3	1162.8
935.0891	2041.4325	2041.3	1156.9
935.2262	2042.9998	2034.55	1153.95
935.3632	2044.5664	2040.25	1160.2
935.5002	2046.1323	2031.6	1148.65
935.6372	2047.6974	2022.2	1143.6
935.7742	2049.2617	2016.25	1134.55
935.9111	2050.8254	2023.45	1140.8
936.048	2052.3883	2015.65	1130.6
936.1849	2053.9504	2023.55	1141.9
936.3218	2055.5118	2014.55	1131.35
936.4586	2057.0725	2010.4	1124.55
936.5955	2058.6325	1999.45	1118
936.7323	2060.1917	1991.85	1111.2
936.869	2061.7502	2002.05	1117.45
937.0058	2063.3079	1989.05	1109.85
937.1425	2064.8649	1988.4	1103.6
937.2792	2066.4212	1983.3	1101.15
937.4159	2067.9767	1988.9	1106.8
937.5525	2069.5315	1981.9	1099.35
937.6891	2071.0856	1977.35	1095.9
937.8257	2072.6389	1971.75	1089.25
937.9623	2074.1915	1969.45	1088.3
938.0989	2075.7433	1959.15	1076.95
938.2354	2077.2945	1954.95	1076.5
938.3719	2078.8448	1953	1073.45
938.5084	2080.3945	1945.85	1065.7
938.6448	2081.9434	1948.85	1068.8
938.7812	2083.4916	1938.9	1057.4
938.9176	2085.039	1939.25	1057.5
939.054	2086.5857	1940.75	1060.65
939.1903	2088.1317	1940.25	1060.65
939.3267	2089.677	1937.25	1056.65
939.463	2091.2215	1935.45	1055.95
939.5992	2092.7652	1915.45	1035
939.7355	2094.3083	1922.5	1040.6
939.8717	2095.8506	1927.3	1047.9
940.0079	2097.3921	1926.85	1047.7
940.1441	2098.933	1928.05	1044.2
940.2802	2100.4731	1919.75	1040.2
940.4163	2102.0124	1921.75	1036.05
940.5524	2103.5511	1916.85	1037.6
940.6885	2105.089	1909.95	1028.15
940.8245	2106.6261	1917.3	1037.8
940.9606	2108.1626	1908	1024.15
941.0965	2109.6983	1925.25	1017.05
941.2325	2111.2332	1897.15	1018.45
941.3684	2112.7675	1886.75	1004.35
941.5044	2114.301	1889.65	1005.95
941.6403	2115.8337	1891.6	1009.1
941.7761	2117.3657	1897.65	1018.3
941.912	2118.897	1895.4	1013.1
942.0478	2120.4276	1888.8	1001.8
942.1835	2121.9575	1878.35	998.6
942.3193	2123.4866	1891.4	995.5
942.455	2125.0149	1882.2	1001.15
942.5907	2126.5426	1868.5	986.45
942.7264	2128.0695	1872.05	986.5
942.8621	2129.5956	1876.05	998.6
942.9977	2131.1211	1854.7	968.05
943.1333	2132.6458	1861.1	982.6
943.2689	2134.1698	1860.45	977.5
943.4044	2135.693	1858.65	977.2
943.54	2137.2155	1855.35	973
943.6755	2138.7373	1858.85	975.35
943.8109	2140.2584	1846.45	964.95
943.9464	2141.7787	1849.45	962.9
944.0818	2143.2983	1843.6	962.95
944.2172	2144.8171	1838.2	960.15
944.3526	2146.3353	1839.2	954.1
944.4879	2147.8527	1825.7	945.1
944.6232	2149.3693	1842.15	960
944.7585	2150.8853	1839.05	956.9
944.8938	2152.4005	1825.75	946.75
945.029	2153.9149	1828.9	948.25
945.1642	2155.4287	1822.1	941.4
945.2994	2156.9417	1829.65	949.85
945.4346	2158.454	1826.2	942.15
945.5697	2159.9655	1814.75	934.7
945.7048	2161.4764	1805	924.85
945.8399	2162.9865	1818.35	936.25
945.9749	2164.4958	1806.9	923.95
946.1099	2166.0045	1810.1	925.05
946.2449	2167.5124	1810.5	928.8
946.3799	2169.0195	1805.15	924.75
946.5148	2170.526	1805.65	924.7
946.6498	2172.0317	1797.6	916.95
946.7846	2173.5367	1797.65	914.95
946.9195	2175.0409	1793.05	914.8
947.0543	2176.5445	1797.9	919.65
947.1891	2178.0473	1797.1	914.25
947.3239	2179.5494	1794.15	910.2
947.4587	2181.0507	1785.2	902.95
947.5934	2182.5513	1781.5	901.45
947.7281	2184.0512	1779.55	897.4
947.8628	2185.5504	1783.15	902
947.9974	2187.0488	1772.65	891.85
948.132	2188.5465	1772.75	892.45
948.2666	2190.0435	1768.5	887.2
948.4012	2191.5397	1760.65	877.6
948.5357	2193.0353	1759.05	878.2
948.6702	2194.5301	1765.65	883.35
948.8047	2196.0241	1764	883.5
948.9392	2197.5175	1752.1	873.3
949.0736	2199.0101	1756.65	871.6
949.208	2200.502	1754.4	874.55
949.3424	2201.9931	1741.65	860.85
949.4767	2203.4835	1743.95	858.55
949.611	2204.9733	1754.55	866.8
949.7453	2206.4622	1740.1	860.4
949.8796	2207.9505	1726.45	841.45
950.0138	2209.438	1732.65	852.8
950.148	2210.9248	1727.6	844.1
950.2822	2212.4109	1730.7	849.55
950.4164	2213.8962	1723.65	840.3
950.5505	2215.3809	1733.95	850.75
950.6846	2216.8648	1729.15	848.6
950.8186	2218.3479	1722.4	834.05
950.9527	2219.8304	1722.1	838.2
951.0867	2221.3121	1714.2	830.9
951.2207	2222.7931	1710.8	830.2
951.3546	2224.2733	1706.6	826.25
951.4886	2225.7529	1708.6	826.3
951.6225	2227.2317	1699.3	815.2
951.7563	2228.7098	1708.85	829.7
951.8902	2230.1872	1701.3	819.5
952.024	2231.6638	1706.2	824.2
952.1578	2233.1397	1694.15	808.5
952.2916	2234.6149	1688.7	805.2
952.4253	2236.0894	1687.3	806.35
952.559	2237.5632	1686.3	801.05
952.6927	2239.0362	1681.75	800.05
952.8263	2240.5085	1682.6	801.75
952.9599	2241.9801	1678.9	796.3
953.0935	2243.4509	1672.95	792.3
953.2271	2244.921	1675.1	792.1
953.3606	2246.3904	1662.5	778.6
953.4941	2247.8591	1658.7	777.95
953.6276	2249.3271	1659.35	774.7
953.7611	2250.7943	1657.6	776.8
953.8945	2252.2608	1650.65	771.15
954.0279	2253.7266	1650.9	768.7
954.1612	2255.1917	1644.9	762.7
954.2946	2256.656	1662.55	778.85
954.4279	2258.1197	1644.8	765.45
954.5612	2259.5826	1645.95	762.5
954.6944	2261.0447	1654.05	772.7
954.8276	2262.5062	1639.2	753.8
954.9608	2263.9669	1640.6	756.75
955.094	2265.4269	1632.4	750.6
955.2271	2266.8862	1638.4	755.75
955.3602	2268.3448	1643.05	762.8
955.4933	2269.8026	1643.25	758.9
955.6264	2271.2598	1627.7	746.5
955.7594	2272.7162	1631.25	751.25
955.8924	2274.1719	1631.2	750.25
956.0253	2275.6268	1625.3	745.05
956.1583	2277.0811	1629.4	748.1
956.2912	2278.5346	1624.35	742.3
956.4241	2279.9874	1617.45	735.4
956.5569	2281.4395	1615.15	734
956.6897	2282.8908	1627.75	740.05
956.8225	2284.3414	1625.7	742
956.9553	2285.7914	1613.85	733.9
957.088	2287.2406	1619.25	736.55
957.2207	2288.689	1614.85	733.15
957.3534	2290.1368	1613.6	732.25
957.486	2291.5838	1610.45	727.5
957.6186	2293.0302	1607.3	724.9
957.7512	2294.4758	1602.9	722.3
957.8838	2295.9206	1595.95	711.5
958.0163	2297.3648	1600.65	718.75
958.1488	2298.8082	1603.25	720.8
958.2813	2300.251	1598.75	719.25
958.4137	2301.693	1595.5	711.9
958.5461	2303.1343	1588.75	707
958.6785	2304.5748	1590.7	709.85
958.8108	2306.0147	1585.05	704.65
958.9432	2307.4538	1585.55	701.75
959.0754	2308.8922	1586	706.5
959.2077	2310.3299	1584.7	702.3
959.3399	2311.7669	1580.15	698.25
959.4721	2313.2031	1569.25	684.45
959.6043	2314.6387	1572.75	690.75
959.7365	2316.0735	1573.5	692.15
959.8686	2317.5076	1565.05	682.85
960.0006	2318.941	1575	693.15
960.1327	2320.3737	1568.6	687.15
960.2647	2321.8056	1563.5	678.9
960.3967	2323.2369	1565	683.2
960.5287	2324.6674	1558.6	675.1
960.6606	2326.0972	1562.75	680.1
960.7925	2327.5263	1557.1	676.3
960.9244	2328.9547	1560.9	677.7
961.0562	2330.3823	1562.95	680.25
961.1881	2331.8092	1552.45	667.95
961.3198	2333.2355	1548.65	665.95
961.4516	2334.661	1550.9	669.75
961.5833	2336.0858	1553.7	672.4
961.715	2337.5098	1548.7	666.15
961.8467	2338.9332	1546.1	662.4
961.9783	2340.3558	1542.55	657.3
962.1099	2341.7778	1534.75	652.7
962.2415	2343.199	1540.65	656.05
962.373	2344.6195	1534.15	652.35
962.5045	2346.0393	1537.25	657.1
962.636	2347.4583	1535.2	650.6
962.7675	2348.8767	1539.9	657.3
962.8989	2350.2943	1539.45	657.4
963.0303	2351.7113	1540.95	658.7
963.1617	2353.1275	1535.45	655.2
963.293	2354.543	1557.6	650.3
963.4243	2355.9578	1527.25	645.75
963.5556	2357.3718	1534.45	654.5
963.6868	2358.7852	1540.6	657.2
963.818	2360.1978	1527.5	645.5
963.9492	2361.6098	1517.25	638.2
964.0803	2363.021	1521.95	637.5
964.2114	2364.4315	1527.1	646.2
964.3425	2365.8413	1523.5	636.15
964.4736	2367.2504	1515.5	635.6
964.6046	2368.6587	1515	633.3
964.7356	2370.0664	1508.65	628
964.8666	2371.4733	1509.5	627.1
964.9975	2372.8795	1502.4	621.35
965.1284	2374.285	1501.15	619.85
965.2593	2375.6899	1507.65	626.9
965.3901	2377.0939	1499.4	618.25
965.5209	2378.4973	1498	618.8
965.6517	2379.9	1501.25	618.6
965.7825	2381.3019	1495.35	617
965.9132	2382.7032	1494.95	612.5
966.0439	2384.1037	1492.45	611.55
966.1745	2385.5035	1492.95	610.3
966.3051	2386.9027	1483.55	605.75
966.4357	2388.3011	1489.75	604.7
966.5663	2389.6987	1482.25	601.2
966.6968	2391.0957	1477.85	598.05
966.8273	2392.492	1477.25	597.45
966.9578	2393.8876	1469.75	589.05
967.0882	2395.2824	1467.8	586.6
967.2186	2396.6765	1460	581
967.349	2398.07	1462.45	582.75
967.4793	2399.4627	1465.8	583.65
967.6097	2400.8547	1468.5	588
967.7399	2402.246	1472.8	586.4
967.8702	2403.6366	1463.8	583.1
968.0004	2405.0265	1459.05	577.8
968.1306	2406.4156	1458.4	571.5
968.2607	2407.8041	1457.4	570.7
968.3909	2409.1918	1462	578.4
968.521	2410.5789	1452.9	570.6
968.651	2411.9652	1456.05	572.25
968.781	2413.3508	1446.5	566.95
968.911	2414.7358	1451.7	570.2
969.041	2416.12	1452.25	574.7
969.1709	2417.5035	1449.7	569.35
969.3008	2418.8863	1447.4	566.2
969.4307	2420.2684	1448.65	567.6
969.5606	2421.6497	1444.15	563.4
969.6904	2423.0304	1440.1	560.8
969.8201	2424.4104	1444	563.05
969.9499	2425.7896	1445.1	560
970.0796	2427.1682	1427.5	546.65
970.2093	2428.546	1437.9	554.7
970.3389	2429.9232	1440.95	559.4
970.4685	2431.2996	1436.6	557.05
970.5981	2432.6753	1435	554.75
970.7277	2434.0503	1430.5	550.25
970.8572	2435.4246	1428.4	548.35
970.9867	2436.7982	1431.6	549.4
971.1161	2438.1711	1422.05	543.9
971.2456	2439.5433	1422.4	539.95
971.375	2440.9148	1429.8	544.4
971.5043	2442.2856	1421.5	539.95
971.6336	2443.6557	1422.15	541.35
971.7629	2445.025	1412.5	532.75
971.8922	2446.3937	1409.9	528.45
972.0214	2447.7617	1416.3	535.6
972.1506	2449.1289	1411.95	532.75
972.2798	2450.4955	1415.85	531.55
972.4089	2451.8613	1407.3	528.3
972.538	2453.2265	1409.5	528.1
972.6671	2454.5909	1409.3	528.4
972.7961	2455.9546	1408.95	527.35
972.9251	2457.3177	1407.3	526.9
973.0541	2458.68	1408.9	525.3
973.1831	2460.0416	1402.8	521.85
973.312	2461.4025	1411.2	529.3
973.4408	2462.7627	1417.95	524.1
973.5697	2464.1222	1407.4	527.25
973.6985	2465.4811	1404.5	522.55
973.8273	2466.8392	1407.9	525.75
973.956	2468.1966	1411.1	525.85
974.0847	2469.5533	1400.6	517.1
974.2134	2470.9093	1404.5	525.3
974.3421	2472.2645	1409.8	528
974.4707	2473.6191	1398	515.85
974.5993	2474.973	1397.35	515.7
974.7278	2476.3262	1400.75	519.7
974.8563	2477.6787	1393.3	510.5
974.9848	2479.0305	1384.55	505.25
975.1132	2480.3816	1394.35	510.6
975.2417	2481.7319	1389.7	509.5
975.37	2483.0816	1388.5	503.9
975.4984	2484.4306	1390.7	508.45
975.6267	2485.7789	1384.65	505.15
975.755	2487.1264	1385.2	501.7
975.8833	2488.4733	1391.85	512.05
976.0115	2489.8195	1399.05	500.9
976.1397	2491.165	1384.05	499.15
976.2678	2492.5097	1376.85	495.65
976.3959	2493.8538	1377.55	497.25
976.524	2495.1972	1376.5	494.35
976.6521	2496.5398	1374.1	491.3
976.7801	2497.8818	1368.15	487.7
976.9081	2499.2231	1369.35	488.9
977.036	2500.5637	1369.45	488.05
977.164	2501.9035	1370.95	488
977.2918	2503.2427	1374.25	491.4
977.4197	2504.5812	1362.95	480.05
977.5475	2505.919	1366.35	483.3
977.6753	2507.256	1367.9	484.85
977.8031	2508.5924	1359.2	476.9
977.9308	2509.9281	1363.65	478.95
978.0585	2511.2631	1355.55	472.7
978.1861	2512.5974	1355.35	473.7
978.3137	2513.9309	1359.55	479.6
978.4413	2515.2638	1385.15	478
978.5689	2516.596	1356.5	477.1
978.6964	2517.9275	1359.65	476.15
978.8239	2519.2583	1356.75	475.7
978.9513	2520.5884	1357.8	473.7
979.0788	2521.9178	1357.2	476
979.2062	2523.2465	1356.75	475.15
979.3335	2524.5745	1342.45	461.4
979.4608	2525.9018	1342.4	462.95
979.5881	2527.2284	1343.2	462.6
979.7154	2528.5543	1347.15	465.75
979.8426	2529.8796	1342.15	460.7
979.9698	2531.2041	1341.4	458.3
980.0969	2532.5279	1345.2	464.35
980.224	2533.851	1343.4	461.9
980.3511	2535.1735	1343.9	462.25
980.4781	2536.4952	1346.65	464.8
980.6052	2537.8163	1343.2	461.4
980.7321	2539.1366	1329.9	446.6
980.8591	2540.4562	1338.35	456.6
980.986	2541.7752	1343.2	463.65
981.1129	2543.0935	1345.5	465.05
981.2397	2544.411	1341	458
981.3665	2545.7279	1334.4	453.6
981.4933	2547.0441	1331.75	450.5
981.62	2548.3596	1340.5	455.4
981.7467	2549.6744	1335.6	454.8
981.8734	2550.9885	1332.15	445.6
982.0001	2552.3019	1325.3	445.65
982.1267	2553.6146	1322	441.65
982.2532	2554.9266	1327.9	445.9
982.3798	2556.2379	1325.3	441.65
982.5063	2557.5485	1323.3	443.15
982.6327	2558.8585	1329.85	440.1
982.7592	2560.1677	1326.2	441.7
982.8856	2561.4762	1319.55	438.45
983.0119	2562.7841	1321.75	437.75
983.1383	2564.0913	1317.45	437.5
983.2646	2565.3977	1318.6	438
983.3908	2566.7035	1318.8	437.25
983.517	2568.0086	1318.4	437.25
983.6432	2569.313	1316.6	436.75
983.7694	2570.6167	1315.15	430.4
983.8955	2571.9197	1312.9	430.75
984.0216	2573.222	1319.3	435
984.1476	2574.5236	1315.6	434.3
984.2737	2575.8246	1314.3	429.3
984.3996	2577.1248	1321.95	437.55
984.5256	2578.4244	1309.55	428.85
984.6515	2579.7232	1317.4	436.2
984.7774	2581.0214	1349.15	437.35
984.9032	2582.3189	1316	434.3
985.029	2583.6157	1321.35	436.5
985.1548	2584.9118	1325.9	444.3
985.2806	2586.2072	1316.85	436.35
985.4063	2587.5019	1323.95	442.7
985.5319	2588.7959	1323.65	441.3
985.6576	2590.0893	1324.05	439.65
985.7832	2591.3819	1326	446.2
985.9087	2592.6739	1318.2	437.2
986.0343	2593.9652	1327.65	446.85
986.1597	2595.2557	1330.4	449.9
986.2852	2596.5456	1332.25	448.2
986.4106	2597.8348	1332	451.9
986.536	2599.1234	1333.65	454.15
986.6614	2600.4112	1332.6	449.15
986.7867	2601.6983	1339.65	454.55
986.912	2602.9848	1340.25	458.65
987.0372	2604.2705	1336.7	449.7
987.1624	2605.5556	1340.1	459.75
987.2876	2606.84	1328.85	447.35
987.4128	2608.1237	1333.5	451.5
987.5379	2609.4067	1331.65	449.35
987.6629	2610.689	1337.35	447.65
987.788	2611.9707	1332.1	445.65
987.913	2613.2516	1331.8	447.9
988.0379	2614.5319	1323.45	442.5
988.1629	2615.8115	1327	445.25
988.2878	2617.0903	1321.45	437.75
988.4126	2618.3685	1319.85	438.7
988.5375	2619.6461	1318.35	436.8
988.6622	2620.9229	1326.25	443.9
988.787	2622.199	1324.4	441.5
988.9117	2623.4745	1322.8	441
989.0364	2624.7493	1330.75	451.15
989.161	2626.0234	1316.35	435.85
989.2857	2627.2968	1328.75	446.9
989.4102	2628.5695	1324.45	442.45
989.5348	2629.8415	1324.5	443.9
989.6593	2631.1128	1326.6	444.05
989.7837	2632.3835	1319.95	438.2
989.9082	2633.6535	1324.1	443.7
990.0326	2634.9228	1321.4	442.85
990.1569	2636.1914	1325.75	443.55
990.2812	2637.4593	1330.6	446.85
990.4055	2638.7265	1325.85	443.5
990.5298	2639.9931	1326	447.55
990.654	2641.259	1323.9	441.5
990.7782	2642.5242	1315.3	434
990.9023	2643.7887	1322.25	441.7
991.0264	2645.0525	1322.7	442.2
991.1505	2646.3156	1322.9	439.5
991.2745	2647.5781	1317.7	437.15
991.3985	2648.8398	1313.15	430.85
991.5225	2650.1009	1315.5	425.6
991.6464	2651.3613	1314	434.75
991.7703	2652.6211	1311.5	428.55
991.8942	2653.8801	1310.45	430.45
992.018	2655.1385	1311.65	425.25
992.1418	2656.3961	1304.7	423.65
992.2655	2657.6531	1308.85	426.5
992.3892	2658.9094	1312.3	429.25
992.5129	2660.1651	1321.05	440.7
992.6366	2661.42	1313.75	434.05
992.7602	2662.6743	1318.55	435.75
992.8837	2663.9279	1311.1	434
993.0073	2665.1808	1320.8	439.15
993.1307	2666.433	1321.05	437.1
993.2542	2667.6846	1325.15	443.75
993.3776	2668.9354	1326.05	441.1
993.501	2670.1856	1327.05	444.8
993.6244	2671.4351	1322.6	439.6
993.7477	2672.6839	1335.35	452.5
993.8709	2673.9321	1334.3	453.15
993.9942	2675.1795	1335.9	454.2
994.1174	2676.4263	1345	465.3
994.2405	2677.6724	1343.6	463.4
994.3637	2678.9179	1344.4	462.4
994.4868	2680.1626	1341.4	461.25
994.6098	2681.4067	1348.15	465.4
994.7328	2682.6501	1344.1	462.85
994.8558	2683.8928	1346.75	464.9
994.9788	2685.1348	1339.3	457.85
995.1017	2686.3761	1334.95	452.3
995.2245	2687.6168	1335.4	455.25
995.3474	2688.8568	1334.6	453.5
995.4702	2690.0961	1331.7	450.85
995.5929	2691.3348	1330.8	448.15
995.7156	2692.5727	1326.75	444.85
995.8383	2693.81	1324.65	442.6
995.961	2695.0466	1319.3	439.55
996.0836	2696.2826	1329.15	445.45
996.2062	2697.5178	1324.7	438
996.3287	2698.7524	1323.1	442.2
996.4512	2699.9863	1335.5	451.75
996.5737	2701.2195	1321.95	439.75
996.6961	2702.452	1330.85	445.55
996.8185	2703.6839	1339.5	456.75
996.9408	2704.9151	1335.65	455.05
997.0631	2706.1456	1347.2	463.45
997.1854	2707.3755	1353.25	470.35
997.3077	2708.6046	1360.65	476.05
997.4299	2709.8331	1369.8	490.05
997.552	2711.0609	1370.95	490.85
997.6742	2712.2881	1386.25	505.9
997.7963	2713.5145	1395.7	512.8
997.9183	2714.7403	1405.45	525.15
998.0403	2715.9654	1412.1	530.8
998.1623	2717.1899	1434.45	536.6
998.2842	2718.4136	1435.9	553.95
998.4062	2719.6367	1457.8	576.2
998.528	2720.8591	1467.2	578.4
998.6498	2722.0809	1468.45	585.55
998.7716	2723.3019	1488.3	604.95
998.8934	2724.5223	1494.8	611.4
999.0151	2725.7421	1499	615.75
999.1368	2726.9611	1504.85	622.7
999.2584	2728.1795	1502.65	616
999.38	2729.3972	1493	611.5
999.5016	2730.6142	1489.05	593.6
999.6231	2731.8306	1473.35	592.2
999.7446	2733.0462	1455.6	570.05
999.8661	2734.2612	1444.1	558.9
999.9875	2735.4756	1423.9	541.45
1000.1089	2736.6892	1409.15	527
1000.2302	2737.9022	1390.75	511.45
1000.3515	2739.1145	1385.25	503.2
1000.4728	2740.3262	1374.35	483.75
1000.594	2741.5372	1353.45	472.95
1000.7152	2742.7475	1342.5	460.35
1000.8363	2743.9571	1334.85	452.85
1000.9575	2745.1661	1330.1	444
1001.0785	2746.3744	1318.65	436.4
1001.1996	2747.582	1303.95	420.25
1001.3206	2748.7889	1300.4	417.15
1001.4415	2749.9952	1293.55	413.25
1001.5625	2751.2008	1292.85	411.7
1001.6833	2752.4057	1290.95	406.6
1001.8042	2753.61	1283.05	400.1
1001.925	2754.8136	1281.3	395.75
1002.0458	2756.0165	1285.4	403.45
1002.1665	2757.2188	1279.55	397.85
1002.2872	2758.4204	1280.25	398.65
1002.4078	2759.6213	1281.5	397.3
1002.5285	2760.8215	1287.25	398.7
1002.649	2762.0211	1286.75	403.25
1002.7696	2763.22	1276.25	389.9
1002.8901	2764.4182	1280.7	398.15
1003.0106	2765.6158	1277	395.8
1003.131	2766.8127	1270.15	388.75
1003.2514	2768.009	1272.55	391.2
1003.3717	2769.2045	1265.65	382.35
1003.492	2770.3994	1273.6	390.65
1003.6123	2771.5936	1258.3	378.1
1003.7325	2772.7872	1261.45	379
1003.8527	2773.9801	1263.25	380.4
1003.9729	2775.1723	1284.55	386.2
1004.093	2776.3639	1260.25	379.45
1004.2131	2777.5548	1263	381.05
1004.3331	2778.745	1267	383.1
1004.4531	2779.9346	1266.9	385.15
1004.5731	2781.1235	1270.7	388.55
1004.693	2782.3117	1278.05	397.4
1004.8129	2783.4992	1282.25	398.55
1004.9328	2784.6861	1284.95	402.1
1005.0526	2785.8723	1294.95	411.65
1005.1723	2787.0579	1298.7	417.05
1005.2921	2788.2428	1304.85	423.15
1005.4118	2789.427	1314.7	432.75
1005.5314	2790.6106	1326.05	442.7
1005.651	2791.7935	1335.2	453.5
1005.7706	2792.9757	1352.45	471
1005.8902	2794.1573	1377.2	493.1
1006.0097	2795.3382	1384	502.15
1006.1291	2796.5184	1393.45	513.2
1006.2485	2797.698	1414.35	529.65
1006.3679	2798.8769	1429.45	549.55
1006.4873	2800.0551	1447.95	562.7
1006.6066	2801.2327	1476.45	591.7
1006.7258	2802.4096	1497.3	617.45
1006.8451	2803.5859	1517.3	635.2
1006.9642	2804.7615	1543.25	661.15
1007.0834	2805.9364	1563.5	682.05
1007.2025	2807.1106	1591.1	708.8
1007.3216	2808.2842	1624.7	741.75
1007.4406	2809.4572	1660.05	777.3
1007.5596	2810.6294	1702.35	819.8
1007.6785	2811.801	1732.8	852.15
1007.7975	2812.972	1779.95	899.1
1007.9163	2814.1423	1818	938.25
1008.0352	2815.3119	1875.65	992.05
1008.154	2816.4808	1925.85	1045.3
1008.2727	2817.6491	1972.9	1091.05
1008.3914	2818.8167	2018.4	1136.8
1008.5101	2819.9837	2083.3	1198.9
1008.6288	2821.15	2129	1246.3
1008.7474	2822.3157	2178.4	1299.3
1008.8659	2823.4807	2220.05	1337
1008.9844	2824.645	2269.5	1387.65
1009.1029	2825.8086	2308.1	1426.9
1009.2214	2826.9716	2350.8	1470.1
1009.3398	2828.134	2379.25	1495.85
1009.4581	2829.2957	2422.75	1541.75
1009.5764	2830.4567	2448.95	1566.95
1009.6947	2831.617	2459	1577.35
1009.813	2832.7767	2482.65	1600.5
1009.9312	2833.9358	2485.95	1609.8
1010.0493	2835.0941	2486.3	1604.15
1010.1675	2836.2519	2489.6	1608.7
1010.2855	2837.4089	2467.55	1587.55
1010.4036	2838.5653	2447.45	1567.05
1010.5216	2839.7211	2452.05	1569.1
1010.6396	2840.8761	2464.8	1581.65
1010.7575	2842.0306	2489	1608.85
1010.8754	2843.1843	2512.85	1632.65
1010.9932	2844.3374	2576.15	1695.8
1011.111	2845.4899	2630.05	1748.2
1011.2288	2846.6417	2697.75	1817.4
1011.3465	2847.7928	2776.75	1894.55
1011.4642	2848.9433	2856.35	1977.45
1011.5818	2850.0931	2940.1	2058.25
1011.6995	2851.2422	3036.8	2153.5
1011.817	2852.3907	3099.75	2215.75
1011.9345	2853.5385	3178.35	2295.15
1012.052	2854.6857	3253.7	2347
1012.1695	2855.8323	3289.7	2409.6
1012.2869	2856.9781	3344.5	2462.5
1012.4042	2858.1233	3404.6	2521.55
1012.5216	2859.2679	3444.85	2563
1012.6389	2860.4118	3497.3	2615.55
1012.7561	2861.555	3525.45	2637.05
1012.8733	2862.6976	3578.25	2694.15
1012.9905	2863.8395	3604.3	2723.1
1013.1076	2864.9808	3635.75	2754.1
1013.2247	2866.1214	3655.7	2774.55
1013.3417	2867.2614	3673.85	2791.85
1013.4587	2868.4007	3678.55	2795.7
1013.5757	2869.5393	3699.3	2815.85
1013.6926	2870.6773	3718.95	2835.6
1013.8095	2871.8146	3725.6	2840.15
1013.9263	2872.9513	3716.2	2831.95
1014.0431	2874.0874	3725.3	2842.05
1014.1599	2875.2227	3715.5	2835.15
1014.2766	2876.3574	3708.35	2826.55
1014.3933	2877.4915	3677.2	2795.7
1014.51	2878.6249	3648.3	2769.7
1014.6266	2879.7577	3651.7	2768.45
1014.7431	2880.8898	3611.8	2719.7
1014.8596	2882.0212	3605.9	2724.35
1014.9761	2883.152	3591.75	2710.3
1015.0925	2884.2821	3578.7	2697.7
1015.2089	2885.4116	3562.7	2681.5
1015.3253	2886.5405	3564.05	2683.9
1015.4416	2887.6686	3581.3	2696
1015.5579	2888.7962	3568.6	2688.85
1015.6741	2889.923	3600.05	2719.1
1015.7903	2891.0493	3599.05	2718.1
1015.9065	2892.1748	3615.95	2734.35
1016.0226	2893.2997	3623.35	2742.8
1016.1387	2894.424	3630.7	2751.2
1016.2547	2895.5476	3669.4	2787.05
1016.3707	2896.6706	3690	2809.75
1016.4866	2897.7929	3701.85	2817.5
1016.6025	2898.9145	3739.3	2857.45
1016.7184	2900.0355	3774	2892.05
1016.8342	2901.1559	3807.55	2926.65
1016.95	2902.2756	3835.5	2952.3
1017.0658	2903.3946	3860.45	2980.7
1017.1815	2904.513	3895.95	3010.6
1017.2971	2905.6308	3920.6	3040.6
1017.4127	2906.7479	3960.6	3079.65
1017.5283	2907.8643	3995.2	3114.95
1017.6439	2908.9801	4007.8	3126.95
1017.7594	2910.0953	4015.6	3135.05
1017.8748	2911.2098	4015.25	3131
1017.9902	2912.3236	4012.2	3121.15
1018.1056	2913.4368	4006	3122
1018.2209	2914.5494	3999.6	3116.45
1018.3362	2915.6613	3958.6	3070.45
1018.4515	2916.7725	3933.65	3049.8
1018.5667	2917.8831	3910.15	3027.4
1018.6819	2918.9931	3886.85	3001.95
1018.797	2920.1024	3851.3	2969.25
1018.9121	2921.211	3847.2	2963.75
1019.0271	2922.319	3820.3	2939
1019.1421	2923.4264	3794.7	2913.95
1019.2571	2924.5331	3774.5	2893.1
1019.372	2925.6391	3762.6	2882.65
1019.4869	2926.7445	3766.35	2886.1
1019.6017	2927.8493	3742.75	2858.7
1019.7165	2928.9534	3741.75	2859.05
1019.8313	2930.0569	3734.1	2851.95
1019.946	2931.1597	3713.75	2832
1020.0606	2932.2619	3713.3	2831.95
1020.1753	2933.3634	3709.1	2828.1
1020.2899	2934.4643	3701	2812
1020.4044	2935.5645	3669.85	2782.65
1020.5189	2936.6641	3640.95	2755.05
1020.6334	2937.763	3592.95	2710.5
1020.7478	2938.8613	3551.25	2668.25
1020.8622	2939.959	3492.9	2604
1020.9765	2941.056	3404.95	2523.25
1021.0908	2942.1523	3326.45	2446.15
1021.2051	2943.248	3241.9	2360.95
1021.3193	2944.3431	3147.4	2266.5
1021.4334	2945.4375	3037.3	2156.45
1021.5476	2946.5313	2924.9	2044.7
1021.6617	2947.6244	2815.1	1933.1
1021.7757	2948.7169	2706.6	1823.15
1021.8897	2949.8087	2615.95	1733.35
1022.0037	2950.8999	2522.3	1641
1022.1176	2951.9904	2446.55	1566.7
1022.2315	2953.0803	2354.75	1471.6
1022.3453	2954.1696	2303.65	1422.7
1022.4591	2955.2582	2245.35	1363.95
1022.5728	2956.3462	2187.45	1305.95
1022.6865	2957.4335	2150.45	1268.05
1022.8002	2958.5202	2109.95	1224.65
1022.9138	2959.6062	2071.9	1191.3
1023.0274	2960.6916	2058	1177.2
1023.141	2961.7764	2038.1	1154.15
1023.2545	2962.8605	2027.6	1146.3
1023.3679	2963.9439	2013.35	1134.1
1023.4813	2965.0267	1995.85	1114.6
1023.5947	2966.1089	2004.35	1098.75
1023.708	2967.1905	1983.65	1101.3
1023.8213	2968.2714	1969.1	1089.65
1023.9346	2969.3516	1974.65	1093.25
1024.0478	2970.4312	1990.35	1102.25
1024.1609	2971.5102	1982.2	1098.65
1024.274	2972.5885	1981.05	1101
1024.3871	2973.6662	1991.45	1104.9
1024.5002	2974.7432	1968.95	1087.5
1024.6132	2975.8196	1960.95	1077.5
1024.7261	2976.8954	1955.85	1074.9
1024.839	2977.9705	1947.5	1065.65
1024.9519	2979.045	1933.85	1053.05
1025.0647	2980.1188	1916.35	1034.2
1025.1775	2981.192	1893.7	1014.05
1025.2902	2982.2645	1896	1013.65
1025.4029	2983.3364	1853.65	971.9
1025.5156	2984.4077	1821.35	940.15
1025.6282	2985.4783	1801.6	914.15
1025.7407	2986.5483	1756.6	878.45
1025.8532	2987.6177	1722.95	841.15
1025.9657	2988.6864	1690.55	809.25
1026.0782	2989.7545	1663.5	778.6
1026.1906	2990.8219	1624.6	745.55
1026.3029	2991.8887	1590.95	706.2
1026.4152	2992.9548	1567.8	686.05
1026.5275	2994.0204	1526.45	645.75
1026.6397	2995.0852	1498.55	618.65
1026.7519	2996.1495	1475.8	592.9
1026.864	2997.2131	1455.2	574.35
1026.9761	2998.276	1434.1	551.25
1027.0882	2999.3383	1415.3	533.45
1027.2002	3000.4	1389.85	507.75
1027.3122	3001.4611	1375.15	493.5
1027.4241	3002.5215	1364.45	482.45
1027.536	3003.5812	1349.55	465.9
1027.6478	3004.6404	1341.2	457.55
1027.7596	3005.6989	1327.15	443.4
1027.8714	3006.7567	1322.15	440.4
1027.9831	3007.8139	1323.05	423.75
1028.0947	3008.8705	1304.15	422.4
1028.2064	3009.9264	1305.35	420.75
1028.3179	3010.9818	1301.1	420.45
1028.4295	3012.0364	1293.75	410.85
1028.541	3013.0905	1290.15	408.65
1028.6524	3014.1439	1291.3	409.25
1028.7638	3015.1966	1286.65	405.6
1028.8752	3016.2487	1286.4	406.5
1028.9865	3017.3002	1286.8	401.4
1029.0978	3018.3511	1280.6	401
1029.209	3019.4013	1289.1	408.65
1029.3202	3020.4509	1280.8	400.45
1029.4314	3021.4998	1294.35	413.95
1029.5425	3022.5481	1294.25	412.55
1029.6535	3023.5958	1293.9	413.45
1029.7645	3024.6428	1299.05	415.45
1029.8755	3025.6892	1289.3	406.5
1029.9864	3026.735	1300.5	418.6
1030.0973	3027.7802	1300.5	418.1
1030.2082	3028.8247	1302.45	421.05
1030.319	3029.8685	1303.45	421.85
1030.4297	3030.9118	1310.4	429.35
1030.5404	3031.9544	1310.3	428.4
1030.6511	3032.9963	1323.6	441.95
1030.7617	3034.0376	1322.55	441.55
1030.8723	3035.0783	1330.25	446.2
1030.9829	3036.1184	1336.3	454.9
1031.0934	3037.1578	1333.45	455.3
1031.2038	3038.1966	1345.2	460.95
1031.3142	3039.2348	1346.65	468.05
1031.4246	3040.2723	1355.2	465.7
1031.5349	3041.3092	1344.55	464.4
1031.6452	3042.3455	1335.75	454.5
1031.7554	3043.3811	1336.85	452.85
1031.8656	3044.4161	1337.95	456.05
1031.9758	3045.4505	1326	446.4
1032.0859	3046.4842	1324	441.55
1032.1959	3047.5173	1315.65	436.3
1032.3059	3048.5498	1311.35	429.25
1032.4159	3049.5816	1304	424.15
1032.5258	3050.6128	1293.95	410.4
1032.6357	3051.6434	1292.3	409.35
1032.7455	3052.6734	1277.25	395.2
1032.8553	3053.7027	1279.15	398.95
1032.9651	3054.7314	1267.6	387.35
1033.0748	3055.7594	1264.25	383.35
1033.1845	3056.7868	1258.9	376
1033.2941	3057.8136	1254.1	374.55
1033.4037	3058.8398	1245.5	366.15
1033.5132	3059.8653	1248.7	366.9
1033.6227	3060.8902	1236.25	354.6
1033.7321	3061.9145	1232.6	350.4
1033.8415	3062.9381	1228.1	347.7
1033.9509	3063.9612	1243.1	344.35
1034.0602	3064.9835	1218.8	337.4
1034.1694	3066.0053	1207.8	327.35
1034.2787	3067.0264	1201.9	321.05
1034.3878	3068.0469	1196.35	315.7
1034.497	3069.0668	1184.15	300.15
1034.6061	3070.086	1179	298.25
1034.7151	3071.1046	1172.8	291.25
1034.8241	3072.1226	1165.35	283.4
1034.9331	3073.1399	1155.1	275
1035.042	3074.1567	1145.7	263.8
1035.1508	3075.1727	1135.45	253.45
1035.2597	3076.1882	1124.15	242.15
1035.3684	3077.203	1118.75	238
1035.4772	3078.2173	1106.05	224.1
1035.5859	3079.2308	1101.65	215.95
1035.6945	3080.2438	1094.4	210.6
1035.8031	3081.2561	1082.5	202.75
1035.9117	3082.2678	1080.3	199.1
1036.0202	3083.2789	1070.25	189.75
1036.1286	3084.2893	1061.7	180.45
1036.2371	3085.2991	1066.15	185.3
1036.3454	3086.3083	1060.9	176.65
1036.4538	3087.3169	1051.15	168.05
1036.562	3088.3248	1046.25	163.5
1036.6703	3089.3321	1041.5	157.85
1036.7785	3090.3388	1035.95	155.65
1036.8866	3091.3449	1032.05	152.05
1036.9948	3092.3503	1029.2	146.9
1037.1028	3093.3551	1022.15	142.4
1037.2108	3094.3593	1022.5	143.9
1037.3188	3095.3629	1019.5	139.3
1037.4267	3096.3658	1018.75	137.45
1037.5346	3097.3681	1015.8	135
1037.6425	3098.3698	1013.75	132.2
1037.7503	3099.3708	1008.4	127.05
1037.858	3100.3713	1007.25	127.05
1037.9657	3101.3711	1005.9	124
1038.0734	3102.3702	1143.5	118.65
1038.181	3103.3688	1004.85	121.95
1038.2886	3104.3667	997.45	117.05
1038.3961	3105.364	996.2	115.4
1038.5036	3106.3607	993.45	110.2
1038.611	3107.3568	991.7	109.1
1038.7184	3108.3522	991.75	113.55
1038.8257	3109.347	993.3	111.75
1038.933	3110.3412	997.6	112.45
1039.0403	3111.3348	993.25	113.1
1039.1475	3112.3277	989.2	109.95
1039.2547	3113.32	987.3	109.2
1039.3618	3114.3117	985.7	103.7
1039.4689	3115.3028	985.4	103.85
1039.5759	3116.2932	984.75	100.25
1039.6829	3117.2831	986.9	102.3
1039.7898	3118.2723	984.8	104.45
1039.8967	3119.2608	981.3	100.5
1040.0035	3120.2488	979.2	98.1
1040.1103	3121.2361	981.45	99.45
1040.2171	3122.2229	974.1	94.3
1040.3238	3123.209	979.65	96.8
1040.4305	3124.1944	973.7	92.9
1040.5371	3125.1793	978.15	93.55
1040.6437	3126.1635	971.95	92.9
1040.7502	3127.1471	973	92.7
1040.8567	3128.1301	973	91.75
1040.9631	3129.1125	969.2	89
1041.0695	3130.0942	972.2	90.6
1041.1759	3131.0753	982.3	92.6
1041.2822	3132.0558	972.75	89.8
1041.3884	3133.0357	965.9	84.8
1041.4946	3134.015	968.65	87.7
1041.6008	3134.9936	965.35	81.65
1041.7069	3135.9716	989.05	87.05
1041.813	3136.949	964.3	84.15
1041.919	3137.9258	981.85	80.75
1042.025	3138.902	969.8	83.65
1042.1309	3139.8775	962.45	84.05
1042.2368	3140.8524	957.05	75.75
1042.3427	3141.8267	963.95	81.35
1042.4485	3142.8004	959.4	80
1042.5542	3143.7735	963.95	75.85
1042.6599	3144.7459	959.15	78
1042.7656	3145.7178	956.75	75.9
1042.8712	3146.689	955.7	76.3
1042.9768	3147.6596	954.8	73.5
1043.0823	3148.6295	954.5	73.05
1043.1878	3149.5989	953.45	72.45
1043.2932	3150.5676	950.05	68.7
1043.3986	3151.5357	952.25	72.05
1043.5039	3152.5032	950.1	71.1
1043.6092	3153.4701	951.5	72
1043.7145	3154.4364	948.2	65
1043.8197	3155.402	948.05	69.3
1043.9248	3156.367	951.15	68.35
1044.03	3157.3315	989.95	62.9
1044.135	3158.2952	951.1	68.2
1044.24	3159.2584	944.85	64.2
1044.345	3160.221	946.15	65.2
1044.4499	3161.1829	945.05	62.9
1044.5548	3162.1442	944.2	63.75
1044.6596	3163.105	940.55	59.15
1044.7644	3164.065	943	60.8
1044.8692	3165.0245	945.9	62.2
1044.9739	3165.9834	941.65	61.95
1045.0785	3166.9416	942.3	61.7
1045.1831	3167.8993	946.5	65.95
1045.2877	3168.8563	941.45	60.2
1045.3922	3169.8127	943.1	63.45
1045.4966	3170.7684	941.25	58
1045.6011	3171.7236	940.1	58.7
1045.7054	3172.6782	936.45	55.65
1045.8098	3173.6321	938.8	57.2
1045.914	3174.5854	940.3	53.2
1046.0183	3175.5381	939.1	58.55
1046.1224	3176.4902	937.95	58.8
1046.2266	3177.4417	936.4	56.75
1046.3307	3178.3926	941.15	60.5
1046.4347	3179.3428	936.7	56.9
1046.5387	3180.2924	935.7	55.75
1046.6427	3181.2415	933.2	52.7
1046.7466	3182.1899	934.9	52.1
1046.8504	3183.1377	936.25	57.3
1046.9542	3184.0848	936.55	51.8
1047.058	3185.0314	938	58.25
1047.1617	3185.9773	935.6	55.25
1047.2654	3186.9227	935.55	54.25
1047.369	3187.8674	935	57.05
1047.4726	3188.8115	938.4	53.55
1047.5761	3189.755	933.95	53
1047.6796	3190.6979	929.3	48.5
1047.783	3191.6402	931.2	52.25
1047.8864	3192.5818	931.9	50.9
1047.9898	3193.5229	953.25	53.35
1048.0931	3194.4633	934.3	56.95
1048.1963	3195.4031	930.55	46.45
1048.2995	3196.3423	930.3	49.6
1048.4027	3197.2809	927.6	47.75
1048.5058	3198.2189	935.4	53.55
1048.6089	3199.1563	948.7	51.95
1048.7119	3200.0931	927.7	48.5
1048.8148	3201.0292	925.9	44.45
1048.9178	3201.9648	927.6	49.35
1049.0206	3202.8997	931.7	46.25
1049.1235	3203.834	926.7	45.2
1049.2262	3204.7677	928.3	48.15
1049.329	3205.7008	931.5	49.65
1049.4317	3206.6333	927.25	47.4
1049.5343	3207.5652	928.75	44.55
1049.6369	3208.4964	928.75	49
1049.7394	3209.4271	924.8	44.4
1049.8419	3210.3571	927.6	49.35
1049.9444	3211.2865	927.9	48.15
1050.0468	3212.2154	927.9	46.3
1050.1491	3213.1436	926	41.9
1050.2514	3214.0712	930.5	41.6
1050.3537	3214.9982	924.15	43
1050.4559	3215.9246	927.1	44.95
1050.5581	3216.8503	923.1	43.65
1050.6602	3217.7755	927.45	46.2
1050.7623	3218.7001	926.5	47
1050.8643	3219.624	926.1	43.7
1050.9663	3220.5473	924.75	44
1051.0682	3221.4701	925.8	43.6
1051.1701	3222.3922	922.9	38.65
1051.2719	3223.3137	920.6	39.9
1051.3737	3224.2346	923.15	43.7
1051.4754	3225.1549	920.45	40.3
1051.5771	3226.0746	922.5	42.5
1051.6788	3226.9937	918.15	36.95
1051.7804	3227.9121	920.45	42.1
1051.8819	3228.83	922.9	42.15
1051.9834	3229.7473	923.1	42.75
1052.0849	3230.6639	922.6	43.05
1052.1863	3231.5799	920.75	39.05
1052.2876	3232.4954	920.25	39.65
1052.3889	3233.4102	919.95	39
1052.4902	3234.3244	922.95	44.1
1052.5914	3235.238	920.25	41.1
1052.6926	3236.151	945.05	37.2
1052.7937	3237.0634	918.1	38.6
1052.8948	3237.9752	920.6	39.05
1052.9958	3238.8864	919.9	39.75
1053.0968	3239.797	917.35	36.7
1053.1977	3240.7069	920.45	40.4
1053.2986	3241.6163	919.75	37.6
1053.3994	3242.5251	918.6	37.65
1053.5002	3243.4332	916.55	37.45
1053.6009	3244.3408	919.7	39.05
1053.7016	3245.2477	917.3	36.1
1053.8022	3246.154	915.95	32.95
1053.9028	3247.0598	918.7	38.7
1054.0034	3247.9649	918.05	36.25
1054.1039	3248.8694	915.55	35.5
1054.2043	3249.7733	915.4	35.95
1054.3047	3250.6766	917.05	34
1054.4051	3251.5793	917.85	36.85
1054.5054	3252.4814	913.1	32
1054.6056	3253.3829	913.85	35.45
1054.7058	3254.2838	913.9	33.45
1054.806	3255.1841	914.45	35.05
1054.9061	3256.0838	913.2	33
1055.0061	3256.9829	910.65	31
1055.1062	3257.8814	914.25	31.4
1055.2061	3258.7792	914.55	34.6
1055.306	3259.6765	912.95	30.7
1055.4059	3260.5731	911.15	31.85
1055.5057	3261.4692	912.5	28.35
1055.6055	3262.3647	911.05	32.3
1055.7052	3263.2595	909.95	30.25
1055.8049	3264.1538	908.2	31.05
1055.9045	3265.0474	909.7	29.6
1056.0041	3265.9404	906.45	26.85
1056.1036	3266.8329	907.3	27.3
1056.2031	3267.7247	915.95	26.6
1056.3025	3268.616	906.35	25.55
1056.4019	3269.5066	907	26.65
1056.5013	3270.3966	906.6	24.6
1056.6005	3271.286	903.25	24.45
