Software Version:	3.9.2.0
Unit SN:	10000200
Spectrometer SN:	6960
Date:	3/14/2024 12:26:30 PM
Data Line Index:	25
Spectral Points:	2048
Integration time (ms):	125
Averages:	20
Delay (ms):	30000
Sequence Number:	1
Processing:	dark subtract
Laser Power (mW):	305
Laser Current (mA):	815
Laser Diode Temp (C):	25
Laser Case Temp (C):	25.4
System Temp (C):	25.2
Spectrometer Temp (C):	23.1
CCD Temp (C):	-0.008
Secondary Temp (C):	20.022
Heatsink Temp (C):	22.308
CCDPCB Temp (C):	36.051
SecondaryPCB Temp (C):	29.482

Wavelength	RamanShift	Raw Counts	Dark Subtracted
787.061	30.1047	419.5	6.9
787.2016	32.3739	420.5	9.05
787.3422	34.6426	422.9	10.3
787.4828	36.9109	424.5	9
787.6235	39.1787	430.65	12.05
787.7642	41.4461	435.95	11.55
787.9049	43.7131	440.25	14.55
788.0456	45.9796	441.65	12.45
788.1863	48.2456	451.2	18.75
788.3271	50.5112	454.4	16.4
788.4679	52.7764	458.85	19.4
788.6087	55.0411	463.3	20.3
788.7496	57.3054	468.7	20.5
788.8904	59.5692	472.75	24.35
789.0313	61.8326	478.85	26
789.1722	64.0955	486.05	29.35
789.3132	66.3579	492.7	31.95
789.4541	68.6199	500.7	37.05
789.5951	70.8815	512.7	46.9
789.7361	73.1426	537.1	67.7
789.8771	75.4032	593.5	117.2
790.0181	77.6634	722.55	243.25
790.1592	79.9231	1027.3	543.3
790.3003	82.1824	1655.65	1168.45
790.4414	84.4412	2690.7	2199.95
790.5825	86.6995	4074.6	3578.45
790.7237	88.9574	5420	4923
790.8648	91.2148	6377.55	5877.05
791.006	93.4717	6818	6313.6
791.1472	95.7282	6915.6	6409.65
791.2885	97.9842	6887.95	6379.6
791.4297	100.2398	6803.2	6293.15
791.571	102.4949	6693	6177.7
791.7123	104.7495	6608.45	6090.6
791.8536	107.0036	6505.85	5986.1
791.9949	109.2573	6373	5853.65
792.1363	111.5105	6237.8	5718.7
792.2777	113.7632	6060.55	5539
792.4191	116.0154	5867.8	5335.15
792.5605	118.2672	5652.45	5126.45
792.7019	120.5185	5409.85	4882.55
792.8434	122.7693	5186.45	4655
792.9849	125.0197	4980.4	4446.35
793.1264	127.2696	4791.5	4255.65
793.2679	129.519	4675.2	4136.55
793.4094	131.7679	4590.55	4049.9
793.551	134.0163	4528.85	3981
793.6926	136.2642	4498.05	3948.15
793.8342	138.5117	4501.2	3946.6
793.9758	140.7587	4465.35	3913.05
794.1175	143.0052	4399.3	3843.6
794.2591	145.2512	4282.95	3728.05
794.4008	147.4967	4176.5	3620.3
794.5425	149.7417	4048.35	3487.85
794.6842	151.9863	3973.9	3409.7
794.826	154.2304	3917.75	3348.45
794.9677	156.4739	3898.3	3322.6
795.1095	158.717	3925.8	3353.7
795.2513	160.9596	3960.5	3381.95
795.3931	163.2017	4028.75	3449.45
795.535	165.4433	4089.55	3509.4
795.6768	167.6844	4106.95	3522.9
795.8187	169.925	4066.8	3481.25
795.9606	172.1651	3949.7	3359.4
796.1025	174.4047	3825.15	3230.5
796.2445	176.6439	3735.75	3139.05
796.3864	178.8825	3653.8	3053.8
796.5284	181.1206	3615.65	3014.6
796.6704	183.3582	3560.4	2953.15
796.8124	185.5954	3549.65	2942.6
796.9544	187.832	3538.2	2926.3
797.0965	190.0681	3539.2	2925.6
797.2386	192.3037	3538.95	2922.45
797.3806	194.5388	3557.85	2938.25
797.5228	196.7734	3566.05	2944
797.6649	199.0075	3609.9	2985.55
797.807	201.2411	3653.65	3026.3
797.9492	203.4742	3691.15	3063.5
798.0914	205.7068	3738.9	3109.65
798.2336	207.9389	3780.7	3150.55
798.3758	210.1704	3816	3182.15
798.518	212.4015	3832.2	3193.8
798.6603	214.632	3835.95	3198.15
798.8025	216.862	3828.85	3198.85
798.9448	219.0915	3849.2	3226.9
799.0871	221.3205	3874.7	3255.4
799.2294	223.549	3885.45	3270.35
799.3718	225.777	3899.85	3285.2
799.5141	228.0044	3884.45	3263.6
799.6565	230.2314	3874.75	3259.95
799.7989	232.4578	3848.05	3229.85
799.9413	234.6837	3823.8	3194.85
800.0837	236.909	3792.25	3166.1
800.2262	239.1339	3775.4	3123.35
800.3687	241.3582	3756.8	3118.8
800.5111	243.582	3747.05	3082
800.6536	245.8053	3742.35	3085.55
800.7961	248.0281	3749.3	3098.2
800.9387	250.2503	3775.35	3117.1
801.0812	252.472	3786.8	3125.4
801.2238	254.6932	3786.35	3121.8
801.3664	256.9139	3812.45	3145.3
801.509	259.134	3842.55	3172
801.6516	261.3536	3874.85	3207.85
801.7942	263.5727	3953.05	3282.7
801.9369	265.7912	4027.45	3358.1
802.0795	268.0092	4167	3496.55
802.2222	270.2267	4287.3	3615.05
802.3649	272.4436	4402.35	3729.3
802.5076	274.6601	4486.9	3802.3
802.6504	276.8759	4534.4	3859.05
802.7931	279.0913	4588.45	3910.85
802.9359	281.3061	4629.95	3949.85
803.0787	283.5204	4667.9	3984.35
803.2215	285.7341	4729.15	4041.85
803.3643	287.9473	4790.45	4101.9
803.5071	290.16	4803.4	4109.55
803.6499	292.3721	4699	4011.8
803.7928	294.5837	4581.75	3893.15
803.9357	296.7947	4494.45	3806.95
804.0786	299.0052	4442.1	3755.5
804.2215	301.2152	4399.35	3706.75
804.3644	303.4246	4394.65	3704
804.5074	305.6334	4361.7	3671.45
804.6503	307.8418	4361.45	3667.1
804.7933	310.0495	4322.4	3627.3
804.9363	312.2568	4233.7	3540.45
805.0793	314.4635	4136.15	3440.4
805.2223	316.6696	4035.1	3337.7
805.3653	318.8752	3923.35	3216.3
805.5084	321.0802	3840.85	3141.1
805.6514	323.2847	3819.65	3116.6
805.7945	325.4887	3821.3	3120.45
805.9376	327.692	3860.15	3156.45
806.0807	329.8949	3943.45	3239.7
806.2238	332.0972	4070.25	3363.65
806.367	334.2989	4174.5	3463.05
806.5101	336.5001	4203.8	3494.15
806.6533	338.7007	4167.55	3456.75
806.7965	340.9008	4041.55	3329.55
806.9397	343.1003	3881.1	3167.85
807.0829	345.2992	3751.9	3035.8
807.2261	347.4976	3635.7	2918.05
807.3693	349.6955	3555.05	2833.25
807.5126	351.8927	3501.45	2779.85
807.6559	354.0895	3471.05	2739.2
807.7991	356.2856	3450	2728.15
807.9424	358.4812	3416	2693.15
808.0857	360.6763	3401.55	2677.1
808.2291	362.8707	3388.7	2663.8
808.3724	365.0646	3383	2655
808.5158	367.258	3390.1	2659.05
808.6591	369.4508	3433.55	2698.55
808.8025	371.643	3503.15	2770.9
808.9459	373.8346	3566.1	2827.65
809.0893	376.0257	3659.6	2918.25
809.2327	378.2162	3736.25	2996.85
809.3762	380.4062	3801.8	3057
809.5196	382.5956	3749.4	3004.1
809.6631	384.7844	3670.85	2927.1
809.8066	386.9726	3562.55	2816.35
809.9501	389.1603	3472.25	2727.7
810.0936	391.3474	3450.15	2673.7
810.2371	393.5339	3411.35	2668.15
810.3806	395.7199	3416.45	2676.8
810.5241	397.9052	3482.65	2746.05
810.6677	400.09	3577.45	2841.05
810.8113	402.2743	3687.9	2950.7
810.9548	404.4579	3761.4	3026.45
811.0984	406.641	3845.7	3107.6
811.2421	408.8235	3942.65	3204.3
811.3857	411.0054	4038.9	3298.25
811.5293	413.1868	4136.55	3393.5
811.673	415.3675	4167.15	3422.4
811.8166	417.5477	4169.15	3421.65
811.9603	419.7273	4106.95	3354.7
812.104	421.9064	4010.15	3252.3
812.2477	424.0848	3896.45	3140.65
812.3914	426.2627	3734.3	2976.25
812.5351	428.4399	3581.6	2824.1
812.6788	430.6166	3456.75	2693.9
812.8226	432.7928	3349.45	2587
812.9663	434.9683	3282.4	2520.3
813.1101	437.1432	3214.5	2448.85
813.2539	439.3176	3178.2	2410.4
813.3977	441.4914	3146.1	2378.65
813.5415	443.6645	3147.65	2378.7
813.6853	445.8371	3146.6	2379.3
813.8291	448.0091	3140.6	2372.55
813.973	450.1806	3140.8	2371.45
814.1168	452.3514	3137.05	2363.4
814.2607	454.5216	3146.05	2366.75
814.4046	456.6913	3129.8	2354.65
814.5485	458.8603	3145.35	2372.2
814.6924	461.0288	3164.5	2389.15
814.8363	463.1967	3168.6	2395.15
814.9802	465.3639	3169.55	2394.85
815.1241	467.5306	3143.5	2367.45
815.2681	469.6967	3135.9	2360.05
815.412	471.8622	3121.9	2346.35
815.556	474.0271	3114.65	2338.9
815.7	476.1914	3109.7	2329.55
815.844	478.3551	3102	2323.65
815.988	480.5182	3090.8	2311.2
816.132	482.6807	3099.6	2319.55
816.276	484.8426	3142.45	2364.7
816.4201	487.0039	3237.75	2459.4
816.5641	489.1647	3365.3	2581.15
816.7082	491.3248	3488.15	2705.55
816.8522	493.4843	3516.15	2734.4
816.9963	495.6432	3500.75	2718.05
817.1404	497.8015	3446.95	2662.3
817.2845	499.9592	3340.15	2557.9
817.4286	502.1163	3210.3	2425
817.5727	504.2728	3102.25	2314.7
817.7168	506.4287	3038.35	2252
817.861	508.5839	3007.25	2220.7
818.0051	510.7386	2989.3	2203.7
818.1493	512.8927	2995.35	2200.2
818.2935	515.0461	3014.35	2225.85
818.4377	517.199	3049.65	2260.95
818.5818	519.3512	3133.7	2343.75
818.726	521.5029	3306.7	2511.45
818.8703	523.6539	3465.05	2672
819.0145	525.8043	3505.6	2712.5
819.1587	527.9541	3393.65	2599.65
819.303	530.1033	3227.1	2432.05
819.4472	532.2519	3094.9	2300.15
819.5915	534.3999	3030.15	2232.4
819.7357	536.5472	3008.3	2212
819.88	538.694	3012.2	2216.3
820.0243	540.8401	3033.95	2237.9
820.1686	542.9856	3075.3	2276.55
820.3129	545.1305	3129.3	2328.7
820.4572	547.2748	3156.2	2356.35
820.6016	549.4185	3158.95	2357.55
820.7459	551.5615	3181.6	2381.75
820.8902	553.704	3219.5	2418.6
821.0346	555.8458	3252.15	2452.45
821.1789	557.987	3315.4	2516.45
821.3233	560.1276	3395.7	2593.9
821.4677	562.2675	3542.85	2741.95
821.6121	564.4069	3759.9	2958.5
821.7565	566.5456	3881.45	3080
821.9009	568.6837	3806.85	3003
822.0453	570.8212	3590.95	2787.45
822.1897	572.958	3357.35	2551.6
822.3342	575.0942	3212.2	2409
822.4786	577.2299	3127.3	2319.8
822.6231	579.3648	3065.95	2260.35
822.7675	581.4992	3032.4	2227.15
822.912	583.6329	3066.9	2260.55
823.0565	585.766	3129.45	2323.8
823.201	587.8985	3226.9	2420.9
823.3454	590.0304	3364.85	2534.35
823.4899	592.1616	3474.65	2663.95
823.6345	594.2922	3506.3	2697.25
823.779	596.4222	3464.35	2653.9
823.9235	598.5515	3307.05	2495.8
824.068	600.6802	3147.35	2336.65
824.2126	602.8083	3032.1	2220.3
824.3571	604.9358	2982.9	2169
824.5017	607.0626	2978.8	2165.9
824.6462	609.1888	2993.1	2177.45
824.7908	611.3144	3043.7	2230
824.9354	613.4393	3138.35	2326.4
825.08	615.5636	3262	2449.45
825.2246	617.6873	3392.25	2578.15
825.3692	619.8103	3482.85	2665.95
825.5138	621.9327	3520.35	2701.75
825.6584	624.0544	3449.95	2634.2
825.803	626.1756	3307.1	2492.25
825.9477	628.2961	3161.45	2345.05
826.0923	630.4159	3068.6	2251.9
826.237	632.5351	3051.1	2234.25
826.3816	634.6537	3032.65	2214.55
826.5263	636.7716	3011.5	2191.8
826.6709	638.8889	3005.05	2187.15
826.8156	641.0056	3028.55	2208.3
826.9603	643.1216	3070.75	2251.6
827.105	645.237	3099.8	2277.3
827.2497	647.3518	3061.1	2240.3
827.3944	649.4659	2974.45	2153.7
827.5391	651.5793	2928.85	2106.25
827.6838	653.6922	2896.9	2074.5
827.8285	655.8043	2865.5	2043.6
827.9733	657.9159	2835.8	2010.9
828.118	660.0268	2822.3	1995.5
828.2627	662.137	2805.6	1981.05
828.4075	664.2466	2820.65	1992.95
828.5522	666.3556	2831.85	2007.45
828.697	668.4639	2811.6	1983.25
828.8418	670.5716	2791.45	1964.2
828.9865	672.6786	2777.8	1949.65
829.1313	674.785	2760.4	1932.8
829.2761	676.8907	2740.85	1913.35
829.4209	678.9958	2754.85	1929.2
829.5657	681.1002	2753	1925.1
829.7105	683.204	2753.25	1921.4
829.8553	685.3072	2750.65	1921
830.0001	687.4097	2756	1925.65
830.1449	689.5115	2748.6	1917.45
830.2898	691.6127	2753.5	1923.85
830.4346	693.7132	2743.45	1914.2
830.5794	695.8131	2751.65	1907
830.7243	697.9123	2742.75	1912.9
830.8691	700.0109	2759.35	1927.85
831.014	702.1089	2777.95	1948.45
831.1588	704.2061	2816.25	1985.4
831.3037	706.3028	2876	2042.45
831.4486	708.3987	2950.1	2117.25
831.5935	710.4941	2982.3	2148.55
831.7383	712.5887	2989.7	2156.15
831.8832	714.6827	2988.4	2150.25
832.0281	716.7761	2953.9	2118.4
832.173	718.8688	2947.55	2112.35
832.3179	720.9608	2935.95	2098.4
832.4628	723.0522	2962.3	2125.1
832.6077	725.1429	2990.55	2156.05
832.7527	727.233	3068.55	2230.5
832.8976	729.3224	3204.8	2368.6
833.0425	731.4112	3357.2	2520.8
833.1874	733.4993	3430.4	2590.5
833.3324	735.5867	3349.65	2509.5
833.4773	737.6735	3169.35	2329.8
833.6222	739.7596	3006.45	2167.3
833.7672	741.845	2916.15	2077.05
833.9122	743.9298	2859.35	2017.45
834.0571	746.014	2848.05	2008.25
834.2021	748.0974	2865.7	2025.25
834.347	750.1802	2859.65	2018.3
834.492	752.2624	2859.85	2018.45
834.637	754.3439	2848.3	2007.55
834.782	756.4247	2865.95	2013.95
834.9269	758.5048	2868.4	2028.45
835.0719	760.5843	2908.25	2065.9
835.2169	762.6631	2999.8	2156.9
835.3619	764.7413	3132.35	2291
835.5069	766.8188	3326.8	2482.25
835.6519	768.8956	3541	2696.45
835.7969	770.9718	3696.25	2853.55
835.9419	773.0473	3696.45	2851.95
836.0869	775.1221	3586.15	2744
836.232	777.1962	3537.2	2696.3
836.377	779.2697	3684.3	2838.6
836.522	781.3426	3949.55	3094.1
836.667	783.4147	4166.8	3322.05
836.8121	785.4862	4202.65	3358.8
836.9571	787.557	4020.8	3176.4
837.1021	789.6271	3690.5	2846.4
837.2472	791.6966	3353.4	2506.8
837.3922	793.7654	3097.85	2250.55
837.5373	795.8335	2933.95	2089.95
837.6823	797.901	2845.75	2000.8
837.8274	799.9678	2809.65	1962.25
837.9724	802.0339	2811.55	1964.95
838.1175	804.0993	2831.2	1976.15
838.2626	806.1641	2824.9	1975.9
838.4076	808.2282	2795.95	1949.4
838.5527	810.2916	2755	1904.15
838.6978	812.3544	2707.05	1859.6
838.8428	814.4164	2676.25	1829.85
838.9879	816.4778	2682.1	1833.7
839.133	818.5385	2743.8	1895.7
839.2781	820.5986	2814.2	1967.15
839.4232	822.658	2941.95	2090.3
839.5682	824.7166	3112.6	2264.7
839.7133	826.7747	3301.7	2453.15
839.8584	828.832	3501.6	2654
840.0035	830.8886	3642.2	2791.05
840.1486	832.9446	3733.85	2883.85
840.2937	834.9999	3683.45	2833.9
840.4388	837.0545	3537.5	2683.25
840.5839	839.1085	3309.95	2458.6
840.729	841.1618	3120.1	2263.6
840.8741	843.2143	2969.9	2120.1
841.0192	845.2662	2864.65	2013.25
841.1643	847.3175	2820.05	1968.05
841.3095	849.368	2799.4	1947.1
841.4546	851.4179	2788.2	1937.9
841.5997	853.467	2790.45	1939.2
841.7448	855.5155	2809.55	1957.9
841.8899	857.5633	2825.8	1974.3
842.0351	859.6105	2818.2	1966.45
842.1802	861.6569	2785.45	1933.8
842.3253	863.7027	2746.75	1893.25
842.4704	865.7478	2723.5	1868.25
842.6156	867.7922	2683.25	1828.5
842.7607	869.8359	2656.05	1802.4
842.9058	871.8789	2639.35	1784.55
843.0509	873.9212	2679.15	1790.8
843.1961	875.9629	2654.3	1800.1
843.3412	878.0039	2676.75	1821.05
843.4863	880.0441	2719	1864.5
843.6315	882.0837	2761.55	1906.9
843.7766	884.1226	2802.3	1946.95
843.9218	886.1609	2891.35	2037.65
844.0669	888.1984	3009.5	2156.9
844.212	890.2352	3138.35	2284.35
844.3572	892.2714	3193.95	2333.4
844.5023	894.3069	3138.95	2281.95
844.6475	896.3416	3006	2149.45
844.7926	898.3757	2889.25	2030.25
844.9377	900.4091	2807.1	1950.2
845.0829	902.4418	2821.65	1958.5
845.228	904.4739	2872.45	2015.2
845.3732	906.5052	2933.4	2077.3
845.5183	908.5358	2944.25	2087.45
845.6635	910.5658	2910.55	2051.75
845.8086	912.595	2833.05	1976.2
845.9538	914.6236	2726.55	1868.15
846.0989	916.6515	2658.65	1802.05
846.2441	918.6786	2606.45	1746.55
846.3892	920.7051	2578.3	1719.1
846.5344	922.7309	2579.55	1719.8
846.6795	924.756	2581.1	1721.75
846.8246	926.7804	2600.65	1742
846.9698	928.8041	2632.1	1770.55
847.1149	930.8272	2666.3	1808.1
847.2601	932.8495	2705.2	1844.25
847.4052	934.8711	2714.75	1853.2
847.5504	936.892	2714.35	1854.4
847.6955	938.9123	2773.3	1910.15
847.8407	940.9318	2855.7	1994.65
847.9858	942.9506	2893.5	2032.6
848.131	944.9688	2888.7	2029.3
848.2761	946.9862	2834.5	1973.75
848.4213	949.003	2753.65	1891.7
848.5664	951.019	2690.15	1827.6
848.7115	953.0344	2655.15	1793.65
848.8567	955.0491	2623.7	1760.5
849.0018	957.063	2596.75	1735.75
849.147	959.0763	2580.5	1719.05
849.2921	961.0888	2588.55	1722.65
849.4373	963.1007	2583.1	1721.9
849.5824	965.1119	2560.1	1697.3
849.7275	967.1223	2524.7	1662
849.8727	969.1321	2506.95	1645.75
850.0178	971.1412	2508.65	1647
850.1629	973.1495	2486.7	1622.8
850.3081	975.1572	2531.1	1622.75
850.4532	977.1641	2494.1	1629.25
850.5983	979.1704	2516.3	1651.45
850.7435	981.1759	2507.2	1641
850.8886	983.1808	2486.05	1622.15
851.0337	985.1849	2469.95	1596.1
851.1788	987.1884	2470.5	1603.35
851.324	989.1911	2462.4	1595.95
851.4691	991.1932	2472.45	1605.55
851.6142	993.1945	2505.1	1641.95
851.7593	995.1951	2496.85	1632.05
851.9045	997.1951	2499.8	1629
852.0496	999.1943	2491.4	1627.1
852.1947	1001.1928	2488.9	1623.9
852.3398	1003.1906	2510	1645.55
852.4849	1005.1877	2568.4	1701.85
852.63	1007.1841	2637.85	1773.05
852.7751	1009.1798	2695.05	1829.75
852.9202	1011.1748	2671.65	1805.05
853.0653	1013.1691	2612.05	1746.35
853.2104	1015.1627	2544.85	1679.55
853.3555	1017.1556	2459.4	1593.1
853.5006	1019.1477	2405.7	1540.65
853.6457	1021.1392	2367.55	1504.15
853.7908	1023.1299	2358.25	1492.7
853.9359	1025.12	2346.4	1477.35
854.081	1027.1093	2369.45	1503.15
854.2261	1029.0979	2414.25	1547.75
854.3712	1031.0859	2471.5	1604.65
854.5163	1033.0731	2504.05	1634.95
854.6613	1035.0596	2527.7	1661.5
854.8064	1037.0454	2501.25	1633.6
854.9515	1039.0304	2473.3	1604.45
855.0965	1041.0148	2428.85	1559.95
855.2416	1042.9985	2367.3	1498.5
855.3867	1044.9814	2334.3	1467.65
855.5317	1046.9636	2321.7	1451.75
855.6768	1048.9452	2321.95	1456.05
855.8219	1050.926	2382.35	1514.8
855.9669	1052.9061	2426.35	1559.95
856.112	1054.8855	2452.85	1583.8
856.257	1056.8642	2432.45	1564.7
856.4021	1058.8421	2466.1	1593.05
856.5471	1060.8194	2443	1573.45
856.6921	1062.7959	2421.75	1554.35
856.8372	1064.7717	2420.85	1553.05
856.9822	1066.7469	2420.7	1552
857.1272	1068.7213	2438.45	1567.35
857.2723	1070.695	2447.55	1579.95
857.4173	1072.6679	2504.6	1634.3
857.5623	1074.6402	2572.8	1702.9
857.7073	1076.6117	2626.55	1752.5
857.8523	1078.5826	2588.95	1719.95
857.9973	1080.5527	2494.9	1622.15
858.1423	1082.5221	2400	1529.9
858.2873	1084.4908	2325.8	1455.75
858.4323	1086.4587	2288.55	1416.95
858.5773	1088.426	2245.3	1374.1
858.7223	1090.3925	2255.4	1380.1
858.8673	1092.3584	2261.65	1391.55
859.0123	1094.3235	2291.9	1422.55
859.1573	1096.2879	2323.3	1451.1
859.3022	1098.2515	2371.85	1498.95
859.4472	1100.2145	2445.25	1575.15
859.5922	1102.1767	2511.25	1639.35
859.7371	1104.1382	2616.9	1747
859.8821	1106.099	2742.25	1868.5
860.027	1108.0591	2870.95	2000.4
860.172	1110.0185	2977.3	2105.85
860.3169	1111.9771	3065.05	2196.05
860.4619	1113.9351	3194.05	2324.25
860.6068	1115.8923	3362.65	2491
860.7517	1117.8488	3494.35	2621.25
860.8967	1119.8045	3436.15	2562.75
861.0416	1121.7596	3216.35	2343.25
861.1865	1123.7139	2910.05	2037.75
861.3314	1125.6675	2733	1860.4
861.4763	1127.6204	2688.75	1815.4
861.6212	1129.5726	2749.05	1875.25
861.7661	1131.524	2772.1	1900.7
861.911	1133.4748	2683.2	1813.35
862.0559	1135.4248	2539.15	1665.9
862.2008	1137.3741	2402.3	1530
862.3457	1139.3226	2322.3	1448.35
862.4905	1141.2705	2305.9	1433.25
862.6354	1143.2176	2320.8	1442.55
862.7803	1145.164	2372.1	1497.9
862.9251	1147.1097	2374.15	1500
863.07	1149.0546	2343.8	1469.55
863.2148	1150.9989	2265.85	1391.65
863.3597	1152.9424	2207.25	1331.55
863.5045	1154.8852	2174.1	1300.85
863.6493	1156.8272	2159.5	1285.9
863.7942	1158.7686	2153.55	1272.2
863.939	1160.7092	2153.45	1279.15
864.0838	1162.6491	2163.7	1286.45
864.2286	1164.5883	2180.8	1307.55
864.3734	1166.5267	2218.35	1342.45
864.5182	1168.4644	2278	1404.2
864.663	1170.4014	2346.65	1468.15
864.8078	1172.3377	2428.65	1553.85
864.9526	1174.2732	2534.6	1660.3
865.0974	1176.2081	2737.2	1863.95
865.2421	1178.1421	3027.2	2149
865.3869	1180.0755	3370.35	2496.3
865.5317	1182.0082	3611	2736.95
865.6764	1183.9401	3652.45	2777.55
865.8212	1185.8713	3431.4	2558.25
865.9659	1187.8017	3123.6	2247.55
866.1106	1189.7315	2815.65	1941.95
866.2554	1191.6605	2616.15	1712.1
866.4001	1193.5888	2458	1582.3
866.5448	1195.5163	2370.25	1494.2
866.6895	1197.4432	2309.3	1431.9
866.8342	1199.3693	2265.65	1391.65
866.9789	1201.2947	2226.85	1344.9
867.1236	1203.2193	2201.95	1327
867.2683	1205.1432	2188.7	1312.4
867.413	1207.0664	2178.3	1301.9
867.5576	1208.9889	2182.3	1302.6
867.7023	1210.9106	2191.65	1314.6
867.847	1212.8316	2181.5	1306.3
867.9916	1214.7519	2218.15	1333.25
868.1363	1216.6715	2228.1	1353.1
868.2809	1218.5903	2267.8	1392.85
868.4255	1220.5084	2291.6	1415.3
868.5701	1222.4257	2333.1	1456.5
868.7148	1224.3424	2358.6	1482.7
868.8594	1226.2583	2398.65	1515.55
869.004	1228.1735	2460.8	1584.2
869.1486	1230.0879	2554.55	1676.45
869.2932	1232.0016	2642.2	1765.6
869.4377	1233.9146	2733.15	1853.95
869.5823	1235.8269	2766.4	1888.9
869.7269	1237.7384	2788.6	1911.15
869.8715	1239.6492	2765.2	1889.65
870.016	1241.5592	2793.25	1914.35
870.1606	1243.4686	2878.45	2000.75
870.3051	1245.3772	3049.3	2172.3
870.4496	1247.285	3266.65	2388.4
870.5941	1249.1922	3456.65	2578.95
870.7387	1251.0986	3630.15	2752.3
870.8832	1253.0042	3811.35	2933.3
871.0277	1254.9092	4006.85	3127.6
871.1722	1256.8134	4242.9	3365
871.3167	1258.7169	4509.85	3629.6
871.4611	1260.6196	4731.95	3855.35
871.6056	1262.5216	4878.95	4001.35
871.7501	1264.4229	4935.55	4057.75
871.8945	1266.3234	4870.25	3993.45
872.039	1268.2232	4716.6	3838.2
872.1834	1270.1223	4546	3665.05
872.3278	1272.0207	4422.5	3543.6
872.4723	1273.9183	4369.75	3483.25
872.6167	1275.8151	4350.35	3473.4
872.7611	1277.7113	4408.65	3528.8
872.9055	1279.6067	4580.65	3703.45
873.0499	1281.5014	4904.8	4025.35
873.1943	1283.3953	5371.8	4491.4
873.3386	1285.2885	5951.15	5073.2
873.483	1287.181	6415.65	5535.15
873.6274	1289.0727	6665.35	5786.9
873.7717	1290.9637	6571.45	5691.9
873.9161	1292.854	6262.3	5382.45
874.0604	1294.7435	5858.85	4978.35
874.2047	1296.6323	5489.05	4608.65
874.349	1298.5204	5142.25	4259.35
874.4933	1300.4077	4915	4034.95
874.6376	1302.2943	4748.15	3869.4
874.7819	1304.1802	4610.4	3731.95
874.9262	1306.0653	4525.8	3642.85
875.0705	1307.9497	4417.45	3537.3
875.2147	1309.8333	4372.65	3492.85
875.359	1311.7162	4319.2	3439.25
875.5032	1313.5984	4281.75	3399.8
875.6475	1315.4798	4235.15	3346.6
875.7917	1317.3605	4258.55	3375.05
875.9359	1319.2405	4293.65	3412.4
876.0801	1321.1197	4334.55	3452.65
876.2243	1322.9982	4297.95	3413.65
876.3685	1324.876	4165.3	3284.05
876.5127	1326.753	3966.1	3086.8
876.6569	1328.6293	3734.4	2853.3
876.801	1330.5048	3473.5	2593.4
876.9452	1332.3796	3224.25	2346.75
877.0893	1334.2537	3061.75	2157.6
877.2335	1336.127	2904.15	2024
877.3776	1337.9996	2822.4	1943
877.5217	1339.8714	2737.65	1855.7
877.6658	1341.7426	2720.4	1796.8
877.8099	1343.6129	2644.85	1764.2
877.954	1345.4826	2590.5	1708.45
878.0981	1347.3515	2549.3	1666.6
878.2422	1349.2196	2514.3	1633.3
878.3862	1351.087	2494.45	1613
878.5303	1352.9537	2467.45	1586.15
878.6743	1354.8197	2481.25	1602.8
878.8184	1356.6849	2503.25	1622.1
878.9624	1358.5493	2530	1648.15
879.1064	1360.4131	2584.85	1705.8
879.2504	1362.276	2685.1	1805.55
879.3944	1364.1383	2773	1892.4
879.5384	1365.9998	2832.35	1946
879.6823	1367.8606	2808	1926.35
879.8263	1369.7206	2803.15	1922.6
879.9702	1371.5799	2809.95	1927.05
880.1142	1373.4384	2820.15	1939.2
880.2581	1375.2962	2746.05	1862.45
880.402	1377.1533	2630.45	1749.8
880.5459	1379.0096	2503.95	1624.1
880.6898	1380.8652	2420.3	1539
880.8337	1382.7201	2341.85	1460.85
880.9776	1384.5742	2276.15	1397.4
881.1215	1386.4275	2212	1329.65
881.2653	1388.2802	2166.25	1287.65
881.4092	1390.132	2139.55	1258.55
881.553	1391.9832	2120.15	1238
881.6968	1393.8336	2099.4	1218.6
881.8406	1395.6832	2092.8	1208.85
881.9844	1397.5322	2071.15	1189.9
882.1282	1399.3803	2057	1168.2
882.272	1401.2278	2032.35	1150.85
882.4158	1403.0745	2012.9	1131.15
882.5595	1404.9204	1991.85	1113.05
882.7033	1406.7656	1972.85	1091.95
882.847	1408.6101	1962.75	1081.95
882.9908	1410.4538	1964.5	1082.1
883.1345	1412.2968	1958.75	1076.7
883.2782	1414.139	1955.55	1076
883.4219	1415.9805	1988	1107
883.5656	1417.8213	2014.1	1125.65
883.7092	1419.6613	2057.55	1178.55
883.8529	1421.5006	2129.3	1246.2
883.9965	1423.3391	2213.95	1331.45
884.1402	1425.1769	2346.25	1462.05
884.2838	1427.0139	2543.2	1662.9
884.4274	1428.8502	2771.95	1888.25
884.571	1430.6858	2967.95	2087.1
884.7146	1432.5206	3042.2	2159.1
884.8582	1434.3547	3026.7	2141.6
885.0018	1436.188	2980.2	2098.65
885.1453	1438.0206	2950.45	2067.85
885.2889	1439.8524	2918.55	2034.75
885.4324	1441.6835	2907.75	2026.75
885.5759	1443.5139	2923.65	2038.75
885.7194	1445.3435	2926.3	2044
885.8629	1447.1724	2934.6	2051.3
886.0064	1449.0005	2927.65	2045.6
886.1499	1450.8279	2904.15	2021.6
886.2933	1452.6545	2884.75	2001.4
886.4368	1454.4804	2899.25	2017.85
886.5802	1456.3056	2875.45	1987.75
886.7237	1458.13	2820.85	1938.45
886.8671	1459.9536	2766.1	1883.9
887.0105	1461.7766	2686.45	1804
887.1539	1463.5987	2587.2	1703.05
887.2972	1465.4202	2500.45	1618.45
887.4406	1467.2409	2396	1512.1
887.584	1469.0608	2318.45	1436.75
887.7273	1470.88	2236.95	1352.45
887.8706	1472.6984	2166.9	1285.45
888.0139	1474.5161	2100.95	1214.7
888.1572	1476.3331	2039.25	1157.5
888.3005	1478.1493	2014.3	1129.65
888.4438	1479.9648	2018.1	1135.25
888.5871	1481.7795	2015.5	1130.9
888.7303	1483.5935	2013.05	1130.75
888.8736	1485.4067	2011.55	1130.6
889.0168	1487.2192	2029.2	1148
889.16	1489.031	2036.7	1150.95
889.3032	1490.842	2032	1149.5
889.4464	1492.6522	2034.25	1151.6
889.5896	1494.4618	2026.05	1140.5
889.7327	1496.2705	2021.95	1140.3
889.8759	1498.0785	2018.6	1136.95
890.019	1499.8858	2001.3	1117.55
890.1622	1501.6924	2000.85	1119
890.3053	1503.4981	1973.85	1090.85
890.4484	1505.3032	1960.05	1076.9
890.5914	1507.1075	1946.85	1062.1
890.7345	1508.911	1935.8	1053.05
890.8776	1510.7138	1921.35	1036.45
891.0206	1512.5159	1908.55	1025.65
891.1637	1514.3172	1894.55	1010.1
891.3067	1516.1178	1884	1001.95
891.4497	1517.9176	1867.3	979.25
891.5927	1519.7166	1858.2	976.1
891.7357	1521.515	1844.85	953.9
891.8786	1523.3126	1825.15	939.8
892.0216	1525.1094	1814.8	927.05
892.1645	1526.9055	1806.5	923.9
892.3074	1528.7008	1803.05	919.4
892.4503	1530.4954	1792.8	903.8
892.5932	1532.2893	1793.45	911.6
892.7361	1534.0824	1790.95	903.15
892.879	1535.8747	1790.7	907.7
893.0218	1537.6663	1784.75	898.3
893.1647	1539.4572	1774.85	888.15
893.3075	1541.2473	1790.45	906.65
893.4503	1543.0367	1779.5	894.65
893.5931	1544.8253	1797.85	908.7
893.7359	1546.6132	1807.1	919.35
893.8787	1548.4003	1824.2	930.35
894.0214	1550.1867	1844.8	952.9
894.1642	1551.9723	1859.35	970.75
894.3069	1553.7572	1880.9	996.35
894.4496	1555.5414	1928.5	1043.95
894.5923	1557.3247	1988.9	1105.1
894.735	1559.1074	2086.45	1201.6
894.8777	1560.8893	2185.65	1302.1
895.0204	1562.6705	2291.15	1405.85
895.163	1564.4509	2377.15	1492.85
895.3056	1566.2305	2418.65	1534.2
895.4482	1568.0094	2432	1547.9
895.5908	1569.7876	2430.55	1545.4
895.7334	1571.565	2430.45	1544.6
895.876	1573.3417	2435.45	1552.55
896.0186	1575.1176	2438.5	1554.25
896.1611	1576.8928	2498.05	1611.6
896.3036	1578.6672	2545.4	1661.3
896.4461	1580.4409	2631.2	1748.5
896.5886	1582.2138	2744	1857.4
896.7311	1583.986	2842.45	1959
896.8736	1585.7575	2963.1	2079.8
897.0161	1587.5282	3077.2	2195
897.1585	1589.2981	3151.15	2268.1
897.3009	1591.0673	3196.65	2311.5
897.4433	1592.8358	3229.9	2343.5
897.5857	1594.6035	3230.85	2344.1
897.7281	1596.3704	3195.65	2310.35
897.8705	1598.1366	3139.1	2254.8
898.0128	1599.9021	3067.25	2183.25
898.1551	1601.6668	2981.3	2094.9
898.2975	1603.4308	2914.15	2027.55
898.4398	1605.194	2902.1	2012.3
898.5821	1606.9564	2933.8	2049.3
898.7243	1608.7182	3065.85	2176.55
898.8666	1610.4791	3258.4	2374.2
899.0088	1612.2394	3549.25	2665.45
899.1511	1613.9988	3868.05	2983
899.2933	1615.7576	4154.05	3268.4
899.4355	1617.5156	4313.45	3423.2
899.5776	1619.2728	4309.35	3425.6
899.7198	1621.0293	4125.25	3240.05
899.862	1622.785	3841.35	2951.3
900.0041	1624.54	3492.3	2604
900.1462	1626.2942	3141.2	2254.45
900.2883	1628.0477	2844.45	1954
900.4304	1629.8005	2604.65	1716.95
900.5725	1631.5525	2408.1	1522.75
900.7145	1633.3037	2252.6	1368.5
900.8566	1635.0542	2123.45	1238.85
900.9986	1636.804	2032.1	1146.5
901.1406	1638.553	2023	1075.2
901.2826	1640.3013	1900.15	1015.9
901.4245	1642.0488	1850.65	964.4
901.5665	1643.7955	1813.6	929.15
901.7085	1645.5416	1797.25	911.3
901.8504	1647.2868	1749.15	865.7
901.9923	1649.0313	1729.5	843.75
902.1342	1650.7751	1717.1	829.35
902.2761	1652.5181	1704.55	820.75
902.4179	1654.2604	1708.35	820.95
902.5598	1656.0019	1707.75	824.6
902.7016	1657.7427	1739.4	851.95
902.8434	1659.4828	1792.75	907.5
902.9852	1661.222	1863.7	978.15
903.127	1662.9606	1967.75	1083.5
903.2687	1664.6984	2059.55	1173.6
903.4105	1666.4354	2140.75	1253.85
903.5522	1668.1717	2127.9	1243.2
903.6939	1669.9072	2046.15	1163.45
903.8356	1671.642	1918.25	1031.3
903.9773	1673.3761	1800.2	916.4
904.119	1675.1094	1705.65	819.25
904.2606	1676.8419	1644	759.8
904.4022	1678.5737	1598.4	713.7
904.5439	1680.3048	1560.75	675.35
904.6855	1682.0351	1535.65	648.1
904.827	1683.7646	1524.8	637.65
904.9686	1685.4934	1505.1	620.85
905.1101	1687.2215	1498.45	613.15
905.2517	1688.9488	1492.75	608
905.3932	1690.6754	1480.45	595.1
905.5347	1692.4012	1474.45	588.9
905.6761	1694.1263	1468	584.3
905.8176	1695.8506	1468.9	582.6
905.9591	1697.5742	1455.95	570.75
906.1005	1699.297	1461.55	574.95
906.2419	1701.0191	1446.1	560.2
906.3833	1702.7404	1450.5	565.2
906.5246	1704.461	1437.25	549.3
906.666	1706.1808	1444.15	556.3
906.8073	1707.8999	1428.75	543.1
906.9487	1709.6182	1423.55	537.7
907.09	1711.3358	1420.7	534.6
907.2313	1713.0527	1414.25	532.1
907.3725	1714.7688	1419.9	526.85
907.5138	1716.4841	1420.1	532
907.655	1718.1987	1419.5	529.25
907.7962	1719.9126	1409.65	523.85
907.9374	1721.6257	1404.95	517.75
908.0786	1723.338	1413.9	526.8
908.2198	1725.0496	1399.45	514.9
908.3609	1726.7605	1399.4	511.75
908.502	1728.4706	1396.7	510.35
908.6431	1730.18	1391.75	505.45
908.7842	1731.8886	1385.95	501.35
908.9253	1733.5964	1406.65	501.05
909.0664	1735.3036	1389.3	499.45
909.2074	1737.0099	1382.3	497.15
909.3484	1738.7156	1384.75	498.05
909.4894	1740.4204	1380.35	492.95
909.6304	1742.1246	1383.65	496.45
909.7714	1743.8279	1371.9	486.05
909.9123	1745.5306	1377.4	490.3
910.0532	1747.2325	1376.35	489.75
910.1941	1748.9336	1371.5	485.25
910.335	1750.634	1366.9	479.15
910.4759	1752.3336	1362.85	476.95
910.6168	1754.0325	1362.05	477.05
910.7576	1755.7307	1364.7	479.1
910.8984	1757.4281	1363.55	478.3
911.0392	1759.1247	1367.65	474.65
911.18	1760.8206	1367	478.4
911.3208	1762.5158	1366.6	476.15
911.4615	1764.2102	1365	481.35
911.6022	1765.9039	1357.8	470.6
911.7429	1767.5968	1353.3	467.7
911.8836	1769.289	1345.2	458.85
912.0243	1770.9804	1352.9	465.55
912.1649	1772.6711	1346.45	459.85
912.3056	1774.361	1349.3	461.8
912.4462	1776.0502	1348.35	461.95
912.5868	1777.7386	1352.8	463.8
912.7274	1779.4263	1343.8	455.35
912.8679	1781.1132	1344.5	458.2
913.0084	1782.7994	1338.8	451.75
913.149	1784.4849	1342.5	456.65
913.2895	1786.1696	1349.55	457.4
913.4299	1787.8535	1338.2	451.8
913.5704	1789.5367	1338.65	452.15
913.7108	1791.2192	1335.9	449.65
913.8513	1792.9009	1352.05	452.05
913.9917	1794.5818	1336.35	451.25
914.132	1796.2621	1331.5	445.75
914.2724	1797.9415	1331.65	447.8
914.4128	1799.6202	1330.2	443.9
914.5531	1801.2982	1325.05	440.35
914.6934	1802.9755	1328	442.1
914.8337	1804.6519	1326.85	440.2
914.9739	1806.3277	1320.4	434.25
915.1142	1808.0027	1319.15	430.9
915.2544	1809.6769	1318.55	431.5
915.3946	1811.3504	1324.9	437.85
915.5348	1813.0231	1322.05	435.05
915.675	1814.6951	1318.3	431.3
915.8151	1816.3664	1327.35	439.75
915.9553	1818.0369	1316.9	431.8
916.0954	1819.7067	1310.7	423.55
916.2355	1821.3757	1319.5	431.15
916.3755	1823.044	1314.65	428.2
916.5156	1824.7115	1311.2	425.45
916.6556	1826.3783	1306.95	420.85
916.7956	1828.0443	1301.2	414.85
916.9356	1829.7096	1311.5	423.9
917.0756	1831.3741	1314.35	424.2
917.2155	1833.0379	1312.7	425.45
917.3555	1834.701	1307.4	417.95
917.4954	1836.3633	1311.1	423.2
917.6353	1838.0248	1299.7	410.15
917.7751	1839.6856	1303.05	415.9
917.915	1841.3457	1297.2	411.95
918.0548	1843.005	1303.5	418.75
918.1946	1844.6636	1300.4	414.8
918.3344	1846.3214	1305.4	418.35
918.4742	1847.9785	1300.5	415.5
918.6139	1849.6349	1301.75	415.45
918.7537	1851.2904	1304.55	409.85
918.8934	1852.9453	1296.8	412.55
919.0331	1854.5994	1295.25	406.4
919.1727	1856.2528	1300.75	408.7
919.3124	1857.9054	1296.45	410.3
919.452	1859.5572	1293.9	408.8
919.5916	1861.2083	1294.55	407.6
919.7312	1862.8587	1290	403.4
919.8708	1864.5084	1295.8	408.7
920.0103	1866.1572	1290.7	404.45
920.1498	1867.8054	1280.75	395.85
920.2893	1869.4528	1285.15	400.4
920.4288	1871.0994	1292.3	405.85
920.5683	1872.7453	1284.15	396.8
920.7077	1874.3905	1294.4	400.35
920.8471	1876.0349	1284.05	395.85
920.9865	1877.6786	1287.1	400.1
921.1259	1879.3215	1280.8	395.85
921.2653	1880.9637	1288.55	402.7
921.4046	1882.6051	1275.45	388.85
921.5439	1884.2458	1281.8	393
921.6832	1885.8858	1282.8	397
921.8225	1887.525	1280	392.2
921.9617	1889.1634	1277.4	391.5
922.101	1890.8011	1272.1	385.05
922.2402	1892.4381	1268.8	383.65
922.3794	1894.0743	1269.95	385.05
922.5185	1895.7098	1266.9	382
922.6577	1897.3446	1264.35	374.75
922.7968	1898.9786	1272.2	381.65
922.9359	1900.6118	1267.6	380.5
923.075	1902.2443	1274.3	385.15
923.214	1903.8761	1266.3	380.15
923.3531	1905.5071	1271.05	383
923.4921	1907.1374	1261.3	375.05
923.6311	1908.7669	1262.15	375.65
923.77	1910.3957	1257.55	368.9
923.909	1912.0237	1255.4	368.15
924.0479	1913.651	1258.15	371.7
924.1868	1915.2776	1255.9	371.95
924.3257	1916.9034	1246.25	360.85
924.4646	1918.5285	1252.85	367.1
924.6034	1920.1528	1256.05	368.8
924.7422	1921.7764	1254.95	369.7
924.881	1923.3992	1251.5	366.4
925.0198	1925.0213	1252.45	367.15
925.1586	1926.6427	1247.65	361.8
925.2973	1928.2633	1332.65	361.2
925.436	1929.8832	1249.95	362.6
925.5747	1931.5023	1245.55	358.35
925.7134	1933.1207	1242.7	354.95
925.852	1934.7383	1240.8	353.65
925.9906	1936.3552	1242.7	355.55
926.1292	1937.9714	1247.95	361.9
926.2678	1939.5868	1243.35	355.1
926.4064	1941.2015	1235.9	349.25
926.5449	1942.8154	1240.6	355.75
926.6834	1944.4286	1231.9	344.25
926.8219	1946.041	1254.25	344.15
926.9604	1947.6528	1236.7	344
927.0988	1949.2637	1234.5	347.25
927.2372	1950.8739	1232.5	346.75
927.3756	1952.4834	1221.2	335.45
927.514	1954.0921	1232.75	346.75
927.6523	1955.7001	1234.7	342
927.7907	1957.3074	1222.8	335.7
927.929	1958.9139	1222.55	337.6
928.0673	1960.5197	1224.05	335.7
928.2055	1962.1247	1222.7	336.2
928.3438	1963.729	1222.9	338.25
928.482	1965.3325	1243.25	332.5
928.6202	1966.9353	1221.65	336.65
928.7584	1968.5374	1218.35	329.35
928.8965	1970.1387	1222.2	335.15
929.0346	1971.7393	1222.4	333.75
929.1727	1973.3392	1217.35	330.35
929.3108	1974.9383	1217.6	330.05
929.4489	1976.5366	1215.1	329.6
929.5869	1978.1342	1215.95	327.5
929.7249	1979.7311	1215.25	327.8
929.8629	1981.3273	1213.9	325.35
930.0009	1982.9227	1210.85	323.15
930.1388	1984.5173	1204.05	319.1
930.2767	1986.1112	1204.35	318.5
930.4146	1987.7044	1208.4	322.65
930.5525	1989.2968	1211.5	323.55
930.6904	1990.8885	1208.6	317.85
930.8282	1992.4795	1208.05	320.25
930.966	1994.0697	1203.15	316.05
931.1038	1995.6592	1203.2	316
931.2415	1997.2479	1196.45	309.55
931.3793	1998.8359	1202.35	316.65
931.517	2000.4232	1201.25	313.9
931.6547	2002.0097	1200.15	311.75
931.7923	2003.5955	1200.2	311.4
931.93	2005.1805	1203.85	315.15
932.0676	2006.7648	1199.35	313.25
932.2052	2008.3484	1197.7	309.75
932.3427	2009.9312	1201.9	313.6
932.4803	2011.5133	1198.3	312.75
932.6178	2013.0946	1192.25	305.8
932.7553	2014.6752	1193.6	308.95
932.8928	2016.2551	1195.1	307.1
933.0302	2017.8342	1194.8	309.15
933.1676	2019.4126	1196.85	311.65
933.305	2020.9902	1190.65	304.3
933.4424	2022.5672	1191.6	302.8
933.5798	2024.1433	1196.45	302.75
933.7171	2025.7188	1184.2	298.95
933.8544	2027.2935	1186	298.8
933.9917	2028.8674	1183.45	298.15
934.129	2030.4406	1186.5	298.9
934.2662	2032.0131	1190.65	306.55
934.4034	2033.5849	1191.35	298.05
934.5406	2035.1559	1187.05	300.15
934.6778	2036.7261	1184.65	297.4
934.8149	2038.2957	1187.25	301.7
934.952	2039.8645	1177.9	293.1
935.0891	2041.4325	1180.95	291.2
935.2262	2042.9998	1185.3	297.15
935.3632	2044.5664	1181.15	292.3
935.5002	2046.1323	1180.1	292.85
935.6372	2047.6974	1186.65	300.25
935.7742	2049.2617	1179.75	292.35
935.9111	2050.8254	1213.7	291.7
936.048	2052.3883	1183.8	294.35
936.1849	2053.9504	1178.9	291.9
936.3218	2055.5118	1178.15	290.8
936.4586	2057.0725	1176.6	283.35
936.5955	2058.6325	1173.6	285.65
936.7323	2060.1917	1175.75	289.65
936.869	2061.7502	1181.65	291.95
937.0058	2063.3079	1173.3	285.8
937.1425	2064.8649	1178.85	287.75
937.2792	2066.4212	1173.85	286.95
937.4159	2067.9767	1171.95	287
937.5525	2069.5315	1175.3	288.6
937.6891	2071.0856	1173	285.95
937.8257	2072.6389	1169.25	282.5
937.9623	2074.1915	1167.75	282.45
938.0989	2075.7433	1168.3	278.95
938.2354	2077.2945	1166.5	280.25
938.3719	2078.8448	1166.75	281.55
938.5084	2080.3945	1161.3	275.5
938.6448	2081.9434	1163.85	278.6
938.7812	2083.4916	1165.4	281.15
938.9176	2085.039	1165.2	276.7
939.054	2086.5857	1160.45	271.7
939.1903	2088.1317	1159.9	272.65
939.3267	2089.677	1160.5	272.4
939.463	2091.2215	1161.4	274.3
939.5992	2092.7652	1157.85	270.3
939.7355	2094.3083	1159.85	272.85
939.8717	2095.8506	1162.45	276.9
940.0079	2097.3921	1161.05	275.25
940.1441	2098.933	1158.8	272.15
940.2802	2100.4731	1159.4	274
940.4163	2102.0124	1165.7	271.9
940.5524	2103.5511	1162.5	276.15
940.6885	2105.089	1154.45	269.25
940.8245	2106.6261	1154.7	268.9
940.9606	2108.1626	1158.85	271.95
941.0965	2109.6983	1186	270.8
941.2325	2111.2332	1157.5	269.1
941.3684	2112.7675	1156.2	268.85
941.5044	2114.301	1160.9	273.25
941.6403	2115.8337	1153	267.4
941.7761	2117.3657	1153.85	267.15
941.912	2118.897	1160.15	274
942.0478	2120.4276	1164.85	272
942.1835	2121.9575	1148.3	261.05
942.3193	2123.4866	1163.4	262.65
942.455	2125.0149	1149.5	258.15
942.5907	2126.5426	1151.1	264.8
942.7264	2128.0695	1153.8	261.25
942.8621	2129.5956	1150.1	264
942.9977	2131.1211	1158.3	267.45
943.1333	2132.6458	1143.85	256.2
943.2689	2134.1698	1148.85	262.5
943.4044	2135.693	1150.9	262.65
943.54	2137.2155	1147.6	258
943.6755	2138.7373	1141.2	252.2
943.8109	2140.2584	1142.65	254.4
943.9464	2141.7787	1149.85	255.25
944.0818	2143.2983	1140.8	254.55
944.2172	2144.8171	1147.45	262.45
944.3526	2146.3353	1142.6	253.35
944.4879	2147.8527	1141.75	256.35
944.6232	2149.3693	1138.85	251.95
944.7585	2150.8853	1138.4	250.35
944.8938	2152.4005	1136.8	249.65
945.029	2153.9149	1138.95	252.55
945.1642	2155.4287	1136.6	249.7
945.2994	2156.9417	1143.65	256.35
945.4346	2158.454	1142.45	250.45
945.5697	2159.9655	1139.2	252.25
945.7048	2161.4764	1139.5	252.7
945.8399	2162.9865	1136.4	249
945.9749	2164.4958	1136.45	248.75
946.1099	2166.0045	1139.8	249.95
946.2449	2167.5124	1134.35	247.15
946.3799	2169.0195	1133.1	247.35
946.5148	2170.526	1132.75	246.3
946.6498	2172.0317	1139.95	251.65
946.7846	2173.5367	1136.75	249.85
946.9195	2175.0409	1138	252.05
947.0543	2176.5445	1129.2	243.3
947.1891	2178.0473	1131.85	244.85
947.3239	2179.5494	1135.85	246.2
947.4587	2181.0507	1136.25	250.4
947.5934	2182.5513	1131.05	244
947.7281	2184.0512	1134.95	248.65
947.8628	2185.5504	1131.6	245.5
947.9974	2187.0488	1131.85	243.1
948.132	2188.5465	1128.7	241.95
948.2666	2190.0435	1129.3	241
948.4012	2191.5397	1126.3	239.15
948.5357	2193.0353	1126.2	240.7
948.6702	2194.5301	1125.6	236.6
948.8047	2196.0241	1125.4	237.8
948.9392	2197.5175	1128.4	242.2
949.0736	2199.0101	1129.85	240.85
949.208	2200.502	1125.2	238.05
949.3424	2201.9931	1120.2	232.25
949.4767	2203.4835	1125.1	237.1
949.611	2204.9733	1125.75	231.9
949.7453	2206.4622	1125.6	239.45
949.8796	2207.9505	1121.4	231.3
950.0138	2209.438	1116.75	229.8
950.148	2210.9248	1119.65	232
950.2822	2212.4109	1122.1	236
950.4164	2213.8962	1117.3	228.85
950.5505	2215.3809	1120.75	233.4
950.6846	2216.8648	1118.5	232.8
950.8186	2218.3479	1119.05	229.85
950.9527	2219.8304	1120.45	229.3
951.0867	2221.3121	1118.05	228.35
951.2207	2222.7931	1112.45	226.5
951.3546	2224.2733	1112.5	225.2
951.4886	2225.7529	1116.45	229.45
951.6225	2227.2317	1114.95	224.85
951.7563	2228.7098	1111.4	227.15
951.8902	2230.1872	1110	222.75
952.024	2231.6638	1107.95	222.55
952.1578	2233.1397	1113.65	220.7
952.2916	2234.6149	1108.45	221.1
952.4253	2236.0894	1104.5	217.5
952.559	2237.5632	1119.2	223.3
952.6927	2239.0362	1107.05	220.1
952.8263	2240.5085	1103.75	218.15
952.9599	2241.9801	1101.9	213.4
953.0935	2243.4509	1104.15	218.85
953.2271	2244.921	1104.9	218.3
953.3606	2246.3904	1100.55	211.9
953.4941	2247.8591	1101.8	215.45
953.6276	2249.3271	1102	215.75
953.7611	2250.7943	1101	215.45
953.8945	2252.2608	1100.45	215.45
954.0279	2253.7266	1095.9	208.7
954.1612	2255.1917	1098.45	212.75
954.2946	2256.656	1097.5	209.75
954.4279	2258.1197	1095.15	207.5
954.5612	2259.5826	1100	211.4
954.6944	2261.0447	1098.45	210
954.8276	2262.5062	1101.25	212.15
954.9608	2263.9669	1100.2	211.45
955.094	2265.4269	1091.95	205.6
955.2271	2266.8862	1095.65	209.55
955.3602	2268.3448	1096.2	208.8
955.4933	2269.8026	1092.75	206.05
955.6264	2271.2598	1094.85	206.2
955.7594	2272.7162	1091.9	204.15
955.8924	2274.1719	1091.6	205.2
956.0253	2275.6268	1094	207.9
956.1583	2277.0811	1094.45	208.35
956.2912	2278.5346	1090.05	202.9
956.4241	2279.9874	1089.95	202.45
956.5569	2281.4395	1089.65	203.8
956.6897	2282.8908	1094.8	203.35
956.8225	2284.3414	1089.8	202.6
956.9553	2285.7914	1089.45	202.6
957.088	2287.2406	1087.05	201.1
957.2207	2288.689	1093.2	207.3
957.3534	2290.1368	1087.65	200.9
957.486	2291.5838	1091.1	202.35
957.6186	2293.0302	1091.7	204.55
957.7512	2294.4758	1088.15	202.2
957.8838	2295.9206	1090.3	199.4
958.0163	2297.3648	1086.95	199.45
958.1488	2298.8082	1088.75	202.45
958.2813	2300.251	1088.2	201.2
958.4137	2301.693	1085.3	197.5
958.5461	2303.1343	1084.5	198.05
958.6785	2304.5748	1085.3	199.55
958.8108	2306.0147	1082.4	195.1
958.9432	2307.4538	1085.1	195.1
959.0754	2308.8922	1085.95	200.55
959.2077	2310.3299	1080	193.75
959.3399	2311.7669	1082.3	197.9
959.4721	2313.2031	1084.55	198.5
959.6043	2314.6387	1080.35	193.1
959.7365	2316.0735	1081	193.9
959.8686	2317.5076	1079.7	192.65
960.0006	2318.941	1081.5	193.6
960.1327	2320.3737	1082.65	195.85
960.2647	2321.8056	1083.1	194.15
960.3967	2323.2369	1083	197.4
960.5287	2324.6674	1082.9	192.95
960.6606	2326.0972	1083.7	194.3
960.7925	2327.5263	1088.75	203.25
960.9244	2328.9547	1087.2	197.4
961.0562	2330.3823	1085.55	197.85
961.1881	2331.8092	1086.3	195.45
961.3198	2333.2355	1078.6	191.55
961.4516	2334.661	1075.3	189.85
961.5833	2336.0858	1077.95	189.7
961.715	2337.5098	1073.45	188.15
961.8467	2338.9332	1076.75	190.2
961.9783	2340.3558	1080.4	191.45
962.1099	2341.7778	1075.8	187.95
962.2415	2343.199	1072.5	181.9
962.373	2344.6195	1075.65	189.2
962.5045	2346.0393	1070	183.05
962.636	2347.4583	1073.8	185.4
962.7675	2348.8767	1075.1	186.85
962.8989	2350.2943	1075.6	188.8
963.0303	2351.7113	1074.6	186.55
963.1617	2353.1275	1073	186.3
963.293	2354.543	1096.1	184.05
963.4243	2355.9578	1073.65	187.3
963.5556	2357.3718	1065.15	179.55
963.6868	2358.7852	1069.5	180.9
963.818	2360.1978	1071.85	183.75
963.9492	2361.6098	1063.65	175.85
964.0803	2363.021	1071.9	182
964.2114	2364.4315	1066.7	178.85
964.3425	2365.8413	1072.1	185.55
964.4736	2367.2504	1069.75	183.35
964.6046	2368.6587	1068.85	181.45
964.7356	2370.0664	1063.6	176.4
964.8666	2371.4733	1068.4	183.1
964.9975	2372.8795	1066.45	180.15
965.1284	2374.285	1068.25	181.1
965.2593	2375.6899	1071.95	185.7
965.3901	2377.0939	1066.3	180.55
965.5209	2378.4973	1064.65	178.25
965.6517	2379.9	1068.6	180.7
965.7825	2381.3019	1063.2	175.3
965.9132	2382.7032	1069.25	183
966.0439	2384.1037	1062.6	178
966.1745	2385.5035	1057.5	171.25
966.3051	2386.9027	1066.05	180.2
966.4357	2388.3011	1064.1	173.25
966.5663	2389.6987	1057.85	170.6
966.6968	2391.0957	1063.35	176.8
966.8273	2392.492	1057.95	170.05
966.9578	2393.8876	1060.25	172
967.0882	2395.2824	1057.5	172.35
967.2186	2396.6765	1052.1	165.4
967.349	2398.07	1057.25	173.3
967.4793	2399.4627	1054.25	166.15
967.6097	2400.8547	1051.05	164
967.7399	2402.246	1061.95	169.5
967.8702	2403.6366	1055.65	166.3
968.0004	2405.0265	1053.85	166
968.1306	2406.4156	1055.85	164.25
968.2607	2407.8041	1057.55	166.95
968.3909	2409.1918	1056.15	167.05
968.521	2410.5789	1051.3	164.8
968.651	2411.9652	1055.6	165.5
968.781	2413.3508	1049.05	161.55
968.911	2414.7358	1054.4	167.2
969.041	2416.12	1052.05	166.15
969.1709	2417.5035	1047.5	161.55
969.3008	2418.8863	1053.45	166.15
969.4307	2420.2684	1050.75	162.35
969.5606	2421.6497	1050.65	162.55
969.6904	2423.0304	1046.7	160.65
969.8201	2424.4104	1050.9	162.85
969.9499	2425.7896	1052.95	161.2
970.0796	2427.1682	1045.3	158.55
970.2093	2428.546	1049.1	161.15
970.3389	2429.9232	1045.15	157.3
970.4685	2431.2996	1045.9	160
970.5981	2432.6753	1048.2	162.65
970.7277	2434.0503	1048.55	160.2
970.8572	2435.4246	1045.55	157.85
970.9867	2436.7982	1049.3	161.65
971.1161	2438.1711	1047.55	160.95
971.2456	2439.5433	1041.4	152.7
971.375	2440.9148	1049.55	156.8
971.5043	2442.2856	1045.1	157.5
971.6336	2443.6557	1046.85	160.1
971.7629	2445.025	1046.55	159.1
971.8922	2446.3937	1043.4	157.05
972.0214	2447.7617	1040.25	151.75
972.1506	2449.1289	1037.25	149.45
972.2798	2450.4955	1044.5	152.7
972.4089	2451.8613	1039.05	150.5
972.538	2453.2265	1041.25	152.1
972.6671	2454.5909	1042.55	155.6
972.7961	2455.9546	1040.4	153.55
972.9251	2457.3177	1042.3	156.3
973.0541	2458.68	1039.85	152.8
973.1831	2460.0416	1037.5	149.45
973.312	2461.4025	1037.55	150.3
973.4408	2462.7627	1052.2	152.35
973.5697	2464.1222	1038.85	151.45
973.6985	2465.4811	1043.65	156.2
973.8273	2466.8392	1044.2	156.85
973.956	2468.1966	1040.85	150.05
974.0847	2469.5533	1043.9	155.85
974.2134	2470.9093	1039.25	150.8
974.3421	2472.2645	1042.4	153.15
974.4707	2473.6191	1036.5	148.6
974.5993	2474.973	1039.25	152.2
974.7278	2476.3262	1042.4	153.95
974.8563	2477.6787	1041.4	152.8
974.9848	2479.0305	1040.4	153.95
975.1132	2480.3816	1038.5	147.8
975.2417	2481.7319	1038.4	152.7
975.37	2483.0816	1038.75	147.75
975.4984	2484.4306	1040.15	151.95
975.6267	2485.7789	1037.65	150.85
975.755	2487.1264	1039.65	152.85
975.8833	2488.4733	1033.25	147.45
976.0115	2489.8195	1051.3	147.75
976.1397	2491.165	1037.3	146.4
976.2678	2492.5097	1037.7	146
976.3959	2493.8538	1032.15	144.9
976.524	2495.1972	1036.35	149.4
976.6521	2496.5398	1036.2	148.35
976.7801	2497.8818	1039.15	150.4
976.9081	2499.2231	1030.05	143.45
977.036	2500.5637	1033.4	143.45
977.164	2501.9035	1036.35	148.55
977.2918	2503.2427	1036.05	143.65
977.4197	2504.5812	1034.5	147.4
977.5475	2505.919	1039.25	151.95
977.6753	2507.256	1037.45	150.25
977.8031	2508.5924	1032.2	146.45
977.9308	2509.9281	1037.9	144.9
978.0585	2511.2631	1031.9	142.7
978.1861	2512.5974	1028.75	142.7
978.3137	2513.9309	1031.35	143.75
978.4413	2515.2638	1058.5	142.6
978.5689	2516.596	1029.6	144.65
978.6964	2517.9275	1030.1	140.1
978.8239	2519.2583	1029.05	141.7
978.9513	2520.5884	1029.5	141.3
979.0788	2521.9178	1027.75	139.5
979.2062	2523.2465	1028.2	142.15
979.3335	2524.5745	1027.2	140.25
979.4608	2525.9018	1027.8	139.8
979.5881	2527.2284	1026.05	140.7
979.7154	2528.5543	1024.9	140.75
979.8426	2529.8796	1031.9	145.65
979.9698	2531.2041	1024.45	136.3
980.0969	2532.5279	1025.5	139.6
980.224	2533.851	1031.85	145.2
980.3511	2535.1735	1021.8	132.9
980.4781	2536.4952	1028.2	142.05
980.6052	2537.8163	1026.2	138.7
980.7321	2539.1366	1022.95	136.8
980.8591	2540.4562	1023.95	136.7
980.986	2541.7752	1022.65	134.5
981.1129	2543.0935	1023	135.55
981.2397	2544.411	1022.7	134.3
981.3665	2545.7279	1021.95	135.85
981.4933	2547.0441	1025.45	138.55
981.62	2548.3596	1025.45	134.6
981.7467	2549.6744	1021.7	135.6
981.8734	2550.9885	1022.15	134.45
982.0001	2552.3019	1023.35	136.7
982.1267	2553.6146	1022.75	134.75
982.2532	2554.9266	1019.35	131.35
982.3798	2556.2379	1021.35	132.55
982.5063	2557.5485	1018.95	133.4
982.6327	2558.8585	1028.9	131.7
982.7592	2560.1677	1020.15	128.2
982.8856	2561.4762	1017.4	127.5
983.0119	2562.7841	1022.95	135.45
983.1383	2564.0913	1017.45	132.45
983.2646	2565.3977	1018.2	129.85
983.3908	2566.7035	1018.5	130.9
983.517	2568.0086	1021.3	131.95
983.6432	2569.313	1019.65	133
983.7694	2570.6167	1022.45	131.25
983.8955	2571.9197	1019.4	131.65
984.0216	2573.222	1021	132.2
984.1476	2574.5236	1019.35	131.25
984.2737	2575.8246	1020.8	133.1
984.3996	2577.1248	1021.55	131.2
984.5256	2578.4244	1018.95	130.85
984.6515	2579.7232	1020.45	134.25
984.7774	2581.0214	1046.95	130.55
984.9032	2582.3189	1015.2	128.3
985.029	2583.6157	1022.8	130.9
985.1548	2584.9118	1019.1	129.8
985.2806	2586.2072	1016.2	130.75
985.4063	2587.5019	1021.3	134.9
985.5319	2588.7959	1013.85	126.25
985.6576	2590.0893	1026.25	137.45
985.7832	2591.3819	1019.6	132.3
985.9087	2592.6739	1019.15	133.1
986.0343	2593.9652	1020.6	131.75
986.1597	2595.2557	1017.65	130.35
986.2852	2596.5456	1023.25	135.85
986.4106	2597.8348	1022.55	136.55
986.536	2599.1234	1019.85	133.15
986.6614	2600.4112	1018.65	131.4
986.7867	2601.6983	1028.4	139.15
986.912	2602.9848	1021.4	134.7
987.0372	2604.2705	1029.55	135.5
987.1624	2605.5556	1023.15	134.05
987.2876	2606.84	1024.55	137.1
987.4128	2608.1237	1022.45	134.05
987.5379	2609.4067	1023.55	136.65
987.6629	2610.689	1027.95	132.55
987.788	2611.9707	1022.8	133.25
987.913	2613.2516	1025.15	133.15
988.0379	2614.5319	1017.8	132.75
988.1629	2615.8115	1016.7	129.5
988.2878	2617.0903	1018.9	129.75
988.4126	2618.3685	1016.65	129.55
988.5375	2619.6461	1017.1	128.9
988.6622	2620.9229	1012.15	122.85
988.787	2622.199	1019.55	132.55
988.9117	2623.4745	1013.25	125.8
989.0364	2624.7493	1015.35	128.8
989.161	2626.0234	1014.8	129.85
989.2857	2627.2968	1010.45	122.6
989.4102	2628.5695	1013.7	125.35
989.5348	2629.8415	1011.05	125.6
989.6593	2631.1128	1016	128.05
989.7837	2632.3835	1011.7	125.75
989.9082	2633.6535	1009.65	122.4
990.0326	2634.9228	1012.7	125.95
990.1569	2636.1914	1009.3	120.85
990.2812	2637.4593	1017.6	124.3
990.4055	2638.7265	1012.75	124.55
990.5298	2639.9931	1014.6	128.65
990.654	2641.259	1012.3	124.9
990.7782	2642.5242	1011.55	123.9
990.9023	2643.7887	1010.2	122.2
991.0264	2645.0525	1011.35	123.5
991.1505	2646.3156	1011.65	121.45
991.2745	2647.5781	1010.95	125.1
991.3985	2648.8398	1008.7	122.2
991.5225	2650.1009	1045.7	120.3
991.6464	2651.3613	1007.95	122.05
991.7703	2652.6211	1007.75	119.25
991.8942	2653.8801	1005.55	119.15
992.018	2655.1385	1008.3	119.45
992.1418	2656.3961	1003.55	116.8
992.2655	2657.6531	1004.25	117.4
992.3892	2658.9094	1004.4	116
992.5129	2660.1651	1002.45	116.6
992.6366	2661.42	1002.45	114.55
992.7602	2662.6743	1005.3	115.85
992.8837	2663.9279	1006.8	120.75
993.0073	2665.1808	1006.25	118.25
993.1307	2666.433	1006.45	118.45
993.2542	2667.6846	1007	120
993.3776	2668.9354	1012.75	122
993.501	2670.1856	1009.4	120.8
993.6244	2671.4351	1008.4	121.65
993.7477	2672.6839	1014.55	126.85
993.8709	2673.9321	1010	122.6
993.9942	2675.1795	1011.2	124.9
994.1174	2676.4263	1017.05	129.35
994.2405	2677.6724	1013.95	127.25
994.3637	2678.9179	1012.65	124.95
994.4868	2680.1626	1012.55	128.8
994.6098	2681.4067	1015.25	125.15
994.7328	2682.6501	1012.3	125.95
994.8558	2683.8928	1017.8	128.8
994.9788	2685.1348	1004.75	118.6
995.1017	2686.3761	1009.05	120.6
995.2245	2687.6168	1006.8	119.75
995.3474	2688.8568	1004.55	119.45
995.4702	2690.0961	1001.65	115.8
995.5929	2691.3348	1002.45	112.9
995.7156	2692.5727	1001	114.15
995.8383	2693.81	1003.75	115.75
995.961	2695.0466	1000.35	115.1
996.0836	2696.2826	1001.5	111.95
996.2062	2697.5178	1002.7	112.85
996.3287	2698.7524	1001.3	114.6
996.4512	2699.9863	1006	115.45
996.5737	2701.2195	1002.1	115.35
996.6961	2702.452	1006.5	117.3
996.8185	2703.6839	1004.55	115.55
996.9408	2704.9151	1005.65	118.2
997.0631	2706.1456	1004.15	118.4
997.1854	2707.3755	1009.25	121.15
997.3077	2708.6046	1012.95	123.3
997.4299	2709.8331	1007.5	119.1
997.552	2711.0609	1010.4	122.6
997.6742	2712.2881	1013.15	127.1
997.7963	2713.5145	1013.05	123.55
997.9183	2714.7403	1014.55	128.6
998.0403	2715.9654	1018.2	129.6
998.1623	2717.1899	1033.9	133.1
998.2842	2718.4136	1025	137.35
998.4062	2719.6367	1023.45	136.6
998.528	2720.8591	1034.2	140.45
998.6498	2722.0809	1029.35	142.7
998.7716	2723.3019	1035.55	144.45
998.8934	2724.5223	1030.15	142.45
999.0151	2725.7421	1036.45	148.05
999.1368	2726.9611	1030.8	140.1
999.2584	2728.1795	1033.45	140.15
999.38	2729.3972	1022.1	135.55
999.5016	2730.6142	1034.4	132.25
999.6231	2731.8306	1018.45	131.4
999.7446	2733.0462	1019.95	130.75
999.8661	2734.2612	1017.4	126.3
999.9875	2735.4756	1010.05	121.5
1000.1089	2736.6892	1009.85	122.15
1000.2302	2737.9022	1005.75	117.3
1000.3515	2739.1145	1005.55	118.1
1000.4728	2740.3262	1010.45	115.4
1000.594	2741.5372	1002.95	114.55
1000.7152	2742.7475	1004.1	115.65
1000.8363	2743.9571	999.45	110.65
1000.9575	2745.1661	1003.9	112.7
1001.0785	2746.3744	996.75	108.6
1001.1996	2747.582	997.45	112.25
1001.3206	2748.7889	997	108.5
1001.4415	2749.9952	989.8	102.85
1001.5625	2751.2008	991.3	102.55
1001.6833	2752.4057	994.4	103.5
1001.8042	2753.61	991.4	103.35
1001.925	2754.8136	991.7	102
1002.0458	2756.0165	984.75	97.25
1002.1665	2757.2188	984.9	98.95
1002.2872	2758.4204	983.7	96.5
1002.4078	2759.6213	990.1	100.45
1002.5285	2760.8215	997.65	102.95
1002.649	2762.0211	988.2	98.05
1002.7696	2763.22	992.95	103
1002.8901	2764.4182	988.6	101.05
1003.0106	2765.6158	985.65	97.5
1003.131	2766.8127	986.35	98.55
1003.2514	2768.009	983.8	97.9
1003.3717	2769.2045	984.9	93.9
1003.492	2770.3994	986	95.3
1003.6123	2771.5936	980.9	93.75
1003.7325	2772.7872	978.15	91.8
1003.8527	2773.9801	982.15	91.1
1003.9729	2775.1723	997.35	92.9
1004.093	2776.3639	978.1	91.1
1004.2131	2777.5548	980.85	91.65
1004.3331	2778.745	979.6	90.95
1004.4531	2779.9346	980.85	93.1
1004.5731	2781.1235	982.9	94.45
1004.693	2782.3117	977.9	88.85
1004.8129	2783.4992	978.25	91.4
1004.9328	2784.6861	982.85	96.5
1005.0526	2785.8723	980.55	91.5
1005.1723	2787.0579	980.9	93.85
1005.2921	2788.2428	985.25	96.7
1005.4118	2789.427	982.7	94.6
1005.5314	2790.6106	982.15	94.9
1005.651	2791.7935	982.95	94.55
1005.7706	2792.9757	983.55	95.1
1005.8902	2794.1573	984.9	93.8
1006.0097	2795.3382	982.7	95.3
1006.1291	2796.5184	980.8	94.55
1006.2485	2797.698	985.2	94.75
1006.3679	2798.8769	985.8	97.15
1006.4873	2800.0551	989.05	99.4
1006.6066	2801.2327	990.8	101.9
1006.7258	2802.4096	985.85	98.95
1006.8451	2803.5859	990.6	101.55
1006.9642	2804.7615	997.05	108.1
1007.0834	2805.9364	990.25	102.35
1007.2025	2807.1106	991.95	105.7
1007.3216	2808.2842	997	108.15
1007.4406	2809.4572	998.8	108.6
1007.5596	2810.6294	1003	115.5
1007.6785	2811.801	1006.8	120.5
1007.7975	2812.972	1010.9	124.35
1007.9163	2814.1423	1013.9	126.75
1008.0352	2815.3119	1022.7	133.85
1008.154	2816.4808	1025.4	140.75
1008.2727	2817.6491	1036.55	148.35
1008.3914	2818.8167	1046.85	160.55
1008.5101	2819.9837	1061.1	170.25
1008.6288	2821.15	1066.65	179.25
1008.7474	2822.3157	1082.25	197.4
1008.8659	2823.4807	1105.25	216.15
1008.9844	2824.645	1127.4	239.65
1009.1029	2825.8086	1143.05	257.65
1009.2214	2826.9716	1177.8	290.6
1009.3398	2828.134	1190.15	306.3
1009.4581	2829.2957	1210.05	322.75
1009.5764	2830.4567	1224.85	337.95
1009.6947	2831.617	1236.25	350.55
1009.813	2832.7767	1243.65	357.8
1009.9312	2833.9358	1243.6	357.6
1010.0493	2835.0941	1249.5	359.05
1010.1675	2836.2519	1237.3	348.5
1010.2855	2837.4089	1225.05	338.6
1010.4036	2838.5653	1218.35	329.45
1010.5216	2839.7211	1206.65	320.35
1010.6396	2840.8761	1201.8	313.7
1010.7575	2842.0306	1199.7	312.5
1010.8754	2843.1843	1203.65	317.5
1010.9932	2844.3374	1202.85	313.45
1011.111	2845.4899	1205.4	316.4
1011.2288	2846.6417	1208.7	320.75
1011.3465	2847.7928	1211.65	324.9
1011.4642	2848.9433	1221.05	333.35
1011.5818	2850.0931	1217.4	330.65
1011.6995	2851.2422	1225.45	336.6
1011.817	2852.3907	1224.15	333.9
1011.9345	2853.5385	1229.2	339.85
1012.052	2854.6857	1257.15	344.2
1012.1695	2855.8323	1230.3	345.2
1012.2869	2856.9781	1234.75	348.45
1012.4042	2858.1233	1247.25	360.1
1012.5216	2859.2679	1253.45	365.85
1012.6389	2860.4118	1266.05	378.2
1012.7561	2861.555	1280.05	389.7
1012.8733	2862.6976	1289.05	399.75
1012.9905	2863.8395	1291.15	404
1013.1076	2864.9808	1299.3	410.95
1013.2247	2866.1214	1297.15	410.2
1013.3417	2867.2614	1312.1	426.1
1013.4587	2868.4007	1317.5	429.45
1013.5757	2869.5393	1319.35	430.75
1013.6926	2870.6773	1329.75	438.9
1013.8095	2871.8146	1337.9	447
1013.9263	2872.9513	1343.9	453.05
1014.0431	2874.0874	1349.4	462.55
1014.1599	2875.2227	1360	472.75
1014.2766	2876.3574	1352.75	466
1014.3933	2877.4915	1360	472.75
1014.51	2878.6249	1370.35	483.5
1014.6266	2879.7577	1384.55	495.25
1014.7431	2880.8898	1398.05	499.55
1014.8596	2882.0212	1395.8	507.35
1014.9761	2883.152	1404.7	517.2
1015.0925	2884.2821	1406.5	520.35
1015.2089	2885.4116	1414.75	527.1
1015.3253	2886.5405	1412.05	523.8
1015.4416	2887.6686	1424.9	534.5
1015.5579	2888.7962	1418.25	533.85
1015.6741	2889.923	1421.3	535.1
1015.7903	2891.0493	1417.35	531.9
1015.9065	2892.1748	1419.85	533.15
1016.0226	2893.2997	1416.4	529.2
1016.1387	2894.424	1413.15	526
1016.2547	2895.5476	1422.8	536.7
1016.3707	2896.6706	1419.2	533.1
1016.4866	2897.7929	1421.05	533.35
1016.6025	2898.9145	1419.75	533.25
1016.7184	2900.0355	1415.75	529.25
1016.8342	2901.1559	1411.45	521.1
1016.95	2902.2756	1409.4	521.1
1017.0658	2903.3946	1410.2	523.4
1017.1815	2904.513	1408.6	518.8
1017.2971	2905.6308	1404.95	517.75
1017.4127	2906.7479	1407.1	518.95
1017.5283	2907.8643	1398.35	508.8
1017.6439	2908.9801	1400.4	512.75
1017.7594	2910.0953	1397.75	509.85
1017.8748	2911.2098	1398.4	510.05
1017.9902	2912.3236	1400.7	506.3
1018.1056	2913.4368	1400.55	508.95
1018.2209	2914.5494	1394.25	506.5
1018.3362	2915.6613	1386.5	495.85
1018.4515	2916.7725	1381.5	491.85
1018.5667	2917.8831	1367.65	479.1
1018.6819	2918.9931	1365.05	475.35
1018.797	2920.1024	1364.2	475.9
1018.9121	2921.211	1349.2	460.8
1019.0271	2922.319	1343.8	453.85
1019.1421	2923.4264	1335.5	450.2
1019.2571	2924.5331	1332.8	445
1019.372	2925.6391	1333.85	448.45
1019.4869	2926.7445	1328.75	441.7
1019.6017	2927.8493	1336.25	448.7
1019.7165	2928.9534	1341.5	455.3
1019.8313	2930.0569	1342.05	452.75
1019.946	2931.1597	1346.25	454.75
1020.0606	2932.2619	1348.7	462
1020.1753	2933.3634	1354.5	467.25
1020.2899	2934.4643	1371.05	476.85
1020.4044	2935.5645	1366.65	470.15
1020.5189	2936.6641	1368.1	477.15
1020.6334	2937.763	1367.4	481
1020.7478	2938.8613	1366.9	479.5
1020.8622	2939.959	1373.15	483.25
1020.9765	2941.056	1353.1	465.85
1021.0908	2942.1523	1343.2	454.55
1021.2051	2943.248	1322.95	437.2
1021.3193	2944.3431	1299.95	412.95
1021.4334	2945.4375	1278.45	391.25
1021.5476	2946.5313	1255.95	369.1
1021.6617	2947.6244	1240.1	352.95
1021.7757	2948.7169	1220	333.4
1021.8897	2949.8087	1199.65	312.85
1022.0037	2950.8999	1182.65	294.95
1022.1176	2951.9904	1166.75	279.7
1022.2315	2953.0803	1157.8	270.25
1022.3453	2954.1696	1142.7	255.4
1022.4591	2955.2582	1134.75	245.35
1022.5728	2956.3462	1129.05	240.3
1022.6865	2957.4335	1125.9	237.6
1022.8002	2958.5202	1128.45	237.4
1022.9138	2959.6062	1121.15	233.35
1023.0274	2960.6916	1123.3	234.2
1023.141	2961.7764	1124.75	236.6
1023.2545	2962.8605	1119.35	233.95
1023.3679	2963.9439	1120.05	233.2
1023.4813	2965.0267	1123.3	235.55
1023.5947	2966.1089	1145.45	236.8
1023.708	2967.1905	1111.65	223.8
1023.8213	2968.2714	1110.4	222.1
1023.9346	2969.3516	1110.4	223.3
1024.0478	2970.4312	1118.55	223.65
1024.1609	2971.5102	1107.2	217.5
1024.274	2972.5885	1109.15	221.4
1024.3871	2973.6662	1113.55	219.25
1024.5002	2974.7432	1106.4	218.3
1024.6132	2975.8196	1108.35	221.4
1024.7261	2976.8954	1109.55	225.85
1024.839	2977.9705	1111.5	225.2
1024.9519	2979.045	1110.85	224
1025.0647	2980.1188	1108.4	219.2
1025.1775	2981.192	1103.25	216.8
1025.2902	2982.2645	1105.75	219.05
1025.4029	2983.3364	1101.35	215.35
1025.5156	2984.4077	1089.65	202.55
1025.6282	2985.4783	1085.15	191.95
1025.7407	2986.5483	1081.35	193.5
1025.8532	2987.6177	1070.75	185.05
1025.9657	2988.6864	1072.8	185.35
1026.0782	2989.7545	1065.65	176.9
1026.1906	2990.8219	1059	171.45
1026.3029	2991.8887	1052.2	162.7
1026.4152	2992.9548	1042.1	154.6
1026.5275	2994.0204	1033.35	146.2
1026.6397	2995.0852	1029.6	143.5
1026.7519	2996.1495	1025.05	136.1
1026.864	2997.2131	1018.75	131.65
1026.9761	2998.276	1006.5	120.05
1027.0882	2999.3383	1003.3	114.35
1027.2002	3000.4	995.9	110.2
1027.3122	3001.4611	989.3	102.6
1027.4241	3002.5215	986.35	100.4
1027.536	3003.5812	985	97.1
1027.6478	3004.6404	978.85	91.45
1027.7596	3005.6989	978.25	89.9
1027.8714	3006.7567	972.15	85.15
1027.9831	3007.8139	1002.1	83.1
1028.0947	3008.8705	968.25	80.75
1028.2064	3009.9264	971.4	80.75
1028.3179	3010.9818	966.15	78.45
1028.4295	3012.0364	963.8	76.6
1028.541	3013.0905	957.15	68.25
1028.6524	3014.1439	959.4	72.2
1028.7638	3015.1966	955.4	68.35
1028.8752	3016.2487	958.1	72.1
1028.9865	3017.3002	959.85	68.8
1029.0978	3018.3511	957.55	72.45
1029.209	3019.4013	956	68.35
1029.3202	3020.4509	955.6	67.85
1029.4314	3021.4998	954.65	67.05
1029.5425	3022.5481	952.4	64.95
1029.6535	3023.5958	955.55	68.85
1029.7645	3024.6428	955	67.25
1029.8755	3025.6892	950.45	63.25
1029.9864	3026.735	953.75	66.35
1030.0973	3027.7802	953	64.35
1030.2082	3028.8247	954	67.2
1030.319	3029.8685	951.1	64.4
1030.4297	3030.9118	950.8	62.5
1030.5404	3031.9544	950.8	64.3
1030.6511	3032.9963	949.7	61.35
1030.7617	3034.0376	950.25	62.45
1030.8723	3035.0783	952.45	61.75
1030.9829	3036.1184	951.9	62.55
1031.0934	3037.1578	952.15	66.45
1031.2038	3038.1966	955.8	67.75
1031.3142	3039.2348	949.9	64.3
1031.4246	3040.2723	960.9	63.1
1031.5349	3041.3092	954.6	67.05
1031.6452	3042.3455	955.05	69.65
1031.7554	3043.3811	952.65	65.4
1031.8656	3044.4161	953.85	65.75
1031.9758	3045.4505	954.55	68.9
1032.0859	3046.4842	956.7	70.25
1032.1959	3047.5173	954.5	68
1032.3059	3048.5498	954.95	68.7
1032.4159	3049.5816	952.8	65.4
1032.5258	3050.6128	955.35	68.05
1032.6357	3051.6434	958.7	69.6
1032.7455	3052.6734	957.4	69.15
1032.8553	3053.7027	954.35	67.25
1032.9651	3054.7314	954.9	68.4
1033.0748	3055.7594	952.7	66.4
1033.1845	3056.7868	955.9	69.25
1033.2941	3057.8136	959.45	71.25
1033.4037	3058.8398	956.4	70.1
1033.5132	3059.8653	958.4	70.85
1033.6227	3060.8902	959.05	74.45
1033.7321	3061.9145	961.7	74.7
1033.8415	3062.9381	958.15	69.8
1033.9509	3063.9612	978.05	75.35
1034.0602	3064.9835	962.65	74.95
1034.1694	3066.0053	966.65	77.9
1034.2787	3067.0264	961.9	74.35
1034.3878	3068.0469	962.55	75.05
1034.497	3069.0668	961.3	69.55
1034.6061	3070.086	956.95	69.25
1034.7151	3071.1046	963.35	74.05
1034.8241	3072.1226	963.05	73.65
1034.9331	3073.1399	959.8	73.25
1035.042	3074.1567	957.6	72.1
1035.1508	3075.1727	958.95	70.55
1035.2597	3076.1882	952.8	66
1035.3684	3077.203	952.05	65.4
1035.4772	3078.2173	951.35	63.7
1035.5859	3079.2308	949.8	59.4
1035.6945	3080.2438	949.8	59.75
1035.8031	3081.2561	944.25	58.45
1035.9117	3082.2678	944.55	56.25
1036.0202	3083.2789	945.55	60.45
1036.1286	3084.2893	940.85	53.7
1036.2371	3085.2991	936.8	46.9
1036.3454	3086.3083	943.85	53.25
1036.4538	3087.3169	938.3	50.4
1036.562	3088.3248	940.05	49.75
1036.6703	3089.3321	940.75	50.1
1036.7785	3090.3388	934.2	49.4
1036.8866	3091.3449	936.35	49.35
1036.9948	3092.3503	934.35	43.95
1037.1028	3093.3551	933.4	48.75
1037.2108	3094.3593	931.75	45.2
1037.3188	3095.3629	934.7	47.8
1037.4267	3096.3658	931.9	41.25
1037.5346	3097.3681	931.55	44.95
1037.6425	3098.3698	934.9	47.8
1037.7503	3099.3708	932.6	43.45
1037.858	3100.3713	932.8	47.25
1037.9657	3101.3711	932.3	43.45
1038.0734	3102.3702	1068.3	40.25
1038.181	3103.3688	930.45	40.25
1038.2886	3104.3667	925.25	39.4
1038.3961	3105.364	926.3	39.5
1038.5036	3106.3607	928.6	39.6
1038.611	3107.3568	930.05	40.1
1038.7184	3108.3522	927.3	40.75
1038.8257	3109.347	925.15	35.8
1038.933	3110.3412	929.3	38.45
1039.0403	3111.3348	924.4	38.1
1039.1475	3112.3277	924.35	36.55
1039.2547	3113.32	921.2	33.5
1039.3618	3114.3117	923.05	35.6
1039.4689	3115.3028	921.8	33.9
1039.5759	3116.2932	923.2	33.65
1039.6829	3117.2831	926.05	34.6
1039.7898	3118.2723	920.7	33.5
1039.8967	3119.2608	919.95	35.6
1040.0035	3120.2488	921.35	33.05
1040.1103	3121.2361	919.7	31.5
1040.2171	3122.2229	919.4	30.1
1040.3238	3123.209	919.05	29.5
1040.4305	3124.1944	918.1	31.4
1040.5371	3125.1793	920.55	31.55
1040.6437	3126.1635	914.95	27.35
1040.7502	3127.1471	915.9	29.4
1040.8567	3128.1301	916.85	29.55
1040.9631	3129.1125	915.45	31.35
1041.0695	3130.0942	915.55	28.15
1041.1759	3131.0753	923.25	27.1
1041.2822	3132.0558	919	28.9
1041.3884	3133.0357	916	29.1
1041.4946	3134.015	915.55	25.95
1041.6008	3134.9936	918.85	29.95
1041.7069	3135.9716	932.1	24.5
1041.813	3136.949	913	25.7
1041.919	3137.9258	929.75	25.5
1042.025	3138.902	919.1	26.95
1042.1309	3139.8775	910.5	24.15
1042.2368	3140.8524	913.5	24.4
1042.3427	3141.8267	916.55	26.4
1042.4485	3142.8004	911.5	23.35
1042.5542	3143.7735	918.9	28.05
1042.6599	3144.7459	915.55	26.55
1042.7656	3145.7178	914.05	26.75
1042.8712	3146.689	910.95	25.3
1042.9768	3147.6596	913.15	23.2
1043.0823	3148.6295	912.5	26.05
1043.1878	3149.5989	914	26.75
1043.2932	3150.5676	908.1	22.3
1043.3986	3151.5357	910.15	24.1
1043.5039	3152.5032	908.5	19.9
1043.6092	3153.4701	912.25	23.5
1043.7145	3154.4364	910.15	20.45
1043.8197	3155.402	909.05	23.25
1043.9248	3156.367	910.25	20.85
1044.03	3157.3315	948.05	23.3
1044.135	3158.2952	909.6	22.1
1044.24	3159.2584	909.05	23.4
1044.345	3160.221	909.7	21.95
1044.4499	3161.1829	909.45	20.6
1044.5548	3162.1442	908.95	20
1044.6596	3163.105	911.25	22.5
1044.7644	3164.065	910.25	21.5
1044.8692	3165.0245	910.9	20.6
1044.9739	3165.9834	905.75	18.4
1045.0785	3166.9416	906.5	19
1045.1831	3167.8993	909.6	23.1
1045.2877	3168.8563	909.2	23.35
1045.3922	3169.8127	907.05	20.1
1045.4966	3170.7684	905.15	18.6
1045.6011	3171.7236	908.25	19.65
1045.7054	3172.6782	907.3	19.55
1045.8098	3173.6321	908.2	18.75
1045.914	3174.5854	914.35	22.15
1046.0183	3175.5381	907.55	19.75
1046.1224	3176.4902	908.65	22.25
1046.2266	3177.4417	905.35	19.35
1046.3307	3178.3926	907.1	23.25
1046.4347	3179.3428	906.25	20.2
1046.5387	3180.2924	904.3	16.6
1046.6427	3181.2415	905.9	16.5
1046.7466	3182.1899	908.5	19.35
1046.8504	3183.1377	908.15	19.4
1046.9542	3184.0848	907.25	16.15
1047.058	3185.0314	904.2	16.25
1047.1617	3185.9773	906.35	18.35
1047.2654	3186.9227	906.65	20.6
1047.369	3187.8674	907.1	18.6
1047.4726	3188.8115	911	19.1
1047.5761	3189.755	905	19
1047.6796	3190.6979	905.75	17.75
1047.783	3191.6402	904.5	19
1047.8864	3192.5818	905.4	19.45
1047.9898	3193.5229	910.45	15.65
1048.0931	3194.4633	905.8	18.5
1048.1963	3195.4031	902.75	14.45
1048.2995	3196.3423	904.15	17.25
1048.4027	3197.2809	904.5	16.9
1048.5058	3198.2189	904.1	16.35
1048.6089	3199.1563	910.1	15.45
1048.7119	3200.0931	904.1	16.4
1048.8148	3201.0292	902.85	16.55
1048.9178	3201.9648	903.65	17.05
1049.0206	3202.8997	907.2	17.35
1049.1235	3203.834	904.4	17.85
1049.2262	3204.7677	901.3	13.95
1049.329	3205.7008	906.35	16.35
1049.4317	3206.6333	902.65	18.4
1049.5343	3207.5652	904.1	13.8
1049.6369	3208.4964	903.65	16.65
1049.7394	3209.4271	902.55	15.6
1049.8419	3210.3571	900.55	13
1049.9444	3211.2865	904.4	16.55
1050.0468	3212.2154	903.15	13.6
1050.1491	3213.1436	906.15	17.4
1050.2514	3214.0712	908.1	13.05
1050.3537	3214.9982	901.45	12.9
1050.4559	3215.9246	903.3	14.7
1050.5581	3216.8503	899.8	12.45
1050.6602	3217.7755	903.25	14.65
1050.7623	3218.7001	901.8	15.1
1050.8643	3219.624	900.95	14.65
1050.9663	3220.5473	902.9	15.35
1051.0682	3221.4701	902.55	13.7
1051.1701	3222.3922	901.6	12.3
1051.2719	3223.3137	901.25	13.75
1051.3737	3224.2346	902.1	13.65
1051.4754	3225.1549	899.65	10.35
1051.5771	3226.0746	898.85	11.5
1051.6788	3226.9937	901.15	14.1
1051.7804	3227.9121	902.6	17.55
1051.8819	3228.83	902	14.85
1051.9834	3229.7473	903.95	17.15
1052.0849	3230.6639	902	15.95
1052.1863	3231.5799	898.4	12.25
1052.2876	3232.4954	903	15.35
1052.3889	3233.4102	899.3	11.85
1052.4902	3234.3244	898.05	8.85
1052.5914	3235.238	903	15.75
1052.6926	3236.151	922.1	10.55
1052.7937	3237.0634	899.65	12.45
1052.8948	3237.9752	900.55	14.5
1052.9958	3238.8864	902.65	15.55
1053.0968	3239.797	900.95	13.35
1053.1977	3240.7069	899.25	11.75
1053.2986	3241.6163	903.2	14.25
1053.3994	3242.5251	898.35	9.8
1053.5002	3243.4332	899.85	11.8
1053.6009	3244.3408	898.95	10.05
1053.7016	3245.2477	901.7	14.5
1053.8022	3246.154	902.25	13.15
1053.9028	3247.0598	899.65	12.8
1054.0034	3247.9649	900	11
1054.1039	3248.8694	898.8	11.05
1054.2043	3249.7733	897.55	8.75
1054.3047	3250.6766	898.3	9.8
1054.4051	3251.5793	899.55	10.55
1054.5054	3252.4814	898.3	11.45
1054.6056	3253.3829	898.4	13.25
1054.7058	3254.2838	896.1	8.3
1054.806	3255.1841	896.85	10.25
1054.9061	3256.0838	898.9	13.15
1055.0061	3256.9829	896.85	9.2
1055.1062	3257.8814	897.4	8.7
1055.2061	3258.7792	900.7	9.85
1055.306	3259.6765	898.1	10.4
1055.4059	3260.5731	897.3	10.5
1055.5057	3261.4692	897.7	7.15
1055.6055	3262.3647	898.65	10.4
1055.7052	3263.2595	897.4	10.05
1055.8049	3264.1538	897.5	12.15
1055.9045	3265.0474	898.6	11.35
1056.0041	3265.9404	896.4	10.1
1056.1036	3266.8329	897.6	9.9
1056.2031	3267.7247	906.75	9.05
1056.3025	3268.616	894.5	8.75
1056.4019	3269.5066	896.7	8.5
1056.5013	3270.3966	897.4	7.8
1056.6005	3271.286	894.8	10.4
