Software Version:	3.9.2.0
Unit SN:	10000200
Spectrometer SN:	6960
Date:	3/14/2024 1:50:29 PM
Data Line Index:	25
Spectral Points:	2048
Integration time (ms):	125
Averages:	20
Delay (ms):	30000
Sequence Number:	1
Processing:	dark subtract
Laser Power (mW):	300
Laser Current (mA):	825
Laser Diode Temp (C):	25
Laser Case Temp (C):	28.9
System Temp (C):	28.9
Spectrometer Temp (C):	26.6
CCD Temp (C):	0.012
Secondary Temp (C):	20.007
Heatsink Temp (C):	24.77
CCDPCB Temp (C):	38.241
SecondaryPCB Temp (C):	35.896

Wavelength	RamanShift	Raw Counts	Dark Subtracted
787.061	30.1047	463.95	53.45
787.2016	32.3739	469.8	61.2
787.3422	34.6426	473.05	65.4
787.4828	36.9109	479.55	67.3
787.6235	39.1787	487.5	72.3
787.7642	41.4461	503.2	81.5
787.9049	43.7131	504.55	79.2
788.0456	45.9796	518	89.65
788.1863	48.2456	528.1	98
788.3271	50.5112	536.8	101.55
788.4679	52.7764	549.6	111.2
788.6087	55.0411	556.75	115.15
788.7496	57.3054	568.95	121.8
788.8904	59.5692	581.75	134.1
789.0313	61.8326	593.5	137.7
789.1722	64.0955	607.55	148.4
789.3132	66.3579	627.25	164.5
789.4541	68.6199	646.6	181.05
789.5951	70.8815	682.95	215.65
789.7361	73.1426	762.15	289.05
789.8771	75.4032	965.1	488.1
790.0181	77.6634	1477.85	994.75
790.1592	79.9231	2692.8	2204.1
790.3003	82.1824	5357.95	4862.15
790.4414	84.4412	10273.85	9758.8
790.5825	86.6995	17251.1	16713.7
790.7237	88.9574	24251.6	23693.35
790.8648	91.2148	29190.95	28619
791.006	93.4717	31628.95	31047
791.1472	95.7282	32227.55	31643.9
791.2885	97.9842	32260.75	31671.15
791.4297	100.2398	31744.85	31150.4
791.571	102.4949	31145.65	30550.05
791.7123	104.7495	30387.6	29788.1
791.8536	107.0036	29623.65	29021.7
791.9949	109.2573	28817.3	28218.2
792.1363	111.5105	28072.85	27470.9
792.2777	113.7632	27312.95	26707.9
792.4191	116.0154	26688.25	26076.55
792.5605	118.2672	26256.55	25648.5
792.7019	120.5185	25746.05	25136.65
792.8434	122.7693	25352.3	24739.9
792.9849	125.0197	25040.7	24422.2
793.1264	127.2696	24787.55	24172.6
793.2679	129.519	24605.2	23987.5
793.4094	131.7679	24404.15	23782.75
793.551	134.0163	24274.65	23649.4
793.6926	136.2642	24068.4	23442.85
793.8342	138.5117	23855.1	23215.1
793.9758	140.7587	23621.1	22987.35
794.1175	143.0052	23406.2	22770.5
794.2591	145.2512	23138.75	22497.95
794.4008	147.4967	22886.25	22249.35
794.5425	149.7417	22754.05	22114.3
794.6842	151.9863	22622.15	21978.2
794.826	154.2304	22533.25	21888.15
794.9677	156.4739	22393.2	21743.4
795.1095	158.717	22331.6	21682.6
795.2513	160.9596	22143.15	21489.7
795.3931	163.2017	21879.25	21224.15
795.535	165.4433	21563.45	20906.55
795.6768	167.6844	21213.75	20551.4
795.8187	169.925	20855	20193.9
795.9606	172.1651	20505.4	19838.45
796.1025	174.4047	20181.05	19507.85
796.2445	176.6439	19926.2	19254.25
796.3864	178.8825	19647.5	18973.4
796.5284	181.1206	19490.75	18814.95
796.6704	183.3582	19300.75	18618.75
796.8124	185.5954	19175.45	18490.55
796.9544	187.832	19062.55	18379.35
797.0965	190.0681	18995.75	18307.6
797.2386	192.3037	18994.55	18301.05
797.3806	194.5388	18979.85	18284.8
797.5228	196.7734	19032.5	18338
797.6649	199.0075	19103.15	18401.2
797.807	201.2411	19232.4	18528.55
797.9492	203.4742	19221.9	18518.6
798.0914	205.7068	19394.85	18690.25
798.2336	207.9389	19520.55	18816.7
798.3758	210.1704	19646	18938.8
798.518	212.4015	19754	19045.4
798.6603	214.632	19895.8	19189.5
798.8025	216.862	20085.05	19383.15
798.9448	219.0915	20257.15	19560.05
799.0871	221.3205	20453.7	19760.85
799.2294	223.549	20695.35	20007.05
799.3718	225.777	20992.8	20306.45
799.5141	228.0044	21372.45	20682.15
799.6565	230.2314	21842.1	21150.5
799.7989	232.4578	22286	21597.4
799.9413	234.6837	22625.5	21927.3
800.0837	236.909	22798	22100.7
800.2262	239.1339	22738.95	22014.2
800.3687	241.3582	22501.25	21793.4
800.5111	243.582	22193	21456.45
800.6536	245.8053	21809.85	21080.15
800.7961	248.0281	21475.4	20753.7
800.9387	250.2503	21225.75	20495.9
801.0812	252.472	21069.35	20340.65
801.2238	254.6932	21004	20274.05
801.3664	256.9139	20907.55	20171.8
801.509	259.134	20898.95	20161.45
801.6516	261.3536	20882.55	20145.1
801.7942	263.5727	20926.9	20188.5
801.9369	265.7912	20873.25	20137.15
802.0795	268.0092	20876.95	20140.7
802.2222	270.2267	20850.05	20109.9
802.3649	272.4436	20818.2	20078.8
802.5076	274.6601	20752.55	20005.4
802.6504	276.8759	20635.25	19895.95
802.7931	279.0913	20592.25	19848.85
802.9359	281.3061	20514.75	19767.8
803.0787	283.5204	20586.65	19837.75
803.2215	285.7341	20614.8	19864.35
803.3643	287.9473	20833.3	20068.85
803.5071	290.16	21034.05	20273.8
803.6499	292.3721	21328.75	20577.05
803.7928	294.5837	21759.3	21007.35
803.9357	296.7947	22118.7	21366.55
804.0786	299.0052	22281.9	21526.25
804.2215	301.2152	22130.5	21374.35
804.3644	303.4246	21746.5	20993.05
804.5074	305.6334	21155.55	20401.25
804.6503	307.8418	20615.4	19859.35
804.7933	310.0495	20169.6	19413.5
804.9363	312.2568	19805.6	19050.75
805.0793	314.4635	19548.15	18789.75
805.2223	316.6696	19470.45	18711.8
805.3653	318.8752	19386.05	18619
805.5084	321.0802	19441.8	18681.45
805.6514	323.2847	19565.4	18801.4
805.7945	325.4887	19571.7	18806.4
805.9376	327.692	19524.9	18760.95
806.0807	329.8949	19356.95	18591.25
806.2238	332.0972	19103.15	18338.1
806.367	334.2989	18765.1	17994.8
806.5101	336.5001	18517.8	17747.9
806.6533	338.7007	18303.25	17536.3
806.7965	340.9008	18194.2	17422.35
806.9397	343.1003	18047.8	17274.2
807.0829	345.2992	17980.7	17206.3
807.2261	347.4976	17925.5	17149.75
807.3693	349.6955	17896.95	17117.6
807.5126	351.8927	17965.75	17183.55
807.6559	354.0895	17915.5	17124.6
807.7991	356.2856	17924.15	17142.65
807.9424	358.4812	17956.35	17175.6
808.0857	360.6763	17937	17155.2
808.2291	362.8707	17905.25	17122.5
808.3724	365.0646	17940.5	17155.75
808.5158	367.258	17924.05	17136.65
808.6591	369.4508	17923.65	17132.7
808.8025	371.643	17982.55	17190.65
808.9459	373.8346	17984.9	17192.15
809.0893	376.0257	17929.4	17133.05
809.2327	378.2162	17851.55	17056.75
809.3762	380.4062	17745.2	16946.45
809.5196	382.5956	17573.2	16771.15
809.6631	384.7844	17437.9	16639.05
809.8066	386.9726	17294.6	16492.5
809.9501	389.1603	17225.05	16424.8
810.0936	391.3474	17246.8	16416.55
810.2371	393.5339	17169.45	16370.6
810.3806	395.7199	17069.45	16276.85
810.5241	397.9052	17075.85	16283.45
810.6677	400.09	17074.8	16280.65
810.8113	402.2743	17129.15	16336.6
810.9548	404.4579	17199.95	16412.65
811.0984	406.641	17369.55	16579.55
811.2421	408.8235	17586.7	16794.3
811.3857	411.0054	17943.8	17151.3
811.5293	413.1868	18341.3	17545.9
811.673	415.3675	18627.05	17830.55
811.8166	417.5477	18827.55	18032.5
811.9603	419.7273	18887.95	18088.65
812.104	421.9064	18723	17914.1
812.2477	424.0848	18592.6	17788.55
812.3914	426.2627	18366.65	17559.5
812.5351	428.4399	18021.3	17213.2
812.6788	430.6166	17638.4	16826.75
812.8226	432.7928	17254.75	16442.5
812.9663	434.9683	16919.25	16107.45
813.1101	437.1432	16664.8	15853.5
813.2539	439.3176	16488.75	15672.5
813.3977	441.4914	16346.8	15534.15
813.5415	443.6645	16312	15496.85
813.6853	445.8371	16229.3	15413.45
813.8291	448.0091	16119.15	15304.05
813.973	450.1806	16105.9	15292.9
814.1168	452.3514	16053.75	15234.55
814.2607	454.5216	16026.85	15196.05
814.4046	456.6913	15951.45	15130.1
814.5485	458.8603	15957.25	15139.15
814.6924	461.0288	16041.05	15225.05
814.8363	463.1967	16035.1	15215.55
814.9802	465.3639	16110.5	15287.45
815.1241	467.5306	16208.7	15385.9
815.2681	469.6967	16337.35	15516
815.412	471.8622	16449.15	15628.2
815.556	474.0271	16602.4	15780.65
815.7	476.1914	16684.1	15858.65
815.844	478.3551	16653.4	15830.5
815.988	480.5182	16621.05	15797.4
816.132	482.6807	16587.75	15763.3
816.276	484.8426	16691.65	15867.35
816.4201	487.0039	16949.95	16127.6
816.5641	489.1647	17380.3	16553.45
816.7082	491.3248	17838.35	17016.1
816.8522	493.4843	17997.35	17171.3
816.9963	495.6432	17949.1	17123.75
817.1404	497.8015	17839.55	17010.75
817.2845	499.9592	17810.4	16986.2
817.4286	502.1163	17712.55	16885.65
817.5727	504.2728	17465.2	16637.2
817.7168	506.4287	17151.65	16323.35
817.861	508.5839	16707.2	15876.4
818.0051	510.7386	16359	15529.3
818.1493	512.8927	16154.2	15317.25
818.2935	515.0461	16020.3	15188.05
818.4377	517.199	15960.45	15130.25
818.5818	519.3512	15950	15123.4
818.726	521.5029	15954.25	15119.3
818.8703	523.6539	16045.95	15214.55
819.0145	525.8043	16086.7	15254.1
819.1587	527.9541	16102.45	15269.45
819.303	530.1033	16070.4	15238.05
819.4472	532.2519	16089.4	15254.8
819.5915	534.3999	16207.85	15370.4
819.7357	536.5472	16473.2	15635.95
819.88	538.694	16935.45	16103.25
820.0243	540.8401	17527.95	16690.1
820.1686	542.9856	18035.95	17194.05
820.3129	545.1305	18175.7	17337.65
820.4572	547.2748	18010.15	17174.15
820.6016	549.4185	17590.35	16751.45
820.7459	551.5615	17203	16364.5
820.8902	553.704	17035.35	16198.2
821.0346	555.8458	16950.15	16111.45
821.1789	557.987	16952.35	16111.5
821.3233	560.1276	16919.95	16080.8
821.4677	562.2675	16891.9	16053.5
821.6121	564.4069	16911.35	16074.6
821.7565	566.5456	16904.75	16067.25
821.9009	568.6837	16835.7	15995.95
822.0453	570.8212	16536.3	15698.25
822.1897	572.958	16177.9	15336.65
822.3342	575.0942	15875.45	15036.25
822.4786	577.2299	15634.6	14793.8
822.6231	579.3648	15609	14765.45
822.7675	581.4992	15670.55	14828.7
822.912	583.6329	15882.8	15041.75
823.0565	585.766	16120.3	15279.5
823.201	587.8985	16204.35	15365.2
823.3454	590.0304	16237.75	15369.4
823.4899	592.1616	16121.35	15278.2
823.6345	594.2922	15999.65	15155.15
823.779	596.4222	15826.25	14982.75
823.9235	598.5515	15633.9	14789.35
824.068	600.6802	15456.2	14610.25
824.2126	602.8083	15244.2	14402.9
824.3571	604.9358	15203.25	14358.55
824.5017	607.0626	15110	14262.2
824.6462	609.1888	15050.15	14207.1
824.7908	611.3144	14978.75	14130.65
824.9354	613.4393	14858	14011.45
825.08	615.5636	14733.7	13888.7
825.2246	617.6873	14646.45	13799.7
825.3692	619.8103	14545.4	13698.1
825.5138	621.9327	14445.65	13595.4
825.6584	624.0544	14396.1	13550.9
825.803	626.1756	14379	13531.3
825.9477	628.2961	14332.3	13483.35
826.0923	630.4159	14232.25	13387.05
826.237	632.5351	14194.45	13345.9
826.3816	634.6537	14104.45	13254.75
826.5263	636.7716	14078.5	13229.25
826.6709	638.8889	14096.85	13244.85
826.8156	641.0056	14092.6	13242.3
826.9603	643.1216	14070.05	13218.05
827.105	645.237	14057.3	13205.95
827.2497	647.3518	14017.25	13165.9
827.3944	649.4659	14011.55	13160.95
827.5391	651.5793	14010.25	13159.9
827.6838	653.6922	13969.05	13116.7
827.8285	655.8043	13931.4	13079.4
827.9733	657.9159	13914.5	13059.2
828.118	660.0268	13833.85	12979.7
828.2627	662.137	13785.45	12930.95
828.4075	664.2466	13736.7	12882.95
828.5522	666.3556	13690.5	12836.7
828.697	668.4639	13678.6	12824.45
828.8418	670.5716	13697.8	12843.4
828.9865	672.6786	13779.6	12923.35
829.1313	674.785	13811.05	12954.1
829.2761	676.8907	13835.85	12979.25
829.4209	678.9958	13906.6	13050.7
829.5657	681.1002	13858.6	13001.9
829.7105	683.204	13849.45	12990.95
829.8553	685.3072	13769.8	12915.05
830.0001	687.4097	13674.55	12817.95
830.1449	689.5115	13634.85	12776.75
830.2898	691.6127	13554.45	12698.9
830.4346	693.7132	13489.7	12629.7
830.5794	695.8131	13449.75	12578.7
830.7243	697.9123	13382.65	12523.3
830.8691	700.0109	13337.95	12478.15
831.014	702.1089	13305.9	12448.1
831.1588	704.2061	13307.55	12450.95
831.3037	706.3028	13327.7	12468.4
831.4486	708.3987	13356.2	12494.15
831.5935	710.4941	13435.45	12578.35
831.7383	712.5887	13580.55	12721.3
831.8832	714.6827	13879.4	13015.35
832.0281	716.7761	14203.45	13343.65
832.173	718.8688	14567.25	13706.3
832.3179	720.9608	14744.85	13882.05
832.4628	723.0522	14767.8	13902.35
832.6077	725.1429	14577	13715.85
832.7527	727.233	14263.6	13401.95
832.8976	729.3224	13981.65	13118.85
833.0425	731.4112	13704.45	12840.6
833.1874	733.4993	13483.1	12621.55
833.3324	735.5867	13315.65	12452.65
833.4773	737.6735	13178.05	12313.8
833.6222	739.7596	13072.05	12207.2
833.7672	741.845	13012.75	12147.85
833.9122	743.9298	12986.95	12121.95
834.0571	746.014	12947.35	12081.75
834.2021	748.0974	12968.3	12105.05
834.347	750.1802	12975.45	12110.4
834.492	752.2624	12944.9	12081.3
834.637	754.3439	12971	12105.95
834.782	756.4247	13066.5	12192.8
834.9269	758.5048	13163.25	12299.15
835.0719	760.5843	13357.45	12490.8
835.2169	762.6631	13642.25	12777.5
835.3619	764.7413	14130.65	13267.9
835.5069	766.8188	14733.55	13866.05
835.6519	768.8956	15171.55	14305.45
835.7969	770.9718	15436.05	14573.2
835.9419	773.0473	15304.95	14438.45
836.0869	775.1221	14967.25	14102.95
836.232	777.1962	14589.65	13723.95
836.377	779.2697	14372.2	13504.55
836.522	781.3426	14423	13539.25
836.667	783.4147	14673.75	13809.65
836.8121	785.4862	14952.5	14087.75
836.9571	787.557	14930.45	14064.25
837.1021	789.6271	14562.35	13698.35
837.2472	791.6966	13951.45	13083.85
837.3922	793.7654	13410.2	12541.05
837.5373	795.8335	13059.05	12194.6
837.6823	797.901	12853.95	11986.9
837.8274	799.9678	12732.85	11864.95
837.9724	802.0339	12683.4	11819.3
838.1175	804.0993	12747.95	11870.4
838.2626	806.1641	12718	11850.45
838.4076	808.2282	12663.3	11798.55
838.5527	810.2916	12553.65	11681.5
838.6978	812.3544	12445.4	11579.75
838.8428	814.4164	12328.1	11463.05
838.9879	816.4778	12339	11470.95
839.133	818.5385	12319.8	11452.2
839.2781	820.5986	12377.65	11510.9
839.4232	822.658	12497.75	11626.75
839.5682	824.7166	12572.65	11705.35
839.7133	826.7747	12798	11930.9
839.8584	828.832	12984.55	12114.25
840.0035	830.8886	13159.65	12290.9
840.1486	832.9446	13269.6	12398.75
840.2937	834.9999	13289.35	12421.45
840.4388	837.0545	13266.45	12393.8
840.5839	839.1085	13220.55	12349.4
840.729	841.1618	13163.35	12288.9
840.8741	843.2143	13094.05	12225.45
841.0192	845.2662	12986.8	12119.8
841.1643	847.3175	12903.3	12035.05
841.3095	849.368	12786.2	11916.55
841.4546	851.4179	12638.25	11770.9
841.5997	853.467	12498.5	11626.3
841.7448	855.5155	12368.6	11497.2
841.8899	857.5633	12266.7	11396.85
842.0351	859.6105	12128.3	11258
842.1802	861.6569	12051.1	11180.25
842.3253	863.7027	11970.95	11099.5
842.4704	865.7478	11928.05	11056.15
842.6156	867.7922	11945.3	11074.8
842.7607	869.8359	11968.7	11098.2
842.9058	871.8789	12057.55	11187.8
843.0509	873.9212	12235.25	11330.7
843.1961	875.9629	12366.55	11497.8
843.3412	878.0039	12546.05	11671.5
843.4863	880.0441	12615.8	11744.7
843.6315	882.0837	12611.15	11738.15
843.7766	884.1226	12511.9	11640.05
843.9218	886.1609	12396.4	11524.55
844.0669	888.1984	12246.55	11377.05
844.212	890.2352	12244.9	11375.5
844.3572	892.2714	12200.55	11324.15
844.5023	894.3069	12138.05	11266.4
844.6475	896.3416	12056.05	11184.55
844.7926	898.3757	11988	11114.65
844.9377	900.4091	11989.4	11117.2
845.0829	902.4418	11971.6	11094.35
845.228	904.4739	11981.7	11106.5
845.3732	906.5052	11965.95	11092.55
845.5183	908.5358	11858.65	10985.1
845.6635	910.5658	11707.45	10832.7
845.8086	912.595	11529.85	10656.65
845.9538	914.6236	11377.75	10505.75
846.0989	916.6515	11300.9	10428.4
846.2441	918.6786	11272.95	10399.4
846.3892	920.7051	11338.55	10462.55
846.5344	922.7309	11418.05	10543.7
846.6795	924.756	11456.3	10581.4
846.8246	926.7804	11546	10668.85
846.9698	928.8041	11508.2	10633
847.1149	930.8272	11519.5	10645.05
847.2601	932.8495	11451.4	10574.9
847.4052	934.8711	11386	10509.4
847.5504	936.892	11224.65	10349.05
847.6955	938.9123	11063.75	10189.05
847.8407	940.9318	10938.9	10063
847.9858	942.9506	10825.85	9949.15
848.131	944.9688	10712.35	9839.3
848.2761	946.9862	10663.55	9788.9
848.4213	949.003	10609.4	9735.45
848.5664	951.019	10562.85	9687.9
848.7115	953.0344	10556.75	9682.45
848.8567	955.0491	10613.15	9735.5
849.0018	957.063	10652	9778
849.147	959.0763	10746.2	9871.1
849.2921	961.0888	10788.8	9910
849.4373	963.1007	10846.65	9970.65
849.5824	965.1119	10896.2	10019.9
849.7275	967.1223	10894.85	10017.75
849.8727	969.1321	10931.9	10056.8
850.0178	971.1412	10958.9	10085.45
850.1629	973.1495	10941.15	10066.25
850.3081	975.1572	10978.25	10068.7
850.4532	977.1641	10972.3	10096.75
850.5983	979.1704	10957.9	10081.3
850.7435	981.1759	10925.3	10046.75
850.8886	983.1808	10971.25	10091.1
851.0337	985.1849	11065.25	10177.75
851.1788	987.1884	11210.6	10332.45
851.324	989.1911	11363.55	10484.9
851.4691	991.1932	11498.7	10622.4
851.6142	993.1945	11526.25	10650.35
851.7593	995.1951	11468.65	10590.5
851.9045	997.1951	11447.8	10564
852.0496	999.1943	11342.35	10467.25
852.1947	1001.1928	11316.45	10439.05
852.3398	1003.1906	11320	10444.2
852.4849	1005.1877	11356.85	10477.75
852.63	1007.1841	11335.45	10459.1
852.7751	1009.1798	11240.1	10366.65
852.9202	1011.1748	11043.2	10165.25
853.0653	1013.1691	10856.95	9978.95
853.2104	1015.1627	10647.25	9768.75
853.3555	1017.1556	10408.25	9531.5
853.5006	1019.1477	10331.75	9452.55
853.6457	1021.1392	10216.1	9338.6
853.7908	1023.1299	10185.95	9308.2
853.9359	1025.12	10205.9	9327.65
854.081	1027.1093	10266.25	9388.7
854.2261	1029.0979	10328.7	9452.75
854.3712	1031.0859	10406.7	9528.95
854.5163	1033.0731	10410.3	9530.5
854.6613	1035.0596	10323.4	9446.75
854.8064	1037.0454	10193.5	9314.75
854.9515	1039.0304	10074.1	9195.95
855.0965	1041.0148	9930.85	9056.55
855.2416	1042.9985	9808.6	8930.8
855.3867	1044.9814	9762.4	8886.55
855.5317	1046.9636	9682.1	8800.8
855.6768	1048.9452	9673.2	8796.05
855.8219	1050.926	9681.4	8803.95
855.9669	1052.9061	9681.5	8804.1
856.112	1054.8855	9680.75	8798.95
856.257	1056.8642	9673.95	8796.15
856.4021	1058.8421	9729.45	8850.25
856.5471	1060.8194	9750.75	8873.6
856.6921	1062.7959	9784.05	8905.6
856.8372	1064.7717	9796.95	8918.35
856.9822	1066.7469	9827.9	8947.65
857.1272	1068.7213	9791.5	8910.85
857.2723	1070.695	9757.5	8878
857.4173	1072.6679	9733.95	8855.55
857.5623	1074.6402	9680.1	8801.4
857.7073	1076.6117	9659.25	8773.6
857.8523	1078.5826	9609.65	8732.55
857.9973	1080.5527	9624.85	8743.85
858.1423	1082.5221	9740	8859.8
858.2873	1084.4908	9918.05	9037.8
858.4323	1086.4587	10086.35	9207.35
858.5773	1088.426	10222.4	9341.15
858.7223	1090.3925	10205.1	9321.55
858.8673	1092.3584	10160.3	9280
859.0123	1094.3235	10012.5	9132.85
859.1573	1096.2879	9914.9	9035.7
859.3022	1098.2515	9902.45	9023.25
859.4472	1100.2145	9967.1	9089.65
859.5922	1102.1767	10069.35	9186.95
859.7371	1104.1382	10226.3	9346.55
859.8821	1106.099	10453.2	9573.4
860.027	1108.0591	10657.25	9779.6
860.172	1110.0185	10804.15	9923.6
860.3169	1111.9771	10815.15	9936
860.4619	1113.9351	10605.2	9727.05
860.6068	1115.8923	10309.5	9428.9
860.7517	1117.8488	10002.9	9122.05
860.8967	1119.8045	9697.9	8820.65
861.0416	1121.7596	9564.85	8682.25
861.1865	1123.7139	9482.05	8603.65
861.3314	1125.6675	9486.35	8607.65
861.4763	1127.6204	9553.4	8674.45
861.6212	1129.5726	9539.5	8658.45
861.7661	1131.524	9537.6	8659.4
861.911	1133.4748	9490.7	8610.2
862.0559	1135.4248	9488.15	8606.05
862.2008	1137.3741	9462.95	8584.05
862.3457	1139.3226	9393.35	8513.15
862.4905	1141.2705	9378.95	8498.25
862.6354	1143.2176	9263.6	8377
862.7803	1145.164	9231.6	8349.1
862.9251	1147.1097	9256.75	8378
863.07	1149.0546	9227	8342.8
863.2148	1150.9989	9136.8	8254.85
863.3597	1152.9424	8950.9	8070.95
863.5045	1154.8852	8808	7926.8
863.6493	1156.8272	8688.15	7810.05
863.7942	1158.7686	8637.5	7750.25
863.939	1160.7092	8604.1	7723.2
864.0838	1162.6491	8604	7721.15
864.2286	1164.5883	8663.1	7784.7
864.3734	1166.5267	8758.9	7876.3
864.5182	1168.4644	8908.95	8029.85
864.663	1170.4014	9075.05	8188.05
864.8078	1172.3377	9318.3	8439.35
864.9526	1174.2732	9559.2	8681.35
865.0974	1176.2081	9823.05	8943.25
865.2421	1178.1421	10012.2	9130.45
865.3869	1180.0755	10249.35	9370.4
865.5317	1182.0082	10372.65	9491.7
865.6764	1183.9401	10364.3	9482.7
865.8212	1185.8713	10210.75	9331.4
865.9659	1187.8017	9938.45	9058.8
866.1106	1189.7315	9700.5	8820.6
866.2554	1191.6605	9428.4	8518.95
866.4001	1193.5888	9200.55	8320.85
866.5448	1195.5163	9092.8	8214.45
866.6895	1197.4432	8987	8105.25
866.8342	1199.3693	8924.9	8043.8
866.9789	1201.2947	8904.25	8015.3
867.1236	1203.2193	8875.55	7992.85
867.2683	1205.1432	8912.45	8031.85
867.413	1207.0664	8925.25	8045.8
867.5576	1208.9889	8946.55	8061.9
867.7023	1210.9106	8970.65	8090.85
867.847	1212.8316	9008.85	8128.6
867.9916	1214.7519	9097.45	8206.6
868.1363	1216.6715	9084.85	8202.6
868.2809	1218.5903	9086.8	8204.7
868.4255	1220.5084	9078.85	8199.85
868.5701	1222.4257	9102.15	8220.3
868.7148	1224.3424	9043.15	8162.25
868.8594	1226.2583	9096.7	8210.65
869.004	1228.1735	9174.25	8292.75
869.1486	1230.0879	9290.45	8408.55
869.2932	1232.0016	9405.5	8525.2
869.4377	1233.9146	9454.35	8573.4
869.5823	1235.8269	9349.85	8469.1
869.7269	1237.7384	9226.5	8344.6
869.8715	1239.6492	9029.8	8147
870.016	1241.5592	8907.65	8024.7
870.1606	1243.4686	8834.75	7955.75
870.3051	1245.3772	8820.25	7938.25
870.4496	1247.285	8773.25	7887.45
870.5941	1249.1922	8761.45	7877.85
870.7387	1251.0986	8782.65	7904.6
870.8832	1253.0042	8747.05	7865.55
871.0277	1254.9092	8799.5	7917.05
871.1722	1256.8134	8892.85	8014.05
871.3167	1258.7169	9048.6	8167.65
871.4611	1260.6196	9216.45	8336.85
871.6056	1262.5216	9398.75	8514.7
871.7501	1264.4229	9577.15	8694.75
871.8945	1266.3234	9699.6	8818.45
872.039	1268.2232	9768.15	8885.1
872.1834	1270.1223	9750.4	8866.45
872.3278	1272.0207	9746.15	8864.55
872.4723	1273.9183	9725.95	8838.05
872.6167	1275.8151	9627.6	8746
872.7611	1277.7113	9552.45	8670
872.9055	1279.6067	9409.7	8527.75
873.0499	1281.5014	9353.8	8471.85
873.1943	1283.3953	9306.95	8421.9
873.3386	1285.2885	9327.95	8448
873.483	1287.181	9337.9	8456.15
873.6274	1289.0727	9405.4	8523.75
873.7717	1290.9637	9515.6	8632.35
873.9161	1292.854	9601.7	8717.85
874.0604	1294.7435	9702.8	8817.95
874.2047	1296.6323	9847.2	8965.65
874.349	1298.5204	10064.85	9177.8
874.4933	1300.4077	10275	9393.45
874.6376	1302.2943	10362.95	9482.6
874.7819	1304.1802	10394.2	9512
874.9262	1306.0653	10246.1	9362.05
875.0705	1307.9497	10078.05	9196.8
875.2147	1309.8333	9934.55	9053.35
875.359	1311.7162	9830.75	8949.45
875.5032	1313.5984	9865.7	8980.55
875.6475	1315.4798	9951.5	9057.9
875.7917	1317.3605	10061	9164.85
875.9359	1319.2405	10159.3	9277
876.0801	1321.1197	10127.6	9243.35
876.2243	1322.9982	9999.65	9110.8
876.3685	1324.876	9938.05	9055.4
876.5127	1326.753	9885.5	9002
876.6569	1328.6293	9834.75	8950.1
876.801	1330.5048	9833.35	8948.15
876.9452	1332.3796	9797.85	8915.85
877.0893	1334.2537	9788	8880.2
877.2335	1336.127	9728.15	8847.9
877.3776	1337.9996	9682.75	8799.75
877.5217	1339.8714	9648.5	8764.45
877.6658	1341.7426	9674.9	8747.45
877.8099	1343.6129	9615.2	8731.35
877.954	1345.4826	9555.55	8671.9
878.0981	1347.3515	9541.4	8658.05
878.2422	1349.2196	9492.85	8608.8
878.3862	1351.087	9491.45	8609.8
878.5303	1352.9537	9558.3	8677.25
878.6743	1354.8197	9673.05	8792.85
878.8184	1356.6849	9840.5	8957.95
878.9624	1358.5493	9942.15	9058.95
879.1064	1360.4131	9980.05	9098.2
879.2504	1362.276	9958.8	9077.55
879.3944	1364.1383	9817.05	8934.65
879.5384	1365.9998	9574.25	8683.65
879.6823	1367.8606	9268.55	8386.2
879.8263	1369.7206	8960.75	8077.6
879.9702	1371.5799	8747.25	7860.8
880.1142	1373.4384	8557.2	7674.25
880.2581	1375.2962	8428.8	7544.55
880.402	1377.1533	8157.3	7273.25
880.5459	1379.0096	7859.15	6976.15
880.6898	1380.8652	7572.2	6689.2
880.8337	1382.7201	7312.15	6427.6
880.9776	1384.5742	7093	6209.55
881.1215	1386.4275	6945.75	6059.3
881.2653	1388.2802	6804.25	5922.3
881.4092	1390.132	6702.45	5818.7
881.553	1391.9832	6648.6	5764
881.6968	1393.8336	6548.4	5665.75
881.8406	1395.6832	6530.05	5645.65
881.9844	1397.5322	6494.5	5613.05
882.1282	1399.3803	6483.6	5593.05
882.272	1401.2278	6479.35	5597.2
882.4158	1403.0745	6485.75	5603.5
882.5595	1404.9204	6481.35	5599.4
882.7033	1406.7656	6486.1	5604.15
882.847	1408.6101	6490.65	5606.4
882.9908	1410.4538	6521	5637.8
883.1345	1412.2968	6565.5	5685.75
883.2782	1414.139	6629.05	5743.05
883.4219	1415.9805	6721.45	5837.05
883.5656	1417.8213	6820.6	5930.3
883.7092	1419.6613	6947.35	6064.1
883.8529	1421.5006	7142.45	6258.9
883.9965	1423.3391	7379.85	6493.85
884.1402	1425.1769	7705.7	6821.55
884.2838	1427.0139	8195	7311.8
884.4274	1428.8502	8804.95	7920
884.571	1430.6858	9379.1	8495.05
884.7146	1432.5206	9796.5	8912.9
884.8582	1434.3547	10055.65	9172.45
885.0018	1436.188	10074.95	9193.8
885.1453	1438.0206	9974.8	9090.15
885.2889	1439.8524	9820.55	8935.9
885.4324	1441.6835	9729.4	8846.15
885.5759	1443.5139	9625.05	8740.45
885.7194	1445.3435	9572.85	8686.5
885.8629	1447.1724	9529.15	8646.85
886.0064	1449.0005	9442.5	8558.55
886.1499	1450.8279	9332.6	8448.45
886.2933	1452.6545	9295	8410.55
886.4368	1454.4804	9331.95	8449.8
886.5802	1456.3056	9317.85	8427.05
886.7237	1458.13	9234.45	8352.7
886.8671	1459.9536	9052.9	8168.45
887.0105	1461.7766	8668.25	7784.5
887.1539	1463.5987	8283.4	7398.95
887.2972	1465.4202	7907.95	7024.05
887.4406	1467.2409	7547.45	6664.15
887.584	1469.0608	7238	6354.85
887.7273	1470.88	6988.8	6104.25
887.8706	1472.6984	6746.75	5865.25
888.0139	1474.5161	6567.3	5681.15
888.1572	1476.3331	6400.45	5518.5
888.3005	1478.1493	6294.2	5410.85
888.4438	1479.9648	6176.05	5292.25
888.5871	1481.7795	6083.5	5199.75
888.7303	1483.5935	6028.5	5144.25
888.8736	1485.4067	5963.35	5079.3
889.0168	1487.2192	5904.1	5019.5
889.16	1489.031	5844.2	4957.4
889.3032	1490.842	5822.65	4940.35
889.4464	1492.6522	5793.6	4908.35
889.5896	1494.4618	5759.25	4874.6
889.7327	1496.2705	5734.6	4851.7
889.8759	1498.0785	5695.5	4810.45
890.019	1499.8858	5662.5	4778.95
890.1622	1501.6924	5641.55	4758.35
890.3053	1503.4981	5615.25	4732.45
890.4484	1505.3032	5598.65	4714.25
890.5914	1507.1075	5560.95	4672.75
890.7345	1508.911	5544.15	4660.9
890.8776	1510.7138	5501.1	4617.55
891.0206	1512.5159	5464.65	4580.55
891.1637	1514.3172	5427.35	4542.15
891.3067	1516.1178	5409	4526
891.4497	1517.9176	5390.45	4505.55
891.5927	1519.7166	5332.35	4451.6
891.7357	1521.515	5327.6	4438.8
891.8786	1523.3126	5300.05	4418.9
892.0216	1525.1094	5281.25	4395.4
892.1645	1526.9055	5252.2	4369.3
892.3074	1528.7008	5228.4	4344.75
892.4503	1530.4954	5206	4319.6
892.5932	1532.2893	5227.3	4345.8
892.7361	1534.0824	5199.85	4310.25
892.879	1535.8747	5182.95	4300.6
893.0218	1537.6663	5173.6	4290.05
893.1647	1539.4572	5146.4	4262.85
893.3075	1541.2473	5152.95	4269.05
893.4503	1543.0367	5152.05	4270.95
893.5931	1544.8253	5148.15	4259.95
893.7359	1546.6132	5165.25	4280.1
893.8787	1548.4003	5149.05	4256.95
894.0214	1550.1867	5194.8	4302.85
894.1642	1551.9723	5212.1	4324.55
894.3069	1553.7572	5257.5	4373.25
894.4496	1555.5414	5278.55	4393.95
894.5923	1557.3247	5345.9	4461.9
894.735	1559.1074	5409.9	4528.65
894.8777	1560.8893	5491.35	4609.2
895.0204	1562.6705	5596.15	4711.85
895.163	1564.4509	5673.75	4792.55
895.3056	1566.2305	5716.95	4835
895.4482	1568.0094	5804.75	4921.5
895.5908	1569.7876	5837.15	4954.7
895.7334	1571.565	5861	4976.7
895.876	1573.3417	5892.9	5009
896.0186	1575.1176	5892.45	5011.3
896.1611	1576.8928	5864	4979.8
896.3036	1578.6672	5782.85	4899.2
896.4461	1580.4409	5705.95	4826.05
896.5886	1582.2138	5593	4707.6
896.7311	1583.986	5495.85	4611.8
896.8736	1585.7575	5426.8	4543.65
897.0161	1587.5282	5370.6	4489.45
897.1585	1589.2981	5365.3	4483
897.3009	1591.0673	5344.55	4461.9
897.4433	1592.8358	5353.85	4469.75
897.5857	1594.6035	5360.1	4475.05
897.7281	1596.3704	5381.3	4498.7
897.8705	1598.1366	5420.8	4536.35
898.0128	1599.9021	5444.2	4560.9
898.1551	1601.6668	5515.25	4629.75
898.2975	1603.4308	5593.15	4709.15
898.4398	1605.194	5700.1	4814.1
898.5821	1606.9564	5792.6	4911
898.7243	1608.7182	5940.6	5054.95
898.8666	1610.4791	6103.05	5220.55
899.0088	1612.2394	6298.35	5416.6
899.1511	1613.9988	6492.2	5609.1
899.2933	1615.7576	6695.8	5814.4
899.4355	1617.5156	6931.6	6044.5
899.5776	1619.2728	7107.35	6224.8
899.7198	1621.0293	7241.9	6361.65
899.862	1622.785	7280.65	6394.65
900.0041	1624.54	7190.75	6306.1
900.1462	1626.2942	7048.3	6163.35
900.2883	1628.0477	6820.1	5934.45
900.4304	1629.8005	6583.6	5696.95
900.5725	1631.5525	6369.9	5487.65
900.7145	1633.3037	6194.4	5311.3
900.8566	1635.0542	6062.6	5181.4
900.9986	1636.804	5947.2	5062.6
901.1406	1638.553	5946.3	4983.75
901.2826	1640.3013	5858.5	4975.85
901.4245	1642.0488	5829.2	4945.85
901.5665	1643.7955	5866.9	4987.05
901.7085	1645.5416	5903.4	5020.95
901.8504	1647.2868	6008.6	5126.7
901.9923	1649.0313	6112.85	5231.4
902.1342	1650.7751	6272.25	5385.65
902.2761	1652.5181	6442.85	5560.75
902.4179	1654.2604	6658.5	5773.35
902.5598	1656.0019	6935.05	6051.25
902.7016	1657.7427	7227.55	6345.55
902.8434	1659.4828	7571.7	6690
902.9852	1661.222	7728.65	6844.7
903.127	1662.9606	7750.65	6868
903.2687	1664.6984	7513.35	6632.05
903.4105	1666.4354	7135.45	6254.3
903.5522	1668.1717	6623.35	5739.6
903.6939	1669.9072	6145.75	5263.4
903.8356	1671.642	5717.75	4833.2
903.9773	1673.3761	5384.5	4503.55
904.119	1675.1094	5112.5	4232.3
904.2606	1676.8419	4907.45	4023.65
904.4022	1678.5737	4758.5	3877.95
904.5439	1680.3048	4628.95	3746.65
904.6855	1682.0351	4536.5	3654.8
904.827	1683.7646	4466.4	3583.3
904.9686	1685.4934	4416.3	3535
905.1101	1687.2215	4360.1	3476.4
905.2517	1688.9488	4315.45	3434.35
905.3932	1690.6754	4288.95	3405.9
905.5347	1692.4012	4253.95	3372.3
905.6761	1694.1263	4216.95	3334.3
905.8176	1695.8506	4202.3	3319.25
905.9591	1697.5742	4178.35	3297.75
906.1005	1699.297	4135.55	3253.85
906.2419	1701.0191	4106	3226.05
906.3833	1702.7404	4099.25	3217.9
906.5246	1704.461	4062.3	3179.7
906.666	1706.1808	4039.35	3155.4
906.8073	1707.8999	4038	3154.05
906.9487	1709.6182	4017.5	3135.2
907.09	1711.3358	3971.1	3089.1
907.2313	1713.0527	3965.95	3083.95
907.3725	1714.7688	3969.45	3081.25
907.5138	1716.4841	3939.35	3055.3
907.655	1718.1987	3934.8	3047.9
907.7962	1719.9126	3893.4	3011.15
907.9374	1721.6257	3893.25	3007.5
908.0786	1723.338	3877.2	2994.8
908.2198	1725.0496	3863.75	2980.95
908.3609	1726.7605	3863.2	2980.45
908.502	1728.4706	3842.05	2960.15
908.6431	1730.18	3815.6	2931.45
908.7842	1731.8886	3812.5	2931.95
908.9253	1733.5964	3802.6	2916.35
909.0664	1735.3036	3813.1	2928.15
909.2074	1737.0099	3781.7	2902.6
909.3484	1738.7156	3764.25	2881.55
909.4894	1740.4204	3758.05	2873.9
909.6304	1742.1246	3749.5	2865.85
909.7714	1743.8279	3721.5	2840.65
909.9123	1745.5306	3714.45	2831.3
910.0532	1747.2325	3688.95	2807.25
910.1941	1748.9336	3685.85	2804.5
910.335	1750.634	3662.55	2779.75
910.4759	1752.3336	3650.8	2768.45
910.6168	1754.0325	3654.65	2776.9
910.7576	1755.7307	3653.6	2770.3
910.8984	1757.4281	3639.4	2758.55
911.0392	1759.1247	3650.55	2759.45
911.18	1760.8206	3614.25	2728.25
911.3208	1762.5158	3622.85	2737.2
911.4615	1764.2102	3602.4	2722.25
911.6022	1765.9039	3590.35	2709.85
911.7429	1767.5968	3571.15	2688.55
911.8836	1769.289	3580.7	2700.15
912.0243	1770.9804	3573.15	2690
912.1649	1772.6711	3560.05	2677.5
912.3056	1774.361	3560.2	2678.3
912.4462	1776.0502	3554	2671.45
912.5868	1777.7386	3540.2	2655.95
912.7274	1779.4263	3520.1	2635.4
912.8679	1781.1132	3531.1	2648.3
913.0084	1782.7994	3520.3	2637.6
913.149	1784.4849	3511.9	2632.8
913.2895	1786.1696	3506.1	2604.15
913.4299	1787.8535	3488.7	2607.35
913.5704	1789.5367	3477.6	2594.85
913.7108	1791.2192	3498.85	2618.25
913.8513	1792.9009	3493.55	2596.4
913.9917	1794.5818	3468.95	2585.75
914.132	1796.2621	3471.25	2591.25
914.2724	1797.9415	3464.4	2585
914.4128	1799.6202	3452.7	2571.3
914.5531	1801.2982	3435.1	2552.95
914.6934	1802.9755	3444.35	2559.3
914.8337	1804.6519	3421.3	2539.35
914.9739	1806.3277	3426.15	2542.55
915.1142	1808.0027	3392.85	2511.7
915.2544	1809.6769	3405.8	2523.75
915.3946	1811.3504	3398.1	2513.15
915.5348	1813.0231	3398.5	2517
915.675	1814.6951	3381.4	2500
915.8151	1816.3664	3395.2	2511.8
915.9553	1818.0369	3389.7	2509.3
916.0954	1819.7067	3377.4	2498.7
916.2355	1821.3757	3356.35	2473.15
916.3755	1823.044	3357.6	2474.2
916.5156	1824.7115	3357.35	2475.8
916.6556	1826.3783	3347.8	2468.35
916.7956	1828.0443	3341.8	2460.8
916.9356	1829.7096	3333.15	2450.1
917.0756	1831.3741	3324.35	2439.15
917.2155	1833.0379	3319.95	2438.65
917.3555	1834.701	3328.1	2443.5
917.4954	1836.3633	3321.2	2437.8
917.6353	1838.0248	3301.6	2418
917.7751	1839.6856	3302.4	2419.45
917.915	1841.3457	3296	2413.9
918.0548	1843.005	3297.05	2416.2
918.1946	1844.6636	3289	2408.35
918.3344	1846.3214	3278.1	2394.3
918.4742	1847.9785	3278.1	2397.95
918.6139	1849.6349	3269.05	2386.35
918.7537	1851.2904	3275.4	2386.65
918.8934	1852.9453	3263.5	2384.35
919.0331	1854.5994	3250.9	2366.25
919.1727	1856.2528	3261.5	2373.8
919.3124	1857.9054	3257.05	2375
919.452	1859.5572	3245.4	2363.95
919.5916	1861.2083	3231.95	2349.7
919.7312	1862.8587	3229.1	2347
919.8708	1864.5084	3230.35	2347.6
920.0103	1866.1572	3210.5	2329.15
920.1498	1867.8054	3210.65	2330.15
920.2893	1869.4528	3201.4	2321.75
920.4288	1871.0994	3189.2	2306.9
920.5683	1872.7453	3193.15	2310.6
920.7077	1874.3905	3195.2	2295.25
920.8471	1876.0349	3168.65	2285.8
920.9865	1877.6786	3171.35	2289.25
921.1259	1879.3215	3187.2	2305.6
921.2653	1880.9637	3179.85	2297.9
921.4046	1882.6051	3167.3	2287.15
921.5439	1884.2458	3169	2284.75
921.6832	1885.8858	3141.05	2257.65
921.8225	1887.525	3143	2260.05
921.9617	1889.1634	3129.6	2247.05
922.101	1890.8011	3121.4	2238.75
922.2402	1892.4381	3114.65	2236.45
922.3794	1894.0743	3114.75	2233.7
922.5185	1895.7098	3096.45	2214.4
922.6577	1897.3446	3082.9	2199.9
922.7968	1898.9786	3102.6	2214.55
922.9359	1900.6118	3093.65	2214
923.075	1902.2443	3081.15	2199.3
923.214	1903.8761	3076.55	2196.65
923.3531	1905.5071	3064.3	2179.45
923.4921	1907.1374	3067.8	2185.8
923.6311	1908.7669	3066.25	2184.55
923.77	1910.3957	3055.1	2172.2
923.909	1912.0237	3035.8	2154.4
924.0479	1913.651	3049.2	2168.9
924.1868	1915.2776	3030.95	2150.25
924.3257	1916.9034	3010.4	2131.35
924.4646	1918.5285	3014.15	2133.2
924.6034	1920.1528	2993.6	2110.55
924.7422	1921.7764	3001.7	2120.6
924.881	1923.3992	3004.8	2124.6
925.0198	1925.0213	2988.45	2107.6
925.1586	1926.6427	2968.1	2087.3
925.2973	1928.2633	3075.95	2070.9
925.436	1929.8832	2983.3	2101.3
925.5747	1931.5023	2952.45	2070.45
925.7134	1933.1207	2952.05	2070.4
925.852	1934.7383	2957	2075
925.9906	1936.3552	2940.3	2058.35
926.1292	1937.9714	2936.85	2054.85
926.2678	1939.5868	2931.6	2049.35
926.4064	1941.2015	2921.8	2040.3
926.5449	1942.8154	2914.75	2035.1
926.6834	1944.4286	2893.6	2011.75
926.8219	1946.041	2901.5	1995.4
926.9604	1947.6528	2880.65	1993.3
927.0988	1949.2637	2868.2	1988.8
927.2372	1950.8739	2868.5	1984.5
927.3756	1952.4834	2867.45	1985.35
927.514	1954.0921	2854.9	1973.55
927.6523	1955.7001	2854.3	1967.65
927.7907	1957.3074	2848.75	1969
927.929	1958.9139	2832.9	1949.95
928.0673	1960.5197	2820.8	1937.65
928.2055	1962.1247	2818.3	1938.95
928.3438	1963.729	2811.2	1930.8
928.482	1965.3325	2826.35	1922.15
928.6202	1966.9353	2798.1	1916.6
928.7584	1968.5374	2797.25	1913.95
928.8965	1970.1387	2790.2	1909.25
929.0346	1971.7393	2792.35	1910.05
929.1727	1973.3392	2766.05	1883.9
929.3108	1974.9383	2759.7	1878.6
929.4489	1976.5366	2749.65	1866.5
929.5869	1978.1342	2749.55	1868.7
929.7249	1979.7311	2750.75	1868.6
929.8629	1981.3273	2748.7	1866.5
930.0009	1982.9227	2733.5	1850.95
930.1388	1984.5173	2737.3	1856.55
930.2767	1986.1112	2713.7	1831.85
930.4146	1987.7044	2720.7	1839.6
930.5525	1989.2968	2712.7	1829.95
930.6904	1990.8885	2723.9	1837.85
930.8282	1992.4795	2715.2	1830.85
930.966	1994.0697	2702.7	1822.2
931.1038	1995.6592	2694.8	1814.1
931.2415	1997.2479	2684.55	1800
931.3793	1998.8359	2677.3	1796.45
931.517	2000.4232	2682.25	1800.4
931.6547	2002.0097	2667.6	1786.5
931.7923	2003.5955	2663.2	1781
931.93	2005.1805	2653.4	1769.55
932.0676	2006.7648	2656.1	1775.6
932.2052	2008.3484	2650.2	1766.4
932.3427	2009.9312	2644.15	1757.55
932.4803	2011.5133	2649.85	1767.65
932.6178	2013.0946	2641.6	1758.75
932.7553	2014.6752	2634.2	1754.5
932.8928	2016.2551	2633.9	1752.4
933.0302	2017.8342	2624.9	1743.15
933.1676	2019.4126	2632.2	1752.6
933.305	2020.9902	2621.6	1738.95
933.4424	2022.5672	2613.95	1729.4
933.5798	2024.1433	2617.05	1729.6
933.7171	2025.7188	2599.55	1718.6
933.8544	2027.2935	2597.8	1714.8
933.9917	2028.8674	2588.5	1705.3
934.129	2030.4406	2583.5	1702.85
934.2662	2032.0131	2575.75	1694.05
934.4034	2033.5849	2569.8	1680.7
934.5406	2035.1559	2560.3	1678.3
934.6778	2036.7261	2552.05	1668.15
934.8149	2038.2957	2558.25	1675.7
934.952	2039.8645	2553.6	1672.85
935.0891	2041.4325	2557.95	1672.4
935.2262	2042.9998	2548.1	1665.05
935.3632	2044.5664	2552.25	1666.35
935.5002	2046.1323	2536.25	1655.45
935.6372	2047.6974	2536.5	1652.9
935.7742	2049.2617	2525.2	1644.1
935.9111	2050.8254	2557.25	1640.9
936.048	2052.3883	2522.5	1640.15
936.1849	2053.9504	2505.35	1623.85
936.3218	2055.5118	2503.55	1621.65
936.4586	2057.0725	2510.7	1624.45
936.5955	2058.6325	2498.55	1615.75
936.7323	2060.1917	2491.9	1608.65
936.869	2061.7502	2501.05	1616.95
937.0058	2063.3079	2488.25	1606.7
937.1425	2064.8649	2494.5	1607.3
937.2792	2066.4212	2482.7	1599.1
937.4159	2067.9767	2482.3	1600.6
937.5525	2069.5315	2468.65	1587.2
937.6891	2071.0856	2463.3	1581.35
937.8257	2072.6389	2462.15	1580.05
937.9623	2074.1915	2450.6	1570.85
938.0989	2075.7433	2440.45	1555.6
938.2354	2077.2945	2443.15	1563.1
938.3719	2078.8448	2426.45	1545.75
938.5084	2080.3945	2420.45	1539
938.6448	2081.9434	2422.5	1542.3
938.7812	2083.4916	2421.85	1539.2
938.9176	2085.039	2410.2	1525.35
939.054	2086.5857	2411.25	1529.2
939.1903	2088.1317	2404.6	1522.8
939.3267	2089.677	2409.9	1528.4
939.463	2091.2215	2399.75	1517.9
939.5992	2092.7652	2402.7	1520.15
939.7355	2094.3083	2386.65	1503.3
939.8717	2095.8506	2376.6	1494.7
940.0079	2097.3921	2399.4	1517.65
940.1441	2098.933	2376.4	1493.7
940.2802	2100.4731	2377.6	1494.4
940.4163	2102.0124	2378.6	1489.55
940.5524	2103.5511	2378.1	1496.9
940.6885	2105.089	2371.25	1488.25
940.8245	2106.6261	2362.25	1479.05
940.9606	2108.1626	2362.35	1475.6
941.0965	2109.6983	2380	1469.05
941.2325	2111.2332	2362.6	1478.9
941.3684	2112.7675	2358.25	1474.9
941.5044	2114.301	2339.4	1456.1
941.6403	2115.8337	2354.4	1472.95
941.7761	2117.3657	2344.4	1461.7
941.912	2118.897	2330.4	1447.8
942.0478	2120.4276	2337.5	1448
942.1835	2121.9575	2320.8	1438.25
942.3193	2123.4866	2341.3	1443.55
942.455	2125.0149	2333.75	1450.4
942.5907	2126.5426	2314.25	1432.45
942.7264	2128.0695	2311.15	1425
942.8621	2129.5956	2314.3	1433.95
942.9977	2131.1211	2302.95	1416.3
943.1333	2132.6458	2299.15	1418.7
943.2689	2134.1698	2292.55	1409.95
943.4044	2135.693	2298.85	1415.1
943.54	2137.2155	2282.05	1398.05
943.6755	2138.7373	2285.5	1400.8
943.8109	2140.2584	2288.15	1406.2
943.9464	2141.7787	2280.3	1391.3
944.0818	2143.2983	2270.8	1389.2
944.2172	2144.8171	2260.9	1380.05
944.3526	2146.3353	2269.05	1384.8
944.4879	2147.8527	2256.7	1376.1
944.6232	2149.3693	2259.9	1376.45
944.7585	2150.8853	2248.8	1366.95
944.8938	2152.4005	2244	1361.45
945.029	2153.9149	2238.1	1356.4
945.1642	2155.4287	2233.3	1351.8
945.2994	2156.9417	2241.5	1357.15
945.4346	2158.454	2240.4	1355.55
945.5697	2159.9655	2231.1	1350.65
945.7048	2161.4764	2225.5	1338.95
945.8399	2162.9865	2223.5	1342.65
945.9749	2164.4958	2220.7	1337.6
946.1099	2166.0045	2220.45	1335.6
946.2449	2167.5124	2216.3	1333.8
946.3799	2169.0195	2216.2	1334.35
946.5148	2170.526	2216.75	1332.4
946.6498	2172.0317	2205.1	1322.3
946.7846	2173.5367	2207.85	1325.4
946.9195	2175.0409	2200.75	1318.1
947.0543	2176.5445	2192.35	1312.3
947.1891	2178.0473	2185.3	1304.8
947.3239	2179.5494	2184.15	1298.15
947.4587	2181.0507	2189	1303.75
947.5934	2182.5513	2176.55	1293.1
947.7281	2184.0512	2181.5	1299.7
947.8628	2185.5504	2174.9	1294.2
947.9974	2187.0488	2164.5	1281.65
948.132	2188.5465	2156.7	1274.35
948.2666	2190.0435	2163.65	1281.2
948.4012	2191.5397	2156.55	1275.75
948.5357	2193.0353	2149.7	1270.8
948.6702	2194.5301	2150.9	1267.35
948.8047	2196.0241	2143	1261.2
948.9392	2197.5175	2139.55	1259.05
949.0736	2199.0101	2142.4	1257.45
949.208	2200.502	2128.45	1245.7
949.3424	2201.9931	2124.9	1243.45
949.4767	2203.4835	2124.6	1239
949.611	2204.9733	2129	1240.65
949.7453	2206.4622	2121	1240.5
949.8796	2207.9505	2117.8	1233.45
950.0138	2209.438	2103.05	1222.9
950.148	2210.9248	2114.65	1230.8
950.2822	2212.4109	2101.15	1219.25
950.4164	2213.8962	2092.35	1206.95
950.5505	2215.3809	2088.35	1206.25
950.6846	2216.8648	2089.25	1206.2
950.8186	2218.3479	2083.3	1197.7
950.9527	2219.8304	2079.85	1196.8
951.0867	2221.3121	2071.6	1186.05
951.2207	2222.7931	2071.35	1189.8
951.3546	2224.2733	2061.7	1179
951.4886	2225.7529	2068.75	1186.15
951.6225	2227.2317	2065.9	1180.1
951.7563	2228.7098	2060.05	1178.75
951.8902	2230.1872	2053.45	1171.55
952.024	2231.6638	2052.05	1169.2
952.1578	2233.1397	2054.6	1164.15
952.2916	2234.6149	2041.8	1158.35
952.4253	2236.0894	2038.65	1156.7
952.559	2237.5632	2037.2	1144.05
952.6927	2239.0362	2024.7	1141.5
952.8263	2240.5085	2019.95	1134.85
952.9599	2241.9801	2023.1	1137.85
953.0935	2243.4509	2022	1138.75
953.2271	2244.921	2003.2	1120.6
953.3606	2246.3904	2014	1130.95
953.4941	2247.8591	1997.5	1116.05
953.6276	2249.3271	1996.95	1113.25
953.7611	2250.7943	1993.8	1110.25
953.8945	2252.2608	1991.05	1108.75
954.0279	2253.7266	2002.05	1121.1
954.1612	2255.1917	1982.35	1100.4
954.2946	2256.656	1985.55	1102.55
954.4279	2258.1197	1974.65	1093.05
954.5612	2259.5826	1978.8	1094.65
954.6944	2261.0447	1979.75	1093.8
954.8276	2262.5062	1974.2	1091.1
954.9608	2263.9669	1981.2	1097.15
955.094	2265.4269	1972.75	1090.85
955.2271	2266.8862	1960	1073.65
955.3602	2268.3448	1959.8	1077.45
955.4933	2269.8026	1967.2	1082.2
955.6264	2271.2598	1957.45	1074.2
955.7594	2272.7162	1956.4	1075.15
955.8924	2274.1719	1944.1	1061.45
956.0253	2275.6268	1950.9	1070.45
956.1583	2277.0811	1938.95	1054.75
956.2912	2278.5346	1942.85	1060.85
956.4241	2279.9874	1948.45	1065.4
956.5569	2281.4395	1943.35	1057.65
956.6897	2282.8908	1936.8	1049.85
956.8225	2284.3414	1937.3	1051.45
956.9553	2285.7914	1930.85	1050.75
957.088	2287.2406	1931.6	1048.5
957.2207	2288.689	1929.4	1046.95
957.3534	2290.1368	1927.65	1043.45
957.486	2291.5838	1910.85	1025.9
957.6186	2293.0302	1921.55	1036.3
957.7512	2294.4758	1908.5	1025.9
957.8838	2295.9206	1915.8	1030.4
958.0163	2297.3648	1905.3	1024.35
958.1488	2298.8082	1914	1031.6
958.2813	2300.251	1903.3	1022.7
958.4137	2301.693	1898.45	1016.2
958.5461	2303.1343	1902.35	1019.4
958.6785	2304.5748	1900.35	1018
958.8108	2306.0147	1885.7	1001.15
958.9432	2307.4538	1894.25	1007.4
959.0754	2308.8922	1890.85	1008.95
959.2077	2310.3299	1881.7	997.35
959.3399	2311.7669	1868.1	986.1
959.4721	2313.2031	1866.25	985.3
959.6043	2314.6387	1873.15	990.45
959.7365	2316.0735	1871.25	989.8
959.8686	2317.5076	1869.05	985.95
960.0006	2318.941	1867.55	983.35
960.1327	2320.3737	1857.55	973.8
960.2647	2321.8056	1855	971.1
960.3967	2323.2369	1861.95	979.45
960.5287	2324.6674	1851.7	967.35
960.6606	2326.0972	1847.3	963.65
960.7925	2327.5263	1850.2	968.05
960.9244	2328.9547	1847.7	963.45
961.0562	2330.3823	1842.15	959.5
961.1881	2331.8092	1844.65	957.95
961.3198	2333.2355	1831.85	949.45
961.4516	2334.661	1842.4	959.2
961.5833	2336.0858	1832.8	947.65
961.715	2337.5098	1823.95	942.8
961.8467	2338.9332	1818.8	935
961.9783	2340.3558	1824.8	938.4
962.1099	2341.7778	1829.4	947.85
962.2415	2343.199	1825.4	939.35
962.373	2344.6195	1822.45	940.65
962.5045	2346.0393	1808.95	927.15
962.636	2347.4583	1802.65	919.85
962.7675	2348.8767	1817.3	934.15
962.8989	2350.2943	1817.55	932.65
963.0303	2351.7113	1816.85	932.95
963.1617	2353.1275	1800.8	919.75
963.293	2354.543	1827.6	919.2
963.4243	2355.9578	1806.75	925
963.5556	2357.3718	1803.1	920.3
963.6868	2358.7852	1792.75	907.2
963.818	2360.1978	1801.55	917.8
963.9492	2361.6098	1787.25	907.1
964.0803	2363.021	1788.1	902.3
964.2114	2364.4315	1778.7	897.85
964.3425	2365.8413	1784.25	899.5
964.4736	2367.2504	1779.35	896.95
964.6046	2368.6587	1776.2	892.95
964.7356	2370.0664	1767.75	885.45
964.8666	2371.4733	1770.1	889.35
964.9975	2372.8795	1768.75	886.55
965.1284	2374.285	1769.95	886.25
965.2593	2375.6899	1756.35	874.5
965.3901	2377.0939	1758.55	877
965.5209	2378.4973	1751.55	869.3
965.6517	2379.9	1756.5	874.05
965.7825	2381.3019	1742.25	858.8
965.9132	2382.7032	1747.35	866.65
966.0439	2384.1037	1739.45	859.3
966.1745	2385.5035	1735.3	852.65
966.3051	2386.9027	1727.35	844.7
966.4357	2388.3011	1739.9	854.7
966.5663	2389.6987	1735	852.35
966.6968	2391.0957	1728.15	847.9
966.8273	2392.492	1727.45	845.4
966.9578	2393.8876	1720	836.65
967.0882	2395.2824	1709.9	828.5
967.2186	2396.6765	1717.45	834.25
967.349	2398.07	1715.75	835.75
967.4793	2399.4627	1714.7	831.05
967.6097	2400.8547	1703.95	822.7
967.7399	2402.246	1714	825.15
967.8702	2403.6366	1702.6	821.65
968.0004	2405.0265	1703	821.85
968.1306	2406.4156	1705.3	819.45
968.2607	2407.8041	1693.45	806.65
968.3909	2409.1918	1696.3	812
968.521	2410.5789	1687.65	807.2
968.651	2411.9652	1692.95	803.7
968.781	2413.3508	1691.5	810.3
968.911	2414.7358	1679.45	796.3
969.041	2416.12	1672.4	792.55
969.1709	2417.5035	1679.65	798.15
969.3008	2418.8863	1680.4	799.4
969.4307	2420.2684	1680.45	798.15
969.5606	2421.6497	1673.75	791.75
969.6904	2423.0304	1663.1	783
969.8201	2424.4104	1661.2	775.85
969.9499	2425.7896	1660.1	775.4
970.0796	2427.1682	1666.3	784.1
970.2093	2428.546	1659.25	774.5
970.3389	2429.9232	1663.8	779.4
970.4685	2431.2996	1650.2	768.05
970.5981	2432.6753	1661	777.15
970.7277	2434.0503	1652.3	770.8
970.8572	2435.4246	1642.6	761.2
970.9867	2436.7982	1648.65	764.1
971.1161	2438.1711	1636.9	756.4
971.2456	2439.5433	1642.5	760.35
971.375	2440.9148	1640.85	752.6
971.5043	2442.2856	1644.2	763.65
971.6336	2443.6557	1644.35	760.2
971.7629	2445.025	1626.9	745.45
971.8922	2446.3937	1631.4	748.85
972.0214	2447.7617	1616.45	735.75
972.1506	2449.1289	1629.8	747.7
972.2798	2450.4955	1620.95	734.95
972.4089	2451.8613	1628.95	746.5
972.538	2453.2265	1622.95	742.1
972.6671	2454.5909	1618.05	734.8
972.7961	2455.9546	1610.65	729.5
972.9251	2457.3177	1615.3	733.6
973.0541	2458.68	1608.95	725.95
973.1831	2460.0416	1616.5	735
973.312	2461.4025	1614.6	731.55
973.4408	2462.7627	1629.05	736.4
973.5697	2464.1222	1609.1	729.25
973.6985	2465.4811	1613.1	729.4
973.8273	2466.8392	1608.3	725.3
973.956	2468.1966	1611.5	726.75
974.0847	2469.5533	1607	722.3
974.2134	2470.9093	1609.6	725.55
974.3421	2472.2645	1613.45	728.55
974.4707	2473.6191	1606	724.7
974.5993	2474.973	1590	708.75
974.7278	2476.3262	1597.45	713.15
974.8563	2477.6787	1600.25	719.85
974.9848	2479.0305	1584.75	706.1
975.1132	2480.3816	1590.3	706.85
975.2417	2481.7319	1588.85	707
975.37	2483.0816	1587.55	702.6
975.4984	2484.4306	1583.45	699.6
975.6267	2485.7789	1582.05	700.75
975.755	2487.1264	1586.85	700.55
975.8833	2488.4733	1570.25	688.6
976.0115	2489.8195	1583	680.5
976.1397	2491.165	1565.9	679.35
976.2678	2492.5097	1572.65	688.55
976.3959	2493.8538	1566.05	682
976.524	2495.1972	1562.35	679.7
976.6521	2496.5398	1556.5	672.5
976.7801	2497.8818	1553.55	669.8
976.9081	2499.2231	1557.1	674.8
977.036	2500.5637	1552.75	670.05
977.164	2501.9035	1553.5	670.3
977.2918	2503.2427	1552.5	666.8
977.4197	2504.5812	1550.3	668.25
977.5475	2505.919	1557.1	672.85
977.6753	2507.256	1547.1	664.95
977.8031	2508.5924	1540.15	658.95
977.9308	2509.9281	1549.7	662
978.0585	2511.2631	1540.2	657.45
978.1861	2512.5974	1550.4	666.75
978.3137	2513.9309	1543.05	660.1
978.4413	2515.2638	1563.75	654.45
978.5689	2516.596	1532.4	650.6
978.6964	2517.9275	1535.65	652.25
978.8239	2519.2583	1525.9	642.1
978.9513	2520.5884	1526.3	643.7
979.0788	2521.9178	1520.75	639.1
979.2062	2523.2465	1529.5	646.6
979.3335	2524.5745	1526.2	643.3
979.4608	2525.9018	1524.3	643.15
979.5881	2527.2284	1518.45	637.4
979.7154	2528.5543	1516.9	636
979.8426	2529.8796	1514.25	630.2
979.9698	2531.2041	1516.05	634.1
980.0969	2532.5279	1516.9	635.8
980.224	2533.851	1516.45	633.5
980.3511	2535.1735	1513.3	629.2
980.4781	2536.4952	1509	626.05
980.6052	2537.8163	1513.6	630.15
980.7321	2539.1366	1512.85	633.45
980.8591	2540.4562	1507	622.85
980.986	2541.7752	1509.2	626.4
981.1129	2543.0935	1505.9	623.95
981.2397	2544.411	1502.45	621.2
981.3665	2545.7279	1502.85	620.55
981.4933	2547.0441	1503.1	621
981.62	2548.3596	1497.45	611.75
981.7467	2549.6744	1500	616.45
981.8734	2550.9885	1491.1	605.05
982.0001	2552.3019	1496.4	613.85
982.1267	2553.6146	1485.15	602.7
982.2532	2554.9266	1490.5	609.85
982.3798	2556.2379	1489.45	605.55
982.5063	2557.5485	1496.3	616.25
982.6327	2558.8585	1491.85	601.95
982.7592	2560.1677	1493.9	606.9
982.8856	2561.4762	1485.15	602.6
983.0119	2562.7841	1487	600.6
983.1383	2564.0913	1484.1	602.7
983.2646	2565.3977	1479.4	598
983.3908	2566.7035	1480.45	598.8
983.517	2568.0086	1476.25	590.95
983.6432	2569.313	1477.6	595
983.7694	2570.6167	1483.25	595.3
983.8955	2571.9197	1467.75	587.05
984.0216	2573.222	1486.95	600
984.1476	2574.5236	1469.25	587.85
984.2737	2575.8246	1472.35	587.15
984.3996	2577.1248	1478.5	595.1
984.5256	2578.4244	1470.8	587.6
984.6515	2579.7232	1477.15	593.25
984.7774	2581.0214	1498.95	579.5
984.9032	2582.3189	1471.95	589.85
985.029	2583.6157	1477.15	590.5
985.1548	2584.9118	1483.2	600.8
985.2806	2586.2072	1475.25	591.6
985.4063	2587.5019	1471.55	590.5
985.5319	2588.7959	1473.55	592.55
985.6576	2590.0893	1476.45	591.85
985.7832	2591.3819	1477.3	595.3
985.9087	2592.6739	1472.85	591.3
986.0343	2593.9652	1479.4	595.55
986.1597	2595.2557	1478.1	596.05
986.2852	2596.5456	1470.8	587.15
986.4106	2597.8348	1485	602.45
986.536	2599.1234	1475.15	593.85
986.6614	2600.4112	1484.9	601.9
986.7867	2601.6983	1481.05	595.1
986.912	2602.9848	1480.35	596.75
987.0372	2604.2705	1483.35	593.15
987.1624	2605.5556	1474.8	591.75
987.2876	2606.84	1473.35	592.05
987.4128	2608.1237	1474.3	591.4
987.5379	2609.4067	1466.15	583.95
987.6629	2610.689	1469.9	578.75
987.788	2611.9707	1473.7	587.9
987.913	2613.2516	1471.4	586
988.0379	2614.5319	1469.85	586.9
988.1629	2615.8115	1456	572.95
988.2878	2617.0903	1468.25	584.6
988.4126	2618.3685	1455.2	571.5
988.5375	2619.6461	1461.5	578.4
988.6622	2620.9229	1454.05	573.8
988.787	2622.199	1447.9	564.75
988.9117	2623.4745	1452.8	571.05
989.0364	2624.7493	1461.3	579.1
989.161	2626.0234	1449.15	568.45
989.2857	2627.2968	1456.85	572.85
989.4102	2628.5695	1461.25	578.6
989.5348	2629.8415	1449.4	566.7
989.6593	2631.1128	1452.95	568.8
989.7837	2632.3835	1454.35	571.95
989.9082	2633.6535	1450.65	568.5
990.0326	2634.9228	1446.25	565.3
990.1569	2636.1914	1442.55	560.95
990.2812	2637.4593	1453.8	570.4
990.4055	2638.7265	1456.25	574.3
990.5298	2639.9931	1449.05	566.75
990.654	2641.259	1446.3	563.05
990.7782	2642.5242	1446.8	563.5
990.9023	2643.7887	1448	564.9
991.0264	2645.0525	1440	557.95
991.1505	2646.3156	1442.15	560
991.2745	2647.5781	1438.55	556.55
991.3985	2648.8398	1434.75	553.35
991.5225	2650.1009	1475.3	557.1
991.6464	2651.3613	1437.7	556.45
991.7703	2652.6211	1434.3	550.7
991.8942	2653.8801	1426.9	543.35
992.018	2655.1385	1427.3	541.05
992.1418	2656.3961	1429.55	547.85
992.2655	2657.6531	1434.35	551.7
992.3892	2658.9094	1436.65	553.65
992.5129	2660.1651	1430.3	548.5
992.6366	2661.42	1427.6	544.1
992.7602	2662.6743	1432.05	547.65
992.8837	2663.9279	1434.2	553.4
993.0073	2665.1808	1436.4	551.65
993.1307	2666.433	1431.7	547.8
993.2542	2667.6846	1431.2	548.9
993.3776	2668.9354	1438.75	554.55
993.501	2670.1856	1434.45	550.95
993.6244	2671.4351	1448.45	567.65
993.7477	2672.6839	1447.35	563
993.8709	2673.9321	1448.7	566.3
993.9942	2675.1795	1453.55	571.7
994.1174	2676.4263	1448.85	567
994.2405	2677.6724	1456.45	574.35
994.3637	2678.9179	1458.85	573.55
994.4868	2680.1626	1457.85	576.8
994.6098	2681.4067	1454.2	571
994.7328	2682.6501	1451.4	568.3
994.8558	2683.8928	1450.45	567.1
994.9788	2685.1348	1443.75	562
995.1017	2686.3761	1438.6	556.4
995.2245	2687.6168	1444	561.2
995.3474	2688.8568	1431.9	549.9
995.4702	2690.0961	1431.25	550.7
995.5929	2691.3348	1440.05	557.05
995.7156	2692.5727	1425.3	540.9
995.8383	2693.81	1427.65	544.45
995.961	2695.0466	1421.3	539.55
996.0836	2696.2826	1427.05	543.6
996.2062	2697.5178	1423.8	535.35
996.3287	2698.7524	1423.1	539.35
996.4512	2699.9863	1425.35	541.7
996.5737	2701.2195	1426.7	543.55
996.6961	2702.452	1436.4	551.85
996.8185	2703.6839	1436.9	553.8
996.9408	2704.9151	1438.65	556.25
997.0631	2706.1456	1441.15	559.95
997.1854	2707.3755	1444.5	561.05
997.3077	2708.6046	1461.45	575.5
997.4299	2709.8331	1463.4	580.3
997.552	2711.0609	1470.95	588.7
997.6742	2712.2881	1478.45	595.05
997.7963	2713.5145	1489.1	603.35
997.9183	2714.7403	1498.35	615.85
998.0403	2715.9654	1506.95	622.45
998.1623	2717.1899	1526.8	630.2
998.2842	2718.4136	1526.4	644.9
998.4062	2719.6367	1541.9	659.3
998.528	2720.8591	1556.15	668.3
998.6498	2722.0809	1563.25	680.15
998.7716	2723.3019	1576.65	691.7
998.8934	2724.5223	1580.85	696.6
999.0151	2725.7421	1586.65	701.7
999.1368	2726.9611	1587.95	702.65
999.2584	2728.1795	1597.7	709.25
999.38	2729.3972	1573.35	691.1
999.5016	2730.6142	1580.85	684.55
999.6231	2731.8306	1562.65	677.9
999.7446	2733.0462	1548.25	664.25
999.8661	2734.2612	1517.35	627.9
999.9875	2735.4756	1505.7	621
1000.1089	2736.6892	1489.3	604.95
1000.2302	2737.9022	1472.8	591.2
1000.3515	2739.1145	1456.35	573.85
1000.4728	2740.3262	1455.45	563.45
1000.594	2741.5372	1445.8	562.85
1000.7152	2742.7475	1426.85	543.6
1000.8363	2743.9571	1424.55	542.4
1000.9575	2745.1661	1418.95	531.1
1001.0785	2746.3744	1405.5	521.75
1001.1996	2747.582	1391.6	508.55
1001.3206	2748.7889	1384.65	500.5
1001.4415	2749.9952	1378.95	497.8
1001.5625	2751.2008	1369.05	483.8
1001.6833	2752.4057	1374.2	489.55
1001.8042	2753.61	1362.75	478.7
1001.925	2754.8136	1367.6	484.95
1002.0458	2756.0165	1361.5	477.3
1002.1665	2757.2188	1369.3	488.05
1002.2872	2758.4204	1365.95	482.55
1002.4078	2759.6213	1362.2	475.85
1002.5285	2760.8215	1363.25	473.05
1002.649	2762.0211	1361.85	476.95
1002.7696	2763.22	1362.05	475.5
1002.8901	2764.4182	1367	483.45
1003.0106	2765.6158	1354.45	470.05
1003.131	2766.8127	1353.65	471.2
1003.2514	2768.009	1351.9	467.25
1003.3717	2769.2045	1346.15	463.5
1003.492	2770.3994	1351.75	467.65
1003.6123	2771.5936	1344.05	461.3
1003.7325	2772.7872	1340.35	458
1003.8527	2773.9801	1342	456.2
1003.9729	2775.1723	1357.55	458.05
1004.093	2776.3639	1342.9	460.45
1004.2131	2777.5548	1335.85	450.15
1004.3331	2778.745	1348.85	464.05
1004.4531	2779.9346	1341.15	460.1
1004.5731	2781.1235	1348.6	464.75
1004.693	2782.3117	1350.35	466.2
1004.8129	2783.4992	1351.4	467.8
1004.9328	2784.6861	1357.8	473.7
1005.0526	2785.8723	1364.45	481.25
1005.1723	2787.0579	1369.65	485.9
1005.2921	2788.2428	1380.9	498.05
1005.4118	2789.427	1379.6	498.05
1005.5314	2790.6106	1397.05	514
1005.651	2791.7935	1394.95	509.9
1005.7706	2792.9757	1405.55	525.2
1005.8902	2794.1573	1423.95	539.1
1006.0097	2795.3382	1444.75	563.15
1006.1291	2796.5184	1454.75	572.35
1006.2485	2797.698	1468.8	583.9
1006.3679	2798.8769	1483.1	601.55
1006.4873	2800.0551	1506.25	624.95
1006.6066	2801.2327	1519.55	633.95
1006.7258	2802.4096	1542.2	661.85
1006.8451	2803.5859	1565.95	681.8
1006.9642	2804.7615	1573.15	689.9
1007.0834	2805.9364	1595.2	713.05
1007.2025	2807.1106	1623.1	741.15
1007.3216	2808.2842	1656	772.1
1007.4406	2809.4572	1695.15	812
1007.5596	2810.6294	1722.1	840.2
1007.6785	2811.801	1759.05	879.7
1007.7975	2812.972	1798.05	917.2
1007.9163	2814.1423	1849.65	964.25
1008.0352	2815.3119	1897.5	1013.75
1008.154	2816.4808	1944.6	1061.9
1008.2727	2817.6491	1984.4	1101.75
1008.3914	2818.8167	2038.45	1155.7
1008.5101	2819.9837	2089.4	1201.95
1008.6288	2821.15	2145.15	1263.65
1008.7474	2822.3157	2190.5	1309.5
1008.8659	2823.4807	2241.7	1355.7
1008.9844	2824.645	2280.6	1396.4
1009.1029	2825.8086	2325.8	1444.55
1009.2214	2826.9716	2375.35	1492.05
1009.3398	2828.134	2421.05	1539.85
1009.4581	2829.2957	2455.5	1571.55
1009.5764	2830.4567	2480.55	1598.5
1009.6947	2831.617	2499.95	1615.5
1009.813	2832.7767	2509.65	1627.5
1009.9312	2833.9358	2504.55	1623.6
1010.0493	2835.0941	2504.95	1620.75
1010.1675	2836.2519	2502.9	1621.35
1010.2855	2837.4089	2490.05	1606.45
1010.4036	2838.5653	2476.75	1594.3
1010.5216	2839.7211	2461.05	1578.65
1010.6396	2840.8761	2469.8	1586.55
1010.7575	2842.0306	2482.25	1602.7
1010.8754	2843.1843	2526.75	1643.55
1010.9932	2844.3374	2575.4	1694
1011.111	2845.4899	2620.85	1738.65
1011.2288	2846.6417	2694.9	1810.65
1011.3465	2847.7928	2767.85	1885.55
1011.4642	2848.9433	2843.65	1961.35
1011.5818	2850.0931	2912.2	2031.35
1011.6995	2851.2422	2990.3	2107.4
1011.817	2852.3907	3061.45	2178
1011.9345	2853.5385	3133.55	2248.65
1012.052	2854.6857	3203.25	2295
1012.1695	2855.8323	3245.95	2362.8
1012.2869	2856.9781	3282.5	2400.4
1012.4042	2858.1233	3331.9	2449.75
1012.5216	2859.2679	3373.55	2490.45
1012.6389	2860.4118	3435	2552.2
1012.7561	2861.555	3482.15	2594.45
1012.8733	2862.6976	3499.4	2614.3
1012.9905	2863.8395	3529.15	2647.5
1013.1076	2864.9808	3564.25	2682.6
1013.2247	2866.1214	3582.35	2703.25
1013.3417	2867.2614	3597.7	2713.6
1013.4587	2868.4007	3608.2	2726.2
1013.5757	2869.5393	3631.2	2744.25
1013.6926	2870.6773	3649.3	2766.35
1013.8095	2871.8146	3655.9	2770.3
1013.9263	2872.9513	3656.5	2769.65
1014.0431	2874.0874	3637.3	2755.55
1014.1599	2875.2227	3630.95	2748
1014.2766	2876.3574	3631.1	2749.25
1014.3933	2877.4915	3607.6	2726.25
1014.51	2878.6249	3565.6	2683.75
1014.6266	2879.7577	3541.1	2658.3
1014.7431	2880.8898	3534.45	2638.85
1014.8596	2882.0212	3503.5	2620.85
1014.9761	2883.152	3494.25	2609.35
1015.0925	2884.2821	3496.45	2612.65
1015.2089	2885.4116	3485	2604.15
1015.3253	2886.5405	3483.45	2600.05
1015.4416	2887.6686	3495.65	2609.9
1015.5579	2888.7962	3495.35	2615.75
1015.6741	2889.923	3505.85	2624.05
1015.7903	2891.0493	3511.7	2629.75
1015.9065	2892.1748	3529.95	2647
1016.0226	2893.2997	3542.15	2658.1
1016.1387	2894.424	3554.3	2674.05
1016.2547	2895.5476	3573.8	2692.3
1016.3707	2896.6706	3603.85	2722.9
1016.4866	2897.7929	3627.6	2744
1016.6025	2898.9145	3661.05	2779.3
1016.7184	2900.0355	3686.3	2803.15
1016.8342	2901.1559	3711.4	2826.7
1016.95	2902.2756	3742.15	2860
1017.0658	2903.3946	3776.4	2893.2
1017.1815	2904.513	3819.7	2933.5
1017.2971	2905.6308	3833.1	2950.3
1017.4127	2906.7479	3865	2979.65
1017.5283	2907.8643	3875.05	2991.2
1017.6439	2908.9801	3888.15	3005.25
1017.7594	2910.0953	3912.4	3027.8
1017.8748	2911.2098	3913.85	3028.35
1017.9902	2912.3236	3903.05	3011.7
1018.1056	2913.4368	3895.5	3010.75
1018.2209	2914.5494	3871.85	2987.7
1018.3362	2915.6613	3844.5	2954.75
1018.4515	2916.7725	3817.8	2932.5
1018.5667	2917.8831	3805.45	2920.15
1018.6819	2918.9931	3743.75	2858.6
1018.797	2920.1024	3716.6	2832.45
1018.9121	2921.211	3714.8	2833.45
1019.0271	2922.319	3693.9	2809.55
1019.1421	2923.4264	3684.8	2800.8
1019.2571	2924.5331	3666.65	2785.15
1019.372	2925.6391	3640.5	2758
1019.4869	2926.7445	3632.6	2751.15
1019.6017	2927.8493	3641.2	2758.05
1019.7165	2928.9534	3625.8	2743.15
1019.8313	2930.0569	3621.75	2735.45
1019.946	2931.1597	3636	2749.9
1020.0606	2932.2619	3616.4	2734.55
1020.1753	2933.3634	3611.15	2729.9
1020.2899	2934.4643	3609.2	2721.25
1020.4044	2935.5645	3599.45	2709.95
1020.5189	2936.6641	3572.65	2686.8
1020.6334	2937.763	3523.2	2641.55
1020.7478	2938.8613	3463.45	2581
1020.8622	2939.959	3420.2	2531.65
1020.9765	2941.056	3340.4	2457.85
1021.0908	2942.1523	3268.35	2385.85
1021.2051	2943.248	3191.25	2308.6
1021.3193	2944.3431	3087.15	2205.7
1021.4334	2945.4375	2979.25	2097.9
1021.5476	2946.5313	2880.9	1999.15
1021.6617	2947.6244	2773.25	1889.65
1021.7757	2948.7169	2674.05	1788.85
1021.8897	2949.8087	2584.3	1703.55
1022.0037	2950.8999	2488.6	1606.5
1022.1176	2951.9904	2411.65	1529.8
1022.2315	2953.0803	2345.85	1462.1
1022.3453	2954.1696	2273.9	1391.55
1022.4591	2955.2582	2219.4	1338.2
1022.5728	2956.3462	2173.25	1289.25
1022.6865	2957.4335	2136.6	1252
1022.8002	2958.5202	2110	1225.5
1022.9138	2959.6062	2072.75	1190.5
1023.0274	2960.6916	2050.85	1168.6
1023.141	2961.7764	2028.85	1147.3
1023.2545	2962.8605	2024.7	1140.35
1023.3679	2963.9439	2002.15	1122
1023.4813	2965.0267	1993.1	1108.75
1023.5947	2966.1089	2004.85	1099.45
1023.708	2967.1905	1974.05	1093.8
1023.8213	2968.2714	1981.1	1098.75
1023.9346	2969.3516	1974.7	1090.65
1024.0478	2970.4312	1986.2	1096.45
1024.1609	2971.5102	1983.2	1101.7
1024.274	2972.5885	1976.05	1095.6
1024.3871	2973.6662	1992.1	1103.1
1024.5002	2974.7432	1992	1111.7
1024.6132	2975.8196	1980.65	1099
1024.7261	2976.8954	1968.85	1087.35
1024.839	2977.9705	1963	1080.3
1024.9519	2979.045	1949.4	1067.5
1025.0647	2980.1188	1923.55	1040.55
1025.1775	2981.192	1906.2	1024.25
1025.2902	2982.2645	1889.55	1006.05
1025.4029	2983.3364	1865.85	984.55
1025.5156	2984.4077	1831.95	950.55
1025.6282	2985.4783	1808.85	920
1025.7407	2986.5483	1782.1	902.85
1025.8532	2987.6177	1736.5	853.65
1025.9657	2988.6864	1713.6	832.35
1026.0782	2989.7545	1674.95	792.05
1026.1906	2990.8219	1644.3	762.65
1026.3029	2991.8887	1611.15	727.05
1026.4152	2992.9548	1585.35	702.8
1026.5275	2994.0204	1545	664
1026.6397	2995.0852	1516.65	635.4
1026.7519	2996.1495	1495.3	614.2
1026.864	2997.2131	1466.95	585.35
1026.9761	2998.276	1448.1	568.1
1027.0882	2999.3383	1427.6	546.7
1027.2002	3000.4	1420.05	535.75
1027.3122	3001.4611	1396.75	513.4
1027.4241	3002.5215	1384.45	502.15
1027.536	3003.5812	1362.6	481.35
1027.6478	3004.6404	1359.8	476.3
1027.7596	3005.6989	1345.3	461.9
1027.8714	3006.7567	1334.85	452.75
1027.9831	3007.8139	1358.2	448.7
1028.0947	3008.8705	1324.45	441.7
1028.2064	3009.9264	1331.45	432.4
1028.3179	3010.9818	1310.6	428.05
1028.4295	3012.0364	1304.6	421.65
1028.541	3013.0905	1305.7	424.3
1028.6524	3014.1439	1303	421.15
1028.7638	3015.1966	1303.3	420.05
1028.8752	3016.2487	1301.15	416.35
1028.9865	3017.3002	1297.7	413
1029.0978	3018.3511	1295.65	414.5
1029.209	3019.4013	1295.35	411.4
1029.3202	3020.4509	1292	408.8
1029.4314	3021.4998	1292.85	408.8
1029.5425	3022.5481	1290.4	407.2
1029.6535	3023.5958	1294.5	411.35
1029.7645	3024.6428	1293	409.05
1029.8755	3025.6892	1296.25	413.7
1029.9864	3026.735	1301.1	417.45
1030.0973	3027.7802	1306.05	423.4
1030.2082	3028.8247	1303	422.9
1030.319	3029.8685	1307.15	423.65
1030.4297	3030.9118	1308.65	426.35
1030.5404	3031.9544	1316.65	432.95
1030.6511	3032.9963	1319.3	439.15
1030.7617	3034.0376	1321.05	441.1
1030.8723	3035.0783	1327.6	440.65
1030.9829	3036.1184	1332.7	449.85
1031.0934	3037.1578	1340.3	457.8
1031.2038	3038.1966	1337.45	455.1
1031.3142	3039.2348	1336.9	456.35
1031.4246	3040.2723	1340.45	450.85
1031.5349	3041.3092	1334.5	455.05
1031.6452	3042.3455	1338	456.95
1031.7554	3043.3811	1328.5	445.9
1031.8656	3044.4161	1333.2	451.8
1031.9758	3045.4505	1326.45	446.55
1032.0859	3046.4842	1321.85	439.4
1032.1959	3047.5173	1313.75	433.85
1032.3059	3048.5498	1310.95	426.85
1032.4159	3049.5816	1309.5	428.7
1032.5258	3050.6128	1297.35	414.1
1032.6357	3051.6434	1291.75	406.8
1032.7455	3052.6734	1284.35	403.05
1032.8553	3053.7027	1277.5	393.95
1032.9651	3054.7314	1272.55	391.65
1033.0748	3055.7594	1272.1	390.55
1033.1845	3056.7868	1269.65	386.2
1033.2941	3057.8136	1256.2	374
1033.4037	3058.8398	1253.55	371.45
1033.5132	3059.8653	1248.95	368.15
1033.6227	3060.8902	1244.55	364.4
1033.7321	3061.9145	1245.45	363.1
1033.8415	3062.9381	1237.45	357.15
1033.9509	3063.9612	1253.15	354.45
1034.0602	3064.9835	1229.8	349.05
1034.1694	3066.0053	1222.25	337.05
1034.2787	3067.0264	1222.3	341.75
1034.3878	3068.0469	1210.35	326
1034.497	3069.0668	1203.4	316.95
1034.6061	3070.086	1193.35	313.2
1034.7151	3071.1046	1190.65	307.2
1034.8241	3072.1226	1182.2	300.75
1034.9331	3073.1399	1169.55	287.95
1035.042	3074.1567	1168.2	286.25
1035.1508	3075.1727	1151.45	267.2
1035.2597	3076.1882	1146.35	263.75
1035.3684	3077.203	1136.75	254.6
1035.4772	3078.2173	1132.3	248.75
1035.5859	3079.2308	1123.9	240.1
1035.6945	3080.2438	1117.5	232.4
1035.8031	3081.2561	1112.25	230.55
1035.9117	3082.2678	1103	220.5
1036.0202	3083.2789	1096.45	214.55
1036.1286	3084.2893	1090.4	208
1036.2371	3085.2991	1080.1	197.7
1036.3454	3086.3083	1086.9	201.45
1036.4538	3087.3169	1076.55	192
1036.562	3088.3248	1071.7	187.8
1036.6703	3089.3321	1070	186
1036.7785	3090.3388	1060.1	177.1
1036.8866	3091.3449	1053.9	170
1036.9948	3092.3503	1057.85	173.1
1037.1028	3093.3551	1049.6	170.85
1037.2108	3094.3593	1048.5	166.95
1037.3188	3095.3629	1040.6	159.7
1037.4267	3096.3658	1039.95	157.1
1037.5346	3097.3681	1041.55	160.45
1037.6425	3098.3698	1040.75	158.55
1037.7503	3099.3708	1044.45	159.55
1037.858	3100.3713	1031.25	152.5
1037.9657	3101.3711	1033.25	149.55
1038.0734	3102.3702	1166.95	141.3
1038.181	3103.3688	1027.05	142.75
1038.2886	3104.3667	1026	145.75
1038.3961	3105.364	1024.6	142.4
1038.5036	3106.3607	1020.65	137.35
1038.611	3107.3568	1026.15	142.3
1038.7184	3108.3522	1016.35	134.7
1038.8257	3109.347	1017.45	133.2
1038.933	3110.3412	1021.55	135.6
1039.0403	3111.3348	1014.8	131.15
1039.1475	3112.3277	1010.55	128.1
1039.2547	3113.32	1005.25	125.2
1039.3618	3114.3117	1010.05	125.85
1039.4689	3115.3028	1007.9	127.55
1039.5759	3116.2932	1009.5	124.8
1039.6829	3117.2831	1008.75	123.15
1039.7898	3118.2723	1005.45	124.1
1039.8967	3119.2608	1002.85	121.75
1040.0035	3120.2488	1001	119.55
1040.1103	3121.2361	1001.65	120.9
1040.2171	3122.2229	1001.05	119.45
1040.3238	3123.209	998.55	117.55
1040.4305	3124.1944	998.85	118.9
1040.5371	3125.1793	993.5	109.85
1040.6437	3126.1635	995.85	114.45
1040.7502	3127.1471	993.6	111.35
1040.8567	3128.1301	989.2	108.45
1040.9631	3129.1125	994.75	113.85
1041.0695	3130.0942	992.8	110.95
1041.1759	3131.0753	998.25	109.15
1041.2822	3132.0558	993.15	107.85
1041.3884	3133.0357	986.5	102.5
1041.4946	3134.015	987.6	105.55
1041.6008	3134.9936	988.25	104.85
1041.7069	3135.9716	1009.7	107.35
1041.813	3136.949	983.85	102.5
1041.919	3137.9258	1006.45	106.05
1042.025	3138.902	984.05	98.45
1042.1309	3139.8775	978.3	96.5
1042.2368	3140.8524	980.7	98.55
1042.3427	3141.8267	980.2	95
1042.4485	3142.8004	976.5	95.05
1042.5542	3143.7735	985.95	97.45
1042.6599	3144.7459	982.7	98.15
1042.7656	3145.7178	980	98.1
1042.8712	3146.689	974.2	93.55
1042.9768	3147.6596	975.3	91.15
1043.0823	3148.6295	974.4	94.55
1043.1878	3149.5989	972.35	90.1
1043.2932	3150.5676	971.5	92.5
1043.3986	3151.5357	969.55	87.45
1043.5039	3152.5032	969.2	89.3
1043.6092	3153.4701	971.7	91.45
1043.7145	3154.4364	970.35	83.2
1043.8197	3155.402	969.45	88.7
1043.9248	3156.367	966.85	84.65
1044.03	3157.3315	1005.95	87
1044.135	3158.2952	968.5	85.6
1044.24	3159.2584	964.95	82.3
1044.345	3160.221	963.2	80.15
1044.4499	3161.1829	962.5	79.45
1044.5548	3162.1442	961.05	78.6
1044.6596	3163.105	962.45	81.3
1044.7644	3164.065	963.05	81.2
1044.8692	3165.0245	960.9	75.75
1044.9739	3165.9834	961	82.15
1045.0785	3166.9416	961.2	79.2
1045.1831	3167.8993	962.7	80.9
1045.2877	3168.8563	960.65	74.9
1045.3922	3169.8127	957.45	77.35
1045.4966	3170.7684	960.2	77.1
1045.6011	3171.7236	959.05	76.15
1045.7054	3172.6782	955.25	74.3
1045.8098	3173.6321	956.55	73
1045.914	3174.5854	959.85	75.3
1046.0183	3175.5381	954.05	71.9
1046.1224	3176.4902	957.25	74.9
1046.2266	3177.4417	953.8	74.35
1046.3307	3178.3926	956	74.4
1046.4347	3179.3428	952.8	73.1
1046.5387	3180.2924	953.35	72.2
1046.6427	3181.2415	955.1	75
1046.7466	3182.1899	953.4	72.6
1046.8504	3183.1377	953.75	72.4
1046.9542	3184.0848	954.15	70.25
1047.058	3185.0314	952.35	71.2
1047.1617	3185.9773	950.2	68.35
1047.2654	3186.9227	953.3	73.5
1047.369	3187.8674	951.5	70.4
1047.4726	3188.8115	955.45	68.45
1047.5761	3189.755	951.4	70.45
1047.6796	3190.6979	950.9	66.75
1047.783	3191.6402	949.5	68.75
1047.8864	3192.5818	947.2	66.7
1047.9898	3193.5229	971.45	69.25
1048.0931	3194.4633	949.5	68.05
1048.1963	3195.4031	945.6	62.4
1048.2995	3196.3423	947.75	66.85
1048.4027	3197.2809	946.35	65.95
1048.5058	3198.2189	945.15	63.45
1048.6089	3199.1563	961.85	61.65
1048.7119	3200.0931	946.5	67.85
1048.8148	3201.0292	947.05	67.05
1048.9178	3201.9648	944.95	64.95
1049.0206	3202.8997	948.15	63.1
1049.1235	3203.834	944	64.1
1049.2262	3204.7677	945.55	64.25
1049.329	3205.7008	945.6	58.7
1049.4317	3206.6333	942.45	63
1049.5343	3207.5652	942.75	59.3
1049.6369	3208.4964	945.05	62.65
1049.7394	3209.4271	939.65	58.3
1049.8419	3210.3571	939.95	60.4
1049.9444	3211.2865	940.15	58.9
1050.0468	3212.2154	944.2	58.95
1050.1491	3213.1436	944	58.5
1050.2514	3214.0712	950.25	63.65
1050.3537	3214.9982	938.6	56.3
1050.4559	3215.9246	939.7	57.4
1050.5581	3216.8503	939.2	58.15
1050.6602	3217.7755	939.5	57.25
1050.7623	3218.7001	936.25	55.3
1050.8643	3219.624	940.1	58.45
1050.9663	3220.5473	939.05	58.35
1051.0682	3221.4701	937.65	56.9
1051.1701	3222.3922	939.25	57.25
1051.2719	3223.3137	933.65	52.35
1051.3737	3224.2346	937.95	56.35
1051.4754	3225.1549	934.2	53.25
1051.5771	3226.0746	935.65	56.95
1051.6788	3226.9937	936.25	54.25
1051.7804	3227.9121	936.2	54.95
1051.8819	3228.83	934.55	53.85
1051.9834	3229.7473	937.25	56.1
1052.0849	3230.6639	937.75	55.95
1052.1863	3231.5799	932.6	53.15
1052.2876	3232.4954	933.1	50.4
1052.3889	3233.4102	933.6	51
1052.4902	3234.3244	934.45	53.4
1052.5914	3235.238	931.75	50.6
1052.6926	3236.151	955.95	50.8
1052.7937	3237.0634	930.2	51.8
1052.8948	3237.9752	932.7	51.7
1052.9958	3238.8864	935.15	53.6
1053.0968	3239.797	931.05	50.45
1053.1977	3240.7069	932.9	51
1053.2986	3241.6163	933.55	50.7
1053.3994	3242.5251	932.8	53.25
1053.5002	3243.4332	928.7	48.55
1053.6009	3244.3408	927.7	45.45
1053.7016	3245.2477	928.25	47.5
1053.8022	3246.154	931.25	50.8
1053.9028	3247.0598	928.35	42.8
1054.0034	3247.9649	928.1	47.45
1054.1039	3248.8694	928.3	46.5
1054.2043	3249.7733	928.1	48.3
1054.3047	3250.6766	923.75	42.1
1054.4051	3251.5793	928.45	47.15
1054.5054	3252.4814	927.7	47.85
1054.6056	3253.3829	925.35	43.7
1054.7058	3254.2838	925.6	43.95
1054.806	3255.1841	924.9	43.6
1054.9061	3256.0838	925	44.1
1055.0061	3256.9829	923.9	44.25
1055.1062	3257.8814	925.45	41.75
1055.2061	3258.7792	924.75	42.05
1055.306	3259.6765	922.65	41.8
1055.4059	3260.5731	924.8	43.35
1055.5057	3261.4692	922.65	41
1055.6055	3262.3647	920.7	37.85
1055.7052	3263.2595	921.9	40.8
1055.8049	3264.1538	920.25	40.9
1055.9045	3265.0474	921.25	37.95
1056.0041	3265.9404	915.5	35.7
1056.1036	3266.8329	917.8	37.9
1056.2031	3267.7247	924.55	33.05
1056.3025	3268.616	916	38.2
1056.4019	3269.5066	916.4	33.5
1056.5013	3270.3966	915.25	33.05
1056.6005	3271.286	910.05	29.95
