Software Version:	3.9.2.0
Unit SN:	10000200
Spectrometer SN:	6960
Date:	3/14/2024 2:21:11 PM
Data Line Index:	25
Spectral Points:	2048
Integration time (ms):	125
Averages:	20
Delay (ms):	30000
Sequence Number:	1
Processing:	dark subtract
Laser Power (mW):	305
Laser Current (mA):	826
Laser Diode Temp (C):	25
Laser Case Temp (C):	29.2
System Temp (C):	29.2
Spectrometer Temp (C):	27
CCD Temp (C):	0.002
Secondary Temp (C):	20.011
Heatsink Temp (C):	25.148
CCDPCB Temp (C):	38.452
SecondaryPCB Temp (C):	36.085

Wavelength	RamanShift	Raw Counts	Dark Subtracted
787.061	30.1047	453.9	44.3
787.2016	32.3739	456.85	49.35
787.3422	34.6426	458.2	47.7
787.4828	36.9109	468.2	56.15
787.6235	39.1787	475.55	60.65
787.7642	41.4461	488	67.35
787.9049	43.7131	494.25	71.85
788.0456	45.9796	502	73.4
788.1863	48.2456	513.6	80.55
788.3271	50.5112	525.25	89.35
788.4679	52.7764	531.1	92.9
788.6087	55.0411	540.7	101.1
788.7496	57.3054	553.1	106.25
788.8904	59.5692	564.75	115.05
789.0313	61.8326	576.85	124.4
789.1722	64.0955	588.75	131.15
789.3132	66.3579	604.5	140.65
789.4541	68.6199	621.35	155.15
789.5951	70.8815	656.1	189.2
789.7361	73.1426	727.7	257.45
789.8771	75.4032	908.25	430.7
790.0181	77.6634	1378.1	895.45
790.1592	79.9231	2465.55	1975.8
790.3003	82.1824	4868.15	4370.3
790.4414	84.4412	9295.25	8782.45
790.5825	86.6995	15564.45	15030.3
790.7237	88.9574	21929.9	21376.3
790.8648	91.2148	26418.45	25852.4
791.006	93.4717	28637.5	28061.9
791.1472	95.7282	29230.75	28647.9
791.2885	97.9842	29234.1	28650
791.4297	100.2398	28765.5	28178.4
791.571	102.4949	28206.7	27615.7
791.7123	104.7495	27481.75	26884.8
791.8536	107.0036	26637.3	26041.25
791.9949	109.2573	25781.65	25190
792.1363	111.5105	24976.1	24380.7
792.2777	113.7632	24149.9	23553.85
792.4191	116.0154	23416.45	22810.35
792.5605	118.2672	22887.55	22289.7
792.7019	120.5185	22292.35	21691.5
792.8434	122.7693	21875.85	21271.25
792.9849	125.0197	21513.35	20905.75
793.1264	127.2696	21200.75	20591.95
793.2679	129.519	21053.1	20439.55
793.4094	131.7679	20880.05	20267.15
793.551	134.0163	20716.3	20098.4
793.6926	136.2642	20561.55	19941.3
793.8342	138.5117	20433.45	19802.65
793.9758	140.7587	20232.2	19606.85
794.1175	143.0052	20091.75	19464.5
794.2591	145.2512	19849.25	19218.45
794.4008	147.4967	19653.15	19023.25
794.5425	149.7417	19498.8	18865.6
794.6842	151.9863	19357.2	18721
794.826	154.2304	19299.35	18659
794.9677	156.4739	19182.05	18540.2
795.1095	158.717	19082.25	18435.6
795.2513	160.9596	18910.25	18260.7
795.3931	163.2017	18662.8	18014.65
795.535	165.4433	18384.6	17732
795.6768	167.6844	17980.15	17325.3
795.8187	169.925	17643.85	16990.05
795.9606	172.1651	17207.6	16549.85
796.1025	174.4047	16892.5	16227.15
796.2445	176.6439	16573.6	15909.2
796.3864	178.8825	16315.9	15648.4
796.5284	181.1206	16114.95	15442.6
796.6704	183.3582	15937.3	15259.9
796.8124	185.5954	15771.1	15094.8
796.9544	187.832	15667.15	14983.4
797.0965	190.0681	15597.05	14915.75
797.2386	192.3037	15563.25	14877.5
797.3806	194.5388	15547.85	14859.3
797.5228	196.7734	15580.8	14890.1
797.6649	199.0075	15638.75	14943.4
797.807	201.2411	15765.75	15071.15
797.9492	203.4742	15788.75	15089.1
798.0914	205.7068	15935.2	15236.65
798.2336	207.9389	16010.8	15313.35
798.3758	210.1704	16153.95	15455.1
798.518	212.4015	16253.05	15548.75
798.6603	214.632	16446.8	15743.1
798.8025	216.862	16618.4	15919.85
798.9448	219.0915	16836	16148.45
799.0871	221.3205	17085.75	16399.25
799.2294	223.549	17419.9	16739.45
799.3718	225.777	17758.55	17075.95
799.5141	228.0044	18245.45	17560.85
799.6565	230.2314	18810.05	18128.4
799.7989	232.4578	19356.6	18672.45
799.9413	234.6837	19811	19119.1
800.0837	236.909	20072.05	19377.9
800.2262	239.1339	20023.85	19307.9
800.3687	241.3582	19750.3	19046.6
800.5111	243.582	19304	18575
800.6536	245.8053	18858.05	18137.15
800.7961	248.0281	18393.95	17677.1
800.9387	250.2503	17998.8	17278.65
801.0812	252.472	17789.5	17064.65
801.2238	254.6932	17643.45	16914.95
801.3664	256.9139	17474.3	16743.5
801.509	259.134	17334.5	16603.2
801.6516	261.3536	17236.2	16504.75
801.7942	263.5727	17191.65	16459.95
801.9369	265.7912	17003.7	16274.5
802.0795	268.0092	16961.45	16231.15
802.2222	270.2267	16853.65	16119.95
802.3649	272.4436	16760.4	16025.95
802.5076	274.6601	16680.7	15939.2
802.6504	276.8759	16617.2	15880.4
802.7931	279.0913	16606.1	15867.05
802.9359	281.3061	16637.5	15896.75
803.0787	283.5204	16733.75	15989.55
803.2215	285.7341	16876.85	16132.05
803.3643	287.9473	17091.15	16333.5
803.5071	290.16	17344.95	16588.7
803.6499	292.3721	17716.8	16966.05
803.7928	294.5837	18213.25	17463.95
803.9357	296.7947	18591.95	17843.3
804.0786	299.0052	18819.65	18070.3
804.2215	301.2152	18646	17895.7
804.3644	303.4246	18268.7	17520
804.5074	305.6334	17642.85	16894.85
804.6503	307.8418	17053.55	16300.55
804.7933	310.0495	16595.9	15843.65
804.9363	312.2568	16253.9	15504.1
805.0793	314.4635	16001.9	15247.7
805.2223	316.6696	15944.55	15190.2
805.3653	318.8752	15923.6	15158.35
805.5084	321.0802	15985.8	15230.9
805.6514	323.2847	16073.95	15316.25
805.7945	325.4887	16153	15394.6
805.9376	327.692	16121.35	15362.45
806.0807	329.8949	15978.65	15215.95
806.2238	332.0972	15674	14913.75
806.367	334.2989	15363.45	14600.4
806.5101	336.5001	15046.3	14281.15
806.6533	338.7007	14782.65	14018.7
806.7965	340.9008	14679.45	13912.75
806.9397	343.1003	14532.3	13762.05
807.0829	345.2992	14481.45	13710.05
807.2261	347.4976	14407.85	13635.15
807.3693	349.6955	14436.9	13660.55
807.5126	351.8927	14496.2	13722.15
807.6559	354.0895	14477.3	13690.3
807.7991	356.2856	14508.95	13733.45
807.9424	358.4812	14484.7	13709.9
808.0857	360.6763	14516.35	13739.95
808.2291	362.8707	14457.8	13678
808.3724	365.0646	14480.7	13695.7
808.5158	367.258	14495.25	13713
808.6591	369.4508	14475.05	13686.25
808.8025	371.643	14532.1	13744.55
808.9459	373.8346	14501.55	13714.5
809.0893	376.0257	14452.2	13658.4
809.2327	378.2162	14354	13563.15
809.3762	380.4062	14237.15	13442
809.5196	382.5956	14054.7	13257.95
809.6631	384.7844	13930.25	13135.5
809.8066	386.9726	13793.8	13000.6
809.9501	389.1603	13735	12941.7
810.0936	391.3474	13701.5	12863.45
810.2371	393.5339	13644.25	12845.95
810.3806	395.7199	13603.3	12810.15
810.5241	397.9052	13579.1	12789.2
810.6677	400.09	13569.15	12781.75
810.8113	402.2743	13604.45	12820.45
810.9548	404.4579	13655.75	12869.9
811.0984	406.641	13785.05	12998.75
811.2421	408.8235	13990.6	13202.4
811.3857	411.0054	14375.1	13586.4
811.5293	413.1868	14868.85	14078.95
811.673	415.3675	15302.5	14511.95
811.8166	417.5477	15562.25	14769.7
811.9603	419.7273	15644.05	14846.45
812.104	421.9064	15528.7	14724.45
812.2477	424.0848	15388.95	14588.15
812.3914	426.2627	15112.05	14312.1
812.5351	428.4399	14791.55	13989.2
812.6788	430.6166	14398.2	13591.2
812.8226	432.7928	13993.75	13184.05
812.9663	434.9683	13630.2	12823.25
813.1101	437.1432	13363.65	12554.55
813.2539	439.3176	13199.7	12389.25
813.3977	441.4914	13043.8	12235.35
813.5415	443.6645	13026.35	12211.25
813.6853	445.8371	12945.7	12132.1
813.8291	448.0091	12897.95	12086.1
813.973	450.1806	12800.85	11988.05
814.1168	452.3514	12722.35	11906.55
814.2607	454.5216	12710.05	11884.25
814.4046	456.6913	12626.4	11809.45
814.5485	458.8603	12649.2	11835.65
814.6924	461.0288	12699.65	11885.75
814.8363	463.1967	12707.25	11893.95
814.9802	465.3639	12858.7	12040.95
815.1241	467.5306	12966.05	12147.2
815.2681	469.6967	13159.3	12343.65
815.412	471.8622	13383.4	12567.7
815.556	474.0271	13570	12755.35
815.7	476.1914	13634.6	12813.85
815.844	478.3551	13595.15	12776.5
815.988	480.5182	13522.8	12703.55
816.132	482.6807	13479	12656.25
816.276	484.8426	13490.1	12670.4
816.4201	487.0039	13766.45	12947.6
816.5641	489.1647	14149.95	13331.8
816.7082	491.3248	14631.95	13811.35
816.8522	493.4843	14867.75	14046.85
816.9963	495.6432	14869.95	14047.45
817.1404	497.8015	14803.7	13979.25
817.2845	499.9592	14837.55	14017.3
817.4286	502.1163	14849.3	14025.9
817.5727	504.2728	14644.45	13819.7
817.7168	506.4287	14289.35	13463.6
817.861	508.5839	13836.7	13010.2
818.0051	510.7386	13451.1	12628.05
818.1493	512.8927	13165.25	12336.1
818.2935	515.0461	12967.8	12142.8
818.4377	517.199	12839.1	12015.3
818.5818	519.3512	12741.55	11918.95
818.726	521.5029	12716.35	11880.9
818.8703	523.6539	12707.6	11877.35
819.0145	525.8043	12728.1	11901.55
819.1587	527.9541	12749.6	11917.55
819.303	530.1033	12797.7	11968.45
819.4472	532.2519	12882	12052.1
819.5915	534.3999	13032.25	12198.8
819.7357	536.5472	13376.4	12541.2
819.88	538.694	13953	13122.15
820.0243	540.8401	14641.9	13810.35
820.1686	542.9856	15262.4	14427.1
820.3129	545.1305	15496.35	14662
820.4572	547.2748	15321.15	14486.4
820.6016	549.4185	14864.75	14028.5
820.7459	551.5615	14395.9	13558.3
820.8902	553.704	14197.1	13360.1
821.0346	555.8458	14060.25	13225.7
821.1789	557.987	13983.85	13147.35
821.3233	560.1276	13832.95	12996.25
821.4677	562.2675	13641.25	12805.85
821.6121	564.4069	13550.25	12712.25
821.7565	566.5456	13397.5	12562.55
821.9009	568.6837	13205.3	12371.35
822.0453	570.8212	12946.05	12109.25
822.1897	572.958	12727.15	11890.05
822.3342	575.0942	12531.75	11697.35
822.4786	577.2299	12428.8	11590.55
822.6231	579.3648	12438.5	11600.25
822.7675	581.4992	12552.2	11712.3
822.912	583.6329	12764.05	11925.35
823.0565	585.766	13002.55	12167.1
823.201	587.8985	13186.65	12351.95
823.3454	590.0304	13214.8	12367
823.4899	592.1616	13142.2	12303.15
823.6345	594.2922	13039.65	12201.55
823.779	596.4222	12873.5	12034.35
823.9235	598.5515	12696.7	11857.8
824.068	600.6802	12469	11630.75
824.2126	602.8083	12294	11452.25
824.3571	604.9358	12209.85	11369.45
824.5017	607.0626	12088.6	11248.2
824.6462	609.1888	11989.75	11147.05
824.7908	611.3144	11861.85	11020.25
824.9354	613.4393	11662.95	10818.65
825.08	615.5636	11500.25	10660
825.2246	617.6873	11347.3	10504.55
825.3692	619.8103	11278	10432.45
825.5138	621.9327	11208.05	10360.9
825.6584	624.0544	11193.7	10350.4
825.803	626.1756	11207.85	10365.7
825.9477	628.2961	11180.4	10337.95
826.0923	630.4159	11092.55	10248.1
826.237	632.5351	11064.6	10221.55
826.3816	634.6537	10971.8	10126.2
826.5263	636.7716	10936.3	10087.35
826.6709	638.8889	10920.75	10075.45
826.8156	641.0056	10913.4	10065.3
826.9603	643.1216	10909.1	10061.9
827.105	645.237	10914.5	10064.2
827.2497	647.3518	10913.95	10064.45
827.3944	649.4659	10953	10106.75
827.5391	651.5793	10955.45	10106.6
827.6838	653.6922	10933.5	10085.7
827.8285	655.8043	10906.8	10056.25
827.9733	657.9159	10874.35	10023.4
828.118	660.0268	10775.8	9923.25
828.2627	662.137	10714.3	9865.8
828.4075	664.2466	10658.8	9807.65
828.5522	666.3556	10623.25	9774.9
828.697	668.4639	10617.1	9764.6
828.8418	670.5716	10642	9789.05
828.9865	672.6786	10740.9	9889.15
829.1313	674.785	10832.1	9980.45
829.2761	676.8907	10929.35	10077.15
829.4209	678.9958	10988.65	10134.4
829.5657	681.1002	10964.2	10111.75
829.7105	683.204	10917.85	10063.95
829.8553	685.3072	10835.35	9983.65
830.0001	687.4097	10741.7	9891.85
830.1449	689.5115	10685.4	9831.65
830.2898	691.6127	10602.55	9750.6
830.4346	693.7132	10509.05	9654.85
830.5794	695.8131	10443.05	9565.25
830.7243	697.9123	10370	9516.75
830.8691	700.0109	10302.55	9446.2
831.014	702.1089	10267.25	9410.85
831.1588	704.2061	10253.4	9396.25
831.3037	706.3028	10267.95	9409.1
831.4486	708.3987	10360.2	9503.55
831.5935	710.4941	10425.25	9569.25
831.7383	712.5887	10638.65	9783.2
831.8832	714.6827	10955.5	10095.3
832.0281	716.7761	11350.25	10493.4
832.173	718.8688	11772.1	10913.45
832.3179	720.9608	11991.15	11130.85
832.4628	723.0522	12019	11155.65
832.6077	725.1429	11742.2	10885.55
832.7527	727.233	11329	10469.6
832.8976	729.3224	10943.75	10084.6
833.0425	731.4112	10607.85	9750.05
833.1874	733.4993	10360.85	9497.5
833.3324	735.5867	10176.05	9314.45
833.4773	737.6735	10089.8	9228.3
833.6222	739.7596	10036.25	9177.1
833.7672	741.845	10000.95	9140.85
833.9122	743.9298	9978.35	9112.65
834.0571	746.014	9976.85	9117.35
834.2021	748.0974	9997.85	9136.7
834.347	750.1802	9987.4	9125.85
834.492	752.2624	9978.75	9117.8
834.637	754.3439	10003.65	9141.55
834.782	756.4247	10046.85	9177.55
834.9269	758.5048	10154.35	9293.55
835.0719	760.5843	10302.95	9443.55
835.2169	762.6631	10587.15	9724.75
835.3619	764.7413	10997.35	10137.75
835.5069	766.8188	11555.2	10691.7
835.6519	768.8956	12060.7	11196.35
835.7969	770.9718	12372.3	11510.1
835.9419	773.0473	12295.75	11435.2
836.0869	775.1221	11944.05	11081.6
836.232	777.1962	11555.45	10692.95
836.377	779.2697	11338	10474.45
836.522	781.3426	11421.7	10539.5
836.667	783.4147	11690.45	10826.95
836.8121	785.4862	12032.7	11172.15
836.9571	787.557	12096.9	11234.3
837.1021	789.6271	11742.45	10879.95
837.2472	791.6966	11159.95	10296.2
837.3922	793.7654	10597.45	9733.15
837.5373	795.8335	10254.95	9392.7
837.6823	797.901	10051.6	9187.65
837.8274	799.9678	9953.55	9086.75
837.9724	802.0339	9974.3	9112.2
838.1175	804.0993	10026.5	9155.15
838.2626	806.1641	10017.4	9151.2
838.4076	808.2282	9971.1	9105.25
838.5527	810.2916	9865.15	8998.2
838.6978	812.3544	9738.3	8876.75
838.8428	814.4164	9633.15	8770.35
838.9879	816.4778	9626.8	8762.5
839.133	818.5385	9586.7	8723.7
839.2781	820.5986	9578.95	8712.95
839.4232	822.658	9629	8762.8
839.5682	824.7166	9674.15	8808.35
839.7133	826.7747	9776.25	8909.5
839.8584	828.832	9910.8	9044.5
840.0035	830.8886	10013.6	9146.7
840.1486	832.9446	10146.3	9278.75
840.2937	834.9999	10235.55	9371.25
840.4388	837.0545	10344.85	9474.45
840.5839	839.1085	10391.2	9523.5
840.729	841.1618	10441.55	9571.25
840.8741	843.2143	10412	9547.25
841.0192	845.2662	10364.55	9497.85
841.1643	847.3175	10286.15	9421.35
841.3095	849.368	10166.15	9297.35
841.4546	851.4179	10015.6	9150.95
841.5997	853.467	9863.1	8996.4
841.7448	855.5155	9743.8	8879
841.8899	857.5633	9644.6	8777.9
842.0351	859.6105	9525	8658.3
842.1802	861.6569	9406.6	8539.7
842.3253	863.7027	9347.75	8478.1
842.4704	865.7478	9319.35	8453.3
842.6156	867.7922	9327.2	8460.8
842.7607	869.8359	9361.25	8492.85
842.9058	871.8789	9500.3	8632.85
843.0509	873.9212	9718.5	8817.55
843.1961	875.9629	9852.4	8984.6
843.3412	878.0039	10048.7	9177.65
843.4863	880.0441	10184.4	9314.75
843.6315	882.0837	10149.35	9279
843.7766	884.1226	10008.7	9137.65
843.9218	886.1609	9835.8	8969.55
844.0669	888.1984	9679.75	8811.6
844.212	890.2352	9616.55	8747.95
844.3572	892.2714	9524.3	8650.35
844.5023	894.3069	9476.6	8606.3
844.6475	896.3416	9419.7	8551.9
844.7926	898.3757	9383.6	8513.8
844.9377	900.4091	9373.95	8502.65
845.0829	902.4418	9385.85	8513
845.228	904.4739	9379.35	8505.95
845.3732	906.5052	9376.85	8507.3
845.5183	908.5358	9248.05	8378.65
845.6635	910.5658	9084.15	8212.2
845.8086	912.595	8940.6	8070.35
845.9538	914.6236	8781.4	7912.75
846.0989	916.6515	8765.55	7895.15
846.2441	918.6786	8756.2	7883.55
846.3892	920.7051	8809.3	7937.3
846.5344	922.7309	8899	8026.7
846.6795	924.756	9000.9	8130.15
846.8246	926.7804	9070.4	8194.85
846.9698	928.8041	9051.15	8177.45
847.1149	930.8272	9072.15	8200.75
847.2601	932.8495	9006.15	8135.65
847.4052	934.8711	8933.5	8060.6
847.5504	936.892	8736.95	7865.65
847.6955	938.9123	8567.6	7693.35
847.8407	940.9318	8413.4	7542.35
847.9858	942.9506	8298.15	7424.2
848.131	944.9688	8172.5	7299.65
848.2761	946.9862	8134.75	7263.9
848.4213	949.003	8085.7	7215.3
848.5664	951.019	8103.8	7229.5
848.7115	953.0344	8112.65	7238.75
848.8567	955.0491	8148.8	7274.4
849.0018	957.063	8226.8	7354
849.147	959.0763	8319.85	7450.75
849.2921	961.0888	8371.55	7497.1
849.4373	963.1007	8458.9	7586.9
849.5824	965.1119	8514.6	7641.9
849.7275	967.1223	8540.75	7667.2
849.8727	969.1321	8542.7	7672
850.0178	971.1412	8576.15	7705.15
850.1629	973.1495	8602.65	7729.1
850.3081	975.1572	8673.55	7760.3
850.4532	977.1641	8679.75	7806.25
850.5983	979.1704	8658.75	7786.7
850.7435	981.1759	8653.4	7778.5
850.8886	983.1808	8719.3	7843.65
851.0337	985.1849	8866.2	7981.9
851.1788	987.1884	9027.8	8150.1
851.324	989.1911	9206.45	8327.65
851.4691	991.1932	9351.3	8473.65
851.6142	993.1945	9433.3	8559.9
851.7593	995.1951	9382.6	8509.05
851.9045	997.1951	9378.9	8499.8
852.0496	999.1943	9295.1	8421.6
852.1947	1001.1928	9202	8327.2
852.3398	1003.1906	9200.8	8326.7
852.4849	1005.1877	9219.4	8341.75
852.63	1007.1841	9158.85	8284.25
852.7751	1009.1798	9076.15	8202.05
852.9202	1011.1748	8858.05	7985.15
853.0653	1013.1691	8652	7774.45
853.2104	1015.1627	8410.85	7536.85
853.3555	1017.1556	8223.25	7345.15
853.5006	1019.1477	8129.4	7254.55
853.6457	1021.1392	8069.45	7193.4
853.7908	1023.1299	8071.9	7196.45
853.9359	1025.12	8083.85	7205.7
854.081	1027.1093	8147.1	7274.55
854.2261	1029.0979	8215.8	7342.9
854.3712	1031.0859	8278.45	7403.8
854.5163	1033.0731	8277.8	7404.1
854.6613	1035.0596	8192.1	7317.85
854.8064	1037.0454	8037.2	7161.35
854.9515	1039.0304	7932.8	7057.75
855.0965	1041.0148	7799.25	6924.4
855.2416	1042.9985	7727.45	6852.6
855.3867	1044.9814	7676.2	6801.85
855.5317	1046.9636	7618.6	6738.35
855.6768	1048.9452	7593.15	6718.75
855.8219	1050.926	7598.45	6726.2
855.9669	1052.9061	7583.4	6708.7
856.112	1054.8855	7570.95	6695.95
856.257	1056.8642	7580.1	6705.75
856.4021	1058.8421	7658.2	6778.4
856.5471	1060.8194	7635.95	6759.4
856.6921	1062.7959	7682.85	6806.4
856.8372	1064.7717	7704.4	6829.3
856.9822	1066.7469	7687.25	6809
857.1272	1068.7213	7661.85	6782.15
857.2723	1070.695	7604.35	6727.85
857.4173	1072.6679	7542.95	6664.7
857.5623	1074.6402	7479.45	6601.9
857.7073	1076.6117	7468.85	6587.5
857.8523	1078.5826	7510.6	6634.65
857.9973	1080.5527	7564	6685.75
858.1423	1082.5221	7720.95	6844.1
858.2873	1084.4908	7959.3	7081.85
858.4323	1086.4587	8200.8	7321.6
858.5773	1088.426	8351.65	7474
858.7223	1090.3925	8380.15	7497.45
858.8673	1092.3584	8284.3	7407.75
859.0123	1094.3235	8104.4	7229.65
859.1573	1096.2879	8016.1	7139.1
859.3022	1098.2515	7952.85	7075.6
859.4472	1100.2145	7958.25	7082.8
859.5922	1102.1767	8024.75	7144.25
859.7371	1104.1382	8147.9	7271.25
859.8821	1106.099	8353.1	7472.5
860.027	1108.0591	8563.3	7686.25
860.172	1110.0185	8729.25	7849.65
860.3169	1111.9771	8737.8	7859.65
860.4619	1113.9351	8516.15	7639.65
860.6068	1115.8923	8167.85	7286.2
860.7517	1117.8488	7839.45	6957.8
860.8967	1119.8045	7531.2	6654.5
861.0416	1121.7596	7362.15	6484.8
861.1865	1123.7139	7290.95	6414.2
861.3314	1125.6675	7289.35	6412.4
861.4763	1127.6204	7345.25	6467.75
861.6212	1129.5726	7355.9	6477.9
861.7661	1131.524	7408.3	6530.75
861.911	1133.4748	7453.1	6575.15
862.0559	1135.4248	7504.35	6626.7
862.2008	1137.3741	7529.8	6650.75
862.3457	1139.3226	7505.7	6625.75
862.4905	1141.2705	7453.1	6576.25
862.6354	1143.2176	7408.1	6524.45
862.7803	1145.164	7429.85	6551.35
862.9251	1147.1097	7454.45	6576.8
863.07	1149.0546	7433.15	6553.8
863.2148	1150.9989	7328.35	6450.35
863.3597	1152.9424	7140.75	6261.85
863.5045	1154.8852	6949.75	6073.1
863.6493	1156.8272	6781.75	5905.1
863.7942	1158.7686	6734.4	5849.15
863.939	1160.7092	6668.9	5787.6
864.0838	1162.6491	6674.2	5795.35
864.2286	1164.5883	6725.4	5847.9
864.3734	1166.5267	6789.75	5910.2
864.5182	1168.4644	6931.8	6053.7
864.663	1170.4014	7125.65	6241.55
864.8078	1172.3377	7337.55	6459.7
864.9526	1174.2732	7554.7	6677.4
865.0974	1176.2081	7759.55	6884
865.2421	1178.1421	7948.95	7067.45
865.3869	1180.0755	8061.25	7183.25
865.5317	1182.0082	8066.25	7185.65
865.6764	1183.9401	8007.55	7129.75
865.8212	1185.8713	7803	6924.4
865.9659	1187.8017	7543	6663.9
866.1106	1189.7315	7291.9	6414.45
866.2554	1191.6605	7044.3	6136.15
866.4001	1193.5888	6841.6	5962.55
866.5448	1195.5163	6705	5826.75
866.6895	1197.4432	6590.5	5709.2
866.8342	1199.3693	6531.4	5653.75
866.9789	1201.2947	6460.45	5578.4
867.1236	1203.2193	6481.75	5603.55
867.2683	1205.1432	6476.05	5596.75
867.413	1207.0664	6503	5623.75
867.5576	1208.9889	6608	5726.6
867.7023	1210.9106	6710.4	5830.75
867.847	1212.8316	6805.5	5925.95
867.9916	1214.7519	6920.25	6030.65
868.1363	1216.6715	6912.95	6034.2
868.2809	1218.5903	6881.65	6003.7
868.4255	1220.5084	6848.95	5967.9
868.5701	1222.4257	6805.5	5926.65
868.7148	1224.3424	6752.55	5875.15
868.8594	1226.2583	6805.2	5922.7
869.004	1228.1735	6915.85	6033.9
869.1486	1230.0879	7047.7	6167.9
869.2932	1232.0016	7196.9	6316.45
869.4377	1233.9146	7208.1	6325.5
869.5823	1235.8269	7151.4	6272.35
869.7269	1237.7384	7000	6120.45
869.8715	1239.6492	6813.05	5934.05
870.016	1241.5592	6712.75	5832.2
870.1606	1243.4686	6610.25	5732.65
870.3051	1245.3772	6530.7	5650.25
870.4496	1247.285	6469.8	5588.35
870.5941	1249.1922	6447.1	5568.95
870.7387	1251.0986	6417.75	5540.7
870.8832	1253.0042	6438.8	5559.15
871.0277	1254.9092	6496.8	5616.85
871.1722	1256.8134	6581.45	5704
871.3167	1258.7169	6746.6	5864.15
871.4611	1260.6196	6893.45	6013.3
871.6056	1262.5216	7071.25	6190.7
871.7501	1264.4229	7227.95	6347.8
871.8945	1266.3234	7329.65	6450.95
872.039	1268.2232	7384.55	6504.15
872.1834	1270.1223	7376	6494.95
872.3278	1272.0207	7319	6438.85
872.4723	1273.9183	7312.6	6425.45
872.6167	1275.8151	7222.8	6342.65
872.7611	1277.7113	7119.85	6237.65
872.9055	1279.6067	6962.85	6082.75
873.0499	1281.5014	6794.45	5911.15
873.1943	1283.3953	6668.15	5786.3
873.3386	1285.2885	6551.45	5672.65
873.483	1287.181	6498.8	5618.25
873.6274	1289.0727	6489.35	5609.6
873.7717	1290.9637	6513.4	5632.7
873.9161	1292.854	6649.95	5770.1
874.0604	1294.7435	6775.7	5897.3
874.2047	1296.6323	6999.4	6119.7
874.349	1298.5204	7251.65	6366.45
874.4933	1300.4077	7539.05	6656.7
874.6376	1302.2943	7707.75	6827.9
874.7819	1304.1802	7809.9	6931
874.9262	1306.0653	7778.2	6896.05
875.0705	1307.9497	7657.1	6776.4
875.2147	1309.8333	7583.4	6705.15
875.359	1311.7162	7574.4	6694.9
875.5032	1313.5984	7670.05	6788.6
875.6475	1315.4798	7838.9	6946.4
875.7917	1317.3605	8032.95	7134.8
875.9359	1319.2405	8209.25	7327.35
876.0801	1321.1197	8236.8	7354.2
876.2243	1322.9982	8233.5	7348.25
876.3685	1324.876	8217.55	7336.7
876.5127	1326.753	8164.6	7285.3
876.6569	1328.6293	8183.45	7300
876.801	1330.5048	8207.95	7326.9
876.9452	1332.3796	8175.4	7295.8
877.0893	1334.2537	8163.05	7254.5
877.2335	1336.127	8115.7	7235.9
877.3776	1337.9996	8076.35	7193.1
877.5217	1339.8714	8026.6	7144.95
877.6658	1341.7426	7985.25	7060.2
877.8099	1343.6129	7898.65	7017.5
877.954	1345.4826	7803.2	6922.1
878.0981	1347.3515	7760.85	6875.8
878.2422	1349.2196	7710.55	6831.05
878.3862	1351.087	7686.6	6803.5
878.5303	1352.9537	7744.25	6863.25
878.6743	1354.8197	7832.2	6952.1
878.8184	1356.6849	7988.6	7109
878.9624	1358.5493	8068.45	7187.85
879.1064	1360.4131	8092.1	7211.4
879.2504	1362.276	7998.45	7120.5
879.3944	1364.1383	7870.4	6990.25
879.5384	1365.9998	7645.1	6757.95
879.6823	1367.8606	7369.2	6487.05
879.8263	1369.7206	7116	6233.35
879.9702	1371.5799	6945.2	6062.5
880.1142	1373.4384	6845.3	5964.55
880.2581	1375.2962	6712	5828.75
880.402	1377.1533	6496.65	5614.8
880.5459	1379.0096	6194.8	5312.2
880.6898	1380.8652	5918.75	5038.3
880.8337	1382.7201	5680.2	4799.7
880.9776	1384.5742	5515.2	4634.5
881.1215	1386.4275	5380.8	4497.05
881.2653	1388.2802	5254.15	4372.8
881.4092	1390.132	5153.1	4273.5
881.553	1391.9832	5090.2	4207.9
881.6968	1393.8336	5038	4154.5
881.8406	1395.6832	5013.05	4131.35
881.9844	1397.5322	4984.85	4102.7
882.1282	1399.3803	4962.75	4075.7
882.272	1401.2278	4941.3	4060.2
882.4158	1403.0745	4955	4073.8
882.5595	1404.9204	4935.85	4054.45
882.7033	1406.7656	4952.9	4072.45
882.847	1408.6101	4968.85	4087.65
882.9908	1410.4538	4991.5	4110.45
883.1345	1412.2968	5033.8	4153.2
883.2782	1414.139	5080.7	4200.8
883.4219	1415.9805	5162.5	4281.35
883.5656	1417.8213	5273.4	4384.2
883.7092	1419.6613	5391.75	4509.7
883.8529	1421.5006	5604.15	4720.25
883.9965	1423.3391	5878.15	4996.35
884.1402	1425.1769	6229.5	5347.25
884.2838	1427.0139	6747.95	5864.2
884.4274	1428.8502	7393.55	6511.3
884.571	1430.6858	8010.5	7130.5
884.7146	1432.5206	8468.85	7587.15
884.8582	1434.3547	8763.6	7882.05
885.0018	1436.188	8818.25	7935.3
885.1453	1438.0206	8769.7	7888.25
885.2889	1439.8524	8641.45	7759.5
885.4324	1441.6835	8562.75	7678.5
885.5759	1443.5139	8471.05	7588.3
885.7194	1445.3435	8407.35	7525.35
885.8629	1447.1724	8357.6	7476.05
886.0064	1449.0005	8259.85	7377.5
886.1499	1450.8279	8154.55	7269.85
886.2933	1452.6545	8129.6	7248.25
886.4368	1454.4804	8121.25	7239.45
886.5802	1456.3056	8146.45	7256.55
886.7237	1458.13	8049.15	7166.15
886.8671	1459.9536	7838.35	6957.05
887.0105	1461.7766	7446.9	6566.45
887.1539	1463.5987	7036	6154
887.2972	1465.4202	6618.8	5737.35
887.4406	1467.2409	6257.35	5374.15
887.584	1469.0608	5991	5109.65
887.7273	1470.88	5729.75	4849.1
887.8706	1472.6984	5467.7	4588.2
888.0139	1474.5161	5281.75	4396.05
888.1572	1476.3331	5123.2	4243.25
888.3005	1478.1493	4986.4	4105.25
888.4438	1479.9648	4878.5	3997.7
888.5871	1481.7795	4793.8	3910.65
888.7303	1483.5935	4714.85	3832.4
888.8736	1485.4067	4653.7	3771.5
889.0168	1487.2192	4589.15	3706.3
889.16	1489.031	4570.1	3686.4
889.3032	1490.842	4506.95	3625.25
889.4464	1492.6522	4497.3	3615.3
889.5896	1494.4618	4465.35	3584.05
889.7327	1496.2705	4430.5	3549.35
889.8759	1498.0785	4419.95	3536.45
890.019	1499.8858	4393.45	3511.45
890.1622	1501.6924	4377.7	3495.65
890.3053	1503.4981	4366.45	3483.25
890.4484	1505.3032	4337.9	3458.5
890.5914	1507.1075	4315.6	3432.8
890.7345	1508.911	4291.95	3408.75
890.8776	1510.7138	4275.2	3395.6
891.0206	1512.5159	4243.95	3362
891.1637	1514.3172	4201.75	3320.9
891.3067	1516.1178	4175.15	3297.35
891.4497	1517.9176	4141.05	3257.45
891.5927	1519.7166	4126.3	3245.6
891.7357	1521.515	4106.2	3218.2
891.8786	1523.3126	4091.45	3209.4
892.0216	1525.1094	4094.75	3211.75
892.1645	1526.9055	4051.1	3170.75
892.3074	1528.7008	4028.8	3149.3
892.4503	1530.4954	4013.15	3122.05
892.5932	1532.2893	4010.9	3131.25
892.7361	1534.0824	3996.4	3107.2
892.879	1535.8747	3992.05	3111.55
893.0218	1537.6663	3980.95	3096.45
893.1647	1539.4572	3980.2	3096.65
893.3075	1541.2473	3971.75	3088.05
893.4503	1543.0367	3973.95	3091.05
893.5931	1544.8253	3965.3	3081.8
893.7359	1546.6132	3962.2	3077.45
893.8787	1548.4003	3970.65	3079.55
894.0214	1550.1867	3990.5	3098.3
894.1642	1551.9723	3988.6	3101.65
894.3069	1553.7572	4017.65	3132.65
894.4496	1555.5414	4035.4	3154.45
894.5923	1557.3247	4070.15	3187.3
894.735	1559.1074	4122.35	3242.3
894.8777	1560.8893	4157.9	3278.6
895.0204	1562.6705	4244.25	3362.95
895.163	1564.4509	4308.25	3426.35
895.3056	1566.2305	4362.2	3480.65
895.4482	1568.0094	4486	3605.7
895.5908	1569.7876	4556.85	3675.2
895.7334	1571.565	4653.7	3769.9
895.876	1573.3417	4698.35	3819.45
896.0186	1575.1176	4700.65	3817.9
896.1611	1576.8928	4679.6	3797.15
896.3036	1578.6672	4618.65	3737.55
896.4461	1580.4409	4494.75	3613.5
896.5886	1582.2138	4376.65	3493.55
896.7311	1583.986	4272.3	3390.4
896.8736	1585.7575	4164.5	3284.2
897.0161	1587.5282	4082.85	3202.05
897.1585	1589.2981	4017.1	3137.15
897.3009	1591.0673	3985.75	3104.3
897.4433	1592.8358	3956.45	3075.45
897.5857	1594.6035	3943.7	3058.6
897.7281	1596.3704	3936.8	3053.6
897.8705	1598.1366	3974.7	3095.05
898.0128	1599.9021	3981.2	3097.7
898.1551	1601.6668	3990.75	3106.85
898.2975	1603.4308	4049.25	3167.5
898.4398	1605.194	4125.55	3238.9
898.5821	1606.9564	4190.9	3307.65
898.7243	1608.7182	4301.5	3414.55
898.8666	1610.4791	4419.7	3538.5
899.0088	1612.2394	4573.6	3691.5
899.1511	1613.9988	4760.85	3879.55
899.2933	1615.7576	4979.6	4095.8
899.4355	1617.5156	5236.35	4347.45
899.5776	1619.2728	5471.95	4593.65
899.7198	1621.0293	5657.95	4776.75
899.862	1622.785	5748.95	4863.55
900.0041	1624.54	5711.1	4827.5
900.1462	1626.2942	5598.75	4715.15
900.2883	1628.0477	5360.55	4476.3
900.4304	1629.8005	5125.85	4239.3
900.5725	1631.5525	4875	3993.2
900.7145	1633.3037	4674.65	3793.1
900.8566	1635.0542	4511	3629.4
900.9986	1636.804	4367.95	3487.6
901.1406	1638.553	4338.05	3377.25
901.2826	1640.3013	4216.25	3334
901.4245	1642.0488	4165.2	3283.05
901.5665	1643.7955	4143.2	3263.25
901.7085	1645.5416	4174.3	3290.3
901.8504	1647.2868	4243.2	3363.2
901.9923	1649.0313	4294.65	3414.75
902.1342	1650.7751	4447.35	3561.85
902.2761	1652.5181	4630.1	3749.9
902.4179	1654.2604	4863.9	3980.9
902.5598	1656.0019	5181.55	4301.3
902.7016	1657.7427	5547.65	4667.2
902.8434	1659.4828	5902.15	5019.15
902.9852	1661.222	6151.3	5269.25
903.127	1662.9606	6221.25	5340.5
903.2687	1664.6984	6077.7	5195.5
903.4105	1666.4354	5750.25	4869.05
903.5522	1668.1717	5305.1	4422.75
903.6939	1669.9072	4870	3990.3
903.8356	1671.642	4499.2	3617.55
903.9773	1673.3761	4211.3	3331.25
904.119	1675.1094	3970.2	3089.05
904.2606	1676.8419	3792.6	2912.4
904.4022	1678.5737	3658.05	2777.5
904.5439	1680.3048	3566.2	2686.6
904.6855	1682.0351	3499.05	2620.55
904.827	1683.7646	3428.45	2545.45
904.9686	1685.4934	3387.6	2508.35
905.1101	1687.2215	3357.05	2475.95
905.2517	1688.9488	3310.3	2430.55
905.3932	1690.6754	3282.8	2401.35
905.5347	1692.4012	3269	2389
905.6761	1694.1263	3243.7	2364.6
905.8176	1695.8506	3232.55	2349.8
905.9591	1697.5742	3213.95	2333.95
906.1005	1699.297	3187.9	2308.35
906.2419	1701.0191	3161.2	2280.75
906.3833	1702.7404	3154.15	2276.6
906.5246	1704.461	3132.85	2250
906.666	1706.1808	3130.85	2247.35
906.8073	1707.8999	3102.45	2219.65
906.9487	1709.6182	3088.45	2206.75
907.09	1711.3358	3069.4	2189.15
907.2313	1713.0527	3070.35	2190.45
907.3725	1714.7688	3054.2	2168.2
907.5138	1716.4841	3053.45	2171.65
907.655	1718.1987	3034.75	2149.2
907.7962	1719.9126	3022.15	2141.15
907.9374	1721.6257	3011.15	2127.9
908.0786	1723.338	2998.75	2117.4
908.2198	1725.0496	2970.15	2090.55
908.3609	1726.7605	2972.6	2089.7
908.502	1728.4706	2953.6	2073.2
908.6431	1730.18	2953.3	2068.6
908.7842	1731.8886	2947.7	2066.4
908.9253	1733.5964	2939.65	2055.1
909.0664	1735.3036	2927.9	2043.8
909.2074	1737.0099	2915.4	2033.65
909.3484	1738.7156	2902.35	2021.1
909.4894	1740.4204	2902.7	2018.5
909.6304	1742.1246	2912.05	2032.5
909.7714	1743.8279	2896.25	2016.85
909.9123	1745.5306	2891.45	2010.3
910.0532	1747.2325	2882.25	2000.6
910.1941	1748.9336	2871.7	1990.55
910.335	1750.634	2854	1971.6
910.4759	1752.3336	2857.05	1976.05
910.6168	1754.0325	2855.7	1976.05
910.7576	1755.7307	2845.7	1965.75
910.8984	1757.4281	2838.2	1958.05
911.0392	1759.1247	2838.3	1950.55
911.18	1760.8206	2829.75	1944.65
911.3208	1762.5158	2832.8	1950.7
911.4615	1764.2102	2812	1931.8
911.6022	1765.9039	2802.1	1921.5
911.7429	1767.5968	2800.25	1919.4
911.8836	1769.289	2789.9	1907.95
912.0243	1770.9804	2788.85	1908.8
912.1649	1772.6711	2793.65	1909.55
912.3056	1774.361	2794.9	1916.35
912.4462	1776.0502	2767.75	1887.75
912.5868	1777.7386	2774	1891.8
912.7274	1779.4263	2764.65	1884.95
912.8679	1781.1132	2764.3	1883
913.0084	1782.7994	2758.15	1876.35
913.149	1784.4849	2748.65	1867.55
913.2895	1786.1696	2758.75	1859.55
913.4299	1787.8535	2745.15	1864.2
913.5704	1789.5367	2731.25	1850.05
913.7108	1791.2192	2724.65	1843.45
913.8513	1792.9009	2734.95	1828.2
913.9917	1794.5818	2714.6	1832.8
914.132	1796.2621	2707.5	1828.5
914.2724	1797.9415	2709.25	1829.1
914.4128	1799.6202	2708.05	1826.4
914.5531	1801.2982	2692.35	1813.1
914.6934	1802.9755	2690.3	1807.35
914.8337	1804.6519	2682.2	1801.55
914.9739	1806.3277	2685.55	1804.3
915.1142	1808.0027	2683.55	1802.25
915.2544	1809.6769	2673.05	1792.45
915.3946	1811.3504	2669.9	1788.45
915.5348	1813.0231	2666.65	1784.15
915.675	1814.6951	2669.2	1790.15
915.8151	1816.3664	2662.9	1781.15
915.9553	1818.0369	2656.95	1777.3
916.0954	1819.7067	2650.25	1769.6
916.2355	1821.3757	2653.3	1770.5
916.3755	1823.044	2653.2	1775.2
916.5156	1824.7115	2635.3	1756.2
916.6556	1826.3783	2621.6	1745.35
916.7956	1828.0443	2624.05	1745.6
916.9356	1829.7096	2615.85	1733.8
917.0756	1831.3741	2626.35	1742.85
917.2155	1833.0379	2612.4	1732.6
917.3555	1834.701	2599.45	1717
917.4954	1836.3633	2597.95	1717.55
917.6353	1838.0248	2599.45	1717.05
917.7751	1839.6856	2599.8	1720.55
917.915	1841.3457	2604.95	1724.7
918.0548	1843.005	2596	1715.9
918.1946	1844.6636	2605.75	1727.95
918.3344	1846.3214	2595	1711.9
918.4742	1847.9785	2590.95	1713.05
918.6139	1849.6349	2588.6	1707.05
918.7537	1851.2904	2575.7	1686.75
918.8934	1852.9453	2564.6	1684.25
919.0331	1854.5994	2566.2	1681.25
919.1727	1856.2528	2576.45	1692
919.3124	1857.9054	2564.55	1682.95
919.452	1859.5572	2552.35	1674.75
919.5916	1861.2083	2560.45	1680.9
919.7312	1862.8587	2551.7	1670.95
919.8708	1864.5084	2542.05	1662.8
920.0103	1866.1572	2531.3	1650.9
920.1498	1867.8054	2522.8	1643.5
920.2893	1869.4528	2528.45	1648.1
920.4288	1871.0994	2519.35	1640.75
920.5683	1872.7453	2509.25	1627.7
920.7077	1874.3905	2531.95	1635.35
920.8471	1876.0349	2519.45	1639.1
920.9865	1877.6786	2512.65	1631.05
921.1259	1879.3215	2506.9	1627.6
921.2653	1880.9637	2500.15	1616.7
921.4046	1882.6051	2489	1608.55
921.5439	1884.2458	2493.95	1611.75
921.6832	1885.8858	2496.35	1615.4
921.8225	1887.525	2482.55	1601.55
921.9617	1889.1634	2468.5	1587.95
922.101	1890.8011	2471.45	1590.7
922.2402	1892.4381	2463.8	1582.65
922.3794	1894.0743	2467.2	1587.8
922.5185	1895.7098	2455.25	1576.85
922.6577	1897.3446	2464.05	1582.4
922.7968	1898.9786	2456	1572.15
922.9359	1900.6118	2442.3	1563.45
923.075	1902.2443	2438	1554.25
923.214	1903.8761	2431.45	1550.75
923.3531	1905.5071	2418.05	1535.8
923.4921	1907.1374	2423.35	1542.4
923.6311	1908.7669	2426.25	1545.95
923.77	1910.3957	2418.8	1538.1
923.909	1912.0237	2406.8	1526.85
924.0479	1913.651	2404.6	1523.2
924.1868	1915.2776	2396	1516.85
924.3257	1916.9034	2396.15	1515.4
924.4646	1918.5285	2376.75	1495.85
924.6034	1920.1528	2388.2	1506.85
924.7422	1921.7764	2382.6	1503.85
924.881	1923.3992	2380.15	1499.25
925.0198	1925.0213	2357.7	1475.85
925.1586	1926.6427	2363.05	1484.95
925.2973	1928.2633	2450.85	1462.85
925.436	1929.8832	2363.15	1480.95
925.5747	1931.5023	2350.45	1471.05
925.7134	1933.1207	2349.75	1468.55
925.852	1934.7383	2340.75	1458.85
925.9906	1936.3552	2344.7	1464.4
926.1292	1937.9714	2329.35	1448.35
926.2678	1939.5868	2322.1	1440.95
926.4064	1941.2015	2330.2	1448.75
926.5449	1942.8154	2312.25	1431.2
926.6834	1944.4286	2303.05	1422.4
926.8219	1946.041	2322.15	1418.4
926.9604	1947.6528	2295.1	1409
927.0988	1949.2637	2297.45	1416.7
927.2372	1950.8739	2286.9	1407.35
927.3756	1952.4834	2281	1398.8
927.514	1954.0921	2271.95	1390.4
927.6523	1955.7001	2275.1	1391.75
927.7907	1957.3074	2266.55	1385.85
927.929	1958.9139	2263.65	1382.75
928.0673	1960.5197	2253.2	1373
928.2055	1962.1247	2243.6	1361.95
928.3438	1963.729	2243.95	1364.35
928.482	1965.3325	2257.1	1351.3
928.6202	1966.9353	2228.2	1350.7
928.7584	1968.5374	2237.25	1357.7
928.8965	1970.1387	2227.75	1346.2
929.0346	1971.7393	2219.65	1339.1
929.1727	1973.3392	2216.1	1333.7
929.3108	1974.9383	2205.6	1326.7
929.4489	1976.5366	2191.3	1311.15
929.5869	1978.1342	2210.3	1328.55
929.7249	1979.7311	2203.3	1321.1
929.8629	1981.3273	2190.55	1308.45
930.0009	1982.9227	2192.45	1308.75
930.1388	1984.5173	2199.95	1320.9
930.2767	1986.1112	2182.4	1301.45
930.4146	1987.7044	2167.4	1289
930.5525	1989.2968	2170.4	1289.2
930.6904	1990.8885	2178.65	1294.05
930.8282	1992.4795	2175.5	1293
930.966	1994.0697	2170.9	1292.5
931.1038	1995.6592	2150.85	1269.3
931.2415	1997.2479	2160.4	1281.1
931.3793	1998.8359	2156.45	1274.6
931.517	2000.4232	2143.9	1263.7
931.6547	2002.0097	2139.1	1258.45
931.7923	2003.5955	2134.25	1252.85
931.93	2005.1805	2131.45	1249.55
932.0676	2006.7648	2137.8	1256.7
932.2052	2008.3484	2133.8	1251.1
932.3427	2009.9312	2132.65	1250.1
932.4803	2011.5133	2134.25	1256.05
932.6178	2013.0946	2128.35	1246.9
932.7553	2014.6752	2116.25	1236.45
932.8928	2016.2551	2119.5	1239.05
933.0302	2017.8342	2113.05	1232.8
933.1676	2019.4126	2110.5	1231.4
933.305	2020.9902	2107.35	1224.8
933.4424	2022.5672	2101.95	1219.1
933.5798	2024.1433	2110.1	1223.35
933.7171	2025.7188	2093.3	1211.5
933.8544	2027.2935	2092.25	1209.6
933.9917	2028.8674	2092.5	1211.65
934.129	2030.4406	2083.9	1203.4
934.2662	2032.0131	2075.85	1194.95
934.4034	2033.5849	2081	1196.85
934.5406	2035.1559	2078.55	1198.05
934.6778	2036.7261	2076.55	1195.55
934.8149	2038.2957	2069.15	1189.35
934.952	2039.8645	2058.65	1176.95
935.0891	2041.4325	2066.05	1183.5
935.2262	2042.9998	2063.85	1184.4
935.3632	2044.5664	2061.95	1177.5
935.5002	2046.1323	2052.5	1172.95
935.6372	2047.6974	2047.05	1167.8
935.7742	2049.2617	2035.15	1152.8
935.9111	2050.8254	2057.05	1155.4
936.048	2052.3883	2045.35	1163.55
936.1849	2053.9504	2037.25	1156.45
936.3218	2055.5118	2036.25	1156
936.4586	2057.0725	2036.65	1153
936.5955	2058.6325	2022.5	1142.8
936.7323	2060.1917	2019.45	1139.65
936.869	2061.7502	2026.4	1140.25
937.0058	2063.3079	2019.3	1135.9
937.1425	2064.8649	2013	1127.7
937.2792	2066.4212	2010.75	1128.55
937.4159	2067.9767	2003.3	1122.9
937.5525	2069.5315	2001.4	1119.2
937.6891	2071.0856	2002.35	1121.8
937.8257	2072.6389	1988.5	1105.8
937.9623	2074.1915	1978.2	1103
938.0989	2075.7433	1984.4	1102.7
938.2354	2077.2945	1978.3	1100.05
938.3719	2078.8448	1982.2	1100.05
938.5084	2080.3945	1974.95	1096.9
938.6448	2081.9434	1969.7	1088.85
938.7812	2083.4916	1972.65	1091.8
938.9176	2085.039	1960.5	1076.95
939.054	2086.5857	1970.15	1087.95
939.1903	2088.1317	1955.25	1074.05
939.3267	2089.677	1955.45	1073.55
939.463	2091.2215	1952.5	1073.85
939.5992	2092.7652	1947.15	1065.9
939.7355	2094.3083	1952.35	1071.7
939.8717	2095.8506	1947.55	1068.7
940.0079	2097.3921	1948.15	1069.25
940.1441	2098.933	1932.15	1053.55
940.2802	2100.4731	1934.65	1055.15
940.4163	2102.0124	1943.5	1054.65
940.5524	2103.5511	1931.4	1051.75
940.6885	2105.089	1936.6	1054.9
940.8245	2106.6261	1925.15	1043.5
940.9606	2108.1626	1920.75	1037.45
941.0965	2109.6983	1952.4	1044.95
941.2325	2111.2332	1922.35	1041.1
941.3684	2112.7675	1915.75	1031.8
941.5044	2114.301	1913.5	1031.8
941.6403	2115.8337	1913.75	1032.5
941.7761	2117.3657	1907.9	1030.3
941.912	2118.897	1906.55	1024.95
942.0478	2120.4276	1899.6	1011.45
942.1835	2121.9575	1894.35	1013.75
942.3193	2123.4866	1919	1024.7
942.455	2125.0149	1905.7	1023.2
942.5907	2126.5426	1887.1	1003.55
942.7264	2128.0695	1890.85	1003.85
942.8621	2129.5956	1889.35	1009.25
942.9977	2131.1211	1885.75	1000.8
943.1333	2132.6458	1884.65	1003.3
943.2689	2134.1698	1878.4	998.15
943.4044	2135.693	1878.35	994.7
943.54	2137.2155	1889.1	1006.9
943.6755	2138.7373	1876.4	995.55
943.8109	2140.2584	1867.2	984.95
943.9464	2141.7787	1870.1	984.2
944.0818	2143.2983	1869.1	988.1
944.2172	2144.8171	1858.95	978.95
944.3526	2146.3353	1859.25	974.8
944.4879	2147.8527	1840.65	959.2
944.6232	2149.3693	1857.4	977.25
944.7585	2150.8853	1857.3	977.5
944.8938	2152.4005	1842.55	959.5
945.029	2153.9149	1850.6	968.5
945.1642	2155.4287	1847.4	966.9
945.2994	2156.9417	1850.5	969.25
945.4346	2158.454	1841.65	959.5
945.5697	2159.9655	1843.9	963.05
945.7048	2161.4764	1829.9	948.75
945.8399	2162.9865	1832.3	948.9
945.9749	2164.4958	1833.95	950.8
946.1099	2166.0045	1835.6	950.05
946.2449	2167.5124	1828.5	946.25
946.3799	2169.0195	1815.2	934.7
946.5148	2170.526	1829.85	946.3
946.6498	2172.0317	1817.7	936.15
946.7846	2173.5367	1825.3	943.45
946.9195	2175.0409	1817.65	936.95
947.0543	2176.5445	1808.05	928.3
947.1891	2178.0473	1815.35	933.45
947.3239	2179.5494	1807.8	925.35
947.4587	2181.0507	1800.45	918.45
947.5934	2182.5513	1804.55	923.5
947.7281	2184.0512	1796.95	916.05
947.8628	2185.5504	1799.3	918.45
947.9974	2187.0488	1795.15	911.75
948.132	2188.5465	1791.95	909.6
948.2666	2190.0435	1785.4	905.45
948.4012	2191.5397	1786	906.15
948.5357	2193.0353	1782	900.65
948.6702	2194.5301	1778.05	897.35
948.8047	2196.0241	1775.35	893.35
948.9392	2197.5175	1777.5	895.15
949.0736	2199.0101	1776.45	892.55
949.208	2200.502	1764.3	883.15
949.3424	2201.9931	1765.45	884.7
949.4767	2203.4835	1765.85	882.3
949.611	2204.9733	1760.65	871.75
949.7453	2206.4622	1760.4	878.9
949.8796	2207.9505	1751.85	867
950.0138	2209.438	1752.9	872.95
950.148	2210.9248	1749.6	866.4
950.2822	2212.4109	1747.15	866.5
950.4164	2213.8962	1746.8	864.3
950.5505	2215.3809	1735.05	851
950.6846	2216.8648	1733.25	851.45
950.8186	2218.3479	1742	855.85
950.9527	2219.8304	1740.7	857.25
951.0867	2221.3121	1731.9	850.05
951.2207	2222.7931	1722.4	841.2
951.3546	2224.2733	1728.15	847.7
951.4886	2225.7529	1714.1	831.6
951.6225	2227.2317	1722.35	837
951.7563	2228.7098	1725.8	845.4
951.8902	2230.1872	1715.7	834.75
952.024	2231.6638	1711.85	830.15
952.1578	2233.1397	1707.6	822.95
952.2916	2234.6149	1705.6	826.85
952.4253	2236.0894	1704.8	823.05
952.559	2237.5632	1704.2	820.15
952.6927	2239.0362	1693.8	811
952.8263	2240.5085	1697	815.85
952.9599	2241.9801	1692.3	808.55
953.0935	2243.4509	1684.95	803.1
953.2271	2244.921	1684.3	802.95
953.3606	2246.3904	1677.4	794
953.4941	2247.8591	1672.2	791.9
953.6276	2249.3271	1679.9	798.3
953.7611	2250.7943	1676.35	796.8
953.8945	2252.2608	1666.45	785.65
954.0279	2253.7266	1671.3	791.65
954.1612	2255.1917	1666.9	787.35
954.2946	2256.656	1668.95	788.6
954.4279	2258.1197	1665.8	784.9
954.5612	2259.5826	1657.75	774.85
954.6944	2261.0447	1657.55	775.75
954.8276	2262.5062	1657.05	775
954.9608	2263.9669	1655.05	770.05
955.094	2265.4269	1657	776.95
955.2271	2266.8862	1648.55	766
955.3602	2268.3448	1654.15	773.45
955.4933	2269.8026	1654	771.65
955.6264	2271.2598	1642.35	758.95
955.7594	2272.7162	1645.9	765.35
955.8924	2274.1719	1642.55	760.45
956.0253	2275.6268	1636.8	757.75
956.1583	2277.0811	1633.7	754.2
956.2912	2278.5346	1637	755.7
956.4241	2279.9874	1634.65	753.6
956.5569	2281.4395	1634.95	755.9
956.6897	2282.8908	1639.5	752.35
956.8225	2284.3414	1633.85	751.3
956.9553	2285.7914	1625.85	744.75
957.088	2287.2406	1624.75	741.8
957.2207	2288.689	1625.85	746.45
957.3534	2290.1368	1629.1	745.65
957.486	2291.5838	1629.15	747.25
957.6186	2293.0302	1627.05	743.35
957.7512	2294.4758	1616.15	736.9
957.8838	2295.9206	1614.3	732.7
958.0163	2297.3648	1612.7	731.85
958.1488	2298.8082	1612.6	729.85
958.2813	2300.251	1608	726.95
958.4137	2301.693	1604.2	720.8
958.5461	2303.1343	1611.5	729.65
958.6785	2304.5748	1607.2	723.6
958.8108	2306.0147	1604.95	722.25
958.9432	2307.4538	1600.2	715.55
959.0754	2308.8922	1588.95	709.25
959.2077	2310.3299	1593.2	711.3
959.3399	2311.7669	1580.35	701.1
959.4721	2313.2031	1597.2	715.4
959.6043	2314.6387	1588	705.05
959.7365	2316.0735	1578.05	696.85
959.8686	2317.5076	1581.2	699.3
960.0006	2318.941	1583.55	701.9
960.1327	2320.3737	1585.15	702.15
960.2647	2321.8056	1579.65	698.05
960.3967	2323.2369	1574.5	692.35
960.5287	2324.6674	1578.05	696.15
960.6606	2326.0972	1573.05	689.65
960.7925	2327.5263	1564.05	684.85
960.9244	2328.9547	1570.9	687.3
961.0562	2330.3823	1567.9	685.3
961.1881	2331.8092	1564.25	681.45
961.3198	2333.2355	1559.7	677.85
961.4516	2334.661	1560.8	678.15
961.5833	2336.0858	1559.8	677.45
961.715	2337.5098	1558.95	676.8
961.8467	2338.9332	1552.8	671.95
961.9783	2340.3558	1558.95	672.85
962.1099	2341.7778	1557.15	675.9
962.2415	2343.199	1555.9	671.95
962.373	2344.6195	1559.35	679.35
962.5045	2346.0393	1549.15	668
962.636	2347.4583	1557.7	675.8
962.7675	2348.8767	1552.2	669.7
962.8989	2350.2943	1546.45	664.2
963.0303	2351.7113	1551.15	669.15
963.1617	2353.1275	1545.95	665.55
963.293	2354.543	1566.4	660
963.4243	2355.9578	1548.6	665.9
963.5556	2357.3718	1541.2	660.8
963.6868	2358.7852	1543.6	658.9
963.818	2360.1978	1541.9	660.15
963.9492	2361.6098	1533.95	653.7
964.0803	2363.021	1539.55	655.3
964.2114	2364.4315	1529.5	648.35
964.3425	2365.8413	1529.1	647
964.4736	2367.2504	1531.15	651.8
964.6046	2368.6587	1525.9	642.8
964.7356	2370.0664	1525.35	646.75
964.8666	2371.4733	1521.75	640.3
964.9975	2372.8795	1512.65	631.9
965.1284	2374.285	1515.95	636.25
965.2593	2375.6899	1512.5	632.55
965.3901	2377.0939	1511.55	632.8
965.5209	2378.4973	1505.65	626.95
965.6517	2379.9	1508	626
965.7825	2381.3019	1504.8	624.4
965.9132	2382.7032	1504.25	623.1
966.0439	2384.1037	1498.85	617.95
966.1745	2385.5035	1491.9	610.2
966.3051	2386.9027	1497.7	615.95
966.4357	2388.3011	1504.75	620.05
966.5663	2389.6987	1489.55	608.4
966.6968	2391.0957	1486.5	606.2
966.8273	2392.492	1483.1	603.75
966.9578	2393.8876	1484.4	603.1
967.0882	2395.2824	1476.1	595.95
967.2186	2396.6765	1476.95	597.55
967.349	2398.07	1473.5	593.9
967.4793	2399.4627	1478.45	599.45
967.6097	2400.8547	1483.7	603.85
967.7399	2402.246	1475.85	592.7
967.8702	2403.6366	1468.2	589.6
968.0004	2405.0265	1464.4	583.55
968.1306	2406.4156	1470.6	588.2
968.2607	2407.8041	1466.95	585.3
968.3909	2409.1918	1472.15	589.55
968.521	2410.5789	1467.45	585.4
968.651	2411.9652	1470.4	586.95
968.781	2413.3508	1465.15	586.85
968.911	2414.7358	1465.5	583.85
969.041	2416.12	1457.1	576.95
969.1709	2417.5035	1458.45	580.35
969.3008	2418.8863	1455.05	574.6
969.4307	2420.2684	1457.05	576.7
969.5606	2421.6497	1458.65	577.55
969.6904	2423.0304	1449.6	570.75
969.8201	2424.4104	1451.35	571.9
969.9499	2425.7896	1457.9	571.4
970.0796	2427.1682	1451.2	570.1
970.2093	2428.546	1446.45	565
970.3389	2429.9232	1444.95	564.85
970.4685	2431.2996	1443.1	563.55
970.5981	2432.6753	1437.4	556.5
970.7277	2434.0503	1438.55	558.95
970.8572	2435.4246	1434.35	553.2
970.9867	2436.7982	1435.6	553.15
971.1161	2438.1711	1433.65	555.25
971.2456	2439.5433	1439.05	556.55
971.375	2440.9148	1435	549.1
971.5043	2442.2856	1423.9	543.05
971.6336	2443.6557	1429.8	547.1
971.7629	2445.025	1420.7	540.2
971.8922	2446.3937	1427.25	546.3
972.0214	2447.7617	1424.8	542.15
972.1506	2449.1289	1424	544.05
972.2798	2450.4955	1425	540.45
972.4089	2451.8613	1422.8	544.75
972.538	2453.2265	1416.2	535.4
972.6671	2454.5909	1418.05	537.55
972.7961	2455.9546	1412.8	530.65
972.9251	2457.3177	1417.05	537.85
973.0541	2458.68	1413.65	532.9
973.1831	2460.0416	1418.75	537.3
973.312	2461.4025	1411.4	530.05
973.4408	2462.7627	1420.6	527.2
973.5697	2464.1222	1409.6	528.95
973.6985	2465.4811	1414.55	531.65
973.8273	2466.8392	1415.35	534.6
973.956	2468.1966	1420.35	537.4
974.0847	2469.5533	1414.9	532.2
974.2134	2470.9093	1415.9	535.3
974.3421	2472.2645	1408.15	525.7
974.4707	2473.6191	1404.95	525.45
974.5993	2474.973	1406.75	525.65
974.7278	2476.3262	1410.6	529.15
974.8563	2477.6787	1407.35	526.25
974.9848	2479.0305	1409	528.3
975.1132	2480.3816	1403.35	518.15
975.2417	2481.7319	1400.4	519.3
975.37	2483.0816	1393.25	510.9
975.4984	2484.4306	1396.7	513.5
975.6267	2485.7789	1394.35	514
975.755	2487.1264	1393.65	510.6
975.8833	2488.4733	1389.4	509.1
976.0115	2489.8195	1409.05	509.7
976.1397	2491.165	1396.95	511.1
976.2678	2492.5097	1391.15	509.35
976.3959	2493.8538	1383.2	500.9
976.524	2495.1972	1393.6	512.8
976.6521	2496.5398	1378.65	499
976.7801	2497.8818	1380.75	496.55
976.9081	2499.2231	1377.9	498.6
977.036	2500.5637	1376.2	493.15
977.164	2501.9035	1376.4	495.35
977.2918	2503.2427	1377.05	493.9
977.4197	2504.5812	1377.15	496.15
977.5475	2505.919	1379.7	496.2
977.6753	2507.256	1370.2	489.65
977.8031	2508.5924	1369.25	490.45
977.9308	2509.9281	1379.9	492.9
978.0585	2511.2631	1368.75	488.8
978.1861	2512.5974	1370.25	492.45
978.3137	2513.9309	1367.2	486.3
978.4413	2515.2638	1393	479.2
978.5689	2516.596	1368.85	491.2
978.6964	2517.9275	1356.35	473.9
978.8239	2519.2583	1369.5	488.45
978.9513	2520.5884	1360.65	477.6
979.0788	2521.9178	1365.9	482.7
979.2062	2523.2465	1358.7	478.15
979.3335	2524.5745	1354.4	472.15
979.4608	2525.9018	1361.05	481.6
979.5881	2527.2284	1354.25	474.85
979.7154	2528.5543	1350.7	469.9
979.8426	2529.8796	1351.6	472.2
979.9698	2531.2041	1352.3	471.2
980.0969	2532.5279	1354.55	476.2
980.224	2533.851	1347.3	467.45
980.3511	2535.1735	1347.8	466.75
980.4781	2536.4952	1350.4	470.25
980.6052	2537.8163	1344.85	462.95
980.7321	2539.1366	1350.85	471.2
980.8591	2540.4562	1348.6	464.95
980.986	2541.7752	1335.1	455.9
981.1129	2543.0935	1341.65	461.35
981.2397	2544.411	1345.85	462.55
981.3665	2545.7279	1341.35	459.3
981.4933	2547.0441	1342.1	463.05
981.62	2548.3596	1345.5	460.15
981.7467	2549.6744	1337.2	458.55
981.8734	2550.9885	1346.05	463.05
982.0001	2552.3019	1333.85	453.15
982.1267	2553.6146	1335.25	454.6
982.2532	2554.9266	1333.5	451.65
982.3798	2556.2379	1331.45	449.7
982.5063	2557.5485	1334.3	453.05
982.6327	2558.8585	1336.65	445.95
982.7592	2560.1677	1336.65	448.7
982.8856	2561.4762	1323.05	441.3
983.0119	2562.7841	1329.05	445.45
983.1383	2564.0913	1325.15	445.15
983.2646	2565.3977	1319.15	437.4
983.3908	2566.7035	1321.85	441.7
983.517	2568.0086	1325.4	440.8
983.6432	2569.313	1326.35	444.25
983.7694	2570.6167	1321.2	437.8
983.8955	2571.9197	1315.15	433.95
984.0216	2573.222	1323.65	438.8
984.1476	2574.5236	1320.95	438.4
984.2737	2575.8246	1325.4	442.45
984.3996	2577.1248	1315.1	432.35
984.5256	2578.4244	1326.8	446.55
984.6515	2579.7232	1328.65	450
984.7774	2581.0214	1354.2	440.5
984.9032	2582.3189	1326.6	448.05
985.029	2583.6157	1329.4	441.95
985.1548	2584.9118	1327.65	446.8
985.2806	2586.2072	1327.95	447.65
985.4063	2587.5019	1323.25	441.65
985.5319	2588.7959	1329.35	447.85
985.6576	2590.0893	1336.1	454.95
985.7832	2591.3819	1334.3	451.8
985.9087	2592.6739	1335.7	455.8
986.0343	2593.9652	1334.7	452.1
986.1597	2595.2557	1336.9	455.9
986.2852	2596.5456	1334.7	452.35
986.4106	2597.8348	1341.65	460.4
986.536	2599.1234	1339	460.2
986.6614	2600.4112	1340.1	457.75
986.7867	2601.6983	1341.25	455.65
986.912	2602.9848	1342.55	461.8
987.0372	2604.2705	1348.7	461.65
987.1624	2605.5556	1339.55	458.1
987.2876	2606.84	1340.9	459.95
987.4128	2608.1237	1348.15	465.65
987.5379	2609.4067	1337.25	457.15
987.6629	2610.689	1346.8	454.75
987.788	2611.9707	1340.1	457.1
987.913	2613.2516	1338.9	454.9
988.0379	2614.5319	1333.25	453.65
988.1629	2615.8115	1329.95	449.15
988.2878	2617.0903	1336.15	451.5
988.4126	2618.3685	1328.5	445.4
988.5375	2619.6461	1335.95	454.05
988.6622	2620.9229	1331.75	450.3
988.787	2622.199	1329.3	447.45
988.9117	2623.4745	1337.45	457.15
989.0364	2624.7493	1331.5	450.35
989.161	2626.0234	1328.05	448.6
989.2857	2627.2968	1332.1	449.85
989.4102	2628.5695	1335.4	454.2
989.5348	2629.8415	1334.35	454.25
989.6593	2631.1128	1334.75	451.45
989.7837	2632.3835	1324.65	442.5
989.9082	2633.6535	1329.4	446.45
990.0326	2634.9228	1325.75	445
990.1569	2636.1914	1331.8	451.55
990.2812	2637.4593	1336.65	452.6
990.4055	2638.7265	1329.05	446.3
990.5298	2639.9931	1323.6	440.05
990.654	2641.259	1325.6	445.55
990.7782	2642.5242	1323.85	441
990.9023	2643.7887	1318.6	435.95
991.0264	2645.0525	1320	439.1
991.1505	2646.3156	1321.8	438.5
991.2745	2647.5781	1327.45	446.65
991.3985	2648.8398	1317.35	437.9
991.5225	2650.1009	1326.85	437.4
991.6464	2651.3613	1312.8	432.7
991.7703	2652.6211	1319.55	437.85
991.8942	2653.8801	1313.15	432.05
992.018	2655.1385	1308.65	423.15
992.1418	2656.3961	1315.55	432.9
992.2655	2657.6531	1317.75	437.35
992.3892	2658.9094	1322.8	441.1
992.5129	2660.1651	1314.7	434.05
992.6366	2661.42	1327.35	447.25
992.7602	2662.6743	1323.95	442.3
992.8837	2663.9279	1320.95	440.25
993.0073	2665.1808	1319.5	438.3
993.1307	2666.433	1323.4	441.3
993.2542	2667.6846	1327.55	446.65
993.3776	2668.9354	1333.8	450.8
993.501	2670.1856	1332.1	449.65
993.6244	2671.4351	1330.8	448.6
993.7477	2672.6839	1338.7	455
993.8709	2673.9321	1338.9	459.15
993.9942	2675.1795	1345.5	464.05
994.1174	2676.4263	1336.3	455.6
994.2405	2677.6724	1342.25	462.05
994.3637	2678.9179	1351.1	470.55
994.4868	2680.1626	1347.9	468.7
994.6098	2681.4067	1346.3	462.9
994.7328	2682.6501	1346.35	465.2
994.8558	2683.8928	1354.6	474.15
994.9788	2685.1348	1339.1	457.6
995.1017	2686.3761	1341.45	458.15
995.2245	2687.6168	1345.4	464.9
995.3474	2688.8568	1344.15	462
995.4702	2690.0961	1335.05	454.95
995.5929	2691.3348	1332.5	450.6
995.7156	2692.5727	1334	451.55
995.8383	2693.81	1326.65	445.3
995.961	2695.0466	1327.9	449.15
996.0836	2696.2826	1325.1	441.15
996.2062	2697.5178	1329.25	443.9
996.3287	2698.7524	1323.1	440.85
996.4512	2699.9863	1329.7	444.65
996.5737	2701.2195	1328.05	449
996.6961	2702.452	1339.75	455.85
996.8185	2703.6839	1340.75	458.4
996.9408	2704.9151	1343.55	464.05
997.0631	2706.1456	1353.6	471.3
997.1854	2707.3755	1354	472.65
997.3077	2708.6046	1366.3	480.7
997.4299	2709.8331	1369.1	488.95
997.552	2711.0609	1374.9	492.7
997.6742	2712.2881	1389	507.55
997.7963	2713.5145	1400.45	515.85
997.9183	2714.7403	1407.55	528.15
998.0403	2715.9654	1413.1	529.95
998.1623	2717.1899	1442.3	546.55
998.2842	2718.4136	1440.9	557.35
998.4062	2719.6367	1450.15	568.95
998.528	2720.8591	1462.65	573.85
998.6498	2722.0809	1476.25	593.4
998.7716	2723.3019	1486.45	601.6
998.8934	2724.5223	1498.55	615.1
999.0151	2725.7421	1497.3	615.45
999.1368	2726.9611	1512.15	629.35
999.2584	2728.1795	1510.35	622.95
999.38	2729.3972	1493.95	614.05
999.5016	2730.6142	1500.55	606.35
999.6231	2731.8306	1474.1	593.05
999.7446	2733.0462	1465.8	582.65
999.8661	2734.2612	1449.05	561.05
999.9875	2735.4756	1430.35	547.25
1000.1089	2736.6892	1410.75	527.45
1000.2302	2737.9022	1401.5	521.45
1000.3515	2739.1145	1383.45	502.5
1000.4728	2740.3262	1381.9	493.1
1000.594	2741.5372	1361.7	481.7
1000.7152	2742.7475	1345.2	463.25
1000.8363	2743.9571	1347.8	465.25
1000.9575	2745.1661	1334.15	446.4
1001.0785	2746.3744	1321	440
1001.1996	2747.582	1313.65	430.5
1001.3206	2748.7889	1302.3	417.35
1001.4415	2749.9952	1300.85	420.95
1001.5625	2751.2008	1294.35	411.05
1001.6833	2752.4057	1293.4	407.45
1001.8042	2753.61	1289.8	407.6
1001.925	2754.8136	1289.55	406.3
1002.0458	2756.0165	1286.05	406.2
1002.1665	2757.2188	1283.55	400.2
1002.2872	2758.4204	1281.3	399.75
1002.4078	2759.6213	1293.25	408.15
1002.5285	2760.8215	1293.2	404.55
1002.649	2762.0211	1286.05	401.05
1002.7696	2763.22	1283.45	397.45
1002.8901	2764.4182	1275.45	392.4
1003.0106	2765.6158	1276.2	394.1
1003.131	2766.8127	1272.55	389.65
1003.2514	2768.009	1272.25	391.4
1003.3717	2769.2045	1272.75	390.1
1003.492	2770.3994	1275.05	391.15
1003.6123	2771.5936	1275.85	393.45
1003.7325	2772.7872	1267.2	386.95
1003.8527	2773.9801	1264.6	382.2
1003.9729	2775.1723	1284.95	386.25
1004.093	2776.3639	1267.75	385.5
1004.2131	2777.5548	1269.95	386.15
1004.3331	2778.745	1281.55	398
1004.4531	2779.9346	1270.05	389.2
1004.5731	2781.1235	1275.65	392.35
1004.693	2782.3117	1273.35	392.6
1004.8129	2783.4992	1285.35	404.45
1004.9328	2784.6861	1291.25	409.6
1005.0526	2785.8723	1301.8	417.8
1005.1723	2787.0579	1311.6	429.5
1005.2921	2788.2428	1313.2	428.7
1005.4118	2789.427	1328.4	448.2
1005.5314	2790.6106	1338.9	458.25
1005.651	2791.7935	1347.55	465.3
1005.7706	2792.9757	1362.35	483.05
1005.8902	2794.1573	1380.95	497.65
1006.0097	2795.3382	1385.05	502.55
1006.1291	2796.5184	1402.9	523
1006.2485	2797.698	1422.1	537.65
1006.3679	2798.8769	1441.95	561
1006.4873	2800.0551	1459.6	575.7
1006.6066	2801.2327	1476.8	593.15
1006.7258	2802.4096	1496.95	616.05
1006.8451	2803.5859	1523.9	642.5
1006.9642	2804.7615	1548.5	667.7
1007.0834	2805.9364	1560.65	680.05
1007.2025	2807.1106	1603.3	723.7
1007.3216	2808.2842	1624.8	743.25
1007.4406	2809.4572	1660.85	778.05
1007.5596	2810.6294	1704.45	820.8
1007.6785	2811.801	1739.9	859.8
1007.7975	2812.972	1787.55	904.95
1007.9163	2814.1423	1832.75	952.6
1008.0352	2815.3119	1878.2	995.6
1008.154	2816.4808	1935.65	1056.5
1008.2727	2817.6491	1973.25	1090.2
1008.3914	2818.8167	2025.75	1145
1008.5101	2819.9837	2084.7	1198.1
1008.6288	2821.15	2123.65	1241.8
1008.7474	2822.3157	2179.7	1297.95
1008.8659	2823.4807	2218	1334.85
1008.9844	2824.645	2269.55	1388.05
1009.1029	2825.8086	2306.55	1424.7
1009.2214	2826.9716	2346.55	1464.1
1009.3398	2828.134	2393.4	1512.25
1009.4581	2829.2957	2428.5	1546.55
1009.5764	2830.4567	2449.2	1569.25
1009.6947	2831.617	2478.55	1596.9
1009.813	2832.7767	2482.8	1602.9
1009.9312	2833.9358	2491.2	1608.9
1010.0493	2835.0941	2491.1	1607.3
1010.1675	2836.2519	2485.9	1606.05
1010.2855	2837.4089	2471.75	1589.1
1010.4036	2838.5653	2456.25	1576.55
1010.5216	2839.7211	2462.45	1581.7
1010.6396	2840.8761	2463.75	1580.55
1010.7575	2842.0306	2488.45	1607.95
1010.8754	2843.1843	2518.95	1638.6
1010.9932	2844.3374	2573.4	1692.15
1011.111	2845.4899	2635.8	1754.05
1011.2288	2846.6417	2697.95	1816.35
1011.3465	2847.7928	2774.25	1894.2
1011.4642	2848.9433	2852.6	1971.55
1011.5818	2850.0931	2944.15	2062.9
1011.6995	2851.2422	3021.35	2136.75
1011.817	2852.3907	3093.1	2212.1
1011.9345	2853.5385	3180.05	2297.25
1012.052	2854.6857	3253.65	2345.85
1012.1695	2855.8323	3295.35	2415.7
1012.2869	2856.9781	3347.75	2465.85
1012.4042	2858.1233	3395	2515.1
1012.5216	2859.2679	3449.05	2568.75
1012.6389	2860.4118	3501.55	2619.75
1012.7561	2861.555	3544	2656.5
1012.8733	2862.6976	3580.2	2694.9
1012.9905	2863.8395	3601.65	2722.35
1013.1076	2864.9808	3636	2754
1013.2247	2866.1214	3656.4	2776.2
1013.3417	2867.2614	3666.65	2783.6
1013.4587	2868.4007	3679.35	2798.35
1013.5757	2869.5393	3689.25	2807.55
1013.6926	2870.6773	3705.25	2821.45
1013.8095	2871.8146	3720.4	2835.25
1013.9263	2872.9513	3728.8	2846.75
1014.0431	2874.0874	3722.8	2841.3
1014.1599	2875.2227	3721.1	2840.2
1014.2766	2876.3574	3704.65	2823
1014.3933	2877.4915	3686.2	2805.1
1014.51	2878.6249	3655.8	2773.45
1014.6266	2879.7577	3615.1	2734.05
1014.7431	2880.8898	3602.75	2709.55
1014.8596	2882.0212	3600.9	2720.55
1014.9761	2883.152	3578.05	2695.1
1015.0925	2884.2821	3573.7	2693.05
1015.2089	2885.4116	3558.3	2677.95
1015.3253	2886.5405	3558.7	2677.7
1015.4416	2887.6686	3585.1	2699.8
1015.5579	2888.7962	3573.35	2694.05
1015.6741	2889.923	3578.4	2698.45
1015.7903	2891.0493	3607.15	2723.75
1015.9065	2892.1748	3602.3	2722.15
1016.0226	2893.2997	3615.4	2734.05
1016.1387	2894.424	3622.3	2741.2
1016.2547	2895.5476	3652	2770.2
1016.3707	2896.6706	3681.6	2801.85
1016.4866	2897.7929	3725	2843.45
1016.6025	2898.9145	3739.75	2858.65
1016.7184	2900.0355	3757.3	2875.75
1016.8342	2901.1559	3803.85	2922.7
1016.95	2902.2756	3860.95	2977.6
1017.0658	2903.3946	3872.15	2991.35
1017.1815	2904.513	3901.1	3013.9
1017.2971	2905.6308	3926.4	3046
1017.4127	2906.7479	3949.1	3067.95
1017.5283	2907.8643	3980.4	3096.5
1017.6439	2908.9801	3998.4	3117.35
1017.7594	2910.0953	4008.55	3126.4
1017.8748	2911.2098	4016.5	3130.3
1017.9902	2912.3236	4007.65	3120.85
1018.1056	2913.4368	4010.25	3125.05
1018.2209	2914.5494	3979.45	3097.2
1018.3362	2915.6613	3953.4	3065.35
1018.4515	2916.7725	3942.8	3056.8
1018.5667	2917.8831	3905.05	3024.65
1018.6819	2918.9931	3880.55	2996.3
1018.797	2920.1024	3858.75	2976.4
1018.9121	2921.211	3824.1	2942.8
1019.0271	2922.319	3807.35	2927.1
1019.1421	2923.4264	3792.5	2911.1
1019.2571	2924.5331	3755.75	2876.7
1019.372	2925.6391	3753.85	2873.95
1019.4869	2926.7445	3767.65	2888.65
1019.6017	2927.8493	3742.2	2858.7
1019.7165	2928.9534	3738	2858.35
1019.8313	2930.0569	3731.4	2845.75
1019.946	2931.1597	3724.35	2842.15
1020.0606	2932.2619	3705.3	2821.7
1020.1753	2933.3634	3701.1	2819.3
1020.2899	2934.4643	3697.3	2809.75
1020.4044	2935.5645	3680.5	2791.9
1020.5189	2936.6641	3647.35	2762.95
1020.6334	2937.763	3594	2714.9
1020.7478	2938.8613	3536.15	2652.8
1020.8622	2939.959	3488.75	2602.65
1020.9765	2941.056	3402.1	2523.15
1021.0908	2942.1523	3305.55	2423.5
1021.2051	2943.248	3242.25	2360.1
1021.3193	2944.3431	3141.6	2261.65
1021.4334	2945.4375	3040.2	2158.5
1021.5476	2946.5313	2920.65	2042.35
1021.6617	2947.6244	2809.6	1928.5
1021.7757	2948.7169	2713.95	1832.15
1021.8897	2949.8087	2621.95	1739.9
1022.0037	2950.8999	2529.95	1647.3
1022.1176	2951.9904	2442.85	1561.95
1022.2315	2953.0803	2374.3	1492.95
1022.3453	2954.1696	2293.95	1414.65
1022.4591	2955.2582	2252.8	1371.85
1022.5728	2956.3462	2193.4	1313.35
1022.6865	2957.4335	2141.2	1259.35
1022.8002	2958.5202	2119	1236.4
1022.9138	2959.6062	2082.4	1203.3
1023.0274	2960.6916	2057.65	1176.75
1023.141	2961.7764	2034.15	1148.85
1023.2545	2962.8605	2017	1136.65
1023.3679	2963.9439	2003.85	1122
1023.4813	2965.0267	1997.25	1117.35
1023.5947	2966.1089	2002.4	1097.45
1023.708	2967.1905	1992.25	1110.75
1023.8213	2968.2714	1982.75	1101.8
1023.9346	2969.3516	1978.25	1095
1024.0478	2970.4312	1984.65	1097.1
1024.1609	2971.5102	1973.7	1091.5
1024.274	2972.5885	1975.15	1093.8
1024.3871	2973.6662	1981.95	1097.45
1024.5002	2974.7432	1977.45	1096.5
1024.6132	2975.8196	1967.75	1086.35
1024.7261	2976.8954	1960.65	1080.55
1024.839	2977.9705	1949.95	1071
1024.9519	2979.045	1932.85	1050.5
1025.0647	2980.1188	1923.5	1040.6
1025.1775	2981.192	1892.55	1013.7
1025.2902	2982.2645	1875.6	992.4
1025.4029	2983.3364	1856.1	975.1
1025.5156	2984.4077	1825.45	944.25
1025.6282	2985.4783	1795.6	908.85
1025.7407	2986.5483	1760.85	883.55
1025.8532	2987.6177	1722.45	842.95
1025.9657	2988.6864	1688.5	809.05
1026.0782	2989.7545	1662	778.6
1026.1906	2990.8219	1617.15	735.3
1026.3029	2991.8887	1591.3	708.7
1026.4152	2992.9548	1559.8	677.75
1026.5275	2994.0204	1529.55	648.55
1026.6397	2995.0852	1503.2	623.75
1026.7519	2996.1495	1482.1	598.5
1026.864	2997.2131	1455.9	575
1026.9761	2998.276	1437.05	555.35
1027.0882	2999.3383	1413.4	531.15
1027.2002	3000.4	1392.5	509.4
1027.3122	3001.4611	1382.7	499.85
1027.4241	3002.5215	1366.45	484.65
1027.536	3003.5812	1348.85	467.2
1027.6478	3004.6404	1341.75	459.8
1027.7596	3005.6989	1326.4	444.05
1027.8714	3006.7567	1320.6	439.3
1027.9831	3007.8139	1336.15	435.4
1028.0947	3008.8705	1307.1	425.5
1028.2064	3009.9264	1300.3	416.75
1028.3179	3010.9818	1297.25	418.45
1028.4295	3012.0364	1296.7	414.05
1028.541	3013.0905	1291.8	410.3
1028.6524	3014.1439	1291.15	411.4
1028.7638	3015.1966	1284.85	402.25
1028.8752	3016.2487	1289.25	407.6
1028.9865	3017.3002	1293.65	409.9
1029.0978	3018.3511	1283.7	404.3
1029.209	3019.4013	1286.95	405.2
1029.3202	3020.4509	1289.7	411.75
1029.4314	3021.4998	1290.75	409.8
1029.5425	3022.5481	1289.4	409.3
1029.6535	3023.5958	1288.2	404.95
1029.7645	3024.6428	1294.4	413.25
1029.8755	3025.6892	1294.6	413.75
1029.9864	3026.735	1296.95	416.2
1030.0973	3027.7802	1300.5	418.4
1030.2082	3028.8247	1301.6	419.9
1030.319	3029.8685	1305.65	423.45
1030.4297	3030.9118	1307.85	426.15
1030.5404	3031.9544	1319.15	438.8
1030.6511	3032.9963	1322.8	440.7
1030.7617	3034.0376	1329.95	449.05
1030.8723	3035.0783	1331.3	446.95
1030.9829	3036.1184	1331.65	449.35
1031.0934	3037.1578	1336.5	458.2
1031.2038	3038.1966	1344.85	462.7
1031.3142	3039.2348	1342.35	462.7
1031.4246	3040.2723	1350.5	460
1031.5349	3041.3092	1342.25	461.7
1031.6452	3042.3455	1339.15	458.45
1031.7554	3043.3811	1335.15	452.7
1031.8656	3044.4161	1336.8	456
1031.9758	3045.4505	1327.25	447.75
1032.0859	3046.4842	1327.5	446
1032.1959	3047.5173	1315.5	435
1032.3059	3048.5498	1310.45	428.35
1032.4159	3049.5816	1303.55	422.8
1032.5258	3050.6128	1295.8	414.75
1032.6357	3051.6434	1284.75	401.8
1032.7455	3052.6734	1282.6	401.5
1032.8553	3053.7027	1279.05	396.45
1032.9651	3054.7314	1267.15	388.4
1033.0748	3055.7594	1271.85	390.85
1033.1845	3056.7868	1254.85	374.55
1033.2941	3057.8136	1250.6	369.3
1033.4037	3058.8398	1251.95	370.5
1033.5132	3059.8653	1247.3	366.4
1033.6227	3060.8902	1233.05	352.8
1033.7321	3061.9145	1233.35	352.75
1033.8415	3062.9381	1229.3	348.3
1033.9509	3063.9612	1239.7	341.95
1034.0602	3064.9835	1213.3	332.25
1034.1694	3066.0053	1213.7	332
1034.2787	3067.0264	1198.45	318.6
1034.3878	3068.0469	1195.3	313.35
1034.497	3069.0668	1183.6	299.65
1034.6061	3070.086	1184.5	304.15
1034.7151	3071.1046	1174	289.8
1034.8241	3072.1226	1162.5	280.25
1034.9331	3073.1399	1152.2	270.1
1035.042	3074.1567	1144.55	264.1
1035.1508	3075.1727	1136.75	253.55
1035.2597	3076.1882	1121.45	240.55
1035.3684	3077.203	1118.35	236.55
1035.4772	3078.2173	1111.75	227.8
1035.5859	3079.2308	1102.7	221.75
1035.6945	3080.2438	1091	209.3
1035.8031	3081.2561	1086.25	205.95
1035.9117	3082.2678	1078.5	199
1036.0202	3083.2789	1075.95	192.85
1036.1286	3084.2893	1067.35	186.95
1036.2371	3085.2991	1060.35	179.25
1036.3454	3086.3083	1064.6	178.9
1036.4538	3087.3169	1053.25	171.6
1036.562	3088.3248	1049.8	167.1
1036.6703	3089.3321	1043.4	161.65
1036.7785	3090.3388	1031.8	149.95
1036.8866	3091.3449	1033	152.05
1036.9948	3092.3503	1029.85	147.7
1037.1028	3093.3551	1024.2	146.35
1037.2108	3094.3593	1019.25	138.35
1037.3188	3095.3629	1019.35	138.2
1037.4267	3096.3658	1021.45	141.7
1037.5346	3097.3681	1015.25	135.8
1037.6425	3098.3698	1013.65	132.25
1037.7503	3099.3708	1011.3	122.8
1037.858	3100.3713	1008.25	128.85
1037.9657	3101.3711	1007.15	126.65
1038.0734	3102.3702	1146.7	125
1038.181	3103.3688	1006.4	121.25
1038.2886	3104.3667	996.5	117.05
1038.3961	3105.364	998.7	116.9
1038.5036	3106.3607	996.9	113.95
1038.611	3107.3568	996.05	113.9
1038.7184	3108.3522	992.8	112.05
1038.8257	3109.347	992.1	110.8
1038.933	3110.3412	997.2	112.85
1039.0403	3111.3348	989.85	109.5
1039.1475	3112.3277	985.85	104.4
1039.2547	3113.32	986.2	106.9
1039.3618	3114.3117	987.55	105.3
1039.4689	3115.3028	986.15	104.95
1039.5759	3116.2932	984.4	101.5
1039.6829	3117.2831	992.7	107.3
1039.7898	3118.2723	983.1	102.1
1039.8967	3119.2608	981.85	101.5
1040.0035	3120.2488	980.4	98.65
1040.1103	3121.2361	980.4	99.75
1040.2171	3122.2229	975.25	95.4
1040.3238	3123.209	980.1	97.35
1040.4305	3124.1944	976.1	95.5
1040.5371	3125.1793	976.45	93.3
1040.6437	3126.1635	975	94.9
1040.7502	3127.1471	972.65	93.4
1040.8567	3128.1301	971.5	91.55
1040.9631	3129.1125	969.7	89.75
1041.0695	3130.0942	971.4	90.75
1041.1759	3131.0753	978.3	89.45
1041.2822	3132.0558	972.4	90.6
1041.3884	3133.0357	967.1	86.9
1041.4946	3134.015	968.95	87.2
1041.6008	3134.9936	967.35	85.45
1041.7069	3135.9716	982	80.4
1041.813	3136.949	966.8	85.7
1041.919	3137.9258	981.5	80.65
1042.025	3138.902	966.5	79.05
1042.1309	3139.8775	961.35	80.15
1042.2368	3140.8524	961.45	81.45
1042.3427	3141.8267	963.6	82.35
1042.4485	3142.8004	959.45	80.4
1042.5542	3143.7735	966.3	80.2
1042.6599	3144.7459	959.7	80.35
1042.7656	3145.7178	960.8	77.5
1042.8712	3146.689	955.2	74.85
1042.9768	3147.6596	958.3	73.9
1043.0823	3148.6295	958.55	78.75
1043.1878	3149.5989	953.05	73.45
1043.2932	3150.5676	949.95	72.4
1043.3986	3151.5357	953.25	75.9
1043.5039	3152.5032	949.45	70.9
1043.6092	3153.4701	951.9	73.55
1043.7145	3154.4364	953	67.55
1043.8197	3155.402	948.7	69.4
1043.9248	3156.367	949.9	66.9
1044.03	3157.3315	994.5	67.3
1044.135	3158.2952	946.55	64.55
1044.24	3159.2584	945.6	65.6
1044.345	3160.221	947.25	65
1044.4499	3161.1829	943.6	64.25
1044.5548	3162.1442	941.95	61.45
1044.6596	3163.105	946.25	66.8
1044.7644	3164.065	945.55	65.2
1044.8692	3165.0245	949	65.2
1044.9739	3165.9834	943.05	65.55
1045.0785	3166.9416	942.3	61.4
1045.1831	3167.8993	942.15	62.35
1045.2877	3168.8563	942.3	59.45
1045.3922	3169.8127	941.55	61.25
1045.4966	3170.7684	940.5	58.2
1045.6011	3171.7236	939.4	57.25
1045.7054	3172.6782	939.95	58.85
1045.8098	3173.6321	939.75	59.85
1045.914	3174.5854	943.45	58.85
1046.0183	3175.5381	937.7	58.85
1046.1224	3176.4902	938.3	57.3
1046.2266	3177.4417	938.1	57
1046.3307	3178.3926	937.45	56.2
1046.4347	3179.3428	936.55	57.55
1046.5387	3180.2924	936.15	56.15
1046.6427	3181.2415	935.05	53.8
1046.7466	3182.1899	937.9	57.35
1046.8504	3183.1377	935.4	55.65
1046.9542	3184.0848	938.5	54.9
1047.058	3185.0314	933.8	54.85
1047.1617	3185.9773	933.75	52.75
1047.2654	3186.9227	935.35	50.3
1047.369	3187.8674	932.15	50.8
1047.4726	3188.8115	940	55.95
1047.5761	3189.755	932.25	52.15
1047.6796	3190.6979	933.25	52.6
1047.783	3191.6402	932.25	51.35
1047.8864	3192.5818	935.05	55.05
1047.9898	3193.5229	955.35	53
1048.0931	3194.4633	931.65	51.45
1048.1963	3195.4031	928.35	47.5
1048.2995	3196.3423	929.2	49.5
1048.4027	3197.2809	929.6	49.9
1048.5058	3198.2189	931.15	51
1048.6089	3199.1563	950.85	53.9
1048.7119	3200.0931	931.3	52.1
1048.8148	3201.0292	926.85	44.8
1048.9178	3201.9648	928.55	48.2
1049.0206	3202.8997	933.1	47.75
1049.1235	3203.834	927.35	47.3
1049.2262	3204.7677	927.55	47.35
1049.329	3205.7008	931.1	49.35
1049.4317	3206.6333	927.4	50.1
1049.5343	3207.5652	928.8	44.65
1049.6369	3208.4964	924.2	44.75
1049.7394	3209.4271	924.6	44.35
1049.8419	3210.3571	924.9	45.5
1049.9444	3211.2865	925	44.2
1050.0468	3212.2154	925.65	44.45
1050.1491	3213.1436	929.2	46.8
1050.2514	3214.0712	932.6	43.75
1050.3537	3214.9982	927.6	47.9
1050.4559	3215.9246	924.3	44
1050.5581	3216.8503	922.2	43
1050.6602	3217.7755	925	42.55
1050.7623	3218.7001	925.05	44.2
1050.8643	3219.624	922.4	42.3
1050.9663	3220.5473	923.75	43.45
1051.0682	3221.4701	925.65	45.65
1051.1701	3222.3922	926.05	42.45
1051.2719	3223.3137	921.35	41.7
1051.3737	3224.2346	922.9	43
1051.4754	3225.1549	922.75	42.65
1051.5771	3226.0746	921.15	42.25
1051.6788	3226.9937	921.35	39.4
1051.7804	3227.9121	924.1	44.1
1051.8819	3228.83	920.15	40.75
1051.9834	3229.7473	922.9	42
1052.0849	3230.6639	924.15	44.85
1052.1863	3231.5799	921.25	41.3
1052.2876	3232.4954	922.8	42.15
1052.3889	3233.4102	921.15	42.1
1052.4902	3234.3244	919.6	36.9
1052.5914	3235.238	921.95	43.4
1052.6926	3236.151	945.85	40.55
1052.7937	3237.0634	919.55	40.55
1052.8948	3237.9752	919.05	38.55
1052.9958	3238.8864	918.65	38.2
1053.0968	3239.797	921.75	41.45
1053.1977	3240.7069	922	42.25
1053.2986	3241.6163	920.6	38.45
1053.3994	3242.5251	915.7	37
1053.5002	3243.4332	915.5	35.85
1053.6009	3244.3408	916.55	38
1053.7016	3245.2477	917.4	36.1
1053.8022	3246.154	919.85	39.35
1053.9028	3247.0598	915.65	32.7
1054.0034	3247.9649	917.8	36.55
1054.1039	3248.8694	918.4	38.25
1054.2043	3249.7733	914.6	35.3
1054.3047	3250.6766	915.5	34.15
1054.4051	3251.5793	915.15	35.15
1054.5054	3252.4814	913.9	35.05
1054.6056	3253.3829	914.35	34.85
1054.7058	3254.2838	913.1	33.75
1054.806	3255.1841	913	35.2
1054.9061	3256.0838	913.45	33.2
1055.0061	3256.9829	911.05	32.1
1055.1062	3257.8814	914.4	34.45
1055.2061	3258.7792	915.3	32.65
1055.306	3259.6765	912.95	30.65
1055.4059	3260.5731	911.35	31.25
1055.5057	3261.4692	912.35	32.3
1055.6055	3262.3647	911.35	30.75
1055.7052	3263.2595	911.05	33.35
1055.8049	3264.1538	909.2	30.9
1055.9045	3265.0474	908	28.45
1056.0041	3265.9404	907.15	26.75
1056.1036	3266.8329	906.5	27.35
1056.2031	3267.7247	916.9	27.45
1056.3025	3268.616	903.65	25.9
1056.4019	3269.5066	904.75	24.9
1056.5013	3270.3966	906	23.8
1056.6005	3271.286	902.3	24.6
