Software Version:	3.9.2.0
Unit SN:	10000200
Spectrometer SN:	6960
Date:	3/14/2024 1:14:05 PM
Data Line Index:	25
Spectral Points:	2048
Integration time (ms):	125
Averages:	20
Delay (ms):	30000
Sequence Number:	1
Processing:	dark subtract
Laser Power (mW):	300
Laser Current (mA):	824
Laser Diode Temp (C):	25.1
Laser Case Temp (C):	28.2
System Temp (C):	28.3
Spectrometer Temp (C):	26
CCD Temp (C):	0.008
Secondary Temp (C):	20.01
Heatsink Temp (C):	24.109
CCDPCB Temp (C):	37.863
SecondaryPCB Temp (C):	35.351

Wavelength	RamanShift	Raw Counts	Dark Subtracted
787.061	30.1047	450.1	41.4
787.2016	32.3739	451.55	45.6
787.3422	34.6426	457.3	47.7
787.4828	36.9109	459.55	48.8
787.6235	39.1787	467.75	52.05
787.7642	41.4461	476.3	55.5
787.9049	43.7131	482.6	59.3
788.0456	45.9796	489.5	63.1
788.1863	48.2456	500.95	68.8
788.3271	50.5112	509.45	73.65
788.4679	52.7764	515.65	76.85
788.6087	55.0411	522.65	81.3
788.7496	57.3054	533.1	87.45
788.8904	59.5692	541.7	91.85
789.0313	61.8326	549.85	94.5
789.1722	64.0955	561.3	101.95
789.3132	66.3579	580.9	116.15
789.4541	68.6199	594.25	129.9
789.5951	70.8815	625.55	156.9
789.7361	73.1426	691.7	220.6
789.8771	75.4032	861.55	384.2
790.0181	77.6634	1280.4	798.55
790.1592	79.9231	2278.55	1790.2
790.3003	82.1824	4428.65	3932.5
790.4414	84.4412	8263	7749.9
790.5825	86.6995	13575.05	13045.75
790.7237	88.9574	18851.25	18308
790.8648	91.2148	22468.75	21913.65
791.006	93.4717	24120.05	23558.35
791.1472	95.7282	24374.8	23808.3
791.2885	97.9842	24145.8	23577.35
791.4297	100.2398	23503.65	22928.45
791.571	102.4949	22803.45	22227.15
791.7123	104.7495	22044.4	21465.85
791.8536	107.0036	21238.4	20657.85
791.9949	109.2573	20538	19957.35
792.1363	111.5105	19913.25	19331.7
792.2777	113.7632	19309.8	18726.3
792.4191	116.0154	18842.05	18248.55
792.5605	118.2672	18501.4	17915.4
792.7019	120.5185	18137.85	17546.65
792.8434	122.7693	17864.8	17271.55
792.9849	125.0197	17653.05	17059.5
793.1264	127.2696	17429.3	16832.65
793.2679	129.519	17239.4	16644.4
793.4094	131.7679	17007.15	16406.65
793.551	134.0163	16767.75	16165.2
793.6926	136.2642	16493.6	15885.4
793.8342	138.5117	16159.1	15547.05
793.9758	140.7587	15867.1	15254.25
794.1175	143.0052	15583.8	14969.3
794.2591	145.2512	15297.2	14681.1
794.4008	147.4967	14972.8	14353.15
794.5425	149.7417	14778.2	14157
794.6842	151.9863	14592.65	13970.6
794.826	154.2304	14527.15	13902.55
794.9677	156.4739	14391.7	13759.4
795.1095	158.717	14291.7	13658.75
795.2513	160.9596	14171.1	13534.95
795.3931	163.2017	13960.65	13325.15
795.535	165.4433	13705.8	13066.85
795.6768	167.6844	13396.25	12757.3
795.8187	169.925	13159.75	12515.5
795.9606	172.1651	12845.85	12200.25
796.1025	174.4047	12601.45	11948.5
796.2445	176.6439	12381.4	11730.3
796.3864	178.8825	12203.35	11548.5
796.5284	181.1206	12062.55	11405.85
796.6704	183.3582	11960.25	11297.75
796.8124	185.5954	11856.8	11192.45
796.9544	187.832	11803.25	11137.75
797.0965	190.0681	11783.4	11113.3
797.2386	192.3037	11758.15	11087
797.3806	194.5388	11730.1	11052.7
797.5228	196.7734	11763.05	11083.8
797.6649	199.0075	11827.7	11146.55
797.807	201.2411	11926.55	11239.15
797.9492	203.4742	11983	11297.95
798.0914	205.7068	12093.25	11408.4
798.2336	207.9389	12188.95	11500.9
798.3758	210.1704	12288.4	11602
798.518	212.4015	12397.45	11700.4
798.6603	214.632	12522.5	11828.1
798.8025	216.862	12624.5	11937.5
798.9448	219.0915	12706.95	12022.75
799.0871	221.3205	12743.85	12061.9
799.2294	223.549	12838.5	12164.2
799.3718	225.777	12912.85	12239.85
799.5141	228.0044	12984.45	12308.95
799.6565	230.2314	13129.8	12460.45
799.7989	232.4578	13226	12546.55
799.9413	234.6837	13284.45	12602.8
800.0837	236.909	13373.15	12690.2
800.2262	239.1339	13386.8	12683.4
800.3687	241.3582	13319.8	12630.15
800.5111	243.582	13198.1	12485
800.6536	245.8053	13136.2	12425.05
800.7961	248.0281	13070.75	12369
800.9387	250.2503	13067.45	12359.2
801.0812	252.472	13089.35	12376
801.2238	254.6932	13231.15	12517.15
801.3664	256.9139	13274.85	12559.1
801.509	259.134	13430.15	12705.35
801.6516	261.3536	13589.75	12870.65
801.7942	263.5727	13838.9	13115.75
801.9369	265.7912	14057.05	13334.7
802.0795	268.0092	14323.1	13598.65
802.2222	270.2267	14514.95	13791.65
802.3649	272.4436	14581.1	13854.25
802.5076	274.6601	14607.55	13876.35
802.6504	276.8759	14537.7	13810.75
802.7931	279.0913	14449.2	13720.25
802.9359	281.3061	14351.3	13622.65
803.0787	283.5204	14302.25	13568.75
803.2215	285.7341	14301.9	13567.25
803.3643	287.9473	14297.5	13559.65
803.5071	290.16	14357.05	13614.55
803.6499	292.3721	14424	13688.1
803.7928	294.5837	14557.5	13818.3
803.9357	296.7947	14736.5	13999.5
804.0786	299.0052	14902.6	14163.25
804.2215	301.2152	14863.2	14121.75
804.3644	303.4246	14737.4	13995.1
804.5074	305.6334	14438.95	13700.95
804.6503	307.8418	14094.35	13351.5
804.7933	310.0495	13717	12974.7
804.9363	312.2568	13359.55	12619.95
805.0793	314.4635	13016.7	12271.3
805.2223	316.6696	12757.2	12011.8
805.3653	318.8752	12560.6	11805.1
805.5084	321.0802	12444.8	11697.85
805.6514	323.2847	12507.9	11760.65
805.7945	325.4887	12536.8	11789.65
805.9376	327.692	12513.8	11765.95
806.0807	329.8949	12493.4	11743.95
806.2238	332.0972	12306.35	11552.7
806.367	334.2989	12154.1	11400.4
806.5101	336.5001	11933.6	11179.35
806.6533	338.7007	11739.45	10984.65
806.7965	340.9008	11636.1	10879.25
806.9397	343.1003	11475.3	10716
807.0829	345.2992	11356.8	10595.25
807.2261	347.4976	11270.35	10510.15
807.3693	349.6955	11178.2	10410.35
807.5126	351.8927	11195.4	10429.4
807.6559	354.0895	11091.1	10312.95
807.7991	356.2856	11071.65	10307.35
807.9424	358.4812	11006.85	10240.15
808.0857	360.6763	11002.5	10232.45
808.2291	362.8707	11005.65	10235.85
808.3724	365.0646	11007.4	10231.45
808.5158	367.258	11033.05	10255.9
808.6591	369.4508	11065.3	10287.25
808.8025	371.643	11201.55	10423.2
808.9459	373.8346	11281.9	10502.35
809.0893	376.0257	11349.1	10564.35
809.2327	378.2162	11374.4	10593.7
809.3762	380.4062	11357.75	10572.65
809.5196	382.5956	11255.6	10466.45
809.6631	384.7844	11168.9	10383.1
809.8066	386.9726	11034	10242.05
809.9501	389.1603	10964.45	10177.6
810.0936	391.3474	10921.15	10101.8
810.2371	393.5339	10872.55	10082.45
810.3806	395.7199	10833.45	10046.65
810.5241	397.9052	10850.65	10068.75
810.6677	400.09	10927.5	10145.6
810.8113	402.2743	11053.25	10276.2
810.9548	404.4579	11179.2	10402.75
811.0984	406.641	11348.95	10569.55
811.2421	408.8235	11508.1	10729.5
811.3857	411.0054	11633	10851.8
811.5293	413.1868	11807.1	11026.85
811.673	415.3675	11848	11065.5
811.8166	417.5477	11860.1	11075.95
811.9603	419.7273	11816.75	11027.15
812.104	421.9064	11726.45	10930.85
812.2477	424.0848	11655.05	10862.2
812.3914	426.2627	11521.9	10728.75
812.5351	428.4399	11328.9	10532.6
812.6788	430.6166	11056.45	10257.6
812.8226	432.7928	10752	9952.15
812.9663	434.9683	10487.85	9689.25
813.1101	437.1432	10282.15	9482.6
813.2539	439.3176	10111.15	9308.9
813.3977	441.4914	10027	9222.75
813.5415	443.6645	9993.5	9188.65
813.6853	445.8371	9952.8	9145.6
813.8291	448.0091	9911.8	9107.35
813.973	450.1806	9877.85	9071.6
814.1168	452.3514	9866.35	9054.85
814.2607	454.5216	9932.5	9118.25
814.4046	456.6913	9887.1	9078.3
814.5485	458.8603	9909.05	9100.6
814.6924	461.0288	9947.2	9137.15
814.8363	463.1967	9944.75	9135
814.9802	465.3639	9963.3	9149.6
815.1241	467.5306	9943.75	9131.85
815.2681	469.6967	9926.3	9113.7
815.412	471.8622	9964.3	9152.55
815.556	474.0271	9999	9188.45
815.7	476.1914	10000.05	9186.8
815.844	478.3551	10029.55	9217.65
815.988	480.5182	10058.6	9245.9
816.132	482.6807	10108.5	9297.8
816.276	484.8426	10277.8	9462.85
816.4201	487.0039	10545.25	9728.5
816.5641	489.1647	10893.2	10076.25
816.7082	491.3248	11177.7	10362.3
816.8522	493.4843	11237.35	10422.55
816.9963	495.6432	11205.9	10390.2
817.1404	497.8015	11069.5	10250.5
817.2845	499.9592	10960.55	10144.3
817.4286	502.1163	10790.05	9972.3
817.5727	504.2728	10519.65	9701.05
817.7168	506.4287	10258.9	9440.1
817.861	508.5839	10000.95	9176.7
818.0051	510.7386	9820.2	9002
818.1493	512.8927	9753.9	8925.25
818.2935	515.0461	9725.2	8903.2
818.4377	517.199	9753.8	8934
818.5818	519.3512	9892.15	9070.5
818.726	521.5029	10143.15	9317.55
818.8703	523.6539	10368.9	9544.8
819.0145	525.8043	10451.25	9626.3
819.1587	527.9541	10427.05	9600.85
819.303	530.1033	10217.85	9393.85
819.4472	532.2519	10096.65	9273.65
819.5915	534.3999	10036.5	9210.2
819.7357	536.5472	10097.05	9270.8
819.88	538.694	10240.5	9413.5
820.0243	540.8401	10471.2	9642.2
820.1686	542.9856	10656.95	9828.9
820.3129	545.1305	10647.7	9816.75
820.4572	547.2748	10601.8	9772.55
820.6016	549.4185	10455.4	9625.7
820.7459	551.5615	10310.5	9480.95
820.8902	553.704	10315.4	9486.2
821.0346	555.8458	10380.7	9549.85
821.1789	557.987	10547.35	9720.9
821.3233	560.1276	10721.9	9890.75
821.4677	562.2675	11035.9	10206.7
821.6121	564.4069	11444.3	10615.1
821.7565	566.5456	11832.45	11002.35
821.9009	568.6837	11972.6	11139.3
822.0453	570.8212	11638.35	10807.9
822.1897	572.958	11065.95	10231.5
822.3342	575.0942	10508.15	9676.5
822.4786	577.2299	10099.45	9266.15
822.6231	579.3648	9919	9083.05
822.7675	581.4992	9883.35	9048.95
822.912	583.6329	9939.85	9106.85
823.0565	585.766	10107.3	9274.8
823.201	587.8985	10232.8	9400.5
823.3454	590.0304	10275	9415.55
823.4899	592.1616	10247.65	9411.45
823.6345	594.2922	10149.85	9313.9
823.779	596.4222	9946.55	9110.05
823.9235	598.5515	9771.55	8935.9
824.068	600.6802	9616.3	8776.65
824.2126	602.8083	9498.15	8661.8
824.3571	604.9358	9450.6	8611.4
824.5017	607.0626	9470.7	8631.95
824.6462	609.1888	9555.35	8717.65
824.7908	611.3144	9678.3	8838.4
824.9354	613.4393	9797.9	8957.55
825.08	615.5636	9890.65	9050.3
825.2246	617.6873	9925.1	9085.05
825.3692	619.8103	9871.15	9030.3
825.5138	621.9327	9708	8864.6
825.6584	624.0544	9523.35	8683.65
825.803	626.1756	9343	8502.1
825.9477	628.2961	9227	8384.95
826.0923	630.4159	9147.6	8307.65
826.237	632.5351	9131.85	8292
826.3816	634.6537	9119.05	8276.6
826.5263	636.7716	9108.4	8264.35
826.6709	638.8889	9105.45	8262.35
826.8156	641.0056	9101.35	8259.05
826.9603	643.1216	9099.8	8254.3
827.105	645.237	9067.95	8220.6
827.2497	647.3518	9016.1	8172.6
827.3944	649.4659	8949.25	8104.9
827.5391	651.5793	8885.45	8040.6
827.6838	653.6922	8843.9	7998.7
827.8285	655.8043	8838.45	7992.65
827.9733	657.9159	8841.45	7995.2
828.118	660.0268	8813.8	7964.2
828.2627	662.137	8830.85	7985.1
828.4075	664.2466	8816.85	7967.95
828.5522	666.3556	8792.35	7945.15
828.697	668.4639	8761.6	7911.05
828.8418	670.5716	8734.65	7885.15
828.9865	672.6786	8728.3	7879.1
829.1313	674.785	8679.3	7827.8
829.2761	676.8907	8628.45	7778.65
829.4209	678.9958	8611.8	7765.15
829.5657	681.1002	8607.75	7756.4
829.7105	683.204	8577.5	7727.6
829.8553	685.3072	8554.1	7703.2
830.0001	687.4097	8545.6	7695.95
830.1449	689.5115	8531.9	7679.05
830.2898	691.6127	8529.7	7676.35
830.4346	693.7132	8492.1	7640.9
830.5794	695.8131	8506.2	7647.3
830.7243	697.9123	8539.35	7684.45
830.8691	700.0109	8548.05	7697.05
831.014	702.1089	8575.5	7721.55
831.1588	704.2061	8616.65	7765.95
831.3037	706.3028	8673.5	7818.45
831.4486	708.3987	8691.05	7838.1
831.5935	710.4941	8724.5	7870.95
831.7383	712.5887	8779.25	7926
831.8832	714.6827	8850.5	7990.6
832.0281	716.7761	8916.35	8060.6
832.173	718.8688	9079.75	8224.45
832.3179	720.9608	9180.4	8322.7
832.4628	723.0522	9280.3	8422.5
832.6077	725.1429	9331	8476.8
832.7527	727.233	9409.6	8553.5
832.8976	729.3224	9445.65	8588.85
833.0425	731.4112	9391.65	8533.55
833.1874	733.4993	9255	8396
833.3324	735.5867	9049.35	8190.75
833.4773	737.6735	8864.5	8006.55
833.6222	739.7596	8689.65	7832.1
833.7672	741.845	8571.75	7714.2
833.9122	743.9298	8492.25	7631.95
834.0571	746.014	8441.2	7584.3
834.2021	748.0974	8444.5	7585.3
834.347	750.1802	8427.8	7569.65
834.492	752.2624	8451.2	7593.65
834.637	754.3439	8476.25	7616.15
834.782	756.4247	8579.3	7711.95
834.9269	758.5048	8717	7857.15
835.0719	760.5843	8945.75	8086.1
835.2169	762.6631	9269.75	8411.5
835.3619	764.7413	9744.25	8885.3
835.5069	766.8188	10381.35	9519.35
835.6519	768.8956	10863.9	10002.5
835.7969	770.9718	11227.85	10366.2
835.9419	773.0473	11205	10344.3
836.0869	775.1221	10968.4	10106.7
836.232	777.1962	10749.3	9889.65
836.377	779.2697	10680.1	9816.9
836.522	781.3426	10770.05	9897.2
836.667	783.4147	10890.6	10029.05
836.8121	785.4862	10935.75	10075.9
836.9571	787.557	10770.85	9908.95
837.1021	789.6271	10357.9	9496.9
837.2472	791.6966	9802	8937.4
837.3922	793.7654	9247.3	8384.5
837.5373	795.8335	8870.3	8007.1
837.6823	797.901	8619.8	7758.6
837.8274	799.9678	8468.35	7606.15
837.9724	802.0339	8358.1	7497.6
838.1175	804.0993	8322.85	7448.85
838.2626	806.1641	8272.4	7407.4
838.4076	808.2282	8217.35	7354.3
838.5527	810.2916	8150.35	7285.7
838.6978	812.3544	8084.9	7224.3
838.8428	814.4164	8042	7180.8
838.9879	816.4778	8068.85	7202.85
839.133	818.5385	8117.1	7252.4
839.2781	820.5986	8194.05	7329.15
839.4232	822.658	8410	7544.55
839.5682	824.7166	8687.6	7823.2
839.7133	826.7747	9118.3	8254.65
839.8584	828.832	9580.8	8718.15
840.0035	830.8886	9934.2	9069
840.1486	832.9446	10118.8	9251.7
840.2937	834.9999	10003.55	9138.7
840.4388	837.0545	9753.1	8886
840.5839	839.1085	9446.45	8580.35
840.729	841.1618	9149.1	8280.45
840.8741	843.2143	8923.3	8056.9
841.0192	845.2662	8729.4	7864.3
841.1643	847.3175	8633.9	7771.25
841.3095	849.368	8509.4	7644.5
841.4546	851.4179	8447.2	7584.25
841.5997	853.467	8367.4	7499.05
841.7448	855.5155	8305	7439.45
841.8899	857.5633	8203	7335.1
842.0351	859.6105	8136.35	7268.9
842.1802	861.6569	8067.05	7200.3
842.3253	863.7027	7992.65	7125.7
842.4704	865.7478	7952.2	7086.15
842.6156	867.7922	7890.95	7025.25
842.7607	869.8359	7901.5	7033.85
842.9058	871.8789	7912.1	7045.2
843.0509	873.9212	7993.35	7092.45
843.1961	875.9629	8037.5	7169.05
843.3412	878.0039	8138.4	7269.5
843.4863	880.0441	8204.25	7335.25
843.6315	882.0837	8250.7	7382.65
843.7766	884.1226	8270.35	7398.75
843.9218	886.1609	8300.25	7431.1
844.0669	888.1984	8418.3	7551.65
844.212	890.2352	8514	7648.3
844.3572	892.2714	8545.35	7672.15
844.5023	894.3069	8519.35	7651.65
844.6475	896.3416	8359.9	7489.65
844.7926	898.3757	8224.85	7358.5
844.9377	900.4091	8153.1	7283
845.0829	902.4418	8130.85	7258
845.228	904.4739	8159.8	7289.3
845.3732	906.5052	8199.95	7329.65
845.5183	908.5358	8164.2	7295.1
845.6635	910.5658	8062.45	7193.2
845.8086	912.595	7908.3	7038.05
845.9538	914.6236	7694.15	6824.2
846.0989	916.6515	7577	6706.35
846.2441	918.6786	7482	6609.25
846.3892	920.7051	7493.7	6621.55
846.5344	922.7309	7508.1	6641.9
846.6795	924.756	7514	6642.55
846.8246	926.7804	7576.35	6705.65
846.9698	928.8041	7584.8	6712.45
847.1149	930.8272	7634	6762.5
847.2601	932.8495	7621.85	6748.05
847.4052	934.8711	7612.4	6740.75
847.5504	936.892	7563.6	6690.75
847.6955	938.9123	7549.35	6675.85
847.8407	940.9318	7571.55	6699.55
847.9858	942.9506	7603.3	6729.15
848.131	944.9688	7555.05	6684.95
848.2761	946.9862	7468.7	6597.25
848.4213	949.003	7351.65	6479.65
848.5664	951.019	7256.4	6382.45
848.7115	953.0344	7188.3	6317.5
848.8567	955.0491	7162.05	6287.05
849.0018	957.063	7186.85	6314.15
849.147	959.0763	7232.65	6363.5
849.2921	961.0888	7256	6383.15
849.4373	963.1007	7302.65	6429.25
849.5824	965.1119	7323.05	6450.65
849.7275	967.1223	7324.7	6450.1
849.8727	969.1321	7306.6	6433.5
850.0178	971.1412	7283.25	6410.6
850.1629	973.1495	7264.9	6391.75
850.3081	975.1572	7305.65	6399.35
850.4532	977.1641	7283.2	6410.6
850.5983	979.1704	7258.35	6384.65
850.7435	981.1759	7229.05	6353.2
850.8886	983.1808	7224.65	6347.4
851.0337	985.1849	7260.65	6376.25
851.1788	987.1884	7298.35	6420.75
851.324	989.1911	7389.85	6512.2
851.4691	991.1932	7445.75	6569.6
851.6142	993.1945	7473.95	6599.6
851.7593	995.1951	7458.85	6584.55
851.9045	997.1951	7450	6569.05
852.0496	999.1943	7403.3	6532.05
852.1947	1001.1928	7408.45	6533.8
852.3398	1003.1906	7440.35	6566.9
852.4849	1005.1877	7556.75	6680.15
852.63	1007.1841	7617.3	6743.8
852.7751	1009.1798	7647.2	6772.65
852.9202	1011.1748	7611.75	6740.95
853.0653	1013.1691	7453.2	6576.55
853.2104	1015.1627	7282.4	6408.75
853.3555	1017.1556	7110.5	6236.35
853.5006	1019.1477	7006.85	6129.6
853.6457	1021.1392	6910.65	6037.05
853.7908	1023.1299	6880.7	6005.3
853.9359	1025.12	6888.2	6010.75
854.081	1027.1093	6939.25	6065.15
854.2261	1029.0979	7032.45	6159.25
854.3712	1031.0859	7136.1	6262.4
854.5163	1033.0731	7151.8	6276.15
854.6613	1035.0596	7125.7	6252.95
854.8064	1037.0454	7029.85	6153.85
854.9515	1039.0304	6949.9	6073.1
855.0965	1041.0148	6846.8	5973.2
855.2416	1042.9985	6760.4	5883
855.3867	1044.9814	6701.15	5824.55
855.5317	1046.9636	6650.05	5772.65
855.6768	1048.9452	6644.85	5768.85
855.8219	1050.926	6675.8	5802.1
855.9669	1052.9061	6727.25	5854.05
856.112	1054.8855	6730.05	5854.3
856.257	1056.8642	6751.6	5876.8
856.4021	1058.8421	6789.2	5909.9
856.5471	1060.8194	6817.75	5940.8
856.6921	1062.7959	6877.75	6001.5
856.8372	1064.7717	6898.7	6023.35
856.9822	1066.7469	6955.2	6078.7
857.1272	1068.7213	7038.85	6158.8
857.2723	1070.695	7078.15	6202.15
857.4173	1072.6679	7135.15	6258.95
857.5623	1074.6402	7133	6258.35
857.7073	1076.6117	7112.1	6230.3
857.8523	1078.5826	7030.65	6151.15
857.9973	1080.5527	6901.8	6023.1
858.1423	1082.5221	6823.8	5948.15
858.2873	1084.4908	6797.2	5919.9
858.4323	1086.4587	6800	5922.25
858.5773	1088.426	6837	5960.75
858.7223	1090.3925	6856.9	5975.9
858.8673	1092.3584	6882.9	6007.65
859.0123	1094.3235	6889.65	6012.85
859.1573	1096.2879	6960.05	6082.4
859.3022	1098.2515	7035.2	6156.25
859.4472	1100.2145	7197.5	6321.95
859.5922	1102.1767	7350	6470
859.7371	1104.1382	7557.15	6680.15
859.8821	1106.099	7791.25	6912
860.027	1108.0591	7987.55	7111.6
860.172	1110.0185	8133.9	7254.9
860.3169	1111.9771	8185.45	7309.55
860.4619	1113.9351	8134.25	7256.9
860.6068	1115.8923	8024.8	7146.75
860.7517	1117.8488	7898.3	7020.7
860.8967	1119.8045	7741.75	6863.85
861.0416	1121.7596	7645.5	6766.65
861.1865	1123.7139	7476.65	6599.4
861.3314	1125.6675	7432.55	6554.5
861.4763	1127.6204	7468.9	6590.2
861.6212	1129.5726	7437.3	6558.8
861.7661	1131.524	7355.3	6478
861.911	1133.4748	7241.4	6363.7
862.0559	1135.4248	7065.05	6183.3
862.2008	1137.3741	6939.8	6061.8
862.3457	1139.3226	6834.95	5955.3
862.4905	1141.2705	6801.6	5924
862.6354	1143.2176	6739.15	5855.1
862.7803	1145.164	6678.15	5799.05
862.9251	1147.1097	6634.2	5753.4
863.07	1149.0546	6540.75	5660.85
863.2148	1150.9989	6460.3	5580.8
863.3597	1152.9424	6352.8	5473.55
863.5045	1154.8852	6277.05	5398.35
863.6493	1156.8272	6230.05	5353.2
863.7942	1158.7686	6260.55	5376.15
863.939	1160.7092	6254.4	5374.9
864.0838	1162.6491	6310.75	5430.75
864.2286	1164.5883	6383.7	5504.05
864.3734	1166.5267	6477.7	5597.5
864.5182	1168.4644	6629.1	5751.05
864.663	1170.4014	6774.95	5891.75
864.8078	1172.3377	7002.9	6124.55
864.9526	1174.2732	7277.1	6397.5
865.0974	1176.2081	7618.6	6740.9
865.2421	1178.1421	8062.95	7182.55
865.3869	1180.0755	8522.4	7646.85
865.5317	1182.0082	8863.4	7985.7
865.6764	1183.9401	9039.85	8162.8
865.8212	1185.8713	8886.45	8007.6
865.9659	1187.8017	8609.6	7730.9
866.1106	1189.7315	8230.35	7351.3
866.2554	1191.6605	7888.6	6979.75
866.4001	1193.5888	7606.85	6725.35
866.5448	1195.5163	7470.3	6591.4
866.6895	1197.4432	7338.5	6458.05
866.8342	1199.3693	7291	6413.1
866.9789	1201.2947	7276.75	6391.55
867.1236	1203.2193	7249.8	6372.25
867.2683	1205.1432	7239.5	6358.4
867.413	1207.0664	7215.65	6335.55
867.5576	1208.9889	7206.3	6325.2
867.7023	1210.9106	7218.05	6341.6
867.847	1212.8316	7219.2	6340.1
867.9916	1214.7519	7234.1	6345.15
868.1363	1216.6715	7253.45	6374.15
868.2809	1218.5903	7323.2	6444.65
868.4255	1220.5084	7427.75	6548.9
868.5701	1222.4257	7509.2	6629.6
868.7148	1224.3424	7577.05	6698.75
868.8594	1226.2583	7668.95	6783.75
869.004	1228.1735	7805.15	6926.85
869.1486	1230.0879	7958.4	7077.45
869.2932	1232.0016	8139.7	7260.75
869.4377	1233.9146	8264.25	7384.3
869.5823	1235.8269	8293.15	7412.1
869.7269	1237.7384	8242.25	7363.25
869.8715	1239.6492	8144.5	7266.15
870.016	1241.5592	8117.35	7235.4
870.1606	1243.4686	8164.5	7285.55
870.3051	1245.3772	8320.6	7440.35
870.4496	1247.285	8522.05	7642.7
870.5941	1249.1922	8714.9	7835.3
870.7387	1251.0986	8891.65	8012.25
870.8832	1253.0042	8981.45	8101.35
871.0277	1254.9092	9077.95	8197.9
871.1722	1256.8134	9189.15	8311.2
871.3167	1258.7169	9296.8	8412.6
871.4611	1260.6196	9442.25	8564.95
871.6056	1262.5216	9626.95	8746.95
871.7501	1264.4229	9805.3	8926.6
871.8945	1266.3234	9963.45	9082.85
872.039	1268.2232	10082.8	9201.35
872.1834	1270.1223	10137.7	9255.65
872.3278	1272.0207	10167.3	9286.35
872.4723	1273.9183	10134.15	9245.7
872.6167	1275.8151	10079.45	9200.3
872.7611	1277.7113	10067.2	9187.3
872.9055	1279.6067	10123.8	9244.35
873.0499	1281.5014	10364.05	9481.65
873.1943	1283.3953	10746.15	9864.15
873.3386	1285.2885	11244.75	10365.35
873.483	1287.181	11786.95	10906.35
873.6274	1289.0727	12262	11382.15
873.7717	1290.9637	12602.1	11719.25
873.9161	1292.854	12811.3	11929.95
874.0604	1294.7435	12793.95	11914.05
874.2047	1296.6323	12682.15	11802.35
874.349	1298.5204	12506	11621.3
874.4933	1300.4077	12264.6	11383.8
874.6376	1302.2943	11986.55	11106.45
874.7819	1304.1802	11686.35	10804.65
874.9262	1306.0653	11277.55	10391.8
875.0705	1307.9497	10797.95	9916.55
875.2147	1309.8333	10408.85	9526.9
875.359	1311.7162	10106.75	9226.9
875.5032	1313.5984	9943.15	9060.4
875.6475	1315.4798	9835.9	8944.8
875.7917	1317.3605	9757.55	8858.95
875.9359	1319.2405	9638.8	8757.4
876.0801	1321.1197	9435.55	8553.35
876.2243	1322.9982	9136.2	8251.4
876.3685	1324.876	8903.9	8021.9
876.5127	1326.753	8625.15	7743.3
876.6569	1328.6293	8406.8	7523.85
876.801	1330.5048	8240.65	7357.5
876.9452	1332.3796	8072.95	7191.95
877.0893	1334.2537	7981.9	7074.5
877.2335	1336.127	7894.05	7012.05
877.3776	1337.9996	7856.45	6975.25
877.5217	1339.8714	7826.55	6944.7
877.6658	1341.7426	7875.65	6951.65
877.8099	1343.6129	7852.8	6972.25
877.954	1345.4826	7847	6963.85
878.0981	1347.3515	7850.65	6967.55
878.2422	1349.2196	7835.2	6952.5
878.3862	1351.087	7846.7	6966
878.5303	1352.9537	7891.75	7011.25
878.6743	1354.8197	7970.05	7089.35
878.8184	1356.6849	8123.4	7241.75
878.9624	1358.5493	8289.5	7407.2
879.1064	1360.4131	8464.95	7583.2
879.2504	1362.276	8578.7	7697.9
879.3944	1364.1383	8623.65	7742.9
879.5384	1365.9998	8499.55	7612.8
879.6823	1367.8606	8215.45	7331.95
879.8263	1369.7206	7915.7	7033.9
879.9702	1371.5799	7645.85	6764.2
880.1142	1373.4384	7425.4	6543.8
880.2581	1375.2962	7216.55	6333.3
880.402	1377.1533	6927.7	6046.45
880.5459	1379.0096	6633.5	5751.15
880.6898	1380.8652	6341.35	5461.55
880.8337	1382.7201	6085.85	5203.7
880.9776	1384.5742	5905.3	5023.35
881.1215	1386.4275	5732.5	4850.35
881.2653	1388.2802	5617.65	4735.1
881.4092	1390.132	5523.45	4641.3
881.553	1391.9832	5462.75	4578.45
881.6968	1393.8336	5410.95	4528.3
881.8406	1395.6832	5378.6	4498
881.9844	1397.5322	5326.5	4445.95
882.1282	1399.3803	5317.35	4429.25
882.272	1401.2278	5278.55	4395.65
882.4158	1403.0745	5274.15	4392.25
882.5595	1404.9204	5261.8	4380.8
882.7033	1406.7656	5292.9	4410
882.847	1408.6101	5288.95	4406.2
882.9908	1410.4538	5322.05	4442.4
883.1345	1412.2968	5377.2	4496.65
883.2782	1414.139	5398.8	4517.3
883.4219	1415.9805	5458.1	4574.65
883.5656	1417.8213	5542	4652.9
883.7092	1419.6613	5614.05	4732.2
883.8529	1421.5006	5748.35	4863.45
883.9965	1423.3391	5930.35	5049.8
884.1402	1425.1769	6175.7	5290.35
884.2838	1427.0139	6553.65	5671.85
884.4274	1428.8502	7002.9	6121.6
884.571	1430.6858	7464.35	6581
884.7146	1432.5206	7781.4	6899.05
884.8582	1434.3547	7981.6	7099.05
885.0018	1436.188	7999.5	7119.4
885.1453	1438.0206	7921.75	7040.15
885.2889	1439.8524	7801.5	6917
885.4324	1441.6835	7710.55	6828.6
885.5759	1443.5139	7606.1	6719.1
885.7194	1445.3435	7529.9	6646.55
885.8629	1447.1724	7535.4	6653.3
886.0064	1449.0005	7473.2	6590.1
886.1499	1450.8279	7423.7	6541.15
886.2933	1452.6545	7421.4	6539.7
886.4368	1454.4804	7435.2	6554.55
886.5802	1456.3056	7483.2	6593.2
886.7237	1458.13	7396.75	6515.2
886.8671	1459.9536	7281.15	6397.9
887.0105	1461.7766	7050.1	6166.3
887.1539	1463.5987	6805.1	5920.8
887.2972	1465.4202	6508.85	5627.35
887.4406	1467.2409	6233.75	5349.7
887.584	1469.0608	5998.95	5117.15
887.7273	1470.88	5773.9	4891.1
887.8706	1472.6984	5574.6	4692.25
888.0139	1474.5161	5414.35	4528.9
888.1572	1476.3331	5285.6	4401.6
888.3005	1478.1493	5193.4	4310.55
888.4438	1479.9648	5105	4224.6
888.5871	1481.7795	5050.45	4167.55
888.7303	1483.5935	5013.7	4132.55
888.8736	1485.4067	4970.05	4088.3
889.0168	1487.2192	4935.6	4051.65
889.16	1489.031	4910.75	4027
889.3032	1490.842	4878.65	3995.7
889.4464	1492.6522	4857.4	3975.05
889.5896	1494.4618	4815.85	3932.1
889.7327	1496.2705	4798.85	3916.45
889.8759	1498.0785	4769.75	3886.65
890.019	1499.8858	4735.2	3852.35
890.1622	1501.6924	4700.3	3819.55
890.3053	1503.4981	4669	3788.3
890.4484	1505.3032	4652.6	3770.2
890.5914	1507.1075	4604.4	3722.9
890.7345	1508.911	4584.85	3701.45
890.8776	1510.7138	4559.05	3675.9
891.0206	1512.5159	4516.35	3634.5
891.1637	1514.3172	4482.65	3600.9
891.3067	1516.1178	4449.1	3569
891.4497	1517.9176	4425.65	3540.3
891.5927	1519.7166	4397.85	3516.7
891.7357	1521.515	4377.25	3486.75
891.8786	1523.3126	4365.75	3481.8
892.0216	1525.1094	4332.65	3450.4
892.1645	1526.9055	4321.5	3439.85
892.3074	1528.7008	4296.15	3413.35
892.4503	1530.4954	4292.2	3402.8
892.5932	1532.2893	4283.45	3403.4
892.7361	1534.0824	4262.3	3375.2
892.879	1535.8747	4267.95	3386.05
893.0218	1537.6663	4264.2	3378.05
893.1647	1539.4572	4252.35	3368.6
893.3075	1541.2473	4269.35	3387.4
893.4503	1543.0367	4269.15	3388.85
893.5931	1544.8253	4284.75	3396.35
893.7359	1546.6132	4307.6	3422.95
893.8787	1548.4003	4343.5	3449.1
894.0214	1550.1867	4391.8	3500.55
894.1642	1551.9723	4440.95	3554.05
894.3069	1553.7572	4510.7	3627.45
894.4496	1555.5414	4610.45	3727.65
894.5923	1557.3247	4721.8	3839.45
894.735	1559.1074	4869.2	3988.35
894.8777	1560.8893	5028.55	4146.95
895.0204	1562.6705	5190.05	4307.5
895.163	1564.4509	5308.4	4425.05
895.3056	1566.2305	5368.85	4487.15
895.4482	1568.0094	5415.45	4532.35
895.5908	1569.7876	5429.15	4548.4
895.7334	1571.565	5409.05	4527.75
895.876	1573.3417	5395.9	4512.9
896.0186	1575.1176	5408.6	4527.85
896.1611	1576.8928	5415.35	4530.95
896.3036	1578.6672	5434.9	4555.7
896.4461	1580.4409	5466.75	4586.35
896.5886	1582.2138	5503.8	4620.2
896.7311	1583.986	5555.15	4672.35
896.8736	1585.7575	5630	4747.1
897.0161	1587.5282	5710.3	4831.6
897.1585	1589.2981	5818.6	4935.8
897.3009	1591.0673	5898.8	5015.05
897.4433	1592.8358	5985.7	5105.3
897.5857	1594.6035	6095.8	5211.7
897.7281	1596.3704	6148.85	5265.5
897.8705	1598.1366	6224.9	5342.6
898.0128	1599.9021	6310.95	5429.8
898.1551	1601.6668	6369.1	5483.25
898.2975	1603.4308	6461.3	5578
898.4398	1605.194	6599.4	5711.7
898.5821	1606.9564	6766.75	5883.45
898.7243	1608.7182	7011.85	6123.9
898.8666	1610.4791	7263.05	6380.85
899.0088	1612.2394	7537.05	6656.75
899.1511	1613.9988	7838.45	6955.8
899.2933	1615.7576	8122.5	7238
899.4355	1617.5156	8326.7	7438.5
899.5776	1619.2728	8417.9	7537.35
899.7198	1621.0293	8358.8	7477
899.862	1622.785	8149.9	7262.3
900.0041	1624.54	7874.2	6987.95
900.1462	1626.2942	7513.75	6630.35
900.2883	1628.0477	7160.8	6274
900.4304	1629.8005	6793.2	5907.95
900.5725	1631.5525	6491.35	5609
900.7145	1633.3037	6217.3	5333.75
900.8566	1635.0542	6017.4	5136
900.9986	1636.804	5841.05	4958.8
901.1406	1638.553	5764.45	4836.4
901.2826	1640.3013	5649.45	4768.75
901.4245	1642.0488	5600.4	4717.25
901.5665	1643.7955	5607.65	4727.05
901.7085	1645.5416	5640.3	4758.45
901.8504	1647.2868	5722.3	4842.15
901.9923	1649.0313	5794.25	4911.25
902.1342	1650.7751	5904.3	5019.8
902.2761	1652.5181	6035.8	5155
902.4179	1654.2604	6153.8	5272.95
902.5598	1656.0019	6332.85	5451.85
902.7016	1657.7427	6525.15	5643.5
902.8434	1659.4828	6742.75	5861.4
902.9852	1661.222	6894.25	6011.95
903.127	1662.9606	6901.25	6021.45
903.2687	1664.6984	6747.05	5862.7
903.4105	1666.4354	6402.7	5519.35
903.5522	1668.1717	5967.7	5085.55
903.6939	1669.9072	5495.4	4613.5
903.8356	1671.642	5088.15	4203.15
903.9773	1673.3761	4762.7	3881.8
904.119	1675.1094	4502.6	3621.8
904.2606	1676.8419	4312	3431.05
904.4022	1678.5737	4158.95	3276.85
904.5439	1680.3048	4024.8	3143.6
904.6855	1682.0351	3929.55	3047.85
904.827	1683.7646	3846.7	2960.75
904.9686	1685.4934	3774.3	2893.15
905.1101	1687.2215	3711.45	2830
905.2517	1688.9488	3659.95	2778.55
905.3932	1690.6754	3615.2	2733.3
905.5347	1692.4012	3566.55	2685.25
905.6761	1694.1263	3556.2	2675.75
905.8176	1695.8506	3516	2634.65
905.9591	1697.5742	3492.95	2612.75
906.1005	1699.297	3454.2	2570.15
906.2419	1701.0191	3420.05	2539.15
906.3833	1702.7404	3394.05	2514.35
906.5246	1704.461	3358.6	2477.2
906.666	1706.1808	3348.1	2464.55
906.8073	1707.8999	3331.4	2447.2
906.9487	1709.6182	3300.45	2419.6
907.09	1711.3358	3277.4	2394.8
907.2313	1713.0527	3263.05	2382.7
907.3725	1714.7688	3245.25	2357.1
907.5138	1716.4841	3223.4	2342.4
907.655	1718.1987	3229.75	2343
907.7962	1719.9126	3204.95	2328.45
907.9374	1721.6257	3192.95	2307.85
908.0786	1723.338	3178.2	2295
908.2198	1725.0496	3163.1	2279.05
908.3609	1726.7605	3174.15	2291.5
908.502	1728.4706	3154.2	2272.55
908.6431	1730.18	3140.6	2256.15
908.7842	1731.8886	3138.95	2259.45
908.9253	1733.5964	3133.85	2246.85
909.0664	1735.3036	3119.8	2237.65
909.2074	1737.0099	3096.05	2213.35
909.3484	1738.7156	3075.15	2194.7
909.4894	1740.4204	3063.85	2177.75
909.6304	1742.1246	3060.45	2176.6
909.7714	1743.8279	3029.75	2146.45
909.9123	1745.5306	3028.55	2145.85
910.0532	1747.2325	3009.1	2127.15
910.1941	1748.9336	2999.7	2118.05
910.335	1750.634	2977.1	2095.5
910.4759	1752.3336	2973.55	2091.95
910.6168	1754.0325	2970.55	2088.5
910.7576	1755.7307	2955.55	2074.95
910.8984	1757.4281	2953.1	2071.7
911.0392	1759.1247	2960.4	2071.35
911.18	1760.8206	2948.45	2061.8
911.3208	1762.5158	2945.2	2058.85
911.4615	1764.2102	2932	2050.5
911.6022	1765.9039	2933.85	2051.5
911.7429	1767.5968	2920.85	2039.05
911.8836	1769.289	2911.8	2029.15
912.0243	1770.9804	2897.8	2015.2
912.1649	1772.6711	2899.2	2017.2
912.3056	1774.361	2890.65	2008.4
912.4462	1776.0502	2881.7	2000.95
912.5868	1777.7386	2889.2	2003.4
912.7274	1779.4263	2877.85	1995.5
912.8679	1781.1132	2867.15	1985.4
913.0084	1782.7994	2873.65	1989.7
913.149	1784.4849	2871.8	1992.1
913.2895	1786.1696	2869.6	1969.85
913.4299	1787.8535	2856.05	1975
913.5704	1789.5367	2859.7	1977.75
913.7108	1791.2192	2838.9	1956.05
913.8513	1792.9009	2846.8	1948.4
913.9917	1794.5818	2827.6	1945.75
914.132	1796.2621	2824.7	1944.55
914.2724	1797.9415	2818.25	1937.6
914.4128	1799.6202	2808	1925.45
914.5531	1801.2982	2811.1	1930.05
914.6934	1802.9755	2801	1918.1
914.8337	1804.6519	2799.85	1916.7
914.9739	1806.3277	2787.3	1907.05
915.1142	1808.0027	2780.9	1899.3
915.2544	1809.6769	2776.65	1894.5
915.3946	1811.3504	2775.85	1893.35
915.5348	1813.0231	2772.25	1889.65
915.675	1814.6951	2775.15	1893.1
915.8151	1816.3664	2770.4	1886.7
915.9553	1818.0369	2771.25	1890.5
916.0954	1819.7067	2753.2	1870.9
916.2355	1821.3757	2762.9	1880.1
916.3755	1823.044	2750.9	1868.55
916.5156	1824.7115	2737.65	1856
916.6556	1826.3783	2727.9	1845.2
916.7956	1828.0443	2736.1	1856.1
916.9356	1829.7096	2730.75	1848.85
917.0756	1831.3741	2748.1	1864.15
917.2155	1833.0379	2720.15	1838.3
917.3555	1834.701	2712.6	1828.35
917.4954	1836.3633	2722.5	1838.2
917.6353	1838.0248	2715.75	1832.05
917.7751	1839.6856	2703.6	1823.15
917.915	1841.3457	2691.85	1810.8
918.0548	1843.005	2697.6	1816.05
918.1946	1844.6636	2702.45	1821.8
918.3344	1846.3214	2695.4	1814.7
918.4742	1847.9785	2694.1	1813.95
918.6139	1849.6349	2696.25	1814.2
918.7537	1851.2904	2694.05	1802.35
918.8934	1852.9453	2668.6	1788.2
919.0331	1854.5994	2673.05	1789.6
919.1727	1856.2528	2693.7	1805.7
919.3124	1857.9054	2673.95	1791.45
919.452	1859.5572	2662.25	1781.55
919.5916	1861.2083	2672.5	1789.15
919.7312	1862.8587	2673.95	1791.7
919.8708	1864.5084	2665.95	1784.1
920.0103	1866.1572	2639.5	1759.45
920.1498	1867.8054	2642.9	1760.75
920.2893	1869.4528	2638.1	1757.15
920.4288	1871.0994	2631.5	1749.15
920.5683	1872.7453	2650.25	1765.8
920.7077	1874.3905	2639.75	1738.6
920.8471	1876.0349	2620.15	1737.1
920.9865	1877.6786	2631.4	1750.25
921.1259	1879.3215	2631.85	1750.2
921.2653	1880.9637	2612.5	1729.35
921.4046	1882.6051	2615.15	1734.65
921.5439	1884.2458	2608.2	1723
921.6832	1885.8858	2595.85	1716.05
921.8225	1887.525	2606.3	1724.55
921.9617	1889.1634	2586.2	1705.7
922.101	1890.8011	2594	1711.25
922.2402	1892.4381	2573.7	1692.75
922.3794	1894.0743	2580.8	1699.75
922.5185	1895.7098	2566.8	1683.3
922.6577	1897.3446	2570.15	1688.55
922.7968	1898.9786	2572.2	1687.25
922.9359	1900.6118	2561.55	1679.3
923.075	1902.2443	2544.55	1663.1
923.214	1903.8761	2542.95	1661.25
923.3531	1905.5071	2533.65	1650.35
923.4921	1907.1374	2546.4	1663.3
923.6311	1908.7669	2527.25	1646.25
923.77	1910.3957	2538.75	1657.45
923.909	1912.0237	2523.5	1642.15
924.0479	1913.651	2525	1640.8
924.1868	1915.2776	2519.35	1637.15
924.3257	1916.9034	2503.6	1622.8
924.4646	1918.5285	2496.65	1615.3
924.6034	1920.1528	2496.5	1614.9
924.7422	1921.7764	2490.9	1609.7
924.881	1923.3992	2498.4	1617.1
925.0198	1925.0213	2488.85	1607.65
925.1586	1926.6427	2467.95	1587.65
925.2973	1928.2633	2667.9	1554.25
925.436	1929.8832	2492.1	1607.6
925.5747	1931.5023	2455.05	1574.35
925.7134	1933.1207	2459.05	1577.95
925.852	1934.7383	2449.15	1566
925.9906	1936.3552	2448.1	1566.3
926.1292	1937.9714	2443.75	1560.95
926.2678	1939.5868	2441.4	1556.85
926.4064	1941.2015	2434.3	1551.55
926.5449	1942.8154	2422.8	1539.8
926.6834	1944.4286	2414.1	1531.3
926.8219	1946.041	2429.55	1524.6
926.9604	1947.6528	2411.25	1525.7
927.0988	1949.2637	2404.45	1524.3
927.2372	1950.8739	2394	1513.3
927.3756	1952.4834	2391.9	1510.55
927.514	1954.0921	2401.15	1517.05
927.6523	1955.7001	2388	1502.15
927.7907	1957.3074	2380.2	1499.85
927.929	1958.9139	2376.65	1494.9
928.0673	1960.5197	2364.6	1481.2
928.2055	1962.1247	2367.6	1487.1
928.3438	1963.729	2364.6	1484.55
928.482	1965.3325	2372.3	1469.15
928.6202	1966.9353	2352.8	1471.1
928.7584	1968.5374	2347.65	1464.7
928.8965	1970.1387	2343.3	1462
929.0346	1971.7393	2340.55	1456.75
929.1727	1973.3392	2337.05	1456.4
929.3108	1974.9383	2326.7	1444.8
929.4489	1976.5366	2330.65	1450.35
929.5869	1978.1342	2320.05	1437.65
929.7249	1979.7311	2312.55	1431.25
929.8629	1981.3273	2314.2	1431.95
930.0009	1982.9227	2305.15	1419.75
930.1388	1984.5173	2301.3	1420.35
930.2767	1986.1112	2302.35	1419.25
930.4146	1987.7044	2281.95	1401.95
930.5525	1989.2968	2296.35	1411.55
930.6904	1990.8885	2290.1	1403.1
930.8282	1992.4795	2290.35	1408.2
930.966	1994.0697	2278.85	1398.4
931.1038	1995.6592	2272.75	1390.05
931.2415	1997.2479	2270	1388.35
931.3793	1998.8359	2260.6	1380.55
931.517	2000.4232	2256.2	1375.2
931.6547	2002.0097	2258.8	1376.6
931.7923	2003.5955	2246.25	1362.75
931.93	2005.1805	2254.6	1371.15
932.0676	2006.7648	2246.8	1366
932.2052	2008.3484	2237	1353.4
932.3427	2009.9312	2251.15	1367.7
932.4803	2011.5133	2242.5	1360.45
932.6178	2013.0946	2237.9	1358.5
932.7553	2014.6752	2240.3	1359.55
932.8928	2016.2551	2234.4	1351.45
933.0302	2017.8342	2218.45	1336.45
933.1676	2019.4126	2221	1338.4
933.305	2020.9902	2217.75	1337.1
933.4424	2022.5672	2214.8	1332.65
933.5798	2024.1433	2212.9	1327.85
933.7171	2025.7188	2211.95	1330.15
933.8544	2027.2935	2197.1	1311.8
933.9917	2028.8674	2190.9	1308.05
934.129	2030.4406	2196.7	1314.75
934.2662	2032.0131	2174.65	1292.9
934.4034	2033.5849	2191.05	1304.2
934.5406	2035.1559	2180.85	1300.55
934.6778	2036.7261	2186	1307.05
934.8149	2038.2957	2169.85	1289.3
934.952	2039.8645	2175.35	1292.6
935.0891	2041.4325	2175.1	1290
935.2262	2042.9998	2176.75	1295.4
935.3632	2044.5664	2177.2	1291.7
935.5002	2046.1323	2169	1286.65
935.6372	2047.6974	2166.2	1283.35
935.7742	2049.2617	2163.75	1281.05
935.9111	2050.8254	2184.05	1267.7
936.048	2052.3883	2171.55	1288.7
936.1849	2053.9504	2151.8	1271.4
936.3218	2055.5118	2147.7	1264.7
936.4586	2057.0725	2143	1259
936.5955	2058.6325	2145.05	1262.2
936.7323	2060.1917	2134.15	1253.25
936.869	2061.7502	2130.85	1245.65
937.0058	2063.3079	2133.25	1250.5
937.1425	2064.8649	2124.6	1238.55
937.2792	2066.4212	2119.2	1234.45
937.4159	2067.9767	2118.4	1238.15
937.5525	2069.5315	2110.15	1230.15
937.6891	2071.0856	2113.4	1229.65
937.8257	2072.6389	2110.6	1226.6
937.9623	2074.1915	2098.7	1218.15
938.0989	2075.7433	2093.4	1209.75
938.2354	2077.2945	2092.55	1209.9
938.3719	2078.8448	2081.45	1199.85
938.5084	2080.3945	2083.15	1200.25
938.6448	2081.9434	2077.65	1194.95
938.7812	2083.4916	2081.8	1199.05
938.9176	2085.039	2079.3	1197.5
939.054	2086.5857	2063	1177.75
939.1903	2088.1317	2073.3	1192.8
939.3267	2089.677	2060.15	1176.85
939.463	2091.2215	2060.2	1176.9
939.5992	2092.7652	2058.9	1175.75
939.7355	2094.3083	2060.1	1176.45
939.8717	2095.8506	2054.8	1173.45
940.0079	2097.3921	2055.2	1175
940.1441	2098.933	2043.55	1161.3
940.2802	2100.4731	2053.1	1171.7
940.4163	2102.0124	2072.65	1173.95
940.5524	2103.5511	2046.35	1165.55
940.6885	2105.089	2044.7	1161.5
940.8245	2106.6261	2036.7	1156.75
940.9606	2108.1626	2039.1	1156.65
941.0965	2109.6983	2073.95	1161.75
941.2325	2111.2332	2032.35	1148.55
941.3684	2112.7675	2034.85	1152.7
941.5044	2114.301	2028.8	1146.6
941.6403	2115.8337	2024.05	1140.95
941.7761	2117.3657	2020.55	1137.9
941.912	2118.897	2027.55	1144.35
942.0478	2120.4276	2017.65	1128.3
942.1835	2121.9575	2011.8	1129.45
942.3193	2123.4866	2029.5	1133
942.455	2125.0149	2008.65	1125.4
942.5907	2126.5426	2000.55	1118.4
942.7264	2128.0695	2004.8	1117.35
942.8621	2129.5956	2001.55	1119.55
942.9977	2131.1211	2002.4	1115.35
943.1333	2132.6458	1987.6	1106
943.2689	2134.1698	1992.8	1111.6
943.4044	2135.693	1986.9	1102.25
943.54	2137.2155	1994.85	1111.15
943.6755	2138.7373	1984.3	1100.15
943.8109	2140.2584	1977.75	1094.7
943.9464	2141.7787	1972.95	1086.6
944.0818	2143.2983	1974.95	1092.5
944.2172	2144.8171	1964.95	1084
944.3526	2146.3353	1961.95	1075.95
944.4879	2147.8527	1948.05	1067.2
944.6232	2149.3693	1951.7	1068.25
944.7585	2150.8853	1952.6	1070.95
944.8938	2152.4005	1944.7	1060.65
945.029	2153.9149	1953.75	1073.35
945.1642	2155.4287	1948.5	1066.2
945.2994	2156.9417	1952.5	1070.3
945.4346	2158.454	1947.9	1061.65
945.5697	2159.9655	1947.85	1065.4
945.7048	2161.4764	1946.55	1065.95
945.8399	2162.9865	1942.45	1059.9
945.9749	2164.4958	1931.35	1049.5
946.1099	2166.0045	1925.15	1039.6
946.2449	2167.5124	1934.05	1051.55
946.3799	2169.0195	1916.35	1032.2
946.5148	2170.526	1929.25	1047.55
946.6498	2172.0317	1913.1	1031.3
946.7846	2173.5367	1929.15	1045.45
946.9195	2175.0409	1923.85	1042.15
947.0543	2176.5445	1919.45	1038.05
947.1891	2178.0473	1905.9	1024.35
947.3239	2179.5494	1910.75	1023.8
947.4587	2181.0507	1911.6	1028.5
947.5934	2182.5513	1902.25	1019.5
947.7281	2184.0512	1903.15	1021.45
947.8628	2185.5504	1904.75	1020.45
947.9974	2187.0488	1893	1010.95
948.132	2188.5465	1893.55	1010.45
948.2666	2190.0435	1888.75	1005.85
948.4012	2191.5397	1889.7	1008.65
948.5357	2193.0353	1888.55	1006.5
948.6702	2194.5301	1877.15	996.75
948.8047	2196.0241	1876.85	994.9
948.9392	2197.5175	1878.1	997.4
949.0736	2199.0101	1874	986.85
949.208	2200.502	1866.5	987.35
949.3424	2201.9931	1865	982.5
949.4767	2203.4835	1867.75	981.1
949.611	2204.9733	1877.05	976.6
949.7453	2206.4622	1860.4	979.45
949.8796	2207.9505	1857.05	972.05
950.0138	2209.438	1844.25	962.65
950.148	2210.9248	1848.5	965.2
950.2822	2212.4109	1838.95	958.75
950.4164	2213.8962	1840.65	958.5
950.5505	2215.3809	1837.2	954.1
950.6846	2216.8648	1838.05	955.35
950.8186	2218.3479	1829.7	943.05
950.9527	2219.8304	1829.7	946.2
951.0867	2221.3121	1828.25	944.85
951.2207	2222.7931	1829.8	946.95
951.3546	2224.2733	1823.45	940.1
951.4886	2225.7529	1822.7	939.9
951.6225	2227.2317	1811.35	926.3
951.7563	2228.7098	1812.3	930.6
951.8902	2230.1872	1803.65	920
952.024	2231.6638	1805.15	922.7
952.1578	2233.1397	1804.35	916.65
952.2916	2234.6149	1806.4	924.15
952.4253	2236.0894	1797.55	915.95
952.559	2237.5632	1800	908.6
952.6927	2239.0362	1798.1	915.6
952.8263	2240.5085	1790.95	908.95
952.9599	2241.9801	1784.65	899.9
953.0935	2243.4509	1776.05	894.6
953.2271	2244.921	1780.5	898.75
953.3606	2246.3904	1769	882.95
953.4941	2247.8591	1764.4	881.4
953.6276	2249.3271	1765.7	883.95
953.7611	2250.7943	1770.9	889.55
953.8945	2252.2608	1753.6	873.7
954.0279	2253.7266	1760.95	878.65
954.1612	2255.1917	1763.5	881.75
954.2946	2256.656	1759.3	876.25
954.4279	2258.1197	1753.8	872.85
954.5612	2259.5826	1754.4	871.65
954.6944	2261.0447	1752.65	868.1
954.8276	2262.5062	1745.05	859.05
954.9608	2263.9669	1743.7	861.15
955.094	2265.4269	1747.05	866.5
955.2271	2266.8862	1741.8	859.9
955.3602	2268.3448	1734.9	852.45
955.4933	2269.8026	1734.7	852.15
955.6264	2271.2598	1734.15	853.65
955.7594	2272.7162	1731.95	851
955.8924	2274.1719	1737.25	855.75
956.0253	2275.6268	1726.9	845.4
956.1583	2277.0811	1725.85	842.2
956.2912	2278.5346	1736.15	854.05
956.4241	2279.9874	1725.2	842.3
956.5569	2281.4395	1723.45	840.8
956.6897	2282.8908	1733.9	847.8
956.8225	2284.3414	1726.4	844
956.9553	2285.7914	1715.45	832.85
957.088	2287.2406	1713.6	829.5
957.2207	2288.689	1722.35	842.6
957.3534	2290.1368	1713.3	830.3
957.486	2291.5838	1710.1	827.3
957.6186	2293.0302	1705.35	822.2
957.7512	2294.4758	1704.9	821.95
957.8838	2295.9206	1700.65	816.4
958.0163	2297.3648	1703.6	822.25
958.1488	2298.8082	1708.6	824.15
958.2813	2300.251	1698	815.3
958.4137	2301.693	1698.05	811.35
958.5461	2303.1343	1699.2	816.9
958.6785	2304.5748	1686.25	806.55
958.8108	2306.0147	1691.05	806.9
958.9432	2307.4538	1692	806.95
959.0754	2308.8922	1686.35	805.45
959.2077	2310.3299	1678.4	795.9
959.3399	2311.7669	1672.2	791.6
959.4721	2313.2031	1673.2	791.15
959.6043	2314.6387	1676.55	794.35
959.7365	2316.0735	1672.05	791
959.8686	2317.5076	1676.6	794.3
960.0006	2318.941	1672.15	791.05
960.1327	2320.3737	1659.45	776.45
960.2647	2321.8056	1664.9	781.2
960.3967	2323.2369	1673.05	792.25
960.5287	2324.6674	1665.65	780.7
960.6606	2326.0972	1658.6	774.45
960.7925	2327.5263	1644.15	762.8
960.9244	2328.9547	1655.65	773.45
961.0562	2330.3823	1650.05	768.1
961.1881	2331.8092	1656.9	774.4
961.3198	2333.2355	1644.8	762.05
961.4516	2334.661	1649.65	767.1
961.5833	2336.0858	1648.3	765.25
961.715	2337.5098	1634.05	753.25
961.8467	2338.9332	1630.65	747.75
961.9783	2340.3558	1643.15	757.85
962.1099	2341.7778	1638.4	755.55
962.2415	2343.199	1638.25	753.7
962.373	2344.6195	1631	747.1
962.5045	2346.0393	1629.35	747.9
962.636	2347.4583	1635.55	754.25
962.7675	2348.8767	1635.3	752.45
962.8989	2350.2943	1625.75	743.45
963.0303	2351.7113	1626.55	743.75
963.1617	2353.1275	1624.65	743.45
963.293	2354.543	1629.9	740.05
963.4243	2355.9578	1633.15	751.15
963.5556	2357.3718	1623.55	740.25
963.6868	2358.7852	1620.15	733.45
963.818	2360.1978	1622.85	738.85
963.9492	2361.6098	1608.1	725.6
964.0803	2363.021	1612.25	725.7
964.2114	2364.4315	1610.55	728.6
964.3425	2365.8413	1607.75	725.2
964.4736	2367.2504	1612.5	730.3
964.6046	2368.6587	1601.4	718.95
964.7356	2370.0664	1594.4	710.95
964.8666	2371.4733	1604.8	722.5
964.9975	2372.8795	1604.55	721.4
965.1284	2374.285	1589.1	706.4
965.2593	2375.6899	1595.85	714.85
965.3901	2377.0939	1585.8	702.95
965.5209	2378.4973	1590.05	709.25
965.6517	2379.9	1580.1	697.75
965.7825	2381.3019	1585	702.1
965.9132	2382.7032	1582.8	703.7
966.0439	2384.1037	1583.65	702.1
966.1745	2385.5035	1582.1	699.75
966.3051	2386.9027	1571.35	689.2
966.4357	2388.3011	1584.4	699.15
966.5663	2389.6987	1572.75	691.05
966.6968	2391.0957	1570.2	687.65
966.8273	2392.492	1560.15	678.8
966.9578	2393.8876	1562.15	680.2
967.0882	2395.2824	1561.85	682.65
967.2186	2396.6765	1553.55	673.75
967.349	2398.07	1547.2	665.15
967.4793	2399.4627	1557	673.45
967.6097	2400.8547	1550.75	666.6
967.7399	2402.246	1558.15	669.45
967.8702	2403.6366	1546.9	664.7
968.0004	2405.0265	1538.65	655.25
968.1306	2406.4156	1544.9	657.7
968.2607	2407.8041	1551.65	666.2
968.3909	2409.1918	1544.85	660.15
968.521	2410.5789	1540.65	660.9
968.651	2411.9652	1536.55	650.55
968.781	2413.3508	1540.25	658.1
968.911	2414.7358	1528.35	645.35
969.041	2416.12	1534.05	653.55
969.1709	2417.5035	1534.55	652.05
969.3008	2418.8863	1530.1	647.45
969.4307	2420.2684	1529.2	646.75
969.5606	2421.6497	1525.15	641.85
969.6904	2423.0304	1522.2	642.35
969.8201	2424.4104	1528.4	645.15
969.9499	2425.7896	1534.3	645.8
970.0796	2427.1682	1520	636.65
970.2093	2428.546	1518	634.3
970.3389	2429.9232	1518.8	634.35
970.4685	2431.2996	1517.9	639.9
970.5981	2432.6753	1518.1	637.9
970.7277	2434.0503	1512.4	632
970.8572	2435.4246	1514.9	634.7
970.9867	2436.7982	1509.9	625.6
971.1161	2438.1711	1500.3	620
971.2456	2439.5433	1504.8	621.15
971.375	2440.9148	1504.1	617.45
971.5043	2442.2856	1495.4	614.25
971.6336	2443.6557	1499.8	616.75
971.7629	2445.025	1494.15	611.15
971.8922	2446.3937	1493.1	611.45
972.0214	2447.7617	1492.85	610.75
972.1506	2449.1289	1496.3	614.35
972.2798	2450.4955	1490	605.7
972.4089	2451.8613	1492.6	610.55
972.538	2453.2265	1486.2	604.75
972.6671	2454.5909	1489.75	606.25
972.7961	2455.9546	1485.35	603.2
972.9251	2457.3177	1480.9	600
973.0541	2458.68	1478.55	595.1
973.1831	2460.0416	1478.6	596.1
973.312	2461.4025	1479.95	595.5
973.4408	2462.7627	1487.2	594.35
973.5697	2464.1222	1473.55	593.75
973.6985	2465.4811	1481.15	597.8
973.8273	2466.8392	1472.6	590.2
973.956	2468.1966	1475.3	590.4
974.0847	2469.5533	1474.7	590.6
974.2134	2470.9093	1475.5	592.35
974.3421	2472.2645	1479.9	595
974.4707	2473.6191	1470.9	590.65
974.5993	2474.973	1465.95	585.25
974.7278	2476.3262	1471.3	586.8
974.8563	2477.6787	1466.5	585.05
974.9848	2479.0305	1457.1	575.8
975.1132	2480.3816	1461.3	576.65
975.2417	2481.7319	1467.2	583.5
975.37	2483.0816	1466.45	583.55
975.4984	2484.4306	1456.85	573.45
975.6267	2485.7789	1451.75	569.5
975.755	2487.1264	1457.4	573.6
975.8833	2488.4733	1444.7	563.1
976.0115	2489.8195	1469.1	569.6
976.1397	2491.165	1455.55	570.55
976.2678	2492.5097	1451.15	566.25
976.3959	2493.8538	1442.45	560.25
976.524	2495.1972	1446.25	565.25
976.6521	2496.5398	1442.55	560.15
976.7801	2497.8818	1443.85	560.25
976.9081	2499.2231	1439.05	556.35
977.036	2500.5637	1439.9	556.8
977.164	2501.9035	1437.6	555.2
977.2918	2503.2427	1441.7	555
977.4197	2504.5812	1441.95	560.3
977.5475	2505.919	1441.65	554.9
977.6753	2507.256	1430.75	549.55
977.8031	2508.5924	1431.7	549.7
977.9308	2509.9281	1432	544.15
978.0585	2511.2631	1431.2	550.5
978.1861	2512.5974	1422.8	541.1
978.3137	2513.9309	1426.15	544.3
978.4413	2515.2638	1447.5	534.55
978.5689	2516.596	1421.95	539.95
978.6964	2517.9275	1421.2	537.35
978.8239	2519.2583	1416.2	534.95
978.9513	2520.5884	1421.2	538.35
979.0788	2521.9178	1415.6	533.25
979.2062	2523.2465	1417.35	537.3
979.3335	2524.5745	1408.3	525.85
979.4608	2525.9018	1409.2	529.1
979.5881	2527.2284	1406.25	524.15
979.7154	2528.5543	1406.65	526.25
979.8426	2529.8796	1408.15	523.7
979.9698	2531.2041	1410	527.65
980.0969	2532.5279	1408.45	526.15
980.224	2533.851	1411.85	528.15
980.3511	2535.1735	1402.75	521.4
980.4781	2536.4952	1409.4	527.9
980.6052	2537.8163	1410.05	528.1
980.7321	2539.1366	1397.05	515.25
980.8591	2540.4562	1406.15	521.75
980.986	2541.7752	1407.2	525.75
981.1129	2543.0935	1402.95	519.9
981.2397	2544.411	1398.5	513.55
981.3665	2545.7279	1395.05	514.55
981.4933	2547.0441	1394.9	514.6
981.62	2548.3596	1399.75	515.1
981.7467	2549.6744	1399.15	517.05
981.8734	2550.9885	1403.8	514.35
982.0001	2552.3019	1396.75	516.65
982.1267	2553.6146	1394.75	512.4
982.2532	2554.9266	1388.5	506.85
982.3798	2556.2379	1390.45	505.7
982.5063	2557.5485	1379.6	496.9
982.6327	2558.8585	1398.15	508.85
982.7592	2560.1677	1397.8	514.45
982.8856	2561.4762	1389.45	507.6
983.0119	2562.7841	1390.45	505.65
983.1383	2564.0913	1389	508.2
983.2646	2565.3977	1391.45	510.7
983.3908	2566.7035	1385.45	502.65
983.517	2568.0086	1380.6	497.95
983.6432	2569.313	1384.15	501
983.7694	2570.6167	1386.25	503.8
983.8955	2571.9197	1383.75	502.2
984.0216	2573.222	1382.15	497.25
984.1476	2574.5236	1382.15	500.8
984.2737	2575.8246	1382.2	496.05
984.3996	2577.1248	1387.15	500.1
984.5256	2578.4244	1376.9	497.25
984.6515	2579.7232	1371.8	490
984.7774	2581.0214	1409.45	497.95
984.9032	2582.3189	1384.25	503.8
985.029	2583.6157	1386.95	501
985.1548	2584.9118	1383	499.6
985.2806	2586.2072	1383.25	502.35
985.4063	2587.5019	1381.55	500.2
985.5319	2588.7959	1379.1	498.4
985.6576	2590.0893	1377.55	494.15
985.7832	2591.3819	1379.8	497.35
985.9087	2592.6739	1370.15	490.1
986.0343	2593.9652	1381.2	495.9
986.1597	2595.2557	1375.8	495.85
986.2852	2596.5456	1378.65	495.5
986.4106	2597.8348	1378.8	499.6
986.536	2599.1234	1383.55	502.6
986.6614	2600.4112	1383.65	500.65
986.7867	2601.6983	1382.6	497.25
986.912	2602.9848	1374.3	491.5
987.0372	2604.2705	1385.65	495.25
987.1624	2605.5556	1375.15	493.4
987.2876	2606.84	1376.7	493.95
987.4128	2608.1237	1374.4	490.75
987.5379	2609.4067	1367.35	487.85
987.6629	2610.689	1374.1	482.45
987.788	2611.9707	1368.85	484.5
987.913	2613.2516	1367.65	480.6
988.0379	2614.5319	1366.6	483.2
988.1629	2615.8115	1362.75	480.35
988.2878	2617.0903	1363.85	481.1
988.4126	2618.3685	1358	475.05
988.5375	2619.6461	1355.55	474.25
988.6622	2620.9229	1358.65	478.7
988.787	2622.199	1359.3	476.6
988.9117	2623.4745	1356.85	471.4
989.0364	2624.7493	1350.7	469.95
989.161	2626.0234	1354.9	474.25
989.2857	2627.2968	1353.3	472.7
989.4102	2628.5695	1346.8	463.4
989.5348	2629.8415	1351	470.05
989.6593	2631.1128	1350.75	466.85
989.7837	2632.3835	1355.1	474.3
989.9082	2633.6535	1347.75	465.3
990.0326	2634.9228	1343.4	463.25
990.1569	2636.1914	1345.8	465.55
990.2812	2637.4593	1352.35	467.3
990.4055	2638.7265	1345.35	464.7
990.5298	2639.9931	1344.8	463
990.654	2641.259	1338.55	454.3
990.7782	2642.5242	1336.45	453.4
990.9023	2643.7887	1338.85	455.75
991.0264	2645.0525	1337.8	455.7
991.1505	2646.3156	1334.85	452.9
991.2745	2647.5781	1337.5	455.7
991.3985	2648.8398	1328.9	447.9
991.5225	2650.1009	1364.8	445.45
991.6464	2651.3613	1333.15	450.45
991.7703	2652.6211	1335.7	453.2
991.8942	2653.8801	1332.2	450.35
992.018	2655.1385	1333.4	449.55
992.1418	2656.3961	1327.9	445.95
992.2655	2657.6531	1332.2	449.55
992.3892	2658.9094	1334.6	452.8
992.5129	2660.1651	1331.3	448.6
992.6366	2661.42	1330.6	449.25
992.7602	2662.6743	1330.5	444.9
992.8837	2663.9279	1327.35	445.25
993.0073	2665.1808	1331.35	448.05
993.1307	2666.433	1335.85	451
993.2542	2667.6846	1336.05	455.25
993.3776	2668.9354	1344.75	459.05
993.501	2670.1856	1345	463
993.6244	2671.4351	1340.1	459.25
993.7477	2672.6839	1349.9	465
993.8709	2673.9321	1346.8	466.75
993.9942	2675.1795	1348.75	467.7
994.1174	2676.4263	1345.6	462.75
994.2405	2677.6724	1346.3	464.85
994.3637	2678.9179	1349.6	465.8
994.4868	2680.1626	1348.55	467.85
994.6098	2681.4067	1351.25	467.3
994.7328	2682.6501	1345.05	460.75
994.8558	2683.8928	1341	460.35
994.9788	2685.1348	1338.9	457.15
995.1017	2686.3761	1342.2	460.5
995.2245	2687.6168	1338.5	456.4
995.3474	2688.8568	1335.85	455.15
995.4702	2690.0961	1333.95	452.2
995.5929	2691.3348	1333.25	449.3
995.7156	2692.5727	1324.9	442.65
995.8383	2693.81	1327.85	446.8
995.961	2695.0466	1318.65	437.95
996.0836	2696.2826	1321.85	438.7
996.2062	2697.5178	1339.7	436.45
996.3287	2698.7524	1332.65	451.25
996.4512	2699.9863	1330.8	446
996.5737	2701.2195	1327.3	447.1
996.6961	2702.452	1339.05	455.65
996.8185	2703.6839	1337.45	456.2
996.9408	2704.9151	1334.5	451.65
997.0631	2706.1456	1340.15	458.6
997.1854	2707.3755	1344.85	462.4
997.3077	2708.6046	1347.05	464.85
997.4299	2709.8331	1355.7	473.95
997.552	2711.0609	1359.45	477.25
997.6742	2712.2881	1365.5	483.7
997.7963	2713.5145	1369.95	485.75
997.9183	2714.7403	1372.75	494.15
998.0403	2715.9654	1384.8	501.25
998.1623	2717.1899	1410.15	514.6
998.2842	2718.4136	1405.8	524.25
998.4062	2719.6367	1404.55	520.7
998.528	2720.8591	1424.1	537.15
998.6498	2722.0809	1424.85	542.35
998.7716	2723.3019	1438.45	553.6
998.8934	2724.5223	1443.05	559.85
999.0151	2725.7421	1447.35	564.05
999.1368	2726.9611	1457.2	572.75
999.2584	2728.1795	1457.95	569.9
999.38	2729.3972	1438.5	557.05
999.5016	2730.6142	1447.75	550.95
999.6231	2731.8306	1427.75	545.1
999.7446	2733.0462	1415.4	531.1
999.8661	2734.2612	1396.4	507.7
999.9875	2735.4756	1388.9	503.5
1000.1089	2736.6892	1377.15	494.8
1000.2302	2737.9022	1358	476.15
1000.3515	2739.1145	1354.35	472.95
1000.4728	2740.3262	1357.4	467.95
1000.594	2741.5372	1331.6	451.75
1000.7152	2742.7475	1329.45	447.75
1000.8363	2743.9571	1317.4	432.45
1000.9575	2745.1661	1323.75	437.75
1001.0785	2746.3744	1312.65	430.5
1001.1996	2747.582	1298.2	416.5
1001.3206	2748.7889	1293.65	409.5
1001.4415	2749.9952	1289.45	408.15
1001.5625	2751.2008	1282.45	398.95
1001.6833	2752.4057	1279.35	397.8
1001.8042	2753.61	1279.3	397.65
1001.925	2754.8136	1275.75	392.45
1002.0458	2756.0165	1274.2	393.05
1002.1665	2757.2188	1271.75	390.45
1002.2872	2758.4204	1277.05	394.35
1002.4078	2759.6213	1274.7	390.05
1002.5285	2760.8215	1279.9	391.95
1002.649	2762.0211	1276.6	390.85
1002.7696	2763.22	1277.45	391.7
1002.8901	2764.4182	1268.8	386.75
1003.0106	2765.6158	1266.65	384.8
1003.131	2766.8127	1265.4	383.1
1003.2514	2768.009	1258.35	376.5
1003.3717	2769.2045	1265.95	382.9
1003.492	2770.3994	1258.85	375.7
1003.6123	2771.5936	1259.6	377.2
1003.7325	2772.7872	1248.85	369.05
1003.8527	2773.9801	1253.5	370.1
1003.9729	2775.1723	1272.3	373.15
1004.093	2776.3639	1249.2	368.2
1004.2131	2777.5548	1251.15	365.7
1004.3331	2778.745	1254.05	372.2
1004.4531	2779.9346	1252.1	370.6
1004.5731	2781.1235	1250.9	365.55
1004.693	2782.3117	1254.35	372.5
1004.8129	2783.4992	1254.4	373.05
1004.9328	2784.6861	1250.65	368.05
1005.0526	2785.8723	1263.3	380.7
1005.1723	2787.0579	1262.25	379.8
1005.2921	2788.2428	1268.35	388.6
1005.4118	2789.427	1269.4	386.9
1005.5314	2790.6106	1270.3	389.45
1005.651	2791.7935	1277.6	394.75
1005.7706	2792.9757	1283.2	400.9
1005.8902	2794.1573	1289.5	405.5
1006.0097	2795.3382	1296.1	414.8
1006.1291	2796.5184	1296	417
1006.2485	2797.698	1313.9	428.95
1006.3679	2798.8769	1320.2	439.15
1006.4873	2800.0551	1326.7	445.5
1006.6066	2801.2327	1334.2	449.75
1006.7258	2802.4096	1343.95	462.65
1006.8451	2803.5859	1362.15	480.15
1006.9642	2804.7615	1380.65	498.85
1007.0834	2805.9364	1389.7	506.95
1007.2025	2807.1106	1404.15	522.95
1007.3216	2808.2842	1424.1	542.15
1007.4406	2809.4572	1447.5	565.85
1007.5596	2810.6294	1461.55	578.75
1007.6785	2811.801	1491.6	611.4
1007.7975	2812.972	1524.5	643.3
1007.9163	2814.1423	1563.05	682.45
1008.0352	2815.3119	1592.3	711.45
1008.154	2816.4808	1628.25	746.8
1008.2727	2817.6491	1661.85	779.65
1008.3914	2818.8167	1711.4	826.9
1008.5101	2819.9837	1754.4	869.3
1008.6288	2821.15	1787.75	905.4
1008.7474	2822.3157	1836.9	956.65
1008.8659	2823.4807	1884.05	1003.2
1008.9844	2824.645	1946.3	1064.35
1009.1029	2825.8086	1978.3	1098.95
1009.2214	2826.9716	2032.85	1153.95
1009.3398	2828.134	2073.15	1190.35
1009.4581	2829.2957	2114.95	1234.05
1009.5764	2830.4567	2120.05	1240
1009.6947	2831.617	2151.55	1269.2
1009.813	2832.7767	2161.8	1280.3
1009.9312	2833.9358	2175.95	1293.65
1010.0493	2835.0941	2148.95	1265.3
1010.1675	2836.2519	2148.05	1265.25
1010.2855	2837.4089	2124.85	1243.15
1010.4036	2838.5653	2105.95	1225
1010.5216	2839.7211	2096	1215.9
1010.6396	2840.8761	2101.75	1217.9
1010.7575	2842.0306	2088.05	1208
1010.8754	2843.1843	2107.6	1226.6
1010.9932	2844.3374	2143.05	1261.65
1011.111	2845.4899	2171.45	1287.55
1011.2288	2846.6417	2209.75	1328.55
1011.3465	2847.7928	2264.4	1383.65
1011.4642	2848.9433	2299.1	1415.8
1011.5818	2850.0931	2359.95	1478
1011.6995	2851.2422	2412.05	1528.55
1011.817	2852.3907	2456.55	1572.25
1011.9345	2853.5385	2486.75	1604.35
1012.052	2854.6857	2567.05	1659
1012.1695	2855.8323	2567.3	1685.7
1012.2869	2856.9781	2609.65	1726.55
1012.4042	2858.1233	2659.4	1776.35
1012.5216	2859.2679	2695.8	1813.5
1012.6389	2860.4118	2721.95	1840.55
1012.7561	2861.555	2780.3	1895.5
1012.8733	2862.6976	2804.85	1920.2
1012.9905	2863.8395	2836.15	1956.6
1013.1076	2864.9808	2861.9	1979.8
1013.2247	2866.1214	2867.6	1988.1
1013.3417	2867.2614	2880.35	1997.5
1013.4587	2868.4007	2898.8	2015.35
1013.5757	2869.5393	2915.95	2033.3
1013.6926	2870.6773	2929.75	2043.8
1013.8095	2871.8146	2936.3	2051.65
1013.9263	2872.9513	2945.4	2061.1
1014.0431	2874.0874	2930.45	2048.05
1014.1599	2875.2227	2919.65	2037.95
1014.2766	2876.3574	2903.85	2022.45
1014.3933	2877.4915	2888.7	2007.55
1014.51	2878.6249	2863.05	1982.9
1014.6266	2879.7577	2837.75	1953.4
1014.7431	2880.8898	2828.85	1937.5
1014.8596	2882.0212	2804.2	1922.55
1014.9761	2883.152	2813.4	1930.1
1015.0925	2884.2821	2797.7	1915.55
1015.2089	2885.4116	2797.7	1914.65
1015.3253	2886.5405	2804.05	1920.65
1015.4416	2887.6686	2803.7	1920.55
1015.5579	2888.7962	2810.2	1929.1
1015.6741	2889.923	2813.7	1933.7
1015.7903	2891.0493	2819.7	1939.45
1015.9065	2892.1748	2829.8	1946.35
1016.0226	2893.2997	2830.6	1950.35
1016.1387	2894.424	2853.2	1972.9
1016.2547	2895.5476	2866	1984.85
1016.3707	2896.6706	2878.15	1995.6
1016.4866	2897.7929	2889.2	2006.85
1016.6025	2898.9145	2910.3	2028.65
1016.7184	2900.0355	2930.4	2048.3
1016.8342	2901.1559	2959.9	2078.7
1016.95	2902.2756	2983.2	2101.3
1017.0658	2903.3946	3002.3	2119.95
1017.1815	2904.513	3034.65	2150.05
1017.2971	2905.6308	3042.85	2161.55
1017.4127	2906.7479	3065.4	2182.6
1017.5283	2907.8643	3089.65	2207.35
1017.6439	2908.9801	3094.95	2214.35
1017.7594	2910.0953	3089.65	2208.05
1017.8748	2911.2098	3096.2	2208.9
1017.9902	2912.3236	3083.6	2195.95
1018.1056	2913.4368	3077.8	2191.8
1018.2209	2914.5494	3052.95	2170.65
1018.3362	2915.6613	3029.9	2142.65
1018.4515	2916.7725	3007.55	2123.25
1018.5667	2917.8831	2989.2	2106.25
1018.6819	2918.9931	2974.65	2090.25
1018.797	2920.1024	2939.15	2055.1
1018.9121	2921.211	2904.4	2022.1
1019.0271	2922.319	2901.85	2020.3
1019.1421	2923.4264	2897.95	2019.25
1019.2571	2924.5331	2880.35	2000.1
1019.372	2925.6391	2891.55	2010.6
1019.4869	2926.7445	2890.65	2011.25
1019.6017	2927.8493	2894.65	2013.1
1019.7165	2928.9534	2895.8	2011.6
1019.8313	2930.0569	2908.05	2024.45
1019.946	2931.1597	2911.9	2031.15
1020.0606	2932.2619	2900.6	2018.65
1020.1753	2933.3634	2903.3	2021.15
1020.2899	2934.4643	2923.8	2035.85
1020.4044	2935.5645	2916.55	2028.9
1020.5189	2936.6641	2886.55	2000.3
1020.6334	2937.763	2873.55	1992.5
1020.7478	2938.8613	2845.55	1962.6
1020.8622	2939.959	2827.75	1939.5
1020.9765	2941.056	2770.4	1887.6
1021.0908	2942.1523	2714.55	1831.65
1021.2051	2943.248	2653.55	1769.7
1021.3193	2944.3431	2590.65	1709.15
1021.4334	2945.4375	2505.35	1622.2
1021.5476	2946.5313	2431	1551
1021.6617	2947.6244	2355.9	1469.7
1021.7757	2948.7169	2283.7	1399.45
1021.8897	2949.8087	2208.15	1324.25
1022.0037	2950.8999	2129.95	1247.7
1022.1176	2951.9904	2068.9	1188.95
1022.2315	2953.0803	2024.6	1141.9
1022.3453	2954.1696	1971.8	1089.15
1022.4591	2955.2582	1932.2	1050.1
1022.5728	2956.3462	1901.2	1018.8
1022.6865	2957.4335	1864.1	982.6
1022.8002	2958.5202	1843.6	958.2
1022.9138	2959.6062	1816.95	934.6
1023.0274	2960.6916	1801.15	920
1023.141	2961.7764	1780.9	898.3
1023.2545	2962.8605	1764.25	883
1023.3679	2963.9439	1758.8	877
1023.4813	2965.0267	1748.85	864.4
1023.5947	2966.1089	1763.85	859.45
1023.708	2967.1905	1736.2	853.25
1023.8213	2968.2714	1748.05	866.55
1023.9346	2969.3516	1740.35	858.55
1024.0478	2970.4312	1757.1	869.05
1024.1609	2971.5102	1749.65	867.9
1024.274	2972.5885	1752.75	870.75
1024.3871	2973.6662	1758.45	872.15
1024.5002	2974.7432	1760.55	880.05
1024.6132	2975.8196	1755.3	872.6
1024.7261	2976.8954	1754.6	875.05
1024.839	2977.9705	1737.7	855.1
1024.9519	2979.045	1732.25	850.8
1025.0647	2980.1188	1716.9	836.85
1025.1775	2981.192	1708.75	829.5
1025.2902	2982.2645	1697.15	814.85
1025.4029	2983.3364	1683.6	801
1025.5156	2984.4077	1650.75	769.6
1025.6282	2985.4783	1642.75	755.1
1025.7407	2986.5483	1612.7	731.95
1025.8532	2987.6177	1581	698.5
1025.9657	2988.6864	1557.2	674.55
1026.0782	2989.7545	1532.75	651.65
1026.1906	2990.8219	1506.25	627.25
1026.3029	2991.8887	1483.4	598.4
1026.4152	2992.9548	1456	573.2
1026.5275	2994.0204	1437.9	558.15
1026.6397	2995.0852	1404.2	525.1
1026.7519	2996.1495	1389.15	505.3
1026.864	2997.2131	1365.7	483.9
1026.9761	2998.276	1343.8	462.15
1027.0882	2999.3383	1333.75	452.4
1027.2002	3000.4	1313.35	429.7
1027.3122	3001.4611	1298.15	414.25
1027.4241	3002.5215	1289.4	407.15
1027.536	3003.5812	1272.8	389.95
1027.6478	3004.6404	1267.4	387
1027.7596	3005.6989	1255.75	372.2
1027.8714	3006.7567	1240.1	361.1
1027.9831	3007.8139	1264.3	356.9
1028.0947	3008.8705	1231.55	350.35
1028.2064	3009.9264	1239	339.5
1028.3179	3010.9818	1212.75	330.8
1028.4295	3012.0364	1208.45	327.85
1028.541	3013.0905	1201.2	319.45
1028.6524	3014.1439	1200.55	317.85
1028.7638	3015.1966	1196.15	313.75
1028.8752	3016.2487	1191.5	308.85
1028.9865	3017.3002	1190.7	302.6
1029.0978	3018.3511	1184.9	304.85
1029.209	3019.4013	1180.6	297.4
1029.3202	3020.4509	1179.05	300.4
1029.4314	3021.4998	1178.9	296.3
1029.5425	3022.5481	1180.4	300.25
1029.6535	3023.5958	1169.75	288.3
1029.7645	3024.6428	1177.3	295.15
1029.8755	3025.6892	1179	299.15
1029.9864	3026.735	1176.25	291.35
1030.0973	3027.7802	1178.1	297.5
1030.2082	3028.8247	1168.8	286.65
1030.319	3029.8685	1179.25	296.4
1030.4297	3030.9118	1183.9	301.3
1030.5404	3031.9544	1181.7	299.55
1030.6511	3032.9963	1179.8	297.6
1030.7617	3034.0376	1181.9	301.05
1030.8723	3035.0783	1182.9	299.5
1030.9829	3036.1184	1190.1	309.15
1031.0934	3037.1578	1187.4	305.9
1031.2038	3038.1966	1187.05	302.5
1031.3142	3039.2348	1191.8	310.1
1031.4246	3040.2723	1197.65	306.25
1031.5349	3041.3092	1191.2	310.35
1031.6452	3042.3455	1188.3	306
1031.7554	3043.3811	1186.55	304.45
1031.8656	3044.4161	1188	306.05
1031.9758	3045.4505	1184.95	305.2
1032.0859	3046.4842	1184.8	302.15
1032.1959	3047.5173	1178.05	296.15
1032.3059	3048.5498	1182.65	299.9
1032.4159	3049.5816	1177.85	296.85
1032.5258	3050.6128	1183.05	299.6
1032.6357	3051.6434	1173.95	290.35
1032.7455	3052.6734	1171.35	287.8
1032.8553	3053.7027	1166.75	283.8
1032.9651	3054.7314	1164.4	281.95
1033.0748	3055.7594	1167.95	286.6
1033.1845	3056.7868	1165.85	282.8
1033.2941	3057.8136	1156.15	276.6
1033.4037	3058.8398	1160.35	280.25
1033.5132	3059.8653	1161.6	279.55
1033.6227	3060.8902	1157.7	275.25
1033.7321	3061.9145	1158.25	276.05
1033.8415	3062.9381	1158.15	276.4
1033.9509	3063.9612	1170.65	271.7
1034.0602	3064.9835	1151.4	270.35
1034.1694	3066.0053	1154.65	271.35
1034.2787	3067.0264	1144.3	261.85
1034.3878	3068.0469	1151.45	269.35
1034.497	3069.0668	1138.9	253.25
1034.6061	3070.086	1133.8	253.65
1034.7151	3071.1046	1136.8	254.05
1034.8241	3072.1226	1128	246.3
1034.9331	3073.1399	1120.75	238.65
1035.042	3074.1567	1120.55	237.85
1035.1508	3075.1727	1112.3	226.85
1035.2597	3076.1882	1108.15	225.6
1035.3684	3077.203	1096.95	213.7
1035.4772	3078.2173	1102.95	220.8
1035.5859	3079.2308	1093.4	207.05
1035.6945	3080.2438	1085.05	200.5
1035.8031	3081.2561	1082.95	200.6
1035.9117	3082.2678	1079.5	198.5
1036.0202	3083.2789	1072	189.25
1036.1286	3084.2893	1065.85	184.85
1036.2371	3085.2991	1064.65	185
1036.3454	3086.3083	1068.7	182.4
1036.4538	3087.3169	1059.2	176.65
1036.562	3088.3248	1055.35	170.7
1036.6703	3089.3321	1050.95	168.35
1036.7785	3090.3388	1044.3	162.8
1036.8866	3091.3449	1042.45	161.1
1036.9948	3092.3503	1047.05	162.8
1037.1028	3093.3551	1037.3	156.7
1037.2108	3094.3593	1035.3	153.9
1037.3188	3095.3629	1033.5	153.3
1037.4267	3096.3658	1030.1	146.2
1037.5346	3097.3681	1027.7	146.35
1037.6425	3098.3698	1030.45	146.8
1037.7503	3099.3708	1033.45	146
1037.858	3100.3713	1024.7	144.75
1037.9657	3101.3711	1022.7	140.55
1038.0734	3102.3702	1159.85	136.7
1038.181	3103.3688	1016.6	132.25
1038.2886	3104.3667	1010.2	129
1038.3961	3105.364	1011.95	131.6
1038.5036	3106.3607	1020.45	137
1038.611	3107.3568	1008.75	124.05
1038.7184	3108.3522	1007.4	126.95
1038.8257	3109.347	1007.05	124.55
1038.933	3110.3412	1012.8	128.05
1039.0403	3111.3348	1002.85	121.15
1039.1475	3112.3277	998.1	116.5
1039.2547	3113.32	1003.45	121.75
1039.3618	3114.3117	1003.2	121.2
1039.4689	3115.3028	1001.55	117.3
1039.5759	3116.2932	996.15	113.05
1039.6829	3117.2831	1001.6	115.5
1039.7898	3118.2723	994.7	114.9
1039.8967	3119.2608	995.1	112.25
1040.0035	3120.2488	995.35	113.1
1040.1103	3121.2361	989.9	106.4
1040.2171	3122.2229	987.4	105.45
1040.3238	3123.209	986.95	105.4
1040.4305	3124.1944	986.25	104.85
1040.5371	3125.1793	991	107.6
1040.6437	3126.1635	986.75	105.3
1040.7502	3127.1471	983.4	100.8
1040.8567	3128.1301	982.55	102.55
1040.9631	3129.1125	980.75	97.1
1041.0695	3130.0942	979.65	98.3
1041.1759	3131.0753	991.85	102.7
1041.2822	3132.0558	986.65	104.5
1041.3884	3133.0357	979.55	99.7
1041.4946	3134.015	976.5	94.6
1041.6008	3134.9936	976.15	94.7
1041.7069	3135.9716	999.05	95.7
1041.813	3136.949	976.85	94.05
1041.919	3137.9258	991.4	89.65
1042.025	3138.902	980.9	93.45
1042.1309	3139.8775	974.7	92.15
1042.2368	3140.8524	972.75	90.8
1042.3427	3141.8267	970.25	87.85
1042.4485	3142.8004	972.95	89.1
1042.5542	3143.7735	978.55	90.9
1042.6599	3144.7459	973.3	89.45
1042.7656	3145.7178	969.15	86
1042.8712	3146.689	969.5	89.65
1042.9768	3147.6596	970.25	84.55
1043.0823	3148.6295	963.2	81.65
1043.1878	3149.5989	968.8	87.3
1043.2932	3150.5676	964.7	83.75
1043.3986	3151.5357	963.55	82.5
1043.5039	3152.5032	962.85	80.1
1043.6092	3153.4701	963	82.9
1043.7145	3154.4364	966.8	83.25
1043.8197	3155.402	964	80.65
1043.9248	3156.367	961.65	79.3
1044.03	3157.3315	978.6	76.9
1044.135	3158.2952	964.35	82.65
1044.24	3159.2584	961.9	79.2
1044.345	3160.221	959.35	77.6
1044.4499	3161.1829	958.85	77.05
1044.5548	3162.1442	958.9	77
1044.6596	3163.105	962.7	81.75
1044.7644	3164.065	958.3	77.3
1044.8692	3165.0245	957.45	74.2
1044.9739	3165.9834	955.35	75.1
1045.0785	3166.9416	955.95	72.9
1045.1831	3167.8993	955.75	73.9
1045.2877	3168.8563	953.3	70.2
1045.3922	3169.8127	952.5	74.8
1045.4966	3170.7684	953.05	69.75
1045.6011	3171.7236	954.65	73
1045.7054	3172.6782	951.95	69.5
1045.8098	3173.6321	953.45	71.1
1045.914	3174.5854	957.95	73.3
1046.0183	3175.5381	953.65	72.2
1046.1224	3176.4902	951.2	69.85
1046.2266	3177.4417	950.85	68.8
1046.3307	3178.3926	948.95	66.75
1046.4347	3179.3428	951	68.4
1046.5387	3180.2924	949.45	68
1046.6427	3181.2415	948.25	67
1046.7466	3182.1899	950.9	66.5
1046.8504	3183.1377	945.45	64.3
1046.9542	3184.0848	951.1	67.45
1047.058	3185.0314	946.35	64.25
1047.1617	3185.9773	949.4	66.45
1047.2654	3186.9227	948.15	65.5
1047.369	3187.8674	946.5	65
1047.4726	3188.8115	949.7	63.9
1047.5761	3189.755	945.15	62.5
1047.6796	3190.6979	944.95	64.15
1047.783	3191.6402	943.55	61.2
1047.8864	3192.5818	943.95	64.15
1047.9898	3193.5229	963.25	61.75
1048.0931	3194.4633	943.65	61.45
1048.1963	3195.4031	942.7	62.1
1048.2995	3196.3423	942.45	61.45
1048.4027	3197.2809	943.1	60.25
1048.5058	3198.2189	942.95	60.55
1048.6089	3199.1563	949.6	59.95
1048.7119	3200.0931	941.7	60.15
1048.8148	3201.0292	942.6	63.15
1048.9178	3201.9648	939.95	55.85
1049.0206	3202.8997	940.95	57.3
1049.1235	3203.834	942.95	60.55
1049.2262	3204.7677	939.85	57.4
1049.329	3205.7008	940.35	56.7
1049.4317	3206.6333	937.05	56.95
1049.5343	3207.5652	940.65	56.75
1049.6369	3208.4964	939.2	57
1049.7394	3209.4271	935.9	54.05
1049.8419	3210.3571	934.55	51.6
1049.9444	3211.2865	940.5	59.15
1050.0468	3212.2154	938.15	53
1050.1491	3213.1436	942.15	55.55
1050.2514	3214.0712	942.35	53.15
1050.3537	3214.9982	934.4	51.35
1050.4559	3215.9246	937.7	55.75
1050.5581	3216.8503	935.55	55.85
1050.6602	3217.7755	936.3	54.35
1050.7623	3218.7001	935.75	53.25
1050.8643	3219.624	934.25	52.2
1050.9663	3220.5473	935.45	54.25
1051.0682	3221.4701	934.95	50.2
1051.1701	3222.3922	938.9	53.4
1051.2719	3223.3137	933.15	51.8
1051.3737	3224.2346	934.2	52.65
1051.4754	3225.1549	933.85	52.15
1051.5771	3226.0746	933.45	52.85
1051.6788	3226.9937	932.6	51.8
1051.7804	3227.9121	932.7	51.15
1051.8819	3228.83	931.65	52.15
1051.9834	3229.7473	933.25	53.35
1052.0849	3230.6639	931.55	49.3
1052.1863	3231.5799	929.4	49.9
1052.2876	3232.4954	930.2	46.2
1052.3889	3233.4102	930.65	50.2
1052.4902	3234.3244	928.85	45.1
1052.5914	3235.238	928.75	47.75
1052.6926	3236.151	956.05	52.4
1052.7937	3237.0634	928.25	45.6
1052.8948	3237.9752	928.25	48.6
1052.9958	3238.8864	928	46.75
1053.0968	3239.797	927.95	45.2
1053.1977	3240.7069	925.75	45.05
1053.2986	3241.6163	931.45	46.35
1053.3994	3242.5251	927	46.8
1053.5002	3243.4332	923.8	43.25
1053.6009	3244.3408	926.65	42.7
1053.7016	3245.2477	927.05	46.1
1053.8022	3246.154	928.85	46.15
1053.9028	3247.0598	929.95	49.3
1054.0034	3247.9649	926.5	44.65
1054.1039	3248.8694	922.05	41.75
1054.2043	3249.7733	924.95	43.4
1054.3047	3250.6766	921	40.65
1054.4051	3251.5793	925.5	41.65
1054.5054	3252.4814	923.65	42.5
1054.6056	3253.3829	919.3	36.95
1054.7058	3254.2838	922.55	39.25
1054.806	3255.1841	920.85	38.85
1054.9061	3256.0838	920.9	40.15
1055.0061	3256.9829	923.05	44.05
1055.1062	3257.8814	924.15	39.75
1055.2061	3258.7792	920.75	38.3
1055.306	3259.6765	921.35	37.7
1055.4059	3260.5731	919.1	37.3
1055.5057	3261.4692	919.85	39.4
1055.6055	3262.3647	920.85	37.35
1055.7052	3263.2595	917.15	35.2
1055.8049	3264.1538	916.35	32.75
1055.9045	3265.0474	917.65	34.7
1056.0041	3265.9404	917.55	36.6
1056.1036	3266.8329	912.35	31.2
1056.2031	3267.7247	924.05	31.05
1056.3025	3268.616	915.1	34.05
1056.4019	3269.5066	913.55	30.6
1056.5013	3270.3966	916.55	33.55
1056.6005	3271.286	911.4	30
