Software Version:	3.9.2.0
Unit SN:	10000200
Spectrometer SN:	6960
Date:	3/14/2024 1:21:15 PM
Data Line Index:	25
Spectral Points:	2048
Integration time (ms):	125
Averages:	20
Delay (ms):	30000
Sequence Number:	1
Processing:	dark subtract
Laser Power (mW):	300
Laser Current (mA):	825
Laser Diode Temp (C):	25
Laser Case Temp (C):	28.3
System Temp (C):	28.4
Spectrometer Temp (C):	26.1
CCD Temp (C):	0.007
Secondary Temp (C):	20.013
Heatsink Temp (C):	24.275
CCDPCB Temp (C):	38.019
SecondaryPCB Temp (C):	35.495

Wavelength	RamanShift	Raw Counts	Dark Subtracted
787.061	30.1047	454.25	43.2
787.2016	32.3739	456.95	48.1
787.3422	34.6426	462.15	51.3
787.4828	36.9109	465.2	52.95
787.6235	39.1787	475.9	60.55
787.7642	41.4461	483.55	64.35
787.9049	43.7131	492.2	67.1
788.0456	45.9796	498.95	71.95
788.1863	48.2456	509.6	77
788.3271	50.5112	515.95	79.2
788.4679	52.7764	525.75	87.75
788.6087	55.0411	534.05	93.15
788.7496	57.3054	547.3	98.4
788.8904	59.5692	554.8	105.25
789.0313	61.8326	565.05	110.4
789.1722	64.0955	579.4	121.4
789.3132	66.3579	597.6	135.9
789.4541	68.6199	616.35	150.65
789.5951	70.8815	650.6	179.8
789.7361	73.1426	711.2	239.25
789.8771	75.4032	898.85	420.75
790.0181	77.6634	1354.95	872.1
790.1592	79.9231	2421.65	1934.55
790.3003	82.1824	4759.05	4260.55
790.4414	84.4412	8966.6	8455.5
790.5825	86.6995	14823.95	14292.9
790.7237	88.9574	20600	20052.15
790.8648	91.2148	24660.35	24099.45
791.006	93.4717	26561.9	25989.75
791.1472	95.7282	26949.75	26375.35
791.2885	97.9842	26784.9	26205.95
791.4297	100.2398	26195.5	25617.6
791.571	102.4949	25534.4	24954.2
791.7123	104.7495	24784.25	24196.75
791.8536	107.0036	23992	23402
791.9949	109.2573	23293.5	22705.4
792.1363	111.5105	22664.1	22076
792.2777	113.7632	22079.25	21489.6
792.4191	116.0154	21634.9	21035.4
792.5605	118.2672	21336.65	20744.8
792.7019	120.5185	20969.85	20374.6
792.8434	122.7693	20720.15	20123
792.9849	125.0197	20484.35	19885.4
793.1264	127.2696	20278.55	19673.8
793.2679	129.519	20110.95	19503.7
793.4094	131.7679	19893.05	19284.95
793.551	134.0163	19672	19060.4
793.6926	136.2642	19416.7	18798.65
793.8342	138.5117	19094.75	18474.25
793.9758	140.7587	18757.75	18140.65
794.1175	143.0052	18513.3	17890.45
794.2591	145.2512	18236.75	17613.05
794.4008	147.4967	17938.6	17312.1
794.5425	149.7417	17751.3	17123.35
794.6842	151.9863	17576.7	16946.45
794.826	154.2304	17475.5	16844.55
794.9677	156.4739	17281.8	16642.6
795.1095	158.717	17265.25	16627.9
795.2513	160.9596	17109.85	16465.7
795.3931	163.2017	16911.75	16269.3
795.535	165.4433	16671.95	16024.9
795.6768	167.6844	16398.35	15747.55
795.8187	169.925	16115.15	15465.1
795.9606	172.1651	15840.15	15185.65
796.1025	174.4047	15623.15	14964.3
796.2445	176.6439	15376.5	14717.6
796.3864	178.8825	15208.45	14547.65
796.5284	181.1206	15118	14450.1
796.6704	183.3582	14965.4	14295.15
796.8124	185.5954	14864.6	14195.05
796.9544	187.832	14783.05	14106.8
797.0965	190.0681	14770	14094.7
797.2386	192.3037	14766.55	14086.85
797.3806	194.5388	14760.1	14077.65
797.5228	196.7734	14742.6	14058.4
797.6649	199.0075	14821.95	14137.25
797.807	201.2411	14930.4	14239.05
797.9492	203.4742	14971.6	14281.5
798.0914	205.7068	15111.7	14419.05
798.2336	207.9389	15177.25	14484.25
798.3758	210.1704	15322.15	14626.7
798.518	212.4015	15404.35	14703.25
798.6603	214.632	15506.85	14807.1
798.8025	216.862	15634	14940.55
798.9448	219.0915	15694.4	15010.1
799.0871	221.3205	15779.6	15099.05
799.2294	223.549	15834.5	15160.85
799.3718	225.777	15908.7	15232.8
799.5141	228.0044	15967.05	15287.25
799.6565	230.2314	16078.35	15401.4
799.7989	232.4578	16173.2	15494.9
799.9413	234.6837	16240.95	15552.8
800.0837	236.909	16295.75	15608.85
800.2262	239.1339	16329.85	15616.95
800.3687	241.3582	16278.7	15580.9
800.5111	243.582	16194.1	15470.7
800.6536	245.8053	16120.7	15406.1
800.7961	248.0281	16067.2	15355.4
800.9387	250.2503	16042.7	15325.6
801.0812	252.472	16087.75	15369.25
801.2238	254.6932	16197.2	15477.3
801.3664	256.9139	16258	15534.25
801.509	259.134	16421.75	15694.65
801.6516	261.3536	16590.5	15863.65
801.7942	263.5727	16800.45	16071.85
801.9369	265.7912	16988.9	16264.6
802.0795	268.0092	17282.8	16554.25
802.2222	270.2267	17441.35	16713.4
802.3649	272.4436	17582.95	16850.95
802.5076	274.6601	17618.15	16882.25
802.6504	276.8759	17553	16821.6
802.7931	279.0913	17476.65	16744.45
802.9359	281.3061	17380	16642.1
803.0787	283.5204	17338.6	16602.7
803.2215	285.7341	17337.85	16594.35
803.3643	287.9473	17335.45	16584.05
803.5071	290.16	17350.3	16600.65
803.6499	292.3721	17400.4	16657.2
803.7928	294.5837	17521.9	16777.85
803.9357	296.7947	17688.3	16944.55
804.0786	299.0052	17814.95	17071.6
804.2215	301.2152	17829.9	17083.35
804.3644	303.4246	17722.65	16979.65
804.5074	305.6334	17465.65	16719.6
804.6503	307.8418	17138.9	16388.45
804.7933	310.0495	16788.85	16039.2
804.9363	312.2568	16416.6	15671.35
805.0793	314.4635	16048.05	15297.35
805.2223	316.6696	15770.3	15017.45
805.3653	318.8752	15546.6	14787
805.5084	321.0802	15445.25	14695.25
805.6514	323.2847	15428.7	14677.35
805.7945	325.4887	15439.1	14684.95
805.9376	327.692	15461.35	14705.75
806.0807	329.8949	15468	14713.1
806.2238	332.0972	15312	14552.65
806.367	334.2989	15117.2	14356.75
806.5101	336.5001	14924.65	14163.9
806.6533	338.7007	14776.05	14012.25
806.7965	340.9008	14635.95	13871.15
806.9397	343.1003	14455.4	13689.9
807.0829	345.2992	14322.9	13557.25
807.2261	347.4976	14233.55	13467.35
807.3693	349.6955	14138.6	13369.95
807.5126	351.8927	14152.6	13381.75
807.6559	354.0895	14042.35	13258.85
807.7991	356.2856	13989.65	13218.15
807.9424	358.4812	13940.45	13167.25
808.0857	360.6763	13961.45	13188.45
808.2291	362.8707	13889.65	13113.75
808.3724	365.0646	13945.75	13167.6
808.5158	367.258	13957.1	13177.1
808.6591	369.4508	13990.35	13207.95
808.8025	371.643	14072.5	13292.15
808.9459	373.8346	14134.35	13347.65
809.0893	376.0257	14223.95	13437.75
809.2327	378.2162	14256.05	13467.25
809.3762	380.4062	14237.55	13444.9
809.5196	382.5956	14182.15	13389.25
809.6631	384.7844	14064.55	13274.8
809.8066	386.9726	13920.95	13128.6
809.9501	389.1603	13839.5	13048.7
810.0936	391.3474	13794.2	12973.15
810.2371	393.5339	13729.4	12935.45
810.3806	395.7199	13657.9	12870.9
810.5241	397.9052	13696.55	12909
810.6677	400.09	13755.5	12972.45
810.8113	402.2743	13873.85	13089.2
810.9548	404.4579	13986.9	13205.4
811.0984	406.641	14166	13384.35
811.2421	408.8235	14307.15	13522.65
811.3857	411.0054	14421.85	13633.85
811.5293	413.1868	14585.1	13795.45
811.673	415.3675	14644.75	13855.65
811.8166	417.5477	14612.35	13824.85
811.9603	419.7273	14589.1	13796.05
812.104	421.9064	14487.45	13686.05
812.2477	424.0848	14404.75	13608.7
812.3914	426.2627	14270.75	13471.35
812.5351	428.4399	14082.2	13281.5
812.6788	430.6166	13807.75	13005.2
812.8226	432.7928	13522.75	12718.15
812.9663	434.9683	13257.3	12450.65
813.1101	437.1432	13040.25	12232.2
813.2539	439.3176	12899.8	12094.3
813.3977	441.4914	12761.95	11951.95
813.5415	443.6645	12707.35	11897.8
813.6853	445.8371	12642.6	11832.05
813.8291	448.0091	12586.7	11776.75
813.973	450.1806	12574.8	11765.4
814.1168	452.3514	12555.3	11743.4
814.2607	454.5216	12542.25	11721.85
814.4046	456.6913	12531.05	11719.75
814.5485	458.8603	12569.3	11755.45
814.6924	461.0288	12613.6	11801
814.8363	463.1967	12573.3	11762.85
814.9802	465.3639	12589.1	11774.7
815.1241	467.5306	12587.55	11773.6
815.2681	469.6967	12598.15	11782.7
815.412	471.8622	12586.9	11771.15
815.556	474.0271	12609.7	11797.1
815.7	476.1914	12612.55	11795.5
815.844	478.3551	12594.4	11775.95
815.988	480.5182	12613.25	11795.3
816.132	482.6807	12691.75	11872.8
816.276	484.8426	12842.2	12024.05
816.4201	487.0039	13121.15	12304.55
816.5641	489.1647	13427.05	12607.5
816.7082	491.3248	13699.15	12881
816.8522	493.4843	13775.6	12957.95
816.9963	495.6432	13768.4	12950.1
817.1404	497.8015	13636.3	12810.15
817.2845	499.9592	13504.9	12684.55
817.4286	502.1163	13334.9	12513.25
817.5727	504.2728	13074.8	12250.5
817.7168	506.4287	12872	12051.15
817.861	508.5839	12594.45	11770.6
818.0051	510.7386	12411.9	11589.85
818.1493	512.8927	12313.75	11483.45
818.2935	515.0461	12280.95	11457
818.4377	517.199	12323.45	11497.3
818.5818	519.3512	12430.3	11607.25
818.726	521.5029	12686.85	11858.7
818.8703	523.6539	12885.8	12056.4
819.0145	525.8043	12992.45	12163.7
819.1587	527.9541	12944.8	12115.45
819.303	530.1033	12768.35	11941.65
819.4472	532.2519	12617.5	11790.55
819.5915	534.3999	12558.6	11728.25
819.7357	536.5472	12541.3	11713.45
819.88	538.694	12726.5	11897.45
820.0243	540.8401	12906.25	12076
820.1686	542.9856	13062.1	12231.9
820.3129	545.1305	13101.6	12270.85
820.4572	547.2748	13046.15	12212.85
820.6016	549.4185	12911.45	12076.9
820.7459	551.5615	12782.95	11950.3
820.8902	553.704	12758.6	11922.35
821.0346	555.8458	12826.15	11992.55
821.1789	557.987	12943	12108.75
821.3233	560.1276	13111.6	12273.55
821.4677	562.2675	13447.65	12613.4
821.6121	564.4069	13852.65	13020.15
821.7565	566.5456	14246.75	13412.75
821.9009	568.6837	14396.35	13563.05
822.0453	570.8212	14114.75	13282.55
822.1897	572.958	13532.65	12695.7
822.3342	575.0942	12990.2	12153.8
822.4786	577.2299	12573.05	11735.6
822.6231	579.3648	12354.4	11518.95
822.7675	581.4992	12275.7	11437
822.912	583.6329	12340.35	11505.05
823.0565	585.766	12449.3	11615.15
823.201	587.8985	12562.8	11727.45
823.3454	590.0304	12614.65	11755.45
823.4899	592.1616	12583.85	11743.2
823.6345	594.2922	12486.4	11648.5
823.779	596.4222	12337.5	11498.3
823.9235	598.5515	12151.1	11313.9
824.068	600.6802	11991.6	11153.35
824.2126	602.8083	11811.8	10971.35
824.3571	604.9358	11796.45	10955
824.5017	607.0626	11794.9	10952.2
824.6462	609.1888	11860	11019.5
824.7908	611.3144	11989.05	11146.05
824.9354	613.4393	12077.55	11235.5
825.08	615.5636	12215.15	11375.35
825.2246	617.6873	12236	11396
825.3692	619.8103	12217.55	11375.45
825.5138	621.9327	12030.6	11185.7
825.6584	624.0544	11844.45	11002.55
825.803	626.1756	11680.75	10838.45
825.9477	628.2961	11530.45	10687.6
826.0923	630.4159	11456	10612.75
826.237	632.5351	11428.25	10583.85
826.3816	634.6537	11380.85	10534.7
826.5263	636.7716	11392.85	10547.6
826.6709	638.8889	11385.8	10540.75
826.8156	641.0056	11395.05	10549.6
826.9603	643.1216	11398.25	10550.5
827.105	645.237	11377.8	10529.3
827.2497	647.3518	11273	10425
827.3944	649.4659	11210.9	10363.3
827.5391	651.5793	11163.3	10316.25
827.6838	653.6922	11093.95	10246.5
827.8285	655.8043	11072.7	10226.45
827.9733	657.9159	11090.75	10243.45
828.118	660.0268	11078.05	10224.6
828.2627	662.137	11043.5	10193.2
828.4075	664.2466	11041.85	10191.1
828.5522	666.3556	11061.5	10212.7
828.697	668.4639	10998.75	10144.65
828.8418	670.5716	10991.25	10142.6
828.9865	672.6786	10902.75	10052.1
829.1313	674.785	10847	9993.85
829.2761	676.8907	10816.3	9964.45
829.4209	678.9958	10822.15	9969.95
829.5657	681.1002	10792.45	9943.25
829.7105	683.204	10770.05	9915.3
829.8553	685.3072	10737.1	9882
830.0001	687.4097	10736.25	9882.2
830.1449	689.5115	10731.6	9873.6
830.2898	691.6127	10699.95	9845.85
830.4346	693.7132	10651.8	9799.75
830.5794	695.8131	10686.65	9818.4
830.7243	697.9123	10724.7	9869.25
830.8691	700.0109	10718.35	9863.1
831.014	702.1089	10754.95	9901.1
831.1588	704.2061	10757.45	9901.2
831.3037	706.3028	10818.25	9960.15
831.4486	708.3987	10830.8	9974.1
831.5935	710.4941	10855.25	9998.8
831.7383	712.5887	10874.8	10018.7
831.8832	714.6827	10935.55	10072.55
832.0281	716.7761	11007	10149.7
832.173	718.8688	11151.1	10295.15
832.3179	720.9608	11252.35	10392.85
832.4628	723.0522	11387.5	10524.4
832.6077	725.1429	11427.55	10571.9
832.7527	727.233	11496.4	10639.05
832.8976	729.3224	11561.8	10704.05
833.0425	731.4112	11538.6	10678.85
833.1874	733.4993	11374.05	10515.3
833.3324	735.5867	11205.85	10343.1
833.4773	737.6735	11018.35	10155.6
833.6222	739.7596	10807.6	9946.85
833.7672	741.845	10677.45	9815.5
833.9122	743.9298	10577.1	9712.25
834.0571	746.014	10533.6	9676.15
834.2021	748.0974	10498.25	9635.3
834.347	750.1802	10501.65	9640.25
834.492	752.2624	10524.3	9663.3
834.637	754.3439	10514.35	9651.85
834.782	756.4247	10590.8	9718.5
834.9269	758.5048	10712.5	9851.7
835.0719	760.5843	10911.8	10048.5
835.2169	762.6631	11239.75	10378.45
835.3619	764.7413	11695.45	10834.6
835.5069	766.8188	12250.65	11387.95
835.6519	768.8956	12796.85	11935.25
835.7969	770.9718	13134.45	12272.65
835.9419	773.0473	13123.55	12262.5
836.0869	775.1221	12943.1	12079.85
836.232	777.1962	12733.15	11867.2
836.377	779.2697	12667.45	11804.2
836.522	781.3426	12731.6	11859.95
836.667	783.4147	12857.7	11992.8
836.8121	785.4862	12886.95	12025.55
836.9571	787.557	12752.25	11889.8
837.1021	789.6271	12339.7	11476.6
837.2472	791.6966	11797.7	10933.6
837.3922	793.7654	11269.25	10407.65
837.5373	795.8335	10864.65	9999.95
837.6823	797.901	10563.2	9700.75
837.8274	799.9678	10394.75	9526.7
837.9724	802.0339	10305.2	9443.35
838.1175	804.0993	10251.9	9377.65
838.2626	806.1641	10202.85	9334.6
838.4076	808.2282	10130.65	9266.35
838.5527	810.2916	10074.45	9205.2
838.6978	812.3544	10005.85	9144.2
838.8428	814.4164	9937.25	9074.2
838.9879	816.4778	9941.05	9072.65
839.133	818.5385	9985.1	9118.95
839.2781	820.5986	10074.8	9208.65
839.4232	822.658	10263.1	9395.9
839.5682	824.7166	10516.5	9652.9
839.7133	826.7747	10969.1	10102.5
839.8584	828.832	11452.9	10588
840.0035	830.8886	11783	10915.05
840.1486	832.9446	11950.8	11082.8
840.2937	834.9999	11884.15	11021.05
840.4388	837.0545	11653.5	10782.3
840.5839	839.1085	11331.1	10465.8
840.729	841.1618	11011.3	10142
840.8741	843.2143	10771.9	9904.9
841.0192	845.2662	10579.8	9714.85
841.1643	847.3175	10448.4	9581.35
841.3095	849.368	10339.7	9472.7
841.4546	851.4179	10261.8	9395.3
841.5997	853.467	10169.2	9303.05
841.7448	855.5155	10098.4	9231.5
841.8899	857.5633	10021.25	9153.65
842.0351	859.6105	9941.35	9074.6
842.1802	861.6569	9862.05	8993.9
842.3253	863.7027	9780.05	8909.75
842.4704	865.7478	9748.75	8880.2
842.6156	867.7922	9693.55	8826.45
842.7607	869.8359	9658.35	8790.35
842.9058	871.8789	9669.9	8801.7
843.0509	873.9212	9749.85	8844.85
843.1961	875.9629	9778.3	8910.25
843.3412	878.0039	9884.85	9015.65
843.4863	880.0441	9949.6	9079.75
843.6315	882.0837	9977.9	9106.25
843.7766	884.1226	10025.55	9153.25
843.9218	886.1609	10055.35	9186.85
844.0669	888.1984	10150.4	9282.4
844.212	890.2352	10263.2	9395.95
844.3572	892.2714	10301.3	9428.95
844.5023	894.3069	10279.85	9410.85
844.6475	896.3416	10148.1	9277.35
844.7926	898.3757	9963.75	9095.5
844.9377	900.4091	9871.2	8999.65
845.0829	902.4418	9828.3	8952.55
845.228	904.4739	9857.2	8985.85
845.3732	906.5052	9881.7	9009.6
845.5183	908.5358	9871.15	9001.3
845.6635	910.5658	9772.65	8902.1
845.8086	912.595	9605.4	8734.45
845.9538	914.6236	9452.35	8583.25
846.0989	916.6515	9310.5	8440.05
846.2441	918.6786	9183.6	8312.35
846.3892	920.7051	9157.8	8283.85
846.5344	922.7309	9202.1	8328.85
846.6795	924.756	9181	8306.95
846.8246	926.7804	9248.05	8371.1
846.9698	928.8041	9252.6	8379.5
847.1149	930.8272	9282.3	8410.2
847.2601	932.8495	9242.75	8369.25
847.4052	934.8711	9277.2	8407.1
847.5504	936.892	9209.2	8336.35
847.6955	938.9123	9207	8334.2
847.8407	940.9318	9234	8359.4
847.9858	942.9506	9227.55	8355.3
848.131	944.9688	9178.15	8304.95
848.2761	946.9862	9117.25	8244.85
848.4213	949.003	8966.7	8093.75
848.5664	951.019	8879.25	8006.7
848.7115	953.0344	8785.15	7912.65
848.8567	955.0491	8772.5	7899.3
849.0018	957.063	8804.15	7929.95
849.147	959.0763	8857.3	7983.65
849.2921	961.0888	8854.85	7981.25
849.4373	963.1007	8889.65	8012.85
849.5824	965.1119	8905.75	8031.75
849.7275	967.1223	8875.6	8001.35
849.8727	969.1321	8859.2	7984.55
850.0178	971.1412	8871.15	7998.7
850.1629	973.1495	8846.7	7971.75
850.3081	975.1572	8856.7	7949.1
850.4532	977.1641	8821.65	7948.1
850.5983	979.1704	8813.45	7938.85
850.7435	981.1759	8765.95	7887.55
850.8886	983.1808	8791.55	7918
851.0337	985.1849	8803.1	7916.2
851.1788	987.1884	8801.05	7925.2
851.324	989.1911	8903.8	8024.1
851.4691	991.1932	8954.35	8079.65
851.6142	993.1945	8976.35	8100.35
851.7593	995.1951	8931	8055.5
851.9045	997.1951	8916.9	8036.2
852.0496	999.1943	8867.85	7994.65
852.1947	1001.1928	8884.55	8009
852.3398	1003.1906	8901.95	8027.15
852.4849	1005.1877	8998.95	8121.85
852.63	1007.1841	9073.4	8197.15
852.7751	1009.1798	9090.75	8217.4
852.9202	1011.1748	9035	8159.85
853.0653	1013.1691	8910.1	8032.3
853.2104	1015.1627	8752.5	7875.4
853.3555	1017.1556	8561.3	7685.6
853.5006	1019.1477	8428.05	7550.55
853.6457	1021.1392	8335.15	7461.75
853.7908	1023.1299	8282.8	7406.1
853.9359	1025.12	8285.25	7406.05
854.081	1027.1093	8351.85	7474.9
854.2261	1029.0979	8419.1	7545.35
854.3712	1031.0859	8479.3	7600.8
854.5163	1033.0731	8540.2	7664.15
854.6613	1035.0596	8506.65	7629.7
854.8064	1037.0454	8399.15	7523.7
854.9515	1039.0304	8319.2	7440.95
855.0965	1041.0148	8230.85	7355.45
855.2416	1042.9985	8122.75	7245.6
855.3867	1044.9814	8081.45	7206.55
855.5317	1046.9636	8025.15	7145
855.6768	1048.9452	8007	7131.95
855.8219	1050.926	8038.35	7163.75
855.9669	1052.9061	8052.4	7175.6
856.112	1054.8855	8059.05	7182.55
856.257	1056.8642	8086.6	7208.5
856.4021	1058.8421	8103.25	7222
856.5471	1060.8194	8129.75	7253.1
856.6921	1062.7959	8168.35	7291.2
856.8372	1064.7717	8213.4	7334.05
856.9822	1066.7469	8276.6	7397.45
857.1272	1068.7213	8338.95	7458.6
857.2723	1070.695	8382.25	7505.7
857.4173	1072.6679	8419.55	7544.4
857.5623	1074.6402	8443.5	7567.4
857.7073	1076.6117	8451.6	7569.3
857.8523	1078.5826	8343.65	7465.15
857.9973	1080.5527	8236.2	7357.35
858.1423	1082.5221	8114.1	7236.5
858.2873	1084.4908	8064.1	7189.9
858.4323	1086.4587	8066.35	7187.1
858.5773	1088.426	8076.55	7199.1
858.7223	1090.3925	8114.9	7233.05
858.8673	1092.3584	8121.5	7242.8
859.0123	1094.3235	8095.25	7221.65
859.1573	1096.2879	8188.95	7307.9
859.3022	1098.2515	8271.3	7392.45
859.4472	1100.2145	8432.6	7555.75
859.5922	1102.1767	8572.15	7692.05
859.7371	1104.1382	8776.65	7897.5
859.8821	1106.099	8991.3	8112.2
860.027	1108.0591	9202	8325
860.172	1110.0185	9338.75	8460.7
860.3169	1111.9771	9425.55	8548.1
860.4619	1113.9351	9359.2	8480.15
860.6068	1115.8923	9249.3	8370.05
860.7517	1117.8488	9154.7	8275.25
860.8967	1119.8045	8995.45	8115.6
861.0416	1121.7596	8864.9	7984.25
861.1865	1123.7139	8704.3	7825.5
861.3314	1125.6675	8659.7	7782.4
861.4763	1127.6204	8682.05	7804.5
861.6212	1129.5726	8636	7756.8
861.7661	1131.524	8581.15	7703.35
861.911	1133.4748	8444.7	7565.8
862.0559	1135.4248	8280.85	7401.45
862.2008	1137.3741	8140.85	7262.3
862.3457	1139.3226	8021.75	7142.3
862.4905	1141.2705	7977.55	7100.7
862.6354	1143.2176	7889	7002.9
862.7803	1145.164	7857.55	6977.55
862.9251	1147.1097	7796.4	6917.65
863.07	1149.0546	7706.1	6825.9
863.2148	1150.9989	7606.9	6725.2
863.3597	1152.9424	7528.75	6649.35
863.5045	1154.8852	7463	6584.35
863.6493	1156.8272	7412.9	6535.15
863.7942	1158.7686	7422.45	6537.05
863.939	1160.7092	7428.45	6550.05
864.0838	1162.6491	7443.5	6562.95
864.2286	1164.5883	7531.75	6653.75
864.3734	1166.5267	7607.85	6725.15
864.5182	1168.4644	7732.2	6853.65
864.663	1170.4014	7897.85	7015.3
864.8078	1172.3377	8091.95	7213.4
864.9526	1174.2732	8344.9	7464.3
865.0974	1176.2081	8723.15	7846.75
865.2421	1178.1421	9142.5	8258.35
865.3869	1180.0755	9603.15	8724.15
865.5317	1182.0082	9945.15	9065
865.6764	1183.9401	10120.05	9237.35
865.8212	1185.8713	10031.95	9152.85
865.9659	1187.8017	9769.95	8890.55
866.1106	1189.7315	9394.05	8514.05
866.2554	1191.6605	9036.85	8130.85
866.4001	1193.5888	8754.9	7879.05
866.5448	1195.5163	8572.45	7693.9
866.6895	1197.4432	8475.3	7593.55
866.8342	1199.3693	8401.45	7521.5
866.9789	1201.2947	8339.75	7455.9
867.1236	1203.2193	8312.65	7433.6
867.2683	1205.1432	8303.6	7423.55
867.413	1207.0664	8257.1	7375.55
867.5576	1208.9889	8251.45	7366.15
867.7023	1210.9106	8251.95	7372.5
867.847	1212.8316	8259.3	7380.05
867.9916	1214.7519	8279.95	7389.7
868.1363	1216.6715	8311.05	7432.85
868.2809	1218.5903	8388.2	7509.7
868.4255	1220.5084	8427.3	7548.2
868.5701	1222.4257	8541.5	7662.7
868.7148	1224.3424	8579.1	7700.3
868.8594	1226.2583	8702.35	7818.55
869.004	1228.1735	8821.85	7941
869.1486	1230.0879	8962.9	8082.55
869.2932	1232.0016	9129.35	8249.35
869.4377	1233.9146	9285.55	8403.9
869.5823	1235.8269	9326.8	8446.7
869.7269	1237.7384	9308.75	8428.6
869.8715	1239.6492	9192.25	8312.4
870.016	1241.5592	9169.65	8291.8
870.1606	1243.4686	9202.05	8321.35
870.3051	1245.3772	9359.2	8479.85
870.4496	1247.285	9568.4	8686.95
870.5941	1249.1922	9761.2	8881.25
870.7387	1251.0986	9928.35	9047.8
870.8832	1253.0042	10044.35	9164.3
871.0277	1254.9092	10150.45	9269.45
871.1722	1256.8134	10258.95	9380
871.3167	1258.7169	10405.1	9522.6
871.4611	1260.6196	10506.1	9627.1
871.6056	1262.5216	10687	9805.3
871.7501	1264.4229	10851.7	9972.7
871.8945	1266.3234	11019.15	10138.7
872.039	1268.2232	11119.85	10240.05
872.1834	1270.1223	11166.8	10283.1
872.3278	1272.0207	11201.2	10320.6
872.4723	1273.9183	11191.9	10305.5
872.6167	1275.8151	11147.6	10267.2
872.7611	1277.7113	11131.2	10250.05
872.9055	1279.6067	11218.65	10337.35
873.0499	1281.5014	11422.45	10540.3
873.1943	1283.3953	11821.6	10939.45
873.3386	1285.2885	12318.8	11438.9
873.483	1287.181	12829.05	11948.15
873.6274	1289.0727	13359.55	12480.15
873.7717	1290.9637	13735.7	12853.8
873.9161	1292.854	13960.8	13080.7
874.0604	1294.7435	13982.05	13101
874.2047	1296.6323	13837.75	12956.15
874.349	1298.5204	13622.15	12738.7
874.4933	1300.4077	13388.6	12505.9
874.6376	1302.2943	13131.4	12248.8
874.7819	1304.1802	12804.1	11925.7
874.9262	1306.0653	12380.3	11496.4
875.0705	1307.9497	11938.6	11056.95
875.2147	1309.8333	11501.8	10621.4
875.359	1311.7162	11181.7	10300.1
875.5032	1313.5984	10970.25	10086.15
875.6475	1315.4798	10842.7	9949.05
875.7917	1317.3605	10748.15	9850.55
875.9359	1319.2405	10657.85	9776.4
876.0801	1321.1197	10440.15	9557.55
876.2243	1322.9982	10155.35	9270.1
876.3685	1324.876	9904.9	9023.5
876.5127	1326.753	9610.1	8730.6
876.6569	1328.6293	9381.4	8499.8
876.801	1330.5048	9190.35	8308
876.9452	1332.3796	9012.1	8131.9
877.0893	1334.2537	8927.7	8019.2
877.2335	1336.127	8806.8	7923.95
877.3776	1337.9996	8751.3	7870.65
877.5217	1339.8714	8718.95	7837.55
877.6658	1341.7426	8733.45	7808.1
877.8099	1343.6129	8725.65	7842.1
877.954	1345.4826	8714.75	7832.85
878.0981	1347.3515	8693.3	7808.15
878.2422	1349.2196	8671.05	7790.2
878.3862	1351.087	8697.3	7815.8
878.5303	1352.9537	8736.85	7854.75
878.6743	1354.8197	8819	7937.15
878.8184	1356.6849	8956.45	8075.4
878.9624	1358.5493	9078.85	8198.3
879.1064	1360.4131	9275.05	8394.35
879.2504	1362.276	9394.95	8515.05
879.3944	1364.1383	9441.1	8559.05
879.5384	1365.9998	9371.6	8486.25
879.6823	1367.8606	9109.7	8225.45
879.8263	1369.7206	8831.85	7949.35
879.9702	1371.5799	8584.5	7700.25
880.1142	1373.4384	8336.4	7455.1
880.2581	1375.2962	8125	7242.1
880.402	1377.1533	7850.85	6969.85
880.5459	1379.0096	7539.45	6655.1
880.6898	1380.8652	7247.65	6366.65
880.8337	1382.7201	6981	6098.2
880.9776	1384.5742	6788.05	5906.05
881.1215	1386.4275	6631.05	5749
881.2653	1388.2802	6494.3	5612.95
881.4092	1390.132	6391.8	5509.95
881.553	1391.9832	6332.05	5449.15
881.6968	1393.8336	6270.85	5387.35
881.8406	1395.6832	6236.5	5353.65
881.9844	1397.5322	6188.1	5305
882.1282	1399.3803	6161.1	5274.7
882.272	1401.2278	6119.55	5236.5
882.4158	1403.0745	6108.9	5227.65
882.5595	1404.9204	6080.4	5197.7
882.7033	1406.7656	6083.2	5200.1
882.847	1408.6101	6078.1	5197.45
882.9908	1410.4538	6106.9	5225.15
883.1345	1412.2968	6152.1	5269.55
883.2782	1414.139	6170.6	5289.5
883.4219	1415.9805	6215.25	5333.55
883.5656	1417.8213	6282	5393.7
883.7092	1419.6613	6372.9	5489.25
883.8529	1421.5006	6503.15	5620.5
883.9965	1423.3391	6677.3	5794.45
884.1402	1425.1769	6914.3	6029.25
884.2838	1427.0139	7237.85	6353.75
884.4274	1428.8502	7690.3	6807.25
884.571	1430.6858	8122.8	7239.05
884.7146	1432.5206	8463.45	7580.25
884.8582	1434.3547	8637.35	7754.15
885.0018	1436.188	8689.5	7807.3
885.1453	1438.0206	8652.45	7770.45
885.2889	1439.8524	8519.4	7639
885.4324	1441.6835	8394.35	7513.05
885.5759	1443.5139	8341.6	7454.3
885.7194	1445.3435	8265	7382.65
885.8629	1447.1724	8234.55	7353.05
886.0064	1449.0005	8196.2	7315.05
886.1499	1450.8279	8150.85	7265
886.2933	1452.6545	8127.3	7245.15
886.4368	1454.4804	8167.15	7286.9
886.5802	1456.3056	8162.85	7271.4
886.7237	1458.13	8107.05	7224.6
886.8671	1459.9536	8006.65	7124.9
887.0105	1461.7766	7776.6	6896.1
887.1539	1463.5987	7528.15	6645.7
887.2972	1465.4202	7272.5	6392.6
887.4406	1467.2409	6986.8	6103.8
887.584	1469.0608	6748.85	5868
887.7273	1470.88	6559.05	5675.9
887.8706	1472.6984	6340.75	5459.4
888.0139	1474.5161	6166.8	5284
888.1572	1476.3331	6037.6	5155.2
888.3005	1478.1493	5952.05	5070.15
888.4438	1479.9648	5866.4	4983.35
888.5871	1481.7795	5798.25	4916
888.7303	1483.5935	5759.1	4877.8
888.8736	1485.4067	5710.05	4828.4
889.0168	1487.2192	5667.4	4784.3
889.16	1489.031	5657.1	4773.8
889.3032	1490.842	5611.2	4728.35
889.4464	1492.6522	5601.5	4718.65
889.5896	1494.4618	5565.95	4682.25
889.7327	1496.2705	5551.3	4668.45
889.8759	1498.0785	5493.95	4611.9
890.019	1499.8858	5483.1	4600.9
890.1622	1501.6924	5426.65	4543.1
890.3053	1503.4981	5418.5	4537.9
890.4484	1505.3032	5395.4	4514.05
890.5914	1507.1075	5332.8	4449.3
890.7345	1508.911	5315	4432.45
890.8776	1510.7138	5274.4	4390.7
891.0206	1512.5159	5236.15	4354.15
891.1637	1514.3172	5194.85	4312.65
891.3067	1516.1178	5141.85	4261
891.4497	1517.9176	5133.95	4250.1
891.5927	1519.7166	5118.15	4234.65
891.7357	1521.515	5096.3	4206.35
891.8786	1523.3126	5062.9	4180.85
892.0216	1525.1094	5052.9	4168.55
892.1645	1526.9055	5022.25	4140
892.3074	1528.7008	5012.85	4131.1
892.4503	1530.4954	4994.5	4106
892.5932	1532.2893	4977.25	4097.5
892.7361	1534.0824	4951.75	4064.35
892.879	1535.8747	4958.9	4075.7
893.0218	1537.6663	4941.85	4056
893.1647	1539.4572	4945.7	4064.25
893.3075	1541.2473	4945.85	4062.75
893.4503	1543.0367	4941.2	4059.75
893.5931	1544.8253	4970.4	4084
893.7359	1546.6132	4994	4107.95
893.8787	1548.4003	4995.25	4103.7
894.0214	1550.1867	5038.35	4146.6
894.1642	1551.9723	5086.25	4199.65
894.3069	1553.7572	5160.1	4275.55
894.4496	1555.5414	5244.9	4361.55
894.5923	1557.3247	5366.5	4481.8
894.735	1559.1074	5512.65	4630.85
894.8777	1560.8893	5669.15	4787.75
895.0204	1562.6705	5814.15	4932.85
895.163	1564.4509	5954.6	5071.75
895.3056	1566.2305	6034	5153.55
895.4482	1568.0094	6077.4	5196.9
895.5908	1569.7876	6078.7	5195.9
895.7334	1571.565	6076.85	5195.6
895.876	1573.3417	6076.85	5194.5
896.0186	1575.1176	6079.2	5196
896.1611	1576.8928	6079.55	5197.35
896.3036	1578.6672	6095.1	5213.25
896.4461	1580.4409	6109.1	5228.5
896.5886	1582.2138	6174.4	5289.4
896.7311	1583.986	6241.65	5357.95
896.8736	1585.7575	6325.05	5445.85
897.0161	1587.5282	6410.65	5529.65
897.1585	1589.2981	6520.85	5637.65
897.3009	1591.0673	6594.95	5712.2
897.4433	1592.8358	6718.95	5834.35
897.5857	1594.6035	6799.6	5915.9
897.7281	1596.3704	6867.65	5986.15
897.8705	1598.1366	6918.6	6036.65
898.0128	1599.9021	6992.05	6110.2
898.1551	1601.6668	7061.2	6176.05
898.2975	1603.4308	7136.85	6252.8
898.4398	1605.194	7254.8	6368.25
898.5821	1606.9564	7429.65	6548.95
898.7243	1608.7182	7642.9	6754.75
898.8666	1610.4791	7915.4	7032.8
899.0088	1612.2394	8186.45	7304.4
899.1511	1613.9988	8501.85	7619.4
899.2933	1615.7576	8774.65	7892.25
899.4355	1617.5156	8988.6	8100.9
899.5776	1619.2728	9081	8200.3
899.7198	1621.0293	9003.2	8121.15
899.862	1622.785	8823.95	7938.85
900.0041	1624.54	8533.85	7648.8
900.1462	1626.2942	8198.55	7316.85
900.2883	1628.0477	7806	6919.5
900.4304	1629.8005	7466.7	6581.15
900.5725	1631.5525	7141.7	6261.05
900.7145	1633.3037	6878.5	5996.25
900.8566	1635.0542	6670.45	5789.1
900.9986	1636.804	6477.8	5592.95
901.1406	1638.553	6352.65	5417.3
901.2826	1640.3013	6230.4	5349.65
901.4245	1642.0488	6167.85	5285.2
901.5665	1643.7955	6174.35	5292.15
901.7085	1645.5416	6182.2	5300.35
901.8504	1647.2868	6218.65	5337.1
901.9923	1649.0313	6306.3	5425.25
902.1342	1650.7751	6400.1	5514.75
902.2761	1652.5181	6519.95	5639.6
902.4179	1654.2604	6609.25	5729.65
902.5598	1656.0019	6800.35	5919.25
902.7016	1657.7427	6990.75	6111.4
902.8434	1659.4828	7207.85	6327.15
902.9852	1661.222	7344.85	6463.7
903.127	1662.9606	7389.1	6508.85
903.2687	1664.6984	7246.95	6366.1
903.4105	1666.4354	6961.15	6080.05
903.5522	1668.1717	6526.95	5645.3
903.6939	1669.9072	6071.9	5189.1
903.8356	1671.642	5670.15	4788.05
903.9773	1673.3761	5360.7	4480.1
904.119	1675.1094	5082	4202.05
904.2606	1676.8419	4877	3994.45
904.4022	1678.5737	4714.45	3834.35
904.5439	1680.3048	4575.45	3693.1
904.6855	1682.0351	4478	3598.4
904.827	1683.7646	4370.9	3486.55
904.9686	1685.4934	4318.4	3437.9
905.1101	1687.2215	4250.75	3370.75
905.2517	1688.9488	4187.8	3306.9
905.3932	1690.6754	4120.65	3238.6
905.5347	1692.4012	4096.7	3216.85
905.6761	1694.1263	4070.9	3191.25
905.8176	1695.8506	4031.2	3148.5
905.9591	1697.5742	4011.55	3131.4
906.1005	1699.297	3975.95	3093.5
906.2419	1701.0191	3922.6	3040.85
906.3833	1702.7404	3900.4	3018.55
906.5246	1704.461	3878.2	2996.2
906.666	1706.1808	3842.55	2960.2
906.8073	1707.8999	3827.3	2944.45
906.9487	1709.6182	3798.05	2915.2
907.09	1711.3358	3774.4	2892.85
907.2313	1713.0527	3763.1	2883
907.3725	1714.7688	3738.35	2852.35
907.5138	1716.4841	3731.15	2846.15
907.655	1718.1987	3734.25	2848.35
907.7962	1719.9126	3710.5	2830.7
907.9374	1721.6257	3673.2	2788.85
908.0786	1723.338	3671.65	2787.45
908.2198	1725.0496	3666	2783.95
908.3609	1726.7605	3653.15	2770.2
908.502	1728.4706	3643.9	2762.15
908.6431	1730.18	3619.25	2733.35
908.7842	1731.8886	3604.95	2724.3
908.9253	1733.5964	3610.45	2723.5
909.0664	1735.3036	3588.85	2706.5
909.2074	1737.0099	3563.25	2682.75
909.3484	1738.7156	3558.35	2677.8
909.4894	1740.4204	3546.1	2661.1
909.6304	1742.1246	3520.8	2639.75
909.7714	1743.8279	3503.55	2621.45
909.9123	1745.5306	3504.55	2623.8
910.0532	1747.2325	3481.55	2600.65
910.1941	1748.9336	3458.45	2578.65
910.335	1750.634	3449.65	2566.3
910.4759	1752.3336	3446.3	2564.2
910.6168	1754.0325	3435.45	2555.3
910.7576	1755.7307	3427.2	2544.8
910.8984	1757.4281	3419.2	2536.9
911.0392	1759.1247	3435.6	2545.8
911.18	1760.8206	3416.4	2530.15
911.3208	1762.5158	3420.75	2534.8
911.4615	1764.2102	3398.9	2519.2
911.6022	1765.9039	3382	2499.7
911.7429	1767.5968	3373.15	2491.85
911.8836	1769.289	3368.15	2484.25
912.0243	1770.9804	3362.65	2481.05
912.1649	1772.6711	3356.65	2474.7
912.3056	1774.361	3350.15	2466.3
912.4462	1776.0502	3344.15	2462.85
912.5868	1777.7386	3324.8	2439.15
912.7274	1779.4263	3322.9	2441.7
912.8679	1781.1132	3326.15	2443.25
913.0084	1782.7994	3317.65	2435
913.149	1784.4849	3311.45	2430.6
913.2895	1786.1696	3313.65	2413.65
913.4299	1787.8535	3297.85	2414.95
913.5704	1789.5367	3293.95	2409.55
913.7108	1791.2192	3282.95	2401.2
913.8513	1792.9009	3272.85	2377.15
913.9917	1794.5818	3269.5	2386.75
914.132	1796.2621	3259.55	2380.35
914.2724	1797.9415	3266.25	2384.95
914.4128	1799.6202	3246.8	2364
914.5531	1801.2982	3239.75	2359.85
914.6934	1802.9755	3235.6	2353.45
914.8337	1804.6519	3225.1	2343.4
914.9739	1806.3277	3215.15	2334.85
915.1142	1808.0027	3209.85	2328.65
915.2544	1809.6769	3203.8	2323.8
915.3946	1811.3504	3204.7	2320.25
915.5348	1813.0231	3197.55	2313.95
915.675	1814.6951	3191.9	2309.35
915.8151	1816.3664	3201.15	2317.3
915.9553	1818.0369	3195.95	2314.4
916.0954	1819.7067	3176.9	2295.55
916.2355	1821.3757	3164.4	2281.95
916.3755	1823.044	3165.75	2285.5
916.5156	1824.7115	3168.65	2286.2
916.6556	1826.3783	3153.15	2272.2
916.7956	1828.0443	3154.7	2272.65
916.9356	1829.7096	3137.9	2256.05
917.0756	1831.3741	3150.4	2265.8
917.2155	1833.0379	3138.25	2257.8
917.3555	1834.701	3128.2	2244
917.4954	1836.3633	3130.15	2245.5
917.6353	1838.0248	3116.7	2232.85
917.7751	1839.6856	3131.9	2247.65
917.915	1841.3457	3115.15	2235.95
918.0548	1843.005	3102.25	2222.4
918.1946	1844.6636	3099.4	2217.75
918.3344	1846.3214	3100.95	2220.6
918.4742	1847.9785	3098.2	2217.65
918.6139	1849.6349	3097.7	2214.3
918.7537	1851.2904	3089.35	2199.5
918.8934	1852.9453	3081.05	2199.15
919.0331	1854.5994	3068.75	2186.3
919.1727	1856.2528	3072.3	2185.65
919.3124	1857.9054	3075.8	2194.35
919.452	1859.5572	3057.5	2178
919.5916	1861.2083	3062.5	2178.2
919.7312	1862.8587	3064.1	2183.95
919.8708	1864.5084	3057.8	2174.7
920.0103	1866.1572	3037	2157.95
920.1498	1867.8054	3036.55	2154.85
920.2893	1869.4528	3029.35	2149.4
920.4288	1871.0994	3024.95	2144.05
920.5683	1872.7453	3015.6	2132.95
920.7077	1874.3905	3032.85	2135.25
920.8471	1876.0349	3012.05	2129.15
920.9865	1877.6786	3008.45	2124.65
921.1259	1879.3215	3007.05	2125.15
921.2653	1880.9637	2999.65	2117.25
921.4046	1882.6051	2989.15	2105.8
921.5439	1884.2458	2983.9	2099.15
921.6832	1885.8858	2978.2	2095.15
921.8225	1887.525	2984	2101.85
921.9617	1889.1634	2964.4	2082.4
922.101	1890.8011	2965	2084.55
922.2402	1892.4381	2948	2068.35
922.3794	1894.0743	2946.15	2064.45
922.5185	1895.7098	2950.5	2070.75
922.6577	1897.3446	2939.25	2056.85
922.7968	1898.9786	2942.3	2056.8
922.9359	1900.6118	2929.25	2048.05
923.075	1902.2443	2920.5	2035.8
923.214	1903.8761	2923.7	2041.1
923.3531	1905.5071	2900.55	2017.1
923.4921	1907.1374	2890.5	2007.5
923.6311	1908.7669	2887.35	2007.1
923.77	1910.3957	2888.65	2008.15
923.909	1912.0237	2878.2	1995.85
924.0479	1913.651	2889	2007.25
924.1868	1915.2776	2875.5	1996
924.3257	1916.9034	2867.2	1988.4
924.4646	1918.5285	2856.65	1977.05
924.6034	1920.1528	2862.6	1979.65
924.7422	1921.7764	2849.6	1968.75
924.881	1923.3992	2856	1974.45
925.0198	1925.0213	2833.25	1950.3
925.1586	1926.6427	2821.4	1940.75
925.2973	1928.2633	2914.05	1924.25
925.436	1929.8832	2834.25	1951.8
925.5747	1931.5023	2803.95	1921.4
925.7134	1933.1207	2797.8	1916.05
925.852	1934.7383	2798.5	1917.1
925.9906	1936.3552	2793.85	1912.5
926.1292	1937.9714	2792.85	1910
926.2678	1939.5868	2776.8	1895.35
926.4064	1941.2015	2761.2	1880.3
926.5449	1942.8154	2761.95	1880.5
926.6834	1944.4286	2753.1	1871.45
926.8219	1946.041	2771.35	1869.2
926.9604	1947.6528	2748.65	1862.85
927.0988	1949.2637	2747.9	1867.7
927.2372	1950.8739	2724	1841.7
927.3756	1952.4834	2722.35	1839.05
927.514	1954.0921	2722.85	1841.65
927.6523	1955.7001	2715.75	1828.1
927.7907	1957.3074	2706.35	1823.8
927.929	1958.9139	2689.45	1806.85
928.0673	1960.5197	2694.2	1809.3
928.2055	1962.1247	2685.9	1805.2
928.3438	1963.729	2685.2	1805.7
928.482	1965.3325	2699.55	1793.45
928.6202	1966.9353	2668.45	1789.35
928.7584	1968.5374	2660.4	1776.75
928.8965	1970.1387	2648.55	1766.35
929.0346	1971.7393	2659.75	1777.85
929.1727	1973.3392	2649.05	1769.1
929.3108	1974.9383	2635.8	1754.2
929.4489	1976.5366	2630.35	1746.15
929.5869	1978.1342	2634.75	1753.1
929.7249	1979.7311	2636.3	1753.1
929.8629	1981.3273	2616.65	1735.2
930.0009	1982.9227	2617.85	1734.5
930.1388	1984.5173	2605.4	1723.25
930.2767	1986.1112	2595.95	1714.5
930.4146	1987.7044	2587.65	1707.25
930.5525	1989.2968	2589.8	1706.6
930.6904	1990.8885	2595.75	1710.95
930.8282	1992.4795	2603.45	1718.8
930.966	1994.0697	2584.05	1702.9
931.1038	1995.6592	2565.95	1684.5
931.2415	1997.2479	2564	1682.2
931.3793	1998.8359	2559.15	1677.65
931.517	2000.4232	2552	1669.5
931.6547	2002.0097	2549.95	1669.9
931.7923	2003.5955	2547.85	1665.3
931.93	2005.1805	2531.95	1648.1
932.0676	2006.7648	2536.1	1655.35
932.2052	2008.3484	2534.85	1653.3
932.3427	2009.9312	2540.95	1655.75
932.4803	2011.5133	2520.65	1639.55
932.6178	2013.0946	2525.55	1642.1
932.7553	2014.6752	2507.9	1627.15
932.8928	2016.2551	2518.05	1635.85
933.0302	2017.8342	2508.55	1626.4
933.1676	2019.4126	2495.85	1615.35
933.305	2020.9902	2512.05	1631.5
933.4424	2022.5672	2499.45	1614.9
933.5798	2024.1433	2493.4	1605
933.7171	2025.7188	2479.25	1597.05
933.8544	2027.2935	2472.7	1590
933.9917	2028.8674	2473.55	1590.6
934.129	2030.4406	2477.15	1596.7
934.2662	2032.0131	2461.2	1579.65
934.4034	2033.5849	2457.1	1569.95
934.5406	2035.1559	2467.25	1584.7
934.6778	2036.7261	2453.65	1570.2
934.8149	2038.2957	2442.15	1561.3
934.952	2039.8645	2442.6	1561.45
935.0891	2041.4325	2454.1	1568.85
935.2262	2042.9998	2443.85	1561.65
935.3632	2044.5664	2432.65	1547.3
935.5002	2046.1323	2427.8	1546.25
935.6372	2047.6974	2424.8	1542.8
935.7742	2049.2617	2419.9	1537.85
935.9111	2050.8254	2454.8	1539.25
936.048	2052.3883	2420.15	1536.35
936.1849	2053.9504	2410.5	1528.25
936.3218	2055.5118	2404.1	1521.25
936.4586	2057.0725	2401.3	1514.8
936.5955	2058.6325	2395.6	1512.45
936.7323	2060.1917	2405	1522.2
936.869	2061.7502	2393.9	1508.3
937.0058	2063.3079	2383.25	1501.6
937.1425	2064.8649	2387	1502.45
937.2792	2066.4212	2377.45	1494.85
937.4159	2067.9767	2362.7	1480.4
937.5525	2069.5315	2372.5	1491.1
937.6891	2071.0856	2356.95	1475.4
937.8257	2072.6389	2347.15	1465
937.9623	2074.1915	2337.9	1457.25
938.0989	2075.7433	2351.15	1466.85
938.2354	2077.2945	2343.6	1462.9
938.3719	2078.8448	2331.2	1447.15
938.5084	2080.3945	2330.7	1448.8
938.6448	2081.9434	2337.8	1454
938.7812	2083.4916	2323.25	1440.75
938.9176	2085.039	2326.6	1442.55
939.054	2086.5857	2323.9	1442.55
939.1903	2088.1317	2322.25	1441.1
939.3267	2089.677	2315.45	1434.45
939.463	2091.2215	2305.45	1424
939.5992	2092.7652	2299.25	1415.7
939.7355	2094.3083	2296.4	1412.6
939.8717	2095.8506	2298.85	1415.9
940.0079	2097.3921	2292.85	1410.5
940.1441	2098.933	2292.6	1409.85
940.2802	2100.4731	2283.7	1401
940.4163	2102.0124	2296.2	1395.85
940.5524	2103.5511	2278.1	1395.8
940.6885	2105.089	2273.25	1390.7
940.8245	2106.6261	2277.15	1393.25
940.9606	2108.1626	2266.15	1383.7
941.0965	2109.6983	2293.05	1382.9
941.2325	2111.2332	2278.55	1395.3
941.3684	2112.7675	2265.25	1382.35
941.5044	2114.301	2255.5	1373.55
941.6403	2115.8337	2269.2	1387
941.7761	2117.3657	2254.85	1371.3
941.912	2118.897	2241	1357.7
942.0478	2120.4276	2243.9	1356.65
942.1835	2121.9575	2254	1369.45
942.3193	2123.4866	2253.2	1358.1
942.455	2125.0149	2234.2	1351.1
942.5907	2126.5426	2221.45	1341.2
942.7264	2128.0695	2227.8	1341.9
942.8621	2129.5956	2220.5	1338.95
942.9977	2131.1211	2226.95	1339.35
943.1333	2132.6458	2217.4	1338.2
943.2689	2134.1698	2208.15	1325.7
943.4044	2135.693	2202.65	1317.8
943.54	2137.2155	2204.9	1319.4
943.6755	2138.7373	2199.15	1315.3
943.8109	2140.2584	2189.65	1307.8
943.9464	2141.7787	2202.8	1312.65
944.0818	2143.2983	2188.7	1307.5
944.2172	2144.8171	2180.95	1298.35
944.3526	2146.3353	2189.8	1305.05
944.4879	2147.8527	2179	1295.9
944.6232	2149.3693	2175.9	1295.15
944.7585	2150.8853	2169.05	1286.4
944.8938	2152.4005	2159.75	1276.55
945.029	2153.9149	2175.05	1291.8
945.1642	2155.4287	2157.1	1276.4
945.2994	2156.9417	2158.1	1274.45
945.4346	2158.454	2152.9	1265.95
945.5697	2159.9655	2147.85	1264.6
945.7048	2161.4764	2137.7	1254.05
945.8399	2162.9865	2148.95	1266.2
945.9749	2164.4958	2138	1253.95
946.1099	2166.0045	2139.45	1254.05
946.2449	2167.5124	2134.95	1252.15
946.3799	2169.0195	2132.7	1251.55
946.5148	2170.526	2123.25	1239.25
946.6498	2172.0317	2116	1233.4
946.7846	2173.5367	2125.75	1240.1
946.9195	2175.0409	2122.25	1238.65
947.0543	2176.5445	2123.65	1240.8
947.1891	2178.0473	2109.1	1226.65
947.3239	2179.5494	2113.7	1227.6
947.4587	2181.0507	2097.05	1213.8
947.5934	2182.5513	2107	1224.3
947.7281	2184.0512	2105.5	1224.1
947.8628	2185.5504	2098.8	1217.7
947.9974	2187.0488	2083.15	1199.75
948.132	2188.5465	2082.85	1198.9
948.2666	2190.0435	2087.95	1205.2
948.4012	2191.5397	2084.85	1202.35
948.5357	2193.0353	2092.05	1211.7
948.6702	2194.5301	2080.35	1196.65
948.8047	2196.0241	2073.7	1191.75
948.9392	2197.5175	2069.95	1189.4
949.0736	2199.0101	2051.5	1164.45
949.208	2200.502	2061.45	1179.55
949.3424	2201.9931	2053.4	1169.5
949.4767	2203.4835	2046.6	1160.85
949.611	2204.9733	2048.7	1159.35
949.7453	2206.4622	2049.7	1164.4
949.8796	2207.9505	2043.75	1157.1
950.0138	2209.438	2031.8	1149.35
950.148	2210.9248	2030.5	1147.7
950.2822	2212.4109	2024.4	1142.3
950.4164	2213.8962	2026.1	1140.9
950.5505	2215.3809	2016.25	1135.1
950.6846	2216.8648	2009.75	1126.75
950.8186	2218.3479	2026.05	1138.95
950.9527	2219.8304	2002.7	1116.85
951.0867	2221.3121	2000.8	1116.25
951.2207	2222.7931	2003.3	1121.7
951.3546	2224.2733	1994.45	1113.15
951.4886	2225.7529	1993.75	1109.75
951.6225	2227.2317	1997.5	1111.2
951.7563	2228.7098	1992.05	1109.7
951.8902	2230.1872	1981.7	1102.05
952.024	2231.6638	1985.9	1101.9
952.1578	2233.1397	1995	1106.65
952.2916	2234.6149	1972	1088.45
952.4253	2236.0894	1982.1	1099.75
952.559	2237.5632	1982.65	1089.8
952.6927	2239.0362	1970.75	1089.55
952.8263	2240.5085	1968.55	1086.15
952.9599	2241.9801	1953.45	1072.2
953.0935	2243.4509	1956.3	1074.05
953.2271	2244.921	1954.35	1073.15
953.3606	2246.3904	1946.45	1063.15
953.4941	2247.8591	1934.35	1052.9
953.6276	2249.3271	1941.7	1060.1
953.7611	2250.7943	1929.05	1044.7
953.8945	2252.2608	1928.25	1047.7
954.0279	2253.7266	1931.8	1049.75
954.1612	2255.1917	1921.85	1039.65
954.2946	2256.656	1925.6	1041.25
954.4279	2258.1197	1915.6	1032.8
954.5612	2259.5826	1921.85	1036.95
954.6944	2261.0447	1923.5	1040.2
954.8276	2262.5062	1913.85	1028.9
954.9608	2263.9669	1917.7	1034.2
955.094	2265.4269	1921.8	1040.2
955.2271	2266.8862	1893.75	1014.1
955.3602	2268.3448	1894.95	1011
955.4933	2269.8026	1899.1	1015.05
955.6264	2271.2598	1895	1010.35
955.7594	2272.7162	1888.1	1005.95
955.8924	2274.1719	1880.55	999.75
956.0253	2275.6268	1890.4	1009
956.1583	2277.0811	1885.45	1002.1
956.2912	2278.5346	1886.6	1005.1
956.4241	2279.9874	1893.55	1011.4
956.5569	2281.4395	1881	998.5
956.6897	2282.8908	1877.15	990.2
956.8225	2284.3414	1881.25	998.25
956.9553	2285.7914	1873.45	990.8
957.088	2287.2406	1874.5	989.55
957.2207	2288.689	1867.4	984.9
957.3534	2290.1368	1868.8	985.55
957.486	2291.5838	1877.3	992.45
957.6186	2293.0302	1864.45	981.2
957.7512	2294.4758	1862.45	979.15
957.8838	2295.9206	1855.7	972.1
958.0163	2297.3648	1850.45	969.2
958.1488	2298.8082	1846.25	961.65
958.2813	2300.251	1836.8	952.55
958.4137	2301.693	1848.85	963.4
958.5461	2303.1343	1837.8	954.45
958.6785	2304.5748	1830.15	947.65
958.8108	2306.0147	1830.55	944.35
958.9432	2307.4538	1840.9	956.1
959.0754	2308.8922	1840.8	959.2
959.2077	2310.3299	1826.35	945.3
959.3399	2311.7669	1824	941.45
959.4721	2313.2031	1815.35	930.65
959.6043	2314.6387	1823	939.85
959.7365	2316.0735	1816.3	935.4
959.8686	2317.5076	1819.9	937.65
960.0006	2318.941	1812.15	929.15
960.1327	2320.3737	1803.75	920.95
960.2647	2321.8056	1807.55	921.45
960.3967	2323.2369	1812.4	928.3
960.5287	2324.6674	1808.4	921.2
960.6606	2326.0972	1804.55	919.75
960.7925	2327.5263	1799.95	917.15
960.9244	2328.9547	1802.3	920.45
961.0562	2330.3823	1793.75	909.4
961.1881	2331.8092	1795.75	910.7
961.3198	2333.2355	1788.3	905.45
961.4516	2334.661	1797.75	914.15
961.5833	2336.0858	1788.2	902.9
961.715	2337.5098	1776.95	893.6
961.8467	2338.9332	1778.75	893.95
961.9783	2340.3558	1782.85	897
962.1099	2341.7778	1772.9	888.1
962.2415	2343.199	1775.25	891.1
962.373	2344.6195	1765.35	882.7
962.5045	2346.0393	1780.1	898.65
962.636	2347.4583	1761.15	877.65
962.7675	2348.8767	1764.5	880.5
962.8989	2350.2943	1764.4	880.9
963.0303	2351.7113	1763.45	880.6
963.1617	2353.1275	1763.2	881.35
963.293	2354.543	1775	868.25
963.4243	2355.9578	1748.7	864.25
963.5556	2357.3718	1754.4	874.2
963.6868	2358.7852	1749.15	862.95
963.818	2360.1978	1752.65	869.4
963.9492	2361.6098	1747.75	864
964.0803	2363.021	1747.5	861.45
964.2114	2364.4315	1735.35	853.05
964.3425	2365.8413	1735.2	851.25
964.4736	2367.2504	1729.1	847.3
964.6046	2368.6587	1725.65	842.15
964.7356	2370.0664	1726.9	843.8
964.8666	2371.4733	1728.8	848.2
964.9975	2372.8795	1717.4	834.05
965.1284	2374.285	1725.2	841.05
965.2593	2375.6899	1724.45	843.9
965.3901	2377.0939	1716.85	836
965.5209	2378.4973	1710.15	828.1
965.6517	2379.9	1711.75	829.3
965.7825	2381.3019	1710.25	827.45
965.9132	2382.7032	1705.35	824.4
966.0439	2384.1037	1703.05	821.8
966.1745	2385.5035	1697.1	815.7
966.3051	2386.9027	1697.35	815.75
966.4357	2388.3011	1708.3	822.4
966.5663	2389.6987	1694.45	811.4
966.6968	2391.0957	1696.5	817.55
966.8273	2392.492	1691.4	809.5
966.9578	2393.8876	1682.75	800.5
967.0882	2395.2824	1679.55	797.5
967.2186	2396.6765	1674.45	792.95
967.349	2398.07	1666.85	784.45
967.4793	2399.4627	1672.35	789.55
967.6097	2400.8547	1668.8	787.3
967.7399	2402.246	1673.05	784.7
967.8702	2403.6366	1666.4	784.1
968.0004	2405.0265	1661.25	779.45
968.1306	2406.4156	1670.7	783.85
968.2607	2407.8041	1664.05	779.6
968.3909	2409.1918	1649.4	763.5
968.521	2410.5789	1652.6	771.25
968.651	2411.9652	1654.65	768.95
968.781	2413.3508	1650.25	766.65
968.911	2414.7358	1649.85	767.35
969.041	2416.12	1643.6	761.9
969.1709	2417.5035	1638.5	756.5
969.3008	2418.8863	1642.05	759.85
969.4307	2420.2684	1640.65	759.05
969.5606	2421.6497	1633.25	748.4
969.6904	2423.0304	1633.9	752
969.8201	2424.4104	1629.65	745.75
969.9499	2425.7896	1630.8	743.2
970.0796	2427.1682	1620.15	736.2
970.2093	2428.546	1621.35	737.4
970.3389	2429.9232	1632	747.05
970.4685	2431.2996	1613.65	733.25
970.5981	2432.6753	1608.95	726.45
970.7277	2434.0503	1619.55	737.4
970.8572	2435.4246	1608.05	726
970.9867	2436.7982	1614.05	729
971.1161	2438.1711	1609.5	727.9
971.2456	2439.5433	1604.2	721.6
971.375	2440.9148	1604.6	716.3
971.5043	2442.2856	1598	717.25
971.6336	2443.6557	1597.7	712.55
971.7629	2445.025	1598.4	717.9
971.8922	2446.3937	1594.25	710.9
972.0214	2447.7617	1592.9	711
972.1506	2449.1289	1588.4	708
972.2798	2450.4955	1594.15	709.65
972.4089	2451.8613	1581.75	701
972.538	2453.2265	1589.55	706.55
972.6671	2454.5909	1582.6	698.9
972.7961	2455.9546	1585.8	705.55
972.9251	2457.3177	1576.85	694.35
973.0541	2458.68	1585.45	701.7
973.1831	2460.0416	1579.65	697.9
973.312	2461.4025	1577	694.2
973.4408	2462.7627	1585.5	691.85
973.5697	2464.1222	1574.2	692.25
973.6985	2465.4811	1576.2	690.05
973.8273	2466.8392	1576.9	691.5
973.956	2468.1966	1579.95	694.6
974.0847	2469.5533	1565.1	680.1
974.2134	2470.9093	1575.35	690.65
974.3421	2472.2645	1566.2	680.05
974.4707	2473.6191	1563	682.35
974.5993	2474.973	1563.9	680.8
974.7278	2476.3262	1554.25	670.6
974.8563	2477.6787	1561.6	678.2
974.9848	2479.0305	1556.95	673.9
975.1132	2480.3816	1557.45	671.55
975.2417	2481.7319	1552.15	670.2
975.37	2483.0816	1554.3	670.6
975.4984	2484.4306	1552.75	669.25
975.6267	2485.7789	1544.5	661.35
975.755	2487.1264	1548.35	664.7
975.8833	2488.4733	1539.75	658.05
976.0115	2489.8195	1553.1	652.15
976.1397	2491.165	1544.95	659.2
976.2678	2492.5097	1536.25	651.2
976.3959	2493.8538	1538.5	654.6
976.524	2495.1972	1531.1	649.1
976.6521	2496.5398	1526.6	642.7
976.7801	2497.8818	1529.05	644.25
976.9081	2499.2231	1530.6	646.75
977.036	2500.5637	1527.8	643.6
977.164	2501.9035	1523.3	639.65
977.2918	2503.2427	1527.7	641.7
977.4197	2504.5812	1521.85	640.8
977.5475	2505.919	1520.1	635.55
977.6753	2507.256	1517.2	635.9
977.8031	2508.5924	1514.7	631.65
977.9308	2509.9281	1507.8	619.35
978.0585	2511.2631	1511.15	628.9
978.1861	2512.5974	1506	625.5
978.3137	2513.9309	1516.4	632.25
978.4413	2515.2638	1538.65	626.65
978.5689	2516.596	1498.05	615.85
978.6964	2517.9275	1498.7	615.7
978.8239	2519.2583	1502.4	619
978.9513	2520.5884	1498.9	614.15
979.0788	2521.9178	1496.9	614.8
979.2062	2523.2465	1494.4	611
979.3335	2524.5745	1494.45	611.45
979.4608	2525.9018	1497.6	614.1
979.5881	2527.2284	1486.05	605.25
979.7154	2528.5543	1489.85	609.05
979.8426	2529.8796	1487.9	604.5
979.9698	2531.2041	1489.05	606.65
980.0969	2532.5279	1488.45	607.45
980.224	2533.851	1486.1	603.55
980.3511	2535.1735	1483.95	602.25
980.4781	2536.4952	1485.55	603.1
980.6052	2537.8163	1484.1	600.35
980.7321	2539.1366	1484.45	601.25
980.8591	2540.4562	1476.65	592.7
980.986	2541.7752	1474.35	592.95
981.1129	2543.0935	1480.75	598.95
981.2397	2544.411	1479.35	596.1
981.3665	2545.7279	1479.7	599.05
981.4933	2547.0441	1470.55	588.25
981.62	2548.3596	1478.45	593.8
981.7467	2549.6744	1472.5	591.2
981.8734	2550.9885	1479	591.15
982.0001	2552.3019	1466.6	584.35
982.1267	2553.6146	1471.85	590.7
982.2532	2554.9266	1468.65	588.45
982.3798	2556.2379	1463.95	579.35
982.5063	2557.5485	1463.75	583.6
982.6327	2558.8585	1471.25	580.6
982.7592	2560.1677	1468.95	582.15
982.8856	2561.4762	1461.1	577.9
983.0119	2562.7841	1465.15	579.75
983.1383	2564.0913	1454.5	574.25
983.2646	2565.3977	1457.55	575.3
983.3908	2566.7035	1457	573.5
983.517	2568.0086	1462.65	577.3
983.6432	2569.313	1455.5	573.25
983.7694	2570.6167	1461.85	576.25
983.8955	2571.9197	1452.5	570.8
984.0216	2573.222	1463.75	578.4
984.1476	2574.5236	1452.25	568.3
984.2737	2575.8246	1446.8	561.1
984.3996	2577.1248	1449	565.65
984.5256	2578.4244	1447.7	564.6
984.6515	2579.7232	1449.05	565.2
984.7774	2581.0214	1488.15	574.2
984.9032	2582.3189	1452	570.85
985.029	2583.6157	1458.45	572.55
985.1548	2584.9118	1454.05	571.35
985.2806	2586.2072	1441.1	557.25
985.4063	2587.5019	1449.75	565.85
985.5319	2588.7959	1447.95	564.75
985.6576	2590.0893	1447	563.25
985.7832	2591.3819	1443.85	564.05
985.9087	2592.6739	1445.15	562.55
986.0343	2593.9652	1442.75	560.2
986.1597	2595.2557	1452.45	571.1
986.2852	2596.5456	1446.1	560.85
986.4106	2597.8348	1447.2	565.3
986.536	2599.1234	1442.1	560.5
986.6614	2600.4112	1448.8	566.4
986.7867	2601.6983	1439.8	555.75
986.912	2602.9848	1447.9	565.2
987.0372	2604.2705	1449.95	560.35
987.1624	2605.5556	1437.15	554.65
987.2876	2606.84	1445.7	563.85
987.4128	2608.1237	1440.75	560.4
987.5379	2609.4067	1440.5	558.4
987.6629	2610.689	1436.55	546.95
987.788	2611.9707	1435.6	549.05
987.913	2613.2516	1436.5	551.4
988.0379	2614.5319	1428.2	546.4
988.1629	2615.8115	1428.95	543.75
988.2878	2617.0903	1429.05	544.75
988.4126	2618.3685	1418.55	533.75
988.5375	2619.6461	1419.55	537.3
988.6622	2620.9229	1415.7	536.2
988.787	2622.199	1420.5	534.95
988.9117	2623.4745	1419.65	536.75
989.0364	2624.7493	1414.2	530.95
989.161	2626.0234	1408.35	527.15
989.2857	2627.2968	1414.85	533.75
989.4102	2628.5695	1413.9	529.95
989.5348	2629.8415	1412.1	531.55
989.6593	2631.1128	1415.65	531.2
989.7837	2632.3835	1414.2	531.3
989.9082	2633.6535	1403.25	521.6
990.0326	2634.9228	1401.95	521.6
990.1569	2636.1914	1406.5	524.75
990.2812	2637.4593	1403	519.65
990.4055	2638.7265	1401.65	519.25
990.5298	2639.9931	1401.95	518.35
990.654	2641.259	1403	517.9
990.7782	2642.5242	1397.15	514.3
990.9023	2643.7887	1392.2	511.35
991.0264	2645.0525	1390.6	507.7
991.1505	2646.3156	1387.2	505.7
991.2745	2647.5781	1387.75	507.2
991.3985	2648.8398	1395.5	514.05
991.5225	2650.1009	1423.3	502.95
991.6464	2651.3613	1386.7	506.3
991.7703	2652.6211	1392.55	509.65
991.8942	2653.8801	1383.4	502.95
992.018	2655.1385	1388.2	502
992.1418	2656.3961	1378.45	496.7
992.2655	2657.6531	1384.9	500.75
992.3892	2658.9094	1385.75	502
992.5129	2660.1651	1381.45	498.85
992.6366	2661.42	1382.75	499.2
992.7602	2662.6743	1385.7	502.4
992.8837	2663.9279	1388.3	504.75
993.0073	2665.1808	1387.5	506.9
993.1307	2666.433	1381.75	499
993.2542	2667.6846	1390.2	506.15
993.3776	2668.9354	1391.15	507.75
993.501	2670.1856	1389.8	506.95
993.6244	2671.4351	1389.6	508.2
993.7477	2672.6839	1391.9	508.65
993.8709	2673.9321	1398.4	515.3
993.9942	2675.1795	1398.85	516.65
994.1174	2676.4263	1398.35	517.7
994.2405	2677.6724	1396	514.2
994.3637	2678.9179	1396.5	511.95
994.4868	2680.1626	1403.05	522.25
994.6098	2681.4067	1400.2	517.25
994.7328	2682.6501	1391.75	509.2
994.8558	2683.8928	1394.7	510.8
994.9788	2685.1348	1389.4	508.35
995.1017	2686.3761	1386.95	505.15
995.2245	2687.6168	1380.55	498.15
995.3474	2688.8568	1384.6	500.85
995.4702	2690.0961	1375.65	493.95
995.5929	2691.3348	1379.75	497.25
995.7156	2692.5727	1372.9	488.45
995.8383	2693.81	1373.4	490.7
995.961	2695.0466	1372.05	490.9
996.0836	2696.2826	1374.8	491.6
996.2062	2697.5178	1369.15	484.85
996.3287	2698.7524	1371.6	488.6
996.4512	2699.9863	1372.2	489.05
996.5737	2701.2195	1371.6	489.95
996.6961	2702.452	1378.8	494.45
996.8185	2703.6839	1388.4	503.95
996.9408	2704.9151	1375.9	493.95
997.0631	2706.1456	1389.3	507.65
997.1854	2707.3755	1388.75	504.7
997.3077	2708.6046	1396.6	510.85
997.4299	2709.8331	1399.5	517.7
997.552	2711.0609	1394.75	511.05
997.6742	2712.2881	1407.1	524.15
997.7963	2713.5145	1411.65	528.7
997.9183	2714.7403	1423.5	540.8
998.0403	2715.9654	1425.3	542.45
998.1623	2717.1899	1454.5	558.45
998.2842	2718.4136	1445.15	562.85
998.4062	2719.6367	1448.8	565.05
998.528	2720.8591	1464.7	576.25
998.6498	2722.0809	1466.55	584.55
998.7716	2723.3019	1482.95	597.05
998.8934	2724.5223	1484.55	599.25
999.0151	2725.7421	1489.4	604.75
999.1368	2726.9611	1497.2	613.8
999.2584	2728.1795	1500.65	613.55
999.38	2729.3972	1489.25	605.35
999.5016	2730.6142	1488.2	591.45
999.6231	2731.8306	1464.6	582.7
999.7446	2733.0462	1455.1	571.8
999.8661	2734.2612	1446.55	557.7
999.9875	2735.4756	1427.15	542.45
1000.1089	2736.6892	1425.4	540.9
1000.2302	2737.9022	1410.4	533
1000.3515	2739.1145	1400.35	517.9
1000.4728	2740.3262	1391.5	499.65
1000.594	2741.5372	1371.25	489.3
1000.7152	2742.7475	1368.4	486.05
1000.8363	2743.9571	1364.5	481.5
1000.9575	2745.1661	1359.5	472.65
1001.0785	2746.3744	1351.65	471.15
1001.1996	2747.582	1334.75	452.55
1001.3206	2748.7889	1330.45	447.45
1001.4415	2749.9952	1329.5	447.95
1001.5625	2751.2008	1327.25	444.3
1001.6833	2752.4057	1326	441.7
1001.8042	2753.61	1317.15	432.95
1001.925	2754.8136	1314.8	429.25
1002.0458	2756.0165	1313.9	431.95
1002.1665	2757.2188	1316.65	434.5
1002.2872	2758.4204	1307.05	424.2
1002.4078	2759.6213	1306.35	421.05
1002.5285	2760.8215	1319.7	429.75
1002.649	2762.0211	1308.7	423.55
1002.7696	2763.22	1314.9	429.45
1002.8901	2764.4182	1308.35	423.95
1003.0106	2765.6158	1309.7	426.6
1003.131	2766.8127	1307.15	424.55
1003.2514	2768.009	1299.85	416.9
1003.3717	2769.2045	1299.05	416.65
1003.492	2770.3994	1297	412.85
1003.6123	2771.5936	1295.55	411.9
1003.7325	2772.7872	1290.95	409.05
1003.8527	2773.9801	1289.85	404.55
1003.9729	2775.1723	1298.3	397.65
1004.093	2776.3639	1288.2	406.6
1004.2131	2777.5548	1290.55	406.85
1004.3331	2778.745	1284.65	399.8
1004.4531	2779.9346	1284.55	400.6
1004.5731	2781.1235	1288.4	405.2
1004.693	2782.3117	1292	410.25
1004.8129	2783.4992	1283.25	401.85
1004.9328	2784.6861	1294.9	413.3
1005.0526	2785.8723	1290.2	407
1005.1723	2787.0579	1295.4	413.3
1005.2921	2788.2428	1299.55	416.55
1005.4118	2789.427	1299.2	417.2
1005.5314	2790.6106	1303.4	420.95
1005.651	2791.7935	1307.05	423.95
1005.7706	2792.9757	1309.1	429.55
1005.8902	2794.1573	1318.7	433.1
1006.0097	2795.3382	1325	443.75
1006.1291	2796.5184	1323.55	443
1006.2485	2797.698	1340.35	457.3
1006.3679	2798.8769	1346.35	464.15
1006.4873	2800.0551	1350.75	466
1006.6066	2801.2327	1373.5	490
1006.7258	2802.4096	1373.05	491.25
1006.8451	2803.5859	1375.95	491.1
1006.9642	2804.7615	1396.4	513.55
1007.0834	2805.9364	1411.8	530
1007.2025	2807.1106	1427.75	547.05
1007.3216	2808.2842	1444.05	560.05
1007.4406	2809.4572	1466.5	585.7
1007.5596	2810.6294	1484.3	600.45
1007.6785	2811.801	1513.15	632.25
1007.7975	2812.972	1540	658.9
1007.9163	2814.1423	1568.05	683.95
1008.0352	2815.3119	1608.1	725.9
1008.154	2816.4808	1634.05	751.9
1008.2727	2817.6491	1674.6	792.55
1008.3914	2818.8167	1717.7	836.7
1008.5101	2819.9837	1753.75	868.65
1008.6288	2821.15	1804.25	922.1
1008.7474	2822.3157	1843.25	961.1
1008.8659	2823.4807	1898.5	1015.15
1008.9844	2824.645	1938.15	1053.95
1009.1029	2825.8086	1980.55	1096.8
1009.2214	2826.9716	2022.55	1140.35
1009.3398	2828.134	2071.15	1189.6
1009.4581	2829.2957	2110.45	1226.7
1009.5764	2830.4567	2146.25	1265.45
1009.6947	2831.617	2168.75	1284.75
1009.813	2832.7767	2182.9	1301.45
1009.9312	2833.9358	2177.15	1295.75
1010.0493	2835.0941	2170.75	1286.75
1010.1675	2836.2519	2156.6	1273.5
1010.2855	2837.4089	2153.7	1268.25
1010.4036	2838.5653	2123.7	1240.85
1010.5216	2839.7211	2103.55	1221.85
1010.6396	2840.8761	2111.1	1228.6
1010.7575	2842.0306	2118	1236.2
1010.8754	2843.1843	2124.25	1242.85
1010.9932	2844.3374	2145.8	1264.4
1011.111	2845.4899	2179.5	1297.3
1011.2288	2846.6417	2216.9	1333.15
1011.3465	2847.7928	2247.4	1366.4
1011.4642	2848.9433	2295.3	1412.5
1011.5818	2850.0931	2357.5	1475.95
1011.6995	2851.2422	2398.75	1515.2
1011.817	2852.3907	2438.55	1555.8
1011.9345	2853.5385	2484.85	1602.15
1012.052	2854.6857	2547.25	1637.55
1012.1695	2855.8323	2556.45	1673.45
1012.2869	2856.9781	2608.8	1725.45
1012.4042	2858.1233	2644.1	1762.95
1012.5216	2859.2679	2669.15	1788.3
1012.6389	2860.4118	2718.85	1836.6
1012.7561	2861.555	2753.45	1867.95
1012.8733	2862.6976	2782.1	1897.95
1012.9905	2863.8395	2821.7	1940.8
1013.1076	2864.9808	2856.5	1973.35
1013.2247	2866.1214	2863.2	1981
1013.3417	2867.2614	2878.2	1995.2
1013.4587	2868.4007	2881.65	1998.35
1013.5757	2869.5393	2912.65	2029.65
1013.6926	2870.6773	2919.1	2034.85
1013.8095	2871.8146	2929.15	2044.6
1013.9263	2872.9513	2922.05	2038.6
1014.0431	2874.0874	2912.7	2030.6
1014.1599	2875.2227	2897.7	2014.8
1014.2766	2876.3574	2888.1	2004.9
1014.3933	2877.4915	2884.5	2005.2
1014.51	2878.6249	2858.15	1976.7
1014.6266	2879.7577	2837.1	1955
1014.7431	2880.8898	2835.7	1943.1
1014.8596	2882.0212	2819.8	1938.55
1014.9761	2883.152	2797.1	1915.3
1015.0925	2884.2821	2799.7	1919.5
1015.2089	2885.4116	2788.75	1909.1
1015.3253	2886.5405	2790.25	1908.55
1015.4416	2887.6686	2788.75	1904.4
1015.5579	2888.7962	2804.4	1923.7
1015.6741	2889.923	2809.45	1927.4
1015.7903	2891.0493	2822.6	1941.3
1015.9065	2892.1748	2821.4	1936.85
1016.0226	2893.2997	2841.35	1958.35
1016.1387	2894.424	2844.25	1964.55
1016.2547	2895.5476	2847.75	1966.4
1016.3707	2896.6706	2861.55	1978.95
1016.4866	2897.7929	2882.45	2001.05
1016.6025	2898.9145	2889.15	2007.45
1016.7184	2900.0355	2918.95	2035.8
1016.8342	2901.1559	2932.9	2048.35
1016.95	2902.2756	2971.15	2088.85
1017.0658	2903.3946	2990.1	2108.2
1017.1815	2904.513	3015.75	2129.45
1017.2971	2905.6308	3024.25	2141.55
1017.4127	2906.7479	3039.35	2157.05
1017.5283	2907.8643	3069.9	2187.95
1017.6439	2908.9801	3071	2189.95
1017.7594	2910.0953	3077.85	2196.6
1017.8748	2911.2098	3069.55	2182.9
1017.9902	2912.3236	3088.9	2198.55
1018.1056	2913.4368	3059.65	2175.15
1018.2209	2914.5494	3041.9	2161.5
1018.3362	2915.6613	3031.75	2143.2
1018.4515	2916.7725	2988.1	2103
1018.5667	2917.8831	2975.55	2089.45
1018.6819	2918.9931	2948.85	2063.05
1018.797	2920.1024	2927.95	2046.05
1018.9121	2921.211	2915.3	2033.2
1019.0271	2922.319	2896.1	2011.9
1019.1421	2923.4264	2892.8	2009.95
1019.2571	2924.5331	2885.35	2004.65
1019.372	2925.6391	2875.35	1992.3
1019.4869	2926.7445	2871.6	1991.15
1019.6017	2927.8493	2866.95	1985.8
1019.7165	2928.9534	2865.45	1981.95
1019.8313	2930.0569	2881.5	1998
1019.946	2931.1597	2879.2	1995.85
1020.0606	2932.2619	2891.95	2008.55
1020.1753	2933.3634	2895.6	2014.75
1020.2899	2934.4643	2904.1	2015.45
1020.4044	2935.5645	2897.8	2008.85
1020.5189	2936.6641	2881.1	1993.9
1020.6334	2937.763	2866.1	1983.85
1020.7478	2938.8613	2852.75	1970.9
1020.8622	2939.959	2818.75	1931.75
1020.9765	2941.056	2777.95	1898.15
1021.0908	2942.1523	2715.45	1830.25
1021.2051	2943.248	2653.9	1771.5
1021.3193	2944.3431	2590.25	1709.3
1021.4334	2945.4375	2517.25	1634.85
1021.5476	2946.5313	2438.9	1556.7
1021.6617	2947.6244	2362.35	1480.6
1021.7757	2948.7169	2297.35	1413.4
1021.8897	2949.8087	2221.8	1339.6
1022.0037	2950.8999	2154.95	1271.8
1022.1176	2951.9904	2087.4	1204.55
1022.2315	2953.0803	2029.1	1146.7
1022.3453	2954.1696	1991.15	1108.25
1022.4591	2955.2582	1946.7	1065
1022.5728	2956.3462	1910.35	1027.4
1022.6865	2957.4335	1872.6	988.3
1022.8002	2958.5202	1844	961.8
1022.9138	2959.6062	1830.2	947.65
1023.0274	2960.6916	1805.55	924.95
1023.141	2961.7764	1790.9	907.15
1023.2545	2962.8605	1777.75	894.85
1023.3679	2963.9439	1759.35	879.4
1023.4813	2965.0267	1762	877.75
1023.5947	2966.1089	1771.45	862.95
1023.708	2967.1905	1744.45	862.55
1023.8213	2968.2714	1747.85	866.05
1023.9346	2969.3516	1737.65	856.15
1024.0478	2970.4312	1749.6	860.2
1024.1609	2971.5102	1747.95	867.05
1024.274	2972.5885	1747.15	866.3
1024.3871	2973.6662	1760.35	872.25
1024.5002	2974.7432	1750.9	867.6
1024.6132	2975.8196	1757.05	875.15
1024.7261	2976.8954	1745.5	864.65
1024.839	2977.9705	1745.4	863.6
1024.9519	2979.045	1740.5	858.2
1025.0647	2980.1188	1732.3	849.65
1025.1775	2981.192	1717.65	836
1025.2902	2982.2645	1713.5	831.25
1025.4029	2983.3364	1685.1	802.45
1025.5156	2984.4077	1662.9	779.1
1025.6282	2985.4783	1650.3	763.05
1025.7407	2986.5483	1624.3	744.35
1025.8532	2987.6177	1597.65	717.75
1025.9657	2988.6864	1575.9	693.7
1026.0782	2989.7545	1549.75	664.1
1026.1906	2990.8219	1518.35	637.45
1026.3029	2991.8887	1499.7	614.5
1026.4152	2992.9548	1475.65	590.4
1026.5275	2994.0204	1450.5	569.95
1026.6397	2995.0852	1430.9	550.05
1026.7519	2996.1495	1407.45	524.25
1026.864	2997.2131	1375.85	493.6
1026.9761	2998.276	1371.7	489.95
1027.0882	2999.3383	1340	456.65
1027.2002	3000.4	1327.7	445.3
1027.3122	3001.4611	1315.2	434.35
1027.4241	3002.5215	1296.5	416.1
1027.536	3003.5812	1282.55	399.25
1027.6478	3004.6404	1276.4	393.6
1027.7596	3005.6989	1266.45	381.6
1027.8714	3006.7567	1255.85	375.25
1027.9831	3007.8139	1270.65	362.65
1028.0947	3008.8705	1240.35	357.1
1028.2064	3009.9264	1248.4	350.55
1028.3179	3010.9818	1228.85	346.4
1028.4295	3012.0364	1218.9	335
1028.541	3013.0905	1213.5	330.8
1028.6524	3014.1439	1213.15	330.6
1028.7638	3015.1966	1201	319.55
1028.8752	3016.2487	1198	315.55
1028.9865	3017.3002	1203.8	314.25
1029.0978	3018.3511	1195.95	317.1
1029.209	3019.4013	1194.15	312.65
1029.3202	3020.4509	1193.45	311.75
1029.4314	3021.4998	1191.25	308.65
1029.5425	3022.5481	1188.95	306.15
1029.6535	3023.5958	1182.55	301.5
1029.7645	3024.6428	1185.8	301.6
1029.8755	3025.6892	1188.7	307.95
1029.9864	3026.735	1188.9	306.9
1030.0973	3027.7802	1183.4	301.35
1030.2082	3028.8247	1183.25	301.45
1030.319	3029.8685	1184.25	302.35
1030.4297	3030.9118	1184.1	301.6
1030.5404	3031.9544	1182.1	302.95
1030.6511	3032.9963	1183.95	301.55
1030.7617	3034.0376	1188.35	307.65
1030.8723	3035.0783	1194.1	309.35
1030.9829	3036.1184	1194.3	310.75
1031.0934	3037.1578	1192.7	310.8
1031.2038	3038.1966	1197.95	314.4
1031.3142	3039.2348	1192.8	312.2
1031.4246	3040.2723	1198.85	309.05
1031.5349	3041.3092	1197.55	317.8
1031.6452	3042.3455	1199.9	318.75
1031.7554	3043.3811	1194.5	311.5
1031.8656	3044.4161	1195.55	313.4
1031.9758	3045.4505	1188.3	307.3
1032.0859	3046.4842	1190.3	308.15
1032.1959	3047.5173	1189	309.55
1032.3059	3048.5498	1191.1	309.05
1032.4159	3049.5816	1186.3	303.95
1032.5258	3050.6128	1183.7	301.65
1032.6357	3051.6434	1185.55	302.55
1032.7455	3052.6734	1187.45	308.05
1032.8553	3053.7027	1178.05	295
1032.9651	3054.7314	1173.3	291.35
1033.0748	3055.7594	1171.6	291.75
1033.1845	3056.7868	1173.3	289.3
1033.2941	3057.8136	1172.9	292
1033.4037	3058.8398	1167	286.8
1033.5132	3059.8653	1159.7	278.15
1033.6227	3060.8902	1160.55	279.35
1033.7321	3061.9145	1166.85	284.3
1033.8415	3062.9381	1163	281.7
1033.9509	3063.9612	1169.55	272.3
1034.0602	3064.9835	1159.1	278.5
1034.1694	3066.0053	1160.65	274.65
1034.2787	3067.0264	1151.55	268.6
1034.3878	3068.0469	1149	266.9
1034.497	3069.0668	1157.45	272.55
1034.6061	3070.086	1139.35	259.35
1034.7151	3071.1046	1142	259.25
1034.8241	3072.1226	1139.45	255.4
1034.9331	3073.1399	1130.25	249.05
1035.042	3074.1567	1125.7	243.6
1035.1508	3075.1727	1123.85	240.35
1035.2597	3076.1882	1118.1	237.1
1035.3684	3077.203	1109.3	226.9
1035.4772	3078.2173	1106.75	223.15
1035.5859	3079.2308	1102.8	219.1
1035.6945	3080.2438	1096.4	214.1
1035.8031	3081.2561	1089.8	209.95
1035.9117	3082.2678	1084.65	203.75
1036.0202	3083.2789	1085.2	202.15
1036.1286	3084.2893	1073.95	192.3
1036.2371	3085.2991	1076.85	193.2
1036.3454	3086.3083	1071.3	187.6
1036.4538	3087.3169	1068.05	184.7
1036.562	3088.3248	1062.45	180.65
1036.6703	3089.3321	1061.15	178.75
1036.7785	3090.3388	1054.8	173.4
1036.8866	3091.3449	1054.25	172.45
1036.9948	3092.3503	1056.1	172.05
1037.1028	3093.3551	1050.35	169.45
1037.2108	3094.3593	1045.95	166.4
1037.3188	3095.3629	1046.55	164.55
1037.4267	3096.3658	1040.75	158.55
1037.5346	3097.3681	1034.4	153.25
1037.6425	3098.3698	1039.5	154.5
1037.7503	3099.3708	1039.6	150.2
1037.858	3100.3713	1033.05	152.35
1037.9657	3101.3711	1030.55	150.7
1038.0734	3102.3702	1169.15	147.05
1038.181	3103.3688	1031.65	148.6
1038.2886	3104.3667	1022	141.25
1038.3961	3105.364	1022.8	143.4
1038.5036	3106.3607	1015.4	130.3
1038.611	3107.3568	1019.15	136.6
1038.7184	3108.3522	1018.3	136.8
1038.8257	3109.347	1017.15	134.6
1038.933	3110.3412	1023.55	137.95
1039.0403	3111.3348	1017.95	135.65
1039.1475	3112.3277	1010.45	129.2
1039.2547	3113.32	1010.9	129.95
1039.3618	3114.3117	1009.35	126.2
1039.4689	3115.3028	1006	125.85
1039.5759	3116.2932	1005.45	121.45
1039.6829	3117.2831	1008.65	121.65
1039.7898	3118.2723	1005.7	125.55
1039.8967	3119.2608	1003.35	120.55
1040.0035	3120.2488	1003.35	122.45
1040.1103	3121.2361	999.75	117.15
1040.2171	3122.2229	996.65	114.85
1040.3238	3123.209	997.85	112.9
1040.4305	3124.1944	995.2	114.65
1040.5371	3125.1793	996.75	112.15
1040.6437	3126.1635	993.7	113.75
1040.7502	3127.1471	994.9	113.35
1040.8567	3128.1301	989.95	108.95
1040.9631	3129.1125	993.45	112.45
1041.0695	3130.0942	993.9	112.35
1041.1759	3131.0753	995.05	104.7
1041.2822	3132.0558	992.15	108.45
1041.3884	3133.0357	987.8	105.75
1041.4946	3134.015	987.05	104.65
1041.6008	3134.9936	987.95	103.65
1041.7069	3135.9716	1004.55	101.15
1041.813	3136.949	985	101.95
1041.919	3137.9258	1002.05	103.85
1042.025	3138.902	986.75	100.35
1042.1309	3139.8775	980.75	100.75
1042.2368	3140.8524	978.8	97.25
1042.3427	3141.8267	980.5	96.35
1042.4485	3142.8004	979.7	98.6
1042.5542	3143.7735	987.25	98.1
1042.6599	3144.7459	979.2	95.1
1042.7656	3145.7178	975.65	92.85
1042.8712	3146.689	975.6	95.4
1042.9768	3147.6596	977.8	93.35
1043.0823	3148.6295	977.05	96.8
1043.1878	3149.5989	972.4	89.4
1043.2932	3150.5676	972.55	91.1
1043.3986	3151.5357	968.6	88.75
1043.5039	3152.5032	970.8	90.45
1043.6092	3153.4701	970.85	89.95
1043.7145	3154.4364	970.65	88.55
1043.8197	3155.402	968.4	86.85
1043.9248	3156.367	974	91.7
1044.03	3157.3315	988.25	88.6
1044.135	3158.2952	964.6	83.7
1044.24	3159.2584	965.45	84
1044.345	3160.221	965.8	80.95
1044.4499	3161.1829	962.9	81.8
1044.5548	3162.1442	961.8	80.05
1044.6596	3163.105	960.9	80.4
1044.7644	3164.065	965.9	83.05
1044.8692	3165.0245	965.8	80.4
1044.9739	3165.9834	961.6	82.65
1045.0785	3166.9416	960.9	78.65
1045.1831	3167.8993	965.5	83.4
1045.2877	3168.8563	961.4	78.2
1045.3922	3169.8127	961.15	81.9
1045.4966	3170.7684	961.25	79.25
1045.6011	3171.7236	960.75	78
1045.7054	3172.6782	960.65	76.8
1045.8098	3173.6321	961.7	80.55
1045.914	3174.5854	966.35	80.55
1046.0183	3175.5381	957.85	75.55
1046.1224	3176.4902	957.35	76.95
1046.2266	3177.4417	958.4	77.25
1046.3307	3178.3926	956.95	76.45
1046.4347	3179.3428	955.75	75.3
1046.5387	3180.2924	954	71.2
1046.6427	3181.2415	955.1	73
1046.7466	3182.1899	956.65	72.3
1046.8504	3183.1377	954.75	73.8
1046.9542	3184.0848	957.3	72.1
1047.058	3185.0314	951.65	69.85
1047.1617	3185.9773	953.35	72.85
1047.2654	3186.9227	954.65	70.55
1047.369	3187.8674	950.5	68.1
1047.4726	3188.8115	955.6	69.35
1047.5761	3189.755	949.6	69.6
1047.6796	3190.6979	950.7	69.15
1047.783	3191.6402	950.4	69.65
1047.8864	3192.5818	950.85	69.7
1047.9898	3193.5229	969.95	68.3
1048.0931	3194.4633	951.75	69.6
1048.1963	3195.4031	949.1	67.15
1048.2995	3196.3423	945.25	62.5
1048.4027	3197.2809	948.65	65.25
1048.5058	3198.2189	947.8	66
1048.6089	3199.1563	952.6	64.1
1048.7119	3200.0931	948.6	67.05
1048.8148	3201.0292	946.5	66.8
1048.9178	3201.9648	946.6	66.15
1049.0206	3202.8997	949.95	66.2
1049.1235	3203.834	945.15	62.35
1049.2262	3204.7677	943.5	61.15
1049.329	3205.7008	947.65	63.25
1049.4317	3206.6333	941.5	61.45
1049.5343	3207.5652	946.05	60.75
1049.6369	3208.4964	942.8	59.15
1049.7394	3209.4271	941.05	57.6
1049.8419	3210.3571	942.65	61.05
1049.9444	3211.2865	939.95	57.2
1050.0468	3212.2154	942.4	60.9
1050.1491	3213.1436	947.4	62.3
1050.2514	3214.0712	949.8	61.3
1050.3537	3214.9982	940.4	58.15
1050.4559	3215.9246	940.9	58.8
1050.5581	3216.8503	938.3	59.7
1050.6602	3217.7755	939.5	55.65
1050.7623	3218.7001	936.6	55.3
1050.8643	3219.624	941.1	60.85
1050.9663	3220.5473	940.85	58.2
1051.0682	3221.4701	939.3	54.7
1051.1701	3222.3922	942.75	57.2
1051.2719	3223.3137	937.95	58.05
1051.3737	3224.2346	937.45	54.95
1051.4754	3225.1549	936.65	56.8
1051.5771	3226.0746	937.35	56.05
1051.6788	3226.9937	937.7	54.8
1051.7804	3227.9121	934.2	55.3
1051.8819	3228.83	936.1	54
1051.9834	3229.7473	938.3	56.65
1052.0849	3230.6639	937.85	56.4
1052.1863	3231.5799	934.15	52.2
1052.2876	3232.4954	936.3	54.6
1052.3889	3233.4102	936.25	54.65
1052.4902	3234.3244	934.9	52
1052.5914	3235.238	934.3	52.55
1052.6926	3236.151	960.05	53.7
1052.7937	3237.0634	932	51.3
1052.8948	3237.9752	932.4	52.15
1052.9958	3238.8864	932.15	51.4
1053.0968	3239.797	930.5	50.6
1053.1977	3240.7069	933.45	51.15
1053.2986	3241.6163	932.45	49
1053.3994	3242.5251	930.35	51.2
1053.5002	3243.4332	927.8	47.15
1053.6009	3244.3408	930.5	47.6
1053.7016	3245.2477	928.85	47.95
1053.8022	3246.154	929.85	48.65
1053.9028	3247.0598	928	44.2
1054.0034	3247.9649	929.1	46.8
1054.1039	3248.8694	926.8	45.3
1054.2043	3249.7733	928.9	47
1054.3047	3250.6766	925.45	41.15
1054.4051	3251.5793	931.5	48.05
1054.5054	3252.4814	927.35	46
1054.6056	3253.3829	924.9	43.6
1054.7058	3254.2838	927.25	47.75
1054.806	3255.1841	924.6	42.6
1054.9061	3256.0838	922.5	42.4
1055.0061	3256.9829	923.9	45.75
1055.1062	3257.8814	927.05	44.6
1055.2061	3258.7792	926.5	41.35
1055.306	3259.6765	925.9	42
1055.4059	3260.5731	921	39.2
1055.5057	3261.4692	922.4	39.55
1055.6055	3262.3647	922.65	39.55
1055.7052	3263.2595	921.75	41.45
1055.8049	3264.1538	920.8	40.65
1055.9045	3265.0474	920.85	38.45
1056.0041	3265.9404	919.2	37.75
1056.1036	3266.8329	920.1	39.05
1056.2031	3267.7247	927.55	35.8
1056.3025	3268.616	914.3	33.95
1056.4019	3269.5066	914.7	33
1056.5013	3270.3966	917.05	33.55
1056.6005	3271.286	910.6	31.6
