Software Version:	3.9.2.0
Unit SN:	10000200
Spectrometer SN:	6960
Date:	3/14/2024 12:52:39 PM
Data Line Index:	25
Spectral Points:	2048
Integration time (ms):	125
Averages:	20
Delay (ms):	30000
Sequence Number:	1
Processing:	dark subtract
Laser Power (mW):	300
Laser Current (mA):	823
Laser Diode Temp (C):	25
Laser Case Temp (C):	27.7
System Temp (C):	27.8
Spectrometer Temp (C):	25.5
CCD Temp (C):	0.015
Secondary Temp (C):	20.006
Heatsink Temp (C):	23.617
CCDPCB Temp (C):	37.274
SecondaryPCB Temp (C):	34.795

Wavelength	RamanShift	Raw Counts	Dark Subtracted
787.061	30.1047	415	4
787.2016	32.3739	417.8	6.15
787.3422	34.6426	418.5	7.45
787.4828	36.9109	421.7	7.95
787.6235	39.1787	425.5	7.5
787.7642	41.4461	431.2	8.15
787.9049	43.7131	434.75	9.55
788.0456	45.9796	438.75	11.1
788.1863	48.2456	441.75	10.75
788.3271	50.5112	448.6	12.1
788.4679	52.7764	450.2	10.9
788.6087	55.0411	452.25	9.8
788.7496	57.3054	459.4	10.95
788.8904	59.5692	463.05	14.35
789.0313	61.8326	467.5	15.05
789.1722	64.0955	473.7	16.4
789.3132	66.3579	481.35	18.55
789.4541	68.6199	483.95	17.9
789.5951	70.8815	494.65	27.4
789.7361	73.1426	506.05	34.7
789.8771	75.4032	538.85	64.15
790.0181	77.6634	601.15	119.75
790.1592	79.9231	743.2	256.35
790.3003	82.1824	1042.75	551.25
790.4414	84.4412	1553.6	1054.4
790.5825	86.6995	2237.25	1725.15
790.7237	88.9574	2903.65	2381.5
790.8648	91.2148	3372.7	2846
791.006	93.4717	3602.95	3071.55
791.1472	95.7282	3656	3118.85
791.2885	97.9842	3675.9	3136.3
791.4297	100.2398	3682.1	3139.05
791.571	102.4949	3653.45	3107.1
791.7123	104.7495	3625.6	3078.4
791.8536	107.0036	3598.05	3046.65
791.9949	109.2573	3545.7	2995.9
792.1363	111.5105	3490.85	2941.65
792.2777	113.7632	3428.25	2872.5
792.4191	116.0154	3388.45	2823.55
792.5605	118.2672	3315.8	2758.7
792.7019	120.5185	3248.2	2691.05
792.8434	122.7693	3192.9	2632.6
792.9849	125.0197	3152.25	2587.45
793.1264	127.2696	3115.1	2548.7
793.2679	129.519	3099.3	2531.75
793.4094	131.7679	3078.35	2508.25
793.551	134.0163	3064.75	2490.4
793.6926	136.2642	3067.55	2487.1
793.8342	138.5117	3064.5	2480.55
793.9758	140.7587	3054.15	2469.5
794.1175	143.0052	3011.35	2425.1
794.2591	145.2512	2975.6	2389.95
794.4008	147.4967	2952.35	2366.15
794.5425	149.7417	2914.8	2326
794.6842	151.9863	2891.9	2299.15
794.826	154.2304	2896.05	2299.35
794.9677	156.4739	2887.55	2284.25
795.1095	158.717	2886.95	2285.25
795.2513	160.9596	2906.35	2298.75
795.3931	163.2017	2905.8	2299.15
795.535	165.4433	2913.05	2301.25
795.6768	167.6844	2907.2	2292.45
795.8187	169.925	2901.35	2286.05
795.9606	172.1651	2872.95	2253.9
796.1025	174.4047	2837	2212.75
796.2445	176.6439	2802.1	2178.2
796.3864	178.8825	2779.65	2153.3
796.5284	181.1206	2768.9	2138.25
796.6704	183.3582	2774.8	2140.6
796.8124	185.5954	2766.85	2129.7
796.9544	187.832	2754.3	2116.65
797.0965	190.0681	2766.2	2125.15
797.2386	192.3037	2758.35	2111.05
797.3806	194.5388	2769.35	2121.95
797.5228	196.7734	2766.95	2116.8
797.6649	199.0075	2775.8	2119.45
797.807	201.2411	2805.65	2147.9
797.9492	203.4742	2808.05	2149.35
798.0914	205.7068	2811.85	2156
798.2336	207.9389	2816.55	2159.05
798.3758	210.1704	2837.8	2175.75
798.518	212.4015	2828.15	2163.45
798.6603	214.632	2828.75	2159.8
798.8025	216.862	2827	2165
798.9448	219.0915	2828.85	2176.35
799.0871	221.3205	2833.55	2183.65
799.2294	223.549	2822.4	2179.2
799.3718	225.777	2824.3	2180.85
799.5141	228.0044	2821.95	2173.85
799.6565	230.2314	2815.75	2172.2
799.7989	232.4578	2797.05	2152.2
799.9413	234.6837	2793.7	2138.95
800.0837	236.909	2782.2	2127.85
800.2262	239.1339	2789.4	2109.7
800.3687	241.3582	2766.55	2102.8
800.5111	243.582	2777.6	2090.45
800.6536	245.8053	2785.5	2106.05
800.7961	248.0281	2771.8	2093.05
800.9387	250.2503	2792.3	2111.45
801.0812	252.472	2794.4	2108.2
801.2238	254.6932	2791.4	2098.8
801.3664	256.9139	2804.5	2109.6
801.509	259.134	2796.7	2101
801.6516	261.3536	2807.6	2115.65
801.7942	263.5727	2828.9	2132.85
801.9369	265.7912	2845.9	2148.5
802.0795	268.0092	2879.35	2181.3
802.2222	270.2267	2915.9	2220.3
802.3649	272.4436	2943.75	2245.9
802.5076	274.6601	2957.75	2249.5
802.6504	276.8759	2962.65	2262.85
802.7931	279.0913	2968.45	2265.15
802.9359	281.3061	2981.05	2275.1
803.0787	283.5204	2991.25	2282.65
803.2215	285.7341	3005.65	2296.9
803.3643	287.9473	3017.05	2302.9
803.5071	290.16	3007.1	2286.75
803.6499	292.3721	2978.05	2267.5
803.7928	294.5837	2967.4	2253.9
803.9357	296.7947	2924.05	2210.25
804.0786	299.0052	2931.9	2218.35
804.2215	301.2152	2906.15	2187.25
804.3644	303.4246	2892.55	2177.05
804.5074	305.6334	2880.55	2164.65
804.6503	307.8418	2855	2138.65
804.7933	310.0495	2849.55	2128.7
804.9363	312.2568	2818.2	2100.55
805.0793	314.4635	2798.5	2077.25
805.2223	316.6696	2762.55	2042
805.3653	318.8752	2729.5	1999.6
805.5084	321.0802	2707.9	1984.5
805.6514	323.2847	2704.7	1981.3
805.7945	325.4887	2698.9	1974.5
805.9376	327.692	2699.95	1973.15
806.0807	329.8949	2734.45	2008.9
806.2238	332.0972	2745.75	2014.1
806.367	334.2989	2766.75	2033.65
806.5101	336.5001	2753.1	2022.05
806.6533	338.7007	2744.8	2013.85
806.7965	340.9008	2704.4	1969.8
806.9397	343.1003	2667.65	1930.95
807.0829	345.2992	2648	1908.6
807.2261	347.4976	2621.9	1881.25
807.3693	349.6955	2598.65	1856.45
807.5126	351.8927	2583.2	1839.95
807.6559	354.0895	2570.35	1815.65
807.7991	356.2856	2565.55	1819.55
807.9424	358.4812	2554.2	1811.05
808.0857	360.6763	2540.5	1793.15
808.2291	362.8707	2544	1799.75
808.3724	365.0646	2549.75	1797.35
808.5158	367.258	2542.85	1789.75
808.6591	369.4508	2554.35	1796.05
808.8025	371.643	2570.1	1812.3
808.9459	373.8346	2588.2	1830.5
809.0893	376.0257	2605.55	1842.7
809.2327	378.2162	2604.55	1841.1
809.3762	380.4062	2619.05	1854.85
809.5196	382.5956	2603.1	1837.1
809.6631	384.7844	2569.95	1805.5
809.8066	386.9726	2532.6	1766.1
809.9501	389.1603	2516.1	1751
810.0936	391.3474	2533.5	1731.35
810.2371	393.5339	2496.25	1727.4
810.3806	395.7199	2496.2	1733.1
810.5241	397.9052	2508.7	1749.25
810.6677	400.09	2522	1764.1
810.8113	402.2743	2547.95	1790
810.9548	404.4579	2565.85	1808.55
811.0984	406.641	2591.9	1832.8
811.2421	408.8235	2616.75	1857.5
811.3857	411.0054	2647.9	1884.65
811.5293	413.1868	2727.9	1966.35
811.673	415.3675	2794	2030.15
811.8166	417.5477	2797.6	2034.2
811.9603	419.7273	2718.95	1949.75
812.104	421.9064	2643.8	1867.2
812.2477	424.0848	2577.1	1801.75
812.3914	426.2627	2543.6	1767.9
812.5351	428.4399	2508.4	1732.35
812.6788	430.6166	2467.6	1685.2
812.8226	432.7928	2447.65	1664.5
812.9663	434.9683	2406.3	1625.5
813.1101	437.1432	2388.05	1603.85
813.2539	439.3176	2370.55	1586.4
813.3977	441.4914	2354.05	1568.45
813.5415	443.6645	2362.25	1574.8
813.6853	445.8371	2358.45	1570.55
813.8291	448.0091	2357.8	1572
813.973	450.1806	2342.95	1555.15
814.1168	452.3514	2339.65	1551
814.2607	454.5216	2335.65	1536.35
814.4046	456.6913	2316.1	1520.55
814.5485	458.8603	2327.35	1536.95
814.6924	461.0288	2335.95	1545.15
814.8363	463.1967	2314.95	1523.6
814.9802	465.3639	2325.4	1531.85
815.1241	467.5306	2312.15	1518.95
815.2681	469.6967	2308.55	1514.85
815.412	471.8622	2312.9	1518.95
815.556	474.0271	2299.85	1506.2
815.7	476.1914	2289.6	1491.45
815.844	478.3551	2282.8	1486.55
815.988	480.5182	2294.8	1498.1
816.132	482.6807	2287.2	1490.2
816.276	484.8426	2297.35	1500.2
816.4201	487.0039	2319.95	1519.4
816.5641	489.1647	2342	1544
816.7082	491.3248	2372.9	1574.85
816.8522	493.4843	2388.45	1587.75
816.9963	495.6432	2368.55	1569.1
817.1404	497.8015	2349	1544.15
817.2845	499.9592	2327.45	1529.65
817.4286	502.1163	2294.8	1493.35
817.5727	504.2728	2277.1	1472.85
817.7168	506.4287	2250.55	1449.75
817.861	508.5839	2232.7	1431.15
818.0051	510.7386	2236.45	1433.1
818.1493	512.8927	2246.7	1433.75
818.2935	515.0461	2236.15	1431.55
818.4377	517.199	2247.85	1442
818.5818	519.3512	2274.2	1467.9
818.726	521.5029	2305.2	1492.45
818.8703	523.6539	2337.2	1528.05
819.0145	525.8043	2339.55	1531.75
819.1587	527.9541	2301.95	1493.35
819.303	530.1033	2263.35	1453.25
819.4472	532.2519	2240.75	1430.75
819.5915	534.3999	2223.7	1412.05
819.7357	536.5472	2226.6	1416.4
819.88	538.694	2218.55	1405.85
820.0243	540.8401	2230.05	1417.5
820.1686	542.9856	2239.75	1425.75
820.3129	545.1305	2233.1	1420.05
820.4572	547.2748	2234.65	1420.2
820.6016	549.4185	2243.15	1427.75
820.7459	551.5615	2254.35	1439.45
820.8902	553.704	2254.5	1437.7
821.0346	555.8458	2270.05	1453.6
821.1789	557.987	2278.7	1461.9
821.3233	560.1276	2289.15	1470.4
821.4677	562.2675	2311.6	1496.6
821.6121	564.4069	2357.45	1541
821.7565	566.5456	2372.45	1556.35
821.9009	568.6837	2369.9	1555.65
822.0453	570.8212	2325.35	1506.1
822.1897	572.958	2293.45	1472.4
822.3342	575.0942	2268.6	1450.4
822.4786	577.2299	2236.2	1418.5
822.6231	579.3648	2216.3	1397.95
822.7675	581.4992	2184.1	1365.1
822.912	583.6329	2192.15	1371.75
823.0565	585.766	2200.6	1382.4
823.201	587.8985	2226.25	1408.8
823.3454	590.0304	2257.55	1424.1
823.4899	592.1616	2268.45	1444.45
823.6345	594.2922	2254.9	1432.6
823.779	596.4222	2236.55	1414.15
823.9235	598.5515	2205.55	1384.3
824.068	600.6802	2162.95	1338.55
824.2126	602.8083	2138.95	1314.55
824.3571	604.9358	2130.75	1305.6
824.5017	607.0626	2130.85	1304.15
824.6462	609.1888	2127.8	1300.75
824.7908	611.3144	2149.3	1322.4
824.9354	613.4393	2160.7	1336.45
825.08	615.5636	2203.85	1378.2
825.2246	617.6873	2213.2	1388
825.3692	619.8103	2234.6	1407.7
825.5138	621.9327	2236.85	1407.3
825.6584	624.0544	2220.15	1391.15
825.803	626.1756	2183.85	1356.05
825.9477	628.2961	2156.9	1327.2
826.0923	630.4159	2131.1	1302.8
826.237	632.5351	2139.4	1309.8
826.3816	634.6537	2125	1294.5
826.5263	636.7716	2116.4	1286.15
826.6709	638.8889	2115.45	1283.7
826.8156	641.0056	2111.4	1282.6
826.9603	643.1216	2122.35	1289.4
827.105	645.237	2121.75	1287.15
827.2497	647.3518	2101.6	1267.3
827.3944	649.4659	2085.2	1251.4
827.5391	651.5793	2079.25	1247.35
827.6838	653.6922	2081.5	1247.9
827.8285	655.8043	2066.55	1231.5
827.9733	657.9159	2061.25	1228.05
828.118	660.0268	2051.95	1215
828.2627	662.137	2057.7	1220.9
828.4075	664.2466	2048.65	1211.6
828.5522	666.3556	2045.1	1209.65
828.697	668.4639	2037.25	1198
828.8418	670.5716	2038.3	1201.5
828.9865	672.6786	2030.2	1191.9
829.1313	674.785	2031.55	1192.7
829.2761	676.8907	2016.6	1177.55
829.4209	678.9958	2023.2	1186.25
829.5657	681.1002	2013.1	1172.55
829.7105	683.204	2018.45	1174.6
829.8553	685.3072	2011.35	1171.9
830.0001	687.4097	2013.55	1173.55
830.1449	689.5115	2011.7	1170.55
830.2898	691.6127	2010.8	1173.4
830.4346	693.7132	1999.35	1157.5
830.5794	695.8131	2014.85	1162.7
830.7243	697.9123	2009.95	1167.75
830.8691	700.0109	2012.1	1171
831.014	702.1089	2019.75	1179.6
831.1588	704.2061	2030.65	1187.65
831.3037	706.3028	2033	1188.25
831.4486	708.3987	2043.55	1198.55
831.5935	710.4941	2050.25	1207.3
831.7383	712.5887	2054.2	1209.6
831.8832	714.6827	2050.1	1200.85
832.0281	716.7761	2047.95	1203.9
832.173	718.8688	2046.25	1201.65
832.3179	720.9608	2056.2	1208.9
832.4628	723.0522	2062.85	1216.15
832.6077	725.1429	2068.8	1224.6
832.7527	727.233	2089.7	1244.65
832.8976	729.3224	2135.5	1289.9
833.0425	731.4112	2157.65	1311.35
833.1874	733.4993	2170.95	1319.9
833.3324	735.5867	2144.1	1295.15
833.4773	737.6735	2092.4	1245.55
833.6222	739.7596	2059.75	1211.4
833.7672	741.845	2047.95	1199.3
833.9122	743.9298	2052.7	1202.35
834.0571	746.014	2064	1216.6
834.2021	748.0974	2085.5	1235.65
834.347	750.1802	2082.4	1233.1
834.492	752.2624	2059.35	1211
834.637	754.3439	2048.15	1194
834.782	756.4247	2039.1	1180.85
834.9269	758.5048	2031.2	1179.85
835.0719	760.5843	2035.6	1183.95
835.2169	762.6631	2045.15	1195.85
835.3619	764.7413	2069.2	1218.45
835.5069	766.8188	2118.7	1267.95
835.6519	768.8956	2157.85	1305.2
835.7969	770.9718	2190.85	1340.25
835.9419	773.0473	2185.35	1333.95
836.0869	775.1221	2180.55	1329.3
836.232	777.1962	2160.05	1308
836.377	779.2697	2186.65	1332.85
836.522	781.3426	2258.75	1394.75
836.667	783.4147	2288.5	1434.45
836.8121	785.4862	2269.3	1416.4
836.9571	787.557	2223.85	1372.25
837.1021	789.6271	2157.15	1303.8
837.2472	791.6966	2069.75	1217.15
837.3922	793.7654	2017.05	1159.55
837.5373	795.8335	1983.5	1128.85
837.6823	797.901	1960.25	1105.9
837.8274	799.9678	1952.7	1096.1
837.9724	802.0339	1962.75	1108.55
838.1175	804.0993	1963.55	1097.8
838.2626	806.1641	1944.4	1088.15
838.4076	808.2282	1937.35	1082.25
838.5527	810.2916	1932.2	1074.35
838.6978	812.3544	1913.65	1056.7
838.8428	814.4164	1909.3	1056.2
838.9879	816.4778	1912.6	1057.05
839.133	818.5385	1916.7	1062
839.2781	820.5986	1939.5	1084.8
839.4232	822.658	1981.2	1123.4
839.5682	824.7166	2007	1150.1
839.7133	826.7747	2057.05	1202.65
839.8584	828.832	2108.8	1250.85
840.0035	830.8886	2137.7	1278.05
840.1486	832.9446	2146	1286.8
840.2937	834.9999	2130.8	1274.85
840.4388	837.0545	2082.15	1218.65
840.5839	839.1085	2028.9	1170.35
840.729	841.1618	1991.3	1129.1
840.8741	843.2143	1953.05	1094.35
841.0192	845.2662	1929.4	1072.65
841.1643	847.3175	1918.1	1060.75
841.3095	849.368	1912.55	1054.6
841.4546	851.4179	1912.2	1054
841.5997	853.467	1903.35	1044.5
841.7448	855.5155	1914.65	1055.05
841.8899	857.5633	1908.45	1049.35
842.0351	859.6105	1899.45	1040.75
842.1802	861.6569	1891.4	1032.45
842.3253	863.7027	1888.4	1028.15
842.4704	865.7478	1875.7	1015.25
842.6156	867.7922	1869.35	1011.35
842.7607	869.8359	1873.05	1010.35
842.9058	871.8789	1870.55	1009.5
843.0509	873.9212	1894.8	1000.95
843.1961	875.9629	1873	1012.75
843.3412	878.0039	1862.95	1000.75
843.4863	880.0441	1870.85	1010.15
843.6315	882.0837	1883.75	1020.7
843.7766	884.1226	1902.45	1038.45
843.9218	886.1609	1925.1	1061.7
844.0669	888.1984	1954.05	1092.55
844.212	890.2352	1975.5	1114.5
844.3572	892.2714	1982.8	1115.55
844.5023	894.3069	1967.9	1103.55
844.6475	896.3416	1940.65	1076.25
844.7926	898.3757	1907.1	1044.6
844.9377	900.4091	1895.2	1031.8
845.0829	902.4418	1898.45	1030.85
845.228	904.4739	1899.45	1036.05
845.3732	906.5052	1909.7	1045.5
845.5183	908.5358	1907.75	1044.3
845.6635	910.5658	1889.75	1024.15
845.8086	912.595	1870.9	1007.45
845.9538	914.6236	1845.6	981.05
846.0989	916.6515	1829.2	962.85
846.2441	918.6786	1814.75	950.35
846.3892	920.7051	1813.65	946.25
846.5344	922.7309	1806	942.05
846.6795	924.756	1804.95	940.95
846.8246	926.7804	1811.7	946.2
846.9698	928.8041	1820.45	954.75
847.1149	930.8272	1824.2	958.5
847.2601	932.8495	1825	958.1
847.4052	934.8711	1830.7	964.8
847.5504	936.892	1831.45	964.7
847.6955	938.9123	1837.6	971.6
847.8407	940.9318	1847.95	982.9
847.9858	942.9506	1862.55	995.75
848.131	944.9688	1849.75	984.45
848.2761	946.9862	1838.7	971.6
848.4213	949.003	1806.6	940
848.5664	951.019	1805.15	937.95
848.7115	953.0344	1794.65	927.2
848.8567	955.0491	1788.45	920.45
849.0018	957.063	1773.25	906.45
849.147	959.0763	1774.1	906.15
849.2921	961.0888	1769	898.35
849.4373	963.1007	1767.15	899.4
849.5824	965.1119	1760.25	893.85
849.7275	967.1223	1749.85	881.75
849.8727	969.1321	1748.05	878.65
850.0178	971.1412	1744.55	876.35
850.1629	973.1495	1740.05	873.15
850.3081	975.1572	1774.95	869.7
850.4532	977.1641	1742.05	875.75
850.5983	979.1704	1740.35	871.9
850.7435	981.1759	1744	872
850.8886	983.1808	1733.25	864.4
851.0337	985.1849	1729.35	849.65
851.1788	987.1884	1732.25	861.55
851.324	989.1911	1726.5	854
851.4691	991.1932	1741.2	871.45
851.6142	993.1945	1727.9	857.6
851.7593	995.1951	1725.65	855.45
851.9045	997.1951	1731.75	856
852.0496	999.1943	1720.65	851.45
852.1947	1001.1928	1720.45	850.7
852.3398	1003.1906	1717.1	849.25
852.4849	1005.1877	1737.4	868.35
852.63	1007.1841	1752	881.6
852.7751	1009.1798	1746.6	877.65
852.9202	1011.1748	1745.95	876.3
853.0653	1013.1691	1729.05	857.9
853.2104	1015.1627	1714.1	843.9
853.3555	1017.1556	1680.2	810.65
853.5006	1019.1477	1672.25	802.2
853.6457	1021.1392	1672.5	804.45
853.7908	1023.1299	1652.85	781.6
853.9359	1025.12	1652.3	779.2
854.081	1027.1093	1666.9	796.8
854.2261	1029.0979	1672.75	802.2
854.3712	1031.0859	1682.6	813.05
854.5163	1033.0731	1686.6	812.65
854.6613	1035.0596	1674.6	805.05
854.8064	1037.0454	1678.1	806.75
854.9515	1039.0304	1657.3	784.95
855.0965	1041.0148	1649.95	779.65
855.2416	1042.9985	1637	763.3
855.3867	1044.9814	1625.3	754.7
855.5317	1046.9636	1632.85	758.25
855.6768	1048.9452	1620.25	750.5
855.8219	1050.926	1629.8	758.8
855.9669	1052.9061	1640.5	769.75
856.112	1054.8855	1645	770.7
856.257	1056.8642	1653.65	782
856.4021	1058.8421	1646.15	771.4
856.5471	1060.8194	1640.65	767.75
856.6921	1062.7959	1628.5	757.05
856.8372	1064.7717	1640.25	765.05
856.9822	1066.7469	1634.15	760.35
857.1272	1068.7213	1636.85	760.55
857.2723	1070.695	1636.95	766.6
857.4173	1072.6679	1650.4	778.35
857.5623	1074.6402	1664.65	791.05
857.7073	1076.6117	1669.1	789.3
857.8523	1078.5826	1657.95	784.7
857.9973	1080.5527	1626.35	750.2
858.1423	1082.5221	1613.8	737.75
858.2873	1084.4908	1590.15	717.95
858.4323	1086.4587	1577.8	704.3
858.5773	1088.426	1577.4	702.25
858.7223	1090.3925	1575.55	697.65
858.8673	1092.3584	1580.85	709.4
859.0123	1094.3235	1576.4	705.25
859.1573	1096.2879	1584.1	710.75
859.3022	1098.2515	1592.9	719.3
859.4472	1100.2145	1610.45	736.05
859.5922	1102.1767	1631	754
859.7371	1104.1382	1651.5	776.85
859.8821	1106.099	1677.45	800.9
860.027	1108.0591	1703.95	829.3
860.172	1110.0185	1727.05	850.75
860.3169	1111.9771	1743.8	870.55
860.4619	1113.9351	1769.1	896.4
860.6068	1115.8923	1799.1	924.8
860.7517	1117.8488	1818.8	943.75
860.8967	1119.8045	1791.65	916.35
861.0416	1121.7596	1736	858.5
861.1865	1123.7139	1665.9	789.85
861.3314	1125.6675	1640.25	764.85
861.4763	1127.6204	1637.4	762.25
861.6212	1129.5726	1655.15	777.75
861.7661	1131.524	1638.8	764.45
861.911	1133.4748	1622.75	747.7
862.0559	1135.4248	1586.15	712.75
862.2008	1137.3741	1558.85	683.35
862.3457	1139.3226	1541.25	663.25
862.4905	1141.2705	1552.2	678.1
862.6354	1143.2176	1556.2	673.65
862.7803	1145.164	1550.9	674.35
862.9251	1147.1097	1553.8	677.35
863.07	1149.0546	1532.75	654.9
863.2148	1150.9989	1521.2	643.95
863.3597	1152.9424	1509.35	629.5
863.5045	1154.8852	1499.45	622.5
863.6493	1156.8272	1493.3	618.15
863.7942	1158.7686	1499.3	615.1
863.939	1160.7092	1490.35	613.9
864.0838	1162.6491	1495.05	613.85
864.2286	1164.5883	1499.05	624.55
864.3734	1166.5267	1515.65	638.85
864.5182	1168.4644	1518.1	641.95
864.663	1170.4014	1537.35	657.1
864.8078	1172.3377	1552.55	677.35
864.9526	1174.2732	1585	708.8
865.0974	1176.2081	1636.65	760.35
865.2421	1178.1421	1707.65	826.55
865.3869	1180.0755	1752.75	877.6
865.5317	1182.0082	1796.85	919.85
865.6764	1183.9401	1771.3	892.4
865.8212	1185.8713	1727.35	852
865.9659	1187.8017	1651	770.95
866.1106	1189.7315	1592.8	715.3
866.2554	1191.6605	1579.45	674.3
866.4001	1193.5888	1523.65	647.1
866.5448	1195.5163	1505.9	629.75
866.6895	1197.4432	1494.75	616.9
866.8342	1199.3693	1480	603.3
866.9789	1201.2947	1486.2	601.05
867.1236	1203.2193	1469.5	591.35
867.2683	1205.1432	1466.95	588.3
867.413	1207.0664	1468.05	592
867.5576	1208.9889	1463.3	584.5
867.7023	1210.9106	1461.25	584.85
867.847	1212.8316	1459.4	583.45
867.9916	1214.7519	1474.4	586.3
868.1363	1216.6715	1472.7	595.3
868.2809	1218.5903	1484.7	607.45
868.4255	1220.5084	1486.05	608.55
868.5701	1222.4257	1489.4	609.45
868.7148	1224.3424	1486.75	609.85
868.8594	1226.2583	1507.1	626.7
869.004	1228.1735	1511.15	632.35
869.1486	1230.0879	1529.75	649.7
869.2932	1232.0016	1555.7	678
869.4377	1233.9146	1582.4	700.45
869.5823	1235.8269	1590.05	712.6
869.7269	1237.7384	1593.35	714.55
869.8715	1239.6492	1585.05	706.95
870.016	1241.5592	1600.9	720.8
870.1606	1243.4686	1619.45	739.45
870.3051	1245.3772	1655.05	775.75
870.4496	1247.285	1704.9	826.45
870.5941	1249.1922	1748.75	869.8
870.7387	1251.0986	1787.95	908.4
870.8832	1253.0042	1814.9	935.15
871.0277	1254.9092	1856.3	976.6
871.1722	1256.8134	1917.6	1039.55
871.3167	1258.7169	1954.45	1073.3
871.4611	1260.6196	1964.2	1085.2
871.6056	1262.5216	1975.35	1093.45
871.7501	1264.4229	1964.05	1085.95
871.8945	1266.3234	1949.6	1072.55
872.039	1268.2232	1918.35	1037.95
872.1834	1270.1223	1890.8	1009.1
872.3278	1272.0207	1872.1	993.8
872.4723	1273.9183	1858.55	972.7
872.6167	1275.8151	1860.9	979.9
872.7611	1277.7113	1878.25	998.05
872.9055	1279.6067	1928.9	1049
873.0499	1281.5014	2002.75	1122.2
873.1943	1283.3953	2106.5	1225.6
873.3386	1285.2885	2199.8	1319.25
873.483	1287.181	2262.65	1383.1
873.6274	1289.0727	2294.4	1417.4
873.7717	1290.9637	2269.85	1391.2
873.9161	1292.854	2213.5	1334
874.0604	1294.7435	2136.1	1256.4
874.2047	1296.6323	2089.3	1209.4
874.349	1298.5204	2039.65	1157.35
874.4933	1300.4077	1993.75	1112.25
874.6376	1302.2943	1973.45	1093.5
874.7819	1304.1802	1952.6	1072.4
874.9262	1306.0653	1937.85	1054.4
875.0705	1307.9497	1908.4	1027.4
875.2147	1309.8333	1902.7	1023.15
875.359	1311.7162	1880.75	1000.45
875.5032	1313.5984	1864.45	979.5
875.6475	1315.4798	1867.25	975.45
875.7917	1317.3605	1855.2	971.25
875.9359	1319.2405	1857.2	972.55
876.0801	1321.1197	1845.15	963.65
876.2243	1322.9982	1807.25	921.95
876.3685	1324.876	1774.1	893.2
876.5127	1326.753	1720.65	840.7
876.6569	1328.6293	1672.2	789.85
876.801	1330.5048	1625.8	741.15
876.9452	1332.3796	1586.3	707.8
877.0893	1334.2537	1584.45	678.45
877.2335	1336.127	1531.15	650.65
877.3776	1337.9996	1521.3	639.55
877.5217	1339.8714	1511.35	628.5
877.6658	1341.7426	1543.7	619.45
877.8099	1343.6129	1492.1	613.6
877.954	1345.4826	1483.9	603.65
878.0981	1347.3515	1473.35	589.9
878.2422	1349.2196	1466.7	584.65
878.3862	1351.087	1466.4	584.85
878.5303	1352.9537	1453.25	571.05
878.6743	1354.8197	1461.15	580.3
878.8184	1356.6849	1459.55	579.2
878.9624	1358.5493	1477.9	596.7
879.1064	1360.4131	1479.75	597.3
879.2504	1362.276	1507.4	625.55
879.3944	1364.1383	1522.35	641.65
879.5384	1365.9998	1527.2	641
879.6823	1367.8606	1523.3	641.3
879.8263	1369.7206	1515.15	632.35
879.9702	1371.5799	1520.1	636.15
880.1142	1373.4384	1508.9	627.1
880.2581	1375.2962	1491.5	609
880.402	1377.1533	1464.9	583.25
880.5459	1379.0096	1438.85	554.55
880.6898	1380.8652	1422.2	540.5
880.8337	1382.7201	1415.2	534.8
880.9776	1384.5742	1390.65	510.05
881.1215	1386.4275	1379.7	496.55
881.2653	1388.2802	1370.25	490.3
881.4092	1390.132	1357.3	477.3
881.553	1391.9832	1366.1	485
881.6968	1393.8336	1351.7	468.4
881.8406	1395.6832	1342.25	458.35
881.9844	1397.5322	1330.65	450.6
882.1282	1399.3803	1344.55	456.55
882.272	1401.2278	1326.9	444.65
882.4158	1403.0745	1328.25	445.25
882.5595	1404.9204	1319.85	437.9
882.7033	1406.7656	1314.85	434
882.847	1408.6101	1313.25	428.45
882.9908	1410.4538	1305.85	424.6
883.1345	1412.2968	1314.7	433.65
883.2782	1414.139	1308.2	425.65
883.4219	1415.9805	1316.2	437.05
883.5656	1417.8213	1323.4	435
883.7092	1419.6613	1333.05	450.9
883.8529	1421.5006	1341.1	457.8
883.9965	1423.3391	1361.7	478.7
884.1402	1425.1769	1390.95	506.5
884.2838	1427.0139	1420.8	539.1
884.4274	1428.8502	1469.5	585.95
884.571	1430.6858	1501.7	619.95
884.7146	1432.5206	1518.8	636.2
884.8582	1434.3547	1507.05	625.25
885.0018	1436.188	1497.05	615.55
885.1453	1438.0206	1494.1	611.55
885.2889	1439.8524	1493.6	610.1
885.4324	1441.6835	1481.25	599.7
885.5759	1443.5139	1487.4	600.9
885.7194	1445.3435	1485.3	600.7
885.8629	1447.1724	1488.65	605.6
886.0064	1449.0005	1476.6	594
886.1499	1450.8279	1484.85	601.35
886.2933	1452.6545	1480.45	598.9
886.4368	1454.4804	1471.6	591.25
886.5802	1456.3056	1469.8	579.35
886.7237	1458.13	1461.15	578.85
886.8671	1459.9536	1440.75	558
887.0105	1461.7766	1428.6	545
887.1539	1463.5987	1406.2	523.8
887.2972	1465.4202	1382.8	500.4
887.4406	1467.2409	1362.95	480.2
887.584	1469.0608	1343.45	460.9
887.7273	1470.88	1325.75	441.75
887.8706	1472.6984	1309.6	427.85
888.0139	1474.5161	1307.1	422
888.1572	1476.3331	1297.35	416.95
888.3005	1478.1493	1284.65	401.35
888.4438	1479.9648	1287.15	404.15
888.5871	1481.7795	1283.7	399.75
888.7303	1483.5935	1292.55	411.55
888.8736	1485.4067	1283.05	398.6
889.0168	1487.2192	1287.95	407.25
889.16	1489.031	1291.75	407.65
889.3032	1490.842	1275.8	394
889.4464	1492.6522	1284.1	403.5
889.5896	1494.4618	1277.4	393.8
889.7327	1496.2705	1281.15	399.35
889.8759	1498.0785	1279.85	395.5
890.019	1499.8858	1272.25	387.55
890.1622	1501.6924	1265.65	384.95
890.3053	1503.4981	1264.45	381.6
890.4484	1505.3032	1263.8	381.85
890.5914	1507.1075	1256.95	373.95
890.7345	1508.911	1251.9	368.85
890.8776	1510.7138	1248.75	367.2
891.0206	1512.5159	1244.25	360.2
891.1637	1514.3172	1243.9	361.85
891.3067	1516.1178	1239.3	356.25
891.4497	1517.9176	1233.25	348.65
891.5927	1519.7166	1228.6	347.05
891.7357	1521.515	1232.6	342.9
891.8786	1523.3126	1223.5	338.85
892.0216	1525.1094	1232.4	347.2
892.1645	1526.9055	1216	332.05
892.3074	1528.7008	1214.7	330.95
892.4503	1530.4954	1221.05	334.35
892.5932	1532.2893	1209.55	326.35
892.7361	1534.0824	1214.6	325.2
892.879	1535.8747	1207.05	325.55
893.0218	1537.6663	1209.15	326.5
893.1647	1539.4572	1207.9	322.55
893.3075	1541.2473	1207.8	324.75
893.4503	1543.0367	1198.8	315.4
893.5931	1544.8253	1208.45	320.55
893.7359	1546.6132	1202.4	316.2
893.8787	1548.4003	1215.3	320.4
894.0214	1550.1867	1215.9	323.15
894.1642	1551.9723	1220.35	332.3
894.3069	1553.7572	1222.6	338.25
894.4496	1555.5414	1226.05	342.65
894.5923	1557.3247	1242.35	358.75
894.735	1559.1074	1258.9	374.1
894.8777	1560.8893	1269.9	388
895.0204	1562.6705	1295.5	411.4
895.163	1564.4509	1303.7	419.65
895.3056	1566.2305	1311.5	428.85
895.4482	1568.0094	1303.6	419.8
895.5908	1569.7876	1306.95	422.65
895.7334	1571.565	1302.9	417.5
895.876	1573.3417	1303.05	420
896.0186	1575.1176	1302.45	421.1
896.1611	1576.8928	1312.65	429.2
896.3036	1578.6672	1317.6	434
896.4461	1580.4409	1328.65	444.3
896.5886	1582.2138	1347.55	459.95
896.7311	1583.986	1362.65	479.5
896.8736	1585.7575	1380.1	497
897.0161	1587.5282	1394.3	510.75
897.1585	1589.2981	1402.9	519.05
897.3009	1591.0673	1419.95	535.55
897.4433	1592.8358	1414.35	531.35
897.5857	1594.6035	1412.45	527
897.7281	1596.3704	1405.85	522.4
897.8705	1598.1366	1398.45	516.1
898.0128	1599.9021	1386.1	502.2
898.1551	1601.6668	1375.25	489.1
898.2975	1603.4308	1366.65	482.9
898.4398	1605.194	1367	479
898.5821	1606.9564	1367.6	485.4
898.7243	1608.7182	1412.4	524.55
898.8666	1610.4791	1441.25	556.7
899.0088	1612.2394	1492.85	608.15
899.1511	1613.9988	1529.4	645.95
899.2933	1615.7576	1560.8	676.1
899.4355	1617.5156	1584.65	696.15
899.5776	1619.2728	1548	665.6
899.7198	1621.0293	1517.8	633.45
899.862	1622.785	1466.9	577.35
900.0041	1624.54	1406.6	517.65
900.1462	1626.2942	1351.4	467.25
900.2883	1628.0477	1306	419.6
900.4304	1629.8005	1276	385.85
900.5725	1631.5525	1239.85	357.3
900.7145	1633.3037	1215.1	328.75
900.8566	1635.0542	1200.7	317.1
900.9986	1636.804	1180	296.45
901.1406	1638.553	1233.45	283.95
901.2826	1640.3013	1157.4	275.1
901.4245	1642.0488	1157.1	272.95
901.5665	1643.7955	1145.3	263.15
901.7085	1645.5416	1143.65	260.5
901.8504	1647.2868	1131.8	249.9
901.9923	1649.0313	1129.25	243.85
902.1342	1650.7751	1135.7	248.8
902.2761	1652.5181	1119.7	235.8
902.4179	1654.2604	1127.1	242.85
902.5598	1656.0019	1127.9	244.4
902.7016	1657.7427	1132.45	246.5
902.8434	1659.4828	1137.35	254.45
902.9852	1661.222	1154.95	268.25
903.127	1662.9606	1162.7	279.55
903.2687	1664.6984	1175.45	292.35
903.4105	1666.4354	1185.25	300.55
903.5522	1668.1717	1169.55	286.05
903.6939	1669.9072	1150.05	265.15
903.8356	1671.642	1132.6	246.6
903.9773	1673.3761	1115.15	233.5
904.119	1675.1094	1104.75	221.1
904.2606	1676.8419	1092.65	208.25
904.4022	1678.5737	1087.4	203.2
904.5439	1680.3048	1081.2	196.55
904.6855	1682.0351	1078.35	195.2
904.827	1683.7646	1079.85	192.35
904.9686	1685.4934	1073.35	189.8
905.1101	1687.2215	1070.45	186
905.2517	1688.9488	1064.95	181.6
905.3932	1690.6754	1063.15	180.6
905.5347	1692.4012	1065.4	180.75
905.6761	1694.1263	1064.1	180.95
905.8176	1695.8506	1060.8	178.05
905.9591	1697.5742	1063.4	181.9
906.1005	1699.297	1061.2	176.2
906.2419	1701.0191	1052.65	168.15
906.3833	1702.7404	1055.3	170.45
906.5246	1704.461	1054	168.2
906.666	1706.1808	1056.95	170.75
906.8073	1707.8999	1057.9	172.25
906.9487	1709.6182	1052.15	168.6
907.09	1711.3358	1052.9	169.85
907.2313	1713.0527	1049.75	166.85
907.3725	1714.7688	1053	163.9
907.5138	1716.4841	1050.25	164.45
907.655	1718.1987	1053.7	164.1
907.7962	1719.9126	1044.2	161.25
907.9374	1721.6257	1048.1	160.55
908.0786	1723.338	1049.8	165.4
908.2198	1725.0496	1047.05	163.1
908.3609	1726.7605	1042.25	156.5
908.502	1728.4706	1044.25	158.95
908.6431	1730.18	1043.3	156.25
908.7842	1731.8886	1044.1	160.2
908.9253	1733.5964	1049	160.25
909.0664	1735.3036	1042.95	155.6
909.2074	1737.0099	1041.95	157.2
909.3484	1738.7156	1041.45	158.5
909.4894	1740.4204	1043.2	154
909.6304	1742.1246	1044.8	160.7
909.7714	1743.8279	1042.75	159.1
909.9123	1745.5306	1042.05	157.4
910.0532	1747.2325	1042.15	158.7
910.1941	1748.9336	1039.7	156.35
910.335	1750.634	1042.9	155.5
910.4759	1752.3336	1040.8	156.55
910.6168	1754.0325	1039.55	156.05
910.7576	1755.7307	1039.05	154.25
910.8984	1757.4281	1037.25	152.2
911.0392	1759.1247	1047.3	154.85
911.18	1760.8206	1043.95	153.95
911.3208	1762.5158	1041.4	153.7
911.4615	1764.2102	1035.4	152.05
911.6022	1765.9039	1035.2	150.35
911.7429	1767.5968	1034.8	149.75
911.8836	1769.289	1032.55	148.35
912.0243	1770.9804	1035.55	149.35
912.1649	1772.6711	1040.65	155.55
912.3056	1774.361	1037.75	151.2
912.4462	1776.0502	1033.95	148.55
912.5868	1777.7386	1036.85	148.9
912.7274	1779.4263	1031.15	148.45
912.8679	1781.1132	1030.7	145.5
913.0084	1782.7994	1031.05	142.5
913.149	1784.4849	1032.25	148.2
913.2895	1786.1696	1051.35	147.35
913.4299	1787.8535	1029.95	145.3
913.5704	1789.5367	1029.05	145.75
913.7108	1791.2192	1031.9	148
913.8513	1792.9009	1041.95	142.45
913.9917	1794.5818	1032.9	146.6
914.132	1796.2621	1031.05	147.45
914.2724	1797.9415	1025.65	141.55
914.4128	1799.6202	1023.7	138.65
914.5531	1801.2982	1023.4	140.1
914.6934	1802.9755	1029.1	142.25
914.8337	1804.6519	1027.7	142.35
914.9739	1806.3277	1023.4	138.55
915.1142	1808.0027	1026.25	141.65
915.2544	1809.6769	1023.15	138.25
915.3946	1811.3504	1024.55	138.6
915.5348	1813.0231	1022.6	138.5
915.675	1814.6951	1021	138.5
915.8151	1816.3664	1026.75	140.8
915.9553	1818.0369	1023.2	138.4
916.0954	1819.7067	1025.5	142.7
916.2355	1821.3757	1017.45	130.7
916.3755	1823.044	1017.1	133.05
916.5156	1824.7115	1021.45	136.4
916.6556	1826.3783	1016.5	133.55
916.7956	1828.0443	1017.65	134.9
916.9356	1829.7096	1020.1	133.25
917.0756	1831.3741	1022.75	134.1
917.2155	1833.0379	1018.25	131.55
917.3555	1834.701	1021.5	134.85
917.4954	1836.3633	1020.4	135.35
917.6353	1838.0248	1016.5	128.85
917.7751	1839.6856	1018.9	133.9
917.915	1841.3457	1016.4	132.7
918.0548	1843.005	1015.75	131.2
918.1946	1844.6636	1013.45	131.05
918.3344	1846.3214	1019.85	133.05
918.4742	1847.9785	1015.2	133.2
918.6139	1849.6349	1022.05	136
918.7537	1851.2904	1023.2	128.4
918.8934	1852.9453	1013.55	129.7
919.0331	1854.5994	1014	128.35
919.1727	1856.2528	1022.1	132.2
919.3124	1857.9054	1011.2	126.8
919.452	1859.5572	1009.7	126.7
919.5916	1861.2083	1012.3	127.15
919.7312	1862.8587	1016.3	129.75
919.8708	1864.5084	1013.45	128.85
920.0103	1866.1572	1006.3	122.95
920.1498	1867.8054	1012.45	129.35
920.2893	1869.4528	1011.1	126.3
920.4288	1871.0994	1010.65	125.35
920.5683	1872.7453	1010.45	126.05
920.7077	1874.3905	1030.1	128.05
920.8471	1876.0349	1013.15	125.4
920.9865	1877.6786	1011.15	125.35
921.1259	1879.3215	1008.5	122.1
921.2653	1880.9637	1005.95	120.85
921.4046	1882.6051	1009.1	125.35
921.5439	1884.2458	1010.3	121.3
921.6832	1885.8858	1006.6	122.3
921.8225	1887.525	1005.95	119.95
921.9617	1889.1634	1012	131.15
922.101	1890.8011	1004.75	119.5
922.2402	1892.4381	1006.35	122.9
922.3794	1894.0743	1003.7	118.7
922.5185	1895.7098	1001.7	116.8
922.6577	1897.3446	1008.3	124.3
922.7968	1898.9786	1012.25	122.1
922.9359	1900.6118	1006.15	121.4
923.075	1902.2443	1008.05	121.25
923.214	1903.8761	1003.95	119.7
923.3531	1905.5071	1004.75	117.05
923.4921	1907.1374	1003.7	117.75
923.6311	1908.7669	1005.7	118.65
923.77	1910.3957	1001.6	115.8
923.909	1912.0237	1003.5	122.15
924.0479	1913.651	1003.1	117.4
924.1868	1915.2776	1001.35	118.35
924.3257	1916.9034	999.05	115.15
924.4646	1918.5285	1002.5	118.45
924.6034	1920.1528	1004	118.55
924.7422	1921.7764	1000.35	116.15
924.881	1923.3992	998.5	113.25
925.0198	1925.0213	1001.9	117.55
925.1586	1926.6427	1003.45	119.7
925.2973	1928.2633	1105.35	114.15
925.436	1929.8832	1002.95	116.65
925.5747	1931.5023	999.9	115.4
925.7134	1933.1207	997.65	114.7
925.852	1934.7383	1003.4	115.9
925.9906	1936.3552	998.1	114.85
926.1292	1937.9714	996.45	108.65
926.2678	1939.5868	997.75	109.75
926.4064	1941.2015	998.8	112.75
926.5449	1942.8154	998.95	113.85
926.6834	1944.4286	994.7	111.75
926.8219	1946.041	1020.2	110.25
926.9604	1947.6528	997.9	108.65
927.0988	1949.2637	991.9	108.1
927.2372	1950.8739	995.75	109.15
927.3756	1952.4834	995.4	111.15
927.514	1954.0921	993.6	105.85
927.6523	1955.7001	1000	112.05
927.7907	1957.3074	995.75	111.25
927.929	1958.9139	992	108.85
928.0673	1960.5197	993.65	108
928.2055	1962.1247	992.05	107.6
928.3438	1963.729	991.3	108
928.482	1965.3325	1020.05	109.8
928.6202	1966.9353	995.5	110.65
928.7584	1968.5374	993.45	108.95
928.8965	1970.1387	990.7	104.8
929.0346	1971.7393	989.6	103.65
929.1727	1973.3392	990.45	106.5
929.3108	1974.9383	994.5	108.15
929.4489	1976.5366	990.8	105.8
929.5869	1978.1342	992.15	108.55
929.7249	1979.7311	989.45	102.6
929.8629	1981.3273	990.5	105.7
930.0009	1982.9227	995.15	107.25
930.1388	1984.5173	990	107.55
930.2767	1986.1112	990.3	104.4
930.4146	1987.7044	990.6	106.15
930.5525	1989.2968	990.25	102.6
930.6904	1990.8885	990.6	100.75
930.8282	1992.4795	989.5	104.15
930.966	1994.0697	989.9	104.7
931.1038	1995.6592	986.7	102.5
931.2415	1997.2479	985.35	101.7
931.3793	1998.8359	991.8	107.15
931.517	2000.4232	985.85	101
931.6547	2002.0097	984.1	99.3
931.7923	2003.5955	985.15	97.65
931.93	2005.1805	989.6	102.65
932.0676	2006.7648	989.5	103.45
932.2052	2008.3484	986.35	98.8
932.3427	2009.9312	986	99.5
932.4803	2011.5133	987.2	102.35
932.6178	2013.0946	983.05	98.45
932.7553	2014.6752	982.75	99.1
932.8928	2016.2551	988.45	101.9
933.0302	2017.8342	981.25	96.7
933.1676	2019.4126	983.9	99.4
933.305	2020.9902	986.4	102.3
933.4424	2022.5672	988.85	100.25
933.5798	2024.1433	989.15	98.3
933.7171	2025.7188	982.25	97.75
933.8544	2027.2935	983.05	93.45
933.9917	2028.8674	983.85	98.75
934.129	2030.4406	987.55	103.05
934.2662	2032.0131	986.35	104.55
934.4034	2033.5849	989.65	99.65
934.5406	2035.1559	984.85	99.05
934.6778	2036.7261	984.15	99.65
934.8149	2038.2957	985.35	98.95
934.952	2039.8645	978.35	94.9
935.0891	2041.4325	985.25	96.5
935.2262	2042.9998	983.6	100.55
935.3632	2044.5664	984.8	98.25
935.5002	2046.1323	983.7	98.35
935.6372	2047.6974	982.85	98.35
935.7742	2049.2617	982.7	97.35
935.9111	2050.8254	1019.5	100.45
936.048	2052.3883	984.2	97.95
936.1849	2053.9504	982.2	96.05
936.3218	2055.5118	981.85	96.35
936.4586	2057.0725	987.8	97.85
936.5955	2058.6325	985.85	98.6
936.7323	2060.1917	980.9	95
936.869	2061.7502	984.9	95.8
937.0058	2063.3079	982.1	97.35
937.1425	2064.8649	986.3	96.3
937.2792	2066.4212	987.55	101.55
937.4159	2067.9767	984.95	100.05
937.5525	2069.5315	981.05	97.45
937.6891	2071.0856	983.35	97.65
937.8257	2072.6389	986.65	103.4
937.9623	2074.1915	979.85	95.55
938.0989	2075.7433	982.5	94.1
938.2354	2077.2945	980.5	96.95
938.3719	2078.8448	982.5	96.75
938.5084	2080.3945	980.65	96.8
938.6448	2081.9434	983.25	97.6
938.7812	2083.4916	983.5	97.9
938.9176	2085.039	981.15	93.2
939.054	2086.5857	982.1	96.55
939.1903	2088.1317	981.4	96.65
939.3267	2089.677	980.65	93.75
939.463	2091.2215	977.6	93.45
939.5992	2092.7652	980.45	92.8
939.7355	2094.3083	980.15	94.15
939.8717	2095.8506	980.5	96.25
940.0079	2097.3921	981.4	96.9
940.1441	2098.933	980.35	97.35
940.2802	2100.4731	982.25	97.65
940.4163	2102.0124	998.75	96.8
940.5524	2103.5511	980.45	96
940.6885	2105.089	981.45	96.35
940.8245	2106.6261	977.55	93.55
940.9606	2108.1626	982.85	97.35
941.0965	2109.6983	1007.85	90.75
941.2325	2111.2332	979.25	92.65
941.3684	2112.7675	982.05	96.1
941.5044	2114.301	981.15	95.6
941.6403	2115.8337	981.65	95
941.7761	2117.3657	980.7	96.6
941.912	2118.897	985.4	99.4
942.0478	2120.4276	982.55	91.65
942.1835	2121.9575	980.85	95.05
942.3193	2123.4866	995.15	94.85
942.455	2125.0149	983.45	96.5
942.5907	2126.5426	977.05	92.7
942.7264	2128.0695	983.4	92.95
942.8621	2129.5956	975.7	90.55
942.9977	2131.1211	983.3	95.8
943.1333	2132.6458	977.7	93.15
943.2689	2134.1698	978.45	93.15
943.4044	2135.693	980.85	94.9
943.54	2137.2155	980.65	94.4
943.6755	2138.7373	980.8	94.9
943.8109	2140.2584	978.6	92.75
943.9464	2141.7787	984.4	93.25
944.0818	2143.2983	974.2	90.15
944.2172	2144.8171	977.35	93.65
944.3526	2146.3353	977.85	91.15
944.4879	2147.8527	977.05	91.95
944.6232	2149.3693	978.8	94.85
944.7585	2150.8853	977.75	91.55
944.8938	2152.4005	981.75	97.55
945.029	2153.9149	976.95	91.2
945.1642	2155.4287	980.8	95.35
945.2994	2156.9417	979.05	91.65
945.4346	2158.454	978.05	89.75
945.5697	2159.9655	975.6	92.95
945.7048	2161.4764	978.05	94.25
945.8399	2162.9865	976.85	91.5
945.9749	2164.4958	976.65	89.65
946.1099	2166.0045	981.35	93.6
946.2449	2167.5124	975.8	91.85
946.3799	2169.0195	974.65	90.2
946.5148	2170.526	980.05	93.3
946.6498	2172.0317	974.35	89.5
946.7846	2173.5367	975.6	91.15
946.9195	2175.0409	975.45	89.85
947.0543	2176.5445	977.15	94.55
947.1891	2178.0473	972.25	85.15
947.3239	2179.5494	977.65	91.35
947.4587	2181.0507	978.65	93.8
947.5934	2182.5513	976.65	91.7
947.7281	2184.0512	975.6	92.2
947.8628	2185.5504	976.9	92.8
947.9974	2187.0488	976.95	90.7
948.132	2188.5465	974.6	89.45
948.2666	2190.0435	977.65	91.65
948.4012	2191.5397	976	92.05
948.5357	2193.0353	972.85	88.45
948.6702	2194.5301	973.6	88.1
948.8047	2196.0241	972.75	85.85
948.9392	2197.5175	973.2	89.6
949.0736	2199.0101	976.05	88.45
949.208	2200.502	976.2	91.45
949.3424	2201.9931	977.65	92.75
949.4767	2203.4835	972.25	85
949.611	2204.9733	980.15	87.25
949.7453	2206.4622	970.6	87.1
949.8796	2207.9505	973.7	86.1
950.0138	2209.438	970.8	89.65
950.148	2210.9248	973.75	87.5
950.2822	2212.4109	973.7	88.55
950.4164	2213.8962	974.8	87
950.5505	2215.3809	970.95	83.7
950.6846	2216.8648	970.75	83.05
950.8186	2218.3479	974.3	85.2
950.9527	2219.8304	975.6	89.35
951.0867	2221.3121	972.05	84.9
951.2207	2222.7931	968.1	82.35
951.3546	2224.2733	971.3	85.9
951.4886	2225.7529	970.7	87.35
951.6225	2227.2317	973.05	86.3
951.7563	2228.7098	969.85	85.9
951.8902	2230.1872	969.9	86.55
952.024	2231.6638	967.7	82.1
952.1578	2233.1397	972.25	81.65
952.2916	2234.6149	966.7	80.2
952.4253	2236.0894	971	86.2
952.559	2237.5632	978.65	85.1
952.6927	2239.0362	968.55	82.55
952.8263	2240.5085	966.4	83.55
952.9599	2241.9801	968.95	83.55
953.0935	2243.4509	966.3	82.3
953.2271	2244.921	962.3	79.55
953.3606	2246.3904	968.95	82.7
953.4941	2247.8591	965.4	82.25
953.6276	2249.3271	967.2	82
953.7611	2250.7943	967.5	80.65
953.8945	2252.2608	962.05	78.75
954.0279	2253.7266	967.1	82.2
954.1612	2255.1917	964.95	81
954.2946	2256.656	968.3	83.2
954.4279	2258.1197	966	81.4
954.5612	2259.5826	965.1	78.95
954.6944	2261.0447	967.5	81.95
954.8276	2262.5062	967.1	80.65
954.9608	2263.9669	963.8	75.05
955.094	2265.4269	960.95	78.2
955.2271	2266.8862	964.95	79.1
955.3602	2268.3448	961.15	73.85
955.4933	2269.8026	963.75	80.4
955.6264	2271.2598	963.6	78.1
955.7594	2272.7162	961.75	78.15
955.8924	2274.1719	963.3	79.3
956.0253	2275.6268	963.5	79.3
956.1583	2277.0811	962.4	77.2
956.2912	2278.5346	961.85	76.35
956.4241	2279.9874	963.2	78.5
956.5569	2281.4395	960.8	74.65
956.6897	2282.8908	969.25	77.65
956.8225	2284.3414	960.3	75.6
956.9553	2285.7914	962.35	78.45
957.088	2287.2406	961.65	75.2
957.2207	2288.689	960.8	78.5
957.3534	2290.1368	962.1	76.8
957.486	2291.5838	959.6	74.2
957.6186	2293.0302	964.45	78.8
957.7512	2294.4758	958.5	72.85
957.8838	2295.9206	961.6	76.35
958.0163	2297.3648	959.95	74.4
958.1488	2298.8082	960.75	74.7
958.2813	2300.251	961.6	77.8
958.4137	2301.693	967.05	79.8
958.5461	2303.1343	959.4	73.55
958.6785	2304.5748	961.45	75.75
958.8108	2306.0147	959.1	74.5
958.9432	2307.4538	960.7	73.7
959.0754	2308.8922	958.8	74
959.2077	2310.3299	956.4	72.55
959.3399	2311.7669	960.25	75.6
959.4721	2313.2031	959.8	74.3
959.6043	2314.6387	962.35	76.35
959.7365	2316.0735	959.3	73.8
959.8686	2317.5076	957.15	72.9
960.0006	2318.941	957.35	73.1
960.1327	2320.3737	955.2	69.25
960.2647	2321.8056	959.3	72.55
960.3967	2323.2369	958.75	72.9
960.5287	2324.6674	962.65	77.45
960.6606	2326.0972	965.7	79.95
960.7925	2327.5263	965.15	80.6
960.9244	2328.9547	969.9	84.5
961.0562	2330.3823	964.35	80.4
961.1881	2331.8092	961.9	75.6
961.3198	2333.2355	958.05	74.7
961.4516	2334.661	952.95	67
961.5833	2336.0858	957.25	70.65
961.715	2337.5098	954.65	68.8
961.8467	2338.9332	960.55	75.3
961.9783	2340.3558	959.9	71.4
962.1099	2341.7778	955.5	70.5
962.2415	2343.199	955.05	68.7
962.373	2344.6195	952.85	68.8
962.5045	2346.0393	952.65	68.65
962.636	2347.4583	951.3	65
962.7675	2348.8767	955.25	68.45
962.8989	2350.2943	954.3	68.75
963.0303	2351.7113	956.65	69.45
963.1617	2353.1275	956.9	71.35
963.293	2354.543	961.1	65.45
963.4243	2355.9578	956.15	69.6
963.5556	2357.3718	951.9	65.3
963.6868	2358.7852	955.85	67.4
963.818	2360.1978	951.05	66.4
963.9492	2361.6098	954.2	69.25
964.0803	2363.021	957.25	69.1
964.2114	2364.4315	950.65	66.45
964.3425	2365.8413	954.45	69.05
964.4736	2367.2504	950.95	65.5
964.6046	2368.6587	952.15	66.95
964.7356	2370.0664	952.05	66.2
964.8666	2371.4733	950.05	65.75
964.9975	2372.8795	950.3	63.85
965.1284	2374.285	952.4	65.55
965.2593	2375.6899	949.5	66.65
965.3901	2377.0939	949.25	62.15
965.5209	2378.4973	948.45	62.8
965.6517	2379.9	952.05	65.6
965.7825	2381.3019	946.15	62.2
965.9132	2382.7032	948.6	63.5
966.0439	2384.1037	946.85	62.65
966.1745	2385.5035	950.5	66.05
966.3051	2386.9027	951.05	66.35
966.4357	2388.3011	954.5	66.9
966.5663	2389.6987	950.2	64.05
966.6968	2391.0957	948.45	62.75
966.8273	2392.492	946.5	63.1
966.9578	2393.8876	949.7	63.4
967.0882	2395.2824	945.7	60.8
967.2186	2396.6765	944.7	61.75
967.349	2398.07	946.5	61.85
967.4793	2399.4627	945.65	60.3
967.6097	2400.8547	947.95	62.15
967.7399	2402.246	952.3	60.45
967.8702	2403.6366	948.4	62.5
968.0004	2405.0265	945	59.8
968.1306	2406.4156	948.95	58
968.2607	2407.8041	950.8	62.75
968.3909	2409.1918	948.35	60.35
968.521	2410.5789	947.3	64.2
968.651	2411.9652	949.45	60.85
968.781	2413.3508	944.4	58.95
968.911	2414.7358	947.3	63.05
969.041	2416.12	944	59
969.1709	2417.5035	944.65	60.45
969.3008	2418.8863	942.1	54.75
969.4307	2420.2684	944.05	58.3
969.5606	2421.6497	944.7	58.1
969.6904	2423.0304	942.55	58.3
969.8201	2424.4104	944.3	60.05
969.9499	2425.7896	949.7	58.2
970.0796	2427.1682	943.25	58.5
970.2093	2428.546	945.9	59.6
970.3389	2429.9232	943.1	57.5
970.4685	2431.2996	941.4	56.2
970.5981	2432.6753	945	61.05
970.7277	2434.0503	945.05	58.8
970.8572	2435.4246	940	55.25
970.9867	2436.7982	943.5	56.85
971.1161	2438.1711	939.4	54.75
971.2456	2439.5433	942.75	56.6
971.375	2440.9148	946.45	56.6
971.5043	2442.2856	940.65	56.25
971.6336	2443.6557	941.35	58.5
971.7629	2445.025	939.05	54.95
971.8922	2446.3937	943.65	58.2
972.0214	2447.7617	941.25	57.55
972.1506	2449.1289	940.6	56.8
972.2798	2450.4955	943.05	54.35
972.4089	2451.8613	941.05	55
972.538	2453.2265	939.95	53.85
972.6671	2454.5909	939.7	53
972.7961	2455.9546	939.1	53.7
972.9251	2457.3177	937.45	51.5
973.0541	2458.68	941.3	54.1
973.1831	2460.0416	939.25	52.35
973.312	2461.4025	941.1	54.05
973.4408	2462.7627	949.15	52.45
973.5697	2464.1222	936.95	53.1
973.6985	2465.4811	941.7	54.5
973.8273	2466.8392	941.15	54.25
973.956	2468.1966	941.35	53.2
974.0847	2469.5533	941.35	53.25
974.2134	2470.9093	940.4	53.9
974.3421	2472.2645	938.9	50
974.4707	2473.6191	939.95	55.9
974.5993	2474.973	935.75	50.65
974.7278	2476.3262	939.9	55.1
974.8563	2477.6787	936.5	54.15
974.9848	2479.0305	938.25	53.3
975.1132	2480.3816	941.3	55.75
975.2417	2481.7319	936.25	52
975.37	2483.0816	939.7	53.3
975.4984	2484.4306	938.25	51
975.6267	2485.7789	937.1	51.5
975.755	2487.1264	937.85	49.3
975.8833	2488.4733	937.4	53.2
976.0115	2489.8195	952.4	51.2
976.1397	2491.165	940.7	52.45
976.2678	2492.5097	937.4	51.1
976.3959	2493.8538	935.65	50.9
976.524	2495.1972	936.85	51.9
976.6521	2496.5398	936.3	51
976.7801	2497.8818	941	53.1
976.9081	2499.2231	936.75	50.45
977.036	2500.5637	936.55	49.15
977.164	2501.9035	931.6	47.1
977.2918	2503.2427	936.45	47.1
977.4197	2504.5812	935.35	49.8
977.5475	2505.919	936.7	50.55
977.6753	2507.256	937.4	51.75
977.8031	2508.5924	934.1	49.45
977.9308	2509.9281	938.25	47.4
978.0585	2511.2631	934.65	50.15
978.1861	2512.5974	933.6	50.4
978.3137	2513.9309	934.5	50.25
978.4413	2515.2638	962.65	49.95
978.5689	2516.596	932.9	47.6
978.6964	2517.9275	933.7	47.8
978.8239	2519.2583	934.35	48.05
978.9513	2520.5884	933	46.2
979.0788	2521.9178	934.05	48.25
979.2062	2523.2465	930.55	46.7
979.3335	2524.5745	929.6	44.15
979.4608	2525.9018	932.4	47.4
979.5881	2527.2284	932.2	48.4
979.7154	2528.5543	929.85	44.45
979.8426	2529.8796	934.95	50
979.9698	2531.2041	933	45.2
980.0969	2532.5279	930.55	47.95
980.224	2533.851	928.95	41
980.3511	2535.1735	929.5	43.75
980.4781	2536.4952	932.1	46.5
980.6052	2537.8163	929.65	44.35
980.7321	2539.1366	932.15	49.85
980.8591	2540.4562	928.85	41.7
980.986	2541.7752	930.8	46.45
981.1129	2543.0935	930	43.95
981.2397	2544.411	930.6	44.65
981.3665	2545.7279	927.5	42.65
981.4933	2547.0441	928.55	44.25
981.62	2548.3596	931.9	44.4
981.7467	2549.6744	930.8	45.25
981.8734	2550.9885	929.85	43.3
982.0001	2552.3019	928.25	43.6
982.1267	2553.6146	928.7	42.3
982.2532	2554.9266	929.25	44.85
982.3798	2556.2379	929.6	43.65
982.5063	2557.5485	926.2	42.55
982.6327	2558.8585	936.7	45.35
982.7592	2560.1677	932	41.2
982.8856	2561.4762	926.7	40.5
983.0119	2562.7841	931.85	43.65
983.1383	2564.0913	925.4	42.7
983.2646	2565.3977	929.85	45.35
983.3908	2566.7035	928.55	44.4
983.517	2568.0086	931.1	43.25
983.6432	2569.313	928.05	42.4
983.7694	2570.6167	931.85	43.45
983.8955	2571.9197	927.4	41.8
984.0216	2573.222	930.75	41.2
984.1476	2574.5236	926.9	41.75
984.2737	2575.8246	932.35	44.05
984.3996	2577.1248	930.7	45.1
984.5256	2578.4244	928.45	42
984.6515	2579.7232	928.5	43.85
984.7774	2581.0214	952.85	38.25
984.9032	2582.3189	925.4	40.35
985.029	2583.6157	931.4	41.05
985.1548	2584.9118	927.45	41.55
985.2806	2586.2072	923.45	37.95
985.4063	2587.5019	928	43.75
985.5319	2588.7959	926.95	41.95
985.6576	2590.0893	927.35	41.5
985.7832	2591.3819	925.85	41.85
985.9087	2592.6739	925.05	42.4
986.0343	2593.9652	927.75	41.85
986.1597	2595.2557	926.05	40
986.2852	2596.5456	928.35	42.1
986.4106	2597.8348	925.35	40.2
986.536	2599.1234	926.15	39.7
986.6614	2600.4112	928.15	43.35
986.7867	2601.6983	928.1	40.1
986.912	2602.9848	928.45	43.2
987.0372	2604.2705	932.55	40.4
987.1624	2605.5556	924.7	39.55
987.2876	2606.84	925.85	40.85
987.4128	2608.1237	927.6	42.15
987.5379	2609.4067	926.25	41.55
987.6629	2610.689	934.35	39.85
987.788	2611.9707	927.5	38.95
987.913	2613.2516	931.8	41
988.0379	2614.5319	926.1	42.1
988.1629	2615.8115	924.8	40.3
988.2878	2617.0903	925.2	38.4
988.4126	2618.3685	924.95	39.3
988.5375	2619.6461	924.6	40.85
988.6622	2620.9229	922.4	35.3
988.787	2622.199	925.65	38.45
988.9117	2623.4745	922.85	38.65
989.0364	2624.7493	923	37.4
989.161	2626.0234	925.2	40.95
989.2857	2627.2968	926.55	42
989.4102	2628.5695	925.45	40.15
989.5348	2629.8415	920.65	37.1
989.6593	2631.1128	922.6	35.35
989.7837	2632.3835	922.65	36.75
989.9082	2633.6535	923.65	39.4
990.0326	2634.9228	920.8	35.3
990.1569	2636.1914	920.1	35.7
990.2812	2637.4593	927.4	36
990.4055	2638.7265	922.8	35.65
990.5298	2639.9931	922.1	36.4
990.654	2641.259	923.05	36.3
990.7782	2642.5242	921.9	36.8
990.9023	2643.7887	919.65	33.8
991.0264	2645.0525	918.6	34.2
991.1505	2646.3156	921.55	35.05
991.2745	2647.5781	919.15	35.2
991.3985	2648.8398	917.65	32.55
991.5225	2650.1009	959.1	37.1
991.6464	2651.3613	922.7	36.4
991.7703	2652.6211	920	33.95
991.8942	2653.8801	920.2	34.7
992.018	2655.1385	922.85	36.5
992.1418	2656.3961	919.2	34.1
992.2655	2657.6531	920.3	35.7
992.3892	2658.9094	922.9	37
992.5129	2660.1651	919.9	36.85
992.6366	2661.42	918.7	33.95
992.7602	2662.6743	921.4	35.35
992.8837	2663.9279	918.9	35.55
993.0073	2665.1808	920.5	34.15
993.1307	2666.433	922.7	33.65
993.2542	2667.6846	920.25	35
993.3776	2668.9354	923.8	36.35
993.501	2670.1856	919.95	33.75
993.6244	2671.4351	919.2	35.4
993.7477	2672.6839	920.35	33.45
993.8709	2673.9321	917.85	33.45
993.9942	2675.1795	921.4	34.8
994.1174	2676.4263	919.2	34.4
994.2405	2677.6724	918.6	35.4
994.3637	2678.9179	918.75	35.85
994.4868	2680.1626	919.4	34.8
994.6098	2681.4067	921.7	35.4
994.7328	2682.6501	922.9	36.15
994.8558	2683.8928	920.15	36
994.9788	2685.1348	917.2	32.65
995.1017	2686.3761	916.05	32.15
995.2245	2687.6168	918.75	32.95
995.3474	2688.8568	916.9	31.75
995.4702	2690.0961	915.55	31.7
995.5929	2691.3348	916.45	32.5
995.7156	2692.5727	917	29.9
995.8383	2693.81	915.5	31.4
995.961	2695.0466	915.75	31.65
996.0836	2696.2826	917.15	30.5
996.2062	2697.5178	919.75	30.8
996.3287	2698.7524	919.6	35.1
996.4512	2699.9863	918.4	32.35
996.5737	2701.2195	917.55	31.9
996.6961	2702.452	918.8	32.5
996.8185	2703.6839	917.45	32.95
996.9408	2704.9151	918.7	34.95
997.0631	2706.1456	919.2	33.5
997.1854	2707.3755	916.4	30.05
997.3077	2708.6046	921.05	34.4
997.4299	2709.8331	916.5	30.9
997.552	2711.0609	918.05	33
997.6742	2712.2881	917.65	34.3
997.7963	2713.5145	919.5	32.2
997.9183	2714.7403	916.45	32.7
998.0403	2715.9654	919.5	33.7
998.1623	2717.1899	932.45	34.15
998.2842	2718.4136	920.3	35.75
998.4062	2719.6367	919.7	33.4
998.528	2720.8591	926.85	35.1
998.6498	2722.0809	922.55	38.05
998.7716	2723.3019	922.75	33.1
998.8934	2724.5223	923	37.5
999.0151	2725.7421	920.25	34.45
999.1368	2726.9611	924.15	36.9
999.2584	2728.1795	922.15	32
999.38	2729.3972	918.65	34.3
999.5016	2730.6142	930.2	36.2
999.6231	2731.8306	919.25	31.85
999.7446	2733.0462	922.8	35.25
999.8661	2734.2612	924.95	35.7
999.9875	2735.4756	918.7	31.8
1000.1089	2736.6892	914.95	28.7
1000.2302	2737.9022	913.4	28.8
1000.3515	2739.1145	915.3	30.7
1000.4728	2740.3262	924.65	31.75
1000.594	2741.5372	913.85	28.55
1000.7152	2742.7475	916.05	30.75
1000.8363	2743.9571	916.7	30.2
1000.9575	2745.1661	919.1	29.65
1001.0785	2746.3744	914.05	28.2
1001.1996	2747.582	913.1	27
1001.3206	2748.7889	913.65	25.5
1001.4415	2749.9952	915.4	29.9
1001.5625	2751.2008	914.4	27.9
1001.6833	2752.4057	912.95	23.6
1001.8042	2753.61	915.15	30.4
1001.925	2754.8136	915.45	27.65
1002.0458	2756.0165	910.65	25.7
1002.1665	2757.2188	912.75	27.8
1002.2872	2758.4204	911.15	26.55
1002.4078	2759.6213	912.75	24.5
1002.5285	2760.8215	917.2	25.65
1002.649	2762.0211	913.6	25.6
1002.7696	2763.22	914.45	24.15
1002.8901	2764.4182	913.05	25.75
1003.0106	2765.6158	912.75	27.05
1003.131	2766.8127	909.75	24.4
1003.2514	2768.009	909	24.2
1003.3717	2769.2045	910.45	22.8
1003.492	2770.3994	912.35	25
1003.6123	2771.5936	910.9	25.05
1003.7325	2772.7872	909.85	24.7
1003.8527	2773.9801	913.3	26.6
1003.9729	2775.1723	927.1	25.1
1004.093	2776.3639	910	27.05
1004.2131	2777.5548	910.8	23.15
1004.3331	2778.745	910.2	25.1
1004.4531	2779.9346	909.2	25.35
1004.5731	2781.1235	912	25.9
1004.693	2782.3117	910.5	26.45
1004.8129	2783.4992	911.05	26.9
1004.9328	2784.6861	909.1	22.35
1005.0526	2785.8723	910.35	22.85
1005.1723	2787.0579	909.35	22.15
1005.2921	2788.2428	910.35	24.45
1005.4118	2789.427	906.15	21.6
1005.5314	2790.6106	909.55	23.7
1005.651	2791.7935	909.7	23.35
1005.7706	2792.9757	910.3	27.4
1005.8902	2794.1573	914.75	28
1006.0097	2795.3382	910.85	26.95
1006.1291	2796.5184	908.9	26.05
1006.2485	2797.698	911.95	25
1006.3679	2798.8769	910.25	24.25
1006.4873	2800.0551	907.35	22.2
1006.6066	2801.2327	913.1	27.05
1006.7258	2802.4096	910.25	26.5
1006.8451	2803.5859	909.95	22.5
1006.9642	2804.7615	911.75	26.55
1007.0834	2805.9364	910.95	25.75
1007.2025	2807.1106	911.3	26.55
1007.3216	2808.2842	912.3	26.1
1007.4406	2809.4572	911.7	25.7
1007.5596	2810.6294	916	33.1
1007.6785	2811.801	910.65	26.95
1007.7975	2812.972	909.15	25.2
1007.9163	2814.1423	913	26.9
1008.0352	2815.3119	914.25	28.85
1008.154	2816.4808	916.9	31.9
1008.2727	2817.6491	919.55	33.15
1008.3914	2818.8167	918.15	34.8
1008.5101	2819.9837	927.35	36.15
1008.6288	2821.15	923.95	41.05
1008.7474	2822.3157	925.5	40.45
1008.8659	2823.4807	925.65	40.45
1008.9844	2824.645	931.3	42.65
1009.1029	2825.8086	936.45	51
1009.2214	2826.9716	938.2	52.7
1009.3398	2828.134	942.45	56.65
1009.4581	2829.2957	945	60.2
1009.5764	2830.4567	946.8	63.05
1009.6947	2831.617	950.05	65.45
1009.813	2832.7767	951.2	66.6
1009.9312	2833.9358	948.85	66.15
1010.0493	2835.0941	953.05	67.2
1010.1675	2836.2519	949.05	65.2
1010.2855	2837.4089	947.5	61.35
1010.4036	2838.5653	944.65	59.2
1010.5216	2839.7211	942.55	58.3
1010.6396	2840.8761	943.4	54.3
1010.7575	2842.0306	942.1	58.5
1010.8754	2843.1843	939.5	53.8
1010.9932	2844.3374	940.5	55.45
1011.111	2845.4899	943.2	57
1011.2288	2846.6417	942.2	57.95
1011.3465	2847.7928	944.45	59.2
1011.4642	2848.9433	943.35	60.3
1011.5818	2850.0931	944.25	56.65
1011.6995	2851.2422	948.65	62.9
1011.817	2852.3907	946.7	61.65
1011.9345	2853.5385	947.55	61
1012.052	2854.6857	972	61.9
1012.1695	2855.8323	947.15	61.55
1012.2869	2856.9781	948.75	64.95
1012.4042	2858.1233	948.45	63.35
1012.5216	2859.2679	952.65	65.35
1012.6389	2860.4118	953.3	70.05
1012.7561	2861.555	960.75	71.55
1012.8733	2862.6976	958.85	72.4
1012.9905	2863.8395	952.55	68.4
1013.1076	2864.9808	957.3	71.65
1013.2247	2866.1214	956.8	73.95
1013.3417	2867.2614	958.4	72.55
1013.4587	2868.4007	963.75	76.55
1013.5757	2869.5393	961.65	74.95
1013.6926	2870.6773	965.75	78.65
1013.8095	2871.8146	964.1	77.85
1013.9263	2872.9513	961.5	74.05
1014.0431	2874.0874	963.65	77.1
1014.1599	2875.2227	964.8	79.15
1014.2766	2876.3574	964.95	79.15
1014.3933	2877.4915	965.3	81.95
1014.51	2878.6249	967.8	83.6
1014.6266	2879.7577	970.5	83.95
1014.7431	2880.8898	977.05	79.95
1014.8596	2882.0212	966.3	83.3
1014.9761	2883.152	967.75	83.3
1015.0925	2884.2821	969.1	84.6
1015.2089	2885.4116	971.8	86
1015.3253	2886.5405	973	88.15
1015.4416	2887.6686	977.6	88.65
1015.5579	2888.7962	971.55	87.4
1015.6741	2889.923	974.8	89
1015.7903	2891.0493	973.3	88.9
1015.9065	2892.1748	973.15	88.25
1016.0226	2893.2997	972.7	87.85
1016.1387	2894.424	969.6	84.85
1016.2547	2895.5476	972.95	87.8
1016.3707	2896.6706	969.8	85.65
1016.4866	2897.7929	970.7	83.95
1016.6025	2898.9145	972.65	87.2
1016.7184	2900.0355	970.55	83.4
1016.8342	2901.1559	972.35	85.15
1016.95	2902.2756	976.6	88.7
1017.0658	2903.3946	973.2	89.1
1017.1815	2904.513	971.75	84.2
1017.2971	2905.6308	969.15	82.75
1017.4127	2906.7479	970.25	85.1
1017.5283	2907.8643	971.4	86.05
1017.6439	2908.9801	972.45	86.6
1017.7594	2910.0953	974.25	88.75
1017.8748	2911.2098	973.2	82.75
1017.9902	2912.3236	978.8	85.35
1018.1056	2913.4368	973.1	85.3
1018.2209	2914.5494	967	84
1018.3362	2915.6613	971.3	78.85
1018.4515	2916.7725	969.25	82.15
1018.5667	2917.8831	968.45	83
1018.6819	2918.9931	971.2	82.9
1018.797	2920.1024	968.3	81.25
1018.9121	2921.211	963.85	77.9
1019.0271	2922.319	964.9	79.85
1019.1421	2923.4264	960.3	76.15
1019.2571	2924.5331	960.4	76.65
1019.372	2925.6391	961.2	76.2
1019.4869	2926.7445	957.8	75.8
1019.6017	2927.8493	962.05	76.55
1019.7165	2928.9534	965	80.3
1019.8313	2930.0569	966.75	78.85
1019.946	2931.1597	969.4	84
1020.0606	2932.2619	965.1	79.95
1020.1753	2933.3634	963.2	77.05
1020.2899	2934.4643	968.8	76.6
1020.4044	2935.5645	970.7	78.65
1020.5189	2936.6641	969.2	79.3
1020.6334	2937.763	963.35	79.2
1020.7478	2938.8613	966.8	81.2
1020.8622	2939.959	971.7	82.8
1020.9765	2941.056	966.65	82.95
1021.0908	2942.1523	964.15	77.95
1021.2051	2943.248	960.7	74.5
1021.3193	2944.3431	956.25	71.55
1021.4334	2945.4375	950.8	64.9
1021.5476	2946.5313	945.75	63.35
1021.6617	2947.6244	943.5	57.65
1021.7757	2948.7169	941.35	55.85
1021.8897	2949.8087	934.05	48
1022.0037	2950.8999	933.1	47.85
1022.1176	2951.9904	932.35	47.5
1022.2315	2953.0803	933.9	46.75
1022.3453	2954.1696	929.6	45.05
1022.4591	2955.2582	928.1	42.35
1022.5728	2956.3462	927.6	42.5
1022.6865	2957.4335	929.15	41.75
1022.8002	2958.5202	929.6	42.5
1022.9138	2959.6062	925.65	40.85
1023.0274	2960.6916	925.55	40.45
1023.141	2961.7764	924.2	38.8
1023.2545	2962.8605	925.45	38.3
1023.3679	2963.9439	925.5	42.25
1023.4813	2965.0267	927.15	40.9
1023.5947	2966.1089	947.65	36.8
1023.708	2967.1905	925.65	42.4
1023.8213	2968.2714	924.7	39.7
1023.9346	2969.3516	925.65	41.1
1024.0478	2970.4312	928.75	37.6
1024.1609	2971.5102	923.8	39.75
1024.274	2972.5885	922.2	36.65
1024.3871	2973.6662	928.75	38.2
1024.5002	2974.7432	923.75	38.65
1024.6132	2975.8196	924.5	38.4
1024.7261	2976.8954	924.8	39.6
1024.839	2977.9705	925.85	40.35
1024.9519	2979.045	922	38.25
1025.0647	2980.1188	925	39.15
1025.1775	2981.192	921.7	38.7
1025.2902	2982.2645	924	36
1025.4029	2983.3364	921.8	35.65
1025.5156	2984.4077	922.9	38.25
1025.6282	2985.4783	929.4	38.95
1025.7407	2986.5483	922.1	37.3
1025.8532	2987.6177	917.65	35.6
1025.9657	2988.6864	917.1	30.8
1026.0782	2989.7545	916.4	31.65
1026.1906	2990.8219	916.7	32.25
1026.3029	2991.8887	915.9	27.9
1026.4152	2992.9548	915.8	30.9
1026.5275	2994.0204	911.85	28.4
1026.6397	2995.0852	909.65	26.15
1026.7519	2996.1495	912.6	26.8
1026.864	2997.2131	909.1	24.25
1026.9761	2998.276	908.5	23.05
1027.0882	2999.3383	907.75	21.3
1027.2002	3000.4	907.05	20.7
1027.3122	3001.4611	906.6	20.75
1027.4241	3002.5215	905.85	19.25
1027.536	3003.5812	902	17.95
1027.6478	3004.6404	902.95	16.3
1027.7596	3005.6989	905.5	19.2
1027.8714	3006.7567	903.05	18.2
1027.9831	3007.8139	933.2	18.3
1028.0947	3008.8705	902.85	16.45
1028.2064	3009.9264	918.1	17.4
1028.3179	3010.9818	900.85	16.45
1028.4295	3012.0364	901.95	17.3
1028.541	3013.0905	901.75	16.75
1028.6524	3014.1439	900.4	14.65
1028.7638	3015.1966	899.95	14.25
1028.8752	3016.2487	899.4	12.5
1028.9865	3017.3002	906.5	14.65
1029.0978	3018.3511	899.35	15.75
1029.209	3019.4013	899.85	15.45
1029.3202	3020.4509	899.85	17.4
1029.4314	3021.4998	900.9	16.85
1029.5425	3022.5481	897.15	12.65
1029.6535	3023.5958	901.6	17.05
1029.7645	3024.6428	899.75	13.45
1029.8755	3025.6892	898.95	14.75
1029.9864	3026.735	899.15	11.65
1030.0973	3027.7802	900.2	15.2
1030.2082	3028.8247	898.3	14.3
1030.319	3029.8685	897.75	11.05
1030.4297	3030.9118	899.05	12.35
1030.5404	3031.9544	898.25	15.95
1030.6511	3032.9963	898.2	13.85
1030.7617	3034.0376	898.05	15.25
1030.8723	3035.0783	899.7	10.85
1030.9829	3036.1184	900.3	15.25
1031.0934	3037.1578	897.8	11.15
1031.2038	3038.1966	899.75	13.75
1031.3142	3039.2348	896.05	11.7
1031.4246	3040.2723	909.05	16.6
1031.5349	3041.3092	897.95	12.8
1031.6452	3042.3455	899.15	14.15
1031.7554	3043.3811	898.95	14.3
1031.8656	3044.4161	901.1	16.85
1031.9758	3045.4505	898.95	16
1032.0859	3046.4842	900.7	14.6
1032.1959	3047.5173	899.3	15.35
1032.3059	3048.5498	898.35	15.05
1032.4159	3049.5816	901.65	15.35
1032.5258	3050.6128	898.6	12.85
1032.6357	3051.6434	901.3	11.45
1032.7455	3052.6734	901.4	16.15
1032.8553	3053.7027	897.65	12.6
1032.9651	3054.7314	898.25	14.8
1033.0748	3055.7594	898.55	13.2
1033.1845	3056.7868	901.85	16.25
1033.2941	3057.8136	898.85	14.15
1033.4037	3058.8398	898.9	14.2
1033.5132	3059.8653	899.5	14.35
1033.6227	3060.8902	899.55	16.1
1033.7321	3061.9145	900.15	14.2
1033.8415	3062.9381	898.35	11.6
1033.9509	3063.9612	914.25	14.05
1034.0602	3064.9835	901.7	16.2
1034.1694	3066.0053	900.55	13.55
1034.2787	3067.0264	901.05	16.5
1034.3878	3068.0469	901.35	12.3
1034.497	3069.0668	903.05	15.95
1034.6061	3070.086	897.6	12.75
1034.7151	3071.1046	901.6	15.4
1034.8241	3072.1226	900.15	13.2
1034.9331	3073.1399	898.35	14.4
1035.042	3074.1567	899.4	15.2
1035.1508	3075.1727	900.2	11.95
1035.2597	3076.1882	897.35	11.9
1035.3684	3077.203	899.35	12.9
1035.4772	3078.2173	899.8	13.05
1035.5859	3079.2308	900.85	12.15
1035.6945	3080.2438	902.3	16
1035.8031	3081.2561	896.5	12.8
1035.9117	3082.2678	897.05	14.2
1036.0202	3083.2789	895.1	10.6
1036.1286	3084.2893	894.4	9.75
1036.2371	3085.2991	896.35	10.3
1036.3454	3086.3083	900.95	10.8
1036.4538	3087.3169	898.2	11.25
1036.562	3088.3248	897.65	11.8
1036.6703	3089.3321	897.85	10.55
1036.7785	3090.3388	897.05	12.45
1036.8866	3091.3449	895.85	11.5
1036.9948	3092.3503	897.45	8.2
1037.1028	3093.3551	892.9	7.9
1037.2108	3094.3593	894.1	12.15
1037.3188	3095.3629	896.4	11.75
1037.4267	3096.3658	896.1	10.9
1037.5346	3097.3681	894.45	9.75
1037.6425	3098.3698	898.75	11.5
1037.7503	3099.3708	896.55	11.4
1037.858	3100.3713	897.05	13.1
1037.9657	3101.3711	897.85	11.65
1038.0734	3102.3702	1032	6.2
1038.181	3103.3688	896.9	9.5
1038.2886	3104.3667	893.05	9.7
1038.3961	3105.364	895.6	11.35
1038.5036	3106.3607	897.95	12.7
1038.611	3107.3568	897.15	10.8
1038.7184	3108.3522	893.15	9.3
1038.8257	3109.347	895.9	10.55
1038.933	3110.3412	898.5	9.95
1039.0403	3111.3348	893.4	8.6
1039.1475	3112.3277	892.35	9.75
1039.2547	3113.32	892.4	9.55
1039.3618	3114.3117	895.55	11.1
1039.4689	3115.3028	894.3	9.05
1039.5759	3116.2932	897.7	11.25
1039.6829	3117.2831	899.95	9.4
1039.7898	3118.2723	893	6.8
1039.8967	3119.2608	894.2	9.95
1040.0035	3120.2488	891.85	6.35
1040.1103	3121.2361	892.45	6.4
1040.2171	3122.2229	893.85	7.6
1040.3238	3123.209	895.8	8.65
1040.4305	3124.1944	893	10.9
1040.5371	3125.1793	895.15	8
1040.6437	3126.1635	893.2	9.05
1040.7502	3127.1471	892.8	7.5
1040.8567	3128.1301	892	6.5
1040.9631	3129.1125	891.55	7.35
1041.0695	3130.0942	890.85	5.5
1041.1759	3131.0753	900.15	7.25
1041.2822	3132.0558	895.25	9.25
1041.3884	3133.0357	894.95	8.5
1041.4946	3134.015	891.35	6.25
1041.6008	3134.9936	894.7	8.8
1041.7069	3135.9716	913.75	8.5
1041.813	3136.949	894.15	9
1041.919	3137.9258	910	5.55
1042.025	3138.902	897.45	6.55
1042.1309	3139.8775	893.65	8.8
1042.2368	3140.8524	891.25	6.7
1042.3427	3141.8267	894.25	6
1042.4485	3142.8004	891.55	5.45
1042.5542	3143.7735	896.45	6.9
1042.6599	3144.7459	894.95	9
1042.7656	3145.7178	893.5	6.7
1042.8712	3146.689	891	7.45
1042.9768	3147.6596	894.2	8.05
1043.0823	3148.6295	893.25	8.55
1043.1878	3149.5989	892.45	8.05
1043.2932	3150.5676	891.6	7.65
1043.3986	3151.5357	889.6	6.8
1043.5039	3152.5032	891	6.35
1043.6092	3153.4701	890.8	4.15
1043.7145	3154.4364	892.55	4.45
1043.8197	3155.402	891.2	5.9
1043.9248	3156.367	892.1	5.2
1044.03	3157.3315	911.35	6.35
1044.135	3158.2952	891.25	2.45
1044.24	3159.2584	892.8	9.3
1044.345	3160.221	892.05	6.55
1044.4499	3161.1829	892.15	7.75
1044.5548	3162.1442	891.85	8.05
1044.6596	3163.105	891.35	5.7
1044.7644	3164.065	891.55	6.2
1044.8692	3165.0245	894.15	5.95
1044.9739	3165.9834	889.2	5.1
1045.0785	3166.9416	890.65	5.7
1045.1831	3167.8993	892.6	9
1045.2877	3168.8563	888.3	4.55
1045.3922	3169.8127	892.15	5.5
1045.4966	3170.7684	888.25	4.65
1045.6011	3171.7236	891.1	4.35
1045.7054	3172.6782	890.25	5.15
1045.8098	3173.6321	890.7	5.55
1045.914	3174.5854	895.15	5.25
1046.0183	3175.5381	891.5	6.2
1046.1224	3176.4902	889.95	7.25
1046.2266	3177.4417	889.95	5.7
1046.3307	3178.3926	890.5	5.8
1046.4347	3179.3428	891.85	7
1046.5387	3180.2924	889.5	4.9
1046.6427	3181.2415	891.75	7.6
1046.7466	3182.1899	892.85	5
1046.8504	3183.1377	890.6	7.65
1046.9542	3184.0848	892.25	2.2
1047.058	3185.0314	889.5	4.65
1047.1617	3185.9773	889.05	3.65
1047.2654	3186.9227	892.6	6.15
1047.369	3187.8674	892.65	9.35
1047.4726	3188.8115	895.05	4.4
1047.5761	3189.755	891.5	5.55
1047.6796	3190.6979	887.9	4.35
1047.783	3191.6402	888	2.8
1047.8864	3192.5818	889.95	5.7
1047.9898	3193.5229	905.75	6.75
1048.0931	3194.4633	891.3	6.15
1048.1963	3195.4031	891.5	7
1048.2995	3196.3423	890.05	3.55
1048.4027	3197.2809	888.25	3.65
1048.5058	3198.2189	891.7	6.35
1048.6089	3199.1563	907.7	4.7
1048.7119	3200.0931	889.15	4.4
1048.8148	3201.0292	889	3.9
1048.9178	3201.9648	888.6	3.45
1049.0206	3202.8997	893.75	5.8
1049.1235	3203.834	892.1	6.3
1049.2262	3204.7677	890.15	6.05
1049.329	3205.7008	891.35	2.65
1049.4317	3206.6333	887.75	3.85
1049.5343	3207.5652	891.15	4.3
1049.6369	3208.4964	888.9	2.55
1049.7394	3209.4271	888.65	4.4
1049.8419	3210.3571	888.9	4.3
1049.9444	3211.2865	891.75	3.35
1050.0468	3212.2154	892.25	5.85
1050.1491	3213.1436	893.15	4.1
1050.2514	3214.0712	893.9	2.7
1050.3537	3214.9982	890.25	5.55
1050.4559	3215.9246	889.5	4.65
1050.5581	3216.8503	888.5	5.55
1050.6602	3217.7755	889.95	5
1050.7623	3218.7001	888.3	3.35
1050.8643	3219.624	891.4	7.25
1050.9663	3220.5473	891.05	5.75
1051.0682	3221.4701	890.65	5
1051.1701	3222.3922	892.55	5.3
1051.2719	3223.3137	890.8	4.95
1051.3737	3224.2346	888.75	2.8
1051.4754	3225.1549	888.35	3.55
1051.5771	3226.0746	889.45	5.85
1051.6788	3226.9937	890.5	4.65
1051.7804	3227.9121	887.7	4.3
1051.8819	3228.83	889.85	4.75
1051.9834	3229.7473	888.5	4.9
1052.0849	3230.6639	889	2.25
1052.1863	3231.5799	890.45	5.75
1052.2876	3232.4954	891.1	3.25
1052.3889	3233.4102	889.5	4.4
1052.4902	3234.3244	888.95	1.25
1052.5914	3235.238	887.3	2.75
1052.6926	3236.151	915.5	6.15
1052.7937	3237.0634	886.95	1.9
1052.8948	3237.9752	889.05	4.3
1052.9958	3238.8864	887.05	0.1
1053.0968	3239.797	890.1	5.25
1053.1977	3240.7069	889.2	1.8
1053.2986	3241.6163	892.1	5.85
1053.3994	3242.5251	889.55	5.3
1053.5002	3243.4332	888.75	4
1053.6009	3244.3408	889.7	4.25
1053.7016	3245.2477	888.9	3.95
1053.8022	3246.154	888.75	4.15
1053.9028	3247.0598	889.95	5.8
1054.0034	3247.9649	890.6	2.8
1054.1039	3248.8694	887.55	1.85
1054.2043	3249.7733	888.9	4.25
1054.3047	3250.6766	888.65	5.25
1054.4051	3251.5793	890.25	4.9
1054.5054	3252.4814	890	5.75
1054.6056	3253.3829	887.65	3.9
1054.7058	3254.2838	890.35	6.7
1054.806	3255.1841	886.9	3.7
1054.9061	3256.0838	887.7	2.65
1055.0061	3256.9829	887.7	2.45
1055.1062	3257.8814	891.45	4.7
1055.2061	3258.7792	889.3	1.4
1055.306	3259.6765	889.75	5.3
1055.4059	3260.5731	889.55	5.6
1055.5057	3261.4692	888.55	3.25
1055.6055	3262.3647	889.15	3.1
1055.7052	3263.2595	888.3	3
1055.8049	3264.1538	888	2.4
1055.9045	3265.0474	888.25	1.95
1056.0041	3265.9404	888.4	3.25
1056.1036	3266.8329	886.75	1.4
1056.2031	3267.7247	897.75	3.55
1056.3025	3268.616	887	3.35
1056.4019	3269.5066	886.15	1.6
1056.5013	3270.3966	890.7	3.1
1056.6005	3271.286	887.4	5.5
