Software Version:	3.9.2.0
Unit SN:	10000200
Spectrometer SN:	6960
Date:	3/14/2024 2:29:04 PM
Data Line Index:	25
Spectral Points:	2048
Integration time (ms):	125
Averages:	20
Delay (ms):	30000
Sequence Number:	1
Processing:	dark subtract
Laser Power (mW):	305
Laser Current (mA):	824
Laser Diode Temp (C):	25
Laser Case Temp (C):	29.3
System Temp (C):	29.3
Spectrometer Temp (C):	27
CCD Temp (C):	0.004
Secondary Temp (C):	20.003
Heatsink Temp (C):	25.078
CCDPCB Temp (C):	38.474
SecondaryPCB Temp (C):	36.151

Wavelength	RamanShift	Raw Counts	Dark Subtracted
787.061	30.1047	456.45	46
787.2016	32.3739	457.9	51.05
787.3422	34.6426	462	55.55
787.4828	36.9109	468.05	58.85
787.6235	39.1787	474.45	61.55
787.7642	41.4461	486.4	68.5
787.9049	43.7131	493.25	71.95
788.0456	45.9796	500.15	76.35
788.1863	48.2456	513	84.05
788.3271	50.5112	522.3	87.9
788.4679	52.7764	528.8	91
788.6087	55.0411	537.5	96.8
788.7496	57.3054	551.65	104.9
788.8904	59.5692	561.1	110.8
789.0313	61.8326	574.8	121.45
789.1722	64.0955	586.65	127.5
789.3132	66.3579	602.65	141.25
789.4541	68.6199	614.35	149.95
789.5951	70.8815	650.2	180.85
789.7361	73.1426	721.1	248.8
789.8771	75.4032	912.2	433.65
790.0181	77.6634	1364.9	881.2
790.1592	79.9231	2443.1	1955.25
790.3003	82.1824	4814.85	4318.4
790.4414	84.4412	9190.25	8680.3
790.5825	86.6995	15362.2	14828.45
790.7237	88.9574	21619.3	21064.25
790.8648	91.2148	26100.05	25532.35
791.006	93.4717	28260.7	27685.3
791.1472	95.7282	28833.35	28251.1
791.2885	97.9842	28841.05	28257.55
791.4297	100.2398	28361.85	27774.3
791.571	102.4949	27816.45	27225.05
791.7123	104.7495	27083.4	26490.15
791.8536	107.0036	26253	25658.7
791.9949	109.2573	25409.85	24815.7
792.1363	111.5105	24552.2	23955.55
792.2777	113.7632	23726	23128.45
792.4191	116.0154	23025.85	22420.65
792.5605	118.2672	22434.75	21836.7
792.7019	120.5185	21870.85	21270.4
792.8434	122.7693	21443.45	20838
792.9849	125.0197	21079.55	20470.05
793.1264	127.2696	20781.75	20170.7
793.2679	129.519	20586.8	19972.75
793.4094	131.7679	20418.95	19804
793.551	134.0163	20320.8	19704.5
793.6926	136.2642	20195.1	19573.95
793.8342	138.5117	19993.7	19359.15
793.9758	140.7587	19827.6	19200.6
794.1175	143.0052	19675.1	19045
794.2591	145.2512	19431.95	18802.3
794.4008	147.4967	19207.6	18577.2
794.5425	149.7417	19053.65	18418.8
794.6842	151.9863	18923.35	18285.75
794.826	154.2304	18860.05	18222.2
794.9677	156.4739	18748.1	18101.55
795.1095	158.717	18675.35	18032.05
795.2513	160.9596	18508.25	17860.6
795.3931	163.2017	18245.85	17594.65
795.535	165.4433	17933.9	17282.25
795.6768	167.6844	17571.05	16917.9
795.8187	169.925	17247.1	16593.4
795.9606	172.1651	16821.9	16161.9
796.1025	174.4047	16492.4	15824.85
796.2445	176.6439	16195.4	15527.05
796.3864	178.8825	15959.65	15293.15
796.5284	181.1206	15735.2	15063.4
796.6704	183.3582	15509.75	14834.65
796.8124	185.5954	15363.55	14684.55
796.9544	187.832	15253.55	14574.15
797.0965	190.0681	15179.6	14496.2
797.2386	192.3037	15180.05	14493.25
797.3806	194.5388	15142.5	14451.8
797.5228	196.7734	15169.5	14477.2
797.6649	199.0075	15190.6	14493.9
797.807	201.2411	15356.15	14655.2
797.9492	203.4742	15389.55	14690.55
798.0914	205.7068	15545.3	14848.4
798.2336	207.9389	15627.6	14928.7
798.3758	210.1704	15765.1	15061.85
798.518	212.4015	15871.8	15164.3
798.6603	214.632	16052.25	15344.95
798.8025	216.862	16274.3	15579.75
798.9448	219.0915	16430.45	15741
799.0871	221.3205	16707.35	16018.35
799.2294	223.549	17009.2	16326
799.3718	225.777	17374.3	16692.6
799.5141	228.0044	17868.05	17180.45
799.6565	230.2314	18421.2	17738
799.7989	232.4578	18954.8	18267.8
799.9413	234.6837	19424.65	18731.05
800.0837	236.909	19703	19008.25
800.2262	239.1339	19644.85	18928.15
800.3687	241.3582	19392.95	18691.25
800.5111	243.582	18913.55	18185.7
800.6536	245.8053	18496.05	17775.4
800.7961	248.0281	18008.95	17290.75
800.9387	250.2503	17661.15	16938.55
801.0812	252.472	17403	16674.5
801.2238	254.6932	17252.45	16520.65
801.3664	256.9139	17076.6	16344.7
801.509	259.134	16975.85	16242.25
801.6516	261.3536	16875.1	16143.05
801.7942	263.5727	16801	16067.45
801.9369	265.7912	16605.85	15874.25
802.0795	268.0092	16556.45	15822.85
802.2222	270.2267	16429	15694.45
802.3649	272.4436	16359.5	15625.15
802.5076	274.6601	16287.2	15543.15
802.6504	276.8759	16207.75	15470.75
802.7931	279.0913	16224.45	15485.85
802.9359	281.3061	16260.3	15521.5
803.0787	283.5204	16385.5	15640.55
803.2215	285.7341	16509.4	15763.25
803.3643	287.9473	16730.35	15971.85
803.5071	290.16	16993.7	16241.35
803.6499	292.3721	17341	16594.35
803.7928	294.5837	17834.05	17085.4
803.9357	296.7947	18263.95	17518.3
804.0786	299.0052	18519.7	17773.2
804.2215	301.2152	18341.5	17586.65
804.3644	303.4246	17913.55	17167.5
804.5074	305.6334	17280.5	16532.25
804.6503	307.8418	16727.05	15975.2
804.7933	310.0495	16243.3	15492.65
804.9363	312.2568	15862.75	15110.9
805.0793	314.4635	15646.95	14891.45
805.2223	316.6696	15593	14835
805.3653	318.8752	15557.3	14792.45
805.5084	321.0802	15624.45	14868.5
805.6514	323.2847	15762.75	15004.3
805.7945	325.4887	15789.9	15031.8
805.9376	327.692	15765.1	15005.05
806.0807	329.8949	15642.6	14882.25
806.2238	332.0972	15330.25	14567.85
806.367	334.2989	15016.8	14249.5
806.5101	336.5001	14712.5	13949
806.6533	338.7007	14472	13705.25
806.7965	340.9008	14312.65	13543.4
806.9397	343.1003	14178.85	13411.2
807.0829	345.2992	14102.3	13334.4
807.2261	347.4976	14078.25	13303.9
807.3693	349.6955	14052.4	13278.05
807.5126	351.8927	14127.85	13350.9
807.6559	354.0895	14137.15	13348.25
807.7991	356.2856	14195.9	13419.9
807.9424	358.4812	14170	13395.05
808.0857	360.6763	14181.15	13402.45
808.2291	362.8707	14141.5	13362
808.3724	365.0646	14143.5	13360.25
808.5158	367.258	14153.05	13367.45
808.6591	369.4508	14143.75	13358.75
808.8025	371.643	14202.05	13415.9
808.9459	373.8346	14148.65	13359.5
809.0893	376.0257	14131	13340.45
809.2327	378.2162	14002.3	13208.15
809.3762	380.4062	13898.2	13103.7
809.5196	382.5956	13721.75	12927.9
809.6631	384.7844	13593.8	12797.8
809.8066	386.9726	13450.25	12655.6
809.9501	389.1603	13384.35	12586.8
810.0936	391.3474	13381.6	12537
810.2371	393.5339	13317.15	12523.25
810.3806	395.7199	13265	12477.75
810.5241	397.9052	13248.05	12460.35
810.6677	400.09	13242.75	12457.75
810.8113	402.2743	13276.6	12492.25
810.9548	404.4579	13314.1	12529.85
811.0984	406.641	13481.15	12694.45
811.2421	408.8235	13718.9	12931.35
811.3857	411.0054	14054.35	13265.3
811.5293	413.1868	14570.4	13778.5
811.673	415.3675	14993.15	14199.35
811.8166	417.5477	15242.8	14449.75
811.9603	419.7273	15335.45	14539.85
812.104	421.9064	15226.15	14421.2
812.2477	424.0848	15055.6	14254.2
812.3914	426.2627	14803	14001.9
812.5351	428.4399	14476.3	13672.4
812.6788	430.6166	14067.4	13261.3
812.8226	432.7928	13656.5	12849.7
812.9663	434.9683	13307.1	12499.6
813.1101	437.1432	13049.5	12238.25
813.2539	439.3176	12866.5	12058.05
813.3977	441.4914	12737.2	11925.8
813.5415	443.6645	12686.95	11873.05
813.6853	445.8371	12641.95	11827.9
813.8291	448.0091	12544.4	11734.7
813.973	450.1806	12471.15	11660.15
814.1168	452.3514	12421.65	11604.9
814.2607	454.5216	12403.7	11583.9
814.4046	456.6913	12304.95	11488
814.5485	458.8603	12336.8	11520.7
814.6924	461.0288	12361.85	11548.35
814.8363	463.1967	12398.15	11582.35
814.9802	465.3639	12525	11708.55
815.1241	467.5306	12681.4	11864.4
815.2681	469.6967	12871.25	12054.75
815.412	471.8622	13081.9	12262.8
815.556	474.0271	13254	12436.2
815.7	476.1914	13324.4	12506.5
815.844	478.3551	13267.6	12448.3
815.988	480.5182	13235.75	12419.25
816.132	482.6807	13158.05	12338.15
816.276	484.8426	13215.9	12396.5
816.4201	487.0039	13463.25	12644.25
816.5641	489.1647	13832.15	13010.8
816.7082	491.3248	14318.5	13498.65
816.8522	493.4843	14573.6	13753.25
816.9963	495.6432	14593.7	13771
817.1404	497.8015	14510.7	13687.6
817.2845	499.9592	14556.75	13736
817.4286	502.1163	14516.55	13694.1
817.5727	504.2728	14322.65	13494.95
817.7168	506.4287	13989.3	13162.95
817.861	508.5839	13528.9	12704.15
818.0051	510.7386	13113.55	12289.1
818.1493	512.8927	12876.15	12047.45
818.2935	515.0461	12656.65	11829
818.4377	517.199	12518.65	11690.95
818.5818	519.3512	12417.5	11587.35
818.726	521.5029	12407.45	11575.95
818.8703	523.6539	12393.75	11564.55
819.0145	525.8043	12395.05	11565.1
819.1587	527.9541	12456.85	11625.45
819.303	530.1033	12476.65	11645.95
819.4472	532.2519	12579.95	11749.5
819.5915	534.3999	12747.85	11916.3
819.7357	536.5472	13096.25	12263.85
819.88	538.694	13633.3	12801.3
820.0243	540.8401	14323.8	13490.25
820.1686	542.9856	14937.1	14102.5
820.3129	545.1305	15150.85	14315.95
820.4572	547.2748	15010.45	14176.2
820.6016	549.4185	14548.25	13712.75
820.7459	551.5615	14116.7	13279.95
820.8902	553.704	13884.95	13048.8
821.0346	555.8458	13754.9	12923.25
821.1789	557.987	13656	12822
821.3233	560.1276	13518.9	12683.35
821.4677	562.2675	13370.8	12535.45
821.6121	564.4069	13224.7	12392.65
821.7565	566.5456	13098.95	12263.75
821.9009	568.6837	12919.95	12083.85
822.0453	570.8212	12656.6	11819.25
822.1897	572.958	12409.25	11573.5
822.3342	575.0942	12224.15	11389.75
822.4786	577.2299	12089.15	11252.65
822.6231	579.3648	12127.05	11291.4
822.7675	581.4992	12232.35	11396.1
822.912	583.6329	12463.55	11624.95
823.0565	585.766	12764.65	11928.35
823.201	587.8985	12894.05	12057
823.3454	590.0304	12905.45	12042.55
823.4899	592.1616	12817.75	11977.9
823.6345	594.2922	12733.55	11894.15
823.779	596.4222	12578.45	11735.95
823.9235	598.5515	12389.7	11548.45
824.068	600.6802	12204.65	11365.7
824.2126	602.8083	12019.7	11178.35
824.3571	604.9358	11913.85	11071.65
824.5017	607.0626	11815.3	10973.1
824.6462	609.1888	11712.8	10869.85
824.7908	611.3144	11567.9	10726.35
824.9354	613.4393	11389.75	10546.05
825.08	615.5636	11205	10363.95
825.2246	617.6873	11072.8	10230.05
825.3692	619.8103	10965.35	10121.15
825.5138	621.9327	10935.65	10088.8
825.6584	624.0544	10894.95	10054.05
825.803	626.1756	10920.55	10077.25
825.9477	628.2961	10887.85	10041.25
826.0923	630.4159	10805.7	9961.35
826.237	632.5351	10770	9924.5
826.3816	634.6537	10692.25	9846.65
826.5263	636.7716	10637.75	9791.3
826.6709	638.8889	10613.05	9768.55
826.8156	641.0056	10621.5	9775.95
826.9603	643.1216	10610.85	9763.45
827.105	645.237	10624.95	9777.5
827.2497	647.3518	10614.4	9765.8
827.3944	649.4659	10679.9	9831.75
827.5391	651.5793	10673.1	9825.1
827.6838	653.6922	10660.05	9813.3
827.8285	655.8043	10599.35	9751.35
827.9733	657.9159	10553	9703.25
828.118	660.0268	10494	9641.35
828.2627	662.137	10399.7	9549.65
828.4075	664.2466	10341.65	9490.25
828.5522	666.3556	10317.8	9468.65
828.697	668.4639	10305.4	9451.35
828.8418	670.5716	10370.4	9518.35
828.9865	672.6786	10427.35	9574.15
829.1313	674.785	10507.45	9654.6
829.2761	676.8907	10575.75	9723.95
829.4209	678.9958	10681.8	9831.85
829.5657	681.1002	10642.8	9790.75
829.7105	683.204	10637.35	9781.35
829.8553	685.3072	10547.55	9690.85
830.0001	687.4097	10469.4	9615.6
830.1449	689.5115	10412.15	9557.1
830.2898	691.6127	10306.55	9454.15
830.4346	693.7132	10202.45	9345.65
830.5794	695.8131	10139.2	9261.75
830.7243	697.9123	10088	9233.45
830.8691	700.0109	9981.2	9127.05
831.014	702.1089	9968.25	9114.4
831.1588	704.2061	9970.7	9114.6
831.3037	706.3028	9981.35	9123.7
831.4486	708.3987	10007.35	9151.85
831.5935	710.4941	10130.4	9274.7
831.7383	712.5887	10335.7	9480.7
831.8832	714.6827	10656	9793.95
832.0281	716.7761	11075.3	10219.05
832.173	718.8688	11502.4	10645.95
832.3179	720.9608	11710.85	10848.1
832.4628	723.0522	11724.2	10860.2
832.6077	725.1429	11457.25	10599.45
832.7527	727.233	11045.35	10185.5
832.8976	729.3224	10674.3	9816.1
833.0425	731.4112	10329.3	9469.85
833.1874	733.4993	10035.35	9173.05
833.3324	735.5867	9875.2	9013.8
833.4773	737.6735	9794	8931.55
833.6222	739.7596	9732.95	8873.4
833.7672	741.845	9682	8824.35
833.9122	743.9298	9669.15	8806.7
834.0571	746.014	9682.9	8822.2
834.2021	748.0974	9689.15	8827.75
834.347	750.1802	9686.3	8824.8
834.492	752.2624	9695.8	8835.8
834.637	754.3439	9676.95	8815.35
834.782	756.4247	9746.45	8877.9
834.9269	758.5048	9823.25	8964.25
835.0719	760.5843	10014.35	9154.15
835.2169	762.6631	10291.7	9430.15
835.3619	764.7413	10704.35	9845.1
835.5069	766.8188	11259.4	10396.15
835.6519	768.8956	11762.75	10901.5
835.7969	770.9718	12083.05	11219.5
835.9419	773.0473	12006.65	11146.2
836.0869	775.1221	11644.1	10781.8
836.232	777.1962	11266.2	10402.5
836.377	779.2697	11070.1	10206.45
836.522	781.3426	11130.25	10246.15
836.667	783.4147	11426.65	10562.25
836.8121	785.4862	11777.6	10917.15
836.9571	787.557	11811	10949.45
837.1021	789.6271	11447	10581.6
837.2472	791.6966	10882.2	10017.7
837.3922	793.7654	10354.25	9489.95
837.5373	795.8335	9989.15	9125.05
837.6823	797.901	9757.25	8891.85
837.8274	799.9678	9678.85	8813.55
837.9724	802.0339	9689.15	8824.65
838.1175	804.0993	9751.45	8878.6
838.2626	806.1641	9728	8861.05
838.4076	808.2282	9662.15	8800.25
838.5527	810.2916	9571.75	8703.85
838.6978	812.3544	9459.65	8597.1
838.8428	814.4164	9368.45	8506.3
838.9879	816.4778	9319.1	8454.55
839.133	818.5385	9273.05	8407.6
839.2781	820.5986	9306.55	8440.3
839.4232	822.658	9358.6	8491.1
839.5682	824.7166	9400.8	8537
839.7133	826.7747	9513.55	8649.25
839.8584	828.832	9609.35	8743.5
840.0035	830.8886	9698.15	8832.75
840.1486	832.9446	9856	8988.1
840.2937	834.9999	9977.8	9113.9
840.4388	837.0545	10079.2	9210.6
840.5839	839.1085	10134.95	9269.6
840.729	841.1618	10163.9	9293
840.8741	843.2143	10138.25	9274.2
841.0192	845.2662	10082.3	9215.3
841.1643	847.3175	10031.6	9167.2
841.3095	849.368	9908.85	9041.95
841.4546	851.4179	9782.1	8915.55
841.5997	853.467	9617.95	8750.75
841.7448	855.5155	9482.75	8614.85
841.8899	857.5633	9359.9	8492.7
842.0351	859.6105	9229.3	8359.65
842.1802	861.6569	9156	8288.3
842.3253	863.7027	9066.2	8196
842.4704	865.7478	9046.75	8177.3
842.6156	867.7922	9051.75	8182.05
842.7607	869.8359	9091.85	8224.1
842.9058	871.8789	9217.1	8347.45
843.0509	873.9212	9414.05	8510.2
843.1961	875.9629	9600.2	8731.8
843.3412	878.0039	9795.2	8926.3
843.4863	880.0441	9897.1	9026.85
843.6315	882.0837	9905.85	9037.55
843.7766	884.1226	9757.75	8888.85
843.9218	886.1609	9573.5	8705.2
844.0669	888.1984	9411.65	8545.65
844.212	890.2352	9334.9	8467.4
844.3572	892.2714	9258	8383.8
844.5023	894.3069	9197.6	8327.6
844.6475	896.3416	9146.8	8276.6
844.7926	898.3757	9121.65	8252.35
844.9377	900.4091	9117.35	8246.25
845.0829	902.4418	9127.6	8254.45
845.228	904.4739	9116.85	8244.5
845.3732	906.5052	9097	8225.9
845.5183	908.5358	8999.2	8130.05
845.6635	910.5658	8817.95	7943.25
845.8086	912.595	8650.3	7779.75
845.9538	914.6236	8523.35	7651.2
846.0989	916.6515	8486.85	7614.95
846.2441	918.6786	8497.2	7626.7
846.3892	920.7051	8547.75	7674
846.5344	922.7309	8656.4	7786.5
846.6795	924.756	8720.2	7847.95
846.8246	926.7804	8804.3	7929.75
846.9698	928.8041	8815	7942.75
847.1149	930.8272	8823.9	7951.45
847.2601	932.8495	8761.55	7886.5
847.4052	934.8711	8667	7795.35
847.5504	936.892	8512.95	7639.4
847.6955	938.9123	8343.8	7470.15
847.8407	940.9318	8168.65	7298.3
847.9858	942.9506	8023.9	7148.25
848.131	944.9688	7912	7037.65
848.2761	946.9862	7852.3	6977.6
848.4213	949.003	7828	6954
848.5664	951.019	7836.7	6965.25
848.7115	953.0344	7851.95	6980.85
848.8567	955.0491	7901.6	7028.3
849.0018	957.063	7975.7	7101.6
849.147	959.0763	8062.95	7190.05
849.2921	961.0888	8129.15	7256.75
849.4373	963.1007	8221.4	7346.95
849.5824	965.1119	8268	7395.95
849.7275	967.1223	8298.85	7425.7
849.8727	969.1321	8318.65	7445.85
850.0178	971.1412	8350.4	7479.6
850.1629	973.1495	8393.65	7520.85
850.3081	975.1572	8438.9	7530.8
850.4532	977.1641	8435.55	7563.6
850.5983	979.1704	8442.7	7567.95
850.7435	981.1759	8424.7	7548.35
850.8886	983.1808	8503.55	7629.9
851.0337	985.1849	8599.2	7722.4
851.1788	987.1884	8761.75	7885.5
851.324	989.1911	8926.2	8050.2
851.4691	991.1932	9104.6	8227.35
851.6142	993.1945	9162.6	8289.35
851.7593	995.1951	9155.05	8280.15
851.9045	997.1951	9138.7	8261.5
852.0496	999.1943	9057.8	8183.75
852.1947	1001.1928	8980.35	8105.6
852.3398	1003.1906	8943.75	8068.35
852.4849	1005.1877	8995.25	8120.95
852.63	1007.1841	8962.25	8086.45
852.7751	1009.1798	8843.7	7970.05
852.9202	1011.1748	8647.2	7772.8
853.0653	1013.1691	8422.15	7544.3
853.2104	1015.1627	8202.85	7328.85
853.3555	1017.1556	8011.15	7136.8
853.5006	1019.1477	7903.45	7027.55
853.6457	1021.1392	7850.15	6976
853.7908	1023.1299	7842.75	6967
853.9359	1025.12	7859.85	6981.1
854.081	1027.1093	7923.65	7049.55
854.2261	1029.0979	8006.6	7133
854.3712	1031.0859	8059.1	7184.8
854.5163	1033.0731	8049.85	7174.2
854.6613	1035.0596	7968.85	7095.1
854.8064	1037.0454	7840.9	6966.85
854.9515	1039.0304	7731.2	6856.25
855.0965	1041.0148	7613.6	6736.45
855.2416	1042.9985	7504.95	6630.35
855.3867	1044.9814	7462.45	6587.6
855.5317	1046.9636	7420.9	6542.15
855.6768	1048.9452	7390.35	6517.55
855.8219	1050.926	7391.3	6518.6
855.9669	1052.9061	7368.2	6494.95
856.112	1054.8855	7337.3	6461.8
856.257	1056.8642	7408.45	6533.1
856.4021	1058.8421	7443.75	6562.1
856.5471	1060.8194	7464.9	6590.15
856.6921	1062.7959	7488.35	6613.1
856.8372	1064.7717	7480.55	6604.15
856.9822	1066.7469	7498.8	6623.55
857.1272	1068.7213	7459.8	6579.75
857.2723	1070.695	7422.9	6547.3
857.4173	1072.6679	7354	6476.85
857.5623	1074.6402	7311.45	6432.85
857.7073	1076.6117	7265.9	6385.15
857.8523	1078.5826	7299.65	6424
857.9973	1080.5527	7358.3	6479.15
858.1423	1082.5221	7524.8	6650.65
858.2873	1084.4908	7755.1	6878.55
858.4323	1086.4587	7981.45	7104.3
858.5773	1088.426	8182.95	7305.9
858.7223	1090.3925	8165.75	7284.55
858.8673	1092.3584	8112.25	7235.55
859.0123	1094.3235	7954.3	7080.1
859.1573	1096.2879	7841.65	6962.6
859.3022	1098.2515	7750.1	6873.1
859.4472	1100.2145	7785.15	6907.55
859.5922	1102.1767	7831.2	6951.55
859.7371	1104.1382	7970.8	7094.95
859.8821	1106.099	8197.95	7320.95
860.027	1108.0591	8401	7522.3
860.172	1110.0185	8553.75	7675.25
860.3169	1111.9771	8567.2	7690.25
860.4619	1113.9351	8333.4	7455.95
860.6068	1115.8923	7967.35	7087.75
860.7517	1117.8488	7639.45	6760.8
860.8967	1119.8045	7340.75	6463.1
861.0416	1121.7596	7173.3	6294.6
861.1865	1123.7139	7108.55	6231.85
861.3314	1125.6675	7093.9	6215.35
861.4763	1127.6204	7132.6	6255.45
861.6212	1129.5726	7190.4	6311.8
861.7661	1131.524	7223.8	6348.4
861.911	1133.4748	7281.7	6402.95
862.0559	1135.4248	7317.1	6436.35
862.2008	1137.3741	7349.55	6474.45
862.3457	1139.3226	7340.3	6459.25
862.4905	1141.2705	7272	6394.45
862.6354	1143.2176	7227.3	6342.65
862.7803	1145.164	7254.65	6376.7
862.9251	1147.1097	7273	6396.3
863.07	1149.0546	7270.75	6393.6
863.2148	1150.9989	7158.3	6280.15
863.3597	1152.9424	7002.8	6124.2
863.5045	1154.8852	6801.35	5924.65
863.6493	1156.8272	6623.5	5745.2
863.7942	1158.7686	6563.55	5677.35
863.939	1160.7092	6493.7	5616.45
864.0838	1162.6491	6489	5608.95
864.2286	1164.5883	6527.35	5648.6
864.3734	1166.5267	6639.75	5759.05
864.5182	1168.4644	6761.1	5884.3
864.663	1170.4014	6942.45	6062.7
864.8078	1172.3377	7162.55	6284.8
864.9526	1174.2732	7391.45	6514.9
865.0974	1176.2081	7604	6723.8
865.2421	1178.1421	7773.5	6889.25
865.3869	1180.0755	7899.75	7021.45
865.5317	1182.0082	7927.3	7050.2
865.6764	1183.9401	7855.4	6975.85
865.8212	1185.8713	7649.95	6772.4
865.9659	1187.8017	7392.4	6514.6
866.1106	1189.7315	7137.05	6259.15
866.2554	1191.6605	6885.5	5981.35
866.4001	1193.5888	6684.8	5805.5
866.5448	1195.5163	6568.5	5689.95
866.6895	1197.4432	6435.25	5556.45
866.8342	1199.3693	6374.4	5496.65
866.9789	1201.2947	6331.3	5449.6
867.1236	1203.2193	6314.85	5434.25
867.2683	1205.1432	6350.4	5471.75
867.413	1207.0664	6387.05	5508.3
867.5576	1208.9889	6444.65	5561.35
867.7023	1210.9106	6557.1	5676.15
867.847	1212.8316	6650.15	5772.45
867.9916	1214.7519	6738.55	5848.35
868.1363	1216.6715	6772.35	5894.35
868.2809	1218.5903	6723.65	5843.45
868.4255	1220.5084	6701.9	5823.8
868.5701	1222.4257	6650.05	5771.9
868.7148	1224.3424	6595.9	5717.75
868.8594	1226.2583	6647.9	5764.45
869.004	1228.1735	6758.3	5877.4
869.1486	1230.0879	6894.35	6015.95
869.2932	1232.0016	7039.8	6163.6
869.4377	1233.9146	7060.25	6177.95
869.5823	1235.8269	6967.45	6089.35
869.7269	1237.7384	6881.35	6001.95
869.8715	1239.6492	6692.95	5814.2
870.016	1241.5592	6591	5711.05
870.1606	1243.4686	6491.35	5611.4
870.3051	1245.3772	6411.3	5535.3
870.4496	1247.285	6335.5	5456.9
870.5941	1249.1922	6287.6	5407.8
870.7387	1251.0986	6292.9	5414.45
870.8832	1253.0042	6298.55	5420.05
871.0277	1254.9092	6354.65	5475.4
871.1722	1256.8134	6461.8	5583
871.3167	1258.7169	6578.25	5697.95
871.4611	1260.6196	6762.4	5884.45
871.6056	1262.5216	6938.6	6057.75
871.7501	1264.4229	7086.15	6208.8
871.8945	1266.3234	7208.55	6328.85
872.039	1268.2232	7237.3	6356.9
872.1834	1270.1223	7239.55	6357.8
872.3278	1272.0207	7205.2	6326.55
872.4723	1273.9183	7179.25	6292.05
872.6167	1275.8151	7072.7	6194.4
872.7611	1277.7113	6979	6099.1
872.9055	1279.6067	6837.7	5960.75
873.0499	1281.5014	6675.1	5791.7
873.1943	1283.3953	6528.95	5647.2
873.3386	1285.2885	6433.7	5555.6
873.483	1287.181	6337.15	5458.05
873.6274	1289.0727	6336.1	5456.3
873.7717	1290.9637	6398.05	5515.9
873.9161	1292.854	6483.6	5606.2
874.0604	1294.7435	6666.1	5785.6
874.2047	1296.6323	6873.15	5991.4
874.349	1298.5204	7144.65	6261.3
874.4933	1300.4077	7405.1	6525.55
874.6376	1302.2943	7613.3	6733.7
874.7819	1304.1802	7715.1	6836.45
874.9262	1306.0653	7659.75	6777.6
875.0705	1307.9497	7548.45	6670.45
875.2147	1309.8333	7475.4	6595.45
875.359	1311.7162	7471.5	6590.15
875.5032	1313.5984	7560.55	6677.75
875.6475	1315.4798	7726.4	6836.4
875.7917	1317.3605	7886.8	6990.1
875.9359	1319.2405	8051.55	7170.5
876.0801	1321.1197	8140.75	7257.85
876.2243	1322.9982	8089.85	7202.85
876.3685	1324.876	8076.9	7196.75
876.5127	1326.753	8054.7	7174.35
876.6569	1328.6293	8095.25	7212.9
876.801	1330.5048	8103.8	7220.7
876.9452	1332.3796	8079.75	7200.9
877.0893	1334.2537	8070	7165.1
877.2335	1336.127	7989.25	7109.45
877.3776	1337.9996	7934	7052.2
877.5217	1339.8714	7884.85	7003.1
877.6658	1341.7426	7870.35	6943.85
877.8099	1343.6129	7777.75	6896.85
877.954	1345.4826	7698.15	6820
878.0981	1347.3515	7641	6757.65
878.2422	1349.2196	7579	6696.45
878.3862	1351.087	7573	6693.55
878.5303	1352.9537	7624.3	6744.05
878.6743	1354.8197	7733.45	6851.15
878.8184	1356.6849	7890.3	7009.35
878.9624	1358.5493	7970.65	7090.5
879.1064	1360.4131	7982.45	7102.7
879.2504	1362.276	7899.85	7018.9
879.3944	1364.1383	7730.1	6848.35
879.5384	1365.9998	7542.85	6657.05
879.6823	1367.8606	7264.6	6384.75
879.8263	1369.7206	7022.65	6140.2
879.9702	1371.5799	6836.75	5953.35
880.1142	1373.4384	6750.75	5869.9
880.2581	1375.2962	6619.9	5738.2
880.402	1377.1533	6380.45	5498.5
880.5459	1379.0096	6090.75	5210.3
880.6898	1380.8652	5827.85	4945.1
880.8337	1382.7201	5607.1	4727.4
880.9776	1384.5742	5407.7	4525.75
881.1215	1386.4275	5247.7	4365.35
881.2653	1388.2802	5139.15	4259.8
881.4092	1390.132	5049.45	4167.7
881.553	1391.9832	4986.8	4103.1
881.6968	1393.8336	4916.35	4035.35
881.8406	1395.6832	4884	4001.9
881.9844	1397.5322	4855.6	3972.65
882.1282	1399.3803	4851.2	3963.65
882.272	1401.2278	4828.4	3947.6
882.4158	1403.0745	4829.85	3950.05
882.5595	1404.9204	4839.85	3958.25
882.7033	1406.7656	4855.8	3972.8
882.847	1408.6101	4866.65	3983
882.9908	1410.4538	4886.15	4005.75
883.1345	1412.2968	4942.15	4063.85
883.2782	1414.139	5001.3	4118.85
883.4219	1415.9805	5065.3	4186.8
883.5656	1417.8213	5161	4273.8
883.7092	1419.6613	5290.5	4407.4
883.8529	1421.5006	5506.5	4623.8
883.9965	1423.3391	5762.85	4880.75
884.1402	1425.1769	6153.15	5271.85
884.2838	1427.0139	6665.3	5783.45
884.4274	1428.8502	7286.45	6403.8
884.571	1430.6858	7911.85	7028.9
884.7146	1432.5206	8385.15	7503.45
884.8582	1434.3547	8695	7811.6
885.0018	1436.188	8731.35	7849.85
885.1453	1438.0206	8700.5	7819.65
885.2889	1439.8524	8566.1	7684.75
885.4324	1441.6835	8474.2	7593.6
885.5759	1443.5139	8384.25	7498.95
885.7194	1445.3435	8327.2	7444.55
885.8629	1447.1724	8259.05	7378.4
886.0064	1449.0005	8186.5	7305.7
886.1499	1450.8279	8102.7	7219.55
886.2933	1452.6545	8021.25	7141.55
886.4368	1454.4804	8062.15	7179.9
886.5802	1456.3056	8086.55	7198.2
886.7237	1458.13	7984.5	7103.25
886.8671	1459.9536	7727.45	6844.5
887.0105	1461.7766	7375.05	6494.3
887.1539	1463.5987	6944.65	6061.2
887.2972	1465.4202	6550.6	5668.55
887.4406	1467.2409	6204.45	5321.65
887.584	1469.0608	5880.25	4998.65
887.7273	1470.88	5611.35	4727.75
887.8706	1472.6984	5385.7	4506.05
888.0139	1474.5161	5210.7	4326.8
888.1572	1476.3331	5027.7	4146.25
888.3005	1478.1493	4897.1	4017.85
888.4438	1479.9648	4799.25	3919.5
888.5871	1481.7795	4716.1	3834.6
888.7303	1483.5935	4637.4	3757.2
888.8736	1485.4067	4586.5	3706.7
889.0168	1487.2192	4522.3	3640.1
889.16	1489.031	4481.7	3598.35
889.3032	1490.842	4437.45	3556.85
889.4464	1492.6522	4424.05	3541.55
889.5896	1494.4618	4371.25	3487.35
889.7327	1496.2705	4353.3	3473.65
889.8759	1498.0785	4328.1	3446.4
890.019	1499.8858	4303.9	3421.45
890.1622	1501.6924	4284.4	3405.55
890.3053	1503.4981	4282.6	3401.45
890.4484	1505.3032	4253.95	3371.1
890.5914	1507.1075	4222.7	3341.3
890.7345	1508.911	4218.5	3336
890.8776	1510.7138	4179.15	3297.7
891.0206	1512.5159	4150	3267.7
891.1637	1514.3172	4122.1	3241.6
891.3067	1516.1178	4087.1	3207
891.4497	1517.9176	4064.5	3180.95
891.5927	1519.7166	4041.8	3160.9
891.7357	1521.515	4031.55	3142.25
891.8786	1523.3126	3993.55	3111.4
892.0216	1525.1094	3984.1	3101.45
892.1645	1526.9055	3973	3093.45
892.3074	1528.7008	3950.75	3070.2
892.4503	1530.4954	3930.1	3042.65
892.5932	1532.2893	3924.95	3045.25
892.7361	1534.0824	3898.2	3011.05
892.879	1535.8747	3909.95	3028.65
893.0218	1537.6663	3907.4	3025.05
893.1647	1539.4572	3892.75	3010.1
893.3075	1541.2473	3880.05	2997.65
893.4503	1543.0367	3889.85	3012.9
893.5931	1544.8253	3886.95	3000.8
893.7359	1546.6132	3898.05	3014.25
893.8787	1548.4003	3900.4	3011.8
894.0214	1550.1867	3905.8	3015.15
894.1642	1551.9723	3924.8	3039.75
894.3069	1553.7572	3938.3	3054.55
894.4496	1555.5414	3961.6	3079.8
894.5923	1557.3247	3995.65	3113.3
894.735	1559.1074	4028.45	3148.25
894.8777	1560.8893	4081.05	3201.5
895.0204	1562.6705	4144.75	3262.05
895.163	1564.4509	4229.8	3349.85
895.3056	1566.2305	4297.45	3417.55
895.4482	1568.0094	4403.8	3524.95
895.5908	1569.7876	4489.85	3608.95
895.7334	1571.565	4559.55	3679.05
895.876	1573.3417	4615.5	3734.05
896.0186	1575.1176	4640.45	3760.25
896.1611	1576.8928	4612	3731
896.3036	1578.6672	4532.35	3650.9
896.4461	1580.4409	4433.25	3552.3
896.5886	1582.2138	4312.3	3428.4
896.7311	1583.986	4179.85	3297.3
896.8736	1585.7575	4093.55	3212.95
897.0161	1587.5282	4003.7	3123.7
897.1585	1589.2981	3945.75	3066.3
897.3009	1591.0673	3913.9	3032.3
897.4433	1592.8358	3893.65	3014
897.5857	1594.6035	3881.65	2998
897.7281	1596.3704	3865.4	2982.05
897.8705	1598.1366	3872.85	2993.45
898.0128	1599.9021	3903.7	3023.6
898.1551	1601.6668	3948.5	3064.75
898.2975	1603.4308	3982.5	3100.65
898.4398	1605.194	4051.75	3167.05
898.5821	1606.9564	4112.9	3231.35
898.7243	1608.7182	4234.2	3349.85
898.8666	1610.4791	4343.3	3463.25
899.0088	1612.2394	4519.75	3637.5
899.1511	1613.9988	4699.25	3816.75
899.2933	1615.7576	4920.75	4040.95
899.4355	1617.5156	5161.8	4276.2
899.5776	1619.2728	5419.2	4539.85
899.7198	1621.0293	5594.75	4715.3
899.862	1622.785	5689.3	4802.3
900.0041	1624.54	5659.3	4776.75
900.1462	1626.2942	5526.4	4642.65
900.2883	1628.0477	5291.75	4408.05
900.4304	1629.8005	5058.95	4175.25
900.5725	1631.5525	4796.35	3916.75
900.7145	1633.3037	4614.85	3732.2
900.8566	1635.0542	4428.4	3546.25
900.9986	1636.804	4310.05	3428.6
901.1406	1638.553	4268.55	3309.9
901.2826	1640.3013	4153.2	3272.85
901.4245	1642.0488	4096.8	3215.55
901.5665	1643.7955	4097.3	3215.55
901.7085	1645.5416	4101	3220.9
901.8504	1647.2868	4148.75	3270.5
901.9923	1649.0313	4233.2	3353.2
902.1342	1650.7751	4381.7	3496.05
902.2761	1652.5181	4556.95	3676.4
902.4179	1654.2604	4800.1	3918
902.5598	1656.0019	5126.45	4247.35
902.7016	1657.7427	5481.75	4601.75
902.8434	1659.4828	5858.55	4978.65
902.9852	1661.222	6103.5	5222.2
903.127	1662.9606	6160.45	5278.3
903.2687	1664.6984	6027.55	5147.1
903.4105	1666.4354	5683.55	4802.55
903.5522	1668.1717	5254.9	4374.1
903.6939	1669.9072	4815.05	3933.95
903.8356	1671.642	4442.75	3560.65
903.9773	1673.3761	4131.4	3254.15
904.119	1675.1094	3896.75	3017.7
904.2606	1676.8419	3729.85	2849.4
904.4022	1678.5737	3598.4	2719.25
904.5439	1680.3048	3508.35	2629
904.6855	1682.0351	3421.15	2540.85
904.827	1683.7646	3366.15	2481.8
904.9686	1685.4934	3318.75	2439
905.1101	1687.2215	3288.85	2409.05
905.2517	1688.9488	3254.5	2372.8
905.3932	1690.6754	3210.5	2331.6
905.5347	1692.4012	3200.7	2323.45
905.6761	1694.1263	3189.35	2310.35
905.8176	1695.8506	3163.75	2283.2
905.9591	1697.5742	3145.5	2265.4
906.1005	1699.297	3127.6	2246
906.2419	1701.0191	3106.6	2225.65
906.3833	1702.7404	3081.15	2201.2
906.5246	1704.461	3075.65	2194
906.666	1706.1808	3046.75	2166.15
906.8073	1707.8999	3049.3	2169.25
906.9487	1709.6182	3024.6	2144.2
907.09	1711.3358	3028.4	2145.75
907.2313	1713.0527	3005.6	2127.2
907.3725	1714.7688	2984.7	2098.75
907.5138	1716.4841	2989.2	2109.2
907.655	1718.1987	2970.55	2085.65
907.7962	1719.9126	2965.9	2085.25
907.9374	1721.6257	2959.55	2075.7
908.0786	1723.338	2945.85	2062.9
908.2198	1725.0496	2923.6	2043.45
908.3609	1726.7605	2904.65	2026.3
908.502	1728.4706	2906.1	2022.65
908.6431	1730.18	2891.3	2007.35
908.7842	1731.8886	2879.4	1999.95
908.9253	1733.5964	2875.85	1990.05
909.0664	1735.3036	2876.8	1994.1
909.2074	1737.0099	2867.55	1984.75
909.3484	1738.7156	2856.7	1977.45
909.4894	1740.4204	2843.6	1960.85
909.6304	1742.1246	2843.95	1960.7
909.7714	1743.8279	2835.85	1957.65
909.9123	1745.5306	2842.45	1961.45
910.0532	1747.2325	2831.75	1949.6
910.1941	1748.9336	2815.3	1935.65
910.335	1750.634	2804.2	1921.6
910.4759	1752.3336	2800	1920.2
910.6168	1754.0325	2792.85	1912.65
910.7576	1755.7307	2782.75	1903.9
910.8984	1757.4281	2782.45	1904.05
911.0392	1759.1247	2781.75	1889.95
911.18	1760.8206	2771.6	1889
911.3208	1762.5158	2770.9	1887.7
911.4615	1764.2102	2760.05	1881.85
911.6022	1765.9039	2751.3	1871.45
911.7429	1767.5968	2746.3	1865.1
911.8836	1769.289	2741.9	1863.25
912.0243	1770.9804	2737.95	1857.9
912.1649	1772.6711	2739.5	1857.6
912.3056	1774.361	2724.15	1841.85
912.4462	1776.0502	2720.85	1840.2
912.5868	1777.7386	2717	1835.75
912.7274	1779.4263	2720.75	1841.15
912.8679	1781.1132	2720.5	1840.25
913.0084	1782.7994	2699.8	1816.55
913.149	1784.4849	2698.5	1818.1
913.2895	1786.1696	2708.55	1809.3
913.4299	1787.8535	2679.25	1800
913.5704	1789.5367	2683.35	1804.75
913.7108	1791.2192	2681.55	1801.55
913.8513	1792.9009	2689.3	1780.4
913.9917	1794.5818	2661.8	1782.05
914.132	1796.2621	2657.15	1778
914.2724	1797.9415	2661.15	1781
914.4128	1799.6202	2643.45	1763.15
914.5531	1801.2982	2637.8	1759
914.6934	1802.9755	2640.8	1760.3
914.8337	1804.6519	2638.5	1758.65
914.9739	1806.3277	2628.75	1749.15
915.1142	1808.0027	2625.95	1747.95
915.2544	1809.6769	2619.1	1739.3
915.3946	1811.3504	2610.4	1729.3
915.5348	1813.0231	2620	1738.9
915.675	1814.6951	2611.05	1728.65
915.8151	1816.3664	2615.95	1733.4
915.9553	1818.0369	2605.6	1725.45
916.0954	1819.7067	2592.3	1713.55
916.2355	1821.3757	2601.05	1718.6
916.3755	1823.044	2593.75	1714.1
916.5156	1824.7115	2591.3	1710.25
916.6556	1826.3783	2582.4	1703.6
916.7956	1828.0443	2577.4	1700.35
916.9356	1829.7096	2575.7	1695.65
917.0756	1831.3741	2571.05	1687.1
917.2155	1833.0379	2554.65	1673.85
917.3555	1834.701	2572.35	1689.85
917.4954	1836.3633	2551.9	1671.75
917.6353	1838.0248	2542.3	1659.25
917.7751	1839.6856	2546.05	1666.55
917.915	1841.3457	2551.55	1671.05
918.0548	1843.005	2541.1	1660.35
918.1946	1844.6636	2537.2	1659.45
918.3344	1846.3214	2537.4	1656.8
918.4742	1847.9785	2541	1662.25
918.6139	1849.6349	2535.55	1653.3
918.7537	1851.2904	2540.1	1650.25
918.8934	1852.9453	2519.5	1639.1
919.0331	1854.5994	2520.55	1637.35
919.1727	1856.2528	2526.25	1640.1
919.3124	1857.9054	2501.8	1620.1
919.452	1859.5572	2506.25	1628.05
919.5916	1861.2083	2513.65	1633.75
919.7312	1862.8587	2490.2	1610.5
919.8708	1864.5084	2500.75	1621.5
920.0103	1866.1572	2500.95	1621.3
920.1498	1867.8054	2484.6	1605.05
920.2893	1869.4528	2479.15	1598.3
920.4288	1871.0994	2473.1	1592.9
920.5683	1872.7453	2463.25	1583.45
920.7077	1874.3905	2484.6	1585.25
920.8471	1876.0349	2458.1	1579.9
920.9865	1877.6786	2455.95	1575.25
921.1259	1879.3215	2463.4	1583.95
921.2653	1880.9637	2450.5	1570.25
921.4046	1882.6051	2452.55	1573
921.5439	1884.2458	2445.05	1562
921.6832	1885.8858	2436.6	1555.9
921.8225	1887.525	2427.35	1546.75
921.9617	1889.1634	2422.05	1544.15
922.101	1890.8011	2422.05	1542.8
922.2402	1892.4381	2418.1	1539.15
922.3794	1894.0743	2412.8	1533.25
922.5185	1895.7098	2405.2	1524.45
922.6577	1897.3446	2409.05	1528.25
922.7968	1898.9786	2405.05	1519.85
922.9359	1900.6118	2397.05	1518.35
923.075	1902.2443	2398.25	1514.05
923.214	1903.8761	2385.45	1504.95
923.3531	1905.5071	2389.9	1508.6
923.4921	1907.1374	2377.25	1496.35
923.6311	1908.7669	2370.6	1492.45
923.77	1910.3957	2364.1	1482.9
923.909	1912.0237	2360	1480.9
924.0479	1913.651	2349.9	1469.2
924.1868	1915.2776	2348.6	1471.1
924.3257	1916.9034	2346.2	1467.1
924.4646	1918.5285	2347.95	1470.95
924.6034	1920.1528	2337.75	1458
924.7422	1921.7764	2339.25	1460.5
924.881	1923.3992	2331.75	1453.15
925.0198	1925.0213	2324.5	1444.6
925.1586	1926.6427	2323.45	1445.5
925.2973	1928.2633	2372.3	1416.35
925.436	1929.8832	2316.3	1435.1
925.5747	1931.5023	2311.05	1432.3
925.7134	1933.1207	2306.8	1426.75
925.852	1934.7383	2302.1	1421.35
925.9906	1936.3552	2284.15	1404.55
926.1292	1937.9714	2293.6	1413.8
926.2678	1939.5868	2287.15	1406.6
926.4064	1941.2015	2276.75	1396.25
926.5449	1942.8154	2271.8	1389.9
926.6834	1944.4286	2268.9	1388.6
926.8219	1946.041	2272.65	1370.85
926.9604	1947.6528	2262.45	1376.9
927.0988	1949.2637	2246.25	1365.55
927.2372	1950.8739	2238.95	1358.6
927.3756	1952.4834	2245.35	1363.75
927.514	1954.0921	2238.75	1359.25
927.6523	1955.7001	2239.9	1355
927.7907	1957.3074	2222.45	1342.35
927.929	1958.9139	2227.6	1348.7
928.0673	1960.5197	2218.55	1336.7
928.2055	1962.1247	2216.8	1335.85
928.3438	1963.729	2201.05	1323.45
928.482	1965.3325	2220.5	1316.65
928.6202	1966.9353	2186.9	1305.95
928.7584	1968.5374	2183	1301.9
928.8965	1970.1387	2194.8	1313.5
929.0346	1971.7393	2171.95	1290.9
929.1727	1973.3392	2181.05	1299.65
929.3108	1974.9383	2176.25	1296.55
929.4489	1976.5366	2168.3	1287.2
929.5869	1978.1342	2161.4	1280.2
929.7249	1979.7311	2168.3	1285.65
929.8629	1981.3273	2160.3	1280.5
930.0009	1982.9227	2152.75	1270.3
930.1388	1984.5173	2145.05	1266.15
930.2767	1986.1112	2140.15	1260
930.4146	1987.7044	2143.9	1265.15
930.5525	1989.2968	2133.35	1251.6
930.6904	1990.8885	2148.7	1263.35
930.8282	1992.4795	2134.45	1252.55
930.966	1994.0697	2129.3	1249.35
931.1038	1995.6592	2127.6	1245.8
931.2415	1997.2479	2114.55	1234.45
931.3793	1998.8359	2115.1	1236.95
931.517	2000.4232	2115.75	1237.85
931.6547	2002.0097	2112.65	1234.95
931.7923	2003.5955	2096.95	1217.45
931.93	2005.1805	2110.1	1228.4
932.0676	2006.7648	2099.35	1217.75
932.2052	2008.3484	2096.3	1215.5
932.3427	2009.9312	2100	1217.95
932.4803	2011.5133	2089.8	1209.75
932.6178	2013.0946	2092.05	1212.55
932.7553	2014.6752	2090.15	1210.95
932.8928	2016.2551	2090.9	1207.65
933.0302	2017.8342	2069.65	1189.8
933.1676	2019.4126	2073.15	1191.8
933.305	2020.9902	2070	1192.5
933.4424	2022.5672	2067.85	1184.05
933.5798	2024.1433	2076.25	1190.6
933.7171	2025.7188	2049.3	1168.95
933.8544	2027.2935	2052.15	1170.35
933.9917	2028.8674	2049.45	1169.25
934.129	2030.4406	2052.2	1171.65
934.2662	2032.0131	2044.85	1164.9
934.4034	2033.5849	2045.5	1158.5
934.5406	2035.1559	2039.85	1160.1
934.6778	2036.7261	2035.2	1154.15
934.8149	2038.2957	2033.75	1153.55
934.952	2039.8645	2024.3	1142.7
935.0891	2041.4325	2027.7	1144.75
935.2262	2042.9998	2021.8	1142.05
935.3632	2044.5664	2021.5	1137.25
935.5002	2046.1323	2019.05	1136.45
935.6372	2047.6974	2013.4	1132.15
935.7742	2049.2617	2003.25	1119.5
935.9111	2050.8254	2008.4	1120.7
936.048	2052.3883	2008.1	1122.15
936.1849	2053.9504	2001.25	1112.7
936.3218	2055.5118	1998.15	1108.2
936.4586	2057.0725	1996.05	1102.65
936.5955	2058.6325	1996.9	1103.45
936.7323	2060.1917	1983.75	1089.95
936.869	2061.7502	1994.05	1094.95
937.0058	2063.3079	1980.1	1083.85
937.1425	2064.8649	1982.1	1085.8
937.2792	2066.4212	1980.45	1088
937.4159	2067.9767	1984.25	1093.55
937.5525	2069.5315	1978.05	1092.7
937.6891	2071.0856	1954.8	1067.85
937.8257	2072.6389	1954.3	1069.6
937.9623	2074.1915	1949.55	1067.6
938.0989	2075.7433	1943.45	1058.1
938.2354	2077.2945	1953.65	1072.55
938.3719	2078.8448	1938.85	1056.55
938.5084	2080.3945	1946.25	1065.35
938.6448	2081.9434	1931.7	1048.75
938.7812	2083.4916	1931.75	1045.7
938.9176	2085.039	1933.75	1047.15
939.054	2086.5857	1926.5	1037.3
939.1903	2088.1317	1919.55	1033.75
939.3267	2089.677	1920.6	1034.1
939.463	2091.2215	1916.8	1032.55
939.5992	2092.7652	1922	1036.4
939.7355	2094.3083	1913.55	1030.05
939.8717	2095.8506	1911.95	1030.25
940.0079	2097.3921	1910.55	1029.2
940.1441	2098.933	1910.15	1031.05
940.2802	2100.4731	1907.9	1026.7
940.4163	2102.0124	1911	1021.7
940.5524	2103.5511	1899.75	1019.3
940.6885	2105.089	1904.65	1025.4
940.8245	2106.6261	1885.9	1005.45
940.9606	2108.1626	1893.85	1012.35
941.0965	2109.6983	1923.85	1013.7
941.2325	2111.2332	1894.5	1013.45
941.3684	2112.7675	1884.25	1001.45
941.5044	2114.301	1889.95	1008.75
941.6403	2115.8337	1885.1	1004.85
941.7761	2117.3657	1876.45	997
941.912	2118.897	1873.95	991.55
942.0478	2120.4276	1875.15	989.65
942.1835	2121.9575	1869.85	989.8
942.3193	2123.4866	1877.15	982.2
942.455	2125.0149	1869.15	985.4
942.5907	2126.5426	1865.9	985.3
942.7264	2128.0695	1862.5	976.8
942.8621	2129.5956	1855.65	975.35
942.9977	2131.1211	1860.25	977.75
943.1333	2132.6458	1848.75	969
943.2689	2134.1698	1858.6	978.35
943.4044	2135.693	1847	963.5
943.54	2137.2155	1851.75	969.65
943.6755	2138.7373	1835.55	954.2
943.8109	2140.2584	1843.25	963.55
943.9464	2141.7787	1857.6	970.1
944.0818	2143.2983	1831.3	953.4
944.2172	2144.8171	1827.2	947.95
944.3526	2146.3353	1829.7	947.8
944.4879	2147.8527	1830.85	951.9
944.6232	2149.3693	1824.6	943.25
944.7585	2150.8853	1831	949.8
944.8938	2152.4005	1816.35	934
945.029	2153.9149	1809.55	928.95
945.1642	2155.4287	1821.4	942.65
945.2994	2156.9417	1802.05	918.7
945.4346	2158.454	1815.85	932.15
945.5697	2159.9655	1808.85	926.4
945.7048	2161.4764	1810.9	930.25
945.8399	2162.9865	1808.35	927.1
945.9749	2164.4958	1803.8	920.9
946.1099	2166.0045	1789.6	904.45
946.2449	2167.5124	1786.1	905.5
946.3799	2169.0195	1797.1	917.6
946.5148	2170.526	1790.9	909.25
946.6498	2172.0317	1789.5	908
946.7846	2173.5367	1791	909.65
946.9195	2175.0409	1790.1	908.8
947.0543	2176.5445	1787.7	911.35
947.1891	2178.0473	1783.5	905.2
947.3239	2179.5494	1775.25	892
947.4587	2181.0507	1779.2	898.75
947.5934	2182.5513	1776.15	893.8
947.7281	2184.0512	1772.35	893
947.8628	2185.5504	1767.65	887.45
947.9974	2187.0488	1763.5	881.4
948.132	2188.5465	1766.05	887.75
948.2666	2190.0435	1768.3	886.15
948.4012	2191.5397	1758.8	879.6
948.5357	2193.0353	1754.05	874.6
948.6702	2194.5301	1750.5	868.45
948.8047	2196.0241	1748.85	867.5
948.9392	2197.5175	1753.8	874.65
949.0736	2199.0101	1751.85	867.7
949.208	2200.502	1751.6	872.45
949.3424	2201.9931	1736.3	854.6
949.4767	2203.4835	1736.7	855.65
949.611	2204.9733	1734.9	846.3
949.7453	2206.4622	1731.85	851.4
949.8796	2207.9505	1727.2	843.5
950.0138	2209.438	1728.7	849.65
950.148	2210.9248	1724.55	843.85
950.2822	2212.4109	1719.05	838.95
950.4164	2213.8962	1720	836.55
950.5505	2215.3809	1719.95	841.4
950.6846	2216.8648	1715.65	834.85
950.8186	2218.3479	1712.2	829.75
950.9527	2219.8304	1721	838.1
951.0867	2221.3121	1707.5	824
951.2207	2222.7931	1703.05	825
951.3546	2224.2733	1700.5	818.95
951.4886	2225.7529	1695.45	813.35
951.6225	2227.2317	1691.3	807.65
951.7563	2228.7098	1682.05	801.65
951.8902	2230.1872	1691.7	812.1
952.024	2231.6638	1680.6	797.95
952.1578	2233.1397	1687.65	803.2
952.2916	2234.6149	1683.55	803.25
952.4253	2236.0894	1672.95	788.5
952.559	2237.5632	1680.9	799.45
952.6927	2239.0362	1678.7	797.55
952.8263	2240.5085	1675	792.35
952.9599	2241.9801	1673.9	793
953.0935	2243.4509	1662.65	782.8
953.2271	2244.921	1659.85	780.75
953.3606	2246.3904	1654.05	772.25
953.4941	2247.8591	1651.35	770.55
953.6276	2249.3271	1645.55	766.95
953.7611	2250.7943	1646.6	765.8
953.8945	2252.2608	1646.5	765.1
954.0279	2253.7266	1642.8	762.7
954.1612	2255.1917	1653.85	773.95
954.2946	2256.656	1639.05	757.35
954.4279	2258.1197	1637.75	757.8
954.5612	2259.5826	1643.85	760.95
954.6944	2261.0447	1640.45	759.15
954.8276	2262.5062	1644.8	761.45
954.9608	2263.9669	1632.05	750.65
955.094	2265.4269	1625.25	748.1
955.2271	2266.8862	1630.35	749.7
955.3602	2268.3448	1629.3	748.45
955.4933	2269.8026	1638.05	756.2
955.6264	2271.2598	1631.85	751
955.7594	2272.7162	1624.1	743.1
955.8924	2274.1719	1616.35	736.2
956.0253	2275.6268	1619.2	737.4
956.1583	2277.0811	1620.65	740.85
956.2912	2278.5346	1613.85	732.75
956.4241	2279.9874	1617.5	739.65
956.5569	2281.4395	1617.05	737.05
956.6897	2282.8908	1602.55	718.75
956.8225	2284.3414	1607.05	723.25
956.9553	2285.7914	1606.7	728.35
957.088	2287.2406	1606.9	725.3
957.2207	2288.689	1611.8	732.2
957.3534	2290.1368	1599.45	716.9
957.486	2291.5838	1599.55	718.4
957.6186	2293.0302	1586.8	705.8
957.7512	2294.4758	1590.4	709.35
957.8838	2295.9206	1591	706.9
958.0163	2297.3648	1587.75	709
958.1488	2298.8082	1593.2	711.75
958.2813	2300.251	1594.95	714.75
958.4137	2301.693	1587.25	704.65
958.5461	2303.1343	1588.3	706.8
958.6785	2304.5748	1583.7	703.9
958.8108	2306.0147	1585.7	702.9
958.9432	2307.4538	1588.8	707.55
959.0754	2308.8922	1569.7	689.5
959.2077	2310.3299	1569.3	689.45
959.3399	2311.7669	1575.55	696.9
959.4721	2313.2031	1571.4	690.8
959.6043	2314.6387	1559.2	680.15
959.7365	2316.0735	1561.05	679.8
959.8686	2317.5076	1559.85	677.6
960.0006	2318.941	1556.9	678.1
960.1327	2320.3737	1553.15	671.4
960.2647	2321.8056	1564	682.05
960.3967	2323.2369	1561.4	680.3
960.5287	2324.6674	1555.2	672.8
960.6606	2326.0972	1550.7	668.45
960.7925	2327.5263	1547.8	666.5
960.9244	2328.9547	1546.3	666.85
961.0562	2330.3823	1548.5	668.55
961.1881	2331.8092	1554.45	669.4
961.3198	2333.2355	1540.7	661.1
961.4516	2334.661	1539.15	658.05
961.5833	2336.0858	1542.15	659.75
961.715	2337.5098	1536.5	656.8
961.8467	2338.9332	1538.35	656.1
961.9783	2340.3558	1537.8	654.65
962.1099	2341.7778	1530.05	651.05
962.2415	2343.199	1528.6	645.6
962.373	2344.6195	1531.9	652.7
962.5045	2346.0393	1531.15	651.6
962.636	2347.4583	1535.25	654.25
962.7675	2348.8767	1531.6	651.6
962.8989	2350.2943	1530	648.15
963.0303	2351.7113	1528.55	646.45
963.1617	2353.1275	1530.5	648.95
963.293	2354.543	1548.4	644.55
963.4243	2355.9578	1532.5	652.4
963.5556	2357.3718	1519.4	636.65
963.6868	2358.7852	1520	636.35
963.818	2360.1978	1522.95	642.05
963.9492	2361.6098	1517.7	637.85
964.0803	2363.021	1520.3	636.15
964.2114	2364.4315	1516.75	638.1
964.3425	2365.8413	1513.45	628
964.4736	2367.2504	1505.3	624.85
964.6046	2368.6587	1511.85	632.65
964.7356	2370.0664	1497.15	618.75
964.8666	2371.4733	1497.6	618
964.9975	2372.8795	1494.8	615.55
965.1284	2374.285	1487.9	607.15
965.2593	2375.6899	1497.5	621.25
965.3901	2377.0939	1493	613
965.5209	2378.4973	1489	609.1
965.6517	2379.9	1485.15	604.95
965.7825	2381.3019	1480.35	602
965.9132	2382.7032	1492.95	614.45
966.0439	2384.1037	1482.95	605.35
966.1745	2385.5035	1476.45	595.25
966.3051	2386.9027	1483.9	605.95
966.4357	2388.3011	1483.9	601.4
966.5663	2389.6987	1476.05	596.1
966.6968	2391.0957	1468.4	588.15
966.8273	2392.492	1475.8	597.4
966.9578	2393.8876	1473.6	592
967.0882	2395.2824	1461.45	582.1
967.2186	2396.6765	1456.5	578.95
967.349	2398.07	1456.2	577.95
967.4793	2399.4627	1464.2	583.65
967.6097	2400.8547	1456.9	581.45
967.7399	2402.246	1465.35	578.4
967.8702	2403.6366	1461	583.35
968.0004	2405.0265	1452.1	571.35
968.1306	2406.4156	1464.5	580.2
968.2607	2407.8041	1450.65	566.85
968.3909	2409.1918	1452.65	570.8
968.521	2410.5789	1454.9	574.85
968.651	2411.9652	1445.05	562.2
968.781	2413.3508	1443.6	565.3
968.911	2414.7358	1440.75	560.25
969.041	2416.12	1447.25	568.8
969.1709	2417.5035	1445.5	564.75
969.3008	2418.8863	1446.3	566.2
969.4307	2420.2684	1437.7	558.9
969.5606	2421.6497	1438.1	557.3
969.6904	2423.0304	1433.65	554.55
969.8201	2424.4104	1436.6	556.4
969.9499	2425.7896	1441.85	554.5
970.0796	2427.1682	1430.3	550.9
970.2093	2428.546	1432.65	550.45
970.3389	2429.9232	1419.25	538.55
970.4685	2431.2996	1430.3	549.75
970.5981	2432.6753	1435.4	556.4
970.7277	2434.0503	1423.45	544.9
970.8572	2435.4246	1425.4	546.2
970.9867	2436.7982	1419.9	539.65
971.1161	2438.1711	1419.95	540.55
971.2456	2439.5433	1414.55	532.75
971.375	2440.9148	1417.8	533.25
971.5043	2442.2856	1415.7	537.55
971.6336	2443.6557	1411.6	529.1
971.7629	2445.025	1405.3	524.85
971.8922	2446.3937	1406.85	525.1
972.0214	2447.7617	1412.7	531.65
972.1506	2449.1289	1408.75	528.6
972.2798	2450.4955	1406.85	522.25
972.4089	2451.8613	1407.5	529.8
972.538	2453.2265	1406.8	528.15
972.6671	2454.5909	1400.3	520.65
972.7961	2455.9546	1404.05	523.95
972.9251	2457.3177	1399.5	519.85
973.0541	2458.68	1402.95	521.2
973.1831	2460.0416	1402.1	521.45
973.312	2461.4025	1401.25	517.35
973.4408	2462.7627	1411.75	520.5
973.5697	2464.1222	1408.45	530.45
973.6985	2465.4811	1401	519.75
973.8273	2466.8392	1395.95	515.15
973.956	2468.1966	1397.2	515.35
974.0847	2469.5533	1399.85	516.75
974.2134	2470.9093	1392.9	514.6
974.3421	2472.2645	1399.9	517.2
974.4707	2473.6191	1393.85	515.15
974.5993	2474.973	1396	514
974.7278	2476.3262	1393.15	512.55
974.8563	2477.6787	1387.6	507.7
974.9848	2479.0305	1387.5	506.55
975.1132	2480.3816	1383.75	502.65
975.2417	2481.7319	1384.2	505
975.37	2483.0816	1388.95	507.6
975.4984	2484.4306	1386.15	504.75
975.6267	2485.7789	1389.4	510.45
975.755	2487.1264	1382.8	500.9
975.8833	2488.4733	1373.6	492.9
976.0115	2489.8195	1401.05	502.5
976.1397	2491.165	1383.05	501.15
976.2678	2492.5097	1373.95	492.25
976.3959	2493.8538	1361.8	482.1
976.524	2495.1972	1368.9	489.65
976.6521	2496.5398	1365.25	484.05
976.7801	2497.8818	1368.15	486.7
976.9081	2499.2231	1364.9	484.25
977.036	2500.5637	1356.45	476.4
977.164	2501.9035	1363.95	482.75
977.2918	2503.2427	1371.1	487.6
977.4197	2504.5812	1359.65	481.7
977.5475	2505.919	1363.9	482.75
977.6753	2507.256	1360.05	480.4
977.8031	2508.5924	1362.5	482.9
977.9308	2509.9281	1360.9	475.55
978.0585	2511.2631	1352.65	473.6
978.1861	2512.5974	1354.05	473.2
978.3137	2513.9309	1357.75	476.6
978.4413	2515.2638	1375.6	466.95
978.5689	2516.596	1356.25	476.35
978.6964	2517.9275	1350.05	469.45
978.8239	2519.2583	1357.6	476.2
978.9513	2520.5884	1344.6	463.75
979.0788	2521.9178	1346.95	466.6
979.2062	2523.2465	1345.35	466.15
979.3335	2524.5745	1337.15	457.2
979.4608	2525.9018	1342.8	460.2
979.5881	2527.2284	1338	459.15
979.7154	2528.5543	1341.85	464.05
979.8426	2529.8796	1342.3	459.7
979.9698	2531.2041	1344.9	466.3
980.0969	2532.5279	1338.5	460.2
980.224	2533.851	1342.45	460.8
980.3511	2535.1735	1336.75	458.05
980.4781	2536.4952	1334.55	453.1
980.6052	2537.8163	1332.65	453
980.7321	2539.1366	1336	455.7
980.8591	2540.4562	1339.4	458.7
980.986	2541.7752	1336.3	456.85
981.1129	2543.0935	1331.3	449.15
981.2397	2544.411	1330.1	449.4
981.3665	2545.7279	1329.9	451.2
981.4933	2547.0441	1327.4	447.4
981.62	2548.3596	1333.55	452.45
981.7467	2549.6744	1325.2	446.15
981.8734	2550.9885	1320.85	438.55
982.0001	2552.3019	1322.7	446.7
982.1267	2553.6146	1321.1	439.85
982.2532	2554.9266	1317.65	436.95
982.3798	2556.2379	1321.85	441.2
982.5063	2557.5485	1320.05	441.6
982.6327	2558.8585	1320.85	433.4
982.7592	2560.1677	1326.05	441.8
982.8856	2561.4762	1313.8	433.55
983.0119	2562.7841	1320.2	436.9
983.1383	2564.0913	1317	436.35
983.2646	2565.3977	1309.75	429.1
983.3908	2566.7035	1311.85	431.7
983.517	2568.0086	1310.25	429.8
983.6432	2569.313	1312.45	431.35
983.7694	2570.6167	1313.35	430.9
983.8955	2571.9197	1309.45	431.75
984.0216	2573.222	1308.9	425.6
984.1476	2574.5236	1311.8	429.8
984.2737	2575.8246	1305.05	425.05
984.3996	2577.1248	1313.15	428.05
984.5256	2578.4244	1309.95	432.55
984.6515	2579.7232	1312.3	430.95
984.7774	2581.0214	1341.7	431.7
984.9032	2582.3189	1313.45	431.05
985.029	2583.6157	1318.7	433.35
985.1548	2584.9118	1310.8	430.85
985.2806	2586.2072	1319.05	436.8
985.4063	2587.5019	1319.3	439.6
985.5319	2588.7959	1316.45	434.95
985.6576	2590.0893	1321.45	439.75
985.7832	2591.3819	1318.95	438.6
985.9087	2592.6739	1317.6	437.35
986.0343	2593.9652	1328.2	447.75
986.1597	2595.2557	1321.55	442.45
986.2852	2596.5456	1333.4	451.2
986.4106	2597.8348	1327.55	448.75
986.536	2599.1234	1334.3	454.25
986.6614	2600.4112	1328.5	449.9
986.7867	2601.6983	1331.15	447.95
986.912	2602.9848	1332.55	451.45
987.0372	2604.2705	1338	452.3
987.1624	2605.5556	1328.25	448.7
987.2876	2606.84	1324.2	443.1
987.4128	2608.1237	1334.85	453.95
987.5379	2609.4067	1320.6	441.15
987.6629	2610.689	1337.65	449.25
987.788	2611.9707	1331.55	448.1
987.913	2613.2516	1329.5	445.6
988.0379	2614.5319	1320.7	442.2
988.1629	2615.8115	1318.85	437.7
988.2878	2617.0903	1320.9	439.3
988.4126	2618.3685	1333.35	453.05
988.5375	2619.6461	1322	439.05
988.6622	2620.9229	1326.95	448.55
988.787	2622.199	1322.35	439.85
988.9117	2623.4745	1325.6	443.55
989.0364	2624.7493	1322.1	442.6
989.161	2626.0234	1317.15	438.75
989.2857	2627.2968	1332.8	454.3
989.4102	2628.5695	1321	438.6
989.5348	2629.8415	1319.75	440.35
989.6593	2631.1128	1324.05	442.95
989.7837	2632.3835	1318.65	439.5
989.9082	2633.6535	1319.85	440.35
990.0326	2634.9228	1328.7	448.95
990.1569	2636.1914	1323.85	444
990.2812	2637.4593	1327.5	443.6
990.4055	2638.7265	1323.15	442.5
990.5298	2639.9931	1326.55	446
990.654	2641.259	1316.05	434.15
990.7782	2642.5242	1312.75	432.45
990.9023	2643.7887	1313.6	432.6
991.0264	2645.0525	1309.15	428.85
991.1505	2646.3156	1310.95	429.95
991.2745	2647.5781	1304.9	425.65
991.3985	2648.8398	1308.95	429.25
991.5225	2650.1009	1316.3	428
991.6464	2651.3613	1311.5	430.8
991.7703	2652.6211	1312.7	431.5
991.8942	2653.8801	1306.9	425.45
992.018	2655.1385	1303.05	419.5
992.1418	2656.3961	1304.75	424.85
992.2655	2657.6531	1301.3	420.1
992.3892	2658.9094	1313.8	433.6
992.5129	2660.1651	1309.55	430.7
992.6366	2661.42	1310.45	429.7
992.7602	2662.6743	1313.2	435
992.8837	2663.9279	1317.75	436.55
993.0073	2665.1808	1312.5	432.3
993.1307	2666.433	1322.6	440.85
993.2542	2667.6846	1320.4	439.05
993.3776	2668.9354	1326.55	443.4
993.501	2670.1856	1325.4	442.95
993.6244	2671.4351	1323.75	443.4
993.7477	2672.6839	1332.65	453.05
993.8709	2673.9321	1332	452.15
993.9942	2675.1795	1331.05	451
994.1174	2676.4263	1339.6	459.75
994.2405	2677.6724	1338.45	459.05
994.3637	2678.9179	1342	461.85
994.4868	2680.1626	1345.1	466.95
994.6098	2681.4067	1336.3	455.85
994.7328	2682.6501	1342.15	461.3
994.8558	2683.8928	1341.05	459.5
994.9788	2685.1348	1341.4	461.05
995.1017	2686.3761	1334.4	451.85
995.2245	2687.6168	1333.2	453.15
995.3474	2688.8568	1325	444.5
995.4702	2690.0961	1322	442.35
995.5929	2691.3348	1324.7	442.85
995.7156	2692.5727	1323.6	443.1
995.8383	2693.81	1319.8	440.85
995.961	2695.0466	1317.4	438.8
996.0836	2696.2826	1323.25	440.9
996.2062	2697.5178	1324.8	441.35
996.3287	2698.7524	1315.5	432.75
996.4512	2699.9863	1321.7	438.9
996.5737	2701.2195	1318.9	440.55
996.6961	2702.452	1329.25	447.3
996.8185	2703.6839	1323.9	442.2
996.9408	2704.9151	1336.2	456.15
997.0631	2706.1456	1334.1	452.75
997.1854	2707.3755	1348.15	465.25
997.3077	2708.6046	1357.35	473
997.4299	2709.8331	1365.15	485.95
997.552	2711.0609	1369.65	488.65
997.6742	2712.2881	1383.75	502.4
997.7963	2713.5145	1383.4	500.7
997.9183	2714.7403	1397.05	517.15
998.0403	2715.9654	1402.95	521.35
998.1623	2717.1899	1439.8	543.4
998.2842	2718.4136	1431.3	550.05
998.4062	2719.6367	1447.85	567.1
998.528	2720.8591	1457.55	568.5
998.6498	2722.0809	1469.55	588.35
998.7716	2723.3019	1478.95	594.1
998.8934	2724.5223	1489.9	611.2
999.0151	2725.7421	1502.65	621.9
999.1368	2726.9611	1499.25	616.3
999.2584	2728.1795	1495.3	609.9
999.38	2729.3972	1494.95	614.75
999.5016	2730.6142	1493	601.05
999.6231	2731.8306	1473.75	592.7
999.7446	2733.0462	1462	578.25
999.8661	2734.2612	1438.75	553.9
999.9875	2735.4756	1423.45	542.7
1000.1089	2736.6892	1412.45	531.05
1000.2302	2737.9022	1396.15	517.65
1000.3515	2739.1145	1378.1	498.6
1000.4728	2740.3262	1372.65	484.7
1000.594	2741.5372	1353.15	473.75
1000.7152	2742.7475	1344.05	462.8
1000.8363	2743.9571	1334.7	453.3
1000.9575	2745.1661	1327.4	440.05
1001.0785	2746.3744	1311.8	428.95
1001.1996	2747.582	1310.05	431.6
1001.3206	2748.7889	1293.1	409.25
1001.4415	2749.9952	1294.55	416.05
1001.5625	2751.2008	1284.65	401.8
1001.6833	2752.4057	1288.9	406.1
1001.8042	2753.61	1274.75	393.9
1001.925	2754.8136	1273.65	390.5
1002.0458	2756.0165	1278.8	398
1002.1665	2757.2188	1278.1	398.05
1002.2872	2758.4204	1277.2	395.9
1002.4078	2759.6213	1278.45	396.45
1002.5285	2760.8215	1282.75	393.4
1002.649	2762.0211	1280.55	396.8
1002.7696	2763.22	1276.4	391.2
1002.8901	2764.4182	1270	388.5
1003.0106	2765.6158	1270.9	389.9
1003.131	2766.8127	1265.6	384.45
1003.2514	2768.009	1265.65	387.15
1003.3717	2769.2045	1267.85	384.1
1003.492	2770.3994	1268.15	386.8
1003.6123	2771.5936	1257.4	373.15
1003.7325	2772.7872	1260.85	380.2
1003.8527	2773.9801	1263.3	381.05
1003.9729	2775.1723	1275.35	378.05
1004.093	2776.3639	1257.95	379.9
1004.2131	2777.5548	1265.6	381.85
1004.3331	2778.745	1269.25	385.5
1004.4531	2779.9346	1268.1	389.35
1004.5731	2781.1235	1273.8	391.35
1004.693	2782.3117	1271.3	389.85
1004.8129	2783.4992	1280.2	399.75
1004.9328	2784.6861	1279.7	398.85
1005.0526	2785.8723	1291.3	407.95
1005.1723	2787.0579	1297.3	417.55
1005.2921	2788.2428	1301.45	420.25
1005.4118	2789.427	1312	431.15
1005.5314	2790.6106	1320.2	439.4
1005.651	2791.7935	1340.45	459.45
1005.7706	2792.9757	1350.25	471
1005.8902	2794.1573	1363.35	481.35
1006.0097	2795.3382	1376.25	496.05
1006.1291	2796.5184	1398.7	518.6
1006.2485	2797.698	1416.7	534.45
1006.3679	2798.8769	1428.2	549.25
1006.4873	2800.0551	1452.75	570.55
1006.6066	2801.2327	1472.4	588.6
1006.7258	2802.4096	1485.2	605.3
1006.8451	2803.5859	1515.6	633.8
1006.9642	2804.7615	1539.2	658.05
1007.0834	2805.9364	1557.65	679.05
1007.2025	2807.1106	1594.45	714.25
1007.3216	2808.2842	1623.7	743.75
1007.4406	2809.4572	1655.2	773.85
1007.5596	2810.6294	1701.55	820.95
1007.6785	2811.801	1737.75	858.6
1007.7975	2812.972	1772.25	889.2
1007.9163	2814.1423	1828.45	947.8
1008.0352	2815.3119	1883.5	1001.9
1008.154	2816.4808	1930.15	1050.85
1008.2727	2817.6491	1972.55	1091.5
1008.3914	2818.8167	2023.9	1145.8
1008.5101	2819.9837	2081.6	1196.45
1008.6288	2821.15	2127.1	1247.75
1008.7474	2822.3157	2165.8	1285.55
1008.8659	2823.4807	2215.6	1335.1
1008.9844	2824.645	2267.85	1385.15
1009.1029	2825.8086	2294.5	1414.1
1009.2214	2826.9716	2346.05	1465.75
1009.3398	2828.134	2395.9	1516.2
1009.4581	2829.2957	2424.8	1544.45
1009.5764	2830.4567	2438.4	1558.95
1009.6947	2831.617	2474.1	1593.3
1009.813	2832.7767	2492.2	1614.25
1009.9312	2833.9358	2485.8	1606.9
1010.0493	2835.0941	2482.95	1598.9
1010.1675	2836.2519	2469.6	1589.7
1010.2855	2837.4089	2456.55	1574.6
1010.4036	2838.5653	2455.4	1575.2
1010.5216	2839.7211	2454.9	1576.1
1010.6396	2840.8761	2466.4	1583.9
1010.7575	2842.0306	2483.95	1605.85
1010.8754	2843.1843	2524.7	1644.85
1010.9932	2844.3374	2564.7	1683.55
1011.111	2845.4899	2637.2	1755.6
1011.2288	2846.6417	2702.65	1821.95
1011.3465	2847.7928	2763.3	1885.1
1011.4642	2848.9433	2843.45	1961.55
1011.5818	2850.0931	2944.55	2063.85
1011.6995	2851.2422	3027.75	2145.05
1011.817	2852.3907	3113	2230.15
1011.9345	2853.5385	3170.15	2286.2
1012.052	2854.6857	3259	2349.7
1012.1695	2855.8323	3297.7	2419.2
1012.2869	2856.9781	3334.35	2454.75
1012.4042	2858.1233	3393	2513
1012.5216	2859.2679	3437.05	2556.9
1012.6389	2860.4118	3490.75	2610.95
1012.7561	2861.555	3534.2	2649
1012.8733	2862.6976	3573	2690.6
1012.9905	2863.8395	3610.2	2729.75
1013.1076	2864.9808	3613.9	2733.45
1013.2247	2866.1214	3638	2757.15
1013.3417	2867.2614	3658.1	2777.35
1013.4587	2868.4007	3677.9	2795.6
1013.5757	2869.5393	3681.95	2799.15
1013.6926	2870.6773	3702.25	2819.4
1013.8095	2871.8146	3719.6	2836.45
1013.9263	2872.9513	3720.45	2840.2
1014.0431	2874.0874	3720	2840.25
1014.1599	2875.2227	3725.8	2843.5
1014.2766	2876.3574	3711	2831.6
1014.3933	2877.4915	3685.4	2803.8
1014.51	2878.6249	3657.25	2777
1014.6266	2879.7577	3626.4	2743.9
1014.7431	2880.8898	3607.15	2715.2
1014.8596	2882.0212	3594.7	2714.1
1014.9761	2883.152	3576.75	2694.4
1015.0925	2884.2821	3568	2690.25
1015.2089	2885.4116	3560.55	2679.85
1015.3253	2886.5405	3566.6	2686.05
1015.4416	2887.6686	3570.2	2687.5
1015.5579	2888.7962	3583.4	2702.95
1015.6741	2889.923	3570.6	2692.95
1015.7903	2891.0493	3601.55	2721.5
1015.9065	2892.1748	3596.55	2716.95
1016.0226	2893.2997	3628.45	2748.3
1016.1387	2894.424	3650.4	2771.65
1016.2547	2895.5476	3650	2768.15
1016.3707	2896.6706	3674.55	2794.35
1016.4866	2897.7929	3706.95	2825.8
1016.6025	2898.9145	3745.4	2865.45
1016.7184	2900.0355	3770.15	2890.35
1016.8342	2901.1559	3814.5	2933.05
1016.95	2902.2756	3830.8	2951.45
1017.0658	2903.3946	3893.15	3014.2
1017.1815	2904.513	3909.85	3026.55
1017.2971	2905.6308	3938.15	3060.3
1017.4127	2906.7479	3962.75	3080.95
1017.5283	2907.8643	3991.35	3109.6
1017.6439	2908.9801	3982.75	3101.85
1017.7594	2910.0953	4007.45	3128.8
1017.8748	2911.2098	4014.45	3129.85
1017.9902	2912.3236	4029.95	3141.25
1018.1056	2913.4368	4007.4	3123.4
1018.2209	2914.5494	3995	3114.15
1018.3362	2915.6613	3952.8	3065.95
1018.4515	2916.7725	3924.2	3042.95
1018.5667	2917.8831	3914.7	3033.75
1018.6819	2918.9931	3878.9	2995.45
1018.797	2920.1024	3845.55	2962.8
1018.9121	2921.211	3829.2	2948.4
1019.0271	2922.319	3813.65	2933.15
1019.1421	2923.4264	3788.35	2907.35
1019.2571	2924.5331	3773.85	2895.5
1019.372	2925.6391	3747.2	2866.5
1019.4869	2926.7445	3744.8	2866.6
1019.6017	2927.8493	3734.75	2855.25
1019.7165	2928.9534	3732.9	2853.25
1019.8313	2930.0569	3724.5	2842.55
1019.946	2931.1597	3729.4	2847.15
1020.0606	2932.2619	3720.2	2839.55
1020.1753	2933.3634	3701.5	2820.95
1020.2899	2934.4643	3713.7	2827.15
1020.4044	2935.5645	3673.65	2785
1020.5189	2936.6641	3620.55	2736.3
1020.6334	2937.763	3576.45	2696.65
1020.7478	2938.8613	3550.25	2669.45
1020.8622	2939.959	3486.9	2600.7
1020.9765	2941.056	3404.45	2525.95
1021.0908	2942.1523	3323	2442.05
1021.2051	2943.248	3232	2349.8
1021.3193	2944.3431	3135.95	2256.3
1021.4334	2945.4375	3025.7	2145
1021.5476	2946.5313	2936.75	2058.8
1021.6617	2947.6244	2827.55	1948.7
1021.7757	2948.7169	2717.1	1836.35
1021.8897	2949.8087	2613.2	1734.45
1022.0037	2950.8999	2531.95	1651.35
1022.1176	2951.9904	2437.7	1556.65
1022.2315	2953.0803	2357.15	1476.3
1022.3453	2954.1696	2287.65	1407.55
1022.4591	2955.2582	2231.35	1352.95
1022.5728	2956.3462	2198.2	1317.85
1022.6865	2957.4335	2149.75	1268.9
1022.8002	2958.5202	2115.1	1231.8
1022.9138	2959.6062	2079.95	1199.35
1023.0274	2960.6916	2050.35	1171.25
1023.141	2961.7764	2034.4	1153.9
1023.2545	2962.8605	2019.7	1139.25
1023.3679	2963.9439	2000.25	1119.4
1023.4813	2965.0267	1996.35	1114.3
1023.5947	2966.1089	2010.15	1105.65
1023.708	2967.1905	1978.4	1098.9
1023.8213	2968.2714	1973.6	1093.7
1023.9346	2969.3516	1972.95	1093.1
1024.0478	2970.4312	1982.85	1095.15
1024.1609	2971.5102	1965.35	1086.65
1024.274	2972.5885	1976.6	1097.95
1024.3871	2973.6662	1972.8	1086.6
1024.5002	2974.7432	1972.5	1094.9
1024.6132	2975.8196	1962.95	1083.9
1024.7261	2976.8954	1957.35	1076.15
1024.839	2977.9705	1942.6	1063.55
1024.9519	2979.045	1931.55	1052.8
1025.0647	2980.1188	1920.75	1040.75
1025.1775	2981.192	1899.65	1021.45
1025.2902	2982.2645	1870.7	990.05
1025.4029	2983.3364	1850.2	970.45
1025.5156	2984.4077	1825.8	944.55
1025.6282	2985.4783	1805.05	921
1025.7407	2986.5483	1761.45	881.6
1025.8532	2987.6177	1732.65	852.6
1025.9657	2988.6864	1692.65	814
1026.0782	2989.7545	1667.45	786
1026.1906	2990.8219	1617.2	735.85
1026.3029	2991.8887	1597.3	714.3
1026.4152	2992.9548	1560.1	679.45
1026.5275	2994.0204	1526.75	645.95
1026.6397	2995.0852	1492.4	613.05
1026.7519	2996.1495	1468.5	585.25
1026.864	2997.2131	1447.05	566.2
1026.9761	2998.276	1424.75	545.15
1027.0882	2999.3383	1416.45	536.55
1027.2002	3000.4	1392.4	508.45
1027.3122	3001.4611	1380.05	500.45
1027.4241	3002.5215	1362.5	481.3
1027.536	3003.5812	1346.7	466.6
1027.6478	3004.6404	1337.65	457.2
1027.7596	3005.6989	1329.5	445.6
1027.8714	3006.7567	1319.55	438.85
1027.9831	3007.8139	1327.55	429.15
1028.0947	3008.8705	1306.4	426.45
1028.2064	3009.9264	1298.55	415.9
1028.3179	3010.9818	1297.95	418.5
1028.4295	3012.0364	1295.1	413.75
1028.541	3013.0905	1292.9	413.2
1028.6524	3014.1439	1286.45	405.65
1028.7638	3015.1966	1287.2	407.55
1028.8752	3016.2487	1284.7	405.45
1028.9865	3017.3002	1289.05	403.2
1029.0978	3018.3511	1279.1	400.45
1029.209	3019.4013	1287.2	406.95
1029.3202	3020.4509	1287.75	405.65
1029.4314	3021.4998	1291.55	411.45
1029.5425	3022.5481	1287.5	409.05
1029.6535	3023.5958	1287.45	408.85
1029.7645	3024.6428	1295.25	413.75
1029.8755	3025.6892	1296.85	417.9
1029.9864	3026.735	1295.6	415.05
1030.0973	3027.7802	1301.8	421.15
1030.2082	3028.8247	1300	420.1
1030.319	3029.8685	1301.25	420.85
1030.4297	3030.9118	1313.25	433.5
1030.5404	3031.9544	1313.8	434.95
1030.6511	3032.9963	1318.85	438.75
1030.7617	3034.0376	1322.35	442.75
1030.8723	3035.0783	1331.4	448.85
1030.9829	3036.1184	1337.65	457.75
1031.0934	3037.1578	1334.95	455.55
1031.2038	3038.1966	1347.1	466
1031.3142	3039.2348	1337.05	457.1
1031.4246	3040.2723	1353.65	464.8
1031.5349	3041.3092	1342.15	465.4
1031.6452	3042.3455	1338.35	457.85
1031.7554	3043.3811	1335.85	455
1031.8656	3044.4161	1329.95	447.75
1031.9758	3045.4505	1335.05	458.45
1032.0859	3046.4842	1315.55	435.7
1032.1959	3047.5173	1318.05	437.8
1032.3059	3048.5498	1307.85	427.25
1032.4159	3049.5816	1302.5	422.15
1032.5258	3050.6128	1306.45	426.15
1032.6357	3051.6434	1291.1	410.2
1032.7455	3052.6734	1283.9	401.3
1032.8553	3053.7027	1272.9	392.8
1032.9651	3054.7314	1272.3	395.15
1033.0748	3055.7594	1262.95	383
1033.1845	3056.7868	1259.8	378.3
1033.2941	3057.8136	1255.45	374.8
1033.4037	3058.8398	1246.6	367.05
1033.5132	3059.8653	1241.8	362.45
1033.6227	3060.8902	1237.45	358.7
1033.7321	3061.9145	1235.75	354.95
1033.8415	3062.9381	1226.15	345.35
1033.9509	3063.9612	1239.9	343
1034.0602	3064.9835	1213.45	334.4
1034.1694	3066.0053	1209.95	327.05
1034.2787	3067.0264	1204.35	326.25
1034.3878	3068.0469	1194.5	314
1034.497	3069.0668	1186.55	303.55
1034.6061	3070.086	1178.3	299.35
1034.7151	3071.1046	1173.3	290.7
1034.8241	3072.1226	1163.4	284.45
1034.9331	3073.1399	1145.95	266.7
1035.042	3074.1567	1141.65	261.8
1035.1508	3075.1727	1133.3	251.15
1035.2597	3076.1882	1126.8	246.4
1035.3684	3077.203	1116.85	238.5
1035.4772	3078.2173	1106.35	222.4
1035.5859	3079.2308	1098.9	216.1
1035.6945	3080.2438	1093	211.25
1035.8031	3081.2561	1087.85	209.6
1035.9117	3082.2678	1071.45	192.9
1036.0202	3083.2789	1066.95	187
1036.1286	3084.2893	1066.15	186.5
1036.2371	3085.2991	1056.7	175.1
1036.3454	3086.3083	1057	172.8
1036.4538	3087.3169	1050.8	169.25
1036.562	3088.3248	1046.8	165.85
1036.6703	3089.3321	1038.35	158
1036.7785	3090.3388	1028.1	148.15
1036.8866	3091.3449	1033.55	153.85
1036.9948	3092.3503	1031.95	148.75
1037.1028	3093.3551	1023.5	145.4
1037.2108	3094.3593	1015.1	134.95
1037.3188	3095.3629	1017.85	137.95
1037.4267	3096.3658	1012.9	131.1
1037.5346	3097.3681	1014.15	135.35
1037.6425	3098.3698	1007.25	126.3
1037.7503	3099.3708	1010	130.15
1037.858	3100.3713	1005.9	127.3
1037.9657	3101.3711	1004.1	123.5
1038.0734	3102.3702	1119.3	121.05
1038.181	3103.3688	1004.2	124.2
1038.2886	3104.3667	998.45	119.3
1038.3961	3105.364	995.35	115.15
1038.5036	3106.3607	995.5	113.6
1038.611	3107.3568	992.6	112
1038.7184	3108.3522	989.7	113.05
1038.8257	3109.347	992.05	110.15
1038.933	3110.3412	992.85	108.65
1039.0403	3111.3348	988.75	110.3
1039.1475	3112.3277	984.75	104.75
1039.2547	3113.32	984.3	105.85
1039.3618	3114.3117	984.65	105.55
1039.4689	3115.3028	987.3	107
1039.5759	3116.2932	985.2	101.85
1039.6829	3117.2831	990.3	105.3
1039.7898	3118.2723	981.25	102.8
1039.8967	3119.2608	977.6	97.7
1040.0035	3120.2488	979.8	99.2
1040.1103	3121.2361	978.9	98.85
1040.2171	3122.2229	977.05	96.1
1040.3238	3123.209	978.55	98.25
1040.4305	3124.1944	975.95	95.9
1040.5371	3125.1793	977.65	97.05
1040.6437	3126.1635	974.75	95.6
1040.7502	3127.1471	972.85	95.3
1040.8567	3128.1301	971.45	92
1040.9631	3129.1125	972.5	91.25
1041.0695	3130.0942	971.95	92.15
1041.1759	3131.0753	979.25	91.15
1041.2822	3132.0558	972.65	90.85
1041.3884	3133.0357	968.4	88.9
1041.4946	3134.015	966.8	86.65
1041.6008	3134.9936	965.4	83.7
1041.7069	3135.9716	991.65	91.85
1041.813	3136.949	962	84.4
1041.919	3137.9258	985.25	86.1
1042.025	3138.902	965.95	80.65
1042.1309	3139.8775	961.9	81.55
1042.2368	3140.8524	960.75	80.6
1042.3427	3141.8267	960.4	78.6
1042.4485	3142.8004	959.05	77.95
1042.5542	3143.7735	964.1	78.45
1042.6599	3144.7459	957.65	75.35
1042.7656	3145.7178	957.65	77.9
1042.8712	3146.689	955	77.75
1042.9768	3147.6596	957.8	77.75
1043.0823	3148.6295	954.3	73.65
1043.1878	3149.5989	954.3	72.9
1043.2932	3150.5676	949.35	69.05
1043.3986	3151.5357	951.55	73.5
1043.5039	3152.5032	951.75	72.7
1043.6092	3153.4701	951.1	71.85
1043.7145	3154.4364	950.55	67.65
1043.8197	3155.402	948.15	70.1
1043.9248	3156.367	948.45	68
1044.03	3157.3315	993.85	72.2
1044.135	3158.2952	947.25	65.9
1044.24	3159.2584	945.05	64.15
1044.345	3160.221	944.95	64.4
1044.4499	3161.1829	942.3	60.75
1044.5548	3162.1442	942.9	63.75
1044.6596	3163.105	941.95	62.35
1044.7644	3164.065	942.3	62.35
1044.8692	3165.0245	945.05	62.9
1044.9739	3165.9834	938.8	62.55
1045.0785	3166.9416	940.7	59.85
1045.1831	3167.8993	939.35	60.15
1045.2877	3168.8563	940.7	59.55
1045.3922	3169.8127	939.4	59.9
1045.4966	3170.7684	939.35	59.25
1045.6011	3171.7236	941.6	58.75
1045.7054	3172.6782	937.35	56.35
1045.8098	3173.6321	937.4	56.8
1045.914	3174.5854	940.05	55.75
1046.0183	3175.5381	938.5	57.6
1046.1224	3176.4902	933.7	55.1
1046.2266	3177.4417	937.7	59
1046.3307	3178.3926	936.55	56.6
1046.4347	3179.3428	936.3	56.7
1046.5387	3180.2924	935.9	56.95
1046.6427	3181.2415	938.05	59.95
1046.7466	3182.1899	937.9	58.2
1046.8504	3183.1377	935.3	56.55
1046.9542	3184.0848	935.5	53.05
1047.058	3185.0314	933.3	54.25
1047.1617	3185.9773	932.35	53.05
1047.2654	3186.9227	934.05	52.55
1047.369	3187.8674	933.35	53.9
1047.4726	3188.8115	936.15	52.4
1047.5761	3189.755	930.8	51.45
1047.6796	3190.6979	929.85	49.15
1047.783	3191.6402	930.4	51.5
1047.8864	3192.5818	932.15	52.4
1047.9898	3193.5229	950.8	50.45
1048.0931	3194.4633	931.1	52.65
1048.1963	3195.4031	931.25	50
1048.2995	3196.3423	929.4	49.75
1048.4027	3197.2809	928.1	46.4
1048.5058	3198.2189	928.35	47.35
1048.6089	3199.1563	947.6	49.15
1048.7119	3200.0931	931.1	51.45
1048.8148	3201.0292	926.6	46.6
1048.9178	3201.9648	926.75	47.1
1049.0206	3202.8997	930.8	49.05
1049.1235	3203.834	928.3	47.65
1049.2262	3204.7677	929.1	51.1
1049.329	3205.7008	927.3	45.45
1049.4317	3206.6333	924.7	48.15
1049.5343	3207.5652	926.3	45.8
1049.6369	3208.4964	925.35	46.45
1049.7394	3209.4271	922.5	41.4
1049.8419	3210.3571	923.25	44.35
1049.9444	3211.2865	927.3	45.15
1050.0468	3212.2154	926.5	47.15
1050.1491	3213.1436	927.75	43.5
1050.2514	3214.0712	929.7	44.1
1050.3537	3214.9982	924.05	44.4
1050.4559	3215.9246	924.75	43.4
1050.5581	3216.8503	924.55	44.6
1050.6602	3217.7755	923.85	44.4
1050.7623	3218.7001	922.05	44
1050.8643	3219.624	922.8	42.15
1050.9663	3220.5473	923.25	44.35
1051.0682	3221.4701	924.6	41.8
1051.1701	3222.3922	923.85	44.65
1051.2719	3223.3137	923.55	45.4
1051.3737	3224.2346	923.9	45.7
1051.4754	3225.1549	918.85	39.6
1051.5771	3226.0746	918.25	37.65
1051.6788	3226.9937	920.75	42
1051.7804	3227.9121	920.65	43.4
1051.8819	3228.83	920.55	39.7
1051.9834	3229.7473	922.45	42.55
1052.0849	3230.6639	922.75	42.15
1052.1863	3231.5799	921.1	40.7
1052.2876	3232.4954	923.7	43.95
1052.3889	3233.4102	922.6	40.95
1052.4902	3234.3244	918.1	39.25
1052.5914	3235.238	917.8	38.3
1052.6926	3236.151	941.4	35.75
1052.7937	3237.0634	920.45	43.35
1052.8948	3237.9752	915.65	36.9
1052.9958	3238.8864	918.75	37.15
1053.0968	3239.797	918.2	39.45
1053.1977	3240.7069	923.2	42.05
1053.2986	3241.6163	919	38.75
1053.3994	3242.5251	920.1	40.25
1053.5002	3243.4332	916.65	37.85
1053.6009	3244.3408	916.5	37.05
1053.7016	3245.2477	917.15	37.65
1053.8022	3246.154	918.45	35.35
1053.9028	3247.0598	918.2	38.2
1054.0034	3247.9649	915.1	35.4
1054.1039	3248.8694	916.25	36.9
1054.2043	3249.7733	915	33.65
1054.3047	3250.6766	915.05	36.4
1054.4051	3251.5793	917.65	35.4
1054.5054	3252.4814	911.85	34.4
1054.6056	3253.3829	916.15	35.15
1054.7058	3254.2838	912	33.2
1054.806	3255.1841	912.15	33.2
1054.9061	3256.0838	911.1	33.3
1055.0061	3256.9829	912.8	32.85
1055.1062	3257.8814	915.25	34.1
1055.2061	3258.7792	912.5	29.45
1055.306	3259.6765	914.15	34.9
1055.4059	3260.5731	909.4	28.3
1055.5057	3261.4692	912.2	31.5
1055.6055	3262.3647	910.7	31.05
1055.7052	3263.2595	910.05	31.95
1055.8049	3264.1538	908.6	30.6
1055.9045	3265.0474	908.95	28.5
1056.0041	3265.9404	907.6	31.3
1056.1036	3266.8329	905.9	25.55
1056.2031	3267.7247	916.65	28.3
1056.3025	3268.616	904.45	27.05
1056.4019	3269.5066	903.9	24.2
1056.5013	3270.3966	906.25	23.7
1056.6005	3271.286	902.5	22.8
