Software Version:	3.9.2.0
Unit SN:	10000200
Spectrometer SN:	6960
Date:	3/14/2024 1:07:41 PM
Data Line Index:	25
Spectral Points:	2048
Integration time (ms):	125
Averages:	20
Delay (ms):	30000
Sequence Number:	1
Processing:	dark subtract
Laser Power (mW):	300
Laser Current (mA):	824
Laser Diode Temp (C):	25
Laser Case Temp (C):	28
System Temp (C):	28.1
Spectrometer Temp (C):	25.9
CCD Temp (C):	0.012
Secondary Temp (C):	20.006
Heatsink Temp (C):	23.963
CCDPCB Temp (C):	37.107
SecondaryPCB Temp (C):	35.151

Wavelength	RamanShift	Raw Counts	Dark Subtracted
787.061	30.1047	429.35	18.25
787.2016	32.3739	429.4	20.1
787.3422	34.6426	429.95	20.05
787.4828	36.9109	434.8	21.6
787.6235	39.1787	439.8	21.4
787.7642	41.4461	447.8	25.4
787.9049	43.7131	449.95	24.8
788.0456	45.9796	454.05	26.35
788.1863	48.2456	460.9	27.85
788.3271	50.5112	469.45	32.95
788.4679	52.7764	473.55	33.85
788.6087	55.0411	477.35	34.6
788.7496	57.3054	484.8	38.45
788.8904	59.5692	491.2	43
789.0313	61.8326	501.05	46.3
789.1722	64.0955	504.5	47.55
789.3132	66.3579	517.1	53.9
789.4541	68.6199	524.55	59.6
789.5951	70.8815	541.25	73.15
789.7361	73.1426	572.65	99.85
789.8771	75.4032	649.7	172.95
790.0181	77.6634	840.7	359.2
790.1592	79.9231	1277.25	790.05
790.3003	82.1824	2216.1	1721.25
790.4414	84.4412	3874.55	3369.6
790.5825	86.6995	6118.2	5599.8
790.7237	88.9574	8383.35	7852.85
790.8648	91.2148	9988.4	9451.15
791.006	93.4717	10785	10241.75
791.1472	95.7282	10968.75	10422.1
791.2885	97.9842	10954.25	10403.3
791.4297	100.2398	10750.4	10194.75
791.571	102.4949	10479.15	9920.05
791.7123	104.7495	10222.1	9659.1
791.8536	107.0036	9905.15	9341
791.9949	109.2573	9665.05	9103.1
792.1363	111.5105	9426.85	8865.35
792.2777	113.7632	9190.4	8628.15
792.4191	116.0154	9012.7	8437.6
792.5605	118.2672	8916.6	8347
792.7019	120.5185	8767.65	8198.4
792.8434	122.7693	8657.15	8082.55
792.9849	125.0197	8583.05	8005.65
793.1264	127.2696	8478.8	7899.45
793.2679	129.519	8434.9	7852.1
793.4094	131.7679	8344.05	7758.95
793.551	134.0163	8271.75	7684.75
793.6926	136.2642	8182.3	7590.3
793.8342	138.5117	8085.95	7489.6
793.9758	140.7587	7975.85	7377.6
794.1175	143.0052	7841.8	7241.1
794.2591	145.2512	7745.9	7148.35
794.4008	147.4967	7636.05	7034.95
794.5425	149.7417	7561.15	6962.3
794.6842	151.9863	7476.15	6871.7
794.826	154.2304	7457.65	6848.3
794.9677	156.4739	7397.3	6780.5
795.1095	158.717	7385.7	6772.95
795.2513	160.9596	7337.65	6719.45
795.3931	163.2017	7257.6	6638.15
795.535	165.4433	7199.55	6575.1
795.6768	167.6844	7091.8	6468.35
795.8187	169.925	6992	6366.1
795.9606	172.1651	6877.4	6247.8
796.1025	174.4047	6824.55	6192.25
796.2445	176.6439	6710.3	6075.9
796.3864	178.8825	6650.5	6012.45
796.5284	181.1206	6605.6	5966.05
796.6704	183.3582	6553.8	5907.65
796.8124	185.5954	6548.6	5902.05
796.9544	187.832	6511.95	5859.95
797.0965	190.0681	6494.75	5841.35
797.2386	192.3037	6497.8	5842.55
797.3806	194.5388	6481.55	5823.35
797.5228	196.7734	6506.95	5846.7
797.6649	199.0075	6517.95	5849.75
797.807	201.2411	6557.65	5889.95
797.9492	203.4742	6569.4	5900.9
798.0914	205.7068	6643.8	5975.4
798.2336	207.9389	6655.9	5984.05
798.3758	210.1704	6701.35	6029.65
798.518	212.4015	6750.5	6074.25
798.6603	214.632	6785.5	6109.85
798.8025	216.862	6802.1	6131.95
798.9448	219.0915	6823.85	6162.6
799.0871	221.3205	6831.45	6169.1
799.2294	223.549	6844.3	6188.9
799.3718	225.777	6885.1	6232.7
799.5141	228.0044	6897.45	6237.85
799.6565	230.2314	6918.25	6262.45
799.7989	232.4578	6955	6295.85
799.9413	234.6837	6998.55	6334.7
800.0837	236.909	7009.05	6343.35
800.2262	239.1339	7029.1	6341.3
800.3687	241.3582	6995.65	6320.3
800.5111	243.582	6967.4	6268.85
800.6536	245.8053	6941.4	6247.4
800.7961	248.0281	6918.85	6231
800.9387	250.2503	6921.3	6226.45
801.0812	252.472	6918.25	6217.25
801.2238	254.6932	6950.6	6250.65
801.3664	256.9139	6974.6	6271.65
801.509	259.134	7010.1	6304.4
801.6516	261.3536	7070.9	6367.75
801.7942	263.5727	7163.3	6451.9
801.9369	265.7912	7236	6530.15
802.0795	268.0092	7323.5	6617.1
802.2222	270.2267	7410.95	6703.15
802.3649	272.4436	7466.65	6757.25
802.5076	274.6601	7479.15	6761.5
802.6504	276.8759	7480.1	6768.45
802.7931	279.0913	7470.15	6757.65
802.9359	281.3061	7433.7	6718.5
803.0787	283.5204	7422.05	6702.9
803.2215	285.7341	7396.2	6674.6
803.3643	287.9473	7415.3	6688.65
803.5071	290.16	7434.6	6708.2
803.6499	292.3721	7433.1	6710
803.7928	294.5837	7444	6720
803.9357	296.7947	7487.25	6763.15
804.0786	299.0052	7543.7	6817.55
804.2215	301.2152	7531.85	6805.05
804.3644	303.4246	7497.2	6774.05
804.5074	305.6334	7401.15	6676.95
804.6503	307.8418	7310.4	6582.3
804.7933	310.0495	7169.25	6441.8
804.9363	312.2568	7053.7	6326.55
805.0793	314.4635	6908.1	6178.1
805.2223	316.6696	6788.45	6055.5
805.3653	318.8752	6704.2	5963.75
805.5084	321.0802	6653.4	5924.75
805.6514	323.2847	6648	5913.35
805.7945	325.4887	6669.4	5938.35
805.9376	327.692	6667.85	5933.95
806.0807	329.8949	6692.25	5952.85
806.2238	332.0972	6633.45	5895.95
806.367	334.2989	6595.95	5852.85
806.5101	336.5001	6527.2	5783.55
806.6533	338.7007	6450.75	5708
806.7965	340.9008	6379.8	5635.05
806.9397	343.1003	6320.35	5572.95
807.0829	345.2992	6265.4	5518
807.2261	347.4976	6221.9	5475.65
807.3693	349.6955	6184.5	5432.45
807.5126	351.8927	6170.05	5418.15
807.6559	354.0895	6161.2	5397.85
807.7991	356.2856	6125.7	5372.9
807.9424	358.4812	6097.1	5341.95
808.0857	360.6763	6087.4	5331.8
808.2291	362.8707	6067.25	5307.6
808.3724	365.0646	6085.65	5325.65
808.5158	367.258	6077.15	5316.5
808.6591	369.4508	6105	5342.4
808.8025	371.643	6138.05	5373
808.9459	373.8346	6178.95	5413.05
809.0893	376.0257	6186.25	5416.7
809.2327	378.2162	6226.85	5456.05
809.3762	380.4062	6223.5	5448.4
809.5196	382.5956	6171.8	5397.6
809.6631	384.7844	6122.7	5349.8
809.8066	386.9726	6061.45	5284.85
809.9501	389.1603	6029.05	5254.3
810.0936	391.3474	6023.55	5214.4
810.2371	393.5339	5997.75	5221.85
810.3806	395.7199	5969.45	5199.45
810.5241	397.9052	5981.5	5214.4
810.6677	400.09	5999.75	5231.3
810.8113	402.2743	6050	5282.6
810.9548	404.4579	6092.5	5326.25
811.0984	406.641	6166	5399.8
811.2421	408.8235	6231.9	5463.75
811.3857	411.0054	6291.85	5523.15
811.5293	413.1868	6369.15	5601.2
811.673	415.3675	6413.45	5639.2
811.8166	417.5477	6396.6	5625.95
811.9603	419.7273	6354.65	5577.9
812.104	421.9064	6298.85	5514.55
812.2477	424.0848	6230.25	5448.4
812.3914	426.2627	6174.45	5391.55
812.5351	428.4399	6118.5	5334.45
812.6788	430.6166	5992.3	5203.85
812.8226	432.7928	5870.85	5079.15
812.9663	434.9683	5789.75	5000.1
813.1101	437.1432	5690.7	4897.35
813.2539	439.3176	5638.3	4848.7
813.3977	441.4914	5576.8	4787.1
813.5415	443.6645	5563.55	4766.7
813.6853	445.8371	5547.85	4753.35
813.8291	448.0091	5528.7	4735.35
813.973	450.1806	5504.8	4708.9
814.1168	452.3514	5486.8	4688.35
814.2607	454.5216	5515.55	4708.85
814.4046	456.6913	5491.7	4695.8
814.5485	458.8603	5500.8	4703.95
814.6924	461.0288	5506.55	4706.8
814.8363	463.1967	5513.35	4714
814.9802	465.3639	5513.5	4714.55
815.1241	467.5306	5486.95	4684.55
815.2681	469.6967	5479.1	4678.25
815.412	471.8622	5476.8	4676.1
815.556	474.0271	5475.4	4673.4
815.7	476.1914	5476.05	4673.65
815.844	478.3551	5483.35	4681.8
815.988	480.5182	5479.4	4674.05
816.132	482.6807	5505.6	4700
816.276	484.8426	5556.6	4754.15
816.4201	487.0039	5674.05	4867.5
816.5641	489.1647	5761.75	4955.05
816.7082	491.3248	5858.9	5054.15
816.8522	493.4843	5905.5	5101.45
816.9963	495.6432	5888.3	5082.75
817.1404	497.8015	5825.6	5016.2
817.2845	499.9592	5803.3	4998.35
817.4286	502.1163	5706.95	4898.1
817.5727	504.2728	5609.9	4798.95
817.7168	506.4287	5513	4705.6
817.861	508.5839	5419.9	4610.45
818.0051	510.7386	5367.85	4558
818.1493	512.8927	5333.1	4516.6
818.2935	515.0461	5319.65	4506.4
818.4377	517.199	5346.25	4535.65
818.5818	519.3512	5381.4	4571.05
818.726	521.5029	5479.4	4662.25
818.8703	523.6539	5545.7	4731.1
819.0145	525.8043	5609.7	4794.6
819.1587	527.9541	5578	4762.05
819.303	530.1033	5501.6	4687.7
819.4472	532.2519	5432.45	4616.4
819.5915	534.3999	5429.3	4611.65
819.7357	536.5472	5404.65	4588.2
819.88	538.694	5455.2	4638.5
820.0243	540.8401	5524.65	4707.5
820.1686	542.9856	5596.5	4778.8
820.3129	545.1305	5585.35	4765.8
820.4572	547.2748	5598.05	4777.85
820.6016	549.4185	5528.75	4709.5
820.7459	551.5615	5486.15	4667.45
820.8902	553.704	5495.5	4676.75
821.0346	555.8458	5483.55	4663.45
821.1789	557.987	5549.15	4730.6
821.3233	560.1276	5595.45	4774.15
821.4677	562.2675	5710.5	4892.05
821.6121	564.4069	5852.5	5033.95
821.7565	566.5456	5995.6	5173.4
821.9009	568.6837	6072.7	5250.6
822.0453	570.8212	5960.35	5138.35
822.1897	572.958	5750.1	4926.05
822.3342	575.0942	5548.55	4726.85
822.4786	577.2299	5398.05	4572.35
822.6231	579.3648	5299.6	4475.2
822.7675	581.4992	5268	4442.5
822.912	583.6329	5276.35	4450.95
823.0565	585.766	5315.5	4491.1
823.201	587.8985	5375.8	4554.1
823.3454	590.0304	5407.1	4555.85
823.4899	592.1616	5380.7	4549.85
823.6345	594.2922	5370	4542.85
823.779	596.4222	5319.1	4490.3
823.9235	598.5515	5231.05	4402.65
824.068	600.6802	5179.2	4351.7
824.2126	602.8083	5122.35	4293.7
824.3571	604.9358	5098.95	4267.3
824.5017	607.0626	5084.55	4255.2
824.6462	609.1888	5112.25	4283.05
824.7908	611.3144	5147.65	4315.4
824.9354	613.4393	5194.55	4365.8
825.08	615.5636	5256.7	4427.9
825.2246	617.6873	5257.4	4427.35
825.3692	619.8103	5268.45	4434.95
825.5138	621.9327	5179.05	4345.4
825.6584	624.0544	5132.65	4301
825.803	626.1756	5052.75	4221.6
825.9477	628.2961	4991.85	4159.5
826.0923	630.4159	4976.2	4140.05
826.237	632.5351	4946.25	4112.85
826.3816	634.6537	4943.75	4110.1
826.5263	636.7716	4936.45	4101.9
826.6709	638.8889	4948.25	4113.9
826.8156	641.0056	4964.45	4129.05
826.9603	643.1216	4939.2	4103.4
827.105	645.237	4941.35	4102.7
827.2497	647.3518	4901.15	4063.1
827.3944	649.4659	4879.6	4042.7
827.5391	651.5793	4848.7	4009.45
827.6838	653.6922	4825.25	3988.7
827.8285	655.8043	4813.15	3975.55
827.9733	657.9159	4823.05	3983.6
828.118	660.0268	4805.2	3963.85
828.2627	662.137	4795	3954.7
828.4075	664.2466	4803.5	3961.8
828.5522	666.3556	4792.15	3953.35
828.697	668.4639	4773.4	3929.6
828.8418	670.5716	4773.95	3935.05
828.9865	672.6786	4755.9	3913.9
829.1313	674.785	4724.3	3880.65
829.2761	676.8907	4697.85	3855.2
829.4209	678.9958	4704.35	3862.45
829.5657	681.1002	4694.4	3851.8
829.7105	683.204	4668.6	3822.55
829.8553	685.3072	4665.5	3822.4
830.0001	687.4097	4650.5	3805.85
830.1449	689.5115	4662.2	3816.9
830.2898	691.6127	4649.85	3804.85
830.4346	693.7132	4628.95	3782.65
830.5794	695.8131	4657.5	3796.65
830.7243	697.9123	4659	3811.9
830.8691	700.0109	4649.8	3804.15
831.014	702.1089	4658.9	3815.8
831.1588	704.2061	4677.5	3831
831.3037	706.3028	4715.6	3868.65
831.4486	708.3987	4731	3886.3
831.5935	710.4941	4733.1	3886.95
831.7383	712.5887	4726.25	3878.3
831.8832	714.6827	4755.2	3904.8
832.0281	716.7761	4759.1	3911.4
832.173	718.8688	4822.7	3972.95
832.3179	720.9608	4857.3	4005
832.4628	723.0522	4892.2	4040.75
832.6077	725.1429	4919.05	4069.35
832.7527	727.233	4921.6	4071.2
832.8976	729.3224	4991.85	4142.7
833.0425	731.4112	4969	4117.25
833.1874	733.4993	4923.2	4072.45
833.3324	735.5867	4847.75	3997.2
833.4773	737.6735	4770.8	3919.05
833.6222	739.7596	4699	3845.8
833.7672	741.845	4653.4	3800.5
833.9122	743.9298	4630.2	3774.45
834.0571	746.014	4626.9	3774.6
834.2021	748.0974	4614.8	3763.25
834.347	750.1802	4617.5	3764.9
834.492	752.2624	4610.1	3757.05
834.637	754.3439	4608.75	3752.75
834.782	756.4247	4613.85	3750.1
834.9269	758.5048	4661.6	3808.65
835.0719	760.5843	4721.5	3870.45
835.2169	762.6631	4808.45	3954.5
835.3619	764.7413	4949.3	4095.5
835.5069	766.8188	5159.55	4303.75
835.6519	768.8956	5370.75	4514.5
835.7969	770.9718	5501.15	4647.25
835.9419	773.0473	5509.3	4656.5
836.0869	775.1221	5438.2	4583.35
836.232	777.1962	5363.8	4509.75
836.377	779.2697	5332.25	4474.6
836.522	781.3426	5403.5	4539.35
836.667	783.4147	5430.6	4573.05
836.8121	785.4862	5460.8	4605.15
836.9571	787.557	5385.5	4528
837.1021	789.6271	5229.85	4374.2
837.2472	791.6966	5021.8	4167.95
837.3922	793.7654	4832.35	3976.25
837.5373	795.8335	4664.1	3807.9
837.6823	797.901	4555.1	3698.2
837.8274	799.9678	4500.8	3642.5
837.9724	802.0339	4461	3604.2
838.1175	804.0993	4455	3588.7
838.2626	806.1641	4424.8	3567.3
838.4076	808.2282	4410.6	3551.75
838.5527	810.2916	4394.3	3532.5
838.6978	812.3544	4366.3	3510.35
838.8428	814.4164	4330.2	3476.25
838.9879	816.4778	4331.85	3472.75
839.133	818.5385	4337.3	3480.15
839.2781	820.5986	4379.85	3521.3
839.4232	822.658	4446	3588.05
839.5682	824.7166	4535.45	3677.85
839.7133	826.7747	4689	3831.9
839.8584	828.832	4860.55	4001.55
840.0035	830.8886	4999.45	4139.45
840.1486	832.9446	5083.4	4223.2
840.2937	834.9999	5066.4	4208.1
840.4388	837.0545	4960.45	4097.05
840.5839	839.1085	4832.05	3970.15
840.729	841.1618	4704.2	3839.25
840.8741	843.2143	4625.65	3764.5
841.0192	845.2662	4557.2	3697.65
841.1643	847.3175	4498.75	3641.05
841.3095	849.368	4461.55	3599.75
841.4546	851.4179	4439.45	3577.75
841.5997	853.467	4395.3	3533.7
841.7448	855.5155	4383.4	3521.9
841.8899	857.5633	4361.2	3498.45
842.0351	859.6105	4326.3	3463
842.1802	861.6569	4300.8	3439.85
842.3253	863.7027	4249.9	3388.45
842.4704	865.7478	4250.15	3387.75
842.6156	867.7922	4227.55	3364.4
842.7607	869.8359	4215.1	3352.7
842.9058	871.8789	4200.45	3334.45
843.0509	873.9212	4246.85	3348.45
843.1961	875.9629	4237	3375.45
843.3412	878.0039	4291.2	3428.2
843.4863	880.0441	4295.65	3432.9
843.6315	882.0837	4318.4	3452.95
843.7766	884.1226	4328.65	3462.6
843.9218	886.1609	4355.3	3494.75
844.0669	888.1984	4399.55	3537.35
844.212	890.2352	4442.4	3581.05
844.3572	892.2714	4475.3	3607.5
844.5023	894.3069	4449.75	3586.85
844.6475	896.3416	4375	3511.4
844.7926	898.3757	4329.15	3466.35
844.9377	900.4091	4285.45	3421.95
845.0829	902.4418	4274.75	3404.15
845.228	904.4739	4264.45	3397.95
845.3732	906.5052	4300.55	3436.2
845.5183	908.5358	4306.35	3442.85
845.6635	910.5658	4263.85	3397.9
845.8086	912.595	4186	3320.85
845.9538	914.6236	4114.4	3249.65
846.0989	916.6515	4068.2	3203.05
846.2441	918.6786	4020.95	3154.8
846.3892	920.7051	3998.85	3130.2
846.5344	922.7309	4029.6	3163.4
846.6795	924.756	4008.1	3143
846.8246	926.7804	4034.5	3164.45
846.9698	928.8041	4022.85	3155.1
847.1149	930.8272	4052.1	3187.45
847.2601	932.8495	4043.65	3176.7
847.4052	934.8711	4059.9	3192.15
847.5504	936.892	4033.8	3165.45
847.6955	938.9123	4035.3	3165.5
847.8407	940.9318	4045.9	3178.15
847.9858	942.9506	4057.85	3188.85
848.131	944.9688	4025.7	3157.05
848.2761	946.9862	4006.5	3137.15
848.4213	949.003	3938	3070.35
848.5664	951.019	3912.55	3044.95
848.7115	953.0344	3869.65	3003.1
848.8567	955.0491	3856	2987.15
849.0018	957.063	3859	2990.95
849.147	959.0763	3893.7	3026.6
849.2921	961.0888	3898.85	3029.6
849.4373	963.1007	3906.2	3035.9
849.5824	965.1119	3905.5	3038.35
849.7275	967.1223	3897.75	3028
849.8727	969.1321	3879.9	3013.25
850.0178	971.1412	3879	3013.1
850.1629	973.1495	3874.7	3004.15
850.3081	975.1572	3898.9	2995
850.4532	977.1641	3878.6	3010.05
850.5983	979.1704	3858.6	2987.3
850.7435	981.1759	3848.75	2977.65
850.8886	983.1808	3840.35	2969.2
851.0337	985.1849	3854.45	2974.2
851.1788	987.1884	3864	2992.95
851.324	989.1911	3880.5	3008.9
851.4691	991.1932	3896.55	3024.25
851.6142	993.1945	3898.45	3028.2
851.7593	995.1951	3892.35	3019.6
851.9045	997.1951	3879.7	3002.85
852.0496	999.1943	3868	2998.9
852.1947	1001.1928	3859.65	2988.95
852.3398	1003.1906	3867.25	2996.9
852.4849	1005.1877	3911.35	3038.8
852.63	1007.1841	3935.8	3064.3
852.7751	1009.1798	3950.3	3080.05
852.9202	1011.1748	3945.95	3075.35
853.0653	1013.1691	3880.45	3008.15
853.2104	1015.1627	3823.95	2950.25
853.3555	1017.1556	3748.65	2878.85
853.5006	1019.1477	3704.9	2833.75
853.6457	1021.1392	3647.15	2778.25
853.7908	1023.1299	3634.7	2761.85
853.9359	1025.12	3642.05	2767.15
854.081	1027.1093	3655.8	2786.45
854.2261	1029.0979	3690.95	2820.7
854.3712	1031.0859	3720.35	2850.2
854.5163	1033.0731	3735.6	2861.6
854.6613	1035.0596	3728.9	2858.8
854.8064	1037.0454	3685.3	2812.25
854.9515	1039.0304	3655.9	2784.7
855.0965	1041.0148	3612	2738.35
855.2416	1042.9985	3571.7	2700.35
855.3867	1044.9814	3559.65	2685.45
855.5317	1046.9636	3543.25	2668.3
855.6768	1048.9452	3547.15	2676.25
855.8219	1050.926	3541.75	2672.6
855.9669	1052.9061	3546.85	2675.75
856.112	1054.8855	3565.7	2693.1
856.257	1056.8642	3561.4	2689.7
856.4021	1058.8421	3581.45	2704.85
856.5471	1060.8194	3601.3	2729.1
856.6921	1062.7959	3594.8	2722.7
856.8372	1064.7717	3602.2	2727.9
856.9822	1066.7469	3620.6	2746.65
857.1272	1068.7213	3640.85	2762.85
857.2723	1070.695	3668.95	2796.35
857.4173	1072.6679	3693.7	2819.45
857.5623	1074.6402	3684.65	2811.2
857.7073	1076.6117	3691.9	2813.8
857.8523	1078.5826	3668.9	2793.65
857.9973	1080.5527	3614.25	2737.2
858.1423	1082.5221	3555	2680.45
858.2873	1084.4908	3542.95	2669.45
858.4323	1086.4587	3529.45	2654.65
858.5773	1088.426	3520.05	2643.2
858.7223	1090.3925	3545.15	2667.25
858.8673	1092.3584	3543.9	2671.7
859.0123	1094.3235	3540.9	2669.05
859.1573	1096.2879	3551.8	2676.05
859.3022	1098.2515	3591.15	2716.15
859.4472	1100.2145	3643.35	2770
859.5922	1102.1767	3702.25	2825.55
859.7371	1104.1382	3779.3	2904.3
859.8821	1106.099	3854.35	2978.6
860.027	1108.0591	3931.4	3058.9
860.172	1110.0185	4001.95	3124.7
860.3169	1111.9771	4036.05	3162.8
860.4619	1113.9351	4012.95	3139.3
860.6068	1115.8923	3989.75	3115.35
860.7517	1117.8488	3956.05	3079.15
860.8967	1119.8045	3881.15	3007.5
861.0416	1121.7596	3836.35	2959.7
861.1865	1123.7139	3769.35	2896.95
861.3314	1125.6675	3734.45	2858.95
861.4763	1127.6204	3725.8	2851.15
861.6212	1129.5726	3729.9	2851.8
861.7661	1131.524	3722.5	2846.95
861.911	1133.4748	3681.6	2808.95
862.0559	1135.4248	3600.9	2721.75
862.2008	1137.3741	3528.6	2654.1
862.3457	1139.3226	3504.6	2627.25
862.4905	1141.2705	3473.4	2599.4
862.6354	1143.2176	3459.3	2579.3
862.7803	1145.164	3452.55	2575.45
862.9251	1147.1097	3427.45	2549.2
863.07	1149.0546	3389.5	2511.75
863.2148	1150.9989	3343.9	2467.8
863.3597	1152.9424	3310.75	2433.9
863.5045	1154.8852	3271.1	2394.4
863.6493	1156.8272	3250.45	2375.3
863.7942	1158.7686	3240	2357.5
863.939	1160.7092	3244.05	2365.9
864.0838	1162.6491	3262.5	2384.9
864.2286	1164.5883	3289.6	2413.95
864.3734	1166.5267	3332.1	2454.75
864.5182	1168.4644	3367	2489.6
864.663	1170.4014	3436.15	2555.4
864.8078	1172.3377	3508.35	2632.95
864.9526	1174.2732	3602.6	2724.65
865.0974	1176.2081	3735.55	2859.95
865.2421	1178.1421	3888.4	3006.35
865.3869	1180.0755	4084.05	3207.8
865.5317	1182.0082	4191.3	3315.15
865.6764	1183.9401	4266.7	3389.85
865.8212	1185.8713	4219.25	3343.5
865.9659	1187.8017	4084.7	3210.5
866.1106	1189.7315	3950.2	3074.75
866.2554	1191.6605	3810.75	2906.2
866.4001	1193.5888	3702.1	2823.9
866.5448	1195.5163	3613.9	2736.5
866.6895	1197.4432	3593.3	2714.75
866.8342	1199.3693	3555.05	2679
866.9789	1201.2947	3520.3	2636.3
867.1236	1203.2193	3509.55	2634.75
867.2683	1205.1432	3501.45	2624.75
867.413	1207.0664	3496.55	2618.95
867.5576	1208.9889	3489.15	2607.9
867.7023	1210.9106	3489.3	2613
867.847	1212.8316	3505.85	2630.1
867.9916	1214.7519	3528.35	2641.7
868.1363	1216.6715	3513.75	2638.85
868.2809	1218.5903	3531.6	2654.1
868.4255	1220.5084	3566.5	2690.85
868.5701	1222.4257	3599.05	2722.05
868.7148	1224.3424	3617.95	2740.6
868.8594	1226.2583	3662.4	2781.45
869.004	1228.1735	3716.9	2838.2
869.1486	1230.0879	3767	2887.45
869.2932	1232.0016	3835.55	2960.45
869.4377	1233.9146	3889.65	3007.45
869.5823	1235.8269	3911.45	3033.6
869.7269	1237.7384	3907.2	3030.05
869.8715	1239.6492	3880.85	3003.5
870.016	1241.5592	3852.25	2972.8
870.1606	1243.4686	3876.65	2999.25
870.3051	1245.3772	3949	3073.3
870.4496	1247.285	4028.8	3150.95
870.5941	1249.1922	4107.6	3228.85
870.7387	1251.0986	4185.6	3310.7
870.8832	1253.0042	4240.65	3363.85
871.0277	1254.9092	4300.8	3422.9
871.1722	1256.8134	4340.15	3463.4
871.3167	1258.7169	4402.55	3522.3
871.4611	1260.6196	4436.35	3558.95
871.6056	1262.5216	4494.65	3614.7
871.7501	1264.4229	4540.8	3661.95
871.8945	1266.3234	4606.4	3728.1
872.039	1268.2232	4661.15	3779.05
872.1834	1270.1223	4667.85	3787.8
872.3278	1272.0207	4677.1	3796.3
872.4723	1273.9183	4644.1	3760.6
872.6167	1275.8151	4630.3	3752.85
872.7611	1277.7113	4600.65	3721.7
872.9055	1279.6067	4652.5	3775.75
873.0499	1281.5014	4746.45	3866.8
873.1943	1283.3953	4927.9	4046.5
873.3386	1285.2885	5135.3	4258.4
873.483	1287.181	5362.5	4483.7
873.6274	1289.0727	5561.55	4684
873.7717	1290.9637	5721.45	4841.4
873.9161	1292.854	5829.1	4949.35
874.0604	1294.7435	5823.1	4943.4
874.2047	1296.6323	5776.9	4899.2
874.349	1298.5204	5690.6	4809.15
874.4933	1300.4077	5565.75	4685.1
874.6376	1302.2943	5442.35	4563.75
874.7819	1304.1802	5300.2	4420.85
874.9262	1306.0653	5131.05	4250
875.0705	1307.9497	4929.95	4052.05
875.2147	1309.8333	4783.4	3903.9
875.359	1311.7162	4655.1	3774.05
875.5032	1313.5984	4576.9	3694.75
875.6475	1315.4798	4532.35	3635.85
875.7917	1317.3605	4491.45	3596.65
875.9359	1319.2405	4468.85	3587.45
876.0801	1321.1197	4393.05	3509.85
876.2243	1322.9982	4289.8	3407.8
876.3685	1324.876	4168.6	3289.8
876.5127	1326.753	4055.95	3175.3
876.6569	1328.6293	3967.35	3086.5
876.801	1330.5048	3889.75	3008.9
876.9452	1332.3796	3799.7	2921.15
877.0893	1334.2537	3778.6	2874.2
877.2335	1336.127	3701.1	2821
877.3776	1337.9996	3660.65	2780.55
877.5217	1339.8714	3661.6	2780.1
877.6658	1341.7426	3670.55	2750.85
877.8099	1343.6129	3643.65	2764.95
877.954	1345.4826	3628.7	2748
878.0981	1347.3515	3639.05	2756.55
878.2422	1349.2196	3617	2736.45
878.3862	1351.087	3614.6	2734.7
878.5303	1352.9537	3618.5	2739.1
878.6743	1354.8197	3656.7	2777.5
878.8184	1356.6849	3693.1	2812.9
878.9624	1358.5493	3738.8	2857.45
879.1064	1360.4131	3815.1	2937
879.2504	1362.276	3875.55	2995.7
879.3944	1364.1383	3894.95	3017.3
879.5384	1365.9998	3886.95	3001.5
879.6823	1367.8606	3807.4	2926.35
879.8263	1369.7206	3705.7	2825.4
879.9702	1371.5799	3628.1	2745.6
880.1142	1373.4384	3536.15	2655.65
880.2581	1375.2962	3467.45	2585.3
880.402	1377.1533	3357.05	2477.6
880.5459	1379.0096	3257.7	2376.8
880.6898	1380.8652	3148.6	2265.7
880.8337	1382.7201	3074.1	2193.55
880.9776	1384.5742	2991.2	2109.3
881.1215	1386.4275	2942.3	2061.25
881.2653	1388.2802	2887.95	2009.85
881.4092	1390.132	2846.85	1964.5
881.553	1391.9832	2842.15	1961.05
881.6968	1393.8336	2794.7	1913.85
881.8406	1395.6832	2792.45	1911.2
881.9844	1397.5322	2781.4	1900.9
882.1282	1399.3803	2774.5	1886.85
882.272	1401.2278	2744.45	1861.8
882.4158	1403.0745	2746.35	1865.05
882.5595	1404.9204	2730.7	1850.85
882.7033	1406.7656	2721.75	1842.7
882.847	1408.6101	2731.2	1848.4
882.9908	1410.4538	2724.9	1844.9
883.1345	1412.2968	2754.85	1873.1
883.2782	1414.139	2749.25	1868.2
883.4219	1415.9805	2780	1899.7
883.5656	1417.8213	2815.75	1927.75
883.7092	1419.6613	2831.4	1952.5
883.8529	1421.5006	2900.35	2017.85
883.9965	1423.3391	2948.6	2068.4
884.1402	1425.1769	3036.9	2154.3
884.2838	1427.0139	3166.45	2284.35
884.4274	1428.8502	3346.2	2463.6
884.571	1430.6858	3492.85	2610
884.7146	1432.5206	3606.7	2724.65
884.8582	1434.3547	3686.65	2805.95
885.0018	1436.188	3691.6	2812.6
885.1453	1438.0206	3679.7	2800.1
885.2889	1439.8524	3619.9	2737.55
885.4324	1441.6835	3585.85	2703.05
885.5759	1443.5139	3555	2670.9
885.7194	1445.3435	3530.6	2649.85
885.8629	1447.1724	3532.6	2650.25
886.0064	1449.0005	3516.5	2636.05
886.1499	1450.8279	3505.75	2623.4
886.2933	1452.6545	3491.05	2613.1
886.4368	1454.4804	3495.65	2617.05
886.5802	1456.3056	3504.3	2615.8
886.7237	1458.13	3473.45	2596.2
886.8671	1459.9536	3430.25	2549.65
887.0105	1461.7766	3355.4	2472.8
887.1539	1463.5987	3264.1	2381.15
887.2972	1465.4202	3182.75	2301.6
887.4406	1467.2409	3067.9	2186.15
887.584	1469.0608	2978.75	2097.4
887.7273	1470.88	2886.9	2004.45
887.8706	1472.6984	2825.5	1944.4
888.0139	1474.5161	2749.85	1866.05
888.1572	1476.3331	2698.5	1818.15
888.3005	1478.1493	2669.75	1788.35
888.4438	1479.9648	2642.2	1761.95
888.5871	1481.7795	2625.05	1742.75
888.7303	1483.5935	2610.85	1730.7
888.8736	1485.4067	2595.15	1712.95
889.0168	1487.2192	2585.15	1702.6
889.16	1489.031	2576.6	1691.5
889.3032	1490.842	2565.6	1685
889.4464	1492.6522	2547.7	1664.7
889.5896	1494.4618	2545.8	1662.7
889.7327	1496.2705	2538.95	1656.05
889.8759	1498.0785	2517.15	1636.1
890.019	1499.8858	2511.6	1629.8
890.1622	1501.6924	2509.05	1628.4
890.3053	1503.4981	2481.85	1602
890.4484	1505.3032	2483.05	1600.45
890.5914	1507.1075	2460.15	1577.6
890.7345	1508.911	2458.55	1576
890.8776	1510.7138	2442	1558.65
891.0206	1512.5159	2439.35	1556.05
891.1637	1514.3172	2417.8	1538
891.3067	1516.1178	2400.25	1520.4
891.4497	1517.9176	2404.6	1522
891.5927	1519.7166	2382.6	1503.55
891.7357	1521.515	2377.4	1490.5
891.8786	1523.3126	2367.3	1486.45
892.0216	1525.1094	2358.95	1474.35
892.1645	1526.9055	2340.6	1457.7
892.3074	1528.7008	2342.7	1460.9
892.4503	1530.4954	2329.35	1442.6
892.5932	1532.2893	2324.45	1443
892.7361	1534.0824	2323.4	1435.65
892.879	1535.8747	2318.2	1436.1
893.0218	1537.6663	2311.35	1427.25
893.1647	1539.4572	2326.45	1442.65
893.3075	1541.2473	2322.35	1440.15
893.4503	1543.0367	2308.5	1427.6
893.5931	1544.8253	2322.3	1436.85
893.7359	1546.6132	2313.65	1429.65
893.8787	1548.4003	2332.15	1441.4
894.0214	1550.1867	2355.1	1463.1
894.1642	1551.9723	2360.95	1475.45
894.3069	1553.7572	2388.8	1505.85
894.4496	1555.5414	2419.5	1535.55
894.5923	1557.3247	2450.5	1565.8
894.735	1559.1074	2507.95	1626.15
894.8777	1560.8893	2568.85	1688.5
895.0204	1562.6705	2629.65	1750.35
895.163	1564.4509	2664.65	1782.5
895.3056	1566.2305	2709.05	1829.55
895.4482	1568.0094	2731.05	1850.55
895.5908	1569.7876	2731.1	1850.05
895.7334	1571.565	2727.2	1845.65
895.876	1573.3417	2728.8	1848.5
896.0186	1575.1176	2729.75	1846.9
896.1611	1576.8928	2726.75	1846
896.3036	1578.6672	2748.75	1867.85
896.4461	1580.4409	2758.75	1878.35
896.5886	1582.2138	2775.1	1890.3
896.7311	1583.986	2808.2	1925.6
896.8736	1585.7575	2844.55	1964.3
897.0161	1587.5282	2871.4	1989.45
897.1585	1589.2981	2925.2	2044.15
897.3009	1591.0673	2955.6	2073.2
897.4433	1592.8358	2975.3	2094.7
897.5857	1594.6035	3013.1	2130.1
897.7281	1596.3704	3028	2146.65
897.8705	1598.1366	3048.6	2168
898.0128	1599.9021	3065	2182.6
898.1551	1601.6668	3084.2	2199.45
898.2975	1603.4308	3088.3	2204.9
898.4398	1605.194	3125.2	2236.9
898.5821	1606.9564	3172.2	2289.8
898.7243	1608.7182	3257.85	2371.05
898.8666	1610.4791	3339.05	2455.1
899.0088	1612.2394	3445	2563.55
899.1511	1613.9988	3580.1	2698.9
899.2933	1615.7576	3695.55	2814.15
899.4355	1617.5156	3788.75	2900.3
899.5776	1619.2728	3803.25	2923.2
899.7198	1621.0293	3810.2	2928.05
899.862	1622.785	3720.1	2835.65
900.0041	1624.54	3600.15	2715.25
900.1462	1626.2942	3468.95	2585.45
900.2883	1628.0477	3321.4	2433.9
900.4304	1629.8005	3180.35	2294.15
900.5725	1631.5525	3051.3	2170.55
900.7145	1633.3037	2944.55	2059.65
900.8566	1635.0542	2847	1965.65
900.9986	1636.804	2784.85	1902.35
901.1406	1638.553	2780.15	1834.35
901.2826	1640.3013	2695.4	1812.55
901.4245	1642.0488	2663.65	1781.5
901.5665	1643.7955	2646.1	1764.4
901.7085	1645.5416	2658.85	1776.3
901.8504	1647.2868	2666.45	1784.5
901.9923	1649.0313	2678.8	1797.7
902.1342	1650.7751	2708.45	1824.35
902.2761	1652.5181	2738.6	1856.15
902.4179	1654.2604	2778.85	1893.4
902.5598	1656.0019	2816.65	1934.25
902.7016	1657.7427	2882.3	2001.3
902.8434	1659.4828	2954.2	2073.15
902.9852	1661.222	3024.4	2142
903.127	1662.9606	3046.3	2164.5
903.2687	1664.6984	3008.25	2126.7
903.4105	1666.4354	2917.8	2036.5
903.5522	1668.1717	2780.75	1899.9
903.6939	1669.9072	2629.3	1748.25
903.8356	1671.642	2489.5	1607.3
903.9773	1673.3761	2374.35	1493.35
904.119	1675.1094	2287.6	1408.35
904.2606	1676.8419	2206.75	1323.4
904.4022	1678.5737	2150.6	1267.5
904.5439	1680.3048	2108.85	1226.5
904.6855	1682.0351	2077.25	1196.3
904.827	1683.7646	2050.55	1165.25
904.9686	1685.4934	2027.5	1146.6
905.1101	1687.2215	2002.9	1120.95
905.2517	1688.9488	1983.85	1103.35
905.3932	1690.6754	1966.6	1085.2
905.5347	1692.4012	1955.85	1073.85
905.6761	1694.1263	1948.15	1068.35
905.8176	1695.8506	1932.75	1049.45
905.9591	1697.5742	1930.55	1050.2
906.1005	1699.297	1921.3	1039.3
906.2419	1701.0191	1906.2	1026.35
906.3833	1702.7404	1895.2	1016.3
906.5246	1704.461	1879.1	996.45
906.666	1706.1808	1873.2	988.7
906.8073	1707.8999	1877.4	992.6
906.9487	1709.6182	1853.65	970.3
907.09	1711.3358	1848.8	967.55
907.2313	1713.0527	1850.3	969.05
907.3725	1714.7688	1851.7	962.9
907.5138	1716.4841	1824.7	939
907.655	1718.1987	1833.6	947.9
907.7962	1719.9126	1827	946.9
907.9374	1721.6257	1823.1	935.55
908.0786	1723.338	1820.2	937.35
908.2198	1725.0496	1803.05	920.45
908.3609	1726.7605	1805	922.6
908.502	1728.4706	1802.05	920.1
908.6431	1730.18	1798.55	912.3
908.7842	1731.8886	1796.35	914.4
908.9253	1733.5964	1793.45	907.6
909.0664	1735.3036	1781.75	897.1
909.2074	1737.0099	1783.25	901.85
909.3484	1738.7156	1781.2	899.65
909.4894	1740.4204	1767.1	881.6
909.6304	1742.1246	1763	878.1
909.7714	1743.8279	1762.6	881.3
909.9123	1745.5306	1766.8	882.6
910.0532	1747.2325	1753.1	873
910.1941	1748.9336	1740	858.55
910.335	1750.634	1741.05	856.95
910.4759	1752.3336	1747.2	863.75
910.6168	1754.0325	1738.3	858.05
910.7576	1755.7307	1738.6	856.45
910.8984	1757.4281	1738.05	856.3
911.0392	1759.1247	1746.85	855
911.18	1760.8206	1725.85	838
911.3208	1762.5158	1732.1	846
911.4615	1764.2102	1721.55	840.7
911.6022	1765.9039	1716.85	834.85
911.7429	1767.5968	1716.9	832.05
911.8836	1769.289	1722.15	839.35
912.0243	1770.9804	1719.05	836.6
912.1649	1772.6711	1723.25	839.35
912.3056	1774.361	1712.6	831.15
912.4462	1776.0502	1707.55	825.7
912.5868	1777.7386	1709.85	825.75
912.7274	1779.4263	1708.15	825.85
912.8679	1781.1132	1706.7	824.25
913.0084	1782.7994	1706.05	821.1
913.149	1784.4849	1705.2	824.9
913.2895	1786.1696	1717.9	816.7
913.4299	1787.8535	1700.95	818.45
913.5704	1789.5367	1694.65	811.05
913.7108	1791.2192	1689.4	807.75
913.8513	1792.9009	1696.35	798.65
913.9917	1794.5818	1690.45	806.75
914.132	1796.2621	1680.25	800.6
914.2724	1797.9415	1674.4	790.55
914.4128	1799.6202	1674.15	793.15
914.5531	1801.2982	1677.7	795.9
914.6934	1802.9755	1678.7	795.75
914.8337	1804.6519	1664.8	781.75
914.9739	1806.3277	1666.1	783.2
915.1142	1808.0027	1671.15	788.3
915.2544	1809.6769	1666.75	784.45
915.3946	1811.3504	1669.9	785.15
915.5348	1813.0231	1666.2	783.35
915.675	1814.6951	1659	774.85
915.8151	1816.3664	1657.1	773.45
915.9553	1818.0369	1655.15	770.4
916.0954	1819.7067	1653.35	772.85
916.2355	1821.3757	1651.95	765.8
916.3755	1823.044	1652.6	771.35
916.5156	1824.7115	1653.6	772.1
916.6556	1826.3783	1637	756.8
916.7956	1828.0443	1641	759
916.9356	1829.7096	1634.8	750.75
917.0756	1831.3741	1650.85	765.3
917.2155	1833.0379	1647.1	763.6
917.3555	1834.701	1649.85	764.45
917.4954	1836.3633	1639.8	756.1
917.6353	1838.0248	1629.7	743.95
917.7751	1839.6856	1630.65	747.2
917.915	1841.3457	1627.85	746.55
918.0548	1843.005	1628.45	746.95
918.1946	1844.6636	1630.45	746.3
918.3344	1846.3214	1628.1	745.75
918.4742	1847.9785	1623.1	741.4
918.6139	1849.6349	1620.2	739.6
918.7537	1851.2904	1629.75	739.35
918.8934	1852.9453	1621.3	738.6
919.0331	1854.5994	1625.35	740.15
919.1727	1856.2528	1614.1	728.2
919.3124	1857.9054	1617.15	737.05
919.452	1859.5572	1613.2	733.25
919.5916	1861.2083	1614.05	729.05
919.7312	1862.8587	1610	728.2
919.8708	1864.5084	1597.45	715.65
920.0103	1866.1572	1601.1	720.95
920.1498	1867.8054	1600.85	719.6
920.2893	1869.4528	1602.55	721.3
920.4288	1871.0994	1601.95	719.75
920.5683	1872.7453	1595.1	710.35
920.7077	1874.3905	1609.15	711.1
920.8471	1876.0349	1599.3	717.45
920.9865	1877.6786	1593.3	709.25
921.1259	1879.3215	1595.25	714.85
921.2653	1880.9637	1590.6	707.2
921.4046	1882.6051	1594.7	712.8
921.5439	1884.2458	1592.85	707.55
921.6832	1885.8858	1585.95	705.35
921.8225	1887.525	1579.9	698.3
921.9617	1889.1634	1572.35	691.45
922.101	1890.8011	1573.75	690.7
922.2402	1892.4381	1576	694.35
922.3794	1894.0743	1586.5	706.05
922.5185	1895.7098	1573.55	692.2
922.6577	1897.3446	1568.75	687.2
922.7968	1898.9786	1579.2	692.55
922.9359	1900.6118	1568.2	687.85
923.075	1902.2443	1560.1	677.1
923.214	1903.8761	1561.7	681.05
923.3531	1905.5071	1557	674.15
923.4921	1907.1374	1555.65	672.5
923.6311	1908.7669	1551.95	668.7
923.77	1910.3957	1550.85	667.8
923.909	1912.0237	1548	666.7
924.0479	1913.651	1551.4	669.65
924.1868	1915.2776	1552.25	671.95
924.3257	1916.9034	1539.15	658.65
924.4646	1918.5285	1538.35	655.65
924.6034	1920.1528	1538.25	658.2
924.7422	1921.7764	1537.55	656
924.881	1923.3992	1540.9	658.35
925.0198	1925.0213	1528.7	645.5
925.1586	1926.6427	1526	644.3
925.2973	1928.2633	1628.8	641.35
925.436	1929.8832	1528.3	644.6
925.5747	1931.5023	1521.85	639.4
925.7134	1933.1207	1519.85	638.95
925.852	1934.7383	1517.05	633.15
925.9906	1936.3552	1521.05	640.7
926.1292	1937.9714	1519.35	638.75
926.2678	1939.5868	1514.25	632.05
926.4064	1941.2015	1504.6	622.6
926.5449	1942.8154	1512.95	630.3
926.6834	1944.4286	1509.9	625.65
926.8219	1946.041	1532.85	628.2
926.9604	1947.6528	1504.45	616.5
927.0988	1949.2637	1499.65	616.55
927.2372	1950.8739	1501.6	617.9
927.3756	1952.4834	1506.5	623.8
927.514	1954.0921	1501.4	618.35
927.6523	1955.7001	1493.35	606.7
927.7907	1957.3074	1488.3	608.8
927.929	1958.9139	1489.5	606.5
928.0673	1960.5197	1500.15	619.15
928.2055	1962.1247	1489.15	607.4
928.3438	1963.729	1477.1	595.9
928.482	1965.3325	1505.75	599.85
928.6202	1966.9353	1485.5	602.9
928.7584	1968.5374	1483.1	599.3
928.8965	1970.1387	1481.7	598.65
929.0346	1971.7393	1473.95	592
929.1727	1973.3392	1468.95	587
929.3108	1974.9383	1466.05	584.2
929.4489	1976.5366	1471.5	589.7
929.5869	1978.1342	1469.55	587.55
929.7249	1979.7311	1461.6	578.45
929.8629	1981.3273	1462.2	581.15
930.0009	1982.9227	1463.85	579.65
930.1388	1984.5173	1460.75	578.65
930.2767	1986.1112	1457.3	573.7
930.4146	1987.7044	1456.95	575.55
930.5525	1989.2968	1457.7	576.3
930.6904	1990.8885	1455.4	570.1
930.8282	1992.4795	1456.95	572.5
930.966	1994.0697	1445.5	563.4
931.1038	1995.6592	1443.3	561.05
931.2415	1997.2479	1444.3	562.1
931.3793	1998.8359	1443.8	559.6
931.517	2000.4232	1439.15	558.35
931.6547	2002.0097	1443.85	562.8
931.7923	2003.5955	1442.55	559.45
931.93	2005.1805	1435	550.55
932.0676	2006.7648	1435.05	554.1
932.2052	2008.3484	1441.15	557.5
932.3427	2009.9312	1429.35	544.7
932.4803	2011.5133	1432.35	549.25
932.6178	2013.0946	1434.1	551.35
932.7553	2014.6752	1426.15	544.25
932.8928	2016.2551	1427.85	545.4
933.0302	2017.8342	1434.6	553.1
933.1676	2019.4126	1424.2	542
933.305	2020.9902	1426.95	545.3
933.4424	2022.5672	1428.75	545.65
933.5798	2024.1433	1425.85	534.55
933.7171	2025.7188	1421	541.4
933.8544	2027.2935	1418.55	534.9
933.9917	2028.8674	1411.45	530.85
934.129	2030.4406	1414.7	532.25
934.2662	2032.0131	1412.9	532.4
934.4034	2033.5849	1417.4	528.25
934.5406	2035.1559	1416.8	536.2
934.6778	2036.7261	1409.1	525.85
934.8149	2038.2957	1407.5	524.95
934.952	2039.8645	1410.95	527.35
935.0891	2041.4325	1411.55	527.05
935.2262	2042.9998	1396.35	512.85
935.3632	2044.5664	1405.2	520.1
935.5002	2046.1323	1399.7	517.05
935.6372	2047.6974	1400.5	517.45
935.7742	2049.2617	1391.7	509.95
935.9111	2050.8254	1422.1	517.75
936.048	2052.3883	1403	518.65
936.1849	2053.9504	1400.75	518.75
936.3218	2055.5118	1392.2	508.55
936.4586	2057.0725	1402.35	517.05
936.5955	2058.6325	1396.8	513.85
936.7323	2060.1917	1392.2	509.25
936.869	2061.7502	1399.75	515.2
937.0058	2063.3079	1386.25	504.7
937.1425	2064.8649	1390.65	504.2
937.2792	2066.4212	1392.95	509.7
937.4159	2067.9767	1385.8	504.75
937.5525	2069.5315	1382.7	501.65
937.6891	2071.0856	1387	506.2
937.8257	2072.6389	1384.45	499.95
937.9623	2074.1915	1382.3	499.85
938.0989	2075.7433	1375.85	491.55
938.2354	2077.2945	1378.3	497.85
938.3719	2078.8448	1365.25	482.9
938.5084	2080.3945	1381.7	500.85
938.6448	2081.9434	1379.4	496.05
938.7812	2083.4916	1371.8	489
938.9176	2085.039	1375.1	491.35
939.054	2086.5857	1369.1	483.9
939.1903	2088.1317	1370.8	488.7
939.3267	2089.677	1364.35	482.3
939.463	2091.2215	1366.1	484.1
939.5992	2092.7652	1366.2	482.65
939.7355	2094.3083	1365.4	481.5
939.8717	2095.8506	1359.8	479.25
940.0079	2097.3921	1359.8	478.45
940.1441	2098.933	1358.15	475.5
940.2802	2100.4731	1361.75	480.95
940.4163	2102.0124	1373.5	471.25
940.5524	2103.5511	1362.45	481.05
940.6885	2105.089	1362.05	479.1
940.8245	2106.6261	1351.75	469.55
940.9606	2108.1626	1353.2	470.45
941.0965	2109.6983	1374.75	463.1
941.2325	2111.2332	1360.1	478.55
941.3684	2112.7675	1346.75	462.45
941.5044	2114.301	1347.7	465.05
941.6403	2115.8337	1355.45	471.9
941.7761	2117.3657	1350.1	466.2
941.912	2118.897	1352.8	470.15
942.0478	2120.4276	1356.9	469.5
942.1835	2121.9575	1344.8	461.95
942.3193	2123.4866	1346.65	462.2
942.455	2125.0149	1334.4	451.15
942.5907	2126.5426	1337.15	454.45
942.7264	2128.0695	1342.7	455
942.8621	2129.5956	1336.8	454.4
942.9977	2131.1211	1345.1	456.9
943.1333	2132.6458	1332.95	451.75
943.2689	2134.1698	1339.1	457.15
943.4044	2135.693	1327.85	444.4
943.54	2137.2155	1335.5	452.15
943.6755	2138.7373	1336.6	453
943.8109	2140.2584	1334	450.65
943.9464	2141.7787	1339.1	451.45
944.0818	2143.2983	1324.6	442.25
944.2172	2144.8171	1325.2	444.7
944.3526	2146.3353	1329.7	443.65
944.4879	2147.8527	1326.1	442.95
944.6232	2149.3693	1325.25	442.5
944.7585	2150.8853	1324.1	441.75
944.8938	2152.4005	1321.1	438.15
945.029	2153.9149	1321.95	440.05
945.1642	2155.4287	1317.45	434.1
945.2994	2156.9417	1318.6	434.3
945.4346	2158.454	1318.6	435.05
945.5697	2159.9655	1312.5	430.65
945.7048	2161.4764	1312.5	429.95
945.8399	2162.9865	1310.8	428
945.9749	2164.4958	1308.1	423.55
946.1099	2166.0045	1310.35	425.55
946.2449	2167.5124	1303.35	420.2
946.3799	2169.0195	1312.15	428.95
946.5148	2170.526	1308.65	426.25
946.6498	2172.0317	1311.1	428.95
946.7846	2173.5367	1308.3	424.25
946.9195	2175.0409	1309.15	425.7
947.0543	2176.5445	1307.4	425.75
947.1891	2178.0473	1299.8	417.65
947.3239	2179.5494	1302.25	415.9
947.4587	2181.0507	1293.85	412.4
947.5934	2182.5513	1298.5	415.2
947.7281	2184.0512	1302	420.1
947.8628	2185.5504	1292.8	411
947.9974	2187.0488	1298.2	415.2
948.132	2188.5465	1297.4	416.3
948.2666	2190.0435	1296.55	414.4
948.4012	2191.5397	1297.25	416.8
948.5357	2193.0353	1291.25	409.25
948.6702	2194.5301	1294.35	411.1
948.8047	2196.0241	1288.2	407.05
948.9392	2197.5175	1293.25	410.6
949.0736	2199.0101	1290.25	405.25
949.208	2200.502	1284.25	404.15
949.3424	2201.9931	1286.65	403.55
949.4767	2203.4835	1286.3	399.6
949.611	2204.9733	1284.65	394
949.7453	2206.4622	1281.9	400.9
949.8796	2207.9505	1280.3	394.5
950.0138	2209.438	1272.3	392
950.148	2210.9248	1275.65	391.35
950.2822	2212.4109	1272.15	390.65
950.4164	2213.8962	1279.3	396
950.5505	2215.3809	1276.8	393.7
950.6846	2216.8648	1270.9	388
950.8186	2218.3479	1279	391.6
950.9527	2219.8304	1272.35	387.7
951.0867	2221.3121	1268.95	386.15
951.2207	2222.7931	1264.55	382.05
951.3546	2224.2733	1267.7	384.8
951.4886	2225.7529	1269	384.85
951.6225	2227.2317	1266.25	382.15
951.7563	2228.7098	1269.7	385.8
951.8902	2230.1872	1262.45	380.1
952.024	2231.6638	1259.15	375.8
952.1578	2233.1397	1260.85	373.35
952.2916	2234.6149	1259.5	377.8
952.4253	2236.0894	1253.75	368.7
952.559	2237.5632	1269.3	376.1
952.6927	2239.0362	1258.2	375.35
952.8263	2240.5085	1256.35	374.4
952.9599	2241.9801	1249.45	365.7
953.0935	2243.4509	1246.45	364.9
953.2271	2244.921	1249.25	367.75
953.3606	2246.3904	1243.85	357.7
953.4941	2247.8591	1246.5	364.2
953.6276	2249.3271	1244.25	362.7
953.7611	2250.7943	1246.65	364.05
953.8945	2252.2608	1239.2	358.05
954.0279	2253.7266	1239.7	358.4
954.1612	2255.1917	1241.1	359.3
954.2946	2256.656	1233.9	350.05
954.4279	2258.1197	1237.3	354.45
954.5612	2259.5826	1241	357.6
954.6944	2261.0447	1241.85	358.25
954.8276	2262.5062	1239.6	353.4
954.9608	2263.9669	1240.45	356.25
955.094	2265.4269	1236.65	352.1
955.2271	2266.8862	1237.15	356.85
955.3602	2268.3448	1232.3	349.85
955.4933	2269.8026	1235.15	352.8
955.6264	2271.2598	1233.65	351.95
955.7594	2272.7162	1223.9	343.95
955.8924	2274.1719	1224.35	342.7
956.0253	2275.6268	1229	346.1
956.1583	2277.0811	1228.75	344.5
956.2912	2278.5346	1224.2	342.75
956.4241	2279.9874	1228.95	343.2
956.5569	2281.4395	1227.4	345.4
956.6897	2282.8908	1225.05	335.6
956.8225	2284.3414	1219.35	336.85
956.9553	2285.7914	1219.9	337
957.088	2287.2406	1218.6	334.8
957.2207	2288.689	1232.8	349.1
957.3534	2290.1368	1219.25	337.1
957.486	2291.5838	1223.15	338.9
957.6186	2293.0302	1222.45	341.8
957.7512	2294.4758	1219.8	336.8
957.8838	2295.9206	1221.75	339.4
958.0163	2297.3648	1215.5	333.7
958.1488	2298.8082	1216.1	333.55
958.2813	2300.251	1215.55	334.45
958.4137	2301.693	1216.1	333.25
958.5461	2303.1343	1213.55	329.9
958.6785	2304.5748	1210.4	329.65
958.8108	2306.0147	1209.25	324.3
958.9432	2307.4538	1214.35	329.95
959.0754	2308.8922	1206.1	325.15
959.2077	2310.3299	1207.65	324.2
959.3399	2311.7669	1202.95	321.85
959.4721	2313.2031	1204	321.3
959.6043	2314.6387	1203.3	322.45
959.7365	2316.0735	1207.85	327.15
959.8686	2317.5076	1199.6	317.25
960.0006	2318.941	1199.65	315.6
960.1327	2320.3737	1204.1	322.05
960.2647	2321.8056	1199.05	314.25
960.3967	2323.2369	1201.2	319.1
960.5287	2324.6674	1205.9	320.5
960.6606	2326.0972	1199	313.95
960.7925	2327.5263	1196.3	315.05
960.9244	2328.9547	1201.2	318.55
961.0562	2330.3823	1200.9	317.65
961.1881	2331.8092	1201.3	316.25
961.3198	2333.2355	1195.4	314.1
961.4516	2334.661	1195.7	311.3
961.5833	2336.0858	1192.35	308.7
961.715	2337.5098	1185.45	302.95
961.8467	2338.9332	1190.2	306.95
961.9783	2340.3558	1191.2	305.9
962.1099	2341.7778	1190.4	308.15
962.2415	2343.199	1189.45	304.75
962.373	2344.6195	1188.6	305.95
962.5045	2346.0393	1188.1	306.05
962.636	2347.4583	1185.4	301.9
962.7675	2348.8767	1190.05	305.85
962.8989	2350.2943	1186.6	304.7
963.0303	2351.7113	1182.25	298.85
963.1617	2353.1275	1186.05	304.5
963.293	2354.543	1186.2	294.7
963.4243	2355.9578	1183.95	301.4
963.5556	2357.3718	1183.9	299.9
963.6868	2358.7852	1174.75	290.75
963.818	2360.1978	1179.15	296.2
963.9492	2361.6098	1173.3	291.15
964.0803	2363.021	1176.1	288.3
964.2114	2364.4315	1176.35	294.4
964.3425	2365.8413	1173.25	291.65
964.4736	2367.2504	1172.5	291.15
964.6046	2368.6587	1172.6	291.45
964.7356	2370.0664	1170.5	288
964.8666	2371.4733	1175.6	293.3
964.9975	2372.8795	1170.35	288.55
965.1284	2374.285	1165.35	281.75
965.2593	2375.6899	1168.95	288.9
965.3901	2377.0939	1167.65	286.65
965.5209	2378.4973	1167.5	285.5
965.6517	2379.9	1162.8	280.75
965.7825	2381.3019	1157.9	276.6
965.9132	2382.7032	1158.3	275.15
966.0439	2384.1037	1167.4	285.05
966.1745	2385.5035	1164.4	280.95
966.3051	2386.9027	1157.55	276.45
966.4357	2388.3011	1159.6	270.45
966.5663	2389.6987	1160.9	278.65
966.6968	2391.0957	1156.2	275.4
966.8273	2392.492	1156.25	276.45
966.9578	2393.8876	1149.2	267.4
967.0882	2395.2824	1149.1	265.95
967.2186	2396.6765	1151.95	269.95
967.349	2398.07	1147.7	268.5
967.4793	2399.4627	1147.95	265.95
967.6097	2400.8547	1148.75	266.65
967.7399	2402.246	1154.75	267.25
967.8702	2403.6366	1141.4	259.55
968.0004	2405.0265	1141.8	260.15
968.1306	2406.4156	1149.95	262.9
968.2607	2407.8041	1146.55	261.85
968.3909	2409.1918	1143.15	257.55
968.521	2410.5789	1142.65	260.1
968.651	2411.9652	1144.15	259.85
968.781	2413.3508	1143	258.8
968.911	2414.7358	1145.45	261.95
969.041	2416.12	1145.1	263.7
969.1709	2417.5035	1138.65	255.7
969.3008	2418.8863	1140.15	256.65
969.4307	2420.2684	1136.45	254
969.5606	2421.6497	1135.5	253.45
969.6904	2423.0304	1133.05	252.05
969.8201	2424.4104	1134.25	250.4
969.9499	2425.7896	1139.45	252.5
970.0796	2427.1682	1128.6	245.15
970.2093	2428.546	1130.85	246.55
970.3389	2429.9232	1130.25	246.85
970.4685	2431.2996	1129.25	248.9
970.5981	2432.6753	1132.55	252.5
970.7277	2434.0503	1129.85	246.65
970.8572	2435.4246	1128.25	246.9
970.9867	2436.7982	1130.8	245.5
971.1161	2438.1711	1125.05	243.55
971.2456	2439.5433	1130.2	247.2
971.375	2440.9148	1130.4	241.25
971.5043	2442.2856	1123.55	242.6
971.6336	2443.6557	1124.25	239.65
971.7629	2445.025	1122.1	242.05
971.8922	2446.3937	1123.7	242.15
972.0214	2447.7617	1121.65	237.2
972.1506	2449.1289	1118.85	238.3
972.2798	2450.4955	1127.15	242.65
972.4089	2451.8613	1122.5	241.35
972.538	2453.2265	1119.3	236.25
972.6671	2454.5909	1122.6	237.25
972.7961	2455.9546	1121.9	237.75
972.9251	2457.3177	1118.4	237.35
973.0541	2458.68	1122	237.45
973.1831	2460.0416	1116.55	233.5
973.312	2461.4025	1121.2	238.4
973.4408	2462.7627	1128.5	235.95
973.5697	2464.1222	1116.6	235.65
973.6985	2465.4811	1120.35	235.65
973.8273	2466.8392	1113	232.45
973.956	2468.1966	1122.2	234.65
974.0847	2469.5533	1118.9	234.2
974.2134	2470.9093	1118.55	234.6
974.3421	2472.2645	1120.6	237.15
974.4707	2473.6191	1110.9	230.2
974.5993	2474.973	1110.9	228.1
974.7278	2476.3262	1116.75	232.7
974.8563	2477.6787	1108.5	227.05
974.9848	2479.0305	1111.55	229.9
975.1132	2480.3816	1111.65	228.2
975.2417	2481.7319	1111.8	229.35
975.37	2483.0816	1109.3	225.25
975.4984	2484.4306	1107.75	224.25
975.6267	2485.7789	1109.6	226.2
975.755	2487.1264	1105.5	222.55
975.8833	2488.4733	1109.25	227.2
976.0115	2489.8195	1118	217.2
976.1397	2491.165	1108.55	222.75
976.2678	2492.5097	1103.5	218.4
976.3959	2493.8538	1097.9	215.1
976.524	2495.1972	1100.3	215.9
976.6521	2496.5398	1100.45	214.95
976.7801	2497.8818	1103.95	220.4
976.9081	2499.2231	1099.65	217.4
977.036	2500.5637	1104.9	219.9
977.164	2501.9035	1096.55	214.7
977.2918	2503.2427	1103.35	217.4
977.4197	2504.5812	1097.9	215.95
977.5475	2505.919	1103.05	217.55
977.6753	2507.256	1098.5	215.55
977.8031	2508.5924	1096.5	213.6
977.9308	2509.9281	1099.1	210
978.0585	2511.2631	1096.85	214
978.1861	2512.5974	1092.35	209.3
978.3137	2513.9309	1093	210.95
978.4413	2515.2638	1127.2	215.2
978.5689	2516.596	1090.4	207.15
978.6964	2517.9275	1091.25	207.7
978.8239	2519.2583	1092.6	209.7
978.9513	2520.5884	1091.1	207.4
979.0788	2521.9178	1090.85	208.3
979.2062	2523.2465	1088.35	206.15
979.3335	2524.5745	1091.95	209.35
979.4608	2525.9018	1089.85	208.45
979.5881	2527.2284	1086	203.65
979.7154	2528.5543	1089.8	210.3
979.8426	2529.8796	1087.5	204.4
979.9698	2531.2041	1094.2	213.65
980.0969	2532.5279	1085.1	204.1
980.224	2533.851	1085.25	203.5
980.3511	2535.1735	1083.95	201.9
980.4781	2536.4952	1089.25	206.4
980.6052	2537.8163	1085.85	204.15
980.7321	2539.1366	1087.7	203.55
980.8591	2540.4562	1083.85	200.45
980.986	2541.7752	1083.8	203.05
981.1129	2543.0935	1085.1	202.25
981.2397	2544.411	1085.5	202.2
981.3665	2545.7279	1076.5	194.9
981.4933	2547.0441	1083.65	202.1
981.62	2548.3596	1084.55	199.65
981.7467	2549.6744	1083.6	202.7
981.8734	2550.9885	1081.35	196.15
982.0001	2552.3019	1081.05	199.75
982.1267	2553.6146	1082.65	200.55
982.2532	2554.9266	1076.8	195.1
982.3798	2556.2379	1082.05	198.1
982.5063	2557.5485	1077.35	195.45
982.6327	2558.8585	1089.9	201.35
982.7592	2560.1677	1084.9	199.45
982.8856	2561.4762	1077.15	195.2
983.0119	2562.7841	1077.8	192.65
983.1383	2564.0913	1076.05	195
983.2646	2565.3977	1075.6	193.05
983.3908	2566.7035	1079.1	197.2
983.517	2568.0086	1080.35	196.7
983.6432	2569.313	1078.25	195.05
983.7694	2570.6167	1077.35	190
983.8955	2571.9197	1073.5	193.95
984.0216	2573.222	1078.75	194
984.1476	2574.5236	1072.95	190.65
984.2737	2575.8246	1077.3	192.5
984.3996	2577.1248	1076.75	190.9
984.5256	2578.4244	1070.55	189.7
984.6515	2579.7232	1074.3	190.25
984.7774	2581.0214	1104.75	185.9
984.9032	2582.3189	1076.5	194.45
985.029	2583.6157	1081.25	194.55
985.1548	2584.9118	1079.4	198.4
985.2806	2586.2072	1072.1	191.4
985.4063	2587.5019	1068.3	187
985.5319	2588.7959	1076.55	195.65
985.6576	2590.0893	1075.65	189.25
985.7832	2591.3819	1074.9	192.5
985.9087	2592.6739	1073.8	193.05
986.0343	2593.9652	1076.45	192.3
986.1597	2595.2557	1070.85	187.5
986.2852	2596.5456	1080.95	195.7
986.4106	2597.8348	1071.3	191.65
986.536	2599.1234	1069.65	188.7
986.6614	2600.4112	1072.8	190.1
986.7867	2601.6983	1082.8	196.8
986.912	2602.9848	1073.2	188.25
987.0372	2604.2705	1078.3	188.95
987.1624	2605.5556	1073.85	192.05
987.2876	2606.84	1075.75	194.35
987.4128	2608.1237	1078.85	194.4
987.5379	2609.4067	1069.4	185.4
987.6629	2610.689	1076	185.55
987.788	2611.9707	1071.25	185
987.913	2613.2516	1066.8	180.85
988.0379	2614.5319	1067.25	184.15
988.1629	2615.8115	1064.5	180.75
988.2878	2617.0903	1063.7	181.5
988.4126	2618.3685	1065.15	182.1
988.5375	2619.6461	1065.6	184.25
988.6622	2620.9229	1062.4	179.3
988.787	2622.199	1066.7	183.15
988.9117	2623.4745	1065.85	183.55
989.0364	2624.7493	1063.6	182.25
989.161	2626.0234	1058.45	177
989.2857	2627.2968	1060.45	178.2
989.4102	2628.5695	1059.35	175.7
989.5348	2629.8415	1060.6	179.3
989.6593	2631.1128	1059.45	174.55
989.7837	2632.3835	1060.55	176.05
989.9082	2633.6535	1060.35	179
990.0326	2634.9228	1065.45	183.2
990.1569	2636.1914	1056.2	173.75
990.2812	2637.4593	1065.15	176.1
990.4055	2638.7265	1056	172.65
990.5298	2639.9931	1057.65	173.5
990.654	2641.259	1059.45	174.35
990.7782	2642.5242	1059.1	178
990.9023	2643.7887	1055.7	173.75
991.0264	2645.0525	1052.1	169.1
991.1505	2646.3156	1054.15	170.65
991.2745	2647.5781	1051.6	168.95
991.3985	2648.8398	1048.6	167.9
991.5225	2650.1009	1092.9	174.25
991.6464	2651.3613	1052.9	171
991.7703	2652.6211	1049.65	166.7
991.8942	2653.8801	1051.15	168.9
992.018	2655.1385	1048.15	161.8
992.1418	2656.3961	1054	171.4
992.2655	2657.6531	1046.05	163.75
992.3892	2658.9094	1046.95	165.85
992.5129	2660.1651	1050.15	169.15
992.6366	2661.42	1051.3	168.75
992.7602	2662.6743	1051.85	171.8
992.8837	2663.9279	1052.05	170.1
993.0073	2665.1808	1050.9	168.1
993.1307	2666.433	1052.1	168.2
993.2542	2667.6846	1052.55	171.5
993.3776	2668.9354	1057.3	172.3
993.501	2670.1856	1058.65	176.45
993.6244	2671.4351	1054.35	171.3
993.7477	2672.6839	1059.1	175.3
993.8709	2673.9321	1054.95	172.7
993.9942	2675.1795	1053.15	169.8
994.1174	2676.4263	1058.95	177
994.2405	2677.6724	1057.9	177.25
994.3637	2678.9179	1061.6	177.7
994.4868	2680.1626	1059.8	178.85
994.6098	2681.4067	1058.65	174.85
994.7328	2682.6501	1060.2	178.2
994.8558	2683.8928	1053.1	170.75
994.9788	2685.1348	1051.45	171.1
995.1017	2686.3761	1050.5	168.45
995.2245	2687.6168	1051.85	170.65
995.3474	2688.8568	1049.1	166
995.4702	2690.0961	1048.65	169.15
995.5929	2691.3348	1046.85	164.5
995.7156	2692.5727	1048.8	166.7
995.8383	2693.81	1049.3	169.15
995.961	2695.0466	1045.8	164.25
996.0836	2696.2826	1046.45	162.7
996.2062	2697.5178	1053.9	168.2
996.3287	2698.7524	1047.35	164.25
996.4512	2699.9863	1047.5	163.35
996.5737	2701.2195	1043.35	162.85
996.6961	2702.452	1051.8	167.25
996.8185	2703.6839	1049.35	165.35
996.9408	2704.9151	1049.4	169.55
997.0631	2706.1456	1049	166.3
997.1854	2707.3755	1054.45	170.5
997.3077	2708.6046	1052.9	167.15
997.4299	2709.8331	1056	173.1
997.552	2711.0609	1060.6	176.55
997.6742	2712.2881	1060.6	178.65
997.7963	2713.5145	1065.7	178.45
997.9183	2714.7403	1064.4	183.65
998.0403	2715.9654	1066.7	183.15
998.1623	2717.1899	1087.25	191.3
998.2842	2718.4136	1070.15	187.3
998.4062	2719.6367	1073.45	190.6
998.528	2720.8591	1084.8	193.85
998.6498	2722.0809	1079.65	196.85
998.7716	2723.3019	1090.55	204.35
998.8934	2724.5223	1088.25	203.3
999.0151	2725.7421	1093.9	211.05
999.1368	2726.9611	1093.25	208.15
999.2584	2728.1795	1085.65	198.65
999.38	2729.3972	1089.15	206.8
999.5016	2730.6142	1089.7	194.15
999.6231	2731.8306	1078.55	195.65
999.7446	2733.0462	1071.55	185.75
999.8661	2734.2612	1077.85	191.75
999.9875	2735.4756	1065.3	180.7
1000.1089	2736.6892	1064.5	181.65
1000.2302	2737.9022	1055.9	176.9
1000.3515	2739.1145	1059.2	176.55
1000.4728	2740.3262	1060.45	170.15
1000.594	2741.5372	1049.75	164.15
1000.7152	2742.7475	1042.8	159.8
1000.8363	2743.9571	1046.55	163.1
1000.9575	2745.1661	1044.3	156.35
1001.0785	2746.3744	1038.9	156.75
1001.1996	2747.582	1038.7	156.65
1001.3206	2748.7889	1035.35	151.9
1001.4415	2749.9952	1033.2	151.55
1001.5625	2751.2008	1032.55	148.25
1001.6833	2752.4057	1032.25	147.1
1001.8042	2753.61	1026.9	143.65
1001.925	2754.8136	1027.05	142.2
1002.0458	2756.0165	1023.2	141.35
1002.1665	2757.2188	1024.75	142.6
1002.2872	2758.4204	1024.7	142.55
1002.4078	2759.6213	1026.15	140.1
1002.5285	2760.8215	1030.7	141.35
1002.649	2762.0211	1026.85	143.4
1002.7696	2763.22	1027.85	141.45
1002.8901	2764.4182	1021.95	137.9
1003.0106	2765.6158	1027.3	144.05
1003.131	2766.8127	1024.6	140.2
1003.2514	2768.009	1021.2	140.4
1003.3717	2769.2045	1020.45	136.25
1003.492	2770.3994	1023.1	138.65
1003.6123	2771.5936	1017.95	134.6
1003.7325	2772.7872	1019.05	135.5
1003.8527	2773.9801	1021.05	138.25
1003.9729	2775.1723	1037	137.2
1004.093	2776.3639	1018.5	137
1004.2131	2777.5548	1021.3	135.3
1004.3331	2778.745	1017.9	133.7
1004.4531	2779.9346	1012.15	129.75
1004.5731	2781.1235	1019.15	134.45
1004.693	2782.3117	1019.15	135.4
1004.8129	2783.4992	1017.95	135.15
1004.9328	2784.6861	1018.8	136.75
1005.0526	2785.8723	1021.45	138.15
1005.1723	2787.0579	1018.85	135.7
1005.2921	2788.2428	1018	136.75
1005.4118	2789.427	1020.1	136.8
1005.5314	2790.6106	1023.35	139.95
1005.651	2791.7935	1028	144.85
1005.7706	2792.9757	1022.55	140.3
1005.8902	2794.1573	1032.9	148.2
1006.0097	2795.3382	1027.35	144.5
1006.1291	2796.5184	1027.75	145.35
1006.2485	2797.698	1038.4	153.95
1006.3679	2798.8769	1034.05	152.65
1006.4873	2800.0551	1043.6	160.2
1006.6066	2801.2327	1044.4	160.5
1006.7258	2802.4096	1040.35	158.2
1006.8451	2803.5859	1051.95	168.4
1006.9642	2804.7615	1057.9	175.15
1007.0834	2805.9364	1056.8	175.6
1007.2025	2807.1106	1062.5	180.35
1007.3216	2808.2842	1070.35	187.2
1007.4406	2809.4572	1075.9	192.1
1007.5596	2810.6294	1087.8	206.65
1007.6785	2811.801	1095.65	213.95
1007.7975	2812.972	1097.35	214.7
1007.9163	2814.1423	1114.95	232.5
1008.0352	2815.3119	1124.2	239.55
1008.154	2816.4808	1135.3	255.8
1008.2727	2817.6491	1146.35	263.5
1008.3914	2818.8167	1164.5	284.55
1008.5101	2819.9837	1186.75	298.8
1008.6288	2821.15	1195.35	312.85
1008.7474	2822.3157	1205.85	321.65
1008.8659	2823.4807	1224.65	342.4
1008.9844	2824.645	1233.3	350.2
1009.1029	2825.8086	1257.6	374.65
1009.2214	2826.9716	1271	388.45
1009.3398	2828.134	1284.55	403
1009.4581	2829.2957	1301.05	419.05
1009.5764	2830.4567	1307.15	427.85
1009.6947	2831.617	1315.85	432.85
1009.813	2832.7767	1323.5	440.7
1009.9312	2833.9358	1320.45	438.45
1010.0493	2835.0941	1318.2	434.95
1010.1675	2836.2519	1314.7	433.7
1010.2855	2837.4089	1308.3	424
1010.4036	2838.5653	1296.5	413.9
1010.5216	2839.7211	1296.25	413.2
1010.6396	2840.8761	1299.6	416.05
1010.7575	2842.0306	1298.85	418.15
1010.8754	2843.1843	1298.4	416
1010.9932	2844.3374	1307.2	425.95
1011.111	2845.4899	1321.2	438.45
1011.2288	2846.6417	1336.4	454.25
1011.3465	2847.7928	1351.75	470.75
1011.4642	2848.9433	1363.65	480.95
1011.5818	2850.0931	1375.05	493.5
1011.6995	2851.2422	1400.2	516.25
1011.817	2852.3907	1416.25	534.25
1011.9345	2853.5385	1429.55	546.35
1012.052	2854.6857	1456.5	546.75
1012.1695	2855.8323	1452.9	569.15
1012.2869	2856.9781	1463.55	582.85
1012.4042	2858.1233	1468.7	586.1
1012.5216	2859.2679	1479.5	595.9
1012.6389	2860.4118	1497.55	614.95
1012.7561	2861.555	1515.95	629.4
1012.8733	2862.6976	1528.15	643.1
1012.9905	2863.8395	1538.3	654.75
1013.1076	2864.9808	1542.4	659.25
1013.2247	2866.1214	1542.9	662.45
1013.3417	2867.2614	1548.3	664.85
1013.4587	2868.4007	1565.7	684.75
1013.5757	2869.5393	1563.8	680.1
1013.6926	2870.6773	1568	682.5
1013.8095	2871.8146	1573	688.05
1013.9263	2872.9513	1576.15	691.1
1014.0431	2874.0874	1564	682.35
1014.1599	2875.2227	1560.75	677.55
1014.2766	2876.3574	1565.2	682.45
1014.3933	2877.4915	1558.1	675.5
1014.51	2878.6249	1551.75	670.65
1014.6266	2879.7577	1543.15	657.85
1014.7431	2880.8898	1546.8	652.35
1014.8596	2882.0212	1532.5	650.85
1014.9761	2883.152	1525.8	643.7
1015.0925	2884.2821	1526.05	642.2
1015.2089	2885.4116	1521.8	642
1015.3253	2886.5405	1525.15	640.35
1015.4416	2887.6686	1542.1	656.45
1015.5579	2888.7962	1530.3	650.25
1015.6741	2889.923	1531.35	649.6
1015.7903	2891.0493	1542	661.2
1015.9065	2892.1748	1540.2	658.85
1016.0226	2893.2997	1546.05	660.15
1016.1387	2894.424	1551.35	671.65
1016.2547	2895.5476	1547.95	666.45
1016.3707	2896.6706	1548.75	666.65
1016.4866	2897.7929	1562.75	677.45
1016.6025	2898.9145	1570.9	690
1016.7184	2900.0355	1576.5	692.55
1016.8342	2901.1559	1576.55	692.15
1016.95	2902.2756	1584.85	704.45
1017.0658	2903.3946	1589.1	707.75
1017.1815	2904.513	1603.65	719.95
1017.2971	2905.6308	1607.35	725.1
1017.4127	2906.7479	1616.4	732.5
1017.5283	2907.8643	1614.55	730.45
1017.6439	2908.9801	1625.5	741.8
1017.7594	2910.0953	1614.5	732.7
1017.8748	2911.2098	1622.1	735.35
1017.9902	2912.3236	1625.65	735.85
1018.1056	2913.4368	1619.7	733.75
1018.2209	2914.5494	1607.45	723.55
1018.3362	2915.6613	1596.4	707.5
1018.4515	2916.7725	1595.4	709.8
1018.5667	2917.8831	1587	705.3
1018.6819	2918.9931	1581.4	694.5
1018.797	2920.1024	1560.4	676.55
1018.9121	2921.211	1553.65	672.25
1019.0271	2922.319	1554.95	671.9
1019.1421	2923.4264	1552.7	669.25
1019.2571	2924.5331	1547.65	666.6
1019.372	2925.6391	1544.8	662.3
1019.4869	2926.7445	1549.45	668.25
1019.6017	2927.8493	1546.9	664.55
1019.7165	2928.9534	1549.45	666.15
1019.8313	2930.0569	1556.3	672.8
1019.946	2931.1597	1558.2	675.05
1020.0606	2932.2619	1555.9	671.35
1020.1753	2933.3634	1546.15	661.65
1020.2899	2934.4643	1564.9	674.95
1020.4044	2935.5645	1566.75	679.35
1020.5189	2936.6641	1556.1	669.15
1020.6334	2937.763	1547.95	667.85
1020.7478	2938.8613	1534.65	651.75
1020.8622	2939.959	1536.75	649.15
1020.9765	2941.056	1506.85	624.8
1021.0908	2942.1523	1504.35	621.3
1021.2051	2943.248	1480.05	596.15
1021.3193	2944.3431	1458.5	575.95
1021.4334	2945.4375	1428.1	545.35
1021.5476	2946.5313	1401.7	521
1021.6617	2947.6244	1383.2	500.2
1021.7757	2948.7169	1358.6	476.1
1021.8897	2949.8087	1325.25	443.05
1022.0037	2950.8999	1315.1	432.85
1022.1176	2951.9904	1283.25	401.5
1022.2315	2953.0803	1261.65	376.5
1022.3453	2954.1696	1252.2	371.4
1022.4591	2955.2582	1239.65	357
1022.5728	2956.3462	1228.95	347.2
1022.6865	2957.4335	1217.1	333.55
1022.8002	2958.5202	1215.75	332.1
1022.9138	2959.6062	1199.6	317.25
1023.0274	2960.6916	1196.3	313.15
1023.141	2961.7764	1192.45	308.9
1023.2545	2962.8605	1191.2	306.85
1023.3679	2963.9439	1182.05	300.2
1023.4813	2965.0267	1180.9	297.95
1023.5947	2966.1089	1195.95	291.05
1023.708	2967.1905	1181.8	299.6
1023.8213	2968.2714	1179.7	298.25
1023.9346	2969.3516	1174.6	292.45
1024.0478	2970.4312	1187.5	299.55
1024.1609	2971.5102	1174	294.15
1024.274	2972.5885	1184.2	303
1024.3871	2973.6662	1186.3	298.9
1024.5002	2974.7432	1180.4	298.7
1024.6132	2975.8196	1189.25	308.85
1024.7261	2976.8954	1178.85	296.1
1024.839	2977.9705	1181.2	297.95
1024.9519	2979.045	1175.25	292.55
1025.0647	2980.1188	1172.7	290.1
1025.1775	2981.192	1171.5	289.55
1025.2902	2982.2645	1159.85	279.6
1025.4029	2983.3364	1162.15	279.4
1025.5156	2984.4077	1151.9	270.65
1025.6282	2985.4783	1151.7	263.8
1025.7407	2986.5483	1138.25	256.15
1025.8532	2987.6177	1126.05	243.7
1025.9657	2988.6864	1121.2	238.95
1026.0782	2989.7545	1112.6	229.1
1026.1906	2990.8219	1103.65	222.35
1026.3029	2991.8887	1096.85	212.95
1026.4152	2992.9548	1085.75	203.05
1026.5275	2994.0204	1074.6	192.65
1026.6397	2995.0852	1068.2	187.5
1026.7519	2996.1495	1058.75	174.7
1026.864	2997.2131	1059.2	176.9
1026.9761	2998.276	1040.05	157.7
1027.0882	2999.3383	1039.75	155.75
1027.2002	3000.4	1032.75	149.3
1027.3122	3001.4611	1030	146.45
1027.4241	3002.5215	1025.7	142.3
1027.536	3003.5812	1018.2	137.65
1027.6478	3004.6404	1018.55	136.8
1027.7596	3005.6989	1019	133.8
1027.8714	3006.7567	1009.85	126.95
1027.9831	3007.8139	1037	126.1
1028.0947	3008.8705	1003.45	120.35
1028.2064	3009.9264	1016.4	117.7
1028.3179	3010.9818	1001.1	118.75
1028.4295	3012.0364	996.3	113.35
1028.541	3013.0905	993.95	111.4
1028.6524	3014.1439	994.65	111.65
1028.7638	3015.1966	989.2	105.2
1028.8752	3016.2487	990.65	106.95
1028.9865	3017.3002	997.35	107.9
1029.0978	3018.3511	987.2	104.7
1029.209	3019.4013	987.35	102.55
1029.3202	3020.4509	986.25	106.15
1029.4314	3021.4998	985.45	102.05
1029.5425	3022.5481	987.1	103.65
1029.6535	3023.5958	988.8	107.85
1029.7645	3024.6428	989.75	105.55
1029.8755	3025.6892	986.1	102.9
1029.9864	3026.735	983.55	99.45
1030.0973	3027.7802	983.65	101.3
1030.2082	3028.8247	986.45	104.85
1030.319	3029.8685	982.5	101.15
1030.4297	3030.9118	984.45	100
1030.5404	3031.9544	985.65	103.1
1030.6511	3032.9963	984.65	101.8
1030.7617	3034.0376	986.6	105.25
1030.8723	3035.0783	990.3	105.75
1030.9829	3036.1184	987.2	102.15
1031.0934	3037.1578	987.2	106.6
1031.2038	3038.1966	987.2	105.25
1031.3142	3039.2348	987.45	107.5
1031.4246	3040.2723	996.2	105.3
1031.5349	3041.3092	986.95	107.75
1031.6452	3042.3455	986.65	103.15
1031.7554	3043.3811	989.15	106.45
1031.8656	3044.4161	986.5	105
1031.9758	3045.4505	989.45	107.7
1032.0859	3046.4842	985.65	104.4
1032.1959	3047.5173	983.8	102.25
1032.3059	3048.5498	986.75	104.6
1032.4159	3049.5816	985.35	101.35
1032.5258	3050.6128	986.3	102.8
1032.6357	3051.6434	988.5	105.75
1032.7455	3052.6734	984.8	101.05
1032.8553	3053.7027	984.7	103.1
1032.9651	3054.7314	982.4	100.55
1033.0748	3055.7594	979.65	98
1033.1845	3056.7868	979.15	97.6
1033.2941	3057.8136	978.25	95.4
1033.4037	3058.8398	977.8	94.6
1033.5132	3059.8653	981.55	99.3
1033.6227	3060.8902	978.35	95.35
1033.7321	3061.9145	979.55	97.2
1033.8415	3062.9381	979.9	98.25
1033.9509	3063.9612	994.8	96.65
1034.0602	3064.9835	980.55	98.35
1034.1694	3066.0053	976	92.4
1034.2787	3067.0264	973.45	92.35
1034.3878	3068.0469	974.6	90
1034.497	3069.0668	972.65	89.35
1034.6061	3070.086	971.35	89.9
1034.7151	3071.1046	969.8	84.75
1034.8241	3072.1226	973.95	90.45
1034.9331	3073.1399	966	84.35
1035.042	3074.1567	966.05	83.2
1035.1508	3075.1727	964.95	80
1035.2597	3076.1882	964.85	82.9
1035.3684	3077.203	960.2	79.1
1035.4772	3078.2173	961.25	79.7
1035.5859	3079.2308	958.2	72.3
1035.6945	3080.2438	957.8	72.65
1035.8031	3081.2561	956.65	73.85
1035.9117	3082.2678	951.9	70.55
1036.0202	3083.2789	951.1	68.05
1036.1286	3084.2893	950.4	68.35
1036.2371	3085.2991	945.95	63.85
1036.3454	3086.3083	952.45	63.45
1036.4538	3087.3169	948.65	65.5
1036.562	3088.3248	946.8	62.8
1036.6703	3089.3321	946.4	61.4
1036.7785	3090.3388	941.75	58.9
1036.8866	3091.3449	941.4	58.7
1036.9948	3092.3503	944.15	60.4
1037.1028	3093.3551	937.95	59.7
1037.2108	3094.3593	937.4	54.5
1037.3188	3095.3629	938.15	55.8
1037.4267	3096.3658	938.95	53.95
1037.5346	3097.3681	934.8	52.75
1037.6425	3098.3698	934.85	50.4
1037.7503	3099.3708	940.9	50.9
1037.858	3100.3713	935.1	52.25
1037.9657	3101.3711	932.65	49.9
1038.0734	3102.3702	1073.05	48.8
1038.181	3103.3688	935	50.05
1038.2886	3104.3667	929.8	47.6
1038.3961	3105.364	930.4	48.85
1038.5036	3106.3607	933.25	48.35
1038.611	3107.3568	931.1	46.15
1038.7184	3108.3522	927.35	44.85
1038.8257	3109.347	930.15	45.35
1038.933	3110.3412	932.75	45.65
1039.0403	3111.3348	927.7	44.9
1039.1475	3112.3277	924.65	42.55
1039.2547	3113.32	926.2	45
1039.3618	3114.3117	927.3	44.6
1039.4689	3115.3028	925.75	44.05
1039.5759	3116.2932	928.05	42.7
1039.6829	3117.2831	933.75	46.35
1039.7898	3118.2723	921.85	39
1039.8967	3119.2608	925.3	41.95
1040.0035	3120.2488	921.85	39.95
1040.1103	3121.2361	923.95	39.8
1040.2171	3122.2229	923.65	41.7
1040.3238	3123.209	920.15	37.15
1040.4305	3124.1944	924.4	42.15
1040.5371	3125.1793	922.55	38.65
1040.6437	3126.1635	921.55	40.1
1040.7502	3127.1471	920.15	39.3
1040.8567	3128.1301	920.55	37.5
1040.9631	3129.1125	921.45	40.2
1041.0695	3130.0942	919.15	36.7
1041.1759	3131.0753	928.05	38.3
1041.2822	3132.0558	920.55	34.3
1041.3884	3133.0357	919.85	36.45
1041.4946	3134.015	919.05	36.75
1041.6008	3134.9936	920.05	35.4
1041.7069	3135.9716	938.9	36.9
1041.813	3136.949	917.6	35.3
1041.919	3137.9258	935.25	36.05
1042.025	3138.902	922.45	32.65
1042.1309	3139.8775	914.35	32.95
1042.2368	3140.8524	915.7	32.3
1042.3427	3141.8267	917.65	35.5
1042.4485	3142.8004	916.7	34.85
1042.5542	3143.7735	924.95	37.1
1042.6599	3144.7459	915.45	32.95
1042.7656	3145.7178	915.7	32.6
1042.8712	3146.689	912.1	29.25
1042.9768	3147.6596	915.85	32.9
1043.0823	3148.6295	913.65	28.25
1043.1878	3149.5989	915.8	33.45
1043.2932	3150.5676	913.15	33.25
1043.3986	3151.5357	913.4	31.05
1043.5039	3152.5032	911.3	28.35
1043.6092	3153.4701	913.05	30.4
1043.7145	3154.4364	916.8	31.85
1043.8197	3155.402	912.25	31.7
1043.9248	3156.367	913.85	30.3
1044.03	3157.3315	928.4	27.85
1044.135	3158.2952	913.55	30.35
1044.24	3159.2584	911.7	28.9
1044.345	3160.221	911.8	28.6
1044.4499	3161.1829	909	26.15
1044.5548	3162.1442	911.45	29.3
1044.6596	3163.105	911.45	29.15
1044.7644	3164.065	910.4	27.5
1044.8692	3165.0245	911.4	28.75
1044.9739	3165.9834	910.6	29.9
1045.0785	3166.9416	908.9	26.5
1045.1831	3167.8993	909	26.2
1045.2877	3168.8563	913	30.7
1045.3922	3169.8127	910.55	27.6
1045.4966	3170.7684	911.05	26.65
1045.6011	3171.7236	909.95	25.6
1045.7054	3172.6782	909.4	28.85
1045.8098	3173.6321	910.65	26.6
1045.914	3174.5854	913.65	25.4
1046.0183	3175.5381	912.6	31.1
1046.1224	3176.4902	909.5	25.85
1046.2266	3177.4417	907.05	25.05
1046.3307	3178.3926	907.95	23.6
1046.4347	3179.3428	908.7	28.5
1046.5387	3180.2924	910.3	27.7
1046.6427	3181.2415	908.6	26.95
1046.7466	3182.1899	910.15	26.5
1046.8504	3183.1377	906.55	25.8
1046.9542	3184.0848	908.95	23.05
1047.058	3185.0314	908	25.05
1047.1617	3185.9773	908.85	26.85
1047.2654	3186.9227	909.5	25.55
1047.369	3187.8674	906.45	23
1047.4726	3188.8115	908.9	25.05
1047.5761	3189.755	907.4	25.45
1047.6796	3190.6979	905.5	22.6
1047.783	3191.6402	904.95	23
1047.8864	3192.5818	904.5	22.4
1047.9898	3193.5229	911.3	23.2
1048.0931	3194.4633	905.2	21.3
1048.1963	3195.4031	905.8	20.5
1048.2995	3196.3423	903.4	21.2
1048.4027	3197.2809	907	24.7
1048.5058	3198.2189	905.35	23.2
1048.6089	3199.1563	924.6	26
1048.7119	3200.0931	905.25	24.4
1048.8148	3201.0292	903.05	23.05
1048.9178	3201.9648	906.3	23.75
1049.0206	3202.8997	906.95	23.4
1049.1235	3203.834	903.8	21.95
1049.2262	3204.7677	902.4	18.5
1049.329	3205.7008	905.4	19.75
1049.4317	3206.6333	901.65	21.6
1049.5343	3207.5652	905.6	22.25
1049.6369	3208.4964	904.4	21.15
1049.7394	3209.4271	903.15	20.6
1049.8419	3210.3571	904.4	23.85
1049.9444	3211.2865	905	21.55
1050.0468	3212.2154	904.45	20.35
1050.1491	3213.1436	906.35	20.5
1050.2514	3214.0712	910.3	21
1050.3537	3214.9982	902.25	19.4
1050.4559	3215.9246	901.4	18.7
1050.5581	3216.8503	903.35	21.1
1050.6602	3217.7755	903.95	22.1
1050.7623	3218.7001	903.6	22.45
1050.8643	3219.624	902.95	21
1050.9663	3220.5473	906.9	22.6
1051.0682	3221.4701	902.7	19.65
1051.1701	3222.3922	907.5	22.95
1051.2719	3223.3137	901.05	19.15
1051.3737	3224.2346	901.65	17.45
1051.4754	3225.1549	901.2	19.35
1051.5771	3226.0746	901.85	20.3
1051.6788	3226.9937	901.25	18.55
1051.7804	3227.9121	901.25	19.55
1051.8819	3228.83	901.3	21
1051.9834	3229.7473	904.05	20.85
1052.0849	3230.6639	901.6	18.1
1052.1863	3231.5799	900.8	18.35
1052.2876	3232.4954	899.4	18.15
1052.3889	3233.4102	899.8	18.5
1052.4902	3234.3244	902.2	21.4
1052.5914	3235.238	900.2	19.25
1052.6926	3236.151	924.4	15.65
1052.7937	3237.0634	899.7	16.85
1052.8948	3237.9752	899.95	18.55
1052.9958	3238.8864	900.2	16.45
1053.0968	3239.797	900.5	19.6
1053.1977	3240.7069	899.2	14.7
1053.2986	3241.6163	901.95	16.9
1053.3994	3242.5251	899.8	19.8
1053.5002	3243.4332	898.75	16.8
1053.6009	3244.3408	899.85	18.6
1053.7016	3245.2477	897.65	16.4
1053.8022	3246.154	900.4	16.05
1053.9028	3247.0598	898.95	16
1054.0034	3247.9649	899.75	17.7
1054.1039	3248.8694	899.7	18.55
1054.2043	3249.7733	899.55	16.55
1054.3047	3250.6766	898.6	16
1054.4051	3251.5793	900.4	16.45
1054.5054	3252.4814	896.45	14.4
1054.6056	3253.3829	897.75	12.55
1054.7058	3254.2838	899	18.15
1054.806	3255.1841	897.05	13.75
1054.9061	3256.0838	897.45	16.45
1055.0061	3256.9829	897.9	17.45
1055.1062	3257.8814	899.7	16.7
1055.2061	3258.7792	901.05	15.05
1055.306	3259.6765	897.25	14.65
1055.4059	3260.5731	895.95	14.45
1055.5057	3261.4692	896.85	13.5
1055.6055	3262.3647	899.5	14.3
1055.7052	3263.2595	895.95	14.95
1055.8049	3264.1538	897.05	15.45
1055.9045	3265.0474	896.65	13.4
1056.0041	3265.9404	895.1	14.25
1056.1036	3266.8329	893.7	11.65
1056.2031	3267.7247	904.7	12.45
1056.3025	3268.616	894.4	12.8
1056.4019	3269.5066	895.05	12.5
1056.5013	3270.3966	897.65	14.45
1056.6005	3271.286	895.1	14.35
