Software Version:	3.9.2.0
Unit SN:	10000200
Spectrometer SN:	6960
Date:	3/14/2024 2:24:20 PM
Data Line Index:	25
Spectral Points:	2048
Integration time (ms):	125
Averages:	20
Delay (ms):	30000
Sequence Number:	1
Processing:	dark subtract
Laser Power (mW):	305
Laser Current (mA):	826
Laser Diode Temp (C):	25
Laser Case Temp (C):	29.2
System Temp (C):	29.2
Spectrometer Temp (C):	27
CCD Temp (C):	0.012
Secondary Temp (C):	20.006
Heatsink Temp (C):	25.155
CCDPCB Temp (C):	38.541
SecondaryPCB Temp (C):	36.151

Wavelength	RamanShift	Raw Counts	Dark Subtracted
787.061	30.1047	455.75	47.45
787.2016	32.3739	456.8	49.95
787.3422	34.6426	464.5	56.9
787.4828	36.9109	470.35	60.7
787.6235	39.1787	476.55	63.2
787.7642	41.4461	488.2	70.05
787.9049	43.7131	493.45	71.6
788.0456	45.9796	499.6	73.35
788.1863	48.2456	513.05	83.2
788.3271	50.5112	522.1	86
788.4679	52.7764	527.9	89.7
788.6087	55.0411	540.95	100.05
788.7496	57.3054	551.95	107.45
788.8904	59.5692	561.25	112.95
789.0313	61.8326	571.95	120
789.1722	64.0955	586.55	129.4
789.3132	66.3579	600.75	138
789.4541	68.6199	621.15	156.95
789.5951	70.8815	650.1	180.7
789.7361	73.1426	723.9	251.6
789.8771	75.4032	906.8	428.75
790.0181	77.6634	1365.1	882.45
790.1592	79.9231	2467.25	1979.5
790.3003	82.1824	4860.15	4364.25
790.4414	84.4412	9274.6	8762.45
790.5825	86.6995	15509.9	14974.75
790.7237	88.9574	21809.35	21255.9
790.8648	91.2148	26300.9	25736.05
791.006	93.4717	28537.95	27962.75
791.1472	95.7282	29091.25	28511.45
791.2885	97.9842	29119.2	28536.4
791.4297	100.2398	28606.05	28019.3
791.571	102.4949	28068.45	27478.25
791.7123	104.7495	27329.05	26735.25
791.8536	107.0036	26503.8	25911.85
791.9949	109.2573	25713.1	25119.6
792.1363	111.5105	24852	24256.4
792.2777	113.7632	24003.75	23407.35
792.4191	116.0154	23321.35	22714.85
792.5605	118.2672	22761.55	22162
792.7019	120.5185	22172	21571.25
792.8434	122.7693	21769.15	21162.6
792.9849	125.0197	21374.05	20766.85
793.1264	127.2696	21068	20459.4
793.2679	129.519	20912.4	20299.8
793.4094	131.7679	20728.7	20115.05
793.551	134.0163	20603	19984.9
793.6926	136.2642	20441.6	19818.6
793.8342	138.5117	20276.45	19646.15
793.9758	140.7587	20153.05	19527.35
794.1175	143.0052	19956.6	19327.25
794.2591	145.2512	19758.95	19129.1
794.4008	147.4967	19512.35	18883.15
794.5425	149.7417	19349.7	18718.4
794.6842	151.9863	19234.2	18597.8
794.826	154.2304	19155.6	18519.75
794.9677	156.4739	19025.1	18382.65
795.1095	158.717	18953.85	18309.85
795.2513	160.9596	18788.75	18140.1
795.3931	163.2017	18519.8	17869.6
795.535	165.4433	18226.3	17577.2
795.6768	167.6844	17883.75	17229.4
795.8187	169.925	17536.1	16876.4
795.9606	172.1651	17145.25	16485.9
796.1025	174.4047	16781.2	16116.45
796.2445	176.6439	16481.55	15816
796.3864	178.8825	16196.15	15525.7
796.5284	181.1206	15985.45	15313.6
796.6704	183.3582	15771.1	15096.3
796.8124	185.5954	15675.45	15000.25
796.9544	187.832	15541.3	14860.55
797.0965	190.0681	15480.55	14798.3
797.2386	192.3037	15452.5	14765.7
797.3806	194.5388	15423.3	14732.3
797.5228	196.7734	15460.6	14766.9
797.6649	199.0075	15526.15	14832.95
797.807	201.2411	15649.85	14952.1
797.9492	203.4742	15683.9	14986.5
798.0914	205.7068	15821.95	15124.35
798.2336	207.9389	15879.35	15181.7
798.3758	210.1704	16034.65	15334.2
798.518	212.4015	16155.45	15452.75
798.6603	214.632	16333.5	15629.2
798.8025	216.862	16518.4	15818.35
798.9448	219.0915	16742.2	16050.9
799.0871	221.3205	17012.25	16325.35
799.2294	223.549	17300.5	16615.75
799.3718	225.777	17658.95	16977.4
799.5141	228.0044	18157.3	17471.45
799.6565	230.2314	18700.1	18017.1
799.7989	232.4578	19215.6	18530.25
799.9413	234.6837	19683.95	18993.35
800.0837	236.909	19961.85	19270.8
800.2262	239.1339	19941.95	19225.4
800.3687	241.3582	19653.6	18954.25
800.5111	243.582	19201.35	18471.45
800.6536	245.8053	18751.95	18031.4
800.7961	248.0281	18306.3	17591.05
800.9387	250.2503	17941.3	17222.95
801.0812	252.472	17714.35	16986.45
801.2238	254.6932	17538.45	16809.9
801.3664	256.9139	17376.75	16646.9
801.509	259.134	17284.35	16551
801.6516	261.3536	17114.25	16385.35
801.7942	263.5727	17087.95	16356.2
801.9369	265.7912	16924.55	16196.05
802.0795	268.0092	16816.8	16084.55
802.2222	270.2267	16728.55	15996.9
802.3649	272.4436	16639.9	15905.05
802.5076	274.6601	16576.8	15833.5
802.6504	276.8759	16497.7	15756.6
802.7931	279.0913	16523.55	15782.25
802.9359	281.3061	16547.15	15806.5
803.0787	283.5204	16631.45	15887.85
803.2215	285.7341	16775.8	16027.65
803.3643	287.9473	16974.6	16228.75
803.5071	290.16	17245.7	16496.15
803.6499	292.3721	17627.95	16884
803.7928	294.5837	18132.4	17382.5
803.9357	296.7947	18532.4	17784
804.0786	299.0052	18767.45	18018.55
804.2215	301.2152	18607.3	17856.2
804.3644	303.4246	18209.35	17460.05
804.5074	305.6334	17568.25	16816.9
804.6503	307.8418	16954.75	16202.5
804.7933	310.0495	16524.75	15772.9
804.9363	312.2568	16149.8	15399.25
805.0793	314.4635	15917	15163.25
805.2223	316.6696	15866.35	15111.9
805.3653	318.8752	15827.65	15064.2
805.5084	321.0802	15916	15158.6
805.6514	323.2847	16023.8	15266.1
805.7945	325.4887	16082.85	15327.4
805.9376	327.692	16034.5	15275.5
806.0807	329.8949	15908	15146.6
806.2238	332.0972	15573.65	14812.95
806.367	334.2989	15277.55	14512.55
806.5101	336.5001	14973.25	14209.15
806.6533	338.7007	14761.65	13994.45
806.7965	340.9008	14570.5	13805.7
806.9397	343.1003	14451.2	13683.1
807.0829	345.2992	14395.6	13625.4
807.2261	347.4976	14352.45	13578.35
807.3693	349.6955	14343.3	13568.45
807.5126	351.8927	14420.55	13642.85
807.6559	354.0895	14385.55	13601.45
807.7991	356.2856	14449.15	13673.95
807.9424	358.4812	14434.7	13660.35
808.0857	360.6763	14425.15	13648.55
808.2291	362.8707	14365.4	13587.15
808.3724	365.0646	14434.15	13654.05
808.5158	367.258	14382.95	13598.65
808.6591	369.4508	14404.45	13616.2
808.8025	371.643	14436	13648.85
808.9459	373.8346	14404.25	13618.2
809.0893	376.0257	14358.95	13567
809.2327	378.2162	14269.2	13477.3
809.3762	380.4062	14140.55	13347.3
809.5196	382.5956	13953	13157.15
809.6631	384.7844	13863.55	13071.4
809.8066	386.9726	13710.45	12914.35
809.9501	389.1603	13641.25	12844.45
810.0936	391.3474	13604.1	12768.2
810.2371	393.5339	13565.15	12769.65
810.3806	395.7199	13501.1	12710.1
810.5241	397.9052	13512.2	12723.5
810.6677	400.09	13510.05	12720.85
810.8113	402.2743	13538.2	12751.95
810.9548	404.4579	13615.75	12831.05
811.0984	406.641	13726.25	12939.2
811.2421	408.8235	13937.45	13150.7
811.3857	411.0054	14289	13503.35
811.5293	413.1868	14850.6	14061.15
811.673	415.3675	15226.65	14438.55
811.8166	417.5477	15505.8	14717.75
811.9603	419.7273	15560.95	14764.55
812.104	421.9064	15406.15	14600.75
812.2477	424.0848	15295.05	14497.15
812.3914	426.2627	15053.25	14250.5
812.5351	428.4399	14716.05	13913.95
812.6788	430.6166	14321.25	13515.95
812.8226	432.7928	13918.2	13111.1
812.9663	434.9683	13559.65	12751.65
813.1101	437.1432	13327.15	12516.25
813.2539	439.3176	13128.75	12320.45
813.3977	441.4914	12983.55	12170.9
813.5415	443.6645	12943.5	12127.7
813.6853	445.8371	12860.8	12047.9
813.8291	448.0091	12775.55	11967.55
813.973	450.1806	12728.75	11917.95
814.1168	452.3514	12657.1	11841.35
814.2607	454.5216	12647.3	11824.9
814.4046	456.6913	12555.75	11738.65
814.5485	458.8603	12554.6	11739.5
814.6924	461.0288	12621.95	11807.55
814.8363	463.1967	12663.25	11845.7
814.9802	465.3639	12790.4	11973.4
815.1241	467.5306	12943.2	12125.45
815.2681	469.6967	13121.95	12304.8
815.412	471.8622	13309.7	12493.8
815.556	474.0271	13482.7	12667.4
815.7	476.1914	13577.35	12757.5
815.844	478.3551	13531.8	12712.8
815.988	480.5182	13472.05	12653.3
816.132	482.6807	13385.65	12566.3
816.276	484.8426	13452.8	12633.45
816.4201	487.0039	13666.2	12845.9
816.5641	489.1647	14087.6	13264.55
816.7082	491.3248	14591.55	13770.55
816.8522	493.4843	14813.15	13992.15
816.9963	495.6432	14847.8	14025.6
817.1404	497.8015	14777.65	13954.4
817.2845	499.9592	14798.6	13976.75
817.4286	502.1163	14763.75	13943.3
817.5727	504.2728	14586.1	13764.05
817.7168	506.4287	14240.15	13417.4
817.861	508.5839	13740.65	12914.85
818.0051	510.7386	13351.6	12524.65
818.1493	512.8927	13113.65	12284.9
818.2935	515.0461	12892.1	12067.65
818.4377	517.199	12761.5	11937.5
818.5818	519.3512	12670.05	11842.95
818.726	521.5029	12651.85	11817.55
818.8703	523.6539	12650.25	11819.15
819.0145	525.8043	12646.4	11816.8
819.1587	527.9541	12683.8	11854.55
819.303	530.1033	12709.7	11879.1
819.4472	532.2519	12796.4	11966.7
819.5915	534.3999	12978.1	12145.7
819.7357	536.5472	13337.3	12505
819.88	538.694	13864.5	13030.55
820.0243	540.8401	14558.25	13723.75
820.1686	542.9856	15165.65	14332.75
820.3129	545.1305	15402.85	14565.7
820.4572	547.2748	15253.9	14417.1
820.6016	549.4185	14790.55	13955.45
820.7459	551.5615	14358.95	13522.8
820.8902	553.704	14126.2	13290.5
821.0346	555.8458	13956.3	13122.65
821.1789	557.987	13886	13053.7
821.3233	560.1276	13752.1	12916.5
821.4677	562.2675	13609.25	12775.8
821.6121	564.4069	13493.2	12659.05
821.7565	566.5456	13299.7	12465.95
821.9009	568.6837	13145.9	12312.4
822.0453	570.8212	12898.55	12065.95
822.1897	572.958	12669.65	11831.5
822.3342	575.0942	12450.45	11614.95
822.4786	577.2299	12353.1	11515.1
822.6231	579.3648	12346.7	11508.45
822.7675	581.4992	12465.2	11627.85
822.912	583.6329	12724.4	11886.95
823.0565	585.766	12969.2	12135.4
823.201	587.8985	13095.6	12261.1
823.3454	590.0304	13132.45	12285.15
823.4899	592.1616	13069.55	12231.8
823.6345	594.2922	12939.35	12098.65
823.779	596.4222	12797.75	11955
823.9235	598.5515	12628.2	11785.15
824.068	600.6802	12427.2	11588.7
824.2126	602.8083	12220.4	11380.05
824.3571	604.9358	12138.45	11294.3
824.5017	607.0626	12027.4	11187.8
824.6462	609.1888	11899	11056.75
824.7908	611.3144	11801	10958.65
824.9354	613.4393	11601.5	10758.6
825.08	615.5636	11421.6	10577.55
825.2246	617.6873	11310.65	10466.4
825.3692	619.8103	11215	10369.1
825.5138	621.9327	11129.1	10283.5
825.6584	624.0544	11112.7	10268.05
825.803	626.1756	11142.35	10301.85
825.9477	628.2961	11126.25	10283.9
826.0923	630.4159	11068.55	10223.85
826.237	632.5351	10993.1	10145.8
826.3816	634.6537	10909.5	10065.2
826.5263	636.7716	10864.05	10015.25
826.6709	638.8889	10842.7	9996.75
826.8156	641.0056	10835.25	9989.6
826.9603	643.1216	10827.65	9980.35
827.105	645.237	10860.1	10008.85
827.2497	647.3518	10854.35	10005.25
827.3944	649.4659	10880.85	10033.25
827.5391	651.5793	10874.25	10024.5
827.6838	653.6922	10851.05	10003.45
827.8285	655.8043	10840.7	9992.2
827.9733	657.9159	10802.9	9953.45
828.118	660.0268	10721.35	9870.55
828.2627	662.137	10635.95	9784.85
828.4075	664.2466	10588.35	9736.15
828.5522	666.3556	10574.15	9726.35
828.697	668.4639	10511.8	9659.15
828.8418	670.5716	10568.25	9719.95
828.9865	672.6786	10637.3	9785.9
829.1313	674.785	10727.5	9873.65
829.2761	676.8907	10821.7	9971.3
829.4209	678.9958	10885.7	10032.4
829.5657	681.1002	10880.1	10026.1
829.7105	683.204	10869.75	10014.15
829.8553	685.3072	10805.95	9950.95
830.0001	687.4097	10691.9	9838.95
830.1449	689.5115	10606.95	9752.45
830.2898	691.6127	10517.15	9664.95
830.4346	693.7132	10411.15	9557.4
830.5794	695.8131	10341.6	9463.35
830.7243	697.9123	10311	9455.65
830.8691	700.0109	10256.45	9398.1
831.014	702.1089	10203.2	9348.7
831.1588	704.2061	10184.4	9330.35
831.3037	706.3028	10214.5	9358.7
831.4486	708.3987	10249.05	9390.35
831.5935	710.4941	10369.45	9514.9
831.7383	712.5887	10547.9	9689.6
831.8832	714.6827	10846.5	9987.15
832.0281	716.7761	11267.5	10409.4
832.173	718.8688	11683.7	10823.45
832.3179	720.9608	11919.5	11058.25
832.4628	723.0522	11944.75	11086.15
832.6077	725.1429	11667.9	10810.55
832.7527	727.233	11285.45	10428.3
832.8976	729.3224	10902.6	10043.15
833.0425	731.4112	10544.25	9684.95
833.1874	733.4993	10288.2	9425.45
833.3324	735.5867	10112.7	9250.6
833.4773	737.6735	10020.6	9160.1
833.6222	739.7596	9940.8	9080.7
833.7672	741.845	9937.1	9076.7
833.9122	743.9298	9924.55	9063.15
834.0571	746.014	9908.65	9047.85
834.2021	748.0974	9915.4	9052.35
834.347	750.1802	9907.4	9046.45
834.492	752.2624	9905.45	9045.1
834.637	754.3439	9912.65	9049.2
834.782	756.4247	9958.5	9085.95
834.9269	758.5048	10052.35	9191.2
835.0719	760.5843	10205.7	9342.9
835.2169	762.6631	10483.8	9624.05
835.3619	764.7413	10885.05	10025.75
835.5069	766.8188	11474.5	10609.35
835.6519	768.8956	11969.45	11105.65
835.7969	770.9718	12306.75	11445.45
835.9419	773.0473	12192.85	11330
836.0869	775.1221	11883.75	11022.55
836.232	777.1962	11503.4	10639.2
836.377	779.2697	11305.65	10443.9
836.522	781.3426	11352.65	10470.4
836.667	783.4147	11609.25	10745.05
836.8121	785.4862	11971.5	11110.4
836.9571	787.557	11993.25	11129.45
837.1021	789.6271	11671.05	10808.15
837.2472	791.6966	11108.7	10247
837.3922	793.7654	10534.15	9671.3
837.5373	795.8335	10225.85	9360.85
837.6823	797.901	9983.4	9120.05
837.8274	799.9678	9902.2	9035.25
837.9724	802.0339	9887.9	9023.65
838.1175	804.0993	9963.25	9090.05
838.2626	806.1641	9945.15	9079.45
838.4076	808.2282	9890.8	9026.65
838.5527	810.2916	9783.45	8914
838.6978	812.3544	9662.25	8797.85
838.8428	814.4164	9541.3	8679.8
838.9879	816.4778	9540.15	8673.85
839.133	818.5385	9520.9	8655.55
839.2781	820.5986	9532.95	8668.3
839.4232	822.658	9565.6	8698.95
839.5682	824.7166	9562.25	8698.9
839.7133	826.7747	9690.1	8825.3
839.8584	828.832	9799.3	8931.3
840.0035	830.8886	9919.1	9052.8
840.1486	832.9446	10066.1	9198.95
840.2937	834.9999	10168.35	9304.15
840.4388	837.0545	10252.15	9383.45
840.5839	839.1085	10323.35	9455.55
840.729	841.1618	10317.6	9448.1
840.8741	843.2143	10340.6	9473
841.0192	845.2662	10292.75	9426.65
841.1643	847.3175	10211.6	9346.85
841.3095	849.368	10110.1	9243.4
841.4546	851.4179	9973.2	9106.6
841.5997	853.467	9786.8	8918.9
841.7448	855.5155	9678.75	8810.75
841.8899	857.5633	9557.35	8688.95
842.0351	859.6105	9427.35	8558.8
842.1802	861.6569	9325.05	8457.65
842.3253	863.7027	9266.2	8396.2
842.4704	865.7478	9228.1	8361.45
842.6156	867.7922	9228.75	8361.4
842.7607	869.8359	9300.15	8431.8
842.9058	871.8789	9425.15	8556.7
843.0509	873.9212	9624.95	8720.4
843.1961	875.9629	9796.9	8927.45
843.3412	878.0039	9970.35	9101.6
843.4863	880.0441	10062.15	9193.2
843.6315	882.0837	10065.15	9193.15
843.7766	884.1226	9947.6	9077
843.9218	886.1609	9763.55	8895.3
844.0669	888.1984	9597.4	8727.9
844.212	890.2352	9532.1	8664.1
844.3572	892.2714	9446.4	8573.4
844.5023	894.3069	9403.65	8534.6
844.6475	896.3416	9349.95	8476.9
844.7926	898.3757	9329.8	8459.2
844.9377	900.4091	9281.25	8409.25
845.0829	902.4418	9284.3	8409.75
845.228	904.4739	9299.7	8427.25
845.3732	906.5052	9276.6	8407.9
845.5183	908.5358	9176.2	8306.5
845.6635	910.5658	9016.05	8145.45
845.8086	912.595	8857	7987.1
845.9538	914.6236	8724.95	7852.9
846.0989	916.6515	8671.65	7802.95
846.2441	918.6786	8684.3	7810
846.3892	920.7051	8726.5	7853.7
846.5344	922.7309	8839	7968.9
846.6795	924.756	8897.85	8024.9
846.8246	926.7804	9030.15	8155
846.9698	928.8041	8995.9	8122.15
847.1149	930.8272	9001.6	8130.35
847.2601	932.8495	8909.15	8038.5
847.4052	934.8711	8837	7964.7
847.5504	936.892	8682.05	7812.85
847.6955	938.9123	8502	7628.75
847.8407	940.9318	8340.3	7467.85
847.9858	942.9506	8207.25	7333.55
848.131	944.9688	8087.65	7214.3
848.2761	946.9862	8063.15	7191.9
848.4213	949.003	8005.4	7132.85
848.5664	951.019	8007.2	7135.8
848.7115	953.0344	8028.05	7152
848.8567	955.0491	8065.5	7192.15
849.0018	957.063	8149.15	7274.75
849.147	959.0763	8248.1	7376.4
849.2921	961.0888	8277.3	7401.65
849.4373	963.1007	8391.55	7518.7
849.5824	965.1119	8421.05	7547.9
849.7275	967.1223	8447.45	7572.7
849.8727	969.1321	8466.85	7593.5
850.0178	971.1412	8514.85	7641.4
850.1629	973.1495	8529.6	7656.4
850.3081	975.1572	8608.4	7703.2
850.4532	977.1641	8588.3	7716.2
850.5983	979.1704	8592.3	7718.65
850.7435	981.1759	8592.75	7715.9
850.8886	983.1808	8657.65	7784.1
851.0337	985.1849	8772.15	7888.5
851.1788	987.1884	8941.6	8063.75
851.324	989.1911	9138.95	8262.5
851.4691	991.1932	9270.2	8394.2
851.6142	993.1945	9329.95	8456.05
851.7593	995.1951	9329.65	8455.2
851.9045	997.1951	9285.25	8405.75
852.0496	999.1943	9204.05	8331.5
852.1947	1001.1928	9135.4	8259.65
852.3398	1003.1906	9124.35	8249.65
852.4849	1005.1877	9130.95	8255.35
852.63	1007.1841	9125.85	8251.05
852.7751	1009.1798	8996.8	8122.7
852.9202	1011.1748	8805.4	7928.55
853.0653	1013.1691	8578.3	7698.45
853.2104	1015.1627	8355.9	7480.1
853.3555	1017.1556	8159.9	7283.2
853.5006	1019.1477	8054.15	7178.05
853.6457	1021.1392	8008.95	7136.5
853.7908	1023.1299	7999.65	7123.35
853.9359	1025.12	8026.95	7151.95
854.081	1027.1093	8054.55	7181.05
854.2261	1029.0979	8126.45	7252.9
854.3712	1031.0859	8194.8	7321.45
854.5163	1033.0731	8191.4	7315.65
854.6613	1035.0596	8124	7248.45
854.8064	1037.0454	7975.95	7099.6
854.9515	1039.0304	7895.45	7019.45
855.0965	1041.0148	7734.8	6859.3
855.2416	1042.9985	7651.95	6774
855.3867	1044.9814	7603.35	6727.35
855.5317	1046.9636	7552.6	6673.85
855.6768	1048.9452	7525.75	6650.1
855.8219	1050.926	7499.1	6622.9
855.9669	1052.9061	7492.75	6615
856.112	1054.8855	7470.95	6596.1
856.257	1056.8642	7517.55	6641.35
856.4021	1058.8421	7566.2	6688.1
856.5471	1060.8194	7580	6704.95
856.6921	1062.7959	7627.65	6753
856.8372	1064.7717	7649.15	6772
856.9822	1066.7469	7651.9	6771.8
857.1272	1068.7213	7614.25	6734.95
857.2723	1070.695	7538.65	6664.85
857.4173	1072.6679	7480.4	6603.4
857.5623	1074.6402	7420.95	6544.45
857.7073	1076.6117	7403.45	6519.1
857.8523	1078.5826	7447.85	6571.7
857.9973	1080.5527	7504.95	6625.25
858.1423	1082.5221	7662.4	6783.75
858.2873	1084.4908	7885.35	7007.35
858.4323	1086.4587	8102.05	7224
858.5773	1088.426	8289.6	7411.95
858.7223	1090.3925	8318.75	7436.9
858.8673	1092.3584	8225.85	7346.5
859.0123	1094.3235	8060.2	7183.7
859.1573	1096.2879	7935.35	7056.15
859.3022	1098.2515	7885.3	7009.05
859.4472	1100.2145	7909.5	7033.3
859.5922	1102.1767	7955.6	7076.7
859.7371	1104.1382	8084.65	7207
859.8821	1106.099	8286.15	7404.15
860.027	1108.0591	8508.1	7631.35
860.172	1110.0185	8663.15	7786.25
860.3169	1111.9771	8649.95	7772
860.4619	1113.9351	8440.4	7564.75
860.6068	1115.8923	8106.1	7226.9
860.7517	1117.8488	7768.1	6887.85
860.8967	1119.8045	7467.3	6591.35
861.0416	1121.7596	7302.5	6424
861.1865	1123.7139	7215.1	6337.1
861.3314	1125.6675	7208.85	6331.1
861.4763	1127.6204	7274.65	6395.15
861.6212	1129.5726	7302.85	6421.75
861.7661	1131.524	7326.8	6449.3
861.911	1133.4748	7380.75	6505.15
862.0559	1135.4248	7424.75	6546.4
862.2008	1137.3741	7462.3	6583.85
862.3457	1139.3226	7430.3	6550.5
862.4905	1141.2705	7403.6	6524.6
862.6354	1143.2176	7311.95	6428.15
862.7803	1145.164	7362	6482.55
862.9251	1147.1097	7382.95	6506.05
863.07	1149.0546	7368.7	6491.25
863.2148	1150.9989	7279.3	6400.5
863.3597	1152.9424	7121.4	6240.85
863.5045	1154.8852	6899.9	6021.85
863.6493	1156.8272	6755.65	5879
863.7942	1158.7686	6659.05	5774.55
863.939	1160.7092	6619.5	5739.05
864.0838	1162.6491	6612.1	5731.75
864.2286	1164.5883	6643.65	5766.4
864.3734	1166.5267	6733.95	5855.95
864.5182	1168.4644	6876.75	5997.85
864.663	1170.4014	7063.1	6181.1
864.8078	1172.3377	7274.1	6396.1
864.9526	1174.2732	7491.7	6613.3
865.0974	1176.2081	7707.2	6828.2
865.2421	1178.1421	7871.25	6988
865.3869	1180.0755	8020.05	7141.2
865.5317	1182.0082	8018.9	7141.2
865.6764	1183.9401	7945.25	7064.8
865.8212	1185.8713	7752.8	6875.7
865.9659	1187.8017	7497.85	6618.15
866.1106	1189.7315	7231	6354.3
866.2554	1191.6605	6997.05	6087.2
866.4001	1193.5888	6784.7	5908.05
866.5448	1195.5163	6653.05	5772.7
866.6895	1197.4432	6542.7	5662.2
866.8342	1199.3693	6465.5	5585.65
866.9789	1201.2947	6429.2	5548.75
867.1236	1203.2193	6413.95	5533.15
867.2683	1205.1432	6432.4	5554.95
867.413	1207.0664	6497.7	5620.05
867.5576	1208.9889	6553.05	5670.4
867.7023	1210.9106	6649.95	5772.2
867.847	1212.8316	6740.05	5862.7
867.9916	1214.7519	6843.75	5954.45
868.1363	1216.6715	6853.95	5976.3
868.2809	1218.5903	6830.7	5950.55
868.4255	1220.5084	6801	5921.4
868.5701	1222.4257	6762.85	5883.9
868.7148	1224.3424	6688.7	5809.7
868.8594	1226.2583	6754.5	5868.95
869.004	1228.1735	6865.15	5986.85
869.1486	1230.0879	6981.25	6101.15
869.2932	1232.0016	7122.2	6244.95
869.4377	1233.9146	7184.1	6301.85
869.5823	1235.8269	7102.6	6225.8
869.7269	1237.7384	6954.8	6074.05
869.8715	1239.6492	6771.85	5893.7
870.016	1241.5592	6676.3	5795.25
870.1606	1243.4686	6578.35	5698.65
870.3051	1245.3772	6496.75	5616.2
870.4496	1247.285	6430.75	5553.05
870.5941	1249.1922	6397	5519.6
870.7387	1251.0986	6374.4	5495
870.8832	1253.0042	6382.55	5500.5
871.0277	1254.9092	6455.85	5573.85
871.1722	1256.8134	6554.05	5675.1
871.3167	1258.7169	6687.55	5805.65
871.4611	1260.6196	6845	5965.7
871.6056	1262.5216	7037.2	6157.85
871.7501	1264.4229	7158.75	6276
871.8945	1266.3234	7273.6	6394.45
872.039	1268.2232	7321.25	6439.6
872.1834	1270.1223	7322.4	6441.75
872.3278	1272.0207	7275	6397.65
872.4723	1273.9183	7259.8	6374.3
872.6167	1275.8151	7167.95	6290.05
872.7611	1277.7113	7072.55	6188.75
872.9055	1279.6067	6929.3	6048.85
873.0499	1281.5014	6762.1	5879.35
873.1943	1283.3953	6615.75	5732.45
873.3386	1285.2885	6506.45	5625.15
873.483	1287.181	6431.2	5550.05
873.6274	1289.0727	6443.05	5566.6
873.7717	1290.9637	6455.5	5574.45
873.9161	1292.854	6567.2	5688.45
874.0604	1294.7435	6733.15	5852.45
874.2047	1296.6323	6931.7	6049.55
874.349	1298.5204	7214.05	6330.35
874.4933	1300.4077	7473.35	6592.15
874.6376	1302.2943	7693.05	6813.1
874.7819	1304.1802	7770.7	6890.65
874.9262	1306.0653	7738.95	6856.1
875.0705	1307.9497	7637.5	6758.3
875.2147	1309.8333	7555.65	6676.15
875.359	1311.7162	7558.65	6677.8
875.5032	1313.5984	7625.4	6743.6
875.6475	1315.4798	7789	6899.35
875.7917	1317.3605	7969.1	7071.65
875.9359	1319.2405	8131.15	7249
876.0801	1321.1197	8182.95	7300.4
876.2243	1322.9982	8163.7	7277.75
876.3685	1324.876	8155.15	7273.6
876.5127	1326.753	8138.7	7256.15
876.6569	1328.6293	8164.85	7282.9
876.801	1330.5048	8157.5	7274.7
876.9452	1332.3796	8131.45	7249.7
877.0893	1334.2537	8127.5	7219.45
877.2335	1336.127	8061.45	7179.2
877.3776	1337.9996	8032.2	7150.95
877.5217	1339.8714	7975.8	7096.25
877.6658	1341.7426	7940.75	7015.15
877.8099	1343.6129	7850.15	6968.05
877.954	1345.4826	7799.25	6918.1
878.0981	1347.3515	7721.9	6838.75
878.2422	1349.2196	7651.15	6768.55
878.3862	1351.087	7636.35	6753.45
878.5303	1352.9537	7683.9	6801.9
878.6743	1354.8197	7802.25	6921.15
878.8184	1356.6849	7944.3	7063.3
878.9624	1358.5493	8046.45	7165.1
879.1064	1360.4131	8037.55	7156
879.2504	1362.276	7939.6	7059.2
879.3944	1364.1383	7810	6930.15
879.5384	1365.9998	7607.15	6718.85
879.6823	1367.8606	7334.6	6452.05
879.8263	1369.7206	7056.95	6176.65
879.9702	1371.5799	6893.85	6011.85
880.1142	1373.4384	6805.7	5923.5
880.2581	1375.2962	6677.85	5793.2
880.402	1377.1533	6447.15	5567
880.5459	1379.0096	6160.6	5277.85
880.6898	1380.8652	5884.6	5002.55
880.8337	1382.7201	5665.65	4784.95
880.9776	1384.5742	5463.75	4579.65
881.1215	1386.4275	5314.95	4432.85
881.2653	1388.2802	5211.95	4331.4
881.4092	1390.132	5121.8	4239.7
881.553	1391.9832	5073.3	4189.95
881.6968	1393.8336	4994.15	4112
881.8406	1395.6832	4968.8	4085.3
881.9844	1397.5322	4933.4	4053.6
882.1282	1399.3803	4926.85	4038.7
882.272	1401.2278	4911	4028.85
882.4158	1403.0745	4900.8	4017.9
882.5595	1404.9204	4899.85	4019.95
882.7033	1406.7656	4922.2	4041.2
882.847	1408.6101	4926.4	4044.4
882.9908	1410.4538	4956.35	4074.85
883.1345	1412.2968	4987.6	4104.55
883.2782	1414.139	5056.25	4175.8
883.4219	1415.9805	5133.7	4251.5
883.5656	1417.8213	5219.8	4331.35
883.7092	1419.6613	5367.65	4485.4
883.8529	1421.5006	5561.9	4677.25
883.9965	1423.3391	5837.4	4953.85
884.1402	1425.1769	6197.05	5314.7
884.2838	1427.0139	6712.2	5829.85
884.4274	1428.8502	7329.65	6446.35
884.571	1430.6858	7950.7	7069.8
884.7146	1432.5206	8440.2	7557.95
884.8582	1434.3547	8740.2	7858.6
885.0018	1436.188	8785.4	7903.2
885.1453	1438.0206	8728.05	7846.65
885.2889	1439.8524	8626.85	7744.45
885.4324	1441.6835	8514.2	7632.05
885.5759	1443.5139	8393.1	7507.45
885.7194	1445.3435	8348.25	7467.7
885.8629	1447.1724	8305.05	7423.15
886.0064	1449.0005	8222.15	7341.35
886.1499	1450.8279	8122.9	7237.65
886.2933	1452.6545	8068.6	7184.85
886.4368	1454.4804	8094.05	7213.3
886.5802	1456.3056	8112.3	7223.95
886.7237	1458.13	8049.15	7169.45
886.8671	1459.9536	7805.1	6924.35
887.0105	1461.7766	7436	6555.15
887.1539	1463.5987	7014.7	6129.8
887.2972	1465.4202	6589.5	5707.2
887.4406	1467.2409	6262.6	5381.35
887.584	1469.0608	5941.05	5060.95
887.7273	1470.88	5683.05	4798.1
887.8706	1472.6984	5460.3	4579.85
888.0139	1474.5161	5249.75	4364.35
888.1572	1476.3331	5093.65	4211.75
888.3005	1478.1493	4947.05	4062.1
888.4438	1479.9648	4845.55	3963.65
888.5871	1481.7795	4770.75	3889.3
888.7303	1483.5935	4682.5	3800.3
888.8736	1485.4067	4609.75	3726.85
889.0168	1487.2192	4562.35	3678.35
889.16	1489.031	4504.5	3619.6
889.3032	1490.842	4477.35	3595.1
889.4464	1492.6522	4448.3	3568.3
889.5896	1494.4618	4425.05	3543.2
889.7327	1496.2705	4398.8	3518
889.8759	1498.0785	4364.5	3483
890.019	1499.8858	4364.7	3482.5
890.1622	1501.6924	4354.35	3472.65
890.3053	1503.4981	4320.45	3438.2
890.4484	1505.3032	4301.45	3420.6
890.5914	1507.1075	4284.55	3402.15
890.7345	1508.911	4265.3	3381.65
890.8776	1510.7138	4227	3343.9
891.0206	1512.5159	4190.45	3310.6
891.1637	1514.3172	4185.85	3303.85
891.3067	1516.1178	4152.4	3271.4
891.4497	1517.9176	4119.75	3234.75
891.5927	1519.7166	4099.25	3216.75
891.7357	1521.515	4078.6	3189.1
891.8786	1523.3126	4059.35	3177.25
892.0216	1525.1094	4037.05	3151.1
892.1645	1526.9055	4025.45	3144.55
892.3074	1528.7008	4013.9	3134.5
892.4503	1530.4954	3999.85	3112.5
892.5932	1532.2893	3985.25	3106.4
892.7361	1534.0824	3957.85	3071
892.879	1535.8747	3951.85	3069.6
893.0218	1537.6663	3948.2	3065.15
893.1647	1539.4572	3951.8	3069.45
893.3075	1541.2473	3943.85	3060.65
893.4503	1543.0367	3948.35	3067.8
893.5931	1544.8253	3936.65	3048.65
893.7359	1546.6132	3940.5	3057.5
893.8787	1548.4003	3951.1	3057.55
894.0214	1550.1867	3965.25	3073.6
894.1642	1551.9723	3971.75	3086.35
894.3069	1553.7572	3985	3101.7
894.4496	1555.5414	4007	3125.6
894.5923	1557.3247	4043.95	3160.65
894.735	1559.1074	4065.95	3184.65
894.8777	1560.8893	4128.8	3248.65
895.0204	1562.6705	4195.35	3313.3
895.163	1564.4509	4286.8	3402.1
895.3056	1566.2305	4351.65	3472.2
895.4482	1568.0094	4447.3	3565.05
895.5908	1569.7876	4548.1	3665.7
895.7334	1571.565	4614.15	3731.7
895.876	1573.3417	4655.75	3774.05
896.0186	1575.1176	4674.25	3790.25
896.1611	1576.8928	4661	3777.35
896.3036	1578.6672	4591	3708.3
896.4461	1580.4409	4468.1	3586
896.5886	1582.2138	4340.95	3456.4
896.7311	1583.986	4219.5	3335.85
896.8736	1585.7575	4125.9	3243.95
897.0161	1587.5282	4049.7	3170.6
897.1585	1589.2981	3994.95	3113.3
897.3009	1591.0673	3940.7	3060.45
897.4433	1592.8358	3947.7	3067.75
897.5857	1594.6035	3929.05	3045.1
897.7281	1596.3704	3915	3032.75
897.8705	1598.1366	3917.85	3036.35
898.0128	1599.9021	3938.2	3056.95
898.1551	1601.6668	3969.55	3082.95
898.2975	1603.4308	4035.2	3152.6
898.4398	1605.194	4096.05	3210.55
898.5821	1606.9564	4153.55	3272.6
898.7243	1608.7182	4277.6	3392.15
898.8666	1610.4791	4397.3	3515.05
899.0088	1612.2394	4555.2	3675.2
899.1511	1613.9988	4754.15	3872.2
899.2933	1615.7576	4955.05	4072.8
899.4355	1617.5156	5191.1	4302.9
899.5776	1619.2728	5437.9	4554.5
899.7198	1621.0293	5638.95	4759.2
899.862	1622.785	5736.15	4853.55
900.0041	1624.54	5691.3	4806.65
900.1462	1626.2942	5555.75	4673.05
900.2883	1628.0477	5331.65	4446.75
900.4304	1629.8005	5096.7	4209.55
900.5725	1631.5525	4858.75	3978.05
900.7145	1633.3037	4669.5	3786.2
900.8566	1635.0542	4484.9	3602.85
900.9986	1636.804	4332.2	3450.1
901.1406	1638.553	4307.4	3348.6
901.2826	1640.3013	4203.8	3320.85
901.4245	1642.0488	4143.05	3260.1
901.5665	1643.7955	4122.4	3245.8
901.7085	1645.5416	4143.2	3262.35
901.8504	1647.2868	4195.35	3316.15
901.9923	1649.0313	4289.75	3409.4
902.1342	1650.7751	4419.45	3533.95
902.2761	1652.5181	4583.05	3702.05
902.4179	1654.2604	4831	3948.6
902.5598	1656.0019	5158.05	4276.15
902.7016	1657.7427	5528.3	4647.95
902.8434	1659.4828	5872.75	4991.95
902.9852	1661.222	6115.25	5232.35
903.127	1662.9606	6198.1	5317.75
903.2687	1664.6984	6047.2	5163.9
903.4105	1666.4354	5742.65	4862.45
903.5522	1668.1717	5316.95	4435.4
903.6939	1669.9072	4843.55	3964.5
903.8356	1671.642	4489.25	3605.35
903.9773	1673.3761	4190.25	3306.5
904.119	1675.1094	3953.5	3070.45
904.2606	1676.8419	3768.5	2888.2
904.4022	1678.5737	3637.65	2757.6
904.5439	1680.3048	3542.85	2661.25
904.6855	1682.0351	3469.35	2589.55
904.827	1683.7646	3415.75	2533.05
904.9686	1685.4934	3365.8	2485.15
905.1101	1687.2215	3326.9	2445.95
905.2517	1688.9488	3284.4	2403.1
905.3932	1690.6754	3265.6	2385.55
905.5347	1692.4012	3241.3	2358.4
905.6761	1694.1263	3218.7	2338.35
905.8176	1695.8506	3209.65	2328.35
905.9591	1697.5742	3187	2306.7
906.1005	1699.297	3157.15	2276.95
906.2419	1701.0191	3152.6	2272.3
906.3833	1702.7404	3121.35	2242.1
906.5246	1704.461	3110.25	2229.05
906.666	1706.1808	3098.9	2217.15
906.8073	1707.8999	3072.45	2190.9
906.9487	1709.6182	3047.5	2163.4
907.09	1711.3358	3065.2	2184.35
907.2313	1713.0527	3041.45	2160.55
907.3725	1714.7688	3041.9	2154
907.5138	1716.4841	3011.5	2128
907.655	1718.1987	3016.15	2131.95
907.7962	1719.9126	2997.35	2117.65
907.9374	1721.6257	2970.8	2087.45
908.0786	1723.338	2970.1	2087.45
908.2198	1725.0496	2960.6	2078.85
908.3609	1726.7605	2960.15	2079.4
908.502	1728.4706	2939.05	2054.7
908.6431	1730.18	2930.45	2048.35
908.7842	1731.8886	2910.65	2030.25
908.9253	1733.5964	2907.5	2022.05
909.0664	1735.3036	2907.2	2022.7
909.2074	1737.0099	2907.1	2025.55
909.3484	1738.7156	2896.65	2015.55
909.4894	1740.4204	2876.35	1990.4
909.6304	1742.1246	2879.45	1995.95
909.7714	1743.8279	2877.75	1996.05
909.9123	1745.5306	2873.25	1992.35
910.0532	1747.2325	2855.8	1973.25
910.1941	1748.9336	2843.75	1964.1
910.335	1750.634	2835.35	1953.55
910.4759	1752.3336	2833.8	1951.95
910.6168	1754.0325	2831.3	1950.2
910.7576	1755.7307	2822.75	1942
910.8984	1757.4281	2822.9	1942.75
911.0392	1759.1247	2812.4	1923.8
911.18	1760.8206	2803.9	1919.2
911.3208	1762.5158	2802.45	1917.5
911.4615	1764.2102	2787.05	1907.45
911.6022	1765.9039	2790.3	1909.2
911.7429	1767.5968	2778.25	1898.05
911.8836	1769.289	2771.2	1889.9
912.0243	1770.9804	2780.9	1899.65
912.1649	1772.6711	2775.35	1894.35
912.3056	1774.361	2759.8	1877.15
912.4462	1776.0502	2756.45	1875.25
912.5868	1777.7386	2752.7	1868.65
912.7274	1779.4263	2746.05	1865.4
912.8679	1781.1132	2741.4	1860.85
913.0084	1782.7994	2734.8	1852.2
913.149	1784.4849	2721.4	1840.8
913.2895	1786.1696	2728.85	1827.8
913.4299	1787.8535	2720.95	1841.5
913.5704	1789.5367	2712.6	1831.55
913.7108	1791.2192	2720.75	1842.1
913.8513	1792.9009	2716.45	1807.7
913.9917	1794.5818	2701.55	1820
914.132	1796.2621	2691.4	1813.35
914.2724	1797.9415	2689.45	1808.35
914.4128	1799.6202	2676.8	1797.3
914.5531	1801.2982	2672.9	1792.85
914.6934	1802.9755	2682.45	1800.9
914.8337	1804.6519	2670.2	1790.1
914.9739	1806.3277	2660.4	1780.5
915.1142	1808.0027	2648.25	1767.35
915.2544	1809.6769	2653.2	1771.25
915.3946	1811.3504	2645.6	1763.4
915.5348	1813.0231	2646.2	1763.2
915.675	1814.6951	2638.75	1758.3
915.8151	1816.3664	2639.35	1756.05
915.9553	1818.0369	2629.25	1749.1
916.0954	1819.7067	2621.05	1741.25
916.2355	1821.3757	2625.7	1745.1
916.3755	1823.044	2619.35	1740.75
916.5156	1824.7115	2617.8	1736.65
916.6556	1826.3783	2611.95	1732.75
916.7956	1828.0443	2602.8	1722.4
916.9356	1829.7096	2597.25	1714.4
917.0756	1831.3741	2602.25	1719.7
917.2155	1833.0379	2588.5	1707.5
917.3555	1834.701	2586.3	1704.05
917.4954	1836.3633	2589.9	1707.4
917.6353	1838.0248	2578.6	1694.95
917.7751	1839.6856	2575.8	1695.05
917.915	1841.3457	2571.9	1691.6
918.0548	1843.005	2573.4	1691.45
918.1946	1844.6636	2572.05	1690.45
918.3344	1846.3214	2563.4	1683.2
918.4742	1847.9785	2563.8	1683.45
918.6139	1849.6349	2570.4	1688.4
918.7537	1851.2904	2566.5	1675.95
918.8934	1852.9453	2547.3	1668.2
919.0331	1854.5994	2544.15	1662.05
919.1727	1856.2528	2557.9	1673.55
919.3124	1857.9054	2545.45	1664.2
919.452	1859.5572	2548.7	1669.6
919.5916	1861.2083	2542	1660.9
919.7312	1862.8587	2540.35	1660.35
919.8708	1864.5084	2520.8	1638.75
920.0103	1866.1572	2516	1635
920.1498	1867.8054	2510.75	1629.5
920.2893	1869.4528	2507.3	1627.35
920.4288	1871.0994	2508.6	1627.95
920.5683	1872.7453	2492.55	1610.85
920.7077	1874.3905	2506.3	1606.7
920.8471	1876.0349	2495.6	1615.55
920.9865	1877.6786	2491.35	1609.5
921.1259	1879.3215	2476	1596.25
921.2653	1880.9637	2479.6	1596.75
921.4046	1882.6051	2483.1	1602.55
921.5439	1884.2458	2464	1581.5
921.6832	1885.8858	2462.6	1582.1
921.8225	1887.525	2458.5	1577.5
921.9617	1889.1634	2448.85	1567.6
922.101	1890.8011	2447.55	1565.8
922.2402	1892.4381	2440.35	1559.15
922.3794	1894.0743	2433.6	1555.5
922.5185	1895.7098	2442.4	1562.95
922.6577	1897.3446	2429.4	1549.4
922.7968	1898.9786	2419.5	1535.25
922.9359	1900.6118	2409.3	1530.3
923.075	1902.2443	2419.1	1536.5
923.214	1903.8761	2414.75	1533.25
923.3531	1905.5071	2410.1	1528.95
923.4921	1907.1374	2410	1527.2
923.6311	1908.7669	2390.2	1511.2
923.77	1910.3957	2404.6	1522.85
923.909	1912.0237	2396.6	1516.45
924.0479	1913.651	2399.85	1518
924.1868	1915.2776	2390.45	1511.2
924.3257	1916.9034	2371.1	1490.75
924.4646	1918.5285	2379.6	1500.65
924.6034	1920.1528	2372.35	1491.95
924.7422	1921.7764	2361.8	1480.35
924.881	1923.3992	2365.65	1486.25
925.0198	1925.0213	2340.5	1457.4
925.1586	1926.6427	2352.7	1472.4
925.2973	1928.2633	2429.55	1444.4
925.436	1929.8832	2341.65	1458.7
925.5747	1931.5023	2333.6	1453.05
925.7134	1933.1207	2320.95	1440.2
925.852	1934.7383	2317.5	1435.8
925.9906	1936.3552	2320	1438.95
926.1292	1937.9714	2314.45	1432.25
926.2678	1939.5868	2298.15	1417.5
926.4064	1941.2015	2290.7	1410.05
926.5449	1942.8154	2301.8	1420.15
926.6834	1944.4286	2287.05	1406.45
926.8219	1946.041	2303.6	1400.15
926.9604	1947.6528	2279.65	1394.95
927.0988	1949.2637	2266.85	1385.6
927.2372	1950.8739	2265.55	1384.65
927.3756	1952.4834	2272.6	1392.15
927.514	1954.0921	2265.25	1384.45
927.6523	1955.7001	2267.75	1382.75
927.7907	1957.3074	2240	1358.4
927.929	1958.9139	2238.1	1356.9
928.0673	1960.5197	2237.3	1355.3
928.2055	1962.1247	2239.15	1358.1
928.3438	1963.729	2219.35	1338.2
928.482	1965.3325	2244.9	1339.2
928.6202	1966.9353	2223.35	1343.95
928.7584	1968.5374	2209.95	1328.95
928.8965	1970.1387	2205.95	1325
929.0346	1971.7393	2201.6	1320.5
929.1727	1973.3392	2213.85	1334.55
929.3108	1974.9383	2196.45	1314.65
929.4489	1976.5366	2191.85	1312.25
929.5869	1978.1342	2194.5	1313.85
929.7249	1979.7311	2186.6	1305.75
929.8629	1981.3273	2188.85	1307.6
930.0009	1982.9227	2183.95	1301.2
930.1388	1984.5173	2165.45	1283.55
930.2767	1986.1112	2158.2	1277.55
930.4146	1987.7044	2162.15	1281.5
930.5525	1989.2968	2164.65	1280.95
930.6904	1990.8885	2157.85	1274.25
930.8282	1992.4795	2156.3	1275.5
930.966	1994.0697	2135.1	1253.2
931.1038	1995.6592	2138.85	1258.25
931.2415	1997.2479	2136.15	1253.2
931.3793	1998.8359	2146.05	1265.05
931.517	2000.4232	2135.5	1254.85
931.6547	2002.0097	2120.55	1242.2
931.7923	2003.5955	2131.6	1247.55
931.93	2005.1805	2129.4	1245.95
932.0676	2006.7648	2124	1242.05
932.2052	2008.3484	2120.3	1239.75
932.3427	2009.9312	2131.7	1248.05
932.4803	2011.5133	2109.4	1229.5
932.6178	2013.0946	2105.25	1224.15
932.7553	2014.6752	2093.4	1212.9
932.8928	2016.2551	2107.05	1223.85
933.0302	2017.8342	2097.75	1217.15
933.1676	2019.4126	2106.05	1226.45
933.305	2020.9902	2088.45	1207.25
933.4424	2022.5672	2090.6	1208.1
933.5798	2024.1433	2090.95	1203.15
933.7171	2025.7188	2078.05	1197.65
933.8544	2027.2935	2077.2	1193.4
933.9917	2028.8674	2075.55	1194.1
934.129	2030.4406	2059.85	1179.05
934.2662	2032.0131	2059.45	1180.5
934.4034	2033.5849	2057.65	1172.85
934.5406	2035.1559	2058.6	1177.95
934.6778	2036.7261	2063.1	1180.55
934.8149	2038.2957	2059.5	1178.15
934.952	2039.8645	2050.75	1168.75
935.0891	2041.4325	2050	1167.2
935.2262	2042.9998	2044.4	1163.75
935.3632	2044.5664	2037.15	1152.9
935.5002	2046.1323	2033.55	1152.45
935.6372	2047.6974	2032.05	1152.4
935.7742	2049.2617	2026.4	1146.9
935.9111	2050.8254	2033.25	1147.55
936.048	2052.3883	2034.55	1152.5
936.1849	2053.9504	2019.85	1137.25
936.3218	2055.5118	2023.85	1142.3
936.4586	2057.0725	2024.2	1139.7
936.5955	2058.6325	2014.5	1132.15
936.7323	2060.1917	2006.8	1127.45
936.869	2061.7502	2014.55	1128.25
937.0058	2063.3079	1993.05	1115.25
937.1425	2064.8649	2000	1113.8
937.2792	2066.4212	1998.05	1117.55
937.4159	2067.9767	1994.05	1114.55
937.5525	2069.5315	1985.7	1104.35
937.6891	2071.0856	1980.65	1097.85
937.8257	2072.6389	1989.9	1106.55
937.9623	2074.1915	1970.75	1091.2
938.0989	2075.7433	1976.15	1094
938.2354	2077.2945	1972.15	1091.5
938.3719	2078.8448	1957.05	1076.6
938.5084	2080.3945	1962.1	1080.1
938.6448	2081.9434	1953.25	1073.1
938.7812	2083.4916	1952.65	1070.05
938.9176	2085.039	1961.25	1079.65
939.054	2086.5857	1951.95	1069.6
939.1903	2088.1317	1940.7	1060
939.3267	2089.677	1950.15	1069.2
939.463	2091.2215	1935.1	1053.45
939.5992	2092.7652	1945.6	1063.2
939.7355	2094.3083	1935.5	1054.25
939.8717	2095.8506	1930.45	1051.15
940.0079	2097.3921	1936.95	1058.55
940.1441	2098.933	1923.7	1043.45
940.2802	2100.4731	1925.3	1044.85
940.4163	2102.0124	1929	1041.45
940.5524	2103.5511	1917.35	1035.5
940.6885	2105.089	1915.75	1034.95
940.8245	2106.6261	1923.25	1040.35
940.9606	2108.1626	1913.9	1031.9
941.0965	2109.6983	1942.3	1031.45
941.2325	2111.2332	1906.7	1025.55
941.3684	2112.7675	1909.35	1029.25
941.5044	2114.301	1903.05	1022
941.6403	2115.8337	1900.9	1019.45
941.7761	2117.3657	1896.3	1015.3
941.912	2118.897	1893.55	1010.7
942.0478	2120.4276	1902.75	1015.95
942.1835	2121.9575	1884.1	1002.45
942.3193	2123.4866	1899.75	1003.85
942.455	2125.0149	1887.85	1002.65
942.5907	2126.5426	1874.8	993.8
942.7264	2128.0695	1878.45	992.3
942.8621	2129.5956	1869.8	988.75
942.9977	2131.1211	1870.85	983.3
943.1333	2132.6458	1877.4	998
943.2689	2134.1698	1879.55	997.35
943.4044	2135.693	1875	991.3
943.54	2137.2155	1869.1	986.15
943.6755	2138.7373	1856.7	974.55
943.8109	2140.2584	1859.8	978.25
943.9464	2141.7787	1867.1	980.9
944.0818	2143.2983	1844.8	964.5
944.2172	2144.8171	1844.55	963.95
944.3526	2146.3353	1850.95	967.1
944.4879	2147.8527	1834	953.1
944.6232	2149.3693	1846.1	963.7
944.7585	2150.8853	1834.6	952.1
944.8938	2152.4005	1834.8	953.65
945.029	2153.9149	1830.2	949.45
945.1642	2155.4287	1827.15	946.65
945.2994	2156.9417	1823.35	941.95
945.4346	2158.454	1832.1	946.8
945.5697	2159.9655	1818.65	938.15
945.7048	2161.4764	1813.05	930.5
945.8399	2162.9865	1820.8	939.2
945.9749	2164.4958	1822.3	938.1
946.1099	2166.0045	1821.25	937.2
946.2449	2167.5124	1809.85	928.55
946.3799	2169.0195	1813.85	931.4
946.5148	2170.526	1810.6	927.1
946.6498	2172.0317	1801.95	919.15
946.7846	2173.5367	1802.6	920
946.9195	2175.0409	1808.35	929.05
947.0543	2176.5445	1803.3	922.2
947.1891	2178.0473	1787.15	903.7
947.3239	2179.5494	1797.35	911.1
947.4587	2181.0507	1798.35	915.35
947.5934	2182.5513	1795.2	911.3
947.7281	2184.0512	1795	912.7
947.8628	2185.5504	1783.55	900.55
947.9974	2187.0488	1786	902.9
948.132	2188.5465	1780.95	900.3
948.2666	2190.0435	1773.8	893.4
948.4012	2191.5397	1777.4	895.95
948.5357	2193.0353	1770.6	891.1
948.6702	2194.5301	1771.15	890.15
948.8047	2196.0241	1768.55	884.8
948.9392	2197.5175	1773	892.6
949.0736	2199.0101	1765.15	882.15
949.208	2200.502	1757.3	877
949.3424	2201.9931	1751.15	871.95
949.4767	2203.4835	1759.55	877.05
949.611	2204.9733	1747.65	862.2
949.7453	2206.4622	1748.65	868.75
949.8796	2207.9505	1752.55	868.45
950.0138	2209.438	1738.7	858.55
950.148	2210.9248	1740.55	856.7
950.2822	2212.4109	1729.05	848.75
950.4164	2213.8962	1732.8	846.85
950.5505	2215.3809	1732.85	851.55
950.6846	2216.8648	1730.75	850.35
950.8186	2218.3479	1724.3	839.2
950.9527	2219.8304	1726.75	843.95
951.0867	2221.3121	1729.75	847
951.2207	2222.7931	1715.9	834.3
951.3546	2224.2733	1715.6	832.4
951.4886	2225.7529	1708	824.6
951.6225	2227.2317	1713.65	830.8
951.7563	2228.7098	1709.1	825
951.8902	2230.1872	1701.7	819.05
952.024	2231.6638	1700.6	819
952.1578	2233.1397	1705.7	818.3
952.2916	2234.6149	1697.05	815.1
952.4253	2236.0894	1686.3	803.7
952.559	2237.5632	1696.3	812.6
952.6927	2239.0362	1692.15	811
952.8263	2240.5085	1694	812.25
952.9599	2241.9801	1674.85	791.4
953.0935	2243.4509	1674	794.25
953.2271	2244.921	1669.1	787.6
953.3606	2246.3904	1671.25	786.75
953.4941	2247.8591	1673.05	790.1
953.6276	2249.3271	1665.95	784.2
953.7611	2250.7943	1663.85	782.8
953.8945	2252.2608	1665.2	783.35
954.0279	2253.7266	1650.8	768
954.1612	2255.1917	1660.9	778.1
954.2946	2256.656	1649.8	765.75
954.4279	2258.1197	1650.2	768.3
954.5612	2259.5826	1652.1	766.75
954.6944	2261.0447	1658.95	775.65
954.8276	2262.5062	1647	762.7
954.9608	2263.9669	1644.05	761.05
955.094	2265.4269	1638	757.65
955.2271	2266.8862	1653.05	770.95
955.3602	2268.3448	1637.95	755.85
955.4933	2269.8026	1638.3	755.4
955.6264	2271.2598	1639.85	756.35
955.7594	2272.7162	1639.8	759.85
955.8924	2274.1719	1634	751.45
956.0253	2275.6268	1632.95	753.25
956.1583	2277.0811	1629.35	747.4
956.2912	2278.5346	1630	748.85
956.4241	2279.9874	1626.25	744.65
956.5569	2281.4395	1634.5	752.6
956.6897	2282.8908	1626.95	740.15
956.8225	2284.3414	1622.85	741.35
956.9553	2285.7914	1618.3	737.95
957.088	2287.2406	1616.35	732
957.2207	2288.689	1622.75	742.1
957.3534	2290.1368	1616.85	733.85
957.486	2291.5838	1617.4	734
957.6186	2293.0302	1607.85	724.8
957.7512	2294.4758	1601.4	719.9
957.8838	2295.9206	1610.8	728.05
958.0163	2297.3648	1605.9	723.9
958.1488	2298.8082	1607.1	725.05
958.2813	2300.251	1595.45	715.25
958.4137	2301.693	1602.5	719.75
958.5461	2303.1343	1592.8	711.05
958.6785	2304.5748	1589.8	707.6
958.8108	2306.0147	1587.05	704.75
958.9432	2307.4538	1594.15	708.75
959.0754	2308.8922	1582.75	702.2
959.2077	2310.3299	1585.45	703.65
959.3399	2311.7669	1584.75	703.5
959.4721	2313.2031	1580.2	697.15
959.6043	2314.6387	1577.65	695.55
959.7365	2316.0735	1571.8	688.15
959.8686	2317.5076	1567.75	685.25
960.0006	2318.941	1570.05	690
960.1327	2320.3737	1572.65	690.45
960.2647	2321.8056	1575.2	692.45
960.3967	2323.2369	1564.6	681.55
960.5287	2324.6674	1571.7	686.75
960.6606	2326.0972	1569.45	685.4
960.7925	2327.5263	1567.45	686.9
960.9244	2328.9547	1570	688.95
961.0562	2330.3823	1555.65	673.25
961.1881	2331.8092	1560.4	675.2
961.3198	2333.2355	1554.2	671.75
961.4516	2334.661	1552.1	671.2
961.5833	2336.0858	1553.6	670.8
961.715	2337.5098	1552.2	670.45
961.8467	2338.9332	1548.5	665.2
961.9783	2340.3558	1553.15	668.75
962.1099	2341.7778	1545.2	661.85
962.2415	2343.199	1546.55	662.75
962.373	2344.6195	1537.35	654.45
962.5045	2346.0393	1542.35	660.1
962.636	2347.4583	1543.7	661.2
962.7675	2348.8767	1539.75	657.35
962.8989	2350.2943	1545	663.6
963.0303	2351.7113	1538.85	655.2
963.1617	2353.1275	1548	667.4
963.293	2354.543	1563.55	655.7
963.4243	2355.9578	1534.4	653.05
963.5556	2357.3718	1527.1	643.2
963.6868	2358.7852	1527.9	643.4
963.818	2360.1978	1530.9	647.25
963.9492	2361.6098	1523.6	641.95
964.0803	2363.021	1527.2	640.75
964.2114	2364.4315	1519.2	638.35
964.3425	2365.8413	1526.35	637.85
964.4736	2367.2504	1525.2	644.65
964.6046	2368.6587	1522.9	643.25
964.7356	2370.0664	1514.45	632.2
964.8666	2371.4733	1522.2	640
964.9975	2372.8795	1512.75	630.8
965.1284	2374.285	1508.15	626
965.2593	2375.6899	1501.85	620.4
965.3901	2377.0939	1499.85	617.45
965.5209	2378.4973	1493.75	612.8
965.6517	2379.9	1497.55	615.9
965.7825	2381.3019	1496	614.4
965.9132	2382.7032	1494	613.25
966.0439	2384.1037	1497	613.9
966.1745	2385.5035	1484.7	605.6
966.3051	2386.9027	1490.55	609.5
966.4357	2388.3011	1486.7	600.15
966.5663	2389.6987	1484.45	603.65
966.6968	2391.0957	1479.45	598.7
966.8273	2392.492	1470.2	590.4
966.9578	2393.8876	1471.55	590.3
967.0882	2395.2824	1472.15	591.15
967.2186	2396.6765	1471.85	593.95
967.349	2398.07	1465.85	585.9
967.4793	2399.4627	1466.35	585.65
967.6097	2400.8547	1462.25	580.95
967.7399	2402.246	1472.65	585.45
967.8702	2403.6366	1471.2	590.85
968.0004	2405.0265	1470.4	589.4
968.1306	2406.4156	1464.95	580.5
968.2607	2407.8041	1467.85	583.25
968.3909	2409.1918	1469.9	586.9
968.521	2410.5789	1453.45	573.3
968.651	2411.9652	1460.8	576.7
968.781	2413.3508	1447.45	567.85
968.911	2414.7358	1464.45	584.25
969.041	2416.12	1454.2	572.55
969.1709	2417.5035	1452.25	572.9
969.3008	2418.8863	1451.95	569.95
969.4307	2420.2684	1450.55	568.5
969.5606	2421.6497	1445.55	564.3
969.6904	2423.0304	1449.7	569.55
969.8201	2424.4104	1443.1	561.35
969.9499	2425.7896	1454	568
970.0796	2427.1682	1448.45	568.8
970.2093	2428.546	1440.15	556.5
970.3389	2429.9232	1439.6	557.2
970.4685	2431.2996	1435.9	556.5
970.5981	2432.6753	1432.45	551.3
970.7277	2434.0503	1436.5	556.1
970.8572	2435.4246	1432.35	552.9
970.9867	2436.7982	1434.75	552.05
971.1161	2438.1711	1429.2	548.55
971.2456	2439.5433	1425.3	543.3
971.375	2440.9148	1429.35	541.8
971.5043	2442.2856	1418.85	540.55
971.6336	2443.6557	1425	543.2
971.7629	2445.025	1415.95	534.15
971.8922	2446.3937	1421.5	541.15
972.0214	2447.7617	1418.4	538.2
972.1506	2449.1289	1423.5	540.65
972.2798	2450.4955	1417.75	533.6
972.4089	2451.8613	1409.55	532.1
972.538	2453.2265	1413.9	533.25
972.6671	2454.5909	1415.55	533.75
972.7961	2455.9546	1410.85	530.2
972.9251	2457.3177	1410.95	532.35
973.0541	2458.68	1408.45	526.45
973.1831	2460.0416	1407.6	526.85
973.312	2461.4025	1414.35	531.4
973.4408	2462.7627	1418.3	525.8
973.5697	2464.1222	1410.85	530.6
973.6985	2465.4811	1407.5	523.8
973.8273	2466.8392	1404.8	523.3
973.956	2468.1966	1407.8	525.5
974.0847	2469.5533	1409.25	525
974.2134	2470.9093	1405.4	523.9
974.3421	2472.2645	1412.3	528.8
974.4707	2473.6191	1403	520.4
974.5993	2474.973	1403.65	522.8
974.7278	2476.3262	1400.2	517
974.8563	2477.6787	1401.05	522.95
974.9848	2479.0305	1397.15	514.95
975.1132	2480.3816	1400.15	516.75
975.2417	2481.7319	1394.5	513.35
975.37	2483.0816	1394.5	512.95
975.4984	2484.4306	1389.5	507.4
975.6267	2485.7789	1388.55	506.85
975.755	2487.1264	1389.6	508.9
975.8833	2488.4733	1380.65	500.15
976.0115	2489.8195	1398.6	501.45
976.1397	2491.165	1384.75	501.15
976.2678	2492.5097	1381	498.2
976.3959	2493.8538	1380.8	499.25
976.524	2495.1972	1375.2	491.95
976.6521	2496.5398	1377.35	493.9
976.7801	2497.8818	1378	493.75
976.9081	2499.2231	1366.3	485.55
977.036	2500.5637	1369.1	484.6
977.164	2501.9035	1365.75	484.25
977.2918	2503.2427	1369.4	484.15
977.4197	2504.5812	1370.85	490.6
977.5475	2505.919	1370	486.75
977.6753	2507.256	1371.7	490.1
977.8031	2508.5924	1368.35	487.4
977.9308	2509.9281	1370.4	483.7
978.0585	2511.2631	1363.6	482.05
978.1861	2512.5974	1360.3	480.75
978.3137	2513.9309	1361.55	480.15
978.4413	2515.2638	1387.6	479.45
978.5689	2516.596	1364.9	483.95
978.6964	2517.9275	1356	474.45
978.8239	2519.2583	1355.55	473.1
978.9513	2520.5884	1359.3	476.3
979.0788	2521.9178	1356.15	475.1
979.2062	2523.2465	1351	468.35
979.3335	2524.5745	1350.1	469.7
979.4608	2525.9018	1349.05	465.9
979.5881	2527.2284	1345.6	464.95
979.7154	2528.5543	1343	462.2
979.8426	2529.8796	1348.6	465.3
979.9698	2531.2041	1349.65	469.9
980.0969	2532.5279	1349.7	469.55
980.224	2533.851	1345.15	462.4
980.3511	2535.1735	1341.75	461.85
980.4781	2536.4952	1344.05	463.25
980.6052	2537.8163	1348.5	467.25
980.7321	2539.1366	1344.75	464
980.8591	2540.4562	1340.45	455.9
980.986	2541.7752	1330.55	450.25
981.1129	2543.0935	1341.95	460.9
981.2397	2544.411	1342.2	459.6
981.3665	2545.7279	1332.75	450.9
981.4933	2547.0441	1336.5	456.25
981.62	2548.3596	1335.3	451.2
981.7467	2549.6744	1333.65	451.75
981.8734	2550.9885	1336.7	453.9
982.0001	2552.3019	1332.45	452.3
982.1267	2553.6146	1327.2	445.3
982.2532	2554.9266	1332.55	450.1
982.3798	2556.2379	1326.45	444.4
982.5063	2557.5485	1326.5	445.9
982.6327	2558.8585	1332.25	444.05
982.7592	2560.1677	1331.1	445.7
982.8856	2561.4762	1320.45	437.55
983.0119	2562.7841	1325.5	439
983.1383	2564.0913	1321.5	440.85
983.2646	2565.3977	1318.45	439.05
983.3908	2566.7035	1313.95	434.05
983.517	2568.0086	1318.35	435.75
983.6432	2569.313	1321.1	439
983.7694	2570.6167	1323.2	437.75
983.8955	2571.9197	1310.15	430.1
984.0216	2573.222	1319.6	435.1
984.1476	2574.5236	1314.45	431.25
984.2737	2575.8246	1314.55	429.05
984.3996	2577.1248	1321.6	437.2
984.5256	2578.4244	1315.25	434.6
984.6515	2579.7232	1314.45	431.9
984.7774	2581.0214	1356.2	440.3
984.9032	2582.3189	1321.85	443.4
985.029	2583.6157	1321.3	435.45
985.1548	2584.9118	1328.55	446.35
985.2806	2586.2072	1317.4	437.2
985.4063	2587.5019	1326.85	445.1
985.5319	2588.7959	1318.75	439.2
985.6576	2590.0893	1329.15	445.65
985.7832	2591.3819	1327.55	445.5
985.9087	2592.6739	1327.5	445.95
986.0343	2593.9652	1332.6	447.45
986.1597	2595.2557	1328.1	444.55
986.2852	2596.5456	1332.7	451.1
986.4106	2597.8348	1332.35	452.25
986.536	2599.1234	1332.45	450.9
986.6614	2600.4112	1331.7	449.55
986.7867	2601.6983	1343.9	460.75
986.912	2602.9848	1342.1	460.7
987.0372	2604.2705	1345.05	456.35
987.1624	2605.5556	1336.4	455.05
987.2876	2606.84	1334.95	454.05
987.4128	2608.1237	1336.6	452.55
987.5379	2609.4067	1340.1	457.35
987.6629	2610.689	1340.2	451.7
987.788	2611.9707	1335.5	450.3
987.913	2613.2516	1337.7	451
988.0379	2614.5319	1331.25	450.05
988.1629	2615.8115	1324.2	441.45
988.2878	2617.0903	1328.15	446.45
988.4126	2618.3685	1326.65	443.25
988.5375	2619.6461	1332.2	450.15
988.6622	2620.9229	1329.25	447.1
988.787	2622.199	1329.15	448.55
988.9117	2623.4745	1326.55	444.4
989.0364	2624.7493	1328.25	445.5
989.161	2626.0234	1329.8	449.5
989.2857	2627.2968	1327.9	445.7
989.4102	2628.5695	1323.95	441.7
989.5348	2629.8415	1331.95	452.55
989.6593	2631.1128	1328.3	444.8
989.7837	2632.3835	1327.2	443.75
989.9082	2633.6535	1322.75	439.85
990.0326	2634.9228	1329.15	448.5
990.1569	2636.1914	1328.05	446.1
990.2812	2637.4593	1333.4	451.95
990.4055	2638.7265	1324.45	442.4
990.5298	2639.9931	1323.8	440.25
990.654	2641.259	1326.2	442.85
990.7782	2642.5242	1327.05	446
990.9023	2643.7887	1320.95	436.35
991.0264	2645.0525	1320.1	438.45
991.1505	2646.3156	1327.1	444.65
991.2745	2647.5781	1315.1	434.5
991.3985	2648.8398	1317.75	436.15
991.5225	2650.1009	1322.45	431.3
991.6464	2651.3613	1316.6	433.6
991.7703	2652.6211	1310.75	429.05
991.8942	2653.8801	1311.5	430.85
992.018	2655.1385	1313.8	429.95
992.1418	2656.3961	1315.65	433.05
992.2655	2657.6531	1315.85	433.7
992.3892	2658.9094	1314.7	430.9
992.5129	2660.1651	1309.85	428.75
992.6366	2661.42	1311.4	429
992.7602	2662.6743	1321.8	438.8
992.8837	2663.9279	1320.65	438.4
993.0073	2665.1808	1324.8	443.3
993.1307	2666.433	1320.55	438
993.2542	2667.6846	1319	437.1
993.3776	2668.9354	1327.3	441.1
993.501	2670.1856	1329.7	446.7
993.6244	2671.4351	1329.65	448.9
993.7477	2672.6839	1331.1	447.95
993.8709	2673.9321	1329.8	450.7
993.9942	2675.1795	1336.3	452.2
994.1174	2676.4263	1343.25	463.15
994.2405	2677.6724	1344.05	463.7
994.3637	2678.9179	1343.25	459.6
994.4868	2680.1626	1338.7	459.7
994.6098	2681.4067	1350.9	467.75
994.7328	2682.6501	1350.25	468.25
994.8558	2683.8928	1347.65	464.4
994.9788	2685.1348	1344.55	462.45
995.1017	2686.3761	1337.6	457.95
995.2245	2687.6168	1343.4	462.1
995.3474	2688.8568	1332.25	451.05
995.4702	2690.0961	1328.75	448.65
995.5929	2691.3348	1332.7	449.5
995.7156	2692.5727	1326.45	446.3
995.8383	2693.81	1326.35	442.15
995.961	2695.0466	1325.35	445.6
996.0836	2696.2826	1323.3	440.45
996.2062	2697.5178	1327.1	440.5
996.3287	2698.7524	1322.7	442.75
996.4512	2699.9863	1331.35	447.45
996.5737	2701.2195	1331.85	450.2
996.6961	2702.452	1329.5	444.35
996.8185	2703.6839	1334.05	451.3
996.9408	2704.9151	1333.6	454.2
997.0631	2706.1456	1342	461
997.1854	2707.3755	1350.65	468.05
997.3077	2708.6046	1356.55	474.05
997.4299	2709.8331	1361.1	476.9
997.552	2711.0609	1374.6	493.15
997.6742	2712.2881	1378.95	496.1
997.7963	2713.5145	1395.8	511.35
997.9183	2714.7403	1400.3	520.8
998.0403	2715.9654	1416	532.7
998.1623	2717.1899	1440.85	547.2
998.2842	2718.4136	1442.1	561.4
998.4062	2719.6367	1448.3	568
998.528	2720.8591	1468.1	576.6
998.6498	2722.0809	1480.85	598.4
998.7716	2723.3019	1486.45	600.55
998.8934	2724.5223	1497.2	614.3
999.0151	2725.7421	1500.35	618.75
999.1368	2726.9611	1504.9	623.9
999.2584	2728.1795	1506.85	618.95
999.38	2729.3972	1490.45	609.15
999.5016	2730.6142	1491.7	598.25
999.6231	2731.8306	1481.6	598.7
999.7446	2733.0462	1454.65	571.7
999.8661	2734.2612	1451.9	564.15
999.9875	2735.4756	1429.45	546.05
1000.1089	2736.6892	1415	531
1000.2302	2737.9022	1397.4	515.25
1000.3515	2739.1145	1385.5	503.5
1000.4728	2740.3262	1377.9	487.95
1000.594	2741.5372	1357.5	474.2
1000.7152	2742.7475	1348.15	466.25
1000.8363	2743.9571	1338.05	455.15
1000.9575	2745.1661	1324.55	438.1
1001.0785	2746.3744	1318.2	435.05
1001.1996	2747.582	1314.9	430.85
1001.3206	2748.7889	1300.4	415.75
1001.4415	2749.9952	1288.75	406.05
1001.5625	2751.2008	1294.25	412.45
1001.6833	2752.4057	1291.4	407.7
1001.8042	2753.61	1287	405.1
1001.925	2754.8136	1280.6	397
1002.0458	2756.0165	1285.35	404.1
1002.1665	2757.2188	1287.75	406.65
1002.2872	2758.4204	1278.85	397.55
1002.4078	2759.6213	1281.4	397.7
1002.5285	2760.8215	1289.75	402.05
1002.649	2762.0211	1280.5	396.3
1002.7696	2763.22	1275.2	390.7
1002.8901	2764.4182	1281.15	398.8
1003.0106	2765.6158	1275.55	392.85
1003.131	2766.8127	1279.2	396.8
1003.2514	2768.009	1275.25	393.15
1003.3717	2769.2045	1276.1	393.3
1003.492	2770.3994	1271.2	387.4
1003.6123	2771.5936	1266.55	384.1
1003.7325	2772.7872	1261.25	380.5
1003.8527	2773.9801	1266.55	380.45
1003.9729	2775.1723	1279.15	381
1004.093	2776.3639	1262.2	380.35
1004.2131	2777.5548	1259.8	374.45
1004.3331	2778.745	1264.5	381.5
1004.4531	2779.9346	1275.8	396.65
1004.5731	2781.1235	1272.5	388.85
1004.693	2782.3117	1283.3	402.45
1004.8129	2783.4992	1280.65	400.15
1004.9328	2784.6861	1286.2	403.2
1005.0526	2785.8723	1291.7	407.15
1005.1723	2787.0579	1303.55	419.55
1005.2921	2788.2428	1310.9	429.15
1005.4118	2789.427	1316.95	436
1005.5314	2790.6106	1335.05	454.2
1005.651	2791.7935	1340.65	456.65
1005.7706	2792.9757	1357.7	476.5
1005.8902	2794.1573	1373.25	488.7
1006.0097	2795.3382	1381.6	498.7
1006.1291	2796.5184	1397.6	515.75
1006.2485	2797.698	1425.05	541.1
1006.3679	2798.8769	1431.15	547.95
1006.4873	2800.0551	1453.1	570.35
1006.6066	2801.2327	1470.9	587.4
1006.7258	2802.4096	1487.5	605.2
1006.8451	2803.5859	1515.6	633.3
1006.9642	2804.7615	1542.05	656.25
1007.0834	2805.9364	1565.5	683.85
1007.2025	2807.1106	1582.3	699.8
1007.3216	2808.2842	1625.45	743.1
1007.4406	2809.4572	1655.65	775.1
1007.5596	2810.6294	1691.35	810.2
1007.6785	2811.801	1731.15	850.25
1007.7975	2812.972	1785.05	903.05
1007.9163	2814.1423	1826	943.85
1008.0352	2815.3119	1882.05	998.5
1008.154	2816.4808	1913.95	1033
1008.2727	2817.6491	1973.25	1092.05
1008.3914	2818.8167	2025.65	1144.3
1008.5101	2819.9837	2075.4	1189.45
1008.6288	2821.15	2125.85	1243.2
1008.7474	2822.3157	2174.1	1292.05
1008.8659	2823.4807	2207	1325.45
1008.9844	2824.645	2267	1383.7
1009.1029	2825.8086	2305.85	1424.55
1009.2214	2826.9716	2338	1455.2
1009.3398	2828.134	2383.75	1502.45
1009.4581	2829.2957	2419.85	1536.6
1009.5764	2830.4567	2452.35	1571
1009.6947	2831.617	2468.7	1586.05
1009.813	2832.7767	2484.75	1601.8
1009.9312	2833.9358	2474.55	1593.45
1010.0493	2835.0941	2479.85	1597.75
1010.1675	2836.2519	2469.3	1588.2
1010.2855	2837.4089	2460.5	1578
1010.4036	2838.5653	2451.05	1568
1010.5216	2839.7211	2454.5	1575
1010.6396	2840.8761	2461.35	1577.65
1010.7575	2842.0306	2491.15	1611.55
1010.8754	2843.1843	2514.45	1632.75
1010.9932	2844.3374	2563.65	1680.9
1011.111	2845.4899	2632.15	1748.55
1011.2288	2846.6417	2699.7	1817.75
1011.3465	2847.7928	2793.7	1912.35
1011.4642	2848.9433	2843.95	1961.4
1011.5818	2850.0931	2941.55	2061.2
1011.6995	2851.2422	3028.8	2144.1
1011.817	2852.3907	3095.8	2213.95
1011.9345	2853.5385	3168.3	2285.05
1012.052	2854.6857	3249.9	2340.35
1012.1695	2855.8323	3289.05	2406.65
1012.2869	2856.9781	3343.25	2460.6
1012.4042	2858.1233	3392.95	2509.7
1012.5216	2859.2679	3438	2558.1
1012.6389	2860.4118	3489.05	2606.35
1012.7561	2861.555	3520.5	2635.65
1012.8733	2862.6976	3569.35	2685.6
1012.9905	2863.8395	3618.5	2737.2
1013.1076	2864.9808	3626.25	2744.55
1013.2247	2866.1214	3656.55	2774.45
1013.3417	2867.2614	3657.15	2773.55
1013.4587	2868.4007	3684.6	2802.15
1013.5757	2869.5393	3693.95	2810.95
1013.6926	2870.6773	3706.45	2821.5
1013.8095	2871.8146	3732.6	2847.05
1013.9263	2872.9513	3716.05	2833.95
1014.0431	2874.0874	3723.4	2841.75
1014.1599	2875.2227	3720.05	2838.25
1014.2766	2876.3574	3703.45	2820.9
1014.3933	2877.4915	3682.5	2800.05
1014.51	2878.6249	3657.5	2776.9
1014.6266	2879.7577	3625.25	2740.2
1014.7431	2880.8898	3620.1	2725.45
1014.8596	2882.0212	3594.25	2715.2
1014.9761	2883.152	3589.5	2706.85
1015.0925	2884.2821	3556.25	2674.6
1015.2089	2885.4116	3572.25	2690.55
1015.3253	2886.5405	3557.5	2676.95
1015.4416	2887.6686	3577.1	2690.95
1015.5579	2888.7962	3580.1	2700.05
1015.6741	2889.923	3567.2	2685.05
1015.7903	2891.0493	3595.7	2716.1
1015.9065	2892.1748	3594.1	2711.3
1016.0226	2893.2997	3615.2	2735.25
1016.1387	2894.424	3626.4	2744.95
1016.2547	2895.5476	3642.45	2759.95
1016.3707	2896.6706	3694.15	2813.15
1016.4866	2897.7929	3707.95	2826.95
1016.6025	2898.9145	3732	2850.85
1016.7184	2900.0355	3772.55	2890.8
1016.8342	2901.1559	3805.35	2922.25
1016.95	2902.2756	3833.85	2951.15
1017.0658	2903.3946	3866.75	2985.55
1017.1815	2904.513	3901.9	3017.7
1017.2971	2905.6308	3931.7	3050.2
1017.4127	2906.7479	3959	3077
1017.5283	2907.8643	3988.2	3105.3
1017.6439	2908.9801	3998.05	3114.7
1017.7594	2910.0953	4005.25	3124.5
1017.8748	2911.2098	4014.55	3130.25
1017.9902	2912.3236	4009.85	3120.55
1018.1056	2913.4368	3995.1	3110.6
1018.2209	2914.5494	3990.85	3107.45
1018.3362	2915.6613	3953.8	3066.2
1018.4515	2916.7725	3924.85	3040.5
1018.5667	2917.8831	3902.45	3019.65
1018.6819	2918.9931	3876.6	2991.75
1018.797	2920.1024	3851.55	2970.45
1018.9121	2921.211	3829.1	2947.35
1019.0271	2922.319	3807.15	2924.9
1019.1421	2923.4264	3788.95	2906.6
1019.2571	2924.5331	3771.5	2889.7
1019.372	2925.6391	3759.8	2877.85
1019.4869	2926.7445	3757.4	2875.3
1019.6017	2927.8493	3743.25	2859.95
1019.7165	2928.9534	3724	2842.3
1019.8313	2930.0569	3720.35	2835.7
1019.946	2931.1597	3726.25	2843.05
1020.0606	2932.2619	3713.4	2832.25
1020.1753	2933.3634	3701.7	2820.15
1020.2899	2934.4643	3690	2801
1020.4044	2935.5645	3664.95	2775.85
1020.5189	2936.6641	3634.25	2747.9
1020.6334	2937.763	3584.85	2704.85
1020.7478	2938.8613	3532.1	2651.05
1020.8622	2939.959	3478.45	2592.75
1020.9765	2941.056	3404.8	2523.8
1021.0908	2942.1523	3318.75	2435.7
1021.2051	2943.248	3237.6	2354.25
1021.3193	2944.3431	3138.25	2256
1021.4334	2945.4375	3037.4	2154.9
1021.5476	2946.5313	2932.5	2051.95
1021.6617	2947.6244	2820	1935.95
1021.7757	2948.7169	2724.35	1843.1
1021.8897	2949.8087	2618.7	1738.4
1022.0037	2950.8999	2526.5	1643.4
1022.1176	2951.9904	2444.45	1562.8
1022.2315	2953.0803	2362.05	1478.3
1022.3453	2954.1696	2290.8	1408.45
1022.4591	2955.2582	2245.35	1363.5
1022.5728	2956.3462	2196.7	1313.8
1022.6865	2957.4335	2141	1258.75
1022.8002	2958.5202	2099.35	1214.3
1022.9138	2959.6062	2082.6	1201.1
1023.0274	2960.6916	2051.05	1169.75
1023.141	2961.7764	2026.15	1143.35
1023.2545	2962.8605	2016	1134.45
1023.3679	2963.9439	2005.25	1125.3
1023.4813	2965.0267	1991.05	1108.6
1023.5947	2966.1089	2010.5	1109.5
1023.708	2967.1905	1979.2	1097.35
1023.8213	2968.2714	1972.75	1092.7
1023.9346	2969.3516	1963.65	1080.75
1024.0478	2970.4312	1976.55	1087.75
1024.1609	2971.5102	1975.75	1096.4
1024.274	2972.5885	1970.8	1089.75
1024.3871	2973.6662	1983.55	1097
1024.5002	2974.7432	1970.85	1090.2
1024.6132	2975.8196	1978	1097.1
1024.7261	2976.8954	1959.45	1078.5
1024.839	2977.9705	1945.55	1064.15
1024.9519	2979.045	1937.5	1056.7
1025.0647	2980.1188	1915.35	1035.1
1025.1775	2981.192	1900.6	1019.9
1025.2902	2982.2645	1885.65	1003.45
1025.4029	2983.3364	1858.95	975.95
1025.5156	2984.4077	1821.25	940.15
1025.6282	2985.4783	1801.3	915.45
1025.7407	2986.5483	1763.6	883.15
1025.8532	2987.6177	1721.75	840.7
1025.9657	2988.6864	1692.55	811.6
1026.0782	2989.7545	1660.9	778.2
1026.1906	2990.8219	1621.1	738.05
1026.3029	2991.8887	1599.5	715.1
1026.4152	2992.9548	1560.7	679.85
1026.5275	2994.0204	1528.55	645.15
1026.6397	2995.0852	1493.85	613.3
1026.7519	2996.1495	1478.65	596.65
1026.864	2997.2131	1450.95	570
1026.9761	2998.276	1430.15	549.6
1027.0882	2999.3383	1404.2	521.35
1027.2002	3000.4	1392.85	511.45
1027.3122	3001.4611	1379.25	498.95
1027.4241	3002.5215	1362.85	483.05
1027.536	3003.5812	1348.85	467.85
1027.6478	3004.6404	1334.6	452.9
1027.7596	3005.6989	1330.75	446.7
1027.8714	3006.7567	1321.25	438.5
1027.9831	3007.8139	1339.35	434.4
1028.0947	3008.8705	1304.75	423.4
1028.2064	3009.9264	1300.05	417.65
1028.3179	3010.9818	1294.55	413.15
1028.4295	3012.0364	1296.2	413.6
1028.541	3013.0905	1289	406.9
1028.6524	3014.1439	1289.9	406.9
1028.7638	3015.1966	1287.1	406.5
1028.8752	3016.2487	1286.95	403.05
1028.9865	3017.3002	1291.35	406
1029.0978	3018.3511	1287.25	406.2
1029.209	3019.4013	1288.9	407.6
1029.3202	3020.4509	1289.35	408.65
1029.4314	3021.4998	1282.05	399.4
1029.5425	3022.5481	1290.95	411.7
1029.6535	3023.5958	1293.8	413.35
1029.7645	3024.6428	1292.05	408.2
1029.8755	3025.6892	1297.45	419.75
1029.9864	3026.735	1299.85	415.25
1030.0973	3027.7802	1296.35	415
1030.2082	3028.8247	1303.05	420.65
1030.319	3029.8685	1311.95	427.65
1030.4297	3030.9118	1309.45	426.1
1030.5404	3031.9544	1316.75	435.1
1030.6511	3032.9963	1321.3	438.45
1030.7617	3034.0376	1325.7	444.05
1030.8723	3035.0783	1336.25	451.85
1030.9829	3036.1184	1338.6	456.4
1031.0934	3037.1578	1335.75	455.25
1031.2038	3038.1966	1341.35	460
1031.3142	3039.2348	1345.65	466.15
1031.4246	3040.2723	1356.35	466.9
1031.5349	3041.3092	1340.5	460.95
1031.6452	3042.3455	1341.4	460.4
1031.7554	3043.3811	1331.75	450.65
1031.8656	3044.4161	1334.65	450.9
1031.9758	3045.4505	1333.9	451.85
1032.0859	3046.4842	1316.8	435.15
1032.1959	3047.5173	1316	435.95
1032.3059	3048.5498	1315.3	433.65
1032.4159	3049.5816	1301.75	419.8
1032.5258	3050.6128	1295.2	411.55
1032.6357	3051.6434	1291.65	408.95
1032.7455	3052.6734	1283.5	399.4
1032.8553	3053.7027	1274.75	392.75
1032.9651	3054.7314	1269.55	388.3
1033.0748	3055.7594	1268.75	388.2
1033.1845	3056.7868	1257.55	373.45
1033.2941	3057.8136	1251.3	370.4
1033.4037	3058.8398	1242.95	363
1033.5132	3059.8653	1245.7	363.4
1033.6227	3060.8902	1239.85	358
1033.7321	3061.9145	1236.9	354.6
1033.8415	3062.9381	1225.4	343.4
1033.9509	3063.9612	1240.85	345.5
1034.0602	3064.9835	1215.85	334.3
1034.1694	3066.0053	1212.8	329.3
1034.2787	3067.0264	1194.45	312.65
1034.3878	3068.0469	1201.85	319.85
1034.497	3069.0668	1188	303.1
1034.6061	3070.086	1177.8	298.45
1034.7151	3071.1046	1172.05	288.8
1034.8241	3072.1226	1165.5	284.85
1034.9331	3073.1399	1151.65	268.65
1035.042	3074.1567	1145.1	265.15
1035.1508	3075.1727	1142.3	259.55
1035.2597	3076.1882	1126.5	246.7
1035.3684	3077.203	1120.4	240.7
1035.4772	3078.2173	1106.75	225.65
1035.5859	3079.2308	1101.6	214.65
1035.6945	3080.2438	1097.15	213.35
1035.8031	3081.2561	1083.3	201.6
1035.9117	3082.2678	1079.35	198.35
1036.0202	3083.2789	1068.35	189.55
1036.1286	3084.2893	1067.6	186.6
1036.2371	3085.2991	1061.75	181.85
1036.3454	3086.3083	1061.05	173.95
1036.4538	3087.3169	1049.95	167.45
1036.562	3088.3248	1046.8	163.2
1036.6703	3089.3321	1044.15	158.8
1036.7785	3090.3388	1037.05	157.85
1036.8866	3091.3449	1031.95	149.65
1036.9948	3092.3503	1031.35	148.3
1037.1028	3093.3551	1026.85	147.1
1037.2108	3094.3593	1018.9	139.05
1037.3188	3095.3629	1020.05	139.5
1037.4267	3096.3658	1016.55	133.05
1037.5346	3097.3681	1013.65	133.25
1037.6425	3098.3698	1010.75	127.05
1037.7503	3099.3708	1008.8	128.2
1037.858	3100.3713	1009.4	127.75
1037.9657	3101.3711	1006.05	124.9
1038.0734	3102.3702	1142.55	120.05
1038.181	3103.3688	1003.95	120.85
1038.2886	3104.3667	997.85	117.85
1038.3961	3105.364	997.9	116.75
1038.5036	3106.3607	999.35	115.25
1038.611	3107.3568	994.1	110.45
1038.7184	3108.3522	990.45	110.7
1038.8257	3109.347	995.85	112.8
1038.933	3110.3412	992.7	106.6
1039.0403	3111.3348	990.15	109.3
1039.1475	3112.3277	989.7	110.4
1039.2547	3113.32	985.45	106.4
1039.3618	3114.3117	990.1	110.7
1039.4689	3115.3028	988.85	108.1
1039.5759	3116.2932	986.5	103
1039.6829	3117.2831	988.5	101
1039.7898	3118.2723	980.85	99.25
1039.8967	3119.2608	984.65	104
1040.0035	3120.2488	979.85	98.55
1040.1103	3121.2361	981.5	100.6
1040.2171	3122.2229	974.65	94.25
1040.3238	3123.209	979.4	97.25
1040.4305	3124.1944	977.55	96.65
1040.5371	3125.1793	978.05	93.8
1040.6437	3126.1635	976.6	96.65
1040.7502	3127.1471	973.4	91.35
1040.8567	3128.1301	974.05	93.3
1040.9631	3129.1125	971.8	91.1
1041.0695	3130.0942	972.75	90
1041.1759	3131.0753	981.45	92.4
1041.2822	3132.0558	969.45	85.2
1041.3884	3133.0357	969.8	88.25
1041.4946	3134.015	967.9	86.4
1041.6008	3134.9936	967.3	84.6
1041.7069	3135.9716	984.9	81.85
1041.813	3136.949	965.1	84.65
1041.919	3137.9258	981.05	80.3
1042.025	3138.902	969.45	83.65
1042.1309	3139.8775	961.05	82.75
1042.2368	3140.8524	961.95	82.9
1042.3427	3141.8267	961	78.7
1042.4485	3142.8004	957.65	76.4
1042.5542	3143.7735	966.8	80.15
1042.6599	3144.7459	960.35	77.25
1042.7656	3145.7178	957.25	77
1042.8712	3146.689	958.75	77.35
1042.9768	3147.6596	958.1	73.65
1043.0823	3148.6295	957.4	76
1043.1878	3149.5989	955.8	73.75
1043.2932	3150.5676	949.7	69.85
1043.3986	3151.5357	949.05	67.8
1043.5039	3152.5032	953.3	73.65
1043.6092	3153.4701	951.6	70.45
1043.7145	3154.4364	953.3	70.3
1043.8197	3155.402	949.05	69.4
1043.9248	3156.367	949.75	66.1
1044.03	3157.3315	992.2	66.7
1044.135	3158.2952	949.65	67.6
1044.24	3159.2584	945.15	63.75
1044.345	3160.221	942.75	60.25
1044.4499	3161.1829	949.75	67.9
1044.5548	3162.1442	945.4	65.55
1044.6596	3163.105	944.65	63.25
1044.7644	3164.065	945.4	63.65
1044.8692	3165.0245	947.1	63.4
1044.9739	3165.9834	940.3	60.5
1045.0785	3166.9416	940.15	58.9
1045.1831	3167.8993	941.15	60.5
1045.2877	3168.8563	943.55	63.05
1045.3922	3169.8127	939	57.75
1045.4966	3170.7684	937.65	55.75
1045.6011	3171.7236	941.3	58.7
1045.7054	3172.6782	941.35	60.2
1045.8098	3173.6321	940.5	58.9
1045.914	3174.5854	945.8	61.6
1046.0183	3175.5381	938.9	58.05
1046.1224	3176.4902	935.25	54.85
1046.2266	3177.4417	937.45	57.4
1046.3307	3178.3926	935.9	55.5
1046.4347	3179.3428	932.5	54.35
1046.5387	3180.2924	935.35	54.45
1046.6427	3181.2415	937.8	56.8
1046.7466	3182.1899	935.95	54.45
1046.8504	3183.1377	935.85	57.2
1046.9542	3184.0848	937.1	53.1
1047.058	3185.0314	933.1	51.4
1047.1617	3185.9773	933.55	52.2
1047.2654	3186.9227	932.4	48.75
1047.369	3187.8674	932.45	51.95
1047.4726	3188.8115	938.9	54.6
1047.5761	3189.755	932	51.55
1047.6796	3190.6979	934.7	53.8
1047.783	3191.6402	931.95	48.95
1047.8864	3192.5818	932.05	49.15
1047.9898	3193.5229	954.7	53.1
1048.0931	3194.4633	933.25	53.2
1048.1963	3195.4031	931	48.7
1048.2995	3196.3423	929.45	49.25
1048.4027	3197.2809	930.1	51.25
1048.5058	3198.2189	928.95	49.4
1048.6089	3199.1563	947.5	50.9
1048.7119	3200.0931	928.15	47.05
1048.8148	3201.0292	928.7	48.6
1048.9178	3201.9648	929.7	46.55
1049.0206	3202.8997	931.15	47.15
1049.1235	3203.834	931.2	52.35
1049.2262	3204.7677	926.95	43
1049.329	3205.7008	926	42.75
1049.4317	3206.6333	924.55	44.2
1049.5343	3207.5652	928.15	44.3
1049.6369	3208.4964	927.2	45.3
1049.7394	3209.4271	924.75	44.4
1049.8419	3210.3571	927.7	46.75
1049.9444	3211.2865	928.9	49.3
1050.0468	3212.2154	926.85	44.6
1050.1491	3213.1436	930.95	46.6
1050.2514	3214.0712	932.45	45.3
1050.3537	3214.9982	927.75	49.05
1050.4559	3215.9246	925.6	44.25
1050.5581	3216.8503	923.35	43.7
1050.6602	3217.7755	925	44.6
1050.7623	3218.7001	922.55	43.4
1050.8643	3219.624	925.2	45.85
1050.9663	3220.5473	923.6	41.6
1051.0682	3221.4701	925.05	42.25
1051.1701	3222.3922	924.15	42.05
1051.2719	3223.3137	920.85	42.4
1051.3737	3224.2346	920.5	38.8
1051.4754	3225.1549	924.95	44.75
1051.5771	3226.0746	921.55	42.9
1051.6788	3226.9937	923.85	42.8
1051.7804	3227.9121	922.5	41.75
1051.8819	3228.83	922.55	41.95
1051.9834	3229.7473	920.3	38.75
1052.0849	3230.6639	921.95	40.6
1052.1863	3231.5799	921.75	42.5
1052.2876	3232.4954	922	40.9
1052.3889	3233.4102	921.3	41.8
1052.4902	3234.3244	921.1	39.85
1052.5914	3235.238	918.85	39.1
1052.6926	3236.151	944.7	39.85
1052.7937	3237.0634	920.05	40.45
1052.8948	3237.9752	918.2	36.75
1052.9958	3238.8864	919.55	38.2
1053.0968	3239.797	919.6	38.55
1053.1977	3240.7069	919.25	38.65
1053.2986	3241.6163	918.1	35.3
1053.3994	3242.5251	917.45	36.05
1053.5002	3243.4332	918.1	38.9
1053.6009	3244.3408	918.4	36.25
1053.7016	3245.2477	917	37.15
1053.8022	3246.154	919.7	37
1053.9028	3247.0598	918.5	37.5
1054.0034	3247.9649	917.15	35.25
1054.1039	3248.8694	917.15	37.4
1054.2043	3249.7733	914.95	32
1054.3047	3250.6766	918.65	38.6
1054.4051	3251.5793	915.8	36
1054.5054	3252.4814	913.3	32.65
1054.6056	3253.3829	914.1	35.55
1054.7058	3254.2838	914.05	33.9
1054.806	3255.1841	913	33.7
1054.9061	3256.0838	916.05	37.25
1055.0061	3256.9829	911.25	33.2
1055.1062	3257.8814	915	33.05
1055.2061	3258.7792	913.3	31.8
1055.306	3259.6765	912.9	30.85
1055.4059	3260.5731	911.7	30.05
1055.5057	3261.4692	910.25	27.9
1055.6055	3262.3647	910.55	30.1
1055.7052	3263.2595	909.45	28.5
1055.8049	3264.1538	909.2	29
1055.9045	3265.0474	909.45	29.85
1056.0041	3265.9404	907.4	27.7
1056.1036	3266.8329	907.55	29.1
1056.2031	3267.7247	917	25.75
1056.3025	3268.616	906.3	28.25
1056.4019	3269.5066	904.35	22.25
1056.5013	3270.3966	907.5	25.25
1056.6005	3271.286	902.7	23.7
