Software Version:	3.9.2.0
Unit SN:	10000200
Spectrometer SN:	6960
Date:	3/14/2024 12:59:45 PM
Data Line Index:	25
Spectral Points:	2048
Integration time (ms):	125
Averages:	20
Delay (ms):	30000
Sequence Number:	1
Processing:	dark subtract
Laser Power (mW):	300
Laser Current (mA):	823
Laser Diode Temp (C):	25.1
Laser Case Temp (C):	27.9
System Temp (C):	27.9
Spectrometer Temp (C):	25.8
CCD Temp (C):	0
Secondary Temp (C):	20.008
Heatsink Temp (C):	23.808
CCDPCB Temp (C):	37.585
SecondaryPCB Temp (C):	34.973

Wavelength	RamanShift	Raw Counts	Dark Subtracted
787.061	30.1047	418.75	5.8
787.2016	32.3739	418.45	7.65
787.3422	34.6426	420.15	6.55
787.4828	36.9109	419	5.65
787.6235	39.1787	425.05	7.2
787.7642	41.4461	432.9	11.3
787.9049	43.7131	435.4	9.4
788.0456	45.9796	440.5	12.25
788.1863	48.2456	444.6	11.15
788.3271	50.5112	448.45	11.6
788.4679	52.7764	450.35	10.8
788.6087	55.0411	455.1	16.9
788.7496	57.3054	463	17.05
788.8904	59.5692	463.55	15.95
789.0313	61.8326	469.1	15.9
789.1722	64.0955	476.45	18.95
789.3132	66.3579	483.1	19.15
789.4541	68.6199	487.15	23.15
789.5951	70.8815	494.9	25
789.7361	73.1426	512.55	40.95
789.8771	75.4032	547.45	71.3
790.0181	77.6634	615.3	135.1
790.1592	79.9231	775.15	289.15
790.3003	82.1824	1126.55	633.65
790.4414	84.4412	1702.4	1198.4
790.5825	86.6995	2476.6	1959
790.7237	88.9574	3225.2	2696.55
790.8648	91.2148	3764.7	3225.85
791.006	93.4717	4048.6	3504.1
791.1472	95.7282	4118.8	3568.7
791.2885	97.9842	4135.85	3581.6
791.4297	100.2398	4122.2	3567.2
791.571	102.4949	4086.85	3529.45
791.7123	104.7495	4069.7	3508.65
791.8536	107.0036	4028.05	3468.5
791.9949	109.2573	3991.65	3433.15
792.1363	111.5105	3902.4	3340.35
792.2777	113.7632	3853.75	3289.35
792.4191	116.0154	3803.4	3229.8
792.5605	118.2672	3732.05	3164.15
792.7019	120.5185	3645.8	3077.1
792.8434	122.7693	3588.55	3019.4
792.9849	125.0197	3543.05	2969.4
793.1264	127.2696	3474.4	2898.7
793.2679	129.519	3464.5	2885.65
793.4094	131.7679	3440.2	2859.5
793.551	134.0163	3434.1	2848.1
793.6926	136.2642	3428.05	2836.8
793.8342	138.5117	3426	2831.9
793.9758	140.7587	3390.35	2795
794.1175	143.0052	3366.35	2766.5
794.2591	145.2512	3338.45	2742.9
794.4008	147.4967	3303.85	2706.45
794.5425	149.7417	3264	2661.7
794.6842	151.9863	3238.35	2635.7
794.826	154.2304	3239.05	2631.7
794.9677	156.4739	3227.25	2611.35
795.1095	158.717	3244.7	2633.5
795.2513	160.9596	3234.35	2616.8
795.3931	163.2017	3250.85	2632.2
795.535	165.4433	3269.7	2650.4
795.6768	167.6844	3253.7	2630.2
795.8187	169.925	3226.9	2603.85
795.9606	172.1651	3193.25	2564.25
796.1025	174.4047	3159.85	2527.15
796.2445	176.6439	3132.75	2497.55
796.3864	178.8825	3130.25	2492.75
796.5284	181.1206	3109.7	2466.65
796.6704	183.3582	3094.55	2448.35
796.8124	185.5954	3075.95	2428.75
796.9544	187.832	3082.8	2431.2
797.0965	190.0681	3083.4	2430.15
797.2386	192.3037	3076.1	2421
797.3806	194.5388	3083.6	2426.4
797.5228	196.7734	3080.95	2422.1
797.6649	199.0075	3109.6	2445.05
797.807	201.2411	3112.7	2443.4
797.9492	203.4742	3129.15	2461.25
798.0914	205.7068	3150.3	2480.9
798.2336	207.9389	3158.4	2490
798.3758	210.1704	3160.8	2488.6
798.518	212.4015	3161.75	2487.35
798.6603	214.632	3166.15	2491.6
798.8025	216.862	3167.35	2495.95
798.9448	219.0915	3159.5	2496.2
799.0871	221.3205	3157.4	2497.65
799.2294	223.549	3156.5	2503.45
799.3718	225.777	3143.65	2489.05
799.5141	228.0044	3151.5	2495.85
799.6565	230.2314	3134.45	2480.3
799.7989	232.4578	3112.4	2456.05
799.9413	234.6837	3102.3	2440.7
800.0837	236.909	3097.7	2434.95
800.2262	239.1339	3109.25	2425.25
800.3687	241.3582	3083.7	2409.85
800.5111	243.582	3105.5	2408.15
800.6536	245.8053	3113.05	2421.55
800.7961	248.0281	3095.15	2406.9
800.9387	250.2503	3109.6	2415.5
801.0812	252.472	3116.95	2420.4
801.2238	254.6932	3122.85	2423.7
801.3664	256.9139	3104.5	2402.2
801.509	259.134	3127.3	2423.45
801.6516	261.3536	3141.8	2439.55
801.7942	263.5727	3160.2	2453.2
801.9369	265.7912	3185.8	2484.15
802.0795	268.0092	3225.1	2518.65
802.2222	270.2267	3245.7	2538.4
802.3649	272.4436	3275.35	2564.65
802.5076	274.6601	3289.4	2574
802.6504	276.8759	3297.25	2584.2
802.7931	279.0913	3313.85	2604.05
802.9359	281.3061	3319.5	2606.5
803.0787	283.5204	3329.55	2614.75
803.2215	285.7341	3336.8	2617.55
803.3643	287.9473	3363.55	2641.3
803.5071	290.16	3355.1	2625.6
803.6499	292.3721	3311.05	2590.25
803.7928	294.5837	3305.35	2582.9
803.9357	296.7947	3271.6	2550.65
804.0786	299.0052	3271.9	2548.7
804.2215	301.2152	3248.45	2522.75
804.3644	303.4246	3232.15	2511.25
804.5074	305.6334	3205.75	2483
804.6503	307.8418	3186.85	2461.2
804.7933	310.0495	3181.2	2455
804.9363	312.2568	3143.9	2416.55
805.0793	314.4635	3101.5	2372
805.2223	316.6696	3064.8	2333.2
805.3653	318.8752	3036.2	2297.5
805.5084	321.0802	3020.55	2291.85
805.6514	323.2847	3012.3	2280.8
805.7945	325.4887	3003.9	2271.2
805.9376	327.692	3009.85	2274.6
806.0807	329.8949	3059.55	2323.95
806.2238	332.0972	3050.95	2315.2
806.367	334.2989	3059.25	2318.3
806.5101	336.5001	3063.6	2322.7
806.6533	338.7007	3048.25	2305.65
806.7965	340.9008	3025.85	2282.55
806.9397	343.1003	2971.45	2224.65
807.0829	345.2992	2937	2190.25
807.2261	347.4976	2903.5	2155.05
807.3693	349.6955	2879.75	2126.75
807.5126	351.8927	2878.35	2125.75
807.6559	354.0895	2857.1	2094.2
807.7991	356.2856	2851.1	2097.85
807.9424	358.4812	2829.35	2076.4
808.0857	360.6763	2829.8	2073.8
808.2291	362.8707	2829.35	2074.1
808.3724	365.0646	2821.8	2065.35
808.5158	367.258	2805.8	2046.9
808.6591	369.4508	2828.7	2065.7
808.8025	371.643	2843.95	2082.55
808.9459	373.8346	2865.25	2102.35
809.0893	376.0257	2885.3	2115.5
809.2327	378.2162	2896.2	2126.7
809.3762	380.4062	2909.65	2138.85
809.5196	382.5956	2876.25	2103.55
809.6631	384.7844	2840.8	2068.55
809.8066	386.9726	2813.4	2037.25
809.9501	389.1603	2783.65	2007.95
810.0936	391.3474	2799.5	1991.4
810.2371	393.5339	2777	2000.1
810.3806	395.7199	2762.3	1992.9
810.5241	397.9052	2775.8	2009.3
810.6677	400.09	2801.3	2038.1
810.8113	402.2743	2827.55	2064.65
810.9548	404.4579	2837.45	2074.45
811.0984	406.641	2868.75	2103.15
811.2421	408.8235	2897.25	2127.25
811.3857	411.0054	2943.65	2179
811.5293	413.1868	2995.2	2224.5
811.673	415.3675	3052.95	2282.05
811.8166	417.5477	3073.65	2300.2
811.9603	419.7273	3006.7	2231.2
812.104	421.9064	2921.95	2138.35
812.2477	424.0848	2865.95	2086.9
812.3914	426.2627	2811.65	2030.4
812.5351	428.4399	2770.7	1987.95
812.6788	430.6166	2729.45	1943.65
812.8226	432.7928	2685.3	1894
812.9663	434.9683	2657	1867.95
813.1101	437.1432	2636.2	1845.65
813.2539	439.3176	2614.1	1824.35
813.3977	441.4914	2605.3	1813.95
813.5415	443.6645	2595.35	1801.2
813.6853	445.8371	2589.25	1795.5
813.8291	448.0091	2591.2	1798.55
813.973	450.1806	2589.3	1794
814.1168	452.3514	2576.6	1779.75
814.2607	454.5216	2593.6	1788.85
814.4046	456.6913	2568.35	1771.85
814.5485	458.8603	2568.4	1773.9
814.6924	461.0288	2570.8	1775.55
814.8363	463.1967	2560.7	1761.75
814.9802	465.3639	2561.4	1762.55
815.1241	467.5306	2556.15	1758.8
815.2681	469.6967	2535.35	1735.2
815.412	471.8622	2534.25	1734.2
815.556	474.0271	2522	1722.85
815.7	476.1914	2521.65	1719.5
815.844	478.3551	2508.3	1707.6
815.988	480.5182	2512.6	1708.65
816.132	482.6807	2507.4	1703.4
816.276	484.8426	2529.85	1726.8
816.4201	487.0039	2556.35	1752.95
816.5641	489.1647	2580.2	1774.95
816.7082	491.3248	2609.25	1806.95
816.8522	493.4843	2621.75	1816.6
816.9963	495.6432	2613.8	1808.35
817.1404	497.8015	2590.4	1782.2
817.2845	499.9592	2560.05	1753.25
817.4286	502.1163	2517.65	1712.6
817.5727	504.2728	2485.1	1676.9
817.7168	506.4287	2482.65	1675
817.861	508.5839	2457.9	1650.65
818.0051	510.7386	2459.15	1648.4
818.1493	512.8927	2463.25	1645.65
818.2935	515.0461	2459.5	1652.65
818.4377	517.199	2463.2	1654
818.5818	519.3512	2494.75	1683.55
818.726	521.5029	2535.9	1718.6
818.8703	523.6539	2569.5	1756.1
819.0145	525.8043	2575.2	1759.8
819.1587	527.9541	2529.1	1713
819.303	530.1033	2487.6	1672.9
819.4472	532.2519	2451	1634.9
819.5915	534.3999	2439.3	1620.9
819.7357	536.5472	2426.45	1611.55
819.88	538.694	2434.9	1620.2
820.0243	540.8401	2433.1	1615.65
820.1686	542.9856	2453.4	1633.9
820.3129	545.1305	2451.75	1631.6
820.4572	547.2748	2458.05	1638.2
820.6016	549.4185	2460.05	1638.25
820.7459	551.5615	2457.7	1637.3
820.8902	553.704	2462.9	1640.75
821.0346	555.8458	2471.75	1650.15
821.1789	557.987	2486.15	1665.8
821.3233	560.1276	2503.45	1681.7
821.4677	562.2675	2539.9	1718.65
821.6121	564.4069	2583.25	1761.9
821.7565	566.5456	2595.5	1773.7
821.9009	568.6837	2584.2	1761.25
822.0453	570.8212	2547.85	1723.95
822.1897	572.958	2504.1	1679.9
822.3342	575.0942	2471.05	1649.4
822.4786	577.2299	2441.1	1616.45
822.6231	579.3648	2418.55	1595.6
822.7675	581.4992	2399.5	1575.45
822.912	583.6329	2379.2	1557.35
823.0565	585.766	2407.6	1587.25
823.201	587.8985	2430	1607.55
823.3454	590.0304	2456.4	1621.65
823.4899	592.1616	2484.05	1658.35
823.6345	594.2922	2465.5	1639.9
823.779	596.4222	2450.9	1624.65
823.9235	598.5515	2400.6	1573.35
824.068	600.6802	2359.75	1532.15
824.2126	602.8083	2338.75	1512.5
824.3571	604.9358	2326.3	1496.2
824.5017	607.0626	2323.45	1495.15
824.6462	609.1888	2331.15	1499.65
824.7908	611.3144	2346.25	1516.55
824.9354	613.4393	2364.7	1534.55
825.08	615.5636	2395.15	1562.75
825.2246	617.6873	2435.95	1604.85
825.3692	619.8103	2449.8	1616.65
825.5138	621.9327	2440.5	1606.15
825.6584	624.0544	2418.8	1587.2
825.803	626.1756	2389.65	1558.65
825.9477	628.2961	2354	1522.85
826.0923	630.4159	2335.2	1501.55
826.237	632.5351	2322.15	1487.25
826.3816	634.6537	2307.45	1474.9
826.5263	636.7716	2310.5	1474.2
826.6709	638.8889	2300.7	1465.4
826.8156	641.0056	2297.75	1462.35
826.9603	643.1216	2322.6	1484.7
827.105	645.237	2305.15	1465.9
827.2497	647.3518	2288.1	1450.35
827.3944	649.4659	2283.6	1447.9
827.5391	651.5793	2265.25	1426.7
827.6838	653.6922	2237.4	1400.3
827.8285	655.8043	2247.5	1409.35
827.9733	657.9159	2239.15	1399.95
828.118	660.0268	2222	1380.5
828.2627	662.137	2217.95	1378.55
828.4075	664.2466	2231	1390.1
828.5522	666.3556	2223.2	1384.25
828.697	668.4639	2217.45	1372.8
828.8418	670.5716	2210.65	1371.55
828.9865	672.6786	2207.75	1366.35
829.1313	674.785	2201.15	1357.7
829.2761	676.8907	2190.15	1350.7
829.4209	678.9958	2190.1	1349.2
829.5657	681.1002	2190.3	1348.65
829.7105	683.204	2189.8	1345.2
829.8553	685.3072	2199.95	1354.45
830.0001	687.4097	2184.25	1340.8
830.1449	689.5115	2186.05	1339.15
830.2898	691.6127	2181.85	1339.45
830.4346	693.7132	2180.3	1333.45
830.5794	695.8131	2187.8	1327
830.7243	697.9123	2174.85	1330.6
830.8691	700.0109	2186.35	1339.9
831.014	702.1089	2184.5	1339.5
831.1588	704.2061	2193.3	1348.65
831.3037	706.3028	2205.5	1355.85
831.4486	708.3987	2216.45	1369.65
831.5935	710.4941	2220.6	1375.5
831.7383	712.5887	2231.2	1384.25
831.8832	714.6827	2225.25	1372.4
832.0281	716.7761	2211.6	1363.45
832.173	718.8688	2221.7	1374.7
832.3179	720.9608	2221.75	1371.5
832.4628	723.0522	2228.4	1377.7
832.6077	725.1429	2248.15	1400.5
832.7527	727.233	2270.1	1421.15
832.8976	729.3224	2305.35	1456.15
833.0425	731.4112	2346.4	1495.65
833.1874	733.4993	2351.15	1498.7
833.3324	735.5867	2311.95	1461.8
833.4773	737.6735	2271.9	1420
833.6222	739.7596	2231.7	1377.95
833.7672	741.845	2212.2	1361.7
833.9122	743.9298	2213.1	1359.75
834.0571	746.014	2228.35	1380
834.2021	748.0974	2233.4	1379.6
834.347	750.1802	2232.35	1380.1
834.492	752.2624	2232.45	1382.05
834.637	754.3439	2206.7	1353.4
834.782	756.4247	2210.6	1349.55
834.9269	758.5048	2199.55	1348.4
835.0719	760.5843	2201.3	1348.05
835.2169	762.6631	2213.05	1360.1
835.3619	764.7413	2241.65	1388.6
835.5069	766.8188	2301.2	1447.75
835.6519	768.8956	2338.15	1482.7
835.7969	770.9718	2377.85	1524.3
835.9419	773.0473	2376.35	1522.2
836.0869	775.1221	2356.3	1499.9
836.232	777.1962	2354.55	1499.85
836.377	779.2697	2384.3	1527.45
836.522	781.3426	2431.85	1566.95
836.667	783.4147	2478	1622.55
836.8121	785.4862	2461.1	1604.3
836.9571	787.557	2402.65	1548
837.1021	789.6271	2318.75	1460.4
837.2472	791.6966	2248.95	1393.7
837.3922	793.7654	2177.1	1319.7
837.5373	795.8335	2148.4	1288.25
837.6823	797.901	2115.15	1260.35
837.8274	799.9678	2103.35	1244.75
837.9724	802.0339	2103.1	1247.45
838.1175	804.0993	2114	1246.2
838.2626	806.1641	2105.6	1247.25
838.4076	808.2282	2092.75	1235
838.5527	810.2916	2070.5	1210.85
838.6978	812.3544	2067.05	1211.3
838.8428	814.4164	2059.5	1205.3
838.9879	816.4778	2068.15	1208.95
839.133	818.5385	2070.25	1211
839.2781	820.5986	2084.7	1227.2
839.4232	822.658	2126.05	1266
839.5682	824.7166	2162.75	1304.05
839.7133	826.7747	2217.6	1358.8
839.8584	828.832	2278.55	1420.7
840.0035	830.8886	2307.15	1447.7
840.1486	832.9446	2313.5	1452.35
840.2937	834.9999	2297.05	1438.35
840.4388	837.0545	2254.3	1389.8
840.5839	839.1085	2198.2	1338.8
840.729	841.1618	2147.75	1284.95
840.8741	843.2143	2105.2	1246.55
841.0192	845.2662	2078.9	1220.15
841.1643	847.3175	2069.5	1208.95
841.3095	849.368	2063.2	1201
841.4546	851.4179	2045.95	1186.5
841.5997	853.467	2050.75	1190.2
841.7448	855.5155	2061.3	1201.3
841.8899	857.5633	2057.5	1196.85
842.0351	859.6105	2051.45	1191.85
842.1802	861.6569	2045.25	1185.2
842.3253	863.7027	2028.65	1167.6
842.4704	865.7478	2028.3	1166.95
842.6156	867.7922	2015.55	1154.4
842.7607	869.8359	2006.6	1144.5
842.9058	871.8789	1999.75	1136.7
843.0509	873.9212	2044.8	1147.55
843.1961	875.9629	2007.75	1146.9
843.3412	878.0039	2009.55	1144.95
843.4863	880.0441	2026.05	1164.45
843.6315	882.0837	2032.1	1168.8
843.7766	884.1226	2049.75	1184.25
843.9218	886.1609	2069.55	1206.75
844.0669	888.1984	2103.7	1243.5
844.212	890.2352	2125.1	1262.85
844.3572	892.2714	2135.25	1267.2
844.5023	894.3069	2114.5	1250.25
844.6475	896.3416	2078.7	1214.3
844.7926	898.3757	2044.95	1181.3
844.9377	900.4091	2039.55	1174.15
845.0829	902.4418	2041	1172.75
845.228	904.4739	2056.65	1188.8
845.3732	906.5052	2053.95	1188.7
845.5183	908.5358	2054.1	1190.9
845.6635	910.5658	2026.65	1158.9
845.8086	912.595	2015.35	1150.55
845.9538	914.6236	1991.25	1126.65
846.0989	916.6515	1965.55	1101.2
846.2441	918.6786	1955.7	1090.6
846.3892	920.7051	1943.4	1075.1
846.5344	922.7309	1934.15	1070.5
846.6795	924.756	1930.85	1064.8
846.8246	926.7804	1942.95	1074.95
846.9698	928.8041	1947.8	1078
847.1149	930.8272	1952.05	1084.85
847.2601	932.8495	1957.6	1090.95
847.4052	934.8711	1970.5	1101.8
847.5504	936.892	1955.8	1088.45
847.6955	938.9123	1972.4	1102.8
847.8407	940.9318	1986.05	1117.8
847.9858	942.9506	1998.8	1130.8
848.131	944.9688	1985.1	1116.85
848.2761	946.9862	1966.9	1097.55
848.4213	949.003	1937.8	1070.55
848.5664	951.019	1929.05	1059.55
848.7115	953.0344	1914.3	1047.2
848.8567	955.0491	1899.4	1030.5
849.0018	957.063	1906.6	1037.15
849.147	959.0763	1901.5	1035.6
849.2921	961.0888	1901.45	1030.45
849.4373	963.1007	1894.45	1025.85
849.5824	965.1119	1896.9	1026.7
849.7275	967.1223	1877.3	1008.6
849.8727	969.1321	1873.9	1004.8
850.0178	971.1412	1874.6	1006.7
850.1629	973.1495	1865.6	998.85
850.3081	975.1572	1895.35	994.2
850.4532	977.1641	1869.85	1000.65
850.5983	979.1704	1864.45	995.05
850.7435	981.1759	1861	989.85
850.8886	983.1808	1860.5	988.25
851.0337	985.1849	1858.95	978.8
851.1788	987.1884	1841.1	969.1
851.324	989.1911	1849.8	979.05
851.4691	991.1932	1850.55	978.65
851.6142	993.1945	1852.45	982.3
851.7593	995.1951	1845.5	975.3
851.9045	997.1951	1845.75	971.4
852.0496	999.1943	1841.4	970.85
852.1947	1001.1928	1829.75	957.2
852.3398	1003.1906	1839.7	970.05
852.4849	1005.1877	1857.45	983.95
852.63	1007.1841	1870	996.9
852.7751	1009.1798	1873.5	1001.9
852.9202	1011.1748	1863.8	994.2
853.0653	1013.1691	1844.7	971.75
853.2104	1015.1627	1826.4	952.8
853.3555	1017.1556	1798.25	926.6
853.5006	1019.1477	1800.45	926.45
853.6457	1021.1392	1770.25	899.25
853.7908	1023.1299	1765.3	892.55
853.9359	1025.12	1769.55	897.6
854.081	1027.1093	1769.55	900.8
854.2261	1029.0979	1777.6	908.45
854.3712	1031.0859	1784.6	911.95
854.5163	1033.0731	1796.2	921.5
854.6613	1035.0596	1798.7	926.85
854.8064	1037.0454	1777.5	906
854.9515	1039.0304	1771.8	897.1
855.0965	1041.0148	1764.65	892.6
855.2416	1042.9985	1744.35	871.45
855.3867	1044.9814	1734.5	863.9
855.5317	1046.9636	1733.95	859.4
855.6768	1048.9452	1738.9	866.75
855.8219	1050.926	1744.9	872.5
855.9669	1052.9061	1751.85	880.5
856.112	1054.8855	1737.65	865.65
856.257	1056.8642	1752.85	879.25
856.4021	1058.8421	1746.7	869.7
856.5471	1060.8194	1745.7	872.85
856.6921	1062.7959	1735.1	861.6
856.8372	1064.7717	1727.35	854.35
856.9822	1066.7469	1743.9	868.25
857.1272	1068.7213	1740.5	863.25
857.2723	1070.695	1748.85	877
857.4173	1072.6679	1752.2	878.4
857.5623	1074.6402	1766.3	891.9
857.7073	1076.6117	1768.95	889.15
857.8523	1078.5826	1753.95	879.75
857.9973	1080.5527	1735.7	859.05
858.1423	1082.5221	1706.6	834.15
858.2873	1084.4908	1696.45	824.8
858.4323	1086.4587	1681.7	807.3
858.5773	1088.426	1679.7	804.75
858.7223	1090.3925	1677.4	797.55
858.8673	1092.3584	1678.15	804.45
859.0123	1094.3235	1675.25	802.55
859.1573	1096.2879	1691.9	816.55
859.3022	1098.2515	1702.65	827.45
859.4472	1100.2145	1716.95	840.75
859.5922	1102.1767	1729.3	851.8
859.7371	1104.1382	1763.7	887.95
859.8821	1106.099	1798.6	919.35
860.027	1108.0591	1818.65	943.95
860.172	1110.0185	1836.65	960.3
860.3169	1111.9771	1865.25	990.8
860.4619	1113.9351	1891.25	1017.45
860.6068	1115.8923	1921.65	1046.9
860.7517	1117.8488	1932.85	1055.05
860.8967	1119.8045	1902.35	1028.55
861.0416	1121.7596	1849.1	973.6
861.1865	1123.7139	1780.65	905.15
861.3314	1125.6675	1745.8	870.05
861.4763	1127.6204	1739.85	864.05
861.6212	1129.5726	1755.6	877.8
861.7661	1131.524	1759.15	883.6
861.911	1133.4748	1718.75	843.2
862.0559	1135.4248	1687.4	810.45
862.2008	1137.3741	1655.1	781.45
862.3457	1139.3226	1642.45	765.9
862.4905	1141.2705	1639.85	764.95
862.6354	1143.2176	1641.3	758.6
862.7803	1145.164	1649.55	771.55
862.9251	1147.1097	1643.85	768.75
863.07	1149.0546	1627.7	748.7
863.2148	1150.9989	1608.5	732.7
863.3597	1152.9424	1603.55	726.85
863.5045	1154.8852	1596.8	719.75
863.6493	1156.8272	1581.2	703.3
863.7942	1158.7686	1596	714.55
863.939	1160.7092	1580.25	704.25
864.0838	1162.6491	1582.1	703.5
864.2286	1164.5883	1588.1	714.05
864.3734	1166.5267	1600.65	723.2
864.5182	1168.4644	1613.65	737.2
864.663	1170.4014	1631	748.9
864.8078	1172.3377	1650.6	774.7
864.9526	1174.2732	1682.85	806.15
865.0974	1176.2081	1735.7	859.65
865.2421	1178.1421	1812.2	931.1
865.3869	1180.0755	1875.9	1001.25
865.5317	1182.0082	1914.75	1037.3
865.6764	1183.9401	1899.65	1021.35
865.8212	1185.8713	1832.55	954.45
865.9659	1187.8017	1753.65	873.45
866.1106	1189.7315	1693.85	816.35
866.2554	1191.6605	1681.75	777.35
866.4001	1193.5888	1621.4	745.35
866.5448	1195.5163	1601.25	724.75
866.6895	1197.4432	1577.85	700.8
866.8342	1199.3693	1568.7	693.15
866.9789	1201.2947	1562.6	677.6
867.1236	1203.2193	1553.85	676.65
867.2683	1205.1432	1552.9	675.55
867.413	1207.0664	1549.45	672.95
867.5576	1208.9889	1549.15	667.55
867.7023	1210.9106	1545	667.9
867.847	1212.8316	1548	671.7
867.9916	1214.7519	1562.85	672.35
868.1363	1216.6715	1557.15	678.95
868.2809	1218.5903	1558.3	681.35
868.4255	1220.5084	1576.7	697.9
868.5701	1222.4257	1573.85	696.05
868.7148	1224.3424	1587.2	708
868.8594	1226.2583	1598.5	717.1
869.004	1228.1735	1617.3	738.1
869.1486	1230.0879	1636.65	757.1
869.2932	1232.0016	1662.85	784.7
869.4377	1233.9146	1670.25	791.05
869.5823	1235.8269	1691.55	813.4
869.7269	1237.7384	1688.8	810.45
869.8715	1239.6492	1689.6	811.2
870.016	1241.5592	1708.9	827.35
870.1606	1243.4686	1724.65	846.6
870.3051	1245.3772	1764.7	885.7
870.4496	1247.285	1818.25	937.95
870.5941	1249.1922	1878.7	998.75
870.7387	1251.0986	1907	1028.65
870.8832	1253.0042	1947.3	1068.2
871.0277	1254.9092	2004.7	1125.95
871.1722	1256.8134	2045.85	1166.6
871.3167	1258.7169	2099.8	1219.35
871.4611	1260.6196	2113.3	1234.75
871.6056	1262.5216	2114.85	1235.4
871.7501	1264.4229	2094.55	1216.3
871.8945	1266.3234	2073.15	1194.5
872.039	1268.2232	2054.55	1174.2
872.1834	1270.1223	2018.05	1138.7
872.3278	1272.0207	1998.65	1120.3
872.4723	1273.9183	1986.85	1100.5
872.6167	1275.8151	1991.8	1113.5
872.7611	1277.7113	2017	1137.15
872.9055	1279.6067	2059.45	1179.55
873.0499	1281.5014	2153.2	1270.6
873.1943	1283.3953	2268.2	1386.65
873.3386	1285.2885	2362.8	1485
873.483	1287.181	2428.35	1546.05
873.6274	1289.0727	2451.1	1573.25
873.7717	1290.9637	2416.2	1536.5
873.9161	1292.854	2373.65	1492.65
874.0604	1294.7435	2307.5	1428.45
874.2047	1296.6323	2251.8	1372.5
874.349	1298.5204	2183.05	1298.4
874.4933	1300.4077	2159.1	1278.7
874.6376	1302.2943	2122.1	1243.3
874.7819	1304.1802	2101.9	1222.05
874.9262	1306.0653	2074.6	1192.35
875.0705	1307.9497	2067.15	1186.9
875.2147	1309.8333	2042.8	1162.85
875.359	1311.7162	2007.9	1128.15
875.5032	1313.5984	1997.5	1115.9
875.6475	1315.4798	1987.5	1097.1
875.7917	1317.3605	1980.05	1095.4
875.9359	1319.2405	1969.8	1088.8
876.0801	1321.1197	1960.25	1078.55
876.2243	1322.9982	1920.15	1035.9
876.3685	1324.876	1871.15	990.45
876.5127	1326.753	1810.4	929.15
876.6569	1328.6293	1772.85	889.9
876.801	1330.5048	1731.7	848.75
876.9452	1332.3796	1666.1	786.85
877.0893	1334.2537	1664.2	759.2
877.2335	1336.127	1619.45	739.9
877.3776	1337.9996	1612.9	731.45
877.5217	1339.8714	1596.05	714.9
877.6658	1341.7426	1628.5	701.9
877.8099	1343.6129	1575.3	694.25
877.954	1345.4826	1561.15	679.7
878.0981	1347.3515	1550.75	668.05
878.2422	1349.2196	1548.7	667.95
878.3862	1351.087	1553	672.95
878.5303	1352.9537	1542.2	661.35
878.6743	1354.8197	1546.15	666.8
878.8184	1356.6849	1548.5	668.6
878.9624	1358.5493	1560	679.5
879.1064	1360.4131	1563.8	683.5
879.2504	1362.276	1591.6	710.6
879.3944	1364.1383	1612.65	729.6
879.5384	1365.9998	1616.9	733.4
879.6823	1367.8606	1604.85	723.3
879.8263	1369.7206	1602.2	721.7
879.9702	1371.5799	1603.9	719.05
880.1142	1373.4384	1591.95	709.75
880.2581	1375.2962	1569.65	687.75
880.402	1377.1533	1538.95	656.3
880.5459	1379.0096	1518.45	635.95
880.6898	1380.8652	1486.3	604.25
880.8337	1382.7201	1471.7	589.7
880.9776	1384.5742	1463.65	582.5
881.1215	1386.4275	1447.9	565.15
881.2653	1388.2802	1441.65	560.6
881.4092	1390.132	1433	552.85
881.553	1391.9832	1419	534.85
881.6968	1393.8336	1419.15	540.05
881.8406	1395.6832	1411.85	530.8
881.9844	1397.5322	1401.95	521.55
882.1282	1399.3803	1406.05	518.1
882.272	1401.2278	1387.75	507.7
882.4158	1403.0745	1386.65	503.75
882.5595	1404.9204	1376.15	495.2
882.7033	1406.7656	1375.3	492.4
882.847	1408.6101	1373	490.8
882.9908	1410.4538	1372.4	489.4
883.1345	1412.2968	1370.35	489.75
883.2782	1414.139	1370.4	489.8
883.4219	1415.9805	1373.35	492.15
883.5656	1417.8213	1386.9	498.9
883.7092	1419.6613	1388.75	506.95
883.8529	1421.5006	1405	523.9
883.9965	1423.3391	1432.7	551.45
884.1402	1425.1769	1458.7	574.3
884.2838	1427.0139	1500.35	618.95
884.4274	1428.8502	1547.5	662.9
884.571	1430.6858	1580.3	698.8
884.7146	1432.5206	1606.85	724.4
884.8582	1434.3547	1596.15	712.15
885.0018	1436.188	1574.15	692.25
885.1453	1438.0206	1565.8	681.55
885.2889	1439.8524	1562.05	680.35
885.4324	1441.6835	1559.85	677.35
885.5759	1443.5139	1566.5	680.85
885.7194	1445.3435	1560.6	677.9
885.8629	1447.1724	1556.95	674.95
886.0064	1449.0005	1560.85	679.3
886.1499	1450.8279	1565.3	683.4
886.2933	1452.6545	1555.45	672.85
886.4368	1454.4804	1555.35	674
886.5802	1456.3056	1550.35	660.75
886.7237	1458.13	1538.1	656.4
886.8671	1459.9536	1518.8	636.8
887.0105	1461.7766	1499.7	615.55
887.1539	1463.5987	1471.15	589
887.2972	1465.4202	1456.8	574.6
887.4406	1467.2409	1435.6	552.9
887.584	1469.0608	1416.9	534.55
887.7273	1470.88	1390.8	508.65
887.8706	1472.6984	1373.65	494
888.0139	1474.5161	1366.3	480.25
888.1572	1476.3331	1359.45	477.05
888.3005	1478.1493	1348.35	464.65
888.4438	1479.9648	1346.9	465.2
888.5871	1481.7795	1340.35	457.25
888.7303	1483.5935	1343.7	462.55
888.8736	1485.4067	1343.7	463.05
889.0168	1487.2192	1347.2	464.3
889.16	1489.031	1339.85	456.3
889.3032	1490.842	1338.3	456.95
889.4464	1492.6522	1337.9	456.55
889.5896	1494.4618	1338.1	454.65
889.7327	1496.2705	1335.15	453.3
889.8759	1498.0785	1326.25	442.35
890.019	1499.8858	1323.1	441.45
890.1622	1501.6924	1321.7	438.95
890.3053	1503.4981	1315.35	432.55
890.4484	1505.3032	1310.95	430.05
890.5914	1507.1075	1302.8	420
890.7345	1508.911	1309.2	427.95
890.8776	1510.7138	1296.05	415.1
891.0206	1512.5159	1296.6	413.9
891.1637	1514.3172	1285.25	404.5
891.3067	1516.1178	1286.1	404.05
891.4497	1517.9176	1283.7	395.75
891.5927	1519.7166	1275.2	395.4
891.7357	1521.515	1278.4	388.1
891.8786	1523.3126	1279.45	394.7
892.0216	1525.1094	1266.1	380.65
892.1645	1526.9055	1265.65	382.9
892.3074	1528.7008	1272.85	390.95
892.4503	1530.4954	1266.8	375.9
892.5932	1532.2893	1250.35	369.75
892.7361	1534.0824	1263.5	375.95
892.879	1535.8747	1252.7	369.25
893.0218	1537.6663	1255.8	372.8
893.1647	1539.4572	1244.05	359.65
893.3075	1541.2473	1250.6	369.3
893.4503	1543.0367	1250.25	368.35
893.5931	1544.8253	1253.2	367.3
893.7359	1546.6132	1257.65	374.05
893.8787	1548.4003	1255.15	362.15
894.0214	1550.1867	1262.35	368.45
894.1642	1551.9723	1264.4	376.75
894.3069	1553.7572	1268.95	386.25
894.4496	1555.5414	1278.7	394.65
894.5923	1557.3247	1290.25	406.3
894.735	1559.1074	1308.7	427.5
894.8777	1560.8893	1325.3	444.5
895.0204	1562.6705	1349	465.8
895.163	1564.4509	1355.7	473.75
895.3056	1566.2305	1361.45	479.8
895.4482	1568.0094	1367.5	484.8
895.5908	1569.7876	1361	477.45
895.7334	1571.565	1359.3	475.95
895.876	1573.3417	1356.55	474.7
896.0186	1575.1176	1362.05	477.45
896.1611	1576.8928	1365.3	481.8
896.3036	1578.6672	1375.7	492.85
896.4461	1580.4409	1385.65	503.4
896.5886	1582.2138	1405.05	520.15
896.7311	1583.986	1426.8	541.4
896.8736	1585.7575	1446.3	564
897.0161	1587.5282	1458.35	576.65
897.1585	1589.2981	1470.1	586.95
897.3009	1591.0673	1479.55	594.7
897.4433	1592.8358	1479.95	600.1
897.5857	1594.6035	1491.45	605.25
897.7281	1596.3704	1479.3	596.75
897.8705	1598.1366	1460.25	577.9
898.0128	1599.9021	1454	573.5
898.1551	1601.6668	1438.45	551.65
898.2975	1603.4308	1438.95	555.45
898.4398	1605.194	1447.3	559.25
898.5821	1606.9564	1448.3	565.8
898.7243	1608.7182	1480.35	593.05
898.8666	1610.4791	1531.55	647.3
899.0088	1612.2394	1567.85	684.7
899.1511	1613.9988	1617.7	734.15
899.2933	1615.7576	1650	767.55
899.4355	1617.5156	1669.2	779.6
899.5776	1619.2728	1638.25	754.85
899.7198	1621.0293	1593.3	711.25
899.862	1622.785	1536.35	650.2
900.0041	1624.54	1462.25	577.45
900.1462	1626.2942	1415.25	529.95
900.2883	1628.0477	1362.2	476.55
900.4304	1629.8005	1327.8	438.9
900.5725	1631.5525	1292.9	408.7
900.7145	1633.3037	1265.05	380.75
900.8566	1635.0542	1244.5	361.2
900.9986	1636.804	1224.8	341.4
901.1406	1638.553	1279.35	330
901.2826	1640.3013	1195.5	311.65
901.4245	1642.0488	1185.6	301.3
901.5665	1643.7955	1178.5	296.9
901.7085	1645.5416	1173.75	290.4
901.8504	1647.2868	1171.1	288.4
901.9923	1649.0313	1161.4	277.05
902.1342	1650.7751	1165.95	279.4
902.2761	1652.5181	1160.85	279.8
902.4179	1654.2604	1163.7	279.9
902.5598	1656.0019	1155.75	273.2
902.7016	1657.7427	1168.25	284.55
902.8434	1659.4828	1172.85	288.5
902.9852	1661.222	1190.1	307.05
903.127	1662.9606	1209.85	326.9
903.2687	1664.6984	1221.8	338.65
903.4105	1666.4354	1220.55	336.85
903.5522	1668.1717	1203.75	322.35
903.6939	1669.9072	1188.65	305.8
903.8356	1671.642	1170.8	283.3
903.9773	1673.3761	1147.7	267.75
904.119	1675.1094	1134	253.6
904.2606	1676.8419	1124.55	242.25
904.4022	1678.5737	1115.1	232.75
904.5439	1680.3048	1110.95	229.25
904.6855	1682.0351	1102.85	219.4
904.827	1683.7646	1110.8	222.3
904.9686	1685.4934	1101.65	220.35
905.1101	1687.2215	1095.05	212.15
905.2517	1688.9488	1091.95	210.05
905.3932	1690.6754	1090.7	207.85
905.5347	1692.4012	1087.65	203.65
905.6761	1694.1263	1088.8	207.3
905.8176	1695.8506	1090.45	206.9
905.9591	1697.5742	1089.1	206.35
906.1005	1699.297	1084.25	199.95
906.2419	1701.0191	1080.9	198.6
906.3833	1702.7404	1079.05	196.45
906.5246	1704.461	1079.05	194.2
906.666	1706.1808	1080	195.95
906.8073	1707.8999	1082.05	195.65
906.9487	1709.6182	1074.25	189.7
907.09	1711.3358	1077.95	193.45
907.2313	1713.0527	1070.4	190.35
907.3725	1714.7688	1079.1	191.2
907.5138	1716.4841	1071.55	185.05
907.655	1718.1987	1073.4	184.5
907.7962	1719.9126	1064.1	180.8
907.9374	1721.6257	1071.6	182.95
908.0786	1723.338	1071.8	186.2
908.2198	1725.0496	1069.65	184.3
908.3609	1726.7605	1067.55	183.7
908.502	1728.4706	1065	179
908.6431	1730.18	1072.4	187.75
908.7842	1731.8886	1066.2	183.35
908.9253	1733.5964	1068.8	179.65
909.0664	1735.3036	1069.05	183.05
909.2074	1737.0099	1064.8	181.3
909.3484	1738.7156	1066.05	183.1
909.4894	1740.4204	1060.75	175.15
909.6304	1742.1246	1060.3	176.8
909.7714	1743.8279	1063.35	178.5
909.9123	1745.5306	1064.6	178.65
910.0532	1747.2325	1060	178.2
910.1941	1748.9336	1060.1	175.75
910.335	1750.634	1062.75	178.6
910.4759	1752.3336	1055.8	170.25
910.6168	1754.0325	1055.9	172.2
910.7576	1755.7307	1059.75	177
910.8984	1757.4281	1061.55	177.15
911.0392	1759.1247	1068.75	176.75
911.18	1760.8206	1063.25	175.2
911.3208	1762.5158	1062.5	173.4
911.4615	1764.2102	1054.6	169.8
911.6022	1765.9039	1060.05	177.4
911.7429	1767.5968	1057.45	173
911.8836	1769.289	1051.55	167.7
912.0243	1770.9804	1052.2	166.55
912.1649	1772.6711	1048.5	164.95
912.3056	1774.361	1055.45	171.65
912.4462	1776.0502	1050.5	167.1
912.5868	1777.7386	1053.25	166.35
912.7274	1779.4263	1050.1	166.75
912.8679	1781.1132	1053.7	169.45
913.0084	1782.7994	1049.8	164.25
913.149	1784.4849	1053.95	169.9
913.2895	1786.1696	1071.35	168.3
913.4299	1787.8535	1046.15	161.4
913.5704	1789.5367	1051.25	166.35
913.7108	1791.2192	1049.85	165.8
913.8513	1792.9009	1060.4	164.8
913.9917	1794.5818	1049.4	164.85
914.132	1796.2621	1050.65	169.1
914.2724	1797.9415	1046.35	164.3
914.4128	1799.6202	1044.1	160.95
914.5531	1801.2982	1042.1	158.35
914.6934	1802.9755	1046.2	161.4
914.8337	1804.6519	1039.7	154.55
914.9739	1806.3277	1039.9	155.6
915.1142	1808.0027	1037.25	154.55
915.2544	1809.6769	1039.25	156.55
915.3946	1811.3504	1048.15	161.15
915.5348	1813.0231	1041.45	160.15
915.675	1814.6951	1046	161.85
915.8151	1816.3664	1041.6	155.5
915.9553	1818.0369	1042.2	159.4
916.0954	1819.7067	1036.95	154.25
916.2355	1821.3757	1046.65	160.95
916.3755	1823.044	1039.05	156.15
916.5156	1824.7115	1040.1	156.85
916.6556	1826.3783	1035.3	153.65
916.7956	1828.0443	1038.85	156.8
916.9356	1829.7096	1040.3	154.65
917.0756	1831.3741	1038.25	148.35
917.2155	1833.0379	1040.05	155.45
917.3555	1834.701	1036.3	150
917.4954	1836.3633	1036.25	151.6
917.6353	1838.0248	1035.7	149.65
917.7751	1839.6856	1034.4	151.45
917.915	1841.3457	1032.25	149.2
918.0548	1843.005	1036.45	154.55
918.1946	1844.6636	1035.2	153.4
918.3344	1846.3214	1031.6	147.6
918.4742	1847.9785	1032.9	149.8
918.6139	1849.6349	1033.4	148.55
918.7537	1851.2904	1045.15	153.1
918.8934	1852.9453	1031.65	146.85
919.0331	1854.5994	1034.5	149.65
919.1727	1856.2528	1037.15	149.05
919.3124	1857.9054	1033.15	149.3
919.452	1859.5572	1026.8	142.05
919.5916	1861.2083	1027.8	143.3
919.7312	1862.8587	1028.45	145.65
919.8708	1864.5084	1032.2	148.25
920.0103	1866.1572	1027.5	147.2
920.1498	1867.8054	1030.75	146
920.2893	1869.4528	1026	143.5
920.4288	1871.0994	1028.15	141.45
920.5683	1872.7453	1026.9	144.4
920.7077	1874.3905	1041.85	142.1
920.8471	1876.0349	1025.75	142.9
920.9865	1877.6786	1027	141.8
921.1259	1879.3215	1024.15	140.45
921.2653	1880.9637	1028.45	142.15
921.4046	1882.6051	1029.3	145.15
921.5439	1884.2458	1026.9	141.2
921.6832	1885.8858	1027.7	142.2
921.8225	1887.525	1023.6	139.25
921.9617	1889.1634	1022.4	141.9
922.101	1890.8011	1021.55	137.45
922.2402	1892.4381	1020.2	139.35
922.3794	1894.0743	1020.05	135.9
922.5185	1895.7098	1020.45	138.05
922.6577	1897.3446	1021.6	135.45
922.7968	1898.9786	1026.5	139.5
922.9359	1900.6118	1021.55	138.8
923.075	1902.2443	1020.85	134.1
923.214	1903.8761	1019	134.45
923.3531	1905.5071	1019.35	132.75
923.4921	1907.1374	1018.55	133.4
923.6311	1908.7669	1018.4	134.6
923.77	1910.3957	1020.95	137.1
923.909	1912.0237	1019.2	135.15
924.0479	1913.651	1019	135.4
924.1868	1915.2776	1015.6	132.85
924.3257	1916.9034	1019.55	137.55
924.4646	1918.5285	1016.75	135.2
924.6034	1920.1528	1015.85	131.15
924.7422	1921.7764	1016.35	133.4
924.881	1923.3992	1014.55	130.45
925.0198	1925.0213	1012.2	127.05
925.1586	1926.6427	1013.8	131.55
925.2973	1928.2633	1123.3	129.25
925.436	1929.8832	1018.5	133.15
925.5747	1931.5023	1014.55	130.9
925.7134	1933.1207	1012.15	128.55
925.852	1934.7383	1013.9	131.1
925.9906	1936.3552	1014	130.1
926.1292	1937.9714	1012.7	128.95
926.2678	1939.5868	1015.9	129.4
926.4064	1941.2015	1015.8	133.1
926.5449	1942.8154	1010.55	125.05
926.6834	1944.4286	1006.7	121.1
926.8219	1946.041	1032.05	123.45
926.9604	1947.6528	1014.15	124
927.0988	1949.2637	1007.9	125.45
927.2372	1950.8739	1012.9	128.15
927.3756	1952.4834	1008.7	124.5
927.514	1954.0921	1009.65	126.15
927.6523	1955.7001	1012.7	124.5
927.7907	1957.3074	1008.55	127.6
927.929	1958.9139	1008	124.2
928.0673	1960.5197	1009.35	123.3
928.2055	1962.1247	1006.4	123.15
928.3438	1963.729	1006.25	123.95
928.482	1965.3325	1028.05	120.25
928.6202	1966.9353	1002.45	117.85
928.7584	1968.5374	1006.7	121.2
928.8965	1970.1387	1005.95	123
929.0346	1971.7393	1004.9	121.45
929.1727	1973.3392	1004.1	120.95
929.3108	1974.9383	1002	119.35
929.4489	1976.5366	1003.8	119.8
929.5869	1978.1342	1002.55	120.55
929.7249	1979.7311	1003.2	118.85
929.8629	1981.3273	1006.65	123.2
930.0009	1982.9227	1006.6	119.95
930.1388	1984.5173	1003.15	121.05
930.2767	1986.1112	998.5	115.3
930.4146	1987.7044	1004.1	120.05
930.5525	1989.2968	1002.8	119.4
930.6904	1990.8885	1008.05	121.6
930.8282	1992.4795	1004.65	118.95
930.966	1994.0697	1000	117.1
931.1038	1995.6592	999.2	115.5
931.2415	1997.2479	1000.4	118.8
931.3793	1998.8359	1003.8	120.85
931.517	2000.4232	1002.65	118.1
931.6547	2002.0097	999	115.9
931.7923	2003.5955	1003.7	118.85
931.93	2005.1805	1000.6	114.85
932.0676	2006.7648	999.75	116.8
932.2052	2008.3484	999.85	115.95
932.3427	2009.9312	998.55	113.55
932.4803	2011.5133	997.4	115.9
932.6178	2013.0946	1002.5	119.3
932.7553	2014.6752	997.9	117.85
932.8928	2016.2551	999.6	115.2
933.0302	2017.8342	997	113.5
933.1676	2019.4126	998.25	115
933.305	2020.9902	998.9	115.9
933.4424	2022.5672	1000.45	116.25
933.5798	2024.1433	1004.45	112.7
933.7171	2025.7188	996.85	112.2
933.8544	2027.2935	998.65	112.35
933.9917	2028.8674	996.5	113.65
934.129	2030.4406	995.55	113.6
934.2662	2032.0131	1000.05	116.75
934.4034	2033.5849	1005.35	116.2
934.5406	2035.1559	995.9	112.95
934.6778	2036.7261	996	111.8
934.8149	2038.2957	995.45	112.55
934.952	2039.8645	995.65	113.25
935.0891	2041.4325	997.15	112
935.2262	2042.9998	995.15	111.3
935.3632	2044.5664	1002.6	118.7
935.5002	2046.1323	995.85	110.95
935.6372	2047.6974	999.85	115.15
935.7742	2049.2617	996.3	112.2
935.9111	2050.8254	1022.2	118.8
936.048	2052.3883	996.85	110.6
936.1849	2053.9504	995.95	111.2
936.3218	2055.5118	995.6	111.1
936.4586	2057.0725	996.6	107.45
936.5955	2058.6325	995.85	111.35
936.7323	2060.1917	994.9	111.4
936.869	2061.7502	1000.4	113.25
937.0058	2063.3079	995.95	114.15
937.1425	2064.8649	997.55	108.75
937.2792	2066.4212	998.15	113.25
937.4159	2067.9767	993.65	110.65
937.5525	2069.5315	992	108.2
937.6891	2071.0856	993.6	110.95
937.8257	2072.6389	994.2	108.15
937.9623	2074.1915	992.8	111.6
938.0989	2075.7433	992.5	106.6
938.2354	2077.2945	996.55	113.25
938.3719	2078.8448	993.9	110.85
938.5084	2080.3945	991.2	108.05
938.6448	2081.9434	991.9	108.9
938.7812	2083.4916	992.1	108
938.9176	2085.039	998.75	115.3
939.054	2086.5857	991.1	106.4
939.1903	2088.1317	991.6	108.4
939.3267	2089.677	998.5	116.7
939.463	2091.2215	992.7	110.6
939.5992	2092.7652	997.8	113.2
939.7355	2094.3083	989.95	106.25
939.8717	2095.8506	989.3	106.05
940.0079	2097.3921	988.6	105.65
940.1441	2098.933	992.4	108.25
940.2802	2100.4731	991.35	108.2
940.4163	2102.0124	1012.1	108.6
940.5524	2103.5511	994.2	109.35
940.6885	2105.089	992.55	107.95
940.8245	2106.6261	990.9	108.85
940.9606	2108.1626	995.75	113.7
941.0965	2109.6983	1020.15	109.05
941.2325	2111.2332	992.65	107.65
941.3684	2112.7675	992.05	106.9
941.5044	2114.301	993.5	110.1
941.6403	2115.8337	990.15	106.35
941.7761	2117.3657	993.8	110.85
941.912	2118.897	995.45	110.5
942.0478	2120.4276	996.05	106.75
942.1835	2121.9575	994.45	110.15
942.3193	2123.4866	1007.95	110.65
942.455	2125.0149	997.9	113.4
942.5907	2126.5426	995.8	111.15
942.7264	2128.0695	995	107.4
942.8621	2129.5956	989.45	106.35
942.9977	2131.1211	993	105.5
943.1333	2132.6458	990	106.25
943.2689	2134.1698	987.75	103.9
943.4044	2135.693	992.3	106.4
943.54	2137.2155	994.25	108.15
943.6755	2138.7373	993.9	108.95
943.8109	2140.2584	990.3	104.55
943.9464	2141.7787	995.15	107.5
944.0818	2143.2983	991.55	107.5
944.2172	2144.8171	991.75	109.8
944.3526	2146.3353	991.3	105.1
944.4879	2147.8527	988.15	106.65
944.6232	2149.3693	992.75	110
944.7585	2150.8853	992.5	107.95
944.8938	2152.4005	987.2	104.65
945.029	2153.9149	990.7	107.4
945.1642	2155.4287	990.35	105.45
945.2994	2156.9417	989.65	106
945.4346	2158.454	987.3	98.45
945.5697	2159.9655	986	102.95
945.7048	2161.4764	986.45	101.45
945.8399	2162.9865	990.3	105
945.9749	2164.4958	986.7	101.35
946.1099	2166.0045	993.85	107.85
946.2449	2167.5124	990.3	107.4
946.3799	2169.0195	988.25	105.4
946.5148	2170.526	985.65	101.4
946.6498	2172.0317	989.6	104.75
946.7846	2173.5367	986.95	100.95
946.9195	2175.0409	987.3	104.8
947.0543	2176.5445	984.55	102.5
947.1891	2178.0473	986.85	101.2
947.3239	2179.5494	991.95	106
947.4587	2181.0507	985.7	101.6
947.5934	2182.5513	983.65	100
947.7281	2184.0512	984.8	100.15
947.8628	2185.5504	985.35	102.1
947.9974	2187.0488	985.2	101.15
948.132	2188.5465	988.15	105.7
948.2666	2190.0435	985.6	101.6
948.4012	2191.5397	983.9	98.7
948.5357	2193.0353	984.6	100.1
948.6702	2194.5301	986.25	102.9
948.8047	2196.0241	984.95	101.45
948.9392	2197.5175	982.7	99.6
949.0736	2199.0101	989.25	102.2
949.208	2200.502	981.15	98.35
949.3424	2201.9931	981.4	98.65
949.4767	2203.4835	983.3	97.4
949.611	2204.9733	992.75	105.05
949.7453	2206.4622	985.95	102.5
949.8796	2207.9505	985.15	97.95
950.0138	2209.438	984.4	101
950.148	2210.9248	983.55	97.85
950.2822	2212.4109	976.6	95.25
950.4164	2213.8962	982.45	95.15
950.5505	2215.3809	980.3	93.95
950.6846	2216.8648	979.65	97.2
950.8186	2218.3479	986.75	97.85
950.9527	2219.8304	978.6	92.65
951.0867	2221.3121	980.1	94.05
951.2207	2222.7931	980.25	98.3
951.3546	2224.2733	981.7	95.65
951.4886	2225.7529	984.6	101.8
951.6225	2227.2317	981.05	94
951.7563	2228.7098	979.85	97.55
951.8902	2230.1872	979.85	96.65
952.024	2231.6638	981.95	98.25
952.1578	2233.1397	979.4	91.65
952.2916	2234.6149	978.4	94.55
952.4253	2236.0894	977.95	93.8
952.559	2237.5632	989	96.3
952.6927	2239.0362	974.9	89.45
952.8263	2240.5085	978.55	94.55
952.9599	2241.9801	976.7	92.05
953.0935	2243.4509	976.85	95.75
953.2271	2244.921	973.65	88.5
953.3606	2246.3904	977.5	93.95
953.4941	2247.8591	974.3	93.25
953.6276	2249.3271	973.35	91.25
953.7611	2250.7943	974.8	92
953.8945	2252.2608	974.3	89.55
954.0279	2253.7266	975.7	94.5
954.1612	2255.1917	973.75	90.6
954.2946	2256.656	974.8	88.6
954.4279	2258.1197	972.45	89.1
954.5612	2259.5826	975.4	87.85
954.6944	2261.0447	972.2	88
954.8276	2262.5062	972.95	87.55
954.9608	2263.9669	973.45	88.5
955.094	2265.4269	974.75	91.45
955.2271	2266.8862	972.1	89.6
955.3602	2268.3448	970.05	86.45
955.4933	2269.8026	975.85	90.3
955.6264	2271.2598	971.6	87.5
955.7594	2272.7162	973.95	89.95
955.8924	2274.1719	972.55	90.9
956.0253	2275.6268	972.35	88.5
956.1583	2277.0811	973.7	91
956.2912	2278.5346	970.75	85.45
956.4241	2279.9874	971.15	88.2
956.5569	2281.4395	967.1	85.85
956.6897	2282.8908	976.4	88.3
956.8225	2284.3414	972.3	87.8
956.9553	2285.7914	967.6	84.5
957.088	2287.2406	970.75	86.65
957.2207	2288.689	966.05	82.95
957.3534	2290.1368	968.45	84.05
957.486	2291.5838	972.4	84.75
957.6186	2293.0302	970.95	86.25
957.7512	2294.4758	969.75	87.55
957.8838	2295.9206	973.1	86.9
958.0163	2297.3648	969.55	86.4
958.1488	2298.8082	968.5	84.25
958.2813	2300.251	969.3	86.15
958.4137	2301.693	969.35	82.9
958.5461	2303.1343	970.9	85.8
958.6785	2304.5748	965.75	81.2
958.8108	2306.0147	969.6	84.45
958.9432	2307.4538	969.3	82.25
959.0754	2308.8922	964.3	81.7
959.2077	2310.3299	964.9	80.7
959.3399	2311.7669	966.35	83.65
959.4721	2313.2031	965.05	80.7
959.6043	2314.6387	967.5	84.95
959.7365	2316.0735	969.15	86
959.8686	2317.5076	963.35	78.65
960.0006	2318.941	967.2	83.55
960.1327	2320.3737	967.7	83.7
960.2647	2321.8056	968.25	83.5
960.3967	2323.2369	968.75	84.85
960.5287	2324.6674	972.65	85.65
960.6606	2326.0972	971.55	86.4
960.7925	2327.5263	972.7	89.75
960.9244	2328.9547	973.75	88.05
961.0562	2330.3823	973.55	88.8
961.1881	2331.8092	973	87.75
961.3198	2333.2355	967.3	84.65
961.4516	2334.661	964.15	79.35
961.5833	2336.0858	965.95	80.3
961.715	2337.5098	961.8	78.4
961.8467	2338.9332	962.3	76.6
961.9783	2340.3558	964.5	76.6
962.1099	2341.7778	964.9	80.7
962.2415	2343.199	963.35	78.1
962.373	2344.6195	962.25	77.45
962.5045	2346.0393	959.05	76.5
962.636	2347.4583	960.95	77.1
962.7675	2348.8767	961.8	76.8
962.8989	2350.2943	962.75	79.35
963.0303	2351.7113	964.5	80.75
963.1617	2353.1275	960.85	75.25
963.293	2354.543	967.05	75.35
963.4243	2355.9578	961	77.65
963.5556	2357.3718	959.5	77.85
963.6868	2358.7852	961.5	74.45
963.818	2360.1978	960.5	76.4
963.9492	2361.6098	958.9	74.95
964.0803	2363.021	963.05	75.75
964.2114	2364.4315	961.25	75.8
964.3425	2365.8413	956.9	71
964.4736	2367.2504	958.9	77.1
964.6046	2368.6587	955.4	69.8
964.7356	2370.0664	958.85	76.1
964.8666	2371.4733	958.75	73.2
964.9975	2372.8795	958.15	76
965.1284	2374.285	960.3	75.4
965.2593	2375.6899	959.1	77.15
965.3901	2377.0939	957.55	72.6
965.5209	2378.4973	958.35	76.4
965.6517	2379.9	956.95	73.9
965.7825	2381.3019	954.6	70.1
965.9132	2382.7032	957.1	73.45
966.0439	2384.1037	955.6	73.95
966.1745	2385.5035	956.4	70.6
966.3051	2386.9027	954.15	70.5
966.4357	2388.3011	961.35	73.95
966.5663	2389.6987	955.95	73.7
966.6968	2391.0957	955	72.15
966.8273	2392.492	954.85	71.7
966.9578	2393.8876	954.35	71.15
967.0882	2395.2824	953.55	71.2
967.2186	2396.6765	951.6	69.15
967.349	2398.07	950.75	69.45
967.4793	2399.4627	955	69.05
967.6097	2400.8547	954.8	71.45
967.7399	2402.246	955.9	68.65
967.8702	2403.6366	954.7	69.7
968.0004	2405.0265	950.45	65.85
968.1306	2406.4156	956.85	68
968.2607	2407.8041	954.8	65.55
968.3909	2409.1918	952.5	66.4
968.521	2410.5789	950.55	66.45
968.651	2411.9652	952.1	67.05
968.781	2413.3508	950.5	65.8
968.911	2414.7358	954.1	69.55
969.041	2416.12	949.45	65.55
969.1709	2417.5035	949.4	66.7
969.3008	2418.8863	950.35	66.35
969.4307	2420.2684	947.9	63.95
969.5606	2421.6497	954	70.45
969.6904	2423.0304	951.2	67.4
969.8201	2424.4104	950.9	66.55
969.9499	2425.7896	956.15	64.35
970.0796	2427.1682	951.55	69.35
970.2093	2428.546	952.9	67.8
970.3389	2429.9232	949.85	65.85
970.4685	2431.2996	946.45	62.85
970.5981	2432.6753	946.2	63.55
970.7277	2434.0503	949.15	64.55
970.8572	2435.4246	948	66.15
970.9867	2436.7982	948.3	61.5
971.1161	2438.1711	946.3	63.2
971.2456	2439.5433	947.7	61.5
971.375	2440.9148	950.85	61.35
971.5043	2442.2856	944	60.75
971.6336	2443.6557	948.65	63.15
971.7629	2445.025	945.7	62.35
971.8922	2446.3937	942.3	59.45
972.0214	2447.7617	947.8	64.5
972.1506	2449.1289	944.25	60.65
972.2798	2450.4955	947.4	60.3
972.4089	2451.8613	944.15	63.3
972.538	2453.2265	946.65	61.9
972.6671	2454.5909	945.75	61.6
972.7961	2455.9546	942.75	60.4
972.9251	2457.3177	944.45	60.5
973.0541	2458.68	946.95	62.45
973.1831	2460.0416	944.95	61.4
973.312	2461.4025	947.8	63.05
973.4408	2462.7627	956.05	60.15
973.5697	2464.1222	941.25	59.2
973.6985	2465.4811	944.75	58.05
973.8273	2466.8392	944.5	59.75
973.956	2468.1966	944.2	57.7
974.0847	2469.5533	945.6	60.15
974.2134	2470.9093	944.35	61
974.3421	2472.2645	947.6	60.65
974.4707	2473.6191	946	62
974.5993	2474.973	941.9	59.2
974.7278	2476.3262	944.8	59.2
974.8563	2477.6787	941.7	59.25
974.9848	2479.0305	944.75	61.8
975.1132	2480.3816	943.85	59.55
975.2417	2481.7319	942.55	61
975.37	2483.0816	944.9	57.55
975.4984	2484.4306	944.9	59.75
975.6267	2485.7789	942.3	59.2
975.755	2487.1264	941.5	55.1
975.8833	2488.4733	940.3	59.55
976.0115	2489.8195	958.3	58
976.1397	2491.165	944	57
976.2678	2492.5097	942.05	56.35
976.3959	2493.8538	939.6	57
976.524	2495.1972	937.1	53.2
976.6521	2496.5398	941.9	56.95
976.7801	2497.8818	942.9	57.2
976.9081	2499.2231	939.9	56.15
977.036	2500.5637	942.45	55.15
977.164	2501.9035	940.75	55.85
977.2918	2503.2427	946.5	58.8
977.4197	2504.5812	936.1	52.4
977.5475	2505.919	940.4	55.05
977.6753	2507.256	939.95	56.65
977.8031	2508.5924	936.2	53.25
977.9308	2509.9281	945.05	54.65
978.0585	2511.2631	939.85	58.1
978.1861	2512.5974	937.55	53.8
978.3137	2513.9309	937.3	52.5
978.4413	2515.2638	970.85	59
978.5689	2516.596	940.8	58.15
978.6964	2517.9275	939.85	55.25
978.8239	2519.2583	937.5	53.35
978.9513	2520.5884	937.55	51.45
979.0788	2521.9178	937.4	54.9
979.2062	2523.2465	937.95	55.15
979.3335	2524.5745	936.85	53.35
979.4608	2525.9018	936.95	51.85
979.5881	2527.2284	934.55	52.15
979.7154	2528.5543	934.5	53.4
979.8426	2529.8796	935.35	49.6
979.9698	2531.2041	934.75	50.95
980.0969	2532.5279	933.85	51.55
980.224	2533.851	935.85	51.65
980.3511	2535.1735	936.35	55
980.4781	2536.4952	934.65	51.4
980.6052	2537.8163	934.7	51.2
980.7321	2539.1366	934.7	51.2
980.8591	2540.4562	935.9	49.15
980.986	2541.7752	931.9	47.6
981.1129	2543.0935	935.1	50.45
981.2397	2544.411	935.1	49.15
981.3665	2545.7279	932.4	48.35
981.4933	2547.0441	933.35	51.05
981.62	2548.3596	937.75	51.75
981.7467	2549.6744	934.95	51.75
981.8734	2550.9885	937.55	52.1
982.0001	2552.3019	934.3	50.7
982.1267	2553.6146	932.15	47.35
982.2532	2554.9266	933.8	50.65
982.3798	2556.2379	935.65	50.05
982.5063	2557.5485	933.45	51.8
982.6327	2558.8585	939.05	47.7
982.7592	2560.1677	937.8	49.1
982.8856	2561.4762	931.9	47.9
983.0119	2562.7841	934.4	47.95
983.1383	2564.0913	931.7	48.25
983.2646	2565.3977	932.5	51.4
983.3908	2566.7035	932.35	47.6
983.517	2568.0086	934.45	47.7
983.6432	2569.313	933.65	49.65
983.7694	2570.6167	935.45	47.6
983.8955	2571.9197	931.85	48.15
984.0216	2573.222	935.5	47.75
984.1476	2574.5236	932.3	48
984.2737	2575.8246	932.7	46.95
984.3996	2577.1248	935	48.3
984.5256	2578.4244	932.5	48.45
984.6515	2579.7232	931.95	48.65
984.7774	2581.0214	958.5	46.5
984.9032	2582.3189	931.25	48.45
985.029	2583.6157	934.75	46.8
985.1548	2584.9118	933.95	48.8
985.2806	2586.2072	929.85	46.4
985.4063	2587.5019	928.2	46.45
985.5319	2588.7959	931.7	46.5
985.6576	2590.0893	933.45	48.1
985.7832	2591.3819	930.85	50
985.9087	2592.6739	930.1	47.45
986.0343	2593.9652	930.15	44.45
986.1597	2595.2557	928	44.15
986.2852	2596.5456	929.5	43.2
986.4106	2597.8348	926.45	44.35
986.536	2599.1234	927.9	43.95
986.6614	2600.4112	933.45	48.35
986.7867	2601.6983	933.4	46.55
986.912	2602.9848	930.9	47.95
987.0372	2604.2705	933.9	43.65
987.1624	2605.5556	930.7	48.1
987.2876	2606.84	931.25	49.65
987.4128	2608.1237	931.05	44.75
987.5379	2609.4067	927.15	42.8
987.6629	2610.689	937.1	45.15
987.788	2611.9707	933.2	47.4
987.913	2613.2516	936.2	48.9
988.0379	2614.5319	926.05	42.3
988.1629	2615.8115	926.75	46.35
988.2878	2617.0903	925.75	42.25
988.4126	2618.3685	926.75	43.25
988.5375	2619.6461	927.65	44.7
988.6622	2620.9229	925.65	40.35
988.787	2622.199	927.8	42.15
988.9117	2623.4745	928.65	44.7
989.0364	2624.7493	927.05	42.75
989.161	2626.0234	924.65	42.95
989.2857	2627.2968	926.05	43.8
989.4102	2628.5695	926.6	40.95
989.5348	2629.8415	926.7	43.4
989.6593	2631.1128	926	39.45
989.7837	2632.3835	925.6	42.15
989.9082	2633.6535	924.65	40.65
990.0326	2634.9228	923.2	38.85
990.1569	2636.1914	923.25	38.95
990.2812	2637.4593	932.2	42.2
990.4055	2638.7265	925.3	42.75
990.5298	2639.9931	923.55	41.1
990.654	2641.259	927.25	42.1
990.7782	2642.5242	923.4	40.25
990.9023	2643.7887	926.05	41.9
991.0264	2645.0525	921.55	37.3
991.1505	2646.3156	925.25	41.95
991.2745	2647.5781	923.7	40.15
991.3985	2648.8398	921.35	36.9
991.5225	2650.1009	961.05	39.55
991.6464	2651.3613	925.6	40.85
991.7703	2652.6211	924.9	41.6
991.8942	2653.8801	923.2	41.25
992.018	2655.1385	923.2	36.8
992.1418	2656.3961	921.1	38.55
992.2655	2657.6531	922.2	38.3
992.3892	2658.9094	923.15	40.6
992.5129	2660.1651	922.05	39
992.6366	2661.42	921.35	36.95
992.7602	2662.6743	921.4	37.5
992.8837	2663.9279	920.6	36.7
993.0073	2665.1808	921.1	35.35
993.1307	2666.433	923.1	39
993.2542	2667.6846	921.4	39.65
993.3776	2668.9354	925.5	39.25
993.501	2670.1856	924.8	42.2
993.6244	2671.4351	921.95	39.7
993.7477	2672.6839	924.1	39.7
993.8709	2673.9321	921.3	36.7
993.9942	2675.1795	922.1	38.45
994.1174	2676.4263	920.35	36.15
994.2405	2677.6724	920.4	36.95
994.3637	2678.9179	923.5	39.6
994.4868	2680.1626	924.1	40
994.6098	2681.4067	921.8	38.2
994.7328	2682.6501	922.25	39.7
994.8558	2683.8928	921.65	38.05
994.9788	2685.1348	919.3	35.55
995.1017	2686.3761	921.95	39.15
995.2245	2687.6168	920	35.75
995.3474	2688.8568	921.75	38.65
995.4702	2690.0961	920.35	36
995.5929	2691.3348	920.3	37.5
995.7156	2692.5727	920.8	37.9
995.8383	2693.81	920.75	37.75
995.961	2695.0466	915.35	31.5
996.0836	2696.2826	921.25	35.35
996.2062	2697.5178	939.25	35.35
996.3287	2698.7524	921.55	38.05
996.4512	2699.9863	920.35	35.05
996.5737	2701.2195	919.25	34.95
996.6961	2702.452	922	35.85
996.8185	2703.6839	919.85	34.95
996.9408	2704.9151	918.35	36.5
997.0631	2706.1456	918.95	35.25
997.1854	2707.3755	921.6	36.5
997.3077	2708.6046	921.95	35.6
997.4299	2709.8331	921.1	37.05
997.552	2711.0609	919.45	35.8
997.6742	2712.2881	919.25	35.3
997.7963	2713.5145	921.45	35.9
997.9183	2714.7403	919.9	37.1
998.0403	2715.9654	921.15	35.9
998.1623	2717.1899	933.1	35.15
998.2842	2718.4136	923.55	40
998.4062	2719.6367	920.55	38.2
998.528	2720.8591	928.35	34.2
998.6498	2722.0809	923.55	39.2
998.7716	2723.3019	926	40.1
998.8934	2724.5223	924.05	38.05
999.0151	2725.7421	924.85	41
999.1368	2726.9611	926.7	40.8
999.2584	2728.1795	930.9	44.1
999.38	2729.3972	920.55	37.4
999.5016	2730.6142	937.55	42.55
999.6231	2731.8306	921.7	35.2
999.7446	2733.0462	923.1	35.65
999.8661	2734.2612	924.4	34.6
999.9875	2735.4756	921.3	33.7
1000.1089	2736.6892	920	36.45
1000.2302	2737.9022	920.25	36.9
1000.3515	2739.1145	915.7	32.55
1000.4728	2740.3262	922.05	31.15
1000.594	2741.5372	916.8	32.95
1000.7152	2742.7475	917.55	34.05
1000.8363	2743.9571	918.2	33.65
1000.9575	2745.1661	921.6	33.85
1001.0785	2746.3744	918.8	32.6
1001.1996	2747.582	912.55	30.65
1001.3206	2748.7889	916.95	32
1001.4415	2749.9952	915.6	32.25
1001.5625	2751.2008	911.9	25.6
1001.6833	2752.4057	914.75	27.75
1001.8042	2753.61	917.3	33.25
1001.925	2754.8136	917.8	31.15
1002.0458	2756.0165	914.15	30
1002.1665	2757.2188	911.25	28.45
1002.2872	2758.4204	910.8	28.7
1002.4078	2759.6213	915.8	27.95
1002.5285	2760.8215	921.6	32.6
1002.649	2762.0211	914.25	29.65
1002.7696	2763.22	916.4	27.35
1002.8901	2764.4182	915.3	30.45
1003.0106	2765.6158	911.65	28.75
1003.131	2766.8127	913.6	31.5
1003.2514	2768.009	913.2	29.4
1003.3717	2769.2045	915.8	30.15
1003.492	2770.3994	913.4	28.55
1003.6123	2771.5936	913.6	27.9
1003.7325	2772.7872	911	27.85
1003.8527	2773.9801	913.15	28.05
1003.9729	2775.1723	928.25	26.35
1004.093	2776.3639	908.45	26.9
1004.2131	2777.5548	912.8	26.6
1004.3331	2778.745	913.5	26.7
1004.4531	2779.9346	910.15	27.5
1004.5731	2781.1235	914.05	27.85
1004.693	2782.3117	908.6	25.45
1004.8129	2783.4992	910.7	26.3
1004.9328	2784.6861	909.95	28.1
1005.0526	2785.8723	912.3	27.75
1005.1723	2787.0579	911.35	26.4
1005.2921	2788.2428	910.25	24.75
1005.4118	2789.427	910.85	28.1
1005.5314	2790.6106	909.9	26.25
1005.651	2791.7935	911.7	28.65
1005.7706	2792.9757	908.55	25.3
1005.8902	2794.1573	912.9	28.2
1006.0097	2795.3382	908.55	24.15
1006.1291	2796.5184	908.5	24.9
1006.2485	2797.698	913.8	28.5
1006.3679	2798.8769	911.8	27
1006.4873	2800.0551	913.4	29.6
1006.6066	2801.2327	914.4	26.7
1006.7258	2802.4096	913.95	31.1
1006.8451	2803.5859	912.55	27.7
1006.9642	2804.7615	912.6	27.1
1007.0834	2805.9364	912.85	30.35
1007.2025	2807.1106	910.1	26.8
1007.3216	2808.2842	912.85	27.25
1007.4406	2809.4572	912.5	27.3
1007.5596	2810.6294	915.85	30.7
1007.6785	2811.801	916.1	35.1
1007.7975	2812.972	914.05	30.1
1007.9163	2814.1423	916.3	30.6
1008.0352	2815.3119	915.55	32.4
1008.154	2816.4808	916.75	34.3
1008.2727	2817.6491	920.05	34.2
1008.3914	2818.8167	915	30.4
1008.5101	2819.9837	923.4	35.25
1008.6288	2821.15	927.75	45.9
1008.7474	2822.3157	926.15	43.55
1008.8659	2823.4807	931.85	46.85
1008.9844	2824.645	935.5	52.05
1009.1029	2825.8086	938.3	55.2
1009.2214	2826.9716	940.4	57.8
1009.3398	2828.134	946.9	63.3
1009.4581	2829.2957	951.7	68.2
1009.5764	2830.4567	950.9	67.9
1009.6947	2831.617	957.2	72.2
1009.813	2832.7767	953.6	71.05
1009.9312	2833.9358	955.6	72.6
1010.0493	2835.0941	957.95	71.7
1010.1675	2836.2519	951.9	69.95
1010.2855	2837.4089	953.55	71
1010.4036	2838.5653	948.45	66.55
1010.5216	2839.7211	947.7	65.95
1010.6396	2840.8761	949.45	63.15
1010.7575	2842.0306	945.35	62.75
1010.8754	2843.1843	946.7	62.9
1010.9932	2844.3374	948.35	65.75
1011.111	2845.4899	948.3	61.95
1011.2288	2846.6417	949.5	65.85
1011.3465	2847.7928	948.2	64.5
1011.4642	2848.9433	950.55	65.15
1011.5818	2850.0931	950.25	66.75
1011.6995	2851.2422	951.75	68.4
1011.817	2852.3907	951.5	67.75
1011.9345	2853.5385	954.45	68.2
1012.052	2854.6857	981.5	70.55
1012.1695	2855.8323	953.95	74.05
1012.2869	2856.9781	955.25	71.15
1012.4042	2858.1233	956.1	73.3
1012.5216	2859.2679	958.4	73.25
1012.6389	2860.4118	962.65	80.85
1012.7561	2861.555	967	77.3
1012.8733	2862.6976	965.1	79.95
1012.9905	2863.8395	965.3	81.95
1013.1076	2864.9808	964.7	82.55
1013.2247	2866.1214	965.35	82.55
1013.3417	2867.2614	965.2	82.5
1013.4587	2868.4007	969.6	85.4
1013.5757	2869.5393	969.3	84.65
1013.6926	2870.6773	971.9	84.85
1013.8095	2871.8146	973.65	85.7
1013.9263	2872.9513	969.35	83.95
1014.0431	2874.0874	970.95	88.35
1014.1599	2875.2227	974.25	90
1014.2766	2876.3574	971	87.3
1014.3933	2877.4915	972.65	89.9
1014.51	2878.6249	972.75	88.8
1014.6266	2879.7577	971.75	86.3
1014.7431	2880.8898	986.05	92.5
1014.8596	2882.0212	976.55	94.45
1014.9761	2883.152	979.05	94.4
1015.0925	2884.2821	979.4	98.05
1015.2089	2885.4116	980	98.6
1015.3253	2886.5405	981.8	99.05
1015.4416	2887.6686	985.85	99.15
1015.5579	2888.7962	976.55	94.8
1015.6741	2889.923	979.8	98.75
1015.7903	2891.0493	982.65	101.15
1015.9065	2892.1748	982.25	97.2
1016.0226	2893.2997	983.95	100.15
1016.1387	2894.424	979.25	96.1
1016.2547	2895.5476	979.6	94.6
1016.3707	2896.6706	977.2	94.55
1016.4866	2897.7929	984.5	101.05
1016.6025	2898.9145	981.85	96.7
1016.7184	2900.0355	982.75	99
1016.8342	2901.1559	979.65	96
1016.95	2902.2756	984.05	97.5
1017.0658	2903.3946	978.15	94.15
1017.1815	2904.513	980.35	95.9
1017.2971	2905.6308	977.05	91.35
1017.4127	2906.7479	979.2	95.35
1017.5283	2907.8643	983.4	99.65
1017.6439	2908.9801	979.35	94.45
1017.7594	2910.0953	978.45	94.3
1017.8748	2911.2098	986.35	99.75
1017.9902	2912.3236	987.3	94.55
1018.1056	2913.4368	982.15	93.45
1018.2209	2914.5494	978.05	94.6
1018.3362	2915.6613	981.35	92.2
1018.4515	2916.7725	979.25	91.6
1018.5667	2917.8831	976.15	93.25
1018.6819	2918.9931	974.95	89.55
1018.797	2920.1024	971.9	88
1018.9121	2921.211	972.1	89.5
1019.0271	2922.319	972.6	86.5
1019.1421	2923.4264	967.1	83.35
1019.2571	2924.5331	967.5	85.95
1019.372	2925.6391	969.95	84.55
1019.4869	2926.7445	967	84.7
1019.6017	2927.8493	967.65	81.65
1019.7165	2928.9534	969.65	85.4
1019.8313	2930.0569	972.95	87.95
1019.946	2931.1597	973.3	86.95
1020.0606	2932.2619	971.05	89.1
1020.1753	2933.3634	971.45	88.2
1020.2899	2934.4643	980.05	89.55
1020.4044	2935.5645	977.6	87.3
1020.5189	2936.6641	977.25	89.7
1020.6334	2937.763	970.85	89.55
1020.7478	2938.8613	974.85	90.45
1020.8622	2939.959	975.4	84.8
1020.9765	2941.056	969.6	87
1021.0908	2942.1523	969.75	84.15
1021.2051	2943.248	964.15	79.95
1021.3193	2944.3431	960.9	77.55
1021.4334	2945.4375	957.55	72.7
1021.5476	2946.5313	952.55	70.7
1021.6617	2947.6244	950.85	66.75
1021.7757	2948.7169	947.9	62
1021.8897	2949.8087	943.2	59.15
1022.0037	2950.8999	939.85	56.4
1022.1176	2951.9904	937.8	53.5
1022.2315	2953.0803	936.1	50.45
1022.3453	2954.1696	934.5	51.55
1022.4591	2955.2582	932.1	49.65
1022.5728	2956.3462	928.55	44.35
1022.6865	2957.4335	928.75	45.3
1022.8002	2958.5202	928.65	43.55
1022.9138	2959.6062	930.3	46.6
1023.0274	2960.6916	928.85	46.7
1023.141	2961.7764	930.4	45.3
1023.2545	2962.8605	930.7	46.75
1023.3679	2963.9439	929.5	46
1023.4813	2965.0267	929	47.6
1023.5947	2966.1089	952.55	45.3
1023.708	2967.1905	928.05	44.9
1023.8213	2968.2714	927.15	44.5
1023.9346	2969.3516	926.6	42.2
1024.0478	2970.4312	934.55	45.75
1024.1609	2971.5102	927.8	44.25
1024.274	2972.5885	926.2	42.6
1024.3871	2973.6662	930.5	41.1
1024.5002	2974.7432	927.2	44.2
1024.6132	2975.8196	926	40.9
1024.7261	2976.8954	928.5	45.35
1024.839	2977.9705	927.8	44.35
1024.9519	2979.045	924.95	44.65
1025.0647	2980.1188	927.3	44.5
1025.1775	2981.192	925.65	42.95
1025.2902	2982.2645	925.75	40.9
1025.4029	2983.3364	926.9	42.7
1025.5156	2984.4077	925.7	43.7
1025.6282	2985.4783	931	41.1
1025.7407	2986.5483	919.1	36.85
1025.8532	2987.6177	919.6	37.5
1025.9657	2988.6864	920.45	36
1026.0782	2989.7545	919.55	34.65
1026.1906	2990.8219	918.75	36.1
1026.3029	2991.8887	917.4	31.95
1026.4152	2992.9548	917.3	33.95
1026.5275	2994.0204	913.15	32.2
1026.6397	2995.0852	909.15	26.6
1026.7519	2996.1495	912.1	27.85
1026.864	2997.2131	908.85	25.75
1026.9761	2998.276	910.35	27.2
1027.0882	2999.3383	909.6	25.5
1027.2002	3000.4	907.3	23.5
1027.3122	3001.4611	905.1	20.3
1027.4241	3002.5215	902.55	19.35
1027.536	3003.5812	903.25	21.3
1027.6478	3004.6404	904.25	19.05
1027.7596	3005.6989	907.65	22.8
1027.8714	3006.7567	901.35	18.45
1027.9831	3007.8139	927.45	17.55
1028.0947	3008.8705	902.5	18.7
1028.2064	3009.9264	918.35	16.9
1028.3179	3010.9818	901.3	17.55
1028.4295	3012.0364	902.8	17.4
1028.541	3013.0905	901.05	18.5
1028.6524	3014.1439	901.45	17.65
1028.7638	3015.1966	896.7	11.75
1028.8752	3016.2487	900.25	16.3
1028.9865	3017.3002	905.75	15.3
1029.0978	3018.3511	901.2	19.35
1029.209	3019.4013	900.5	18.1
1029.3202	3020.4509	898.35	16.1
1029.4314	3021.4998	897.55	14.2
1029.5425	3022.5481	899	14.8
1029.6535	3023.5958	900.6	16.45
1029.7645	3024.6428	901.95	18.9
1029.8755	3025.6892	898.5	13.85
1029.9864	3026.735	901	18.6
1030.0973	3027.7802	897.85	14.1
1030.2082	3028.8247	900.15	18.6
1030.319	3029.8685	900.3	17.05
1030.4297	3030.9118	901.2	17.35
1030.5404	3031.9544	898.5	13.45
1030.6511	3032.9963	899.95	16.6
1030.7617	3034.0376	898.9	15.1
1030.8723	3035.0783	902.2	14.75
1030.9829	3036.1184	899.7	15.35
1031.0934	3037.1578	899.85	18.75
1031.2038	3038.1966	898.65	12.7
1031.3142	3039.2348	898.25	15.45
1031.4246	3040.2723	905.35	12.85
1031.5349	3041.3092	898.6	14.95
1031.6452	3042.3455	897.9	14.5
1031.7554	3043.3811	899.9	16.4
1031.8656	3044.4161	898.8	14.35
1031.9758	3045.4505	899	15.85
1032.0859	3046.4842	899.95	16.1
1032.1959	3047.5173	897.25	14.55
1032.3059	3048.5498	898.25	13.55
1032.4159	3049.5816	900.95	18
1032.5258	3050.6128	900.35	15.25
1032.6357	3051.6434	899.55	14.95
1032.7455	3052.6734	901.4	15.7
1032.8553	3053.7027	901.15	15.35
1032.9651	3054.7314	897.55	15.05
1033.0748	3055.7594	897.7	14.5
1033.1845	3056.7868	898.5	13
1033.2941	3057.8136	901.2	18.95
1033.4037	3058.8398	899.35	15.7
1033.5132	3059.8653	901.25	17.3
1033.6227	3060.8902	897.9	13.15
1033.7321	3061.9145	899.4	16.5
1033.8415	3062.9381	899.1	15.9
1033.9509	3063.9612	914.6	17.25
1034.0602	3064.9835	900.5	16.95
1034.1694	3066.0053	902.95	19
1034.2787	3067.0264	899.7	16.05
1034.3878	3068.0469	903.3	17.9
1034.497	3069.0668	900.85	12.95
1034.6061	3070.086	898.75	16.2
1034.7151	3071.1046	900.65	14.85
1034.8241	3072.1226	900.1	16.6
1034.9331	3073.1399	899	13.8
1035.042	3074.1567	898.6	15.1
1035.1508	3075.1727	900.85	14
1035.2597	3076.1882	900.5	17
1035.3684	3077.203	901.95	17.05
1035.4772	3078.2173	898.55	14.3
1035.5859	3079.2308	901.4	14.15
1035.6945	3080.2438	900.6	15.5
1035.8031	3081.2561	899.7	16.05
1035.9117	3082.2678	894.95	11.4
1036.0202	3083.2789	897.2	11.05
1036.1286	3084.2893	895.7	13.05
1036.2371	3085.2991	897.5	13.95
1036.3454	3086.3083	901.7	11.6
1036.4538	3087.3169	896.1	10.85
1036.562	3088.3248	898.6	13.35
1036.6703	3089.3321	897.3	11.75
1036.7785	3090.3388	895.15	13.05
1036.8866	3091.3449	895.85	11.6
1036.9948	3092.3503	897.75	13.75
1037.1028	3093.3551	895.75	13.5
1037.2108	3094.3593	893.3	12.15
1037.3188	3095.3629	893.55	11.4
1037.4267	3096.3658	896	10.7
1037.5346	3097.3681	892.1	9.15
1037.6425	3098.3698	896.2	10
1037.7503	3099.3708	894.95	11.05
1037.858	3100.3713	894.1	12.2
1037.9657	3101.3711	895.95	10.85
1038.0734	3102.3702	1036.2	13.05
1038.181	3103.3688	896.4	10.7
1038.2886	3104.3667	890.8	8.6
1038.3961	3105.364	893.5	10.3
1038.5036	3106.3607	895.85	11.4
1038.611	3107.3568	895.1	9.95
1038.7184	3108.3522	893.7	10.05
1038.8257	3109.347	894.15	8.75
1038.933	3110.3412	897.15	10.3
1039.0403	3111.3348	891.85	7.65
1039.1475	3112.3277	892.1	10.2
1039.2547	3113.32	891.6	8.15
1039.3618	3114.3117	893.45	8.45
1039.4689	3115.3028	894	10.45
1039.5759	3116.2932	894.3	8.2
1039.6829	3117.2831	898.3	9.55
1039.7898	3118.2723	894.05	12.45
1039.8967	3119.2608	889.65	5.5
1040.0035	3120.2488	892.05	8.5
1040.1103	3121.2361	893.4	10.4
1040.2171	3122.2229	892.45	8.8
1040.3238	3123.209	893.4	9.15
1040.4305	3124.1944	892.45	8.3
1040.5371	3125.1793	893	4.85
1040.6437	3126.1635	888.3	4.2
1040.7502	3127.1471	890.6	7.8
1040.8567	3128.1301	891.8	10
1040.9631	3129.1125	892.7	8.25
1041.0695	3130.0942	893.1	9.35
1041.1759	3131.0753	901.7	9.85
1041.2822	3132.0558	892.8	5.65
1041.3884	3133.0357	890.65	6.45
1041.4946	3134.015	892.6	8.25
1041.6008	3134.9936	893.6	8.35
1041.7069	3135.9716	913.8	8.55
1041.813	3136.949	891.4	7.7
1041.919	3137.9258	910.05	6.9
1042.025	3138.902	896.4	5.9
1042.1309	3139.8775	890.6	8.95
1042.2368	3140.8524	892.7	9.95
1042.3427	3141.8267	891.85	7.8
1042.4485	3142.8004	891.05	9.2
1042.5542	3143.7735	895.6	4.7
1042.6599	3144.7459	895.4	9
1042.7656	3145.7178	889.5	7
1042.8712	3146.689	890.2	5.8
1042.9768	3147.6596	891.85	5.5
1043.0823	3148.6295	891.15	6.1
1043.1878	3149.5989	891.7	9.5
1043.2932	3150.5676	889.45	6.7
1043.3986	3151.5357	889.55	8.15
1043.5039	3152.5032	890.05	8.25
1043.6092	3153.4701	891.65	10.1
1043.7145	3154.4364	893.6	6.25
1043.8197	3155.402	889.7	7.3
1043.9248	3156.367	892	4.85
1044.03	3157.3315	911.35	8
1044.135	3158.2952	891.25	4.95
1044.24	3159.2584	888.9	4.2
1044.345	3160.221	891.3	9.2
1044.4499	3161.1829	890.75	6.25
1044.5548	3162.1442	889.9	7.25
1044.6596	3163.105	891.4	7.5
1044.7644	3164.065	889.45	5
1044.8692	3165.0245	892.7	5.15
1044.9739	3165.9834	888.45	6.55
1045.0785	3166.9416	890.85	7.35
1045.1831	3167.8993	890	5.15
1045.2877	3168.8563	891.4	8.35
1045.3922	3169.8127	889.1	6.25
1045.4966	3170.7684	889.45	4.7
1045.6011	3171.7236	889.9	3.7
1045.7054	3172.6782	891.55	7
1045.8098	3173.6321	890.9	6.3
1045.914	3174.5854	894.95	7.1
1046.0183	3175.5381	891.05	6.5
1046.1224	3176.4902	889.9	7.95
1046.2266	3177.4417	888.35	5.5
1046.3307	3178.3926	889.6	7.55
1046.4347	3179.3428	888.1	7.45
1046.5387	3180.2924	889.9	5.55
1046.6427	3181.2415	890.75	6.15
1046.7466	3182.1899	892.3	7.55
1046.8504	3183.1377	887.5	6.45
1046.9542	3184.0848	890.25	2
1047.058	3185.0314	888.9	4.35
1047.1617	3185.9773	890.65	6.85
1047.2654	3186.9227	890.9	7.35
1047.369	3187.8674	889.1	3.95
1047.4726	3188.8115	895.25	6.7
1047.5761	3189.755	891.85	9.4
1047.6796	3190.6979	889.7	4.6
1047.783	3191.6402	888.15	5.95
1047.8864	3192.5818	888	6
1047.9898	3193.5229	899.5	3.2
1048.0931	3194.4633	889.25	7.2
1048.1963	3195.4031	890.25	6.2
1048.2995	3196.3423	887.3	5.45
1048.4027	3197.2809	890.1	6.35
1048.5058	3198.2189	890.15	5.45
1048.6089	3199.1563	906.55	5.6
1048.7119	3200.0931	889.7	6.4
1048.8148	3201.0292	889.95	7.15
1048.9178	3201.9648	888.3	5.25
1049.0206	3202.8997	891.4	6
1049.1235	3203.834	888.95	5.05
1049.2262	3204.7677	889.25	4.9
1049.329	3205.7008	889.55	4.35
1049.4317	3206.6333	887.85	4.3
1049.5343	3207.5652	888.85	3.6
1049.6369	3208.4964	887.55	3.4
1049.7394	3209.4271	886.1	5.65
1049.8419	3210.3571	887.8	5.25
1049.9444	3211.2865	890.15	7.05
1050.0468	3212.2154	889.4	3
1050.1491	3213.1436	891.55	4.55
1050.2514	3214.0712	893.95	4
1050.3537	3214.9982	889.7	7.6
1050.4559	3215.9246	890.15	5.15
1050.5581	3216.8503	888.7	6.6
1050.6602	3217.7755	888.8	3.2
1050.7623	3218.7001	889	6.75
1050.8643	3219.624	888.75	2.95
1050.9663	3220.5473	887.3	1.8
1051.0682	3221.4701	890.05	5.95
1051.1701	3222.3922	891.9	5.3
1051.2719	3223.3137	889.25	5.45
1051.3737	3224.2346	886.6	4.75
1051.4754	3225.1549	887.2	4.2
1051.5771	3226.0746	887.3	4.1
1051.6788	3226.9937	888.35	4.85
1051.7804	3227.9121	886.85	4.75
1051.8819	3228.83	888.7	4.85
1051.9834	3229.7473	887.9	3.35
1052.0849	3230.6639	890.2	5.9
1052.1863	3231.5799	889.25	6.75
1052.2876	3232.4954	890.45	5.8
1052.3889	3233.4102	887.45	2.75
1052.4902	3234.3244	889.05	4.6
1052.5914	3235.238	888	5.65
1052.6926	3236.151	908.8	1
1052.7937	3237.0634	887.1	3.2
1052.8948	3237.9752	887.65	4.1
1052.9958	3238.8864	889.6	4.6
1053.0968	3239.797	887.95	5.85
1053.1977	3240.7069	889.4	3.4
1053.2986	3241.6163	889.35	3
1053.3994	3242.5251	886.4	5.55
1053.5002	3243.4332	887.75	4
1053.6009	3244.3408	888.6	4
1053.7016	3245.2477	886.25	4.1
1053.8022	3246.154	888.1	2.75
1053.9028	3247.0598	886.5	2.15
1054.0034	3247.9649	888.15	4.5
1054.1039	3248.8694	887.85	5.7
1054.2043	3249.7733	886	1.45
1054.3047	3250.6766	886.3	2.3
1054.4051	3251.5793	889.25	3.4
1054.5054	3252.4814	888.5	5
1054.6056	3253.3829	887	2.75
1054.7058	3254.2838	887.65	4.65
1054.806	3255.1841	886.7	2.4
1054.9061	3256.0838	888.35	7.1
1055.0061	3256.9829	888.6	5.45
1055.1062	3257.8814	888.35	2.95
1055.2061	3258.7792	889.2	5.6
1055.306	3259.6765	886.65	1.25
1055.4059	3260.5731	885.45	2.6
1055.5057	3261.4692	887.3	0.9
1055.6055	3262.3647	888.45	4.45
1055.7052	3263.2595	887.1	4.3
1055.8049	3264.1538	888.35	4.75
1055.9045	3265.0474	888.35	2.85
1056.0041	3265.9404	887.05	3.8
1056.1036	3266.8329	885.7	2.65
1056.2031	3267.7247	896.55	2.65
1056.3025	3268.616	887.8	3.65
1056.4019	3269.5066	888.7	4.5
1056.5013	3270.3966	887.6	1.25
1056.6005	3271.286	884.7	2.3
