Software Version:	3.9.2.0
Unit SN:	10000200
Spectrometer SN:	6960
Date:	3/14/2024 1:30:01 PM
Data Line Index:	25
Spectral Points:	2048
Integration time (ms):	125
Averages:	20
Delay (ms):	30000
Sequence Number:	1
Processing:	dark subtract
Laser Power (mW):	305
Laser Current (mA):	825
Laser Diode Temp (C):	25
Laser Case Temp (C):	28.5
System Temp (C):	28.5
Spectrometer Temp (C):	26.4
CCD Temp (C):	-0.008
Secondary Temp (C):	20.013
Heatsink Temp (C):	24.444
CCDPCB Temp (C):	38.074
SecondaryPCB Temp (C):	35.618

Wavelength	RamanShift	Raw Counts	Dark Subtracted
787.061	30.1047	470.15	59.75
787.2016	32.3739	469.85	63.25
787.3422	34.6426	476.95	67.7
787.4828	36.9109	484.65	74.4
787.6235	39.1787	493.65	77.9
787.7642	41.4461	504	82.7
787.9049	43.7131	514.15	88.65
788.0456	45.9796	523.95	95.35
788.1863	48.2456	536.05	104.9
788.3271	50.5112	546.1	110.15
788.4679	52.7764	553.55	116.15
788.6087	55.0411	565.95	124.2
788.7496	57.3054	580.55	133.15
788.8904	59.5692	589.25	139.65
789.0313	61.8326	603.6	148.8
789.1722	64.0955	616.75	159
789.3132	66.3579	642.6	179
789.4541	68.6199	660.9	195.85
789.5951	70.8815	698.3	229.9
789.7361	73.1426	785.95	313.05
789.8771	75.4032	1010.85	535.5
790.0181	77.6634	1590.6	1106.7
790.1592	79.9231	2933.45	2443.55
790.3003	82.1824	5895.35	5394.85
790.4414	84.4412	11310.35	10790.2
790.5825	86.6995	18881.1	18335.95
790.7237	88.9574	26379	25805.9
790.8648	91.2148	31549.75	30961
791.006	93.4717	34019.85	33420.65
791.1472	95.7282	34526.6	33920.85
791.2885	97.9842	34369.15	33765.4
791.4297	100.2398	33671	33062.85
791.571	102.4949	32912.3	32299.3
791.7123	104.7495	31972.85	31352.4
791.8536	107.0036	31097.35	30476.9
791.9949	109.2573	30257.1	29641.35
792.1363	111.5105	29507	28886.8
792.2777	113.7632	28822.15	28202.5
792.4191	116.0154	28288.05	27658.55
792.5605	118.2672	27935.2	27309.4
792.7019	120.5185	27498.55	26872.4
792.8434	122.7693	27235	26607.25
792.9849	125.0197	26992.1	26362.8
793.1264	127.2696	26678.35	26042.15
793.2679	129.519	26568.2	25933.75
793.4094	131.7679	26258.45	25622.75
793.551	134.0163	26050.6	25409
793.6926	136.2642	25664.45	25020.9
793.8342	138.5117	25352.3	24697.25
793.9758	140.7587	24987.2	24338.65
794.1175	143.0052	24659	24008.35
794.2591	145.2512	24315.05	23665.9
794.4008	147.4967	23996.45	23343.25
794.5425	149.7417	23774.05	23117.15
794.6842	151.9863	23561.35	22904.7
794.826	154.2304	23490.25	22829.8
794.9677	156.4739	23320.4	22655.85
795.1095	158.717	23209.3	22541.9
795.2513	160.9596	23046.5	22375.95
795.3931	163.2017	22760.2	22087.85
795.535	165.4433	22457	21783
795.6768	167.6844	22145.1	21470.85
795.8187	169.925	21796.95	21117.05
795.9606	172.1651	21436.9	20756.3
796.1025	174.4047	21180.1	20496.45
796.2445	176.6439	20918	20229.85
796.3864	178.8825	20654.05	19965.25
796.5284	181.1206	20502.65	19809.5
796.6704	183.3582	20341.55	19645.25
796.8124	185.5954	20266.7	19569.7
796.9544	187.832	20159.7	19460.85
797.0965	190.0681	20164.5	19464.2
797.2386	192.3037	20170.15	19465.85
797.3806	194.5388	20097.55	19391.75
797.5228	196.7734	20140.75	19430.85
797.6649	199.0075	20199.75	19484.6
797.807	201.2411	20331.3	19610.45
797.9492	203.4742	20427.4	19707.6
798.0914	205.7068	20587.05	19866.7
798.2336	207.9389	20687	19968.6
798.3758	210.1704	20843.35	20123.65
798.518	212.4015	20932.9	20207.5
798.6603	214.632	21113.55	20386.55
798.8025	216.862	21226.95	20502.55
798.9448	219.0915	21300.9	20587
799.0871	221.3205	21441.8	20734.85
799.2294	223.549	21524.2	20823.05
799.3718	225.777	21623.6	20919.45
799.5141	228.0044	21764.75	21061.25
799.6565	230.2314	21917.7	21214.8
799.7989	232.4578	22065.85	21362.75
799.9413	234.6837	22179.7	21470.15
800.0837	236.909	22306.85	21593.55
800.2262	239.1339	22288.6	21555.65
800.3687	241.3582	22218.85	21498.7
800.5111	243.582	22098.95	21356.25
800.6536	245.8053	21981.75	21241.5
800.7961	248.0281	21897.05	21164.2
800.9387	250.2503	21863.9	21127.3
801.0812	252.472	21900.55	21156.85
801.2238	254.6932	22001.2	21255.5
801.3664	256.9139	22095.75	21346.65
801.509	259.134	22243.45	21490.6
801.6516	261.3536	22466.45	21715.6
801.7942	263.5727	22720.4	21968.8
801.9369	265.7912	22913.3	22162.5
802.0795	268.0092	23206.1	22454.2
802.2222	270.2267	23372.05	22616.3
802.3649	272.4436	23528.2	22774.1
802.5076	274.6601	23529.35	22769.55
802.6504	276.8759	23406.15	22649.35
802.7931	279.0913	23297.3	22540.65
802.9359	281.3061	23169.25	22411.2
803.0787	283.5204	23135.9	22373.25
803.2215	285.7341	23090.1	22324.45
803.3643	287.9473	23134.85	22357.35
803.5071	290.16	23193.1	22419.2
803.6499	292.3721	23255.05	22489.95
803.7928	294.5837	23519.3	22749.8
803.9357	296.7947	23722.55	22957.85
804.0786	299.0052	23916.95	23147.05
804.2215	301.2152	23851.95	23083.7
804.3644	303.4246	23684.8	22916.05
804.5074	305.6334	23299.05	22531.45
804.6503	307.8418	22871.6	22099.9
804.7933	310.0495	22427.1	21656.1
804.9363	312.2568	21981.75	21211.55
805.0793	314.4635	21556.05	20782.05
805.2223	316.6696	21255.4	20479.8
805.3653	318.8752	20994.1	20210.2
805.5084	321.0802	20957.2	20184.8
805.6514	323.2847	20928.3	20152.85
805.7945	325.4887	20933.5	20159.9
805.9376	327.692	20923.05	20144.2
806.0807	329.8949	20863.9	20087.45
806.2238	332.0972	20708	19927.55
806.367	334.2989	20469.8	19681.65
806.5101	336.5001	20202.8	19419.6
806.6533	338.7007	19993.35	19209.75
806.7965	340.9008	19833.1	19048.4
806.9397	343.1003	19674.05	18886.6
807.0829	345.2992	19544.75	18756.25
807.2261	347.4976	19430.6	18644.85
807.3693	349.6955	19357.1	18565.35
807.5126	351.8927	19340.35	18547
807.6559	354.0895	19217.6	18416.45
807.7991	356.2856	19196.3	18403.2
807.9424	358.4812	19097.55	18305.2
808.0857	360.6763	19100.8	18307.15
808.2291	362.8707	19043.6	18247.45
808.3724	365.0646	19138.1	18340.75
808.5158	367.258	19160.75	18362.45
808.6591	369.4508	19181.55	18377.6
808.8025	371.643	19305	18502.4
808.9459	373.8346	19335.1	18530.65
809.0893	376.0257	19407.95	18599.25
809.2327	378.2162	19368.05	18558.7
809.3762	380.4062	19364.35	18553.85
809.5196	382.5956	19250.55	18436.85
809.6631	384.7844	19140.85	18332.45
809.8066	386.9726	18926.95	18114.15
809.9501	389.1603	18827.65	18017.05
810.0936	391.3474	18775	17930.85
810.2371	393.5339	18759.75	17947.45
810.3806	395.7199	18656.15	17851.05
810.5241	397.9052	18679.95	17876.45
810.6677	400.09	18697.95	17894.3
810.8113	402.2743	18873.75	18073.65
810.9548	404.4579	18998.3	18198
811.0984	406.641	19205.95	18401.95
811.2421	408.8235	19356.3	18552.25
811.3857	411.0054	19478.9	18674.1
811.5293	413.1868	19710.75	18903.65
811.673	415.3675	19798.85	18988.85
811.8166	417.5477	19827.6	19021.25
811.9603	419.7273	19801.8	18991.4
812.104	421.9064	19660.15	18840.25
812.2477	424.0848	19569.2	18754.25
812.3914	426.2627	19373.75	18556.55
812.5351	428.4399	19167.15	18347.2
812.6788	430.6166	18804.7	17980.8
812.8226	432.7928	18462.25	17639.25
812.9663	434.9683	18096.6	17272.55
813.1101	437.1432	17867.8	17039.65
813.2539	439.3176	17670.7	16845.55
813.3977	441.4914	17519.75	16692.75
813.5415	443.6645	17492.7	16665.55
813.6853	445.8371	17402.1	16574.05
813.8291	448.0091	17276.5	16451.95
813.973	450.1806	17273.7	16444.35
814.1168	452.3514	17223.15	16392.85
814.2607	454.5216	17272.9	16435.35
814.4046	456.6913	17187.95	16356.8
814.5485	458.8603	17240.75	16410.9
814.6924	461.0288	17281.9	16453.05
814.8363	463.1967	17233.6	16403.05
814.9802	465.3639	17285.75	16454.65
815.1241	467.5306	17251.1	16421.4
815.2681	469.6967	17223.2	16390.55
815.412	471.8622	17233.05	16401.95
815.556	474.0271	17293.75	16459.6
815.7	476.1914	17307.7	16473.7
815.844	478.3551	17330.05	16497.75
815.988	480.5182	17331.15	16495.6
816.132	482.6807	17442	16605.55
816.276	484.8426	17574.45	16741.25
816.4201	487.0039	17917.2	17084.25
816.5641	489.1647	18297.35	17459.85
816.7082	491.3248	18656.45	17821.1
816.8522	493.4843	18727.7	17891.35
816.9963	495.6432	18698.95	17860.8
817.1404	497.8015	18511.3	17671.45
817.2845	499.9592	18450.35	17613.9
817.4286	502.1163	18207.2	17371.1
817.5727	504.2728	17901.1	17063.8
817.7168	506.4287	17634.15	16797.85
817.861	508.5839	17257	16419.8
818.0051	510.7386	17039.2	16200.25
818.1493	512.8927	16926.85	16079.2
818.2935	515.0461	16838.9	15997.45
818.4377	517.199	16872	16034
818.5818	519.3512	17030.15	16191
818.726	521.5029	17266.75	16419.3
818.8703	523.6539	17501.5	16656.55
819.0145	525.8043	17593.05	16751.7
819.1587	527.9541	17581.05	16734.85
819.303	530.1033	17348.75	16505.6
819.4472	532.2519	17190.8	16347.7
819.5915	534.3999	17131.85	16286.55
819.7357	536.5472	17204.55	16358.6
819.88	538.694	17395.95	16549.45
820.0243	540.8401	17689.15	16843.65
820.1686	542.9856	17925.6	17077.25
820.3129	545.1305	17947.25	17097.45
820.4572	547.2748	17862	17014.1
820.6016	549.4185	17679.5	16829
820.7459	551.5615	17497.35	16648.15
820.8902	553.704	17422.65	16577.85
821.0346	555.8458	17456.9	16607.6
821.1789	557.987	17648.3	16799.65
821.3233	560.1276	17836.4	16990.65
821.4677	562.2675	18137.25	17293.8
821.6121	564.4069	18618.9	17773.25
821.7565	566.5456	19045.1	18196.9
821.9009	568.6837	19185.7	18338.3
822.0453	570.8212	18835.6	17990.15
822.1897	572.958	18149.15	17301.25
822.3342	575.0942	17524	16677.75
822.4786	577.2299	16997.75	16152.35
822.6231	579.3648	16784.7	15932.35
822.7675	581.4992	16692.05	15842.1
822.912	583.6329	16777.75	15930.45
823.0565	585.766	16942.3	16092.2
823.201	587.8985	17068.35	16217.6
823.3454	590.0304	17122.95	16247
823.4899	592.1616	17054.2	16200.85
823.6345	594.2922	16915.7	16066.3
823.779	596.4222	16692.75	15840.6
823.9235	598.5515	16500.65	15647.55
824.068	600.6802	16308.5	15455
824.2126	602.8083	16090.35	15236.15
824.3571	604.9358	16077.9	15224.25
824.5017	607.0626	16045.2	15191.95
824.6462	609.1888	16112.85	15258.25
824.7908	611.3144	16273.05	15419.85
824.9354	613.4393	16334.6	15482.25
825.08	615.5636	16442.25	15588.5
825.2246	617.6873	16412.05	15554.6
825.3692	619.8103	16367.1	15510.95
825.5138	621.9327	16189.3	15330.35
825.6584	624.0544	15949	15091.65
825.803	626.1756	15780.3	14923.8
825.9477	628.2961	15643.7	14788.85
826.0923	630.4159	15491.25	14637.5
826.237	632.5351	15467.45	14608.1
826.3816	634.6537	15431.05	14573.8
826.5263	636.7716	15446.3	14591.45
826.6709	638.8889	15433.85	14576.65
826.8156	641.0056	15446	14587.8
826.9603	643.1216	15415.15	14555.75
827.105	645.237	15368.9	14505.65
827.2497	647.3518	15279.5	14421.1
827.3944	649.4659	15219.65	14358.25
827.5391	651.5793	15154.15	14294.2
827.6838	653.6922	15068.6	14212.15
827.8285	655.8043	15029.55	14171.3
827.9733	657.9159	15035.25	14172.95
828.118	660.0268	14995.45	14133.85
828.2627	662.137	14982.5	14119.8
828.4075	664.2466	15019.6	14156
828.5522	666.3556	14948.9	14088.8
828.697	668.4639	14909.75	14047.9
828.8418	670.5716	14858.1	13996.9
828.9865	672.6786	14822.2	13957.35
829.1313	674.785	14745.05	13880.2
829.2761	676.8907	14729.55	13865.7
829.4209	678.9958	14749.7	13886.6
829.5657	681.1002	14714.6	13851.65
829.7105	683.204	14683.75	13812.9
829.8553	685.3072	14641.35	13778.5
830.0001	687.4097	14586.75	13721.4
830.1449	689.5115	14562.3	13694.5
830.2898	691.6127	14541.3	13677.45
830.4346	693.7132	14498.05	13632.4
830.5794	695.8131	14512.4	13632.85
830.7243	697.9123	14530.9	13664.85
830.8691	700.0109	14517.55	13651.1
831.014	702.1089	14527.65	13660.4
831.1588	704.2061	14575.35	13708.6
831.3037	706.3028	14625.9	13756.05
831.4486	708.3987	14652.95	13790.15
831.5935	710.4941	14644.7	13775.75
831.7383	712.5887	14684.45	13816.6
831.8832	714.6827	14798.15	13926.35
832.0281	716.7761	14911.65	14044.6
832.173	718.8688	15094.8	14227
832.3179	720.9608	15258.8	14388.3
832.4628	723.0522	15395.6	14526.95
832.6077	725.1429	15413.25	14546.8
832.7527	727.233	15442.2	14572.3
832.8976	729.3224	15489.15	14623.6
833.0425	731.4112	15366.7	14496.65
833.1874	733.4993	15219.6	14347.25
833.3324	735.5867	14955.05	14083.75
833.4773	737.6735	14753.15	13879.35
833.6222	739.7596	14537.6	13666.9
833.7672	741.845	14390.45	13520.4
833.9122	743.9298	14264.5	13391.05
834.0571	746.014	14202.8	13333.6
834.2021	748.0974	14195.6	13322.3
834.347	750.1802	14151.9	13282.95
834.492	752.2624	14155.8	13282.65
834.637	754.3439	14197.9	13325.75
834.782	756.4247	14271.4	13391.3
834.9269	758.5048	14428.4	13554.9
835.0719	760.5843	14695.05	13823.1
835.2169	762.6631	15090	14219.05
835.3619	764.7413	15606.7	14735.25
835.5069	766.8188	16313.6	15441.15
835.6519	768.8956	16891.8	16020.5
835.7969	770.9718	17317	16446.65
835.9419	773.0473	17257.75	16387.05
836.0869	775.1221	17011.75	16139.2
836.232	777.1962	16714.45	15843.3
836.377	779.2697	16593.75	15718.55
836.522	781.3426	16623.75	15741.45
836.667	783.4147	16708.95	15832.55
836.8121	785.4862	16834.45	15964.15
836.9571	787.557	16694.45	15821.7
837.1021	789.6271	16192.4	15319.05
837.2472	791.6966	15557.25	14684.1
837.3922	793.7654	14911.85	14038.7
837.5373	795.8335	14471.1	13596.35
837.6823	797.901	14091.6	13220.35
837.8274	799.9678	13925.9	13048.3
837.9724	802.0339	13809.1	12939.75
838.1175	804.0993	13753.75	12869.05
838.2626	806.1641	13671.45	12795.55
838.4076	808.2282	13605.3	12730.25
838.5527	810.2916	13538.4	12660.3
838.6978	812.3544	13432.2	12558
838.8428	814.4164	13361.45	12486.55
838.9879	816.4778	13387.6	12510.9
839.133	818.5385	13371.1	12499.05
839.2781	820.5986	13523.7	12651.45
839.4232	822.658	13715.35	12839.95
839.5682	824.7166	14003.55	13130.2
839.7133	826.7747	14535.9	13664
839.8584	828.832	15017.65	14142.9
840.0035	830.8886	15419.65	14541.2
840.1486	832.9446	15602.45	14726.05
840.2937	834.9999	15493.1	14621.45
840.4388	837.0545	15244.75	14365.05
840.5839	839.1085	14903.35	14023.8
840.729	841.1618	14575.25	13695.4
840.8741	843.2143	14297.45	13422.65
841.0192	845.2662	14059.2	13184.35
841.1643	847.3175	13942.7	13066.95
841.3095	849.368	13785.7	12910.55
841.4546	851.4179	13674.15	12799.05
841.5997	853.467	13518.9	12643.25
841.7448	855.5155	13436.9	12561.55
841.8899	857.5633	13369.5	12494.35
842.0351	859.6105	13267.45	12393.4
842.1802	861.6569	13165.85	12289.6
842.3253	863.7027	13067.55	12189.6
842.4704	865.7478	13025.9	12150.45
842.6156	867.7922	12940.45	12066.4
842.7607	869.8359	12923.65	12044.65
842.9058	871.8789	12960.55	12083.55
843.0509	873.9212	13049.7	12137.7
843.1961	875.9629	13102.85	12226.1
843.3412	878.0039	13218.65	12340.9
843.4863	880.0441	13278.25	12402
843.6315	882.0837	13346.1	12467.65
843.7766	884.1226	13369.25	12491.5
843.9218	886.1609	13377.3	12502.65
844.0669	888.1984	13475.3	12597.7
844.212	890.2352	13570.75	12694.1
844.3572	892.2714	13608.05	12729.4
844.5023	894.3069	13545	12665.35
844.6475	896.3416	13360.6	12482.1
844.7926	898.3757	13223.1	12345.55
844.9377	900.4091	13141.9	12264.45
845.0829	902.4418	13091.4	12210.75
845.228	904.4739	13106.7	12229.85
845.3732	906.5052	13154.75	12275.35
845.5183	908.5358	13100.35	12223.1
845.6635	910.5658	12973.2	12093.4
845.8086	912.595	12756.4	11879.35
845.9538	914.6236	12521.65	11645.4
846.0989	916.6515	12382.25	11506.6
846.2441	918.6786	12242.05	11363.1
846.3892	920.7051	12271.65	11388.85
846.5344	922.7309	12279.75	11401.55
846.6795	924.756	12279.85	11400.05
846.8246	926.7804	12351	11470.25
846.9698	928.8041	12344.1	11463.15
847.1149	930.8272	12422.55	11543.8
847.2601	932.8495	12347.15	11467.15
847.4052	934.8711	12346.2	11466.9
847.5504	936.892	12247.05	11368.7
847.6955	938.9123	12225.5	11346.65
847.8407	940.9318	12220.6	11342.85
847.9858	942.9506	12212.3	11330.05
848.131	944.9688	12135.45	11256.5
848.2761	946.9862	12037.55	11156.6
848.4213	949.003	11872.5	10991.5
848.5664	951.019	11759.95	10878.1
848.7115	953.0344	11695.35	10811.3
848.8567	955.0491	11658.35	10779.4
849.0018	957.063	11720.15	10837.55
849.147	959.0763	11754.85	10874.35
849.2921	961.0888	11760.75	10880
849.4373	963.1007	11835	10954.05
849.5824	965.1119	11837.65	10955.9
849.7275	967.1223	11844.85	10966.05
849.8727	969.1321	11797.05	10914
850.0178	971.1412	11789.9	10910.55
850.1629	973.1495	11761.6	10879.65
850.3081	975.1572	11790.05	10876.4
850.4532	977.1641	11770.15	10887.1
850.5983	979.1704	11721.15	10838.45
850.7435	981.1759	11731.5	10848.75
850.8886	983.1808	11736.35	10853.45
851.0337	985.1849	11754.5	10863.55
851.1788	987.1884	11767.05	10884.1
851.324	989.1911	11848.2	10961.4
851.4691	991.1932	11949	11063.4
851.6142	993.1945	11963.15	11081.55
851.7593	995.1951	11933.65	11050.85
851.9045	997.1951	11892.95	11006.8
852.0496	999.1943	11821.45	10939
852.1947	1001.1928	11813.9	10930.15
852.3398	1003.1906	11856.6	10976.35
852.4849	1005.1877	11959.3	11077.4
852.63	1007.1841	12031.9	11150.95
852.7751	1009.1798	12038.45	11157
852.9202	1011.1748	11930.25	11047.6
853.0653	1013.1691	11780.1	10899.5
853.2104	1015.1627	11543	10661.15
853.3555	1017.1556	11304.25	10423.95
853.5006	1019.1477	11198.1	10313.65
853.6457	1021.1392	11025.45	10144.15
853.7908	1023.1299	11015.1	10134.1
853.9359	1025.12	10985.75	10102.35
854.081	1027.1093	11061.1	10179.8
854.2261	1029.0979	11133.85	10253.05
854.3712	1031.0859	11231.8	10351.8
854.5163	1033.0731	11272.6	10393.65
854.6613	1035.0596	11180.45	10298.25
854.8064	1037.0454	11082.5	10198.7
854.9515	1039.0304	10954.9	10071.65
855.0965	1041.0148	10834	9951.7
855.2416	1042.9985	10706.6	9823.75
855.3867	1044.9814	10625.95	9745.2
855.5317	1046.9636	10589.35	9706.2
855.6768	1048.9452	10560.4	9679.2
855.8219	1050.926	10620.3	9738.2
855.9669	1052.9061	10632.15	9750.55
856.112	1054.8855	10622.3	9740.8
856.257	1056.8642	10644.9	9762.5
856.4021	1058.8421	10704.1	9819.85
856.5471	1060.8194	10705.85	9823.8
856.6921	1062.7959	10762.8	9878.3
856.8372	1064.7717	10803.15	9918.4
856.9822	1066.7469	10885.7	10002.95
857.1272	1068.7213	10922.15	10037.15
857.2723	1070.695	11002.3	10119.6
857.4173	1072.6679	11002.7	10119.35
857.5623	1074.6402	11028.85	10146.15
857.7073	1076.6117	11004.3	10116.6
857.8523	1078.5826	10891.75	10011.6
857.9973	1080.5527	10761.6	9877.05
858.1423	1082.5221	10658.45	9777.7
858.2873	1084.4908	10655.1	9772.05
858.4323	1086.4587	10682.8	9799.9
858.5773	1088.426	10682.55	9797
858.7223	1090.3925	10677.75	9790.75
858.8673	1092.3584	10724.65	9841.4
859.0123	1094.3235	10703.2	9822.15
859.1573	1096.2879	10767.75	9884.9
859.3022	1098.2515	10870.5	9986.5
859.4472	1100.2145	11037.5	10157.4
859.5922	1102.1767	11203.75	10319.75
859.7371	1104.1382	11418.25	10536.35
859.8821	1106.099	11666.3	10779.45
860.027	1108.0591	11907.7	11025.95
860.172	1110.0185	12071.45	11185.55
860.3169	1111.9771	12129.45	11247.6
860.4619	1113.9351	12068.7	11186.3
860.6068	1115.8923	11936.1	11054.95
860.7517	1117.8488	11748.8	10864.95
860.8967	1119.8045	11533.6	10648.85
861.0416	1121.7596	11366.7	10482.9
861.1865	1123.7139	11244	10364.85
861.3314	1125.6675	11164	10281.4
861.4763	1127.6204	11217.5	10334.15
861.6212	1129.5726	11174.75	10289.95
861.7661	1131.524	11073.2	10191.3
861.911	1133.4748	10947.8	10063.2
862.0559	1135.4248	10756.1	9870.7
862.2008	1137.3741	10604.25	9721.95
862.3457	1139.3226	10491.25	9607.25
862.4905	1141.2705	10399.95	9517.35
862.6354	1143.2176	10294.7	9405.75
862.7803	1145.164	10241.1	9356.3
862.9251	1147.1097	10193.6	9312.1
863.07	1149.0546	10079.35	9194.75
863.2148	1150.9989	9972.6	9090.4
863.3597	1152.9424	9864.8	8980
863.5045	1154.8852	9767.3	8883.25
863.6493	1156.8272	9698.3	8815.3
863.7942	1158.7686	9721.55	8831.55
863.939	1160.7092	9723.15	8838.15
864.0838	1162.6491	9748.55	8862.1
864.2286	1164.5883	9835.1	8950.5
864.3734	1166.5267	9925.1	9039.4
864.5182	1168.4644	10117.45	9233.8
864.663	1170.4014	10292.1	9407.9
864.8078	1172.3377	10564.7	9683.8
864.9526	1174.2732	10851.75	9968.15
865.0974	1176.2081	11226.4	10344.25
865.2421	1178.1421	11734.75	10846.2
865.3869	1180.0755	12260	11375.65
865.5317	1182.0082	12648.1	11762.9
865.6764	1183.9401	12823.15	11938.7
865.8212	1185.8713	12741.75	11857.55
865.9659	1187.8017	12399.15	11513.9
866.1106	1189.7315	11997.85	11115.5
866.2554	1191.6605	11583.2	10673.55
866.4001	1193.5888	11248.95	10367.25
866.5448	1195.5163	11071.75	10188.6
866.6895	1197.4432	10935.7	10051.6
866.8342	1199.3693	10863.65	9978.65
866.9789	1201.2947	10833.5	9941.45
867.1236	1203.2193	10768.45	9884.85
867.2683	1205.1432	10775.55	9890.55
867.413	1207.0664	10724.1	9838.6
867.5576	1208.9889	10699.1	9813
867.7023	1210.9106	10683.6	9800
867.847	1212.8316	10685.45	9801.05
867.9916	1214.7519	10699.15	9807.65
868.1363	1216.6715	10740.65	9856.85
868.2809	1218.5903	10789.9	9906.6
868.4255	1220.5084	10883.05	9996.75
868.5701	1222.4257	11012.1	10129.95
868.7148	1224.3424	11046.95	10163.55
868.8594	1226.2583	11177	10290.1
869.004	1228.1735	11319.75	10434.8
869.1486	1230.0879	11434.2	10551.6
869.2932	1232.0016	11638.85	10755.4
869.4377	1233.9146	11746.7	10862.55
869.5823	1235.8269	11766.1	10882.75
869.7269	1237.7384	11738.3	10855
869.8715	1239.6492	11592	10708.3
870.016	1241.5592	11556.3	10671.05
870.1606	1243.4686	11552.65	10667.9
870.3051	1245.3772	11719.55	10834.75
870.4496	1247.285	11930.95	11047.55
870.5941	1249.1922	12081.15	11197.45
870.7387	1251.0986	12251.3	11367.8
870.8832	1253.0042	12356.45	11470.9
871.0277	1254.9092	12467.7	11585.3
871.1722	1256.8134	12533.45	11652.05
871.3167	1258.7169	12682.45	11798
871.4611	1260.6196	12818.85	11936.45
871.6056	1262.5216	13080.9	12196.2
871.7501	1264.4229	13260.75	12376.2
871.8945	1266.3234	13467.3	12582.3
872.039	1268.2232	13621.25	12736.45
872.1834	1270.1223	13697.6	12811.45
872.3278	1272.0207	13722.8	12838.9
872.4723	1273.9183	13694.1	12803.95
872.6167	1275.8151	13647.1	12764.2
872.7611	1277.7113	13628.3	12741.85
872.9055	1279.6067	13680.35	12796.1
873.0499	1281.5014	13873.7	12987.05
873.1943	1283.3953	14255.55	13369.15
873.3386	1285.2885	14787.1	13904.2
873.483	1287.181	15304	14419.85
873.6274	1289.0727	15821.45	14937.5
873.7717	1290.9637	16185.85	15301.75
873.9161	1292.854	16412.05	15530.45
874.0604	1294.7435	16423.2	15536.25
874.2047	1296.6323	16321.75	15435.85
874.349	1298.5204	16154.45	15266.4
874.4933	1300.4077	15940.8	15057.65
874.6376	1302.2943	15656.4	14770.25
874.7819	1304.1802	15376.9	14494.15
874.9262	1306.0653	14880.9	13992.65
875.0705	1307.9497	14371.95	13488.6
875.2147	1309.8333	13944.55	13059.85
875.359	1311.7162	13626.25	12742.5
875.5032	1313.5984	13413.2	12525.2
875.6475	1315.4798	13281.1	12387.35
875.7917	1317.3605	13196.6	12297
875.9359	1319.2405	13070.4	12181.5
876.0801	1321.1197	12846.15	11960.85
876.2243	1322.9982	12542.6	11651.9
876.3685	1324.876	12227.4	11341.7
876.5127	1326.753	11955.7	11071
876.6569	1328.6293	11711.2	10823.7
876.801	1330.5048	11536.75	10649.6
876.9452	1332.3796	11379	10494.65
877.0893	1334.2537	11288.25	10377.2
877.2335	1336.127	11187.35	10301.75
877.3776	1337.9996	11110.35	10224.5
877.5217	1339.8714	11108.95	10221.75
877.6658	1341.7426	11103.75	10173.45
877.8099	1343.6129	11123.3	10237.65
877.954	1345.4826	11114.2	10230.45
878.0981	1347.3515	11119.5	10231.9
878.2422	1349.2196	11093.15	10206.25
878.3862	1351.087	11118.65	10232.25
878.5303	1352.9537	11160	10272.6
878.6743	1354.8197	11249	10363.65
878.8184	1356.6849	11417.75	10534.25
878.9624	1358.5493	11582.45	10696.8
879.1064	1360.4131	11783.4	10897.4
879.2504	1362.276	11914.8	11029.45
879.3944	1364.1383	11963.65	11076.25
879.5384	1365.9998	11793.7	10900.85
879.6823	1367.8606	11470	10583.2
879.8263	1369.7206	11090.1	10204.8
879.9702	1371.5799	10766.55	9879.2
880.1142	1373.4384	10464.2	9580.4
880.2581	1375.2962	10225.9	9338.4
880.402	1377.1533	9891.3	9007.35
880.5459	1379.0096	9540	8654.25
880.6898	1380.8652	9168.15	8283.95
880.8337	1382.7201	8867.05	7983.25
880.9776	1384.5742	8613.55	7726.85
881.1215	1386.4275	8412.25	7523.75
881.2653	1388.2802	8258.6	7374.25
881.4092	1390.132	8131.75	7243.95
881.553	1391.9832	8062.9	7175.25
881.6968	1393.8336	7964.4	7080.95
881.8406	1395.6832	7926.05	7040.5
881.9844	1397.5322	7866.95	6981.65
882.1282	1399.3803	7829.8	6940.4
882.272	1401.2278	7813.25	6928.45
882.4158	1403.0745	7792.3	6908.4
882.5595	1404.9204	7749.4	6865.3
882.7033	1406.7656	7780.9	6897.25
882.847	1408.6101	7779.05	6891.8
882.9908	1410.4538	7785.5	6899.6
883.1345	1412.2968	7832.55	6946.65
883.2782	1414.139	7896.75	7011.7
883.4219	1415.9805	7960	7075.1
883.5656	1417.8213	8068.4	7176.25
883.7092	1419.6613	8138.85	7254.9
883.8529	1421.5006	8290	7405.45
883.9965	1423.3391	8482.3	7596.45
884.1402	1425.1769	8785.25	7898.55
884.2838	1427.0139	9191.2	8307.9
884.4274	1428.8502	9722.35	8835.25
884.571	1430.6858	10265.2	9380.1
884.7146	1432.5206	10672.8	9785.45
884.8582	1434.3547	10926.6	10041.1
885.0018	1436.188	10954.2	10071.9
885.1453	1438.0206	10868.05	9981.45
885.2889	1439.8524	10718.1	9832.75
885.4324	1441.6835	10599.25	9712.15
885.5759	1443.5139	10509.35	9622.15
885.7194	1445.3435	10415.55	9529.05
885.8629	1447.1724	10355.15	9470.75
886.0064	1449.0005	10307.55	9422.6
886.1499	1450.8279	10265.1	9378.45
886.2933	1452.6545	10236.65	9352.75
886.4368	1454.4804	10260	9374.7
886.5802	1456.3056	10297.65	9405.3
886.7237	1458.13	10232.1	9347.55
886.8671	1459.9536	10056.3	9170.3
887.0105	1461.7766	9784.65	8900.45
887.1539	1463.5987	9471.45	8584.85
887.2972	1465.4202	9125.55	8243.1
887.4406	1467.2409	8786.5	7901.4
887.584	1469.0608	8514.5	7630.7
887.7273	1470.88	8221.1	7333.6
887.8706	1472.6984	8001.7	7115.7
888.0139	1474.5161	7783.1	6896.1
888.1572	1476.3331	7638.05	6753.75
888.3005	1478.1493	7503.05	6618.1
888.4438	1479.9648	7414.55	6531.05
888.5871	1481.7795	7339.75	6453.2
888.7303	1483.5935	7265.8	6382.3
888.8736	1485.4067	7208.45	6322
889.0168	1487.2192	7178.85	6292.25
889.16	1489.031	7136.85	6250.1
889.3032	1490.842	7107.9	6223.6
889.4464	1492.6522	7035.25	6153.15
889.5896	1494.4618	7004.35	6117.65
889.7327	1496.2705	6961.75	6077.35
889.8759	1498.0785	6941.45	6054.4
890.019	1499.8858	6876.7	5990
890.1622	1501.6924	6847.7	5963
890.3053	1503.4981	6825.6	5940.65
890.4484	1505.3032	6768.75	5884
890.5914	1507.1075	6732.1	5845.9
890.7345	1508.911	6686.45	5801.25
890.8776	1510.7138	6659.2	5773.6
891.0206	1512.5159	6605.5	5720.2
891.1637	1514.3172	6565.1	5679.05
891.3067	1516.1178	6512.75	5629.4
891.4497	1517.9176	6492.6	5606.25
891.5927	1519.7166	6459.95	5574.45
891.7357	1521.515	6431.55	5541.9
891.8786	1523.3126	6397.15	5512.85
892.0216	1525.1094	6365.75	5477.1
892.1645	1526.9055	6341.1	5456.5
892.3074	1528.7008	6328.4	5443.35
892.4503	1530.4954	6272.95	5386.65
892.5932	1532.2893	6275.75	5392.35
892.7361	1534.0824	6262.05	5374.15
892.879	1535.8747	6245.35	5361.5
893.0218	1537.6663	6230.55	5344.45
893.1647	1539.4572	6231.85	5346.2
893.3075	1541.2473	6215.65	5330.55
893.4503	1543.0367	6239.75	5356.15
893.5931	1544.8253	6241.7	5352.2
893.7359	1546.6132	6270.25	5382.35
893.8787	1548.4003	6302.05	5408
894.0214	1550.1867	6345.35	5452.85
894.1642	1551.9723	6389.8	5502.7
894.3069	1553.7572	6473.85	5587.85
894.4496	1555.5414	6564.95	5680.8
894.5923	1557.3247	6704.6	5819.4
894.735	1559.1074	6859.7	5974.65
894.8777	1560.8893	7044.6	6162.3
895.0204	1562.6705	7207.9	6323.55
895.163	1564.4509	7361.4	6476.5
895.3056	1566.2305	7432.05	6549.85
895.4482	1568.0094	7497.15	6612.1
895.5908	1569.7876	7477.85	6593.45
895.7334	1571.565	7489.5	6604.3
895.876	1573.3417	7471	6587.85
896.0186	1575.1176	7460.85	6575.8
896.1611	1576.8928	7446.9	6561.35
896.3036	1578.6672	7470.45	6588.6
896.4461	1580.4409	7481.35	6598.2
896.5886	1582.2138	7499.85	6613.6
896.7311	1583.986	7548.95	6664.65
896.8736	1585.7575	7608.75	6725.95
897.0161	1587.5282	7708.45	6826.3
897.1585	1589.2981	7817.85	6933.4
897.3009	1591.0673	7915.85	7032
897.4433	1592.8358	8022.7	7140.8
897.5857	1594.6035	8115.55	7228.35
897.7281	1596.3704	8203.45	7319.3
897.8705	1598.1366	8283.7	7398.65
898.0128	1599.9021	8357.5	7471.75
898.1551	1601.6668	8443.8	7556.85
898.2975	1603.4308	8579.3	7693.05
898.4398	1605.194	8727.7	7839
898.5821	1606.9564	8908.45	8025.55
898.7243	1608.7182	9178.6	8291.55
898.8666	1610.4791	9486.25	8603.55
899.0088	1612.2394	9795.9	8911.3
899.1511	1613.9988	10120.2	9236.7
899.2933	1615.7576	10418.4	9534.7
899.4355	1617.5156	10676.6	9785.55
899.5776	1619.2728	10784	9900.2
899.7198	1621.0293	10727	9843.3
899.862	1622.785	10538.25	9650.8
900.0041	1624.54	10208.9	9323.05
900.1462	1626.2942	9865.15	8979.65
900.2883	1628.0477	9448.5	8559.1
900.4304	1629.8005	9064.2	8177.4
900.5725	1631.5525	8699.25	7814.5
900.7145	1633.3037	8395.95	7510.05
900.8566	1635.0542	8151.35	7268.5
900.9986	1636.804	7972.6	7088.35
901.1406	1638.553	7872.95	6936.3
901.2826	1640.3013	7753.2	6870.35
901.4245	1642.0488	7675.25	6791.4
901.5665	1643.7955	7709.85	6827.55
901.7085	1645.5416	7732.35	6848.6
901.8504	1647.2868	7815.7	6934
901.9923	1649.0313	7948.8	7066.25
902.1342	1650.7751	8066.75	7180.7
902.2761	1652.5181	8205.9	7321.55
902.4179	1654.2604	8398.15	7514.35
902.5598	1656.0019	8605.65	7722.9
902.7016	1657.7427	8854.3	7971.35
902.8434	1659.4828	9105.35	8222.45
902.9852	1661.222	9296.85	8411.35
903.127	1662.9606	9309.35	8426.9
903.2687	1664.6984	9107.05	8223.75
903.4105	1666.4354	8693.25	7808.35
903.5522	1668.1717	8154.2	7272.4
903.6939	1669.9072	7596.6	6713.35
903.8356	1671.642	7107.5	6222.05
903.9773	1673.3761	6705.05	5824.3
904.119	1675.1094	6366.5	5481.65
904.2606	1676.8419	6116.3	5233.9
904.4022	1678.5737	5888.9	5003.45
904.5439	1680.3048	5726.6	4842.7
904.6855	1682.0351	5604.7	4722.95
904.827	1683.7646	5491.8	4604.65
904.9686	1685.4934	5385.95	4505.15
905.1101	1687.2215	5324.3	4439.45
905.2517	1688.9488	5255.85	4372.35
905.3932	1690.6754	5190.3	4307.2
905.5347	1692.4012	5143.25	4261.5
905.6761	1694.1263	5088.65	4206.5
905.8176	1695.8506	5058.15	4174.45
905.9591	1697.5742	5013.1	4131.25
906.1005	1699.297	4957.65	4074.95
906.2419	1701.0191	4917.95	4035
906.3833	1702.7404	4883.85	4000.35
906.5246	1704.461	4839.65	3955.75
906.666	1706.1808	4816.1	3928.7
906.8073	1707.8999	4788.35	3906.4
906.9487	1709.6182	4774.8	3892.5
907.09	1711.3358	4725.9	3842.85
907.2313	1713.0527	4708.55	3829.3
907.3725	1714.7688	4696.4	3808.5
907.5138	1716.4841	4668.25	3784.7
907.655	1718.1987	4639.05	3751.25
907.7962	1719.9126	4627.5	3747
907.9374	1721.6257	4599.65	3713.35
908.0786	1723.338	4596.3	3711.85
908.2198	1725.0496	4575.75	3689.15
908.3609	1726.7605	4558.65	3676.85
908.502	1728.4706	4556.2	3672.6
908.6431	1730.18	4528.3	3642.7
908.7842	1731.8886	4522.1	3639.25
908.9253	1733.5964	4504.15	3616.6
909.0664	1735.3036	4488.8	3603.35
909.2074	1737.0099	4460.9	3579.2
909.3484	1738.7156	4434.6	3553.35
909.4894	1740.4204	4413.4	3530.75
909.6304	1742.1246	4407.9	3523.8
909.7714	1743.8279	4400.35	3518
909.9123	1745.5306	4361.8	3479.1
910.0532	1747.2325	4333.8	3450.45
910.1941	1748.9336	4317.35	3434.9
910.335	1750.634	4294.85	3410.85
910.4759	1752.3336	4288.05	3405.6
910.6168	1754.0325	4280.7	3400.5
910.7576	1755.7307	4265.35	3381.7
910.8984	1757.4281	4262.85	3381.2
911.0392	1759.1247	4264.9	3373.7
911.18	1760.8206	4261.5	3375.05
911.3208	1762.5158	4239.15	3351.25
911.4615	1764.2102	4205.7	3324.35
911.6022	1765.9039	4210.25	3328.3
911.7429	1767.5968	4208.8	3325.2
911.8836	1769.289	4191.9	3310.55
912.0243	1770.9804	4179.6	3296.7
912.1649	1772.6711	4176.45	3295.9
912.3056	1774.361	4170.65	3287.05
912.4462	1776.0502	4151.15	3268.75
912.5868	1777.7386	4144.8	3258.3
912.7274	1779.4263	4131.4	3249
912.8679	1781.1132	4129.25	3248.6
913.0084	1782.7994	4116.55	3232.45
913.149	1784.4849	4103.7	3221.15
913.2895	1786.1696	4103.8	3201.1
913.4299	1787.8535	4090.15	3207.1
913.5704	1789.5367	4077.65	3195.05
913.7108	1791.2192	4075.65	3193.5
913.8513	1792.9009	4084.25	3188.35
913.9917	1794.5818	4059.85	3176.6
914.132	1796.2621	4041	3160.85
914.2724	1797.9415	4042.7	3159.3
914.4128	1799.6202	4027	3144.75
914.5531	1801.2982	4013.95	3132.15
914.6934	1802.9755	4005.2	3123.2
914.8337	1804.6519	4006.15	3123.9
914.9739	1806.3277	3995.75	3113.85
915.1142	1808.0027	3987.1	3104.55
915.2544	1809.6769	3977.55	3095.3
915.3946	1811.3504	3968.15	3084.2
915.5348	1813.0231	3964.9	3082.35
915.675	1814.6951	3950.65	3068.9
915.8151	1816.3664	3949.45	3064.9
915.9553	1818.0369	3941.5	3057.25
916.0954	1819.7067	3940.2	3058.85
916.2355	1821.3757	3928.5	3044.95
916.3755	1823.044	3904.55	3024.15
916.5156	1824.7115	3927.8	3045.3
916.6556	1826.3783	3894.8	3013.5
916.7956	1828.0443	3901.15	3021.85
916.9356	1829.7096	3878	2994
917.0756	1831.3741	3875.95	2992.05
917.2155	1833.0379	3886.85	3002.4
917.3555	1834.701	3873.3	2989.1
917.4954	1836.3633	3867.3	2985.75
917.6353	1838.0248	3851.05	2967.05
917.7751	1839.6856	3856.25	2973.5
917.915	1841.3457	3844.4	2963.95
918.0548	1843.005	3845.4	2962.65
918.1946	1844.6636	3841.05	2960.1
918.3344	1846.3214	3835.25	2951.5
918.4742	1847.9785	3822	2939.8
918.6139	1849.6349	3813.55	2931.2
918.7537	1851.2904	3817.75	2925.6
918.8934	1852.9453	3794.45	2913.5
919.0331	1854.5994	3799.05	2914.95
919.1727	1856.2528	3810.5	2922.45
919.3124	1857.9054	3777.15	2896.05
919.452	1859.5572	3780.6	2899.5
919.5916	1861.2083	3777.5	2893.8
919.7312	1862.8587	3780.15	2899.15
919.8708	1864.5084	3750.15	2867.15
920.0103	1866.1572	3741.1	2858.95
920.1498	1867.8054	3740.95	2860.95
920.2893	1869.4528	3717.65	2835.1
920.4288	1871.0994	3731.45	2850.1
920.5683	1872.7453	3710	2825
920.7077	1874.3905	3716.7	2818.6
920.8471	1876.0349	3710.55	2827.65
920.9865	1877.6786	3706	2821.1
921.1259	1879.3215	3706.6	2825.15
921.2653	1880.9637	3696.8	2813.15
921.4046	1882.6051	3680.1	2796.7
921.5439	1884.2458	3662.55	2779.1
921.6832	1885.8858	3661.4	2777.75
921.8225	1887.525	3658.35	2776.05
921.9617	1889.1634	3642.45	2760.3
922.101	1890.8011	3642.2	2759.75
922.2402	1892.4381	3632.25	2750.1
922.3794	1894.0743	3631.25	2751.25
922.5185	1895.7098	3633.35	2752.6
922.6577	1897.3446	3624.25	2740
922.7968	1898.9786	3603.5	2716.6
922.9359	1900.6118	3605.65	2724.4
923.075	1902.2443	3600	2712.2
923.214	1903.8761	3586.15	2704.7
923.3531	1905.5071	3564.75	2682.15
923.4921	1907.1374	3548.5	2667
923.6311	1908.7669	3548.3	2666.2
923.77	1910.3957	3550.15	2668.5
923.909	1912.0237	3537.05	2655.2
924.0479	1913.651	3531.2	2649
924.1868	1915.2776	3522.05	2641.15
924.3257	1916.9034	3513.1	2631.9
924.4646	1918.5285	3510.7	2628.4
924.6034	1920.1528	3493.7	2610.75
924.7422	1921.7764	3475.9	2594.75
924.881	1923.3992	3489.55	2608.65
925.0198	1925.0213	3469.05	2586.1
925.1586	1926.6427	3450.9	2570
925.2973	1928.2633	3535.9	2546
925.436	1929.8832	3458.95	2575.4
925.5747	1931.5023	3428.75	2546.7
925.7134	1933.1207	3419.45	2538
925.852	1934.7383	3410.7	2527.35
925.9906	1936.3552	3406.8	2525.8
926.1292	1937.9714	3399.2	2516.7
926.2678	1939.5868	3399.5	2515.75
926.4064	1941.2015	3361.6	2477.1
926.5449	1942.8154	3366.6	2484.5
926.6834	1944.4286	3356.75	2473.65
926.8219	1946.041	3377.2	2470.95
926.9604	1947.6528	3351.45	2463.95
927.0988	1949.2637	3342.8	2463.8
927.2372	1950.8739	3328.4	2445.15
927.3756	1952.4834	3336.25	2453.3
927.514	1954.0921	3320.6	2440.15
927.6523	1955.7001	3304.6	2420.2
927.7907	1957.3074	3305.85	2424.7
927.929	1958.9139	3285.25	2403.55
928.0673	1960.5197	3282.35	2397.4
928.2055	1962.1247	3269.15	2386.45
928.3438	1963.729	3261.1	2380.35
928.482	1965.3325	3278.9	2370.7
928.6202	1966.9353	3243.2	2361.4
928.7584	1968.5374	3246.35	2363.6
928.8965	1970.1387	3231.75	2349.3
929.0346	1971.7393	3219.25	2333.7
929.1727	1973.3392	3221.4	2341.15
929.3108	1974.9383	3198.4	2314.35
929.4489	1976.5366	3196.9	2313.5
929.5869	1978.1342	3201.85	2318.45
929.7249	1979.7311	3178.7	2296.15
929.8629	1981.3273	3181.9	2299.35
930.0009	1982.9227	3169.2	2285.45
930.1388	1984.5173	3162.8	2280.75
930.2767	1986.1112	3159.75	2278
930.4146	1987.7044	3144.35	2263.55
930.5525	1989.2968	3143.5	2258.3
930.6904	1990.8885	3144.95	2258.65
930.8282	1992.4795	3127.9	2244.6
930.966	1994.0697	3119.65	2236.35
931.1038	1995.6592	3117.75	2236.6
931.2415	1997.2479	3119.75	2236.9
931.3793	1998.8359	3112.35	2230.8
931.517	2000.4232	3098.75	2216.3
931.6547	2002.0097	3098.15	2216.1
931.7923	2003.5955	3082.5	2198.05
931.93	2005.1805	3076.4	2192.55
932.0676	2006.7648	3070	2188.65
932.2052	2008.3484	3065.8	2183.75
932.3427	2009.9312	3070.2	2185.75
932.4803	2011.5133	3061.4	2179.7
932.6178	2013.0946	3049.85	2167.7
932.7553	2014.6752	3055.15	2175.75
932.8928	2016.2551	3040.95	2157.5
933.0302	2017.8342	3017.8	2137.2
933.1676	2019.4126	3016.9	2136.35
933.305	2020.9902	3000.3	2119.45
933.4424	2022.5672	3018.4	2134.9
933.5798	2024.1433	3007.55	2116.9
933.7171	2025.7188	3004.4	2123.9
933.8544	2027.2935	2989.85	2105.85
933.9917	2028.8674	2984	2103.85
934.129	2030.4406	2990.6	2108.75
934.2662	2032.0131	2964.9	2083.25
934.4034	2033.5849	2976.45	2088.4
934.5406	2035.1559	2968.2	2086.35
934.6778	2036.7261	2964	2081.95
934.8149	2038.2957	2953.25	2070.55
934.952	2039.8645	2943.9	2061.2
935.0891	2041.4325	2940.65	2057.3
935.2262	2042.9998	2942.25	2057.85
935.3632	2044.5664	2933.25	2050.2
935.5002	2046.1323	2909.9	2028.95
935.6372	2047.6974	2918.9	2037.45
935.7742	2049.2617	2915.1	2031.65
935.9111	2050.8254	2948.35	2032.7
936.048	2052.3883	2911.1	2028.05
936.1849	2053.9504	2898.4	2017.7
936.3218	2055.5118	2892.45	2008.8
936.4586	2057.0725	2895	2008.25
936.5955	2058.6325	2892.45	2009.75
936.7323	2060.1917	2880.45	1998.55
936.869	2061.7502	2874.8	1990.6
937.0058	2063.3079	2858.7	1976.75
937.1425	2064.8649	2857.2	1972.2
937.2792	2066.4212	2857.9	1974.4
937.4159	2067.9767	2851.05	1969.15
937.5525	2069.5315	2833.85	1951.25
937.6891	2071.0856	2811.45	1929.4
937.8257	2072.6389	2826.45	1943.45
937.9623	2074.1915	2817.85	1936.1
938.0989	2075.7433	2803.4	1920.15
938.2354	2077.2945	2795.6	1914.2
938.3719	2078.8448	2792.5	1909.75
938.5084	2080.3945	2787.5	1905.65
938.6448	2081.9434	2789.9	1907.3
938.7812	2083.4916	2781.9	1897.55
938.9176	2085.039	2762.55	1879.4
939.054	2086.5857	2784.8	1901.2
939.1903	2088.1317	2760	1878.6
939.3267	2089.677	2752.35	1869
939.463	2091.2215	2755.25	1872.8
939.5992	2092.7652	2759.6	1876.45
939.7355	2094.3083	2761	1876.6
939.8717	2095.8506	2736.95	1856.1
940.0079	2097.3921	2742.9	1860.45
940.1441	2098.933	2742.75	1860.45
940.2802	2100.4731	2733.25	1852.3
940.4163	2102.0124	2746.7	1844.65
940.5524	2103.5511	2727.35	1847.7
940.6885	2105.089	2728.05	1846.25
940.8245	2106.6261	2729.45	1846.95
940.9606	2108.1626	2715.15	1831.6
941.0965	2109.6983	2741.05	1829.25
941.2325	2111.2332	2707.7	1822.4
941.3684	2112.7675	2689.25	1807.05
941.5044	2114.301	2682.6	1797.45
941.6403	2115.8337	2697.45	1815
941.7761	2117.3657	2697.75	1815.35
941.912	2118.897	2684.1	1801.5
942.0478	2120.4276	2686	1799.8
942.1835	2121.9575	2669.4	1785.35
942.3193	2123.4866	2677.05	1781.2
942.455	2125.0149	2669.6	1783.8
942.5907	2126.5426	2643.8	1762.25
942.7264	2128.0695	2644.35	1757.4
942.8621	2129.5956	2647.95	1768.15
942.9977	2131.1211	2643.75	1756.5
943.1333	2132.6458	2624.6	1742.25
943.2689	2134.1698	2641.65	1761.35
943.4044	2135.693	2627.3	1743.85
943.54	2137.2155	2636.1	1752.15
943.6755	2138.7373	2627.55	1745.55
943.8109	2140.2584	2611.6	1730.35
943.9464	2141.7787	2612.55	1725.6
944.0818	2143.2983	2608.35	1726.85
944.2172	2144.8171	2586.5	1703.55
944.3526	2146.3353	2597.25	1712.2
944.4879	2147.8527	2572.85	1691.45
944.6232	2149.3693	2577.5	1695.65
944.7585	2150.8853	2563.65	1680.9
944.8938	2152.4005	2561.9	1678.65
945.029	2153.9149	2569.25	1687.6
945.1642	2155.4287	2567.95	1687.3
945.2994	2156.9417	2563.55	1679.45
945.4346	2158.454	2552.65	1666.95
945.5697	2159.9655	2551	1669.1
945.7048	2161.4764	2538.45	1654.75
945.8399	2162.9865	2536.6	1652.35
945.9749	2164.4958	2536.35	1652.5
946.1099	2166.0045	2519.85	1633.9
946.2449	2167.5124	2521.55	1639.85
946.3799	2169.0195	2519.8	1636.15
946.5148	2170.526	2523.15	1640.55
946.6498	2172.0317	2504.8	1621.5
946.7846	2173.5367	2512.1	1628.9
946.9195	2175.0409	2506.25	1624.9
947.0543	2176.5445	2510.45	1629.65
947.1891	2178.0473	2495.15	1612.35
947.3239	2179.5494	2482.7	1598.15
947.4587	2181.0507	2495.35	1612.7
947.5934	2182.5513	2482.65	1599.8
947.7281	2184.0512	2486.95	1603.35
947.8628	2185.5504	2477.7	1593.95
947.9974	2187.0488	2461.25	1579.3
948.132	2188.5465	2454.35	1573.35
948.2666	2190.0435	2462.95	1582.65
948.4012	2191.5397	2454.05	1574.45
948.5357	2193.0353	2458.95	1577
948.6702	2194.5301	2449.75	1568.25
948.8047	2196.0241	2435.95	1552.25
948.9392	2197.5175	2434.2	1553.05
949.0736	2199.0101	2440.15	1554.05
949.208	2200.502	2424.15	1543.4
949.3424	2201.9931	2420.5	1538.95
949.4767	2203.4835	2411	1527.7
949.611	2204.9733	2415.25	1527.3
949.7453	2206.4622	2415.55	1533.9
949.8796	2207.9505	2406	1522.95
950.0138	2209.438	2396.7	1513.1
950.148	2210.9248	2386.55	1503.1
950.2822	2212.4109	2390.05	1508.9
950.4164	2213.8962	2380.8	1496.05
950.5505	2215.3809	2369.2	1485.05
950.6846	2216.8648	2362.95	1481
950.8186	2218.3479	2368.2	1481.4
950.9527	2219.8304	2366.4	1481.3
951.0867	2221.3121	2358.8	1474.75
951.2207	2222.7931	2342.95	1460.6
951.3546	2224.2733	2349.25	1465.8
951.4886	2225.7529	2336.05	1453.55
951.6225	2227.2317	2333	1447.2
951.7563	2228.7098	2336.6	1454.85
951.8902	2230.1872	2321.95	1439.25
952.024	2231.6638	2318.85	1435.4
952.1578	2233.1397	2316.05	1428.05
952.2916	2234.6149	2309.5	1426.45
952.4253	2236.0894	2311	1428.85
952.559	2237.5632	2319.65	1428.1
952.6927	2239.0362	2300.15	1416.45
952.8263	2240.5085	2302.1	1416.65
952.9599	2241.9801	2277.7	1396.05
953.0935	2243.4509	2280.35	1398.55
953.2271	2244.921	2278.55	1396.95
953.3606	2246.3904	2274.35	1388.75
953.4941	2247.8591	2270.1	1387.9
953.6276	2249.3271	2268.85	1388.95
953.7611	2250.7943	2260	1377.1
953.8945	2252.2608	2252.05	1370.5
954.0279	2253.7266	2250.2	1367
954.1612	2255.1917	2242.6	1357.25
954.2946	2256.656	2240.75	1355.95
954.4279	2258.1197	2235.6	1354.25
954.5612	2259.5826	2235.75	1352.95
954.6944	2261.0447	2222.15	1338.9
954.8276	2262.5062	2227.75	1344.25
954.9608	2263.9669	2227.4	1343.05
955.094	2265.4269	2227.15	1347.3
955.2271	2266.8862	2224.55	1341.3
955.3602	2268.3448	2216.25	1333.45
955.4933	2269.8026	2215.5	1333
955.6264	2271.2598	2204.35	1321.3
955.7594	2272.7162	2210.05	1329.3
955.8924	2274.1719	2204.35	1322.85
956.0253	2275.6268	2206.3	1326.25
956.1583	2277.0811	2189.4	1305.4
956.2912	2278.5346	2189.45	1308.05
956.4241	2279.9874	2176.35	1293.2
956.5569	2281.4395	2184.3	1302.55
956.6897	2282.8908	2179.25	1290.9
956.8225	2284.3414	2180.95	1295.6
956.9553	2285.7914	2182.35	1299.7
957.088	2287.2406	2173	1289.55
957.2207	2288.689	2172.85	1289.5
957.3534	2290.1368	2169.45	1287.55
957.486	2291.5838	2160.85	1277.5
957.6186	2293.0302	2166.15	1283.85
957.7512	2294.4758	2151.2	1270.25
957.8838	2295.9206	2152.2	1267.45
958.0163	2297.3648	2145.7	1266.15
958.1488	2298.8082	2144.75	1260.05
958.2813	2300.251	2138.95	1256.7
958.4137	2301.693	2140.2	1257.3
958.5461	2303.1343	2140.4	1258.35
958.6785	2304.5748	2140.5	1259.25
958.8108	2306.0147	2127.2	1243.85
958.9432	2307.4538	2127.75	1243.3
959.0754	2308.8922	2115.4	1233.4
959.2077	2310.3299	2117.35	1235.1
959.3399	2311.7669	2108.8	1226.6
959.4721	2313.2031	2100.55	1217.45
959.6043	2314.6387	2098.1	1216.05
959.7365	2316.0735	2106.35	1224.7
959.8686	2317.5076	2099.15	1215.6
960.0006	2318.941	2097.4	1215.9
960.1327	2320.3737	2082.75	1201.2
960.2647	2321.8056	2087.7	1204.3
960.3967	2323.2369	2087.6	1206.6
960.5287	2324.6674	2086.7	1200.45
960.6606	2326.0972	2078.2	1196.55
960.7925	2327.5263	2070.5	1188.85
960.9244	2328.9547	2064.95	1182.75
961.0562	2330.3823	2063.4	1182.45
961.1881	2331.8092	2068.3	1182.25
961.3198	2333.2355	2051.65	1170.35
961.4516	2334.661	2055.9	1172.8
961.5833	2336.0858	2059.25	1175.55
961.715	2337.5098	2052.2	1168.8
961.8467	2338.9332	2046.1	1161.6
961.9783	2340.3558	2042.3	1158.05
962.1099	2341.7778	2046.2	1163.1
962.2415	2343.199	2041.15	1154.6
962.373	2344.6195	2037.55	1155.55
962.5045	2346.0393	2038.5	1157.35
962.636	2347.4583	2031.25	1147.4
962.7675	2348.8767	2029.55	1146.55
962.8989	2350.2943	2032.2	1148.75
963.0303	2351.7113	2023.35	1139.2
963.1617	2353.1275	2016.55	1137.45
963.293	2354.543	2038	1134.9
963.4243	2355.9578	2019.6	1136.15
963.5556	2357.3718	2007.95	1126.45
963.6868	2358.7852	2014.2	1128.4
963.818	2360.1978	2012	1129.05
963.9492	2361.6098	2002.65	1120.9
964.0803	2363.021	2011.65	1124.25
964.2114	2364.4315	2000.2	1116.55
964.3425	2365.8413	1996.1	1112.1
964.4736	2367.2504	2001.15	1120.35
964.6046	2368.6587	1985	1103.55
964.7356	2370.0664	1977.75	1096.1
964.8666	2371.4733	1970.8	1088.5
964.9975	2372.8795	1979.05	1098.35
965.1284	2374.285	1971	1087.5
965.2593	2375.6899	1965.95	1085.9
965.3901	2377.0939	1964.6	1081.9
965.5209	2378.4973	1961.3	1081.05
965.6517	2379.9	1968.55	1086.7
965.7825	2381.3019	1965.7	1083.4
965.9132	2382.7032	1955.1	1074.95
966.0439	2384.1037	1956.5	1074.85
966.1745	2385.5035	1952.55	1069.8
966.3051	2386.9027	1940.7	1060.75
966.4357	2388.3011	1954.9	1068.45
966.5663	2389.6987	1940.3	1058.7
966.6968	2391.0957	1933.3	1052.6
966.8273	2392.492	1927.2	1046.55
966.9578	2393.8876	1923.1	1042.05
967.0882	2395.2824	1919.95	1037.6
967.2186	2396.6765	1914.4	1033.95
967.349	2398.07	1910.55	1028.9
967.4793	2399.4627	1914.5	1031.15
967.6097	2400.8547	1915.9	1034.45
967.7399	2402.246	1905.8	1016.65
967.8702	2403.6366	1893.95	1011.4
968.0004	2405.0265	1889.7	1008.55
968.1306	2406.4156	1901.2	1013.45
968.2607	2407.8041	1890.95	1007.7
968.3909	2409.1918	1891	1008.8
968.521	2410.5789	1883.05	1001.35
968.651	2411.9652	1878.1	993.05
968.781	2413.3508	1871.85	989.25
968.911	2414.7358	1874.15	991.4
969.041	2416.12	1867.9	985.45
969.1709	2417.5035	1871.7	988.15
969.3008	2418.8863	1861.35	977.55
969.4307	2420.2684	1864.85	982.5
969.5606	2421.6497	1863.75	980.45
969.6904	2423.0304	1859.85	979.45
969.8201	2424.4104	1844.05	961.9
969.9499	2425.7896	1861.8	973.75
970.0796	2427.1682	1857.2	975.1
970.2093	2428.546	1848.1	965.05
970.3389	2429.9232	1847.25	963.85
970.4685	2431.2996	1836.3	955.7
970.5981	2432.6753	1838	956.55
970.7277	2434.0503	1837.5	955.75
970.8572	2435.4246	1829.25	948.3
970.9867	2436.7982	1834.85	952.25
971.1161	2438.1711	1832.9	953.4
971.2456	2439.5433	1825.75	942.5
971.375	2440.9148	1819.1	931.3
971.5043	2442.2856	1814.85	934.25
971.6336	2443.6557	1812.85	929.85
971.7629	2445.025	1812.55	930.65
971.8922	2446.3937	1799.55	918.35
972.0214	2447.7617	1806	923.05
972.1506	2449.1289	1801.9	920.15
972.2798	2450.4955	1810.7	927.1
972.4089	2451.8613	1796	917
972.538	2453.2265	1797.65	914.25
972.6671	2454.5909	1791.3	908.15
972.7961	2455.9546	1781.6	900.9
972.9251	2457.3177	1782.9	901.95
973.0541	2458.68	1778.2	893.75
973.1831	2460.0416	1783.3	901.75
973.312	2461.4025	1786.4	900.55
973.4408	2462.7627	1788.6	895.65
973.5697	2464.1222	1773.45	892.75
973.6985	2465.4811	1776.05	892.15
973.8273	2466.8392	1772.25	891.2
973.956	2468.1966	1770.35	885.7
974.0847	2469.5533	1777.15	892.4
974.2134	2470.9093	1770.3	889.1
974.3421	2472.2645	1773.45	888.25
974.4707	2473.6191	1767.7	884.5
974.5993	2474.973	1763.65	883.05
974.7278	2476.3262	1763.3	878.95
974.8563	2477.6787	1759.05	877.95
974.9848	2479.0305	1744.2	862.05
975.1132	2480.3816	1761.2	877.35
975.2417	2481.7319	1749.45	867.9
975.37	2483.0816	1745.15	860.05
975.4984	2484.4306	1746	863.5
975.6267	2485.7789	1750.05	868.05
975.755	2487.1264	1743.15	859.3
975.8833	2488.4733	1741.9	861.15
976.0115	2489.8195	1744.25	853.2
976.1397	2491.165	1747.65	863.75
976.2678	2492.5097	1731.55	848
976.3959	2493.8538	1720.25	838.65
976.524	2495.1972	1720.75	838.7
976.6521	2496.5398	1720.25	837.25
976.7801	2497.8818	1713.55	830.8
976.9081	2499.2231	1713.2	832.6
977.036	2500.5637	1716.4	831.1
977.164	2501.9035	1706.6	823.9
977.2918	2503.2427	1708.45	822.15
977.4197	2504.5812	1699.75	818.7
977.5475	2505.919	1707.15	823.9
977.6753	2507.256	1704.45	825.6
977.8031	2508.5924	1700.2	817.9
977.9308	2509.9281	1696.3	808.05
978.0585	2511.2631	1693.25	810.5
978.1861	2512.5974	1691.05	808.35
978.3137	2513.9309	1688.7	806.35
978.4413	2515.2638	1721.95	811.8
978.5689	2516.596	1690	808.15
978.6964	2517.9275	1675.45	791.85
978.8239	2519.2583	1676.65	793.05
978.9513	2520.5884	1676.05	792.8
979.0788	2521.9178	1677	793.95
979.2062	2523.2465	1676.75	795.1
979.3335	2524.5745	1665.9	783.95
979.4608	2525.9018	1672.2	788.65
979.5881	2527.2284	1667.75	786.65
979.7154	2528.5543	1666	785.75
979.8426	2529.8796	1664.15	782.65
979.9698	2531.2041	1662.5	780.45
980.0969	2532.5279	1661.8	781.2
980.224	2533.851	1660.3	776.05
980.3511	2535.1735	1658.75	777.6
980.4781	2536.4952	1657.6	777.65
980.6052	2537.8163	1658.15	776.05
980.7321	2539.1366	1656.9	774.1
980.8591	2540.4562	1643.55	761.3
980.986	2541.7752	1650.9	770.1
981.1129	2543.0935	1648.3	764.6
981.2397	2544.411	1651.85	769.25
981.3665	2545.7279	1653.7	773.6
981.4933	2547.0441	1644.65	765.25
981.62	2548.3596	1645.45	759.75
981.7467	2549.6744	1637.05	757.4
981.8734	2550.9885	1638.05	752.25
982.0001	2552.3019	1638.45	759.2
982.1267	2553.6146	1637.75	754.2
982.2532	2554.9266	1631.55	750.75
982.3798	2556.2379	1639.7	756.8
982.5063	2557.5485	1627.3	745.9
982.6327	2558.8585	1642.2	753.2
982.7592	2560.1677	1633.2	746.45
982.8856	2561.4762	1628.8	745.5
983.0119	2562.7841	1631.15	745.35
983.1383	2564.0913	1621.55	740.3
983.2646	2565.3977	1622.55	740.2
983.3908	2566.7035	1621.35	740.3
983.517	2568.0086	1610.05	729.55
983.6432	2569.313	1622.4	741.4
983.7694	2570.6167	1617.1	733.6
983.8955	2571.9197	1619.55	739.7
984.0216	2573.222	1614.05	728.9
984.1476	2574.5236	1611.4	728.35
984.2737	2575.8246	1617.25	730.9
984.3996	2577.1248	1614	729.1
984.5256	2578.4244	1612.65	731.4
984.6515	2579.7232	1616.7	736.25
984.7774	2581.0214	1647.75	733.25
984.9032	2582.3189	1614.75	735
985.029	2583.6157	1620	733.85
985.1548	2584.9118	1609.75	729.9
985.2806	2586.2072	1613.25	731.9
985.4063	2587.5019	1613.5	734.45
985.5319	2588.7959	1606.35	722.1
985.6576	2590.0893	1608.65	724.45
985.7832	2591.3819	1618.1	739.25
985.9087	2592.6739	1609.1	727.95
986.0343	2593.9652	1607.5	722.1
986.1597	2595.2557	1608.35	725.1
986.2852	2596.5456	1610	726.55
986.4106	2597.8348	1615.4	736.05
986.536	2599.1234	1606.35	724.3
986.6614	2600.4112	1602.15	721.25
986.7867	2601.6983	1615.7	730.5
986.912	2602.9848	1607.45	725.4
987.0372	2604.2705	1606.45	718.7
987.1624	2605.5556	1604.7	723.8
987.2876	2606.84	1602.7	720.5
987.4128	2608.1237	1594.4	711.7
987.5379	2609.4067	1593.05	711.2
987.6629	2610.689	1601.55	712.95
987.788	2611.9707	1593.3	709.9
987.913	2613.2516	1596.6	713.25
988.0379	2614.5319	1584.35	704
988.1629	2615.8115	1577.25	695.6
988.2878	2617.0903	1576.6	692.5
988.4126	2618.3685	1578.3	697.2
988.5375	2619.6461	1573.45	691.3
988.6622	2620.9229	1563.1	682.65
988.787	2622.199	1569.9	688.25
988.9117	2623.4745	1573.9	692.85
989.0364	2624.7493	1563.4	682.1
989.161	2626.0234	1559.3	681.05
989.2857	2627.2968	1563.3	680.55
989.4102	2628.5695	1565.65	682.15
989.5348	2629.8415	1562.3	681.15
989.6593	2631.1128	1556	673.05
989.7837	2632.3835	1558.1	675.55
989.9082	2633.6535	1553.3	671
990.0326	2634.9228	1555.15	674.35
990.1569	2636.1914	1559.2	676.6
990.2812	2637.4593	1560.65	677.75
990.4055	2638.7265	1553.5	669.3
990.5298	2639.9931	1552.15	671
990.654	2641.259	1548.8	665.45
990.7782	2642.5242	1549.4	667.15
990.9023	2643.7887	1536.65	653.45
991.0264	2645.0525	1542.85	659.45
991.1505	2646.3156	1539.05	657.95
991.2745	2647.5781	1534.45	655.15
991.3985	2648.8398	1533.3	651.15
991.5225	2650.1009	1563.3	644.9
991.6464	2651.3613	1539	657.5
991.7703	2652.6211	1523.85	644.05
991.8942	2653.8801	1533.4	651.1
992.018	2655.1385	1518.75	633.55
992.1418	2656.3961	1527.65	646.05
992.2655	2657.6531	1523.85	640.9
992.3892	2658.9094	1529.5	648.5
992.5129	2660.1651	1533	651.85
992.6366	2661.42	1521.2	639.45
992.7602	2662.6743	1525.55	644.25
992.8837	2663.9279	1535.05	654.9
993.0073	2665.1808	1532.5	649.35
993.1307	2666.433	1544.8	659.25
993.2542	2667.6846	1527.5	648.1
993.3776	2668.9354	1535.55	651.1
993.501	2670.1856	1533.75	650.75
993.6244	2671.4351	1535.7	654.4
993.7477	2672.6839	1546.7	663.4
993.8709	2673.9321	1541.45	659.55
993.9942	2675.1795	1540.5	658.9
994.1174	2676.4263	1544.05	662.6
994.2405	2677.6724	1555.15	675.95
994.3637	2678.9179	1543.5	659.7
994.4868	2680.1626	1546.8	667.45
994.6098	2681.4067	1545.85	662.1
994.7328	2682.6501	1533.05	651.6
994.8558	2683.8928	1539.05	657.8
994.9788	2685.1348	1528.7	646.2
995.1017	2686.3761	1524.15	642.5
995.2245	2687.6168	1521.75	639.4
995.3474	2688.8568	1522.7	640.3
995.4702	2690.0961	1520.05	639.55
995.5929	2691.3348	1517.3	636.35
995.7156	2692.5727	1513.75	635
995.8383	2693.81	1507.3	624.5
995.961	2695.0466	1509.85	628.9
996.0836	2696.2826	1502.85	619.95
996.2062	2697.5178	1513.8	626.45
996.3287	2698.7524	1512.05	630.45
996.4512	2699.9863	1523.25	639.35
996.5737	2701.2195	1511.3	630.25
996.6961	2702.452	1512.6	628.7
996.8185	2703.6839	1516.1	633.35
996.9408	2704.9151	1524.4	644.65
997.0631	2706.1456	1526.5	644.75
997.1854	2707.3755	1536.65	655.3
997.3077	2708.6046	1542.05	657.1
997.4299	2709.8331	1538.25	657.85
997.552	2711.0609	1553.7	671.4
997.6742	2712.2881	1557.05	675.65
997.7963	2713.5145	1563.7	679.45
997.9183	2714.7403	1559.95	679.8
998.0403	2715.9654	1581.4	699.2
998.1623	2717.1899	1601.45	707.35
998.2842	2718.4136	1597.2	716.9
998.4062	2719.6367	1610.95	730.95
998.528	2720.8591	1621.35	732.85
998.6498	2722.0809	1629.75	748.5
998.7716	2723.3019	1640.1	755.05
998.8934	2724.5223	1650	767.75
999.0151	2725.7421	1649.2	765.9
999.1368	2726.9611	1666.6	783.35
999.2584	2728.1795	1655.9	769.35
999.38	2729.3972	1650.9	769.6
999.5016	2730.6142	1646.7	752.6
999.6231	2731.8306	1623.6	741.95
999.7446	2733.0462	1613.8	728.6
999.8661	2734.2612	1593.15	706.5
999.9875	2735.4756	1580	696.65
1000.1089	2736.6892	1566.45	684.35
1000.2302	2737.9022	1545.7	665.05
1000.3515	2739.1145	1536.2	653.85
1000.4728	2740.3262	1535.05	645.7
1000.594	2741.5372	1516.25	633.1
1000.7152	2742.7475	1505.2	623.95
1000.8363	2743.9571	1497.4	612.4
1000.9575	2745.1661	1485.8	599.65
1001.0785	2746.3744	1478	594.25
1001.1996	2747.582	1469.3	589.6
1001.3206	2748.7889	1459.35	576.25
1001.4415	2749.9952	1453	570.95
1001.5625	2751.2008	1439.6	555.8
1001.6833	2752.4057	1445.5	563.95
1001.8042	2753.61	1438.4	555.4
1001.925	2754.8136	1434	551.95
1002.0458	2756.0165	1433.5	551.4
1002.1665	2757.2188	1435.8	553.65
1002.2872	2758.4204	1427.65	546.35
1002.4078	2759.6213	1425.85	541.9
1002.5285	2760.8215	1439.5	551.85
1002.649	2762.0211	1429.3	546.8
1002.7696	2763.22	1438.45	554.7
1002.8901	2764.4182	1427	543.85
1003.0106	2765.6158	1434.4	550.7
1003.131	2766.8127	1424	544.1
1003.2514	2768.009	1421.15	538.3
1003.3717	2769.2045	1420	536.65
1003.492	2770.3994	1416.9	533.55
1003.6123	2771.5936	1407	524.5
1003.7325	2772.7872	1404.15	523.2
1003.8527	2773.9801	1398.9	515.4
1003.9729	2775.1723	1414.75	515.85
1004.093	2776.3639	1393.35	512.95
1004.2131	2777.5548	1405.95	521.25
1004.3331	2778.745	1403.4	520.6
1004.4531	2779.9346	1398.5	517.4
1004.5731	2781.1235	1404.6	523
1004.693	2782.3117	1401.45	520.3
1004.8129	2783.4992	1401.85	521.4
1004.9328	2784.6861	1407.45	525.7
1005.0526	2785.8723	1414.1	531.45
1005.1723	2787.0579	1413.3	530.8
1005.2921	2788.2428	1411.55	529.9
1005.4118	2789.427	1420.35	540.3
1005.5314	2790.6106	1426.2	541.4
1005.651	2791.7935	1434.15	552.1
1005.7706	2792.9757	1441.3	561.6
1005.8902	2794.1573	1446.4	563.7
1006.0097	2795.3382	1455.6	573.35
1006.1291	2796.5184	1466.5	585.55
1006.2485	2797.698	1471.3	588
1006.3679	2798.8769	1490.1	608.85
1006.4873	2800.0551	1501.1	618.15
1006.6066	2801.2327	1507.45	622.6
1006.7258	2802.4096	1519.7	639.3
1006.8451	2803.5859	1526.15	643.5
1006.9642	2804.7615	1547.2	664.1
1007.0834	2805.9364	1571.4	690.9
1007.2025	2807.1106	1584.5	701.85
1007.3216	2808.2842	1618.45	736.3
1007.4406	2809.4572	1636.45	754.95
1007.5596	2810.6294	1665.5	782.85
1007.6785	2811.801	1692.7	814.35
1007.7975	2812.972	1735.4	853.75
1007.9163	2814.1423	1773.25	891.85
1008.0352	2815.3119	1814.1	933.15
1008.154	2816.4808	1858.8	978.75
1008.2727	2817.6491	1905.2	1020.4
1008.3914	2818.8167	1949.7	1068.05
1008.5101	2819.9837	2010.65	1124.15
1008.6288	2821.15	2058.35	1176.95
1008.7474	2822.3157	2119.4	1239.1
1008.8659	2823.4807	2167.65	1284.65
1008.9844	2824.645	2226.6	1344.65
1009.1029	2825.8086	2287.7	1409
1009.2214	2826.9716	2342.75	1462.35
1009.3398	2828.134	2398.85	1518.9
1009.4581	2829.2957	2445	1562.75
1009.5764	2830.4567	2460.8	1578.5
1009.6947	2831.617	2504.4	1623.8
1009.813	2832.7767	2517.65	1636.8
1009.9312	2833.9358	2519.75	1638.75
1010.0493	2835.0941	2502.3	1618.7
1010.1675	2836.2519	2497.4	1618
1010.2855	2837.4089	2486.65	1604.05
1010.4036	2838.5653	2467.05	1587.1
1010.5216	2839.7211	2445.2	1564.25
1010.6396	2840.8761	2445.55	1561.4
1010.7575	2842.0306	2439.85	1559.1
1010.8754	2843.1843	2465.95	1582.65
1010.9932	2844.3374	2496.95	1616.7
1011.111	2845.4899	2520.95	1640.85
1011.2288	2846.6417	2589.85	1708.45
1011.3465	2847.7928	2623.8	1744.2
1011.4642	2848.9433	2683.6	1802.15
1011.5818	2850.0931	2739.55	1857.75
1011.6995	2851.2422	2827.1	1943.7
1011.817	2852.3907	2871.8	1987.6
1011.9345	2853.5385	2926.15	2043
1012.052	2854.6857	2989.85	2082
1012.1695	2855.8323	3032.75	2151.4
1012.2869	2856.9781	3070.45	2187.65
1012.4042	2858.1233	3126.6	2245
1012.5216	2859.2679	3172.8	2291.45
1012.6389	2860.4118	3220.8	2340.85
1012.7561	2861.555	3274.7	2387.75
1012.8733	2862.6976	3309.85	2427.6
1012.9905	2863.8395	3352.65	2471.55
1013.1076	2864.9808	3372.4	2491.85
1013.2247	2866.1214	3398.1	2517.1
1013.3417	2867.2614	3416.65	2534.35
1013.4587	2868.4007	3445.4	2562.5
1013.5757	2869.5393	3449.55	2567.45
1013.6926	2870.6773	3460.35	2574.6
1013.8095	2871.8146	3485.45	2600.75
1013.9263	2872.9513	3469	2582.9
1014.0431	2874.0874	3463.05	2582.8
1014.1599	2875.2227	3465.7	2583.85
1014.2766	2876.3574	3440.9	2557.9
1014.3933	2877.4915	3422.3	2541.5
1014.51	2878.6249	3392.75	2511.75
1014.6266	2879.7577	3377.45	2494.7
1014.7431	2880.8898	3366.6	2475.05
1014.8596	2882.0212	3341.1	2461.3
1014.9761	2883.152	3323.9	2443.05
1015.0925	2884.2821	3310.7	2430.4
1015.2089	2885.4116	3299.5	2419.4
1015.3253	2886.5405	3316.2	2434.05
1015.4416	2887.6686	3307.4	2422
1015.5579	2888.7962	3301.4	2420.9
1015.6741	2889.923	3315.05	2432.15
1015.7903	2891.0493	3339.6	2459.6
1015.9065	2892.1748	3333.6	2451.4
1016.0226	2893.2997	3354.75	2471.15
1016.1387	2894.424	3352.4	2473.5
1016.2547	2895.5476	3380.3	2497.05
1016.3707	2896.6706	3404.15	2523.75
1016.4866	2897.7929	3417.9	2534
1016.6025	2898.9145	3440.5	2558.15
1016.7184	2900.0355	3461.7	2577.25
1016.8342	2901.1559	3510.4	2627.65
1016.95	2902.2756	3529.9	2650.05
1017.0658	2903.3946	3545.25	2662.75
1017.1815	2904.513	3575.2	2690.15
1017.2971	2905.6308	3597.3	2718.35
1017.4127	2906.7479	3621.8	2739.55
1017.5283	2907.8643	3664.6	2783.15
1017.6439	2908.9801	3675.9	2792.95
1017.7594	2910.0953	3674.2	2792.8
1017.8748	2911.2098	3682	2798.05
1017.9902	2912.3236	3680.25	2791.45
1018.1056	2913.4368	3665.45	2781.65
1018.2209	2914.5494	3642.3	2760.8
1018.3362	2915.6613	3609.7	2721.45
1018.4515	2916.7725	3591.55	2704.55
1018.5667	2917.8831	3555.05	2672.4
1018.6819	2918.9931	3529	2645.4
1018.797	2920.1024	3488.35	2605.95
1018.9121	2921.211	3479.15	2596.95
1019.0271	2922.319	3451.25	2569.85
1019.1421	2923.4264	3438.6	2557.5
1019.2571	2924.5331	3438	2558.2
1019.372	2925.6391	3423.8	2541.4
1019.4869	2926.7445	3412.15	2531.4
1019.6017	2927.8493	3412.3	2529.75
1019.7165	2928.9534	3422.6	2541.9
1019.8313	2930.0569	3424.15	2540
1019.946	2931.1597	3425	2542.15
1020.0606	2932.2619	3435.75	2555.6
1020.1753	2933.3634	3444.5	2563.05
1020.2899	2934.4643	3463.05	2576.6
1020.4044	2935.5645	3445.95	2557.2
1020.5189	2936.6641	3431.65	2546.6
1020.6334	2937.763	3381.55	2500.4
1020.7478	2938.8613	3355.5	2474.4
1020.8622	2939.959	3330.9	2443.75
1020.9765	2941.056	3268.4	2388.45
1021.0908	2942.1523	3201.75	2318.2
1021.2051	2943.248	3126.15	2244.75
1021.3193	2944.3431	3041.15	2159.65
1021.4334	2945.4375	2949.15	2067.7
1021.5476	2946.5313	2869.1	1986.9
1021.6617	2947.6244	2768.85	1888.2
1021.7757	2948.7169	2669.4	1786.2
1021.8897	2949.8087	2582.95	1701
1022.0037	2950.8999	2480.9	1600.95
1022.1176	2951.9904	2400.8	1518.45
1022.2315	2953.0803	2338.45	1456.25
1022.3453	2954.1696	2278.3	1397.15
1022.4591	2955.2582	2226.5	1346.75
1022.5728	2956.3462	2175.1	1292.45
1022.6865	2957.4335	2129.05	1248.95
1022.8002	2958.5202	2103.95	1219.5
1022.9138	2959.6062	2073.65	1193.4
1023.0274	2960.6916	2045.55	1164.95
1023.141	2961.7764	2024.05	1140.75
1023.2545	2962.8605	2006.85	1123.1
1023.3679	2963.9439	1988.5	1107.6
1023.4813	2965.0267	1986.55	1104.8
1023.5947	2966.1089	2003.55	1099.4
1023.708	2967.1905	1972.9	1092.1
1023.8213	2968.2714	1964	1083.65
1023.9346	2969.3516	1966.45	1084.55
1024.0478	2970.4312	1985.2	1095.1
1024.1609	2971.5102	1972.75	1090.85
1024.274	2972.5885	1977.7	1098.1
1024.3871	2973.6662	1984.05	1095.5
1024.5002	2974.7432	1985.1	1101.9
1024.6132	2975.8196	1976.45	1094.4
1024.7261	2976.8954	1976.3	1094.95
1024.839	2977.9705	1963.1	1082.05
1024.9519	2979.045	1956.45	1075.45
1025.0647	2980.1188	1942.7	1059.95
1025.1775	2981.192	1920.25	1039.65
1025.2902	2982.2645	1909.1	1028.35
1025.4029	2983.3364	1892.35	1011.5
1025.5156	2984.4077	1866.45	986.05
1025.6282	2985.4783	1843.55	954.6
1025.7407	2986.5483	1810.65	931.35
1025.8532	2987.6177	1784.05	902.35
1025.9657	2988.6864	1749.2	868.3
1026.0782	2989.7545	1717.2	834.75
1026.1906	2990.8219	1688	807.45
1026.3029	2991.8887	1649	764.05
1026.4152	2992.9548	1622.75	739.6
1026.5275	2994.0204	1593.6	712.7
1026.6397	2995.0852	1563.7	685.1
1026.7519	2996.1495	1530.75	647.4
1026.864	2997.2131	1515.1	633.7
1026.9761	2998.276	1486.25	604.05
1027.0882	2999.3383	1468.3	588.7
1027.2002	3000.4	1445.3	562.5
1027.3122	3001.4611	1422.8	541.65
1027.4241	3002.5215	1410.15	527.55
1027.536	3003.5812	1390.3	509.25
1027.6478	3004.6404	1379.65	497.35
1027.7596	3005.6989	1367.45	485.5
1027.8714	3006.7567	1353.55	472.35
1027.9831	3007.8139	1374.65	466.55
1028.0947	3008.8705	1331.5	449.55
1028.2064	3009.9264	1334.35	435.65
1028.3179	3010.9818	1320.25	438
1028.4295	3012.0364	1315.55	434.05
1028.541	3013.0905	1309.65	428.4
1028.6524	3014.1439	1302	421.85
1028.7638	3015.1966	1293.9	411.95
1028.8752	3016.2487	1290.7	408.85
1028.9865	3017.3002	1286.6	400.45
1029.0978	3018.3511	1281.8	403.05
1029.209	3019.4013	1281	399.1
1029.3202	3020.4509	1281.35	402.15
1029.4314	3021.4998	1276.2	394.3
1029.5425	3022.5481	1276.4	395
1029.6535	3023.5958	1267.05	385.4
1029.7645	3024.6428	1272.25	392.25
1029.8755	3025.6892	1269.45	387.6
1029.9864	3026.735	1273.4	393.35
1030.0973	3027.7802	1272.45	389.9
1030.2082	3028.8247	1267.35	388.85
1030.319	3029.8685	1270.5	388.95
1030.4297	3030.9118	1272.2	389.95
1030.5404	3031.9544	1269.5	389.9
1030.6511	3032.9963	1279	396.85
1030.7617	3034.0376	1280.15	399.9
1030.8723	3035.0783	1283.75	399.15
1030.9829	3036.1184	1282.35	400.3
1031.0934	3037.1578	1277.95	398.25
1031.2038	3038.1966	1286.95	405.15
1031.3142	3039.2348	1285.65	405
1031.4246	3040.2723	1299	405.9
1031.5349	3041.3092	1279.9	401.4
1031.6452	3042.3455	1280.85	398.45
1031.7554	3043.3811	1283.1	402.05
1031.8656	3044.4161	1285.4	403.4
1031.9758	3045.4505	1280.5	400.9
1032.0859	3046.4842	1285.7	403.65
1032.1959	3047.5173	1279.1	398.55
1032.3059	3048.5498	1271.75	389.95
1032.4159	3049.5816	1271.25	389.95
1032.5258	3050.6128	1265.7	382.7
1032.6357	3051.6434	1266.8	384.65
1032.7455	3052.6734	1263.75	382.5
1032.8553	3053.7027	1257.35	374.3
1032.9651	3054.7314	1260.3	379.25
1033.0748	3055.7594	1252.45	371.4
1033.1845	3056.7868	1260.2	376.3
1033.2941	3057.8136	1245.35	364.4
1033.4037	3058.8398	1245.45	363.5
1033.5132	3059.8653	1245.4	364.5
1033.6227	3060.8902	1243.8	362.5
1033.7321	3061.9145	1242	360.35
1033.8415	3062.9381	1231	349.05
1033.9509	3063.9612	1252.7	353.55
1034.0602	3064.9835	1235.8	353.9
1034.1694	3066.0053	1229.75	345.95
1034.2787	3067.0264	1221.55	339.6
1034.3878	3068.0469	1226.75	345.3
1034.497	3069.0668	1219.3	333.65
1034.6061	3070.086	1207.35	328.25
1034.7151	3071.1046	1213	328.65
1034.8241	3072.1226	1196.5	314.55
1034.9331	3073.1399	1193.65	311.95
1035.042	3074.1567	1187.25	306.55
1035.1508	3075.1727	1182.25	301.8
1035.2597	3076.1882	1177.25	296.5
1035.3684	3077.203	1168.35	287.05
1035.4772	3078.2173	1163.6	281.2
1035.5859	3079.2308	1162.3	278.55
1035.6945	3080.2438	1150.15	268.4
1035.8031	3081.2561	1142.8	261.8
1035.9117	3082.2678	1139.35	259.8
1036.0202	3083.2789	1134.8	255.5
1036.1286	3084.2893	1124.05	244
1036.2371	3085.2991	1119.5	239.1
1036.3454	3086.3083	1120.05	232.8
1036.4538	3087.3169	1117.5	232.6
1036.562	3088.3248	1104.6	223
1036.6703	3089.3321	1106.6	224.25
1036.7785	3090.3388	1097.9	216.2
1036.8866	3091.3449	1093.1	210.65
1036.9948	3092.3503	1094.1	211.45
1037.1028	3093.3551	1085.25	206.15
1037.2108	3094.3593	1086.55	205.95
1037.3188	3095.3629	1084.6	203.65
1037.4267	3096.3658	1079.35	197.45
1037.5346	3097.3681	1079.1	196.8
1037.6425	3098.3698	1082.25	198.9
1037.7503	3099.3708	1082.35	194.1
1037.858	3100.3713	1067.9	188.3
1037.9657	3101.3711	1067.25	185.5
1038.0734	3102.3702	1202.85	182
1038.181	3103.3688	1068.45	185.1
1038.2886	3104.3667	1062.5	182.85
1038.3961	3105.364	1058.45	177.05
1038.5036	3106.3607	1062.55	179.7
1038.611	3107.3568	1053.6	170.1
1038.7184	3108.3522	1051	170.5
1038.8257	3109.347	1052.3	169.1
1038.933	3110.3412	1051.6	165.4
1039.0403	3111.3348	1045.3	163.25
1039.1475	3112.3277	1044.2	164.05
1039.2547	3113.32	1040.05	160.4
1039.3618	3114.3117	1042.5	159.6
1039.4689	3115.3028	1038.6	156.5
1039.5759	3116.2932	1036.85	154.25
1039.6829	3117.2831	1045.85	157.9
1039.7898	3118.2723	1033.75	151.15
1039.8967	3119.2608	1034.4	153.95
1040.0035	3120.2488	1032.45	151.3
1040.1103	3121.2361	1025.95	144.8
1040.2171	3122.2229	1023.75	142.55
1040.3238	3123.209	1029.8	148.6
1040.4305	3124.1944	1023.9	143.35
1040.5371	3125.1793	1025.4	143.5
1040.6437	3126.1635	1022.65	142.65
1040.7502	3127.1471	1021.75	141.3
1040.8567	3128.1301	1017.9	139.05
1040.9631	3129.1125	1019.1	137.65
1041.0695	3130.0942	1017.9	134.1
1041.1759	3131.0753	1026.95	134.75
1041.2822	3132.0558	1019.8	135.05
1041.3884	3133.0357	1016.75	133.8
1041.4946	3134.015	1017.3	133.6
1041.6008	3134.9936	1012	127.2
1041.7069	3135.9716	1033.65	131.45
1041.813	3136.949	1010.75	129.4
1041.919	3137.9258	1029.95	129.3
1042.025	3138.902	1011.95	125.4
1042.1309	3139.8775	1006.7	127.2
1042.2368	3140.8524	1008.55	127.7
1042.3427	3141.8267	1006.15	125.05
1042.4485	3142.8004	1008.45	125.95
1042.5542	3143.7735	1008.45	121.55
1042.6599	3144.7459	1002.6	117.9
1042.7656	3145.7178	1006.7	125.5
1042.8712	3146.689	995.35	114.5
1042.9768	3147.6596	1001.3	116.7
1043.0823	3148.6295	998.25	116.85
1043.1878	3149.5989	997.1	115.75
1043.2932	3150.5676	994.95	113.05
1043.3986	3151.5357	993	114
1043.5039	3152.5032	993.6	114.05
1043.6092	3153.4701	991.9	110.7
1043.7145	3154.4364	996.05	113.35
1043.8197	3155.402	996.2	115.8
1043.9248	3156.367	991.2	108.4
1044.03	3157.3315	1022.2	109.85
1044.135	3158.2952	989.55	108.35
1044.24	3159.2584	989.7	108.3
1044.345	3160.221	990.8	108.6
1044.4499	3161.1829	987.8	107.8
1044.5548	3162.1442	986.35	105.1
1044.6596	3163.105	985.55	103.3
1044.7644	3164.065	986.85	105.85
1044.8692	3165.0245	985.3	101.85
1044.9739	3165.9834	984.85	105.55
1045.0785	3166.9416	983.55	102.95
1045.1831	3167.8993	983.95	101.25
1045.2877	3168.8563	982.7	101.4
1045.3922	3169.8127	982.1	100.1
1045.4966	3170.7684	980.4	99.5
1045.6011	3171.7236	984.85	101.7
1045.7054	3172.6782	982.35	101.3
1045.8098	3173.6321	978.15	96.25
1045.914	3174.5854	984.45	99.3
1046.0183	3175.5381	976.85	98.15
1046.1224	3176.4902	975.25	94.7
1046.2266	3177.4417	978.1	98
1046.3307	3178.3926	972.15	92.05
1046.4347	3179.3428	975.15	93.6
1046.5387	3180.2924	971.6	91.5
1046.6427	3181.2415	973.8	92.15
1046.7466	3182.1899	973.9	92.55
1046.8504	3183.1377	973.65	92.75
1046.9542	3184.0848	974.7	90.5
1047.058	3185.0314	972.45	90.85
1047.1617	3185.9773	973.05	92
1047.2654	3186.9227	971.85	88.9
1047.369	3187.8674	967.7	86.75
1047.4726	3188.8115	977.65	92.8
1047.5761	3189.755	970.05	89.7
1047.6796	3190.6979	969.15	87.25
1047.783	3191.6402	966.3	87.25
1047.8864	3192.5818	966.7	85.4
1047.9898	3193.5229	987.85	84.35
1048.0931	3194.4633	969.2	87.6
1048.1963	3195.4031	962.7	80.9
1048.2995	3196.3423	964.4	84.45
1048.4027	3197.2809	964.55	84
1048.5058	3198.2189	966.3	84.15
1048.6089	3199.1563	983.45	84.95
1048.7119	3200.0931	964.85	84.65
1048.8148	3201.0292	963.55	84.85
1048.9178	3201.9648	964.8	83.55
1049.0206	3202.8997	964.35	80
1049.1235	3203.834	959.9	79.8
1049.2262	3204.7677	962.55	80.95
1049.329	3205.7008	962.9	80.1
1049.4317	3206.6333	958.2	79.3
1049.5343	3207.5652	959.75	73.85
1049.6369	3208.4964	959.55	78.65
1049.7394	3209.4271	954.3	71.7
1049.8419	3210.3571	960.65	81.2
1049.9444	3211.2865	957.05	75.8
1050.0468	3212.2154	957.35	74.5
1050.1491	3213.1436	959.05	76
1050.2514	3214.0712	965.35	77.8
1050.3537	3214.9982	957.8	78.3
1050.4559	3215.9246	955.6	72
1050.5581	3216.8503	952.55	73.1
1050.6602	3217.7755	955.1	74.55
1050.7623	3218.7001	955.35	74.8
1050.8643	3219.624	956.7	74.1
1050.9663	3220.5473	953.05	71.6
1051.0682	3221.4701	956.6	73.9
1051.1701	3222.3922	954.85	71.15
1051.2719	3223.3137	952.55	71.35
1051.3737	3224.2346	950.5	68.8
1051.4754	3225.1549	950	68.45
1051.5771	3226.0746	953.35	72.25
1051.6788	3226.9937	953.2	71.3
1051.7804	3227.9121	948.85	67.4
1051.8819	3228.83	952.7	72.35
1051.9834	3229.7473	949.55	67.15
1052.0849	3230.6639	946.55	65.55
1052.1863	3231.5799	950.8	70.2
1052.2876	3232.4954	948.55	65.15
1052.3889	3233.4102	947.45	66.15
1052.4902	3234.3244	947.65	66.9
1052.5914	3235.238	947.15	66.95
1052.6926	3236.151	967.85	61.3
1052.7937	3237.0634	947.1	67.25
1052.8948	3237.9752	946.45	64.9
1052.9958	3238.8864	947.45	64.25
1053.0968	3239.797	943.4	62.9
1053.1977	3240.7069	945.5	64.25
1053.2986	3241.6163	949.05	66.95
1053.3994	3242.5251	941.9	61.5
1053.5002	3243.4332	938.4	56.9
1053.6009	3244.3408	941.5	61.25
1053.7016	3245.2477	942.05	61.7
1053.8022	3246.154	942.85	60.6
1053.9028	3247.0598	941.85	57.95
1054.0034	3247.9649	941.2	58.65
1054.1039	3248.8694	940.05	59.5
1054.2043	3249.7733	940.2	58.8
1054.3047	3250.6766	942.95	61.55
1054.4051	3251.5793	940.6	57.6
1054.5054	3252.4814	939.7	59.65
1054.6056	3253.3829	935.4	53.55
1054.7058	3254.2838	935.95	53.2
1054.806	3255.1841	935.1	55.95
1054.9061	3256.0838	936.15	56.65
1055.0061	3256.9829	932.05	52.3
1055.1062	3257.8814	940.4	57.85
1055.2061	3258.7792	936.2	54.6
1055.306	3259.6765	934.55	50.7
1055.4059	3260.5731	932.3	51.25
1055.5057	3261.4692	932.1	48.65
1055.6055	3262.3647	934	53.2
1055.7052	3263.2595	929	46.75
1055.8049	3264.1538	929	47.9
1055.9045	3265.0474	929.8	48.6
1056.0041	3265.9404	927.65	46.2
1056.1036	3266.8329	929.15	49.2
1056.2031	3267.7247	937.65	47.05
1056.3025	3268.616	925.5	45.8
1056.4019	3269.5066	923.45	41.6
1056.5013	3270.3966	924.6	39.9
1056.6005	3271.286	920.7	41.95
