Software Version:	3.9.2.0
Unit SN:	10000200
Spectrometer SN:	6960
Date:	3/14/2024 12:55:01 PM
Data Line Index:	25
Spectral Points:	2048
Integration time (ms):	125
Averages:	20
Delay (ms):	30000
Sequence Number:	1
Processing:	dark subtract
Laser Power (mW):	300
Laser Current (mA):	823
Laser Diode Temp (C):	25
Laser Case Temp (C):	27.8
System Temp (C):	27.9
Spectrometer Temp (C):	25.6
CCD Temp (C):	0
Secondary Temp (C):	20.006
Heatsink Temp (C):	23.657
CCDPCB Temp (C):	37.241
SecondaryPCB Temp (C):	34.728

Wavelength	RamanShift	Raw Counts	Dark Subtracted
787.061	30.1047	417.3	3.75
787.2016	32.3739	414.75	4.85
787.3422	34.6426	417.45	5.1
787.4828	36.9109	418.95	4.85
787.6235	39.1787	423.4	7.05
787.7642	41.4461	426.45	4.2
787.9049	43.7131	432.85	6.3
788.0456	45.9796	437.6	9
788.1863	48.2456	443.05	8.9
788.3271	50.5112	447.5	11.2
788.4679	52.7764	450.25	11.5
788.6087	55.0411	453.55	12.25
788.7496	57.3054	458.45	10.3
788.8904	59.5692	463.7	16.85
789.0313	61.8326	467.85	14.65
789.1722	64.0955	472.8	12.65
789.3132	66.3579	480.65	18.6
789.4541	68.6199	485.15	21.45
789.5951	70.8815	494.5	26.65
789.7361	73.1426	509.3	36.4
789.8771	75.4032	539	61.75
790.0181	77.6634	604.55	122.35
790.1592	79.9231	747.5	261.8
790.3003	82.1824	1066.55	572.4
790.4414	84.4412	1584.25	1081.4
790.5825	86.6995	2283.35	1769.5
790.7237	88.9574	2960.6	2436.75
790.8648	91.2148	3434.4	2904.3
791.006	93.4717	3674.35	3136.75
791.1472	95.7282	3748.15	3207.3
791.2885	97.9842	3779	3235.95
791.4297	100.2398	3741	3194.3
791.571	102.4949	3711.45	3163.4
791.7123	104.7495	3703.65	3149.05
791.8536	107.0036	3673.95	3120.9
791.9949	109.2573	3625.7	3075
792.1363	111.5105	3555.05	3000.85
792.2777	113.7632	3505.7	2950.35
792.4191	116.0154	3450.5	2883.4
792.5605	118.2672	3396.9	2837.5
792.7019	120.5185	3338.7	2776.55
792.8434	122.7693	3275.2	2710.8
792.9849	125.0197	3231.5	2663.95
793.1264	127.2696	3169.45	2601.05
793.2679	129.519	3168.8	2595.2
793.4094	131.7679	3133.15	2557.4
793.551	134.0163	3122.95	2544.8
793.6926	136.2642	3127.55	2543.4
793.8342	138.5117	3122.5	2536.95
793.9758	140.7587	3115.4	2528.55
794.1175	143.0052	3080.5	2491.05
794.2591	145.2512	3045.3	2455.4
794.4008	147.4967	3001.85	2408.95
794.5425	149.7417	2978.45	2383.85
794.6842	151.9863	2963.8	2365.4
794.826	154.2304	2953.1	2353.6
794.9677	156.4739	2953.1	2345.6
795.1095	158.717	2943.15	2338.4
795.2513	160.9596	2966.6	2356.35
795.3931	163.2017	2966.95	2357.85
795.535	165.4433	2975.8	2361.9
795.6768	167.6844	2959.75	2342.1
795.8187	169.925	2955.55	2333.75
795.9606	172.1651	2915.25	2293.55
796.1025	174.4047	2887.45	2259.85
796.2445	176.6439	2869.75	2241.55
796.3864	178.8825	2834.25	2203.65
796.5284	181.1206	2832.9	2199.95
796.6704	183.3582	2830.15	2192.65
796.8124	185.5954	2835.4	2196.4
796.9544	187.832	2821.2	2175.55
797.0965	190.0681	2827.7	2182.5
797.2386	192.3037	2828.35	2180.5
797.3806	194.5388	2822.05	2170.2
797.5228	196.7734	2831.4	2177.25
797.6649	199.0075	2833.4	2174.9
797.807	201.2411	2859.45	2196.75
797.9492	203.4742	2868.25	2208
798.0914	205.7068	2884.05	2221.65
798.2336	207.9389	2877.4	2215.95
798.3758	210.1704	2906.2	2242.15
798.518	212.4015	2902.65	2230.75
798.6603	214.632	2888.9	2218.9
798.8025	216.862	2897	2236.5
798.9448	219.0915	2901	2245.5
799.0871	221.3205	2885.75	2231.85
799.2294	223.549	2894.5	2247.75
799.3718	225.777	2884.35	2236.55
799.5141	228.0044	2881.7	2231.8
799.6565	230.2314	2865.85	2217.8
799.7989	232.4578	2855.95	2206.95
799.9413	234.6837	2853.45	2197.65
800.0837	236.909	2836	2178.1
800.2262	239.1339	2842.55	2162.15
800.3687	241.3582	2828.75	2160.95
800.5111	243.582	2844.4	2154.1
800.6536	245.8053	2848.6	2164.05
800.7961	248.0281	2832.35	2150.7
800.9387	250.2503	2841.85	2155.95
801.0812	252.472	2837.05	2145.95
801.2238	254.6932	2855.45	2160.6
801.3664	256.9139	2850.35	2154.75
801.509	259.134	2856.75	2161.15
801.6516	261.3536	2864	2167.15
801.7942	263.5727	2895.15	2195.65
801.9369	265.7912	2903.65	2208.65
802.0795	268.0092	2942.7	2244.5
802.2222	270.2267	2968.1	2266.9
802.3649	272.4436	3002.5	2300.1
802.5076	274.6601	3015.95	2304.65
802.6504	276.8759	3021.1	2314.7
802.7931	279.0913	3040.5	2334.05
802.9359	281.3061	3033.9	2327.45
803.0787	283.5204	3057.9	2349.3
803.2215	285.7341	3060.2	2347.15
803.3643	287.9473	3078.7	2361.45
803.5071	290.16	3073.45	2348.55
803.6499	292.3721	3035.45	2320.35
803.7928	294.5837	3029	2311.05
803.9357	296.7947	2995.2	2281.55
804.0786	299.0052	2988.05	2272.6
804.2215	301.2152	2979.15	2258.7
804.3644	303.4246	2958.2	2240.8
804.5074	305.6334	2946.5	2229.25
804.6503	307.8418	2936.15	2216.6
804.7933	310.0495	2899.5	2179
804.9363	312.2568	2881.5	2162.5
805.0793	314.4635	2848.7	2127.05
805.2223	316.6696	2816.25	2090.7
805.3653	318.8752	2779.8	2044.85
805.5084	321.0802	2766.45	2041.8
805.6514	323.2847	2756.05	2028.65
805.7945	325.4887	2753.85	2025.75
805.9376	327.692	2767.65	2038.7
806.0807	329.8949	2799.95	2071.3
806.2238	332.0972	2792.2	2059.75
806.367	334.2989	2820.2	2083.95
806.5101	336.5001	2797.1	2059.3
806.6533	338.7007	2791.1	2054.4
806.7965	340.9008	2759	2022.5
806.9397	343.1003	2727.75	1987.15
807.0829	345.2992	2701.5	1962.3
807.2261	347.4976	2671.45	1926.55
807.3693	349.6955	2650.55	1904
807.5126	351.8927	2628.75	1880.4
807.6559	354.0895	2627.95	1870.6
807.7991	356.2856	2615.75	1866.3
807.9424	358.4812	2603.8	1854.6
808.0857	360.6763	2597.7	1848.5
808.2291	362.8707	2588.2	1838.3
808.3724	365.0646	2580.95	1830.3
808.5158	367.258	2593.7	1840.85
808.6591	369.4508	2602.3	1844.75
808.8025	371.643	2618.7	1860.9
808.9459	373.8346	2630.9	1872.2
809.0893	376.0257	2652.95	1887.3
809.2327	378.2162	2662.5	1896.95
809.3762	380.4062	2660.15	1890.55
809.5196	382.5956	2648.75	1881.2
809.6631	384.7844	2617.6	1850.65
809.8066	386.9726	2589.4	1822.2
809.9501	389.1603	2570.1	1802
810.0936	391.3474	2580.25	1778.55
810.2371	393.5339	2553	1781.75
810.3806	395.7199	2544.75	1779.7
810.5241	397.9052	2551.05	1786.6
810.6677	400.09	2564.95	1801.95
810.8113	402.2743	2600.3	1838.9
810.9548	404.4579	2611.25	1851.25
811.0984	406.641	2639.25	1876.45
811.2421	408.8235	2659.75	1898.5
811.3857	411.0054	2707.75	1942.55
811.5293	413.1868	2770.95	2004.8
811.673	415.3675	2833.65	2067.15
811.8166	417.5477	2848.15	2078.55
811.9603	419.7273	2786.65	2015.8
812.104	421.9064	2689.2	1911.15
812.2477	424.0848	2638.35	1864
812.3914	426.2627	2592.3	1814.75
812.5351	428.4399	2561.05	1781.15
812.6788	430.6166	2516.85	1732.25
812.8226	432.7928	2482.45	1696.6
812.9663	434.9683	2455.5	1671.7
813.1101	437.1432	2425.8	1638.4
813.2539	439.3176	2409.8	1623.7
813.3977	441.4914	2395.65	1610.3
813.5415	443.6645	2393.75	1605.9
813.6853	445.8371	2399.35	1607.65
813.8291	448.0091	2390.65	1604.15
813.973	450.1806	2393.4	1605.3
814.1168	452.3514	2372.25	1580.95
814.2607	454.5216	2374.95	1573.65
814.4046	456.6913	2364.65	1570.4
814.5485	458.8603	2362.25	1567.65
814.6924	461.0288	2361.5	1571.7
814.8363	463.1967	2361.85	1566.8
814.9802	465.3639	2372.7	1576.2
815.1241	467.5306	2343.5	1547.9
815.2681	469.6967	2348.8	1550.65
815.412	471.8622	2323.7	1524.35
815.556	474.0271	2321.95	1526.45
815.7	476.1914	2336.3	1538.1
815.844	478.3551	2318.7	1522.2
815.988	480.5182	2335.5	1537.2
816.132	482.6807	2321.35	1522.5
816.276	484.8426	2334.75	1534.05
816.4201	487.0039	2361.15	1559.75
816.5641	489.1647	2390.55	1589.25
816.7082	491.3248	2413.35	1613.05
816.8522	493.4843	2418.35	1617.75
816.9963	495.6432	2416.25	1615.7
817.1404	497.8015	2396.8	1591.05
817.2845	499.9592	2372.7	1569
817.4286	502.1163	2339.05	1536.3
817.5727	504.2728	2305.85	1498.65
817.7168	506.4287	2291	1487.15
817.861	508.5839	2279.3	1474.75
818.0051	510.7386	2263.2	1461.9
818.1493	512.8927	2279.35	1465.15
818.2935	515.0461	2273.75	1467.1
818.4377	517.199	2274.2	1468.85
818.5818	519.3512	2307.05	1501.6
818.726	521.5029	2347.65	1536.4
818.8703	523.6539	2386.7	1575.85
819.0145	525.8043	2387.5	1577.85
819.1587	527.9541	2361.25	1546.25
819.303	530.1033	2300.8	1489.9
819.4472	532.2519	2277.25	1465.8
819.5915	534.3999	2257.85	1443.95
819.7357	536.5472	2256.1	1442.75
819.88	538.694	2254.1	1441.4
820.0243	540.8401	2265.2	1449.5
820.1686	542.9856	2270.45	1453.8
820.3129	545.1305	2270.35	1454.35
820.4572	547.2748	2281.95	1466.2
820.6016	549.4185	2278.9	1461.2
820.7459	551.5615	2288	1469.55
820.8902	553.704	2294.25	1476.2
821.0346	555.8458	2298.35	1481.85
821.1789	557.987	2315.25	1497.45
821.3233	560.1276	2324.45	1503.85
821.4677	562.2675	2354.55	1538.05
821.6121	564.4069	2392.1	1573.2
821.7565	566.5456	2410.3	1592.4
821.9009	568.6837	2412.8	1592.75
822.0453	570.8212	2374.1	1553.95
822.1897	572.958	2317.85	1498.75
822.3342	575.0942	2293.3	1475.6
822.4786	577.2299	2272.65	1452.55
822.6231	579.3648	2238.6	1416.9
822.7675	581.4992	2226.8	1403.85
822.912	583.6329	2228.1	1407.25
823.0565	585.766	2238.15	1417
823.201	587.8985	2254.25	1433.3
823.3454	590.0304	2288.8	1454.35
823.4899	592.1616	2308.1	1484.6
823.6345	594.2922	2301.55	1479.3
823.779	596.4222	2273.5	1450
823.9235	598.5515	2237.25	1410.75
824.068	600.6802	2193.65	1371.6
824.2126	602.8083	2174.1	1349.5
824.3571	604.9358	2164.55	1337.45
824.5017	607.0626	2170.3	1341.9
824.6462	609.1888	2162.35	1334.7
824.7908	611.3144	2176.55	1348.45
824.9354	613.4393	2198.95	1370.9
825.08	615.5636	2235	1403.65
825.2246	617.6873	2253.2	1425.5
825.3692	619.8103	2257.8	1428.4
825.5138	621.9327	2280.05	1447.15
825.6584	624.0544	2249.5	1420.65
825.803	626.1756	2217	1387.5
825.9477	628.2961	2174.65	1345.1
826.0923	630.4159	2167.35	1339.05
826.237	632.5351	2155.35	1323.5
826.3816	634.6537	2152.15	1321
826.5263	636.7716	2145.1	1309.9
826.6709	638.8889	2146.05	1310.05
826.8156	641.0056	2157.6	1325.35
826.9603	643.1216	2154.9	1320.25
827.105	645.237	2145.7	1311.9
827.2497	647.3518	2143.35	1307.1
827.3944	649.4659	2128.8	1294.3
827.5391	651.5793	2128.8	1292
827.6838	653.6922	2108.05	1271.1
827.8285	655.8043	2097.3	1263.3
827.9733	657.9159	2079.95	1242.75
828.118	660.0268	2079.2	1240.9
828.2627	662.137	2078.6	1240.95
828.4075	664.2466	2081.7	1243.95
828.5522	666.3556	2067.7	1231.5
828.697	668.4639	2065.5	1223.55
828.8418	670.5716	2074.15	1235.5
828.9865	672.6786	2059.85	1220.25
829.1313	674.785	2056.5	1215.9
829.2761	676.8907	2043.1	1204.5
829.4209	678.9958	2048.9	1211.85
829.5657	681.1002	2055	1213.85
829.7105	683.204	2047.55	1204.55
829.8553	685.3072	2045.6	1202.5
830.0001	687.4097	2044.1	1203.5
830.1449	689.5115	2058.7	1215.35
830.2898	691.6127	2036.1	1193.3
830.4346	693.7132	2036.45	1192.35
830.5794	695.8131	2044.4	1191.9
830.7243	697.9123	2048.6	1204.7
830.8691	700.0109	2035.05	1190.55
831.014	702.1089	2040.65	1195.6
831.1588	704.2061	2059.6	1216.8
831.3037	706.3028	2071.5	1224.95
831.4486	708.3987	2074.1	1229.35
831.5935	710.4941	2070.9	1227.3
831.7383	712.5887	2087.05	1239.55
831.8832	714.6827	2087.35	1239.7
832.0281	716.7761	2081.5	1235.15
832.173	718.8688	2075.5	1228.65
832.3179	720.9608	2080.45	1231.85
832.4628	723.0522	2092.1	1245.75
832.6077	725.1429	2101.4	1254.35
832.7527	727.233	2113.05	1266.6
832.8976	729.3224	2153.95	1306.85
833.0425	731.4112	2184.1	1335.2
833.1874	733.4993	2192.95	1344.85
833.3324	735.5867	2173.05	1323.75
833.4773	737.6735	2126.85	1276.6
833.6222	739.7596	2100	1249.1
833.7672	741.845	2078.45	1229.45
833.9122	743.9298	2086.95	1234.75
834.0571	746.014	2086.95	1238.5
834.2021	748.0974	2101.2	1251.35
834.347	750.1802	2095.05	1243.95
834.492	752.2624	2082.95	1234.65
834.637	754.3439	2066.85	1213.4
834.782	756.4247	2065.25	1206.45
834.9269	758.5048	2045.7	1193.65
835.0719	760.5843	2064.3	1214.4
835.2169	762.6631	2073.15	1222
835.3619	764.7413	2102.05	1250.6
835.5069	766.8188	2150.05	1299.75
835.6519	768.8956	2193	1338.9
835.7969	770.9718	2210.25	1358.4
835.9419	773.0473	2216.3	1364.5
836.0869	775.1221	2195	1340.75
836.232	777.1962	2181.4	1326.9
836.377	779.2697	2216.1	1361.05
836.522	781.3426	2290.1	1426.1
836.667	783.4147	2307.5	1452.3
836.8121	785.4862	2298.35	1446.5
836.9571	787.557	2260.5	1407.25
837.1021	789.6271	2168.95	1313.85
837.2472	791.6966	2095.85	1240.8
837.3922	793.7654	2031.85	1176.8
837.5373	795.8335	2020.15	1164.75
837.6823	797.901	1984.35	1130.35
837.8274	799.9678	1984.4	1126.95
837.9724	802.0339	1965.9	1113.15
838.1175	804.0993	1978.75	1113
838.2626	806.1641	1975.3	1118.3
838.4076	808.2282	1956.75	1101.2
838.5527	810.2916	1937.5	1078.6
838.6978	812.3544	1938.25	1081.8
838.8428	814.4164	1928.8	1072.2
838.9879	816.4778	1941.3	1083
839.133	818.5385	1931	1074.45
839.2781	820.5986	1964.9	1108.95
839.4232	822.658	1993.05	1132.6
839.5682	824.7166	2030	1174.75
839.7133	826.7747	2069.85	1212.7
839.8584	828.832	2114.7	1256.85
840.0035	830.8886	2154.8	1296.45
840.1486	832.9446	2172.1	1314.4
840.2937	834.9999	2151.2	1296.15
840.4388	837.0545	2104.95	1241.6
840.5839	839.1085	2064.7	1204.9
840.729	841.1618	2019.95	1157.4
840.8741	843.2143	1982.3	1123.4
841.0192	845.2662	1964.3	1106.35
841.1643	847.3175	1948.25	1088.95
841.3095	849.368	1940.5	1079.8
841.4546	851.4179	1936.35	1078.05
841.5997	853.467	1930.25	1070.65
841.7448	855.5155	1937.55	1078.35
841.8899	857.5633	1929.1	1069.1
842.0351	859.6105	1933.85	1073.6
842.1802	861.6569	1922.65	1062.8
842.3253	863.7027	1903.9	1043.9
842.4704	865.7478	1902.3	1039.2
842.6156	867.7922	1891.8	1028
842.7607	869.8359	1882.65	1020.95
842.9058	871.8789	1882.25	1019.35
843.0509	873.9212	1910.95	1016.8
843.1961	875.9629	1890.9	1028.9
843.3412	878.0039	1895.7	1031.9
843.4863	880.0441	1899.95	1038.55
843.6315	882.0837	1915.35	1051.95
843.7766	884.1226	1927.6	1063.25
843.9218	886.1609	1947.25	1085.1
844.0669	888.1984	1969.05	1107.75
844.212	890.2352	1993.2	1131.75
844.3572	892.2714	2000.35	1135.05
844.5023	894.3069	1992.15	1127.5
844.6475	896.3416	1956.45	1091.15
844.7926	898.3757	1925.9	1062.1
844.9377	900.4091	1914.75	1050.9
845.0829	902.4418	1925.9	1056.75
845.228	904.4739	1918.45	1052.3
845.3732	906.5052	1931.05	1067.4
845.5183	908.5358	1917.45	1054.6
845.6635	910.5658	1912.25	1046.3
845.8086	912.595	1887.6	1024.15
845.9538	914.6236	1877.45	1013.45
846.0989	916.6515	1843.2	980.3
846.2441	918.6786	1844.85	979.1
846.3892	920.7051	1830.1	962.75
846.5344	922.7309	1828.15	961.95
846.6795	924.756	1814.65	946.6
846.8246	926.7804	1824.3	957.3
846.9698	928.8041	1824.45	956.25
847.1149	930.8272	1850.2	983.55
847.2601	932.8495	1844.95	975
847.4052	934.8711	1852.15	987.15
847.5504	936.892	1848	983.1
847.6955	938.9123	1850.7	984.45
847.8407	940.9318	1876.9	1010.85
847.9858	942.9506	1878.65	1009.55
848.131	944.9688	1865.55	999.25
848.2761	946.9862	1855	987
848.4213	949.003	1831.15	963.95
848.5664	951.019	1816.25	948.35
848.7115	953.0344	1801.95	934.35
848.8567	955.0491	1795.4	928.4
849.0018	957.063	1791.55	923.6
849.147	959.0763	1790.3	926.05
849.2921	961.0888	1779.8	911
849.4373	963.1007	1790.45	921.1
849.5824	965.1119	1774.4	906
849.7275	967.1223	1772.25	904.7
849.8727	969.1321	1773.95	906.15
850.0178	971.1412	1764.45	893.85
850.1629	973.1495	1765.1	895.75
850.3081	975.1572	1799.15	890.85
850.4532	977.1641	1763.1	894.8
850.5983	979.1704	1766.6	898
850.7435	981.1759	1756.2	883.25
850.8886	983.1808	1752.35	881.2
851.0337	985.1849	1760.55	880.35
851.1788	987.1884	1748.05	876.1
851.324	989.1911	1740.6	869.7
851.4691	991.1932	1749.55	877.1
851.6142	993.1945	1746.25	875.1
851.7593	995.1951	1740.75	871.1
851.9045	997.1951	1751.55	874.7
852.0496	999.1943	1740.5	871.55
852.1947	1001.1928	1735	862.3
852.3398	1003.1906	1734.8	863.7
852.4849	1005.1877	1760.9	887.05
852.63	1007.1841	1759	886.95
852.7751	1009.1798	1768.5	899.3
852.9202	1011.1748	1760.5	891.9
853.0653	1013.1691	1740.7	868.15
853.2104	1015.1627	1721.4	849.55
853.3555	1017.1556	1707.1	835.35
853.5006	1019.1477	1692.95	820.45
853.6457	1021.1392	1679.55	809.95
853.7908	1023.1299	1672.1	801.35
853.9359	1025.12	1671.2	798.75
854.081	1027.1093	1672.05	800.65
854.2261	1029.0979	1688	816.55
854.3712	1031.0859	1694.05	822.75
854.5163	1033.0731	1700.65	827.25
854.6613	1035.0596	1696.8	826.85
854.8064	1037.0454	1685.6	814.65
854.9515	1039.0304	1676.35	802.65
855.0965	1041.0148	1667.7	795.8
855.2416	1042.9985	1656.7	781.85
855.3867	1044.9814	1644.45	774.4
855.5317	1046.9636	1648.7	773
855.6768	1048.9452	1640.15	768.4
855.8219	1050.926	1652.6	779.55
855.9669	1052.9061	1660.6	787.3
856.112	1054.8855	1662.35	788.75
856.257	1056.8642	1654.85	782.2
856.4021	1058.8421	1654.45	778.35
856.5471	1060.8194	1652.25	779.6
856.6921	1062.7959	1645.95	771.4
856.8372	1064.7717	1653.2	779.7
856.9822	1066.7469	1648.2	774.85
857.1272	1068.7213	1648.8	773.55
857.2723	1070.695	1652.85	779.45
857.4173	1072.6679	1655.2	782.2
857.5623	1074.6402	1669.45	795.8
857.7073	1076.6117	1679.6	797.85
857.8523	1078.5826	1664.15	787.75
857.9973	1080.5527	1645.85	769.5
858.1423	1082.5221	1617.95	743.75
858.2873	1084.4908	1602.7	729.05
858.4323	1086.4587	1596.85	722.2
858.5773	1088.426	1590.2	715.25
858.7223	1090.3925	1591.9	711.3
858.8673	1092.3584	1581.8	709.4
859.0123	1094.3235	1591.25	717.8
859.1573	1096.2879	1594.15	718.35
859.3022	1098.2515	1608.1	733.5
859.4472	1100.2145	1620.2	746.4
859.5922	1102.1767	1646.15	768.7
859.7371	1104.1382	1663.9	788.4
859.8821	1106.099	1694.8	817
860.027	1108.0591	1719.2	845.4
860.172	1110.0185	1736.3	860.45
860.3169	1111.9771	1762.15	888.55
860.4619	1113.9351	1783.95	908.65
860.6068	1115.8923	1812.85	937.55
860.7517	1117.8488	1835.6	955.35
860.8967	1119.8045	1808.85	933.15
861.0416	1121.7596	1746.35	870.55
861.1865	1123.7139	1690.2	814.95
861.3314	1125.6675	1654.1	779.8
861.4763	1127.6204	1654.85	778.6
861.6212	1129.5726	1658.65	780.85
861.7661	1131.524	1656.35	780.6
861.911	1133.4748	1632.6	756.9
862.0559	1135.4248	1610.05	733.65
862.2008	1137.3741	1580.3	703.05
862.3457	1139.3226	1562.85	686.3
862.4905	1141.2705	1553.5	676.85
862.6354	1143.2176	1561.75	681.25
862.7803	1145.164	1568.65	691.6
862.9251	1147.1097	1564.8	687
863.07	1149.0546	1552.4	675.1
863.2148	1150.9989	1538.2	660.6
863.3597	1152.9424	1522.95	645.15
863.5045	1154.8852	1510.85	635
863.6493	1156.8272	1501.85	626.55
863.7942	1158.7686	1511.05	627.8
863.939	1160.7092	1505	628.5
864.0838	1162.6491	1509.35	630
864.2286	1164.5883	1522.4	645.85
864.3734	1166.5267	1522.6	643.2
864.5182	1168.4644	1537	660.9
864.663	1170.4014	1551.6	669.5
864.8078	1172.3377	1563.55	687.4
864.9526	1174.2732	1602.2	727.2
865.0974	1176.2081	1643.3	765.4
865.2421	1178.1421	1710.9	830.05
865.3869	1180.0755	1764.7	888.45
865.5317	1182.0082	1812.8	933.65
865.6764	1183.9401	1793.85	915.3
865.8212	1185.8713	1737.1	860.65
865.9659	1187.8017	1667.2	789.9
866.1106	1189.7315	1609.6	732.65
866.2554	1191.6605	1591.45	684.6
866.4001	1193.5888	1547.05	668.25
866.5448	1195.5163	1525.3	648.75
866.6895	1197.4432	1504.35	626.05
866.8342	1199.3693	1494.2	615.45
866.9789	1201.2947	1492.1	608.9
867.1236	1203.2193	1483.7	605.5
867.2683	1205.1432	1471.4	594.45
867.413	1207.0664	1475.2	596.65
867.5576	1208.9889	1471	588.5
867.7023	1210.9106	1477.55	599.75
867.847	1212.8316	1465.1	588.1
867.9916	1214.7519	1482.1	593.85
868.1363	1216.6715	1483.2	606.7
868.2809	1218.5903	1489.35	610.75
868.4255	1220.5084	1495.4	616.35
868.5701	1222.4257	1500.15	621.5
868.7148	1224.3424	1504.6	627.1
868.8594	1226.2583	1514.65	630.1
869.004	1228.1735	1533.7	653.05
869.1486	1230.0879	1547.15	668.65
869.2932	1232.0016	1566.8	687.85
869.4377	1233.9146	1589.4	709.2
869.5823	1235.8269	1601.85	724.5
869.7269	1237.7384	1601.7	723.4
869.8715	1239.6492	1601.6	722.45
870.016	1241.5592	1610	729.3
870.1606	1243.4686	1634.9	757.25
870.3051	1245.3772	1669.55	790.75
870.4496	1247.285	1713.8	835.4
870.5941	1249.1922	1754.15	875.35
870.7387	1251.0986	1805.55	927.7
870.8832	1253.0042	1826.65	946.8
871.0277	1254.9092	1877.6	997.2
871.1722	1256.8134	1927.1	1049.65
871.3167	1258.7169	1972.85	1091.35
871.4611	1260.6196	1979.05	1099
871.6056	1262.5216	1992.55	1112.1
871.7501	1264.4229	1974.6	1096.7
871.8945	1266.3234	1961	1080.7
872.039	1268.2232	1935.4	1052.55
872.1834	1270.1223	1907.5	1025.85
872.3278	1272.0207	1880.85	1000
872.4723	1273.9183	1881.15	995.55
872.6167	1275.8151	1874.65	996.2
872.7611	1277.7113	1891.2	1011.65
872.9055	1279.6067	1938.95	1058.25
873.0499	1281.5014	2026.6	1145.85
873.1943	1283.3953	2108.95	1226.45
873.3386	1285.2885	2198.65	1321.35
873.483	1287.181	2287.95	1406.7
873.6274	1289.0727	2316	1437.7
873.7717	1290.9637	2281.95	1401.65
873.9161	1292.854	2233.75	1354.7
874.0604	1294.7435	2156.9	1278.15
874.2047	1296.6323	2097.75	1215.8
874.349	1298.5204	2052.5	1169.1
874.4933	1300.4077	2023.5	1142.05
874.6376	1302.2943	1990.45	1110.65
874.7819	1304.1802	1965.1	1084.5
874.9262	1306.0653	1953.2	1070.4
875.0705	1307.9497	1929.75	1048.9
875.2147	1309.8333	1918	1038.45
875.359	1311.7162	1890.75	1009.65
875.5032	1313.5984	1878.2	996.05
875.6475	1315.4798	1883.85	993.55
875.7917	1317.3605	1866.5	980.35
875.9359	1319.2405	1863.2	980.75
876.0801	1321.1197	1852	970.7
876.2243	1322.9982	1817.45	930.85
876.3685	1324.876	1770.55	892.05
876.5127	1326.753	1719.3	838.3
876.6569	1328.6293	1680.2	797.9
876.801	1330.5048	1640.3	757.95
876.9452	1332.3796	1595.85	714.65
877.0893	1334.2537	1590.6	682.2
877.2335	1336.127	1540	658.15
877.3776	1337.9996	1534.7	653.65
877.5217	1339.8714	1510.9	628.2
877.6658	1341.7426	1547.4	623.1
877.8099	1343.6129	1504.2	623
877.954	1345.4826	1488.2	606.9
878.0981	1347.3515	1487.55	603.3
878.2422	1349.2196	1476.9	594.65
878.3862	1351.087	1475.45	593.15
878.5303	1352.9537	1463.25	582.25
878.6743	1354.8197	1464.2	581.65
878.8184	1356.6849	1465.4	583.6
878.9624	1358.5493	1478.95	598
879.1064	1360.4131	1495.55	615
879.2504	1362.276	1515	633.2
879.3944	1364.1383	1528.7	649.55
879.5384	1365.9998	1537.8	651.1
879.6823	1367.8606	1535.85	655.75
879.8263	1369.7206	1522.6	638.4
879.9702	1371.5799	1521.8	638.5
880.1142	1373.4384	1516.6	634.8
880.2581	1375.2962	1509.15	628.1
880.402	1377.1533	1475.1	593.05
880.5459	1379.0096	1449.65	567.1
880.6898	1380.8652	1423	541.65
880.8337	1382.7201	1413.2	530.55
880.9776	1384.5742	1395.85	513.8
881.1215	1386.4275	1391.1	507.45
881.2653	1388.2802	1377.85	496.45
881.4092	1390.132	1370.65	489.9
881.553	1391.9832	1366.45	484.35
881.6968	1393.8336	1356.65	474.3
881.8406	1395.6832	1356.9	473.85
881.9844	1397.5322	1348.5	466.5
882.1282	1399.3803	1349.15	463.3
882.272	1401.2278	1332.15	449.9
882.4158	1403.0745	1335.6	454
882.5595	1404.9204	1328.1	445.7
882.7033	1406.7656	1322.7	440.1
882.847	1408.6101	1321.15	438
882.9908	1410.4538	1314.35	431.8
883.1345	1412.2968	1321.35	437.9
883.2782	1414.139	1313.9	432.25
883.4219	1415.9805	1321.55	440.6
883.5656	1417.8213	1328.8	438.2
883.7092	1419.6613	1329.65	448.65
883.8529	1421.5006	1353.8	470.85
883.9965	1423.3391	1371.75	489.5
884.1402	1425.1769	1395.45	510.6
884.2838	1427.0139	1431.45	548.05
884.4274	1428.8502	1475.5	590.3
884.571	1430.6858	1513.35	628.65
884.7146	1432.5206	1513.25	630.6
884.8582	1434.3547	1522.6	638.1
885.0018	1436.188	1500.3	617.7
885.1453	1438.0206	1495.1	613.35
885.2889	1439.8524	1487	604.7
885.4324	1441.6835	1485.3	601.55
885.5759	1443.5139	1490.2	603.55
885.7194	1445.3435	1486.9	603.75
885.8629	1447.1724	1492.45	610.3
886.0064	1449.0005	1487.05	605.95
886.1499	1450.8279	1488.95	603
886.2933	1452.6545	1486.8	605.9
886.4368	1454.4804	1481.2	599.6
886.5802	1456.3056	1479.55	588.75
886.7237	1458.13	1465.3	583.4
886.8671	1459.9536	1455.75	573.85
887.0105	1461.7766	1428.15	545.85
887.1539	1463.5987	1415.35	530.05
887.2972	1465.4202	1390.9	506.4
887.4406	1467.2409	1372.45	489.2
887.584	1469.0608	1355.85	472.9
887.7273	1470.88	1345.05	459.25
887.8706	1472.6984	1324.35	442.2
888.0139	1474.5161	1313.65	428.05
888.1572	1476.3331	1306.55	424.6
888.3005	1478.1493	1297.45	413.3
888.4438	1479.9648	1297.3	414.75
888.5871	1481.7795	1292	410.05
888.7303	1483.5935	1296.2	413.2
888.8736	1485.4067	1294.9	413.15
889.0168	1487.2192	1297.1	412.95
889.16	1489.031	1295.9	411.4
889.3032	1490.842	1296	414.1
889.4464	1492.6522	1293.55	409.75
889.5896	1494.4618	1288.1	402.9
889.7327	1496.2705	1286.4	403.35
889.8759	1498.0785	1282.35	399.35
890.019	1499.8858	1271.05	389.35
890.1622	1501.6924	1274.8	391.5
890.3053	1503.4981	1266.4	384.45
890.4484	1505.3032	1266	383.7
890.5914	1507.1075	1264.95	380.55
890.7345	1508.911	1259.5	375.9
890.8776	1510.7138	1256.05	371.35
891.0206	1512.5159	1254	368.7
891.1637	1514.3172	1246.65	363.95
891.3067	1516.1178	1243.8	362.7
891.4497	1517.9176	1238.3	354
891.5927	1519.7166	1239.15	358.15
891.7357	1521.515	1238.65	347.45
891.8786	1523.3126	1227.25	343.15
892.0216	1525.1094	1230.15	344
892.1645	1526.9055	1225.95	343.55
892.3074	1528.7008	1224.25	342.15
892.4503	1530.4954	1222.25	332.75
892.5932	1532.2893	1217.55	335.15
892.7361	1534.0824	1220.55	332.55
892.879	1535.8747	1212.5	329.85
893.0218	1537.6663	1213.2	328.4
893.1647	1539.4572	1212.2	325.4
893.3075	1541.2473	1209.3	324.85
893.4503	1543.0367	1212.3	326.95
893.5931	1544.8253	1214.95	329.7
893.7359	1546.6132	1213.05	327.25
893.8787	1548.4003	1223.3	327.9
894.0214	1550.1867	1222.25	330.95
894.1642	1551.9723	1219.95	330.3
894.3069	1553.7572	1220.4	336.2
894.4496	1555.5414	1237.8	353.7
894.5923	1557.3247	1241.3	357.95
894.735	1559.1074	1263.3	379.8
894.8777	1560.8893	1280.9	401
895.0204	1562.6705	1292.75	408.45
895.163	1564.4509	1302.4	417.9
895.3056	1566.2305	1313.55	430.1
895.4482	1568.0094	1310.95	428.4
895.5908	1569.7876	1309.4	426.35
895.7334	1571.565	1307.75	423.45
895.876	1573.3417	1314.3	430.65
896.0186	1575.1176	1312.05	426.2
896.1611	1576.8928	1316.65	433.25
896.3036	1578.6672	1325.45	441.55
896.4461	1580.4409	1331.9	448
896.5886	1582.2138	1356.8	472
896.7311	1583.986	1367.2	482
896.8736	1585.7575	1384.3	502.75
897.0161	1587.5282	1397.4	515
897.1585	1589.2981	1411.15	527.6
897.3009	1591.0673	1419.35	535.25
897.4433	1592.8358	1409.5	525.85
897.5857	1594.6035	1414.6	531.05
897.7281	1596.3704	1413.75	529.5
897.8705	1598.1366	1408.6	523.45
898.0128	1599.9021	1396.9	512.75
898.1551	1601.6668	1383.55	499
898.2975	1603.4308	1365.9	481.35
898.4398	1605.194	1380.25	490.55
898.5821	1606.9564	1383	497.55
898.7243	1608.7182	1417.6	531.35
898.8666	1610.4791	1455.95	573.2
899.0088	1612.2394	1493.2	609.25
899.1511	1613.9988	1531.8	647.3
899.2933	1615.7576	1570.4	686.3
899.4355	1617.5156	1581.75	692.75
899.5776	1619.2728	1561.65	679.35
899.7198	1621.0293	1514.5	632
899.862	1622.785	1475.35	584.9
900.0041	1624.54	1412.25	524
900.1462	1626.2942	1358.25	473.7
900.2883	1628.0477	1309.85	424.3
900.4304	1629.8005	1282.2	393.2
900.5725	1631.5525	1243.95	360.5
900.7145	1633.3037	1223.5	340.2
900.8566	1635.0542	1201.9	318.25
900.9986	1636.804	1186.6	303.5
901.1406	1638.553	1236.85	287.9
901.2826	1640.3013	1165.8	282.45
901.4245	1642.0488	1159.55	274.6
901.5665	1643.7955	1150.45	268.65
901.7085	1645.5416	1138.35	255.4
901.8504	1647.2868	1136.1	251.55
901.9923	1649.0313	1132.05	248.05
902.1342	1650.7751	1135.7	248.35
902.2761	1652.5181	1124	240.95
902.4179	1654.2604	1123.4	237.9
902.5598	1656.0019	1125.8	242.2
902.7016	1657.7427	1133.4	247.95
902.8434	1659.4828	1148.15	265
902.9852	1661.222	1153.85	268.75
903.127	1662.9606	1170.25	288.2
903.2687	1664.6984	1181.65	296.55
903.4105	1666.4354	1187.95	305
903.5522	1668.1717	1174.6	289.9
903.6939	1669.9072	1155.95	274.15
903.8356	1671.642	1141.35	255.35
903.9773	1673.3761	1119.55	234.15
904.119	1675.1094	1103.05	220.2
904.2606	1676.8419	1100.8	216.9
904.4022	1678.5737	1093.75	209.05
904.5439	1680.3048	1084.4	200.55
904.6855	1682.0351	1080.1	195.4
904.827	1683.7646	1083.3	197.2
904.9686	1685.4934	1072.35	190.65
905.1101	1687.2215	1071.8	185.85
905.2517	1688.9488	1072.2	189.05
905.3932	1690.6754	1068.2	186.05
905.5347	1692.4012	1071.8	187.75
905.6761	1694.1263	1068.85	184.1
905.8176	1695.8506	1070.6	186.4
905.9591	1697.5742	1066.3	182.9
906.1005	1699.297	1063.8	181.45
906.2419	1701.0191	1066.1	182.4
906.3833	1702.7404	1060.1	178.25
906.5246	1704.461	1057.45	171.8
906.666	1706.1808	1056.55	171.5
906.8073	1707.8999	1057.65	170.3
906.9487	1709.6182	1057.55	171.6
907.09	1711.3358	1055.9	172.2
907.2313	1713.0527	1049.45	166.95
907.3725	1714.7688	1057.5	167.45
907.5138	1716.4841	1051.45	166.5
907.655	1718.1987	1053.9	165.1
907.7962	1719.9126	1047.4	163.85
907.9374	1721.6257	1052.2	166.15
908.0786	1723.338	1049.75	163.4
908.2198	1725.0496	1047.3	160.5
908.3609	1726.7605	1048.5	163.95
908.502	1728.4706	1049.1	163.9
908.6431	1730.18	1042.15	154.75
908.7842	1731.8886	1046.05	160.75
908.9253	1733.5964	1053	165.7
909.0664	1735.3036	1046.65	157.15
909.2074	1737.0099	1046.1	163.25
909.3484	1738.7156	1046.9	163.4
909.4894	1740.4204	1050.15	163.25
909.6304	1742.1246	1044.85	161.45
909.7714	1743.8279	1040.75	157.9
909.9123	1745.5306	1044.4	160.3
910.0532	1747.2325	1040.3	155.35
910.1941	1748.9336	1037.7	151.65
910.335	1750.634	1041.35	156
910.4759	1752.3336	1042.15	158.2
910.6168	1754.0325	1038.55	156.65
910.7576	1755.7307	1041.85	155.5
910.8984	1757.4281	1037.3	153.7
911.0392	1759.1247	1047.75	155.9
911.18	1760.8206	1041.75	151.1
911.3208	1762.5158	1043	154
911.4615	1764.2102	1036.4	153.05
911.6022	1765.9039	1034	148.9
911.7429	1767.5968	1038.2	155.3
911.8836	1769.289	1043.85	158.6
912.0243	1770.9804	1034.75	149.55
912.1649	1772.6711	1039.65	157.45
912.3056	1774.361	1040.5	155.7
912.4462	1776.0502	1035.7	150.4
912.5868	1777.7386	1037.1	148.65
912.7274	1779.4263	1029.15	144.2
912.8679	1781.1132	1033.95	147.95
913.0084	1782.7994	1036.55	148.55
913.149	1784.4849	1032.1	147
913.2895	1786.1696	1054.35	150.9
913.4299	1787.8535	1031.55	147.2
913.5704	1789.5367	1030.65	145.4
913.7108	1791.2192	1029.55	146.4
913.8513	1792.9009	1044.2	143.95
913.9917	1794.5818	1035	149.55
914.132	1796.2621	1030.45	146.8
914.2724	1797.9415	1031.45	146.75
914.4128	1799.6202	1028.5	143.8
914.5531	1801.2982	1024.95	140.9
914.6934	1802.9755	1030.5	144.7
914.8337	1804.6519	1030.35	146.9
914.9739	1806.3277	1026.65	142.35
915.1142	1808.0027	1023.55	140.8
915.2544	1809.6769	1027.25	142.1
915.3946	1811.3504	1025.5	139.4
915.5348	1813.0231	1024.4	138.55
915.675	1814.6951	1027.3	141.85
915.8151	1816.3664	1029.7	142.1
915.9553	1818.0369	1022.75	139
916.0954	1819.7067	1023.15	138.3
916.2355	1821.3757	1021.6	134.45
916.3755	1823.044	1023.1	138.3
916.5156	1824.7115	1022	137.4
916.6556	1826.3783	1020.1	135.95
916.7956	1828.0443	1019.55	136.75
916.9356	1829.7096	1022.9	138.35
917.0756	1831.3741	1026.2	139.15
917.2155	1833.0379	1021.4	136.05
917.3555	1834.701	1026.65	138.45
917.4954	1836.3633	1019.7	132.85
917.6353	1838.0248	1020.9	133.25
917.7751	1839.6856	1021.95	137.15
917.915	1841.3457	1019	135.35
918.0548	1843.005	1016.65	132.5
918.1946	1844.6636	1020.55	137.7
918.3344	1846.3214	1020.45	132.85
918.4742	1847.9785	1015.2	131.5
918.6139	1849.6349	1021.7	136.9
918.7537	1851.2904	1024.05	129.3
918.8934	1852.9453	1015.5	130.3
919.0331	1854.5994	1017.9	131.55
919.1727	1856.2528	1019.1	130.35
919.3124	1857.9054	1013.75	130.2
919.452	1859.5572	1012.95	128.2
919.5916	1861.2083	1016.55	130.65
919.7312	1862.8587	1015.6	132.15
919.8708	1864.5084	1012.9	127.95
920.0103	1866.1572	1012.8	131.5
920.1498	1867.8054	1013.6	130.2
920.2893	1869.4528	1017.15	132.3
920.4288	1871.0994	1013.15	127.5
920.5683	1872.7453	1012.65	127.15
920.7077	1874.3905	1029.6	127.85
920.8471	1876.0349	1012.9	128.55
920.9865	1877.6786	1014.8	130.3
921.1259	1879.3215	1012.25	129
921.2653	1880.9637	1010.95	127.7
921.4046	1882.6051	1009.1	125.85
921.5439	1884.2458	1009.35	122.1
921.6832	1885.8858	1014.7	130
921.8225	1887.525	1013.65	128.7
921.9617	1889.1634	1003.5	120.8
922.101	1890.8011	1010.4	124
922.2402	1892.4381	1007.5	125.3
922.3794	1894.0743	1008	123.15
922.5185	1895.7098	1010.6	125.2
922.6577	1897.3446	1007.25	121.55
922.7968	1898.9786	1012	123.05
922.9359	1900.6118	1002.05	116.5
923.075	1902.2443	1010.9	125.55
923.214	1903.8761	1006.4	122.35
923.3531	1905.5071	1006.25	120.85
923.4921	1907.1374	1005.05	120
923.6311	1908.7669	1003.15	118.5
923.77	1910.3957	1001.45	116.9
923.909	1912.0237	1002.05	116.05
924.0479	1913.651	1002.3	114.55
924.1868	1915.2776	1005.25	122.3
924.3257	1916.9034	1002.1	119.75
924.4646	1918.5285	1004	121.4
924.6034	1920.1528	1002.45	116.2
924.7422	1921.7764	1000.6	116.9
924.881	1923.3992	1002.6	119.1
925.0198	1925.0213	1002.05	117.15
925.1586	1926.6427	999.25	115.5
925.2973	1928.2633	1108.35	116.3
925.436	1929.8832	1003.2	118.05
925.5747	1931.5023	999.25	114.95
925.7134	1933.1207	998.25	115.4
925.852	1934.7383	997.6	112.15
925.9906	1936.3552	1000.6	116.75
926.1292	1937.9714	998.15	113.95
926.2678	1939.5868	1000.95	115.3
926.4064	1941.2015	1000.75	115.35
926.5449	1942.8154	995.15	111.35
926.6834	1944.4286	996.6	110.2
926.8219	1946.041	1017.65	108.75
926.9604	1947.6528	1003	112.95
927.0988	1949.2637	994.9	109.85
927.2372	1950.8739	995.3	109.85
927.3756	1952.4834	996.85	110.8
927.514	1954.0921	1000.75	113.8
927.6523	1955.7001	1001.6	112.1
927.7907	1957.3074	996.5	111.9
927.929	1958.9139	999.75	116.45
928.0673	1960.5197	993.85	106.8
928.2055	1962.1247	994.2	107.4
928.3438	1963.729	990.35	105.95
928.482	1965.3325	1016.45	109.7
928.6202	1966.9353	991.4	108.4
928.7584	1968.5374	994.7	107.95
928.8965	1970.1387	996.85	109.3
929.0346	1971.7393	993.75	107.65
929.1727	1973.3392	991.6	106.6
929.3108	1974.9383	989.7	108.5
929.4489	1976.5366	986.1	100.7
929.5869	1978.1342	992.7	108.55
929.7249	1979.7311	996.8	110.4
929.8629	1981.3273	992	104.75
930.0009	1982.9227	992.55	106.15
930.1388	1984.5173	990	105.4
930.2767	1986.1112	989.8	105.55
930.4146	1987.7044	989.45	106.15
930.5525	1989.2968	994.25	109.55
930.6904	1990.8885	992.95	103.55
930.8282	1992.4795	990.15	104
930.966	1994.0697	983.9	98.65
931.1038	1995.6592	990.5	105.3
931.2415	1997.2479	988.45	103.8
931.3793	1998.8359	988.35	104.05
931.517	2000.4232	990.1	103.85
931.6547	2002.0097	986.7	102.75
931.7923	2003.5955	991.2	106.35
931.93	2005.1805	988.65	100.8
932.0676	2006.7648	985.65	100.7
932.2052	2008.3484	991.4	104.3
932.3427	2009.9312	987.5	100.3
932.4803	2011.5133	987.65	104.4
932.6178	2013.0946	985	100.95
932.7553	2014.6752	984.6	99.9
932.8928	2016.2551	988.75	103.7
933.0302	2017.8342	986.8	102.45
933.1676	2019.4126	987.4	103
933.305	2020.9902	984.3	98.9
933.4424	2022.5672	989.15	101
933.5798	2024.1433	994.7	103.25
933.7171	2025.7188	987.55	104.65
933.8544	2027.2935	983.9	98.8
933.9917	2028.8674	984.6	98.5
934.129	2030.4406	981.85	99.75
934.2662	2032.0131	981.15	97.6
934.4034	2033.5849	993.35	101.5
934.5406	2035.1559	986.95	102.15
934.6778	2036.7261	986.55	103.1
934.8149	2038.2957	985.3	101.5
934.952	2039.8645	983.85	100.4
935.0891	2041.4325	986.8	100.35
935.2262	2042.9998	984.05	100.7
935.3632	2044.5664	985.9	96.95
935.5002	2046.1323	984.1	98.9
935.6372	2047.6974	983.4	98.1
935.7742	2049.2617	984.8	99.45
935.9111	2050.8254	1019.85	102.7
936.048	2052.3883	986.9	101.3
936.1849	2053.9504	985.6	101.5
936.3218	2055.5118	986.4	100.5
936.4586	2057.0725	989.95	98.1
936.5955	2058.6325	983.75	97.65
936.7323	2060.1917	984.5	100.2
936.869	2061.7502	985.1	96.85
937.0058	2063.3079	983.25	98.95
937.1425	2064.8649	989.9	101.25
937.2792	2066.4212	982.55	95.1
937.4159	2067.9767	983.1	99.4
937.5525	2069.5315	984.65	99.5
937.6891	2071.0856	984.5	99.85
937.8257	2072.6389	984.45	96.4
937.9623	2074.1915	983.1	99.6
938.0989	2075.7433	985.7	98.9
938.2354	2077.2945	981.65	97.8
938.3719	2078.8448	984	99.9
938.5084	2080.3945	981.9	95.5
938.6448	2081.9434	980.7	95.8
938.7812	2083.4916	982.55	98.65
938.9176	2085.039	981.1	94
939.054	2086.5857	984.9	99.55
939.1903	2088.1317	982	99.05
939.3267	2089.677	984.45	100.4
939.463	2091.2215	979.75	95.4
939.5992	2092.7652	983.05	97.4
939.7355	2094.3083	982.8	97.9
939.8717	2095.8506	984.2	99.3
940.0079	2097.3921	983.7	100.05
940.1441	2098.933	979.45	94.4
940.2802	2100.4731	982.6	98.5
940.4163	2102.0124	1003.2	102.1
940.5524	2103.5511	978.45	93.45
940.6885	2105.089	983.45	98
940.8245	2106.6261	985.6	102.95
940.9606	2108.1626	984.1	99.85
941.0965	2109.6983	1010.9	96.6
941.2325	2111.2332	983.35	97.25
941.3684	2112.7675	984.2	98.75
941.5044	2114.301	981.15	96.35
941.6403	2115.8337	980.6	97.95
941.7761	2117.3657	980.2	97
941.912	2118.897	982.4	95.85
942.0478	2120.4276	986.95	96.4
942.1835	2121.9575	979.55	93.15
942.3193	2123.4866	995.85	95.65
942.455	2125.0149	983.7	95.65
942.5907	2126.5426	981.7	96.95
942.7264	2128.0695	984.3	94.6
942.8621	2129.5956	983.5	99.1
942.9977	2131.1211	985.5	97.45
943.1333	2132.6458	979.7	94.9
943.2689	2134.1698	978.35	95.45
943.4044	2135.693	980.95	93.15
943.54	2137.2155	983.35	95.5
943.6755	2138.7373	979.85	92.9
943.8109	2140.2584	978.85	94.75
943.9464	2141.7787	987.85	97.7
944.0818	2143.2983	979.25	96
944.2172	2144.8171	978.8	95.7
944.3526	2146.3353	982.6	95
944.4879	2147.8527	978.4	92.35
944.6232	2149.3693	981.4	97.05
944.7585	2150.8853	978.45	94.6
944.8938	2152.4005	977.4	92.25
945.029	2153.9149	977.45	91.75
945.1642	2155.4287	975.95	91.45
945.2994	2156.9417	979.2	93.05
945.4346	2158.454	981.55	93.25
945.5697	2159.9655	978.6	91.25
945.7048	2161.4764	977.35	93
945.8399	2162.9865	979.4	93.25
945.9749	2164.4958	981.2	94.35
946.1099	2166.0045	981.65	94.15
946.2449	2167.5124	976.55	92.45
946.3799	2169.0195	976.55	92.5
946.5148	2170.526	979.75	93.8
946.6498	2172.0317	978.95	93.05
946.7846	2173.5367	978.85	93.2
946.9195	2175.0409	977.3	94.6
947.0543	2176.5445	976.5	93.4
947.1891	2178.0473	978.3	95.3
947.3239	2179.5494	980.05	90.8
947.4587	2181.0507	977.25	91.2
947.5934	2182.5513	975.55	89.9
947.7281	2184.0512	974.7	92.35
947.8628	2185.5504	974.95	90.9
947.9974	2187.0488	975.8	91.75
948.132	2188.5465	977.65	93.25
948.2666	2190.0435	973.5	87.7
948.4012	2191.5397	976.2	89.8
948.5357	2193.0353	972.5	87.35
948.6702	2194.5301	977.4	93.6
948.8047	2196.0241	977.8	94.05
948.9392	2197.5175	973.15	87.75
949.0736	2199.0101	977.15	88.35
949.208	2200.502	975.25	92.5
949.3424	2201.9931	974	89.25
949.4767	2203.4835	971.95	87.25
949.611	2204.9733	977.1	86.45
949.7453	2206.4622	976.6	95.55
949.8796	2207.9505	974.6	86.35
950.0138	2209.438	971.7	87.45
950.148	2210.9248	975.75	90.2
950.2822	2212.4109	971.85	87.65
950.4164	2213.8962	971.65	86.9
950.5505	2215.3809	974.7	87.95
950.6846	2216.8648	970.9	86.05
950.8186	2218.3479	973.25	84.65
950.9527	2219.8304	976.75	91.25
951.0867	2221.3121	974.9	90.2
951.2207	2222.7931	971.75	87.05
951.3546	2224.2733	974.75	89.25
951.4886	2225.7529	967.35	80.85
951.6225	2227.2317	974.6	85.55
951.7563	2228.7098	967.9	82.35
951.8902	2230.1872	970.1	84.55
952.024	2231.6638	970.2	85.35
952.1578	2233.1397	972.1	84
952.2916	2234.6149	967.25	79.4
952.4253	2236.0894	969.85	84.05
952.559	2237.5632	976.6	81.8
952.6927	2239.0362	967.15	81.15
952.8263	2240.5085	967.65	83.45
952.9599	2241.9801	967.65	82.8
953.0935	2243.4509	967.65	83.4
953.2271	2244.921	962.15	77.65
953.3606	2246.3904	973.5	88.55
953.4941	2247.8591	966.85	82.35
953.6276	2249.3271	967.1	83.75
953.7611	2250.7943	966.45	82.2
953.8945	2252.2608	965.2	82.45
954.0279	2253.7266	967.85	84.05
954.1612	2255.1917	967.5	82.75
954.2946	2256.656	966.45	79.75
954.4279	2258.1197	967.6	82.85
954.5612	2259.5826	966.1	78.4
954.6944	2261.0447	969.6	83.15
954.8276	2262.5062	968.15	82.95
954.9608	2263.9669	967.9	82.9
955.094	2265.4269	965.5	82.75
955.2271	2266.8862	963.05	77.25
955.3602	2268.3448	963.35	77.7
955.4933	2269.8026	962.65	77.6
955.6264	2271.2598	964.55	81.5
955.7594	2272.7162	961.7	77
955.8924	2274.1719	964.2	79.8
956.0253	2275.6268	962.8	77
956.1583	2277.0811	960.95	75.6
956.2912	2278.5346	963.25	78.9
956.4241	2279.9874	962.5	76.1
956.5569	2281.4395	959.7	75.5
956.6897	2282.8908	966.6	76.9
956.8225	2284.3414	965.3	78.2
956.9553	2285.7914	959.2	76.4
957.088	2287.2406	965.15	78.6
957.2207	2288.689	961.65	77.65
957.3534	2290.1368	965.05	79.55
957.486	2291.5838	967.45	82.15
957.6186	2293.0302	963.5	76.15
957.7512	2294.4758	959.3	74.75
957.8838	2295.9206	964.7	77.5
958.0163	2297.3648	959.55	77.35
958.1488	2298.8082	962.5	75.75
958.2813	2300.251	960.7	78.15
958.4137	2301.693	961.7	72.55
958.5461	2303.1343	960.2	73.95
958.6785	2304.5748	960.9	76.1
958.8108	2306.0147	959.6	75.6
958.9432	2307.4538	958.6	71.6
959.0754	2308.8922	955.9	73.35
959.2077	2310.3299	959.35	74.8
959.3399	2311.7669	959.5	74
959.4721	2313.2031	958.45	75.65
959.6043	2314.6387	959.9	75.4
959.7365	2316.0735	959.2	75.75
959.8686	2317.5076	960.9	75.75
960.0006	2318.941	961.3	76.8
960.1327	2320.3737	958.4	73.2
960.2647	2321.8056	959.95	73.5
960.3967	2323.2369	961.15	76.55
960.5287	2324.6674	965.2	76.9
960.6606	2326.0972	965.5	79.65
960.7925	2327.5263	963.8	80.7
960.9244	2328.9547	966.7	82
961.0562	2330.3823	968.3	84.95
961.1881	2331.8092	967.15	78.85
961.3198	2333.2355	956.65	71.4
961.4516	2334.661	959	75.3
961.5833	2336.0858	955.25	67.5
961.715	2337.5098	955.3	70.25
961.8467	2338.9332	957.95	73.3
961.9783	2340.3558	958.55	69.65
962.1099	2341.7778	956.6	72.35
962.2415	2343.199	957.55	70.95
962.373	2344.6195	952.8	67.9
962.5045	2346.0393	953.9	69
962.636	2347.4583	956.3	69.3
962.7675	2348.8767	955.9	70.5
962.8989	2350.2943	955.2	69.55
963.0303	2351.7113	958.6	72.6
963.1617	2353.1275	953.7	69.3
963.293	2354.543	960.95	66.75
963.4243	2355.9578	952.8	66.15
963.5556	2357.3718	953.1	67.7
963.6868	2358.7852	955.95	66.75
963.818	2360.1978	953.95	69.2
963.9492	2361.6098	953.6	69.1
964.0803	2363.021	956.45	68.6
964.2114	2364.4315	951.2	66.4
964.3425	2365.8413	954.9	67.6
964.4736	2367.2504	951.5	67.2
964.6046	2368.6587	949.6	61.7
964.7356	2370.0664	951.55	67
964.8666	2371.4733	951.1	64.85
964.9975	2372.8795	951.8	68.25
965.1284	2374.285	951.5	69.1
965.2593	2375.6899	949.8	66.3
965.3901	2377.0939	951.3	68.5
965.5209	2378.4973	948.2	64.2
965.6517	2379.9	952.9	67
965.7825	2381.3019	946.2	62.1
965.9132	2382.7032	953.7	68.75
966.0439	2384.1037	947.05	63.95
966.1745	2385.5035	948.4	64.05
966.3051	2386.9027	946.65	61.2
966.4357	2388.3011	953	65.55
966.5663	2389.6987	948	63.15
966.6968	2391.0957	946.3	60.85
966.8273	2392.492	946.35	64.15
966.9578	2393.8876	947.7	60.9
967.0882	2395.2824	947.7	63.95
967.2186	2396.6765	945.9	62.4
967.349	2398.07	945.85	62.2
967.4793	2399.4627	948.4	61.95
967.6097	2400.8547	945.1	59.85
967.7399	2402.246	952.8	62.05
967.8702	2403.6366	947.85	63.6
968.0004	2405.0265	945.45	58.85
968.1306	2406.4156	949.65	62.7
968.2607	2407.8041	951.15	61.05
968.3909	2409.1918	952.75	67.5
968.521	2410.5789	948.35	63
968.651	2411.9652	946.05	58
968.781	2413.3508	943.35	58.85
968.911	2414.7358	945.25	59.3
969.041	2416.12	944.8	61.25
969.1709	2417.5035	941.6	58.2
969.3008	2418.8863	946.15	60.75
969.4307	2420.2684	947	63.45
969.5606	2421.6497	947.8	60.85
969.6904	2423.0304	944.55	60.3
969.8201	2424.4104	943.75	57.65
969.9499	2425.7896	950.15	57.95
970.0796	2427.1682	943.25	59.35
970.2093	2428.546	944.5	57.55
970.3389	2429.9232	947.5	60.8
970.4685	2431.2996	943.65	61.05
970.5981	2432.6753	943.8	59.9
970.7277	2434.0503	944.35	60.4
970.8572	2435.4246	941.65	57.25
970.9867	2436.7982	946.05	59.45
971.1161	2438.1711	940.45	57.35
971.2456	2439.5433	943.4	57.15
971.375	2440.9148	948.4	59.45
971.5043	2442.2856	942.15	57.15
971.6336	2443.6557	941.4	56.1
971.7629	2445.025	940.4	55.4
971.8922	2446.3937	942	58.65
972.0214	2447.7617	941.75	53.4
972.1506	2449.1289	940.2	57.05
972.2798	2450.4955	944.85	56.4
972.4089	2451.8613	939.65	56.7
972.538	2453.2265	939.15	52.8
972.6671	2454.5909	939.85	54.05
972.7961	2455.9546	941.1	58.05
972.9251	2457.3177	937.35	53.05
973.0541	2458.68	939.45	53.45
973.1831	2460.0416	938.45	53.75
973.312	2461.4025	941.85	55.4
973.4408	2462.7627	950.25	53.85
973.5697	2464.1222	939.9	55.25
973.6985	2465.4811	943.5	57.55
973.8273	2466.8392	940.45	56.35
973.956	2468.1966	941.3	54.3
974.0847	2469.5533	944.1	58.45
974.2134	2470.9093	939.55	52.5
974.3421	2472.2645	942.2	56.05
974.4707	2473.6191	936.3	51
974.5993	2474.973	938.5	55.15
974.7278	2476.3262	941.2	52.95
974.8563	2477.6787	941.1	57.3
974.9848	2479.0305	939.8	55
975.1132	2480.3816	940.65	54.15
975.2417	2481.7319	941.75	57.15
975.37	2483.0816	939.05	51.8
975.4984	2484.4306	941.5	54.4
975.6267	2485.7789	937.2	54.1
975.755	2487.1264	940.4	54.75
975.8833	2488.4733	939.3	55.5
976.0115	2489.8195	953.15	52
976.1397	2491.165	937.3	48
976.2678	2492.5097	938.35	52.4
976.3959	2493.8538	936.1	49.4
976.524	2495.1972	936.8	51.3
976.6521	2496.5398	934.9	49.2
976.7801	2497.8818	935.5	49.75
976.9081	2499.2231	935.1	50.6
977.036	2500.5637	936.55	51.1
977.164	2501.9035	936.7	49.35
977.2918	2503.2427	941.65	53.8
977.4197	2504.5812	934.95	50.5
977.5475	2505.919	934.15	46.65
977.6753	2507.256	936.15	51.4
977.8031	2508.5924	930.75	45
977.9308	2509.9281	939.25	48.8
978.0585	2511.2631	934.95	50.1
978.1861	2512.5974	934.15	49.6
978.3137	2513.9309	936.05	51.1
978.4413	2515.2638	958.75	45.9
978.5689	2516.596	933.25	48.3
978.6964	2517.9275	933.25	46.1
978.8239	2519.2583	933.2	47.7
978.9513	2520.5884	935.5	51.5
979.0788	2521.9178	929.35	42.45
979.2062	2523.2465	932.95	49.3
979.3335	2524.5745	933.3	46.85
979.4608	2525.9018	930.5	44.95
979.5881	2527.2284	930.65	47.75
979.7154	2528.5543	932.15	48.95
979.8426	2529.8796	932.3	46
979.9698	2531.2041	932.2	46.1
980.0969	2532.5279	931.4	48.05
980.224	2533.851	928.7	45.25
980.3511	2535.1735	928.7	43.9
980.4781	2536.4952	931.8	46.75
980.6052	2537.8163	930.85	45.25
980.7321	2539.1366	931.2	48.4
980.8591	2540.4562	932.65	47.95
980.986	2541.7752	930.6	46.3
981.1129	2543.0935	929.15	44.8
981.2397	2544.411	932.9	47.85
981.3665	2545.7279	927.75	42.9
981.4933	2547.0441	928.75	43.35
981.62	2548.3596	935.45	48.95
981.7467	2549.6744	930.1	46.9
981.8734	2550.9885	931.7	45.8
982.0001	2552.3019	928.95	43.8
982.1267	2553.6146	930.55	45.8
982.2532	2554.9266	928.9	42.75
982.3798	2556.2379	929.4	42.85
982.5063	2557.5485	929	45.2
982.6327	2558.8585	937.2	43.75
982.7592	2560.1677	934.3	44.95
982.8856	2561.4762	928.25	44.85
983.0119	2562.7841	932.25	46.1
983.1383	2564.0913	926.85	44.25
983.2646	2565.3977	927.15	42.3
983.3908	2566.7035	928.15	45.1
983.517	2568.0086	929.85	44.2
983.6432	2569.313	931.5	48.7
983.7694	2570.6167	931	42.05
983.8955	2571.9197	927.55	42.75
984.0216	2573.222	931.8	44.7
984.1476	2574.5236	928.25	43.4
984.2737	2575.8246	931.9	42.3
984.3996	2577.1248	930.75	43.45
984.5256	2578.4244	926.9	42.05
984.6515	2579.7232	925.7	40.4
984.7774	2581.0214	958.85	47.45
984.9032	2582.3189	930.55	47.55
985.029	2583.6157	931.25	41.55
985.1548	2584.9118	928.3	44.75
985.2806	2586.2072	924.2	40.15
985.4063	2587.5019	927.45	43.4
985.5319	2588.7959	926.1	40.35
985.6576	2590.0893	929.75	42.65
985.7832	2591.3819	925	41.3
985.9087	2592.6739	926.5	43.75
986.0343	2593.9652	929.45	42.6
986.1597	2595.2557	927.6	43.65
986.2852	2596.5456	928.1	39.35
986.4106	2597.8348	926.25	42.35
986.536	2599.1234	927.95	43.4
986.6614	2600.4112	928.2	44.25
986.7867	2601.6983	929.2	40.15
986.912	2602.9848	925.05	40.45
987.0372	2604.2705	932.4	40.1
987.1624	2605.5556	924.9	40.3
987.2876	2606.84	925.85	39.55
987.4128	2608.1237	925.85	41
987.5379	2609.4067	923.5	40.05
987.6629	2610.689	934.8	41.45
987.788	2611.9707	927.25	38.1
987.913	2613.2516	930.15	42
988.0379	2614.5319	925.9	41.8
988.1629	2615.8115	923.25	41.3
988.2878	2617.0903	924.75	37.05
988.4126	2618.3685	924.95	42.2
988.5375	2619.6461	923.4	37.9
988.6622	2620.9229	923.45	39.4
988.787	2622.199	922.65	36.45
988.9117	2623.4745	924.6	39.6
989.0364	2624.7493	920.4	35.7
989.161	2626.0234	920.7	35.35
989.2857	2627.2968	924.55	41.45
989.4102	2628.5695	924.5	37.4
989.5348	2629.8415	923.45	39
989.6593	2631.1128	925.5	41.7
989.7837	2632.3835	922.75	39.05
989.9082	2633.6535	921.1	38.05
990.0326	2634.9228	922.5	39.75
990.1569	2636.1914	921.95	37.75
990.2812	2637.4593	926.6	36.35
990.4055	2638.7265	922.85	37.65
990.5298	2639.9931	920.8	34.6
990.654	2641.259	923.35	37
990.7782	2642.5242	920.7	34.6
990.9023	2643.7887	920.95	34.8
991.0264	2645.0525	921.35	37.2
991.1505	2646.3156	921.1	33.65
991.2745	2647.5781	922	37
991.3985	2648.8398	920.25	36.9
991.5225	2650.1009	959.65	38.9
991.6464	2651.3613	921.1	35.75
991.7703	2652.6211	921.05	34.55
991.8942	2653.8801	917.75	35.35
992.018	2655.1385	922.95	35.2
992.1418	2656.3961	919.95	37.55
992.2655	2657.6531	919	34.1
992.3892	2658.9094	920.9	37.5
992.5129	2660.1651	918.65	34.65
992.6366	2661.42	918.65	35.1
992.7602	2662.6743	918.25	29.95
992.8837	2663.9279	919.65	35.05
993.0073	2665.1808	919.05	33.3
993.1307	2666.433	921.6	35.75
993.2542	2667.6846	921.1	36.2
993.3776	2668.9354	922.65	35.35
993.501	2670.1856	920.55	35.75
993.6244	2671.4351	920.25	35.75
993.7477	2672.6839	920.3	34.2
993.8709	2673.9321	918.2	34.85
993.9942	2675.1795	918.3	34.2
994.1174	2676.4263	919.9	34.1
994.2405	2677.6724	915.65	30.1
994.3637	2678.9179	919	31.75
994.4868	2680.1626	917.3	33.6
994.6098	2681.4067	921.35	36.2
994.7328	2682.6501	917.85	33.85
994.8558	2683.8928	917.15	30.85
994.9788	2685.1348	917.15	35
995.1017	2686.3761	917.7	34.1
995.2245	2687.6168	918.7	33.15
995.3474	2688.8568	916.75	33.55
995.4702	2690.0961	915.35	31.45
995.5929	2691.3348	921.2	37.3
995.7156	2692.5727	917.05	32.35
995.8383	2693.81	917.1	32
995.961	2695.0466	916.8	35.35
996.0836	2696.2826	916.95	28.85
996.2062	2697.5178	934.9	32.25
996.3287	2698.7524	914.5	31.5
996.4512	2699.9863	920.15	33.05
996.5737	2701.2195	915.85	33.8
996.6961	2702.452	919.3	33.55
996.8185	2703.6839	917.5	33
996.9408	2704.9151	918.35	34.7
997.0631	2706.1456	916.75	30.95
997.1854	2707.3755	919.45	33.85
997.3077	2708.6046	920.15	33.8
997.4299	2709.8331	919.75	34.15
997.552	2711.0609	916.5	30.5
997.6742	2712.2881	918.05	32.65
997.7963	2713.5145	922.3	36.65
997.9183	2714.7403	918	32.9
998.0403	2715.9654	920.65	34.75
998.1623	2717.1899	932.3	34.2
998.2842	2718.4136	916.35	30.85
998.4062	2719.6367	922	37.75
998.528	2720.8591	927.8	36.4
998.6498	2722.0809	920.55	34.95
998.7716	2723.3019	921.8	32.5
998.8934	2724.5223	922.85	36.6
999.0151	2725.7421	919.35	35.75
999.1368	2726.9611	922.5	35.3
999.2584	2728.1795	925.55	34.85
999.38	2729.3972	919.95	36.7
999.5016	2730.6142	931.8	34.8
999.6231	2731.8306	919.1	31.7
999.7446	2733.0462	919.25	32.95
999.8661	2734.2612	923.5	34.5
999.9875	2735.4756	917.8	30.8
1000.1089	2736.6892	917	31.45
1000.2302	2737.9022	916.45	34.1
1000.3515	2739.1145	914.55	30.5
1000.4728	2740.3262	922.5	29.8
1000.594	2741.5372	914.75	30.2
1000.7152	2742.7475	915.65	29.9
1000.8363	2743.9571	916.95	32.15
1000.9575	2745.1661	914.2	25.05
1001.0785	2746.3744	915.25	29.2
1001.1996	2747.582	911.4	26.1
1001.3206	2748.7889	914.1	27.7
1001.4415	2749.9952	912.8	27.25
1001.5625	2751.2008	911.35	26.05
1001.6833	2752.4057	913.4	24.8
1001.8042	2753.61	914.05	28
1001.925	2754.8136	914.15	27.8
1002.0458	2756.0165	910.25	25.35
1002.1665	2757.2188	909.75	26.45
1002.2872	2758.4204	909.05	24.95
1002.4078	2759.6213	911.55	23.5
1002.5285	2760.8215	914.3	23.1
1002.649	2762.0211	914.45	27.6
1002.7696	2763.22	917.65	29.75
1002.8901	2764.4182	911.15	25.55
1003.0106	2765.6158	911.6	25.35
1003.131	2766.8127	912.25	28.55
1003.2514	2768.009	912.95	27.1
1003.3717	2769.2045	911.5	27.2
1003.492	2770.3994	912.65	23.1
1003.6123	2771.5936	912.7	25.4
1003.7325	2772.7872	908.2	25.5
1003.8527	2773.9801	910.4	24.1
1003.9729	2775.1723	924.95	24.65
1004.093	2776.3639	906.95	20.9
1004.2131	2777.5548	913.1	26.65
1004.3331	2778.745	912.05	28.45
1004.4531	2779.9346	909.5	26.15
1004.5731	2781.1235	910.4	24.7
1004.693	2782.3117	908.7	25.8
1004.8129	2783.4992	909.9	26.4
1004.9328	2784.6861	910.9	26.55
1005.0526	2785.8723	910.85	24.4
1005.1723	2787.0579	911.05	25.15
1005.2921	2788.2428	910.85	24.9
1005.4118	2789.427	908.9	22.9
1005.5314	2790.6106	908.8	23.95
1005.651	2791.7935	911.25	26.4
1005.7706	2792.9757	908.85	26.5
1005.8902	2794.1573	910.05	21.2
1006.0097	2795.3382	907.5	24.85
1006.1291	2796.5184	909.25	28.65
1006.2485	2797.698	908.05	21.1
1006.3679	2798.8769	908.55	23.15
1006.4873	2800.0551	908.65	23.45
1006.6066	2801.2327	913.8	25.5
1006.7258	2802.4096	907.8	24.85
1006.8451	2803.5859	909.8	23.95
1006.9642	2804.7615	911.75	26.45
1007.0834	2805.9364	909	26.85
1007.2025	2807.1106	909.85	25.1
1007.3216	2808.2842	910	25.85
1007.4406	2809.4572	912.25	28.1
1007.5596	2810.6294	913.95	28.45
1007.6785	2811.801	913	30.45
1007.7975	2812.972	912.4	27.7
1007.9163	2814.1423	914.95	29.8
1008.0352	2815.3119	916.2	32.2
1008.154	2816.4808	916.7	33.4
1008.2727	2817.6491	917.15	33.25
1008.3914	2818.8167	918.65	32.7
1008.5101	2819.9837	925.95	37.35
1008.6288	2821.15	921.05	36.1
1008.7474	2822.3157	926.15	43.75
1008.8659	2823.4807	926	42.1
1008.9844	2824.645	932.8	45.5
1009.1029	2825.8086	934.2	50.15
1009.2214	2826.9716	936.35	52.95
1009.3398	2828.134	939.15	54.05
1009.4581	2829.2957	944.5	60.65
1009.5764	2830.4567	948	65.3
1009.6947	2831.617	945.95	61.1
1009.813	2832.7767	951.25	68.3
1009.9312	2833.9358	949.4	62.75
1010.0493	2835.0941	951.35	65.2
1010.1675	2836.2519	946	61.75
1010.2855	2837.4089	948.75	63.05
1010.4036	2838.5653	945.55	62.3
1010.5216	2839.7211	941.45	58.55
1010.6396	2840.8761	943.3	59.3
1010.7575	2842.0306	940.5	57.15
1010.8754	2843.1843	940.95	54.75
1010.9932	2844.3374	943.2	59.1
1011.111	2845.4899	940.55	56
1011.2288	2846.6417	940.5	54
1011.3465	2847.7928	943.2	60.2
1011.4642	2848.9433	943.15	57.65
1011.5818	2850.0931	941.15	57.7
1011.6995	2851.2422	948.65	62.1
1011.817	2852.3907	945.75	61.45
1011.9345	2853.5385	947.35	59.65
1012.052	2854.6857	974.05	63.35
1012.1695	2855.8323	945.05	60.35
1012.2869	2856.9781	949.45	64.05
1012.4042	2858.1233	948.2	64.95
1012.5216	2859.2679	949.15	64.2
1012.6389	2860.4118	951.15	65.3
1012.7561	2861.555	961.65	71.95
1012.8733	2862.6976	956.9	70.85
1012.9905	2863.8395	956.7	74.2
1013.1076	2864.9808	957.55	71.65
1013.2247	2866.1214	957.25	74.05
1013.3417	2867.2614	961.25	77.7
1013.4587	2868.4007	958.55	70.6
1013.5757	2869.5393	960.6	74
1013.6926	2870.6773	957.9	70.95
1013.8095	2871.8146	963.75	74.4
1013.9263	2872.9513	963.6	75.2
1014.0431	2874.0874	962.05	76.75
1014.1599	2875.2227	962.65	76.25
1014.2766	2876.3574	963.8	79.4
1014.3933	2877.4915	963.5	79.1
1014.51	2878.6249	962.6	77.25
1014.6266	2879.7577	967.7	84.55
1014.7431	2880.8898	982.85	87.1
1014.8596	2882.0212	972.05	88.85
1014.9761	2883.152	966.1	80.95
1015.0925	2884.2821	969.05	84.9
1015.2089	2885.4116	970.05	85.35
1015.3253	2886.5405	972.1	85.55
1015.4416	2887.6686	976.25	87.95
1015.5579	2888.7962	970.5	88
1015.6741	2889.923	973.95	91.1
1015.7903	2891.0493	971.85	87.6
1015.9065	2892.1748	974.8	90.55
1016.0226	2893.2997	974.35	89
1016.1387	2894.424	971.25	88.25
1016.2547	2895.5476	974.2	89.3
1016.3707	2896.6706	968.9	85.2
1016.4866	2897.7929	972.8	86.85
1016.6025	2898.9145	974.25	89.3
1016.7184	2900.0355	975.1	87.85
1016.8342	2901.1559	969.8	83.8
1016.95	2902.2756	975.15	86.65
1017.0658	2903.3946	971.05	86.4
1017.1815	2904.513	976.8	87.9
1017.2971	2905.6308	969.3	85.55
1017.4127	2906.7479	969.8	82.75
1017.5283	2907.8643	969.5	82.95
1017.6439	2908.9801	970.2	84.45
1017.7594	2910.0953	970.45	86.5
1017.8748	2911.2098	973.65	85.25
1017.9902	2912.3236	979.8	85.6
1018.1056	2913.4368	970.55	82.15
1018.2209	2914.5494	970.5	83.25
1018.3362	2915.6613	975.8	86.05
1018.4515	2916.7725	968.3	81.55
1018.5667	2917.8831	968.05	81.45
1018.6819	2918.9931	967.5	79.55
1018.797	2920.1024	967.35	79
1018.9121	2921.211	961.45	78.05
1019.0271	2922.319	959.4	75.4
1019.1421	2923.4264	962.7	78.6
1019.2571	2924.5331	959.95	77.7
1019.372	2925.6391	957	72.85
1019.4869	2926.7445	957.2	75.35
1019.6017	2927.8493	960.7	73.75
1019.7165	2928.9534	963.75	76.1
1019.8313	2930.0569	966.7	78.3
1019.946	2931.1597	965.9	79.35
1020.0606	2932.2619	963.1	76.95
1020.1753	2933.3634	963.5	80.35
1020.2899	2934.4643	973.8	82.15
1020.4044	2935.5645	968.6	77.45
1020.5189	2936.6641	969.65	81.25
1020.6334	2937.763	964.3	80.7
1020.7478	2938.8613	963.35	77.7
1020.8622	2939.959	972.6	83.05
1020.9765	2941.056	960.4	74
1021.0908	2942.1523	962.3	78.6
1021.2051	2943.248	958	72.95
1021.3193	2944.3431	954.9	69.95
1021.4334	2945.4375	951.5	64.5
1021.5476	2946.5313	945.45	61.3
1021.6617	2947.6244	943.2	57.8
1021.7757	2948.7169	942.4	56.9
1021.8897	2949.8087	940.5	56.95
1022.0037	2950.8999	935.5	50.95
1022.1176	2951.9904	933.1	48.2
1022.2315	2953.0803	933.8	48.6
1022.3453	2954.1696	928.25	42.5
1022.4591	2955.2582	926.55	42.35
1022.5728	2956.3462	927.4	41.35
1022.6865	2957.4335	928.8	41.85
1022.8002	2958.5202	927.5	40.55
1022.9138	2959.6062	928.1	43.9
1023.0274	2960.6916	921.65	38.05
1023.141	2961.7764	926.3	41.85
1023.2545	2962.8605	924.65	39.3
1023.3679	2963.9439	924.85	40.2
1023.4813	2965.0267	925.4	40.1
1023.5947	2966.1089	945.25	37.15
1023.708	2967.1905	923.9	37.7
1023.8213	2968.2714	922	38.55
1023.9346	2969.3516	923	39.05
1024.0478	2970.4312	930.5	39.2
1024.1609	2971.5102	924.35	40.4
1024.274	2972.5885	922.4	38.05
1024.3871	2973.6662	926.9	37.1
1024.5002	2974.7432	923.4	40.6
1024.6132	2975.8196	924.25	38.7
1024.7261	2976.8954	925.75	40.85
1024.839	2977.9705	924.3	39.5
1024.9519	2979.045	923.2	37.8
1025.0647	2980.1188	921.25	35.7
1025.1775	2981.192	922.85	39.25
1025.2902	2982.2645	923.5	36.4
1025.4029	2983.3364	924.55	38.7
1025.5156	2984.4077	921.45	38.1
1025.6282	2985.4783	927.45	36.95
1025.7407	2986.5483	918.55	33.25
1025.8532	2987.6177	915.8	32.2
1025.9657	2988.6864	917.5	31.15
1026.0782	2989.7545	918.75	33.05
1026.1906	2990.8219	915.1	30.05
1026.3029	2991.8887	916.7	29.7
1026.4152	2992.9548	914.95	28.5
1026.5275	2994.0204	910.2	26.1
1026.6397	2995.0852	910.8	27.1
1026.7519	2996.1495	911.3	24.15
1026.864	2997.2131	908.65	23.4
1026.9761	2998.276	907.2	20.7
1027.0882	2999.3383	910.05	23.85
1027.2002	3000.4	906.55	21.3
1027.3122	3001.4611	903.9	20.4
1027.4241	3002.5215	904.7	19.3
1027.536	3003.5812	904.3	18.7
1027.6478	3004.6404	903.6	19.85
1027.7596	3005.6989	904.45	17
1027.8714	3006.7567	901.75	14.85
1027.9831	3007.8139	932.8	13.25
1028.0947	3008.8705	903.05	17.05
1028.2064	3009.9264	918.75	16.8
1028.3179	3010.9818	902.35	16.85
1028.4295	3012.0364	900.05	15.2
1028.541	3013.0905	900.65	14.1
1028.6524	3014.1439	899.8	14
1028.7638	3015.1966	898.9	14.95
1028.8752	3016.2487	900.25	16.3
1028.9865	3017.3002	906.55	14.8
1029.0978	3018.3511	897.2	13.85
1029.209	3019.4013	899.9	15
1029.3202	3020.4509	898.95	14
1029.4314	3021.4998	899.1	14.25
1029.5425	3022.5481	900	15.85
1029.6535	3023.5958	900.05	15.05
1029.7645	3024.6428	902.8	18.35
1029.8755	3025.6892	900.15	14.9
1029.9864	3026.735	897.1	12.15
1030.0973	3027.7802	901.05	15.95
1030.2082	3028.8247	898.6	14.15
1030.319	3029.8685	898.5	13.1
1030.4297	3030.9118	899.75	14.55
1030.5404	3031.9544	895.65	11.95
1030.6511	3032.9963	896.15	10.1
1030.7617	3034.0376	898.45	14.05
1030.8723	3035.0783	901.25	12.7
1030.9829	3036.1184	901.75	16.4
1031.0934	3037.1578	898.2	16.35
1031.2038	3038.1966	900.55	14.7
1031.3142	3039.2348	897.1	12.45
1031.4246	3040.2723	907.15	15.1
1031.5349	3041.3092	897.85	13.3
1031.6452	3042.3455	899.55	15.25
1031.7554	3043.3811	900.65	15.65
1031.8656	3044.4161	899.45	14.2
1031.9758	3045.4505	899.35	16.35
1032.0859	3046.4842	900.45	16.35
1032.1959	3047.5173	899.5	16.15
1032.3059	3048.5498	898.7	15.5
1032.4159	3049.5816	898.2	13.1
1032.5258	3050.6128	900.15	15.1
1032.6357	3051.6434	900.3	14.6
1032.7455	3052.6734	897.6	10.6
1032.8553	3053.7027	899.6	14.75
1032.9651	3054.7314	896.55	9.45
1033.0748	3055.7594	900.05	16.4
1033.1845	3056.7868	899.3	12.25
1033.2941	3057.8136	899.7	14.75
1033.4037	3058.8398	897.7	13.5
1033.5132	3059.8653	900.75	15.1
1033.6227	3060.8902	900.4	15.85
1033.7321	3061.9145	899.35	13.75
1033.8415	3062.9381	897.65	12.55
1033.9509	3063.9612	914.2	13
1034.0602	3064.9835	899.75	15.15
1034.1694	3066.0053	903.3	19.7
1034.2787	3067.0264	900	16
1034.3878	3068.0469	900.6	13.95
1034.497	3069.0668	904.75	16.9
1034.6061	3070.086	901.15	16.3
1034.7151	3071.1046	900.9	14.3
1034.8241	3072.1226	898.35	12.15
1034.9331	3073.1399	898.25	13.3
1035.042	3074.1567	898.2	14.35
1035.1508	3075.1727	900.75	16
1035.2597	3076.1882	899.15	14.85
1035.3684	3077.203	898.5	14.95
1035.4772	3078.2173	899.1	13.35
1035.5859	3079.2308	902.1	14.85
1035.6945	3080.2438	899.25	13.85
1035.8031	3081.2561	896.4	12.45
1035.9117	3082.2678	895.5	11.5
1036.0202	3083.2789	899.15	14.35
1036.1286	3084.2893	895.85	13.4
1036.2371	3085.2991	895.95	9.9
1036.3454	3086.3083	900.15	8.8
1036.4538	3087.3169	897.6	12.15
1036.562	3088.3248	897.75	11.8
1036.6703	3089.3321	898.2	11.25
1036.7785	3090.3388	895.4	12
1036.8866	3091.3449	895.05	11.05
1036.9948	3092.3503	897.65	10.2
1037.1028	3093.3551	894.2	10.15
1037.2108	3094.3593	891.9	7.8
1037.3188	3095.3629	895.6	13
1037.4267	3096.3658	896.65	11.1
1037.5346	3097.3681	894.25	8.15
1037.6425	3098.3698	896.15	11.3
1037.7503	3099.3708	896.3	10.1
1037.858	3100.3713	895.2	10.55
1037.9657	3101.3711	894.85	8.75
1038.0734	3102.3702	1032.9	6.6
1038.181	3103.3688	898.4	11.8
1038.2886	3104.3667	894.2	10.65
1038.3961	3105.364	893.05	9.15
1038.5036	3106.3607	896.55	9.75
1038.611	3107.3568	895.05	11
1038.7184	3108.3522	893.05	9.45
1038.8257	3109.347	895.15	8.45
1038.933	3110.3412	897.8	6.8
1039.0403	3111.3348	895.7	10.25
1039.1475	3112.3277	893.6	9.35
1039.2547	3113.32	892.05	7.35
1039.3618	3114.3117	893.4	6.55
1039.4689	3115.3028	893.75	8.9
1039.5759	3116.2932	895.65	7.9
1039.6829	3117.2831	898.8	8.45
1039.7898	3118.2723	893.55	9.15
1039.8967	3119.2608	892.45	8.2
1040.0035	3120.2488	892.2	7.45
1040.1103	3121.2361	892.75	7.1
1040.2171	3122.2229	893.9	10
1040.3238	3123.209	892.1	4.7
1040.4305	3124.1944	892.65	8.8
1040.5371	3125.1793	893.5	6.1
1040.6437	3126.1635	892.7	9.05
1040.7502	3127.1471	890.8	6.4
1040.8567	3128.1301	892	9
1040.9631	3129.1125	890.6	5.2
1041.0695	3130.0942	892.9	9.15
1041.1759	3131.0753	900.95	6.85
1041.2822	3132.0558	895.9	8.3
1041.3884	3133.0357	893.5	9.15
1041.4946	3134.015	892.85	6.95
1041.6008	3134.9936	892.45	6
1041.7069	3135.9716	913.35	8.25
1041.813	3136.949	893.8	7.45
1041.919	3137.9258	910.45	5.4
1042.025	3138.902	899.7	7.95
1042.1309	3139.8775	889.55	4.8
1042.2368	3140.8524	889.8	5.8
1042.3427	3141.8267	893.7	6.05
1042.4485	3142.8004	891.75	7.05
1042.5542	3143.7735	898.3	6.9
1042.6599	3144.7459	893	5.65
1042.7656	3145.7178	893.8	7.9
1042.8712	3146.689	890.55	7.9
1042.9768	3147.6596	893.75	7.25
1043.0823	3148.6295	892.1	6.65
1043.1878	3149.5989	891.6	5.5
1043.2932	3150.5676	888.65	5.95
1043.3986	3151.5357	888.7	5.1
1043.5039	3152.5032	890	6.2
1043.6092	3153.4701	891.05	7.15
1043.7145	3154.4364	893.25	6.75
1043.8197	3155.402	889.65	6.15
1043.9248	3156.367	893.55	7
1044.03	3157.3315	910.45	7.9
1044.135	3158.2952	889.85	3.55
1044.24	3159.2584	890.75	6.5
1044.345	3160.221	890.55	5.75
1044.4499	3161.1829	890.95	7.75
1044.5548	3162.1442	887.8	2.8
1044.6596	3163.105	890.85	6.5
1044.7644	3164.065	891.65	5.3
1044.8692	3165.0245	893.35	4.2
1044.9739	3165.9834	890.55	5.9
1045.0785	3166.9416	889.75	3.85
1045.1831	3167.8993	889.9	5.9
1045.2877	3168.8563	891.5	5.2
1045.3922	3169.8127	890.1	6.1
1045.4966	3170.7684	890.7	6.3
1045.6011	3171.7236	891.35	5.5
1045.7054	3172.6782	890.25	4
1045.8098	3173.6321	892.7	6.65
1045.914	3174.5854	895.6	7.7
1046.0183	3175.5381	889.9	4.25
1046.1224	3176.4902	891.2	7.05
1046.2266	3177.4417	889.1	5.5
1046.3307	3178.3926	889.25	3.8
1046.4347	3179.3428	890.3	9.25
1046.5387	3180.2924	890.55	6.55
1046.6427	3181.2415	890.95	6.25
1046.7466	3182.1899	891.6	4.35
1046.8504	3183.1377	889.65	3.55
1046.9542	3184.0848	892	5.05
1047.058	3185.0314	891.2	3.35
1047.1617	3185.9773	891.4	4.25
1047.2654	3186.9227	892.8	6.7
1047.369	3187.8674	891.45	8.5
1047.4726	3188.8115	893.05	7.1
1047.5761	3189.755	889.6	3.9
1047.6796	3190.6979	891.3	6.85
1047.783	3191.6402	890.25	8.3
1047.8864	3192.5818	890.15	5.05
1047.9898	3193.5229	899.95	1
1048.0931	3194.4633	889.7	4.25
1048.1963	3195.4031	889.15	3.35
1048.2995	3196.3423	889.25	5.95
1048.4027	3197.2809	892.2	5.3
1048.5058	3198.2189	889.95	5.95
1048.6089	3199.1563	908	6.45
1048.7119	3200.0931	888.8	3.6
1048.8148	3201.0292	890	7.95
1048.9178	3201.9648	889.45	4.15
1049.0206	3202.8997	889.7	1.9
1049.1235	3203.834	888.45	3.45
1049.2262	3204.7677	888.5	3.45
1049.329	3205.7008	890.85	5.25
1049.4317	3206.6333	888.4	4.8
1049.5343	3207.5652	890.8	4.15
1049.6369	3208.4964	890.8	6.05
1049.7394	3209.4271	888.55	3.4
1049.8419	3210.3571	889.5	5.25
1049.9444	3211.2865	889.3	2.45
1050.0468	3212.2154	890.05	3.45
1050.1491	3213.1436	893.45	5.4
1050.2514	3214.0712	896.7	4.3
1050.3537	3214.9982	889.3	5.8
1050.4559	3215.9246	891.35	5.4
1050.5581	3216.8503	887.25	4.85
1050.6602	3217.7755	890.5	4.05
1050.7623	3218.7001	890.55	6.6
1050.8643	3219.624	889.3	3.7
1050.9663	3220.5473	889.45	4.65
1051.0682	3221.4701	890.15	2.05
1051.1701	3222.3922	889.55	3
1051.2719	3223.3137	889.65	5.7
1051.3737	3224.2346	888.85	2.9
1051.4754	3225.1549	889	4.2
1051.5771	3226.0746	888.65	4.3
1051.6788	3226.9937	889.2	4.2
1051.7804	3227.9121	887.75	3.05
1051.8819	3228.83	887.95	3.3
1051.9834	3229.7473	889.4	2.95
1052.0849	3230.6639	891.05	5
1052.1863	3231.5799	889.4	4.2
1052.2876	3232.4954	891.5	7.7
1052.3889	3233.4102	891.4	7.7
1052.4902	3234.3244	889.55	3.15
1052.5914	3235.238	888.7	6.15
1052.6926	3236.151	912.7	2.8
1052.7937	3237.0634	890.1	7
1052.8948	3237.9752	888.15	3.4
1052.9958	3238.8864	889.3	5.05
1053.0968	3239.797	886.2	3.4
1053.1977	3240.7069	890.05	5.8
1053.2986	3241.6163	890.85	5.35
1053.3994	3242.5251	888.95	4.05
1053.5002	3243.4332	887.5	2.1
1053.6009	3244.3408	888.1	1.6
1053.7016	3245.2477	887.95	4.2
1053.8022	3246.154	888.7	3.95
1053.9028	3247.0598	887.6	3
1054.0034	3247.9649	890.1	5.7
1054.1039	3248.8694	887.9	4.05
1054.2043	3249.7733	890.75	4.6
1054.3047	3250.6766	888.25	1.35
1054.4051	3251.5793	889.6	4.1
1054.5054	3252.4814	886.8	1.5
1054.6056	3253.3829	889.75	3.85
1054.7058	3254.2838	889.1	4.9
1054.806	3255.1841	885.95	1.9
1054.9061	3256.0838	888.75	5.05
1055.0061	3256.9829	886.65	1.15
1055.1062	3257.8814	890.45	1.05
1055.2061	3258.7792	887.95	2.75
1055.306	3259.6765	889.55	3.35
1055.4059	3260.5731	890	4.95
1055.5057	3261.4692	888.6	3.7
1055.6055	3262.3647	891.65	6.3
1055.7052	3263.2595	886.25	1.35
1055.8049	3264.1538	887.4	3.7
1055.9045	3265.0474	888.1	1.45
1056.0041	3265.9404	888.5	4.05
1056.1036	3266.8329	887.1	2
1056.2031	3267.7247	897.45	3.25
1056.3025	3268.616	889	5.15
1056.4019	3269.5066	889.6	4.75
1056.5013	3270.3966	888.95	3.05
1056.6005	3271.286	887.2	2.85
