Software Version:	3.9.2.0
Unit SN:	10000200
Spectrometer SN:	6960
Date:	3/14/2024 2:32:13 PM
Data Line Index:	25
Spectral Points:	2048
Integration time (ms):	125
Averages:	20
Delay (ms):	30000
Sequence Number:	1
Processing:	dark subtract
Laser Power (mW):	305
Laser Current (mA):	824
Laser Diode Temp (C):	25
Laser Case Temp (C):	29.3
System Temp (C):	29.3
Spectrometer Temp (C):	27.1
CCD Temp (C):	0.002
Secondary Temp (C):	20.001
Heatsink Temp (C):	25.287
CCDPCB Temp (C):	38.53
SecondaryPCB Temp (C):	36.174

Wavelength	RamanShift	Raw Counts	Dark Subtracted
787.061	30.1047	457.3	49.65
787.2016	32.3739	457.45	52.45
787.3422	34.6426	462.35	53.8
787.4828	36.9109	466.7	58.7
787.6235	39.1787	476.35	62.95
787.7642	41.4461	485.55	67.65
787.9049	43.7131	493.55	72
788.0456	45.9796	503.95	80.2
788.1863	48.2456	513.3	83.25
788.3271	50.5112	521.5	86.15
788.4679	52.7764	526.7	88.95
788.6087	55.0411	536.55	96.8
788.7496	57.3054	549.15	103.05
788.8904	59.5692	562.2	113.7
789.0313	61.8326	575.85	122.15
789.1722	64.0955	587.75	130.85
789.3132	66.3579	600.95	138.9
789.4541	68.6199	620.7	155.25
789.5951	70.8815	651.6	182.15
789.7361	73.1426	722.45	249.45
789.8771	75.4032	898.1	420.45
790.0181	77.6634	1355.6	873.05
790.1592	79.9231	2418	1931.6
790.3003	82.1824	4769.6	4276.25
790.4414	84.4412	9108.1	8597
790.5825	86.6995	15247.6	14718.95
790.7237	88.9574	21481.5	20938.8
790.8648	91.2148	25921	25369.65
791.006	93.4717	28109.15	27549.25
791.1472	95.7282	28697.55	28133
791.2885	97.9842	28700.4	28132.65
791.4297	100.2398	28235.7	27667.25
791.571	102.4949	27710.85	27137.55
791.7123	104.7495	26977.8	26402.15
791.8536	107.0036	26165.6	25586.9
791.9949	109.2573	25372.7	24800.45
792.1363	111.5105	24545.3	23966.25
792.2777	113.7632	23720.2	23139.4
792.4191	116.0154	23014.3	22421.45
792.5605	118.2672	22515.4	21930.5
792.7019	120.5185	21919.7	21334.15
792.8434	122.7693	21465.05	20878.4
792.9849	125.0197	21117.5	20526.65
793.1264	127.2696	20862.4	20270.95
793.2679	129.519	20727.45	20134
793.4094	131.7679	20529	19931.15
793.551	134.0163	20433.85	19831.8
793.6926	136.2642	20251.75	19644.5
793.8342	138.5117	20121.4	19504.55
793.9758	140.7587	19910.95	19299.1
794.1175	143.0052	19745.55	19134.9
794.2591	145.2512	19535.35	18924.3
794.4008	147.4967	19341.85	18730.25
794.5425	149.7417	19157.2	18540.9
794.6842	151.9863	19045.95	18426.3
794.826	154.2304	18990.75	18367.55
794.9677	156.4739	18843.85	18213.75
795.1095	158.717	18801.3	18175.25
795.2513	160.9596	18660.05	18027
795.3931	163.2017	18386.6	17751.35
795.535	165.4433	18084.05	17448.35
795.6768	167.6844	17770.15	17134.5
795.8187	169.925	17407.15	16766.15
795.9606	172.1651	16985.7	16340.9
796.1025	174.4047	16699.4	16050.05
796.2445	176.6439	16386.05	15734.8
796.3864	178.8825	16111.25	15459.4
796.5284	181.1206	15915.75	15261.25
796.6704	183.3582	15696.65	15036.6
796.8124	185.5954	15574.25	14911.85
796.9544	187.832	15464.25	14799.6
797.0965	190.0681	15403.9	14734.7
797.2386	192.3037	15408.85	14741.3
797.3806	194.5388	15369.55	14697.2
797.5228	196.7734	15387.25	14710.3
797.6649	199.0075	15455.1	14772.35
797.807	201.2411	15571.95	14887.8
797.9492	203.4742	15639.4	14955.55
798.0914	205.7068	15753.55	15070.7
798.2336	207.9389	15817.35	15130.8
798.3758	210.1704	15991.8	15301.85
798.518	212.4015	16100.2	15412.95
798.6603	214.632	16292.7	15600.9
798.8025	216.862	16492.3	15806.2
798.9448	219.0915	16663.5	15986
799.0871	221.3205	16892.5	16220.5
799.2294	223.549	17206.95	16538.95
799.3718	225.777	17582.05	16915
799.5141	228.0044	18044.3	17373.45
799.6565	230.2314	18613.7	17942.35
799.7989	232.4578	19134.8	18464
799.9413	234.6837	19600.6	18922
800.0837	236.909	19851.6	19175.65
800.2262	239.1339	19817.85	19114.75
800.3687	241.3582	19514.5	18826.95
800.5111	243.582	19074.65	18361.45
800.6536	245.8053	18608	17900.05
800.7961	248.0281	18190.4	17485.1
800.9387	250.2503	17788.1	17078.2
801.0812	252.472	17573.4	16862.7
801.2238	254.6932	17444.3	16731.25
801.3664	256.9139	17248.3	16530.55
801.509	259.134	17172.15	16452.35
801.6516	261.3536	17036.25	16318.7
801.7942	263.5727	17020.85	16304.85
801.9369	265.7912	16843.3	16125.4
802.0795	268.0092	16771.55	16052.65
802.2222	270.2267	16636.05	15915.7
802.3649	272.4436	16550.4	15829.6
802.5076	274.6601	16493.3	15763.5
802.6504	276.8759	16448	15724.1
802.7931	279.0913	16439.25	15715.2
802.9359	281.3061	16452.4	15726.05
803.0787	283.5204	16574.9	15842.65
803.2215	285.7341	16706.1	15973.15
803.3643	287.9473	16897.2	16152.85
803.5071	290.16	17201	16460
803.6499	292.3721	17557.1	16826.55
803.7928	294.5837	18033.8	17300.05
803.9357	296.7947	18453.5	17717.05
804.0786	299.0052	18666.95	17930.95
804.2215	301.2152	18541.9	17804.75
804.3644	303.4246	18109.1	17375.1
804.5074	305.6334	17505.4	16770.55
804.6503	307.8418	16854.15	16115.1
804.7933	310.0495	16416.95	15679.1
804.9363	312.2568	16115.4	15375.65
805.0793	314.4635	15878.95	15137.85
805.2223	316.6696	15817.85	15075
805.3653	318.8752	15777.15	15027.7
805.5084	321.0802	15845.35	15100.6
805.6514	323.2847	15984.4	15238.75
805.7945	325.4887	16050.7	15306.8
805.9376	327.692	16009.6	15263.75
806.0807	329.8949	15855.3	15108.75
806.2238	332.0972	15569.55	14821.2
806.367	334.2989	15243.25	14490.55
806.5101	336.5001	14931.85	14179
806.6533	338.7007	14683.6	13929.7
806.7965	340.9008	14548.8	13793.65
806.9397	343.1003	14431.9	13672.55
807.0829	345.2992	14350.9	13590.5
807.2261	347.4976	14347.05	13590.25
807.3693	349.6955	14315.55	13553.35
807.5126	351.8927	14384.8	13619.05
807.6559	354.0895	14401.7	13628.3
807.7991	356.2856	14393.15	13626.15
807.9424	358.4812	14384.65	13620.8
808.0857	360.6763	14411	13645.5
808.2291	362.8707	14353.05	13586.85
808.3724	365.0646	14381.95	13609.55
808.5158	367.258	14396.4	13622.5
808.6591	369.4508	14398.45	13625.15
808.8025	371.643	14462.1	13685
808.9459	373.8346	14398.7	13623.8
809.0893	376.0257	14362.2	13581.05
809.2327	378.2162	14248.6	13467.95
809.3762	380.4062	14112.85	13330.05
809.5196	382.5956	13956.3	13170.2
809.6631	384.7844	13834.55	13051.4
809.8066	386.9726	13690.35	12906.45
809.9501	389.1603	13636.75	12853.9
810.0936	391.3474	13650.5	12817.1
810.2371	393.5339	13592.55	12811.8
810.3806	395.7199	13510.35	12730.25
810.5241	397.9052	13495.85	12721.5
810.6677	400.09	13506.1	12729.9
810.8113	402.2743	13537.6	12764.8
810.9548	404.4579	13570.05	12797.6
811.0984	406.641	13710.45	12934.6
811.2421	408.8235	13949.8	13173.55
811.3857	411.0054	14319.8	13541.3
811.5293	413.1868	14800.65	14019.7
811.673	415.3675	15246.85	14466.25
811.8166	417.5477	15463.7	14683.1
811.9603	419.7273	15542.95	14757.8
812.104	421.9064	15452.45	14658.45
812.2477	424.0848	15283.15	14492.8
812.3914	426.2627	15048.65	14256.95
812.5351	428.4399	14671.2	13879.2
812.6788	430.6166	14318.9	13524.35
812.8226	432.7928	13907.15	13111.9
812.9663	434.9683	13539.4	12742
813.1101	437.1432	13301.65	12500.85
813.2539	439.3176	13139.1	12338.45
813.3977	441.4914	12983.65	12185.55
813.5415	443.6645	12937.35	12134.75
813.6853	445.8371	12884.7	12082.85
813.8291	448.0091	12796.1	11998
813.973	450.1806	12748.35	11946.85
814.1168	452.3514	12671.1	11865.3
814.2607	454.5216	12656.7	11845
814.4046	456.6913	12574.7	11769.75
814.5485	458.8603	12590.15	11786
814.6924	461.0288	12640.65	11837.95
814.8363	463.1967	12694.35	11890
814.9802	465.3639	12805.85	11998
815.1241	467.5306	12940.7	12133.25
815.2681	469.6967	13127.95	12322.4
815.412	471.8622	13304.75	12496.1
815.556	474.0271	13480.45	12672.05
815.7	476.1914	13575.4	12767.65
815.844	478.3551	13565.05	12754.95
815.988	480.5182	13441.65	12630.6
816.132	482.6807	13417.35	12605.95
816.276	484.8426	13464.2	12656.85
816.4201	487.0039	13707.1	12898.35
816.5641	489.1647	14075.1	13264.35
816.7082	491.3248	14583.1	13770.95
816.8522	493.4843	14807.4	13995.2
816.9963	495.6432	14852.45	14040.85
817.1404	497.8015	14725.5	13909.15
817.2845	499.9592	14771.25	13959.45
817.4286	502.1163	14731.35	13915.85
817.5727	504.2728	14563.35	13745.05
817.7168	506.4287	14230.35	13414.35
817.861	508.5839	13737.65	12921.1
818.0051	510.7386	13371.5	12559.05
818.1493	512.8927	13090.35	12270.4
818.2935	515.0461	12917.1	12101.1
818.4377	517.199	12782.4	11964.55
818.5818	519.3512	12641.55	11822.65
818.726	521.5029	12663.15	11836.55
818.8703	523.6539	12678.65	11859.75
819.0145	525.8043	12688.75	11867.3
819.1587	527.9541	12718.35	11896.5
819.303	530.1033	12736.45	11914.5
819.4472	532.2519	12832.7	12009.4
819.5915	534.3999	12992.85	12169.8
819.7357	536.5472	13330.3	12508.95
819.88	538.694	13865.45	13043.95
820.0243	540.8401	14558.7	13733.7
820.1686	542.9856	15166.1	14340.45
820.3129	545.1305	15409.35	14582.55
820.4572	547.2748	15241.4	14416.1
820.6016	549.4185	14815	13988.45
820.7459	551.5615	14343.7	13519.1
820.8902	553.704	14138.4	13312.65
821.0346	555.8458	13961.7	13138.95
821.1789	557.987	13891.35	13067.4
821.3233	560.1276	13739.25	12912.3
821.4677	562.2675	13610.95	12786.5
821.6121	564.4069	13481.15	12655.6
821.7565	566.5456	13327.9	12501.25
821.9009	568.6837	13154.05	12327.25
822.0453	570.8212	12916.85	12090.5
822.1897	572.958	12686.65	11858.4
822.3342	575.0942	12509.25	11681.5
822.4786	577.2299	12380.35	11551.65
822.6231	579.3648	12408.45	11577.65
822.7675	581.4992	12520.1	11689.95
822.912	583.6329	12753.55	11925.85
823.0565	585.766	13004.3	12172.5
823.201	587.8985	13153.5	12326.65
823.3454	590.0304	13170.85	12314.15
823.4899	592.1616	13101.55	12266.9
823.6345	594.2922	12979.4	12147.25
823.779	596.4222	12808.75	11975.5
823.9235	598.5515	12672.6	11839.2
824.068	600.6802	12456.2	11624.8
824.2126	602.8083	12264.5	11430.75
824.3571	604.9358	12160.8	11328.6
824.5017	607.0626	12080.95	11250.05
824.6462	609.1888	11961.1	11125.5
824.7908	611.3144	11857.5	11020.4
824.9354	613.4393	11672.75	10839.35
825.08	615.5636	11491.2	10656.8
825.2246	617.6873	11333.3	10498.25
825.3692	619.8103	11277.5	10439.3
825.5138	621.9327	11181.75	10341.45
825.6584	624.0544	11178.4	10345.25
825.803	626.1756	11183.3	10346.75
825.9477	628.2961	11173.5	10334.9
826.0923	630.4159	11114	10275.95
826.237	632.5351	11021.55	10183.3
826.3816	634.6537	10979.5	10142.85
826.5263	636.7716	10939.4	10099.85
826.6709	638.8889	10910.75	10070.05
826.8156	641.0056	10913.85	10073.95
826.9603	643.1216	10888	10047.8
827.105	645.237	10939.2	10095.1
827.2497	647.3518	10901.6	10059.4
827.3944	649.4659	10966.1	10124.95
827.5391	651.5793	10961.4	10120.7
827.6838	653.6922	10949.55	10108.65
827.8285	655.8043	10909.15	10068.05
827.9733	657.9159	10868.85	10027.1
828.118	660.0268	10788	9942.7
828.2627	662.137	10721.95	9875.75
828.4075	664.2466	10682.3	9837
828.5522	666.3556	10637.65	9792.7
828.697	668.4639	10617.55	9770.65
828.8418	670.5716	10644.8	9801.25
828.9865	672.6786	10729.85	9886.05
829.1313	674.785	10826.15	9980.3
829.2761	676.8907	10889.4	10042.85
829.4209	678.9958	10976.35	10132.45
829.5657	681.1002	10963.9	10118.6
829.7105	683.204	10941.65	10090.65
829.8553	685.3072	10859.95	10013.35
830.0001	687.4097	10763.45	9918.3
830.1449	689.5115	10671.75	9823.6
830.2898	691.6127	10601.4	9755.1
830.4346	693.7132	10502.55	9651.4
830.5794	695.8131	10457.75	9586.8
830.7243	697.9123	10395.25	9546.1
830.8691	700.0109	10328.15	9480.05
831.014	702.1089	10279.6	9431.2
831.1588	704.2061	10284.1	9435.75
831.3037	706.3028	10318.35	9468.65
831.4486	708.3987	10341.2	9492.75
831.5935	710.4941	10430.4	9582.8
831.7383	712.5887	10666.75	9817.1
831.8832	714.6827	10993.7	10140.45
832.0281	716.7761	11384.7	10534.35
832.173	718.8688	11824.75	10970.35
832.3179	720.9608	12042.3	11185.7
832.4628	723.0522	12054.9	11200.55
832.6077	725.1429	11771.6	10921.2
832.7527	727.233	11350.45	10498.85
832.8976	729.3224	11003.85	10152.5
833.0425	731.4112	10620.15	9766.15
833.1874	733.4993	10383.95	9528.8
833.3324	735.5867	10215.45	9359.3
833.4773	737.6735	10132.4	9275.8
833.6222	739.7596	10078.25	9224
833.7672	741.845	10047.75	9193.55
833.9122	743.9298	10029.4	9172.45
834.0571	746.014	10049.35	9194.8
834.2021	748.0974	10034.15	9178.05
834.347	750.1802	10015.7	9162.15
834.492	752.2624	10012.4	9158.8
834.637	754.3439	10029.2	9174
834.782	756.4247	10054.4	9191.8
834.9269	758.5048	10145.85	9290.7
835.0719	760.5843	10345.45	9488.8
835.2169	762.6631	10615.2	9759.4
835.3619	764.7413	11011.75	10157.1
835.5069	766.8188	11588.8	10729.75
835.6519	768.8956	12089.5	11228.85
835.7969	770.9718	12420.15	11565.15
835.9419	773.0473	12329.7	11476.2
836.0869	775.1221	11983.65	11128.2
836.232	777.1962	11575.65	10716.7
836.377	779.2697	11355.65	10497.95
836.522	781.3426	11426.4	10549.85
836.667	783.4147	11714.05	10855.4
836.8121	785.4862	12051.25	11194.05
836.9571	787.557	12128.75	11274.3
837.1021	789.6271	11776.5	10918.15
837.2472	791.6966	11195.75	10337.7
837.3922	793.7654	10657.95	9798.35
837.5373	795.8335	10293.9	9438.9
837.6823	797.901	10075.5	9216.55
837.8274	799.9678	9987.6	9126.9
837.9724	802.0339	10045.3	9188.7
838.1175	804.0993	10091.55	9223.35
838.2626	806.1641	10099.1	9240.75
838.4076	808.2282	10018.05	9160.15
838.5527	810.2916	9913.35	9050.3
838.6978	812.3544	9822.7	8966.2
838.8428	814.4164	9699.6	8842.05
838.9879	816.4778	9667.85	8806.75
839.133	818.5385	9629.85	8770.7
839.2781	820.5986	9662.75	8803.95
839.4232	822.658	9715.35	8854.9
839.5682	824.7166	9753.9	8895.3
839.7133	826.7747	9857.35	8998.8
839.8584	828.832	9969.05	9109.85
840.0035	830.8886	10063.85	9199.9
840.1486	832.9446	10207.15	9344.7
840.2937	834.9999	10310.9	9450.1
840.4388	837.0545	10398.3	9532.9
840.5839	839.1085	10467.15	9605.15
840.729	841.1618	10486.55	9620.35
840.8741	843.2143	10498.35	9635.95
841.0192	845.2662	10422.05	9559.45
841.1643	847.3175	10362.3	9501.6
841.3095	849.368	10247.6	9385.05
841.4546	851.4179	10134.85	9272.7
841.5997	853.467	9947.2	9085.7
841.7448	855.5155	9817.2	8951.6
841.8899	857.5633	9689.95	8827.95
842.0351	859.6105	9576.7	8715.15
842.1802	861.6569	9488.45	8624.5
842.3253	863.7027	9404.3	8540.5
842.4704	865.7478	9406	8541.5
842.6156	867.7922	9416	8554.15
842.7607	869.8359	9471.65	8606.8
842.9058	871.8789	9595.85	8733.25
843.0509	873.9212	9797.3	8897.1
843.1961	875.9629	9965.45	9102
843.3412	878.0039	10144.35	9278.95
843.4863	880.0441	10259.35	9396.85
843.6315	882.0837	10224.35	9358.45
843.7766	884.1226	10106.1	9240
843.9218	886.1609	9912.9	9049
844.0669	888.1984	9744.5	8879.35
844.212	890.2352	9685.3	8820.6
844.3572	892.2714	9595.15	8728.9
844.5023	894.3069	9577.5	8713.8
844.6475	896.3416	9522.65	8656.75
844.7926	898.3757	9495.8	8630
844.9377	900.4091	9484.05	8618.7
845.0829	902.4418	9469.65	8598.5
845.228	904.4739	9496.3	8628.55
845.3732	906.5052	9462.25	8595.35
845.5183	908.5358	9363.65	8498.1
845.6635	910.5658	9213.7	8345.15
845.8086	912.595	9054.9	8187.1
845.9538	914.6236	8914.15	8048.2
846.0989	916.6515	8872.2	8004.05
846.2441	918.6786	8869.4	8001.4
846.3892	920.7051	8955.45	8088.1
846.5344	922.7309	9059.85	8192.2
846.6795	924.756	9100.4	8233.05
846.8246	926.7804	9187.1	8317.95
846.9698	928.8041	9191.15	8318.55
847.1149	930.8272	9212.55	8344.85
847.2601	932.8495	9120.25	8253.5
847.4052	934.8711	9056.1	8185.6
847.5504	936.892	8897	8031
847.6955	938.9123	8722.7	7853.9
847.8407	940.9318	8546	7677.15
847.9858	942.9506	8415.75	7547.55
848.131	944.9688	8327.25	7458.55
848.2761	946.9862	8262.6	7395.2
848.4213	949.003	8223.75	7353.75
848.5664	951.019	8215.95	7347.25
848.7115	953.0344	8241.55	7371.15
848.8567	955.0491	8266.6	7396.05
849.0018	957.063	8353.05	7485.25
849.147	959.0763	8453.6	7585.65
849.2921	961.0888	8490.2	7620.1
849.4373	963.1007	8604.45	7734.6
849.5824	965.1119	8629.45	7760.95
849.7275	967.1223	8664.6	7796.75
849.8727	969.1321	8696.6	7828.65
850.0178	971.1412	8747.2	7877.85
850.1629	973.1495	8746.7	7877
850.3081	975.1572	8799.35	7893.9
850.4532	977.1641	8813.65	7945.5
850.5983	979.1704	8777.2	7905.3
850.7435	981.1759	8792.4	7918
850.8886	983.1808	8853.9	7982.85
851.0337	985.1849	8973.85	8090.35
851.1788	987.1884	9109.8	8237.85
851.324	989.1911	9303.75	8429.35
851.4691	991.1932	9473.55	8600.75
851.6142	993.1945	9547.4	8679.05
851.7593	995.1951	9542.6	8672.65
851.9045	997.1951	9482.7	8605.85
852.0496	999.1943	9400	8531.25
852.1947	1001.1928	9353.15	8480.1
852.3398	1003.1906	9336.65	8467.3
852.4849	1005.1877	9349.9	8476.65
852.63	1007.1841	9317.3	8448.3
852.7751	1009.1798	9208.8	8336.8
852.9202	1011.1748	8997.2	8126.55
853.0653	1013.1691	8776.65	7905.9
853.2104	1015.1627	8554.4	7684.2
853.3555	1017.1556	8356.5	7484.45
853.5006	1019.1477	8272.1	7396.55
853.6457	1021.1392	8216.45	7345.05
853.7908	1023.1299	8210.4	7338.7
853.9359	1025.12	8255.6	7380.25
854.081	1027.1093	8283.15	7411.55
854.2261	1029.0979	8387.4	7516.6
854.3712	1031.0859	8416.5	7546.25
854.5163	1033.0731	8408.5	7535.75
854.6613	1035.0596	8331.95	7458.9
854.8064	1037.0454	8187.35	7314.6
854.9515	1039.0304	8080	7207.75
855.0965	1041.0148	7944.45	7073.3
855.2416	1042.9985	7842.55	6968.7
855.3867	1044.9814	7808.45	6936.7
855.5317	1046.9636	7761.9	6887.95
855.6768	1048.9452	7722.9	6852.35
855.8219	1050.926	7742.8	6873.45
855.9669	1052.9061	7714.35	6842.8
856.112	1054.8855	7715.45	6843.05
856.257	1056.8642	7714.8	6841.35
856.4021	1058.8421	7765.85	6887.4
856.5471	1060.8194	7807.65	6934.15
856.6921	1062.7959	7827.1	6952.55
856.8372	1064.7717	7864.1	6988.15
856.9822	1066.7469	7852	6978.45
857.1272	1068.7213	7815.45	6938.75
857.2723	1070.695	7789.65	6918.25
857.4173	1072.6679	7688.7	6812.8
857.5623	1074.6402	7655.05	6783.25
857.7073	1076.6117	7631.25	6751.3
857.8523	1078.5826	7642.15	6767.45
857.9973	1080.5527	7737.1	6861.1
858.1423	1082.5221	7869.75	6996.5
858.2873	1084.4908	8121.35	7247.95
858.4323	1086.4587	8347.15	7473.7
858.5773	1088.426	8504.05	7632.2
858.7223	1090.3925	8503	7623.3
858.8673	1092.3584	8441.8	7568.35
859.0123	1094.3235	8282.25	7409.1
859.1573	1096.2879	8150	7276.05
859.3022	1098.2515	8086.95	7213.8
859.4472	1100.2145	8142.15	7268.9
859.5922	1102.1767	8175.5	7297.9
859.7371	1104.1382	8305.4	7431.9
859.8821	1106.099	8518.95	7641.9
860.027	1108.0591	8738.65	7865.75
860.172	1110.0185	8878.55	8001.6
860.3169	1111.9771	8878.8	8005.45
860.4619	1113.9351	8682.45	7804.95
860.6068	1115.8923	8326.9	7452
860.7517	1117.8488	7976.8	7100.65
860.8967	1119.8045	7673.8	6798.15
861.0416	1121.7596	7506.45	6630.5
861.1865	1123.7139	7442.65	6571.3
861.3314	1125.6675	7427.65	6552.1
861.4763	1127.6204	7482.65	6609.35
861.6212	1129.5726	7518.7	6640.95
861.7661	1131.524	7568.9	6695.5
861.911	1133.4748	7605.3	6731.45
862.0559	1135.4248	7653.95	6777.45
862.2008	1137.3741	7679	6804.2
862.3457	1139.3226	7656.2	6779.85
862.4905	1141.2705	7622.7	6748.35
862.6354	1143.2176	7551.45	6669.85
862.7803	1145.164	7562.45	6685.7
862.9251	1147.1097	7604.5	6727.55
863.07	1149.0546	7597.65	6720.1
863.2148	1150.9989	7511	6633.35
863.3597	1152.9424	7342.85	6467.1
863.5045	1154.8852	7124.45	6248.35
863.6493	1156.8272	6958.3	6084.7
863.7942	1158.7686	6895.55	6010.65
863.939	1160.7092	6836.55	5961.25
864.0838	1162.6491	6850.95	5974
864.2286	1164.5883	6895.1	6019.9
864.3734	1166.5267	6997	6120.85
864.5182	1168.4644	7103.05	6226.1
864.663	1170.4014	7289.45	6410.8
864.8078	1172.3377	7510.55	6635.7
864.9526	1174.2732	7734.65	6856.25
865.0974	1176.2081	7939.8	7063.65
865.2421	1178.1421	8093.7	7215.05
865.3869	1180.0755	8226.85	7351.15
865.5317	1182.0082	8235.15	7361.35
865.6764	1183.9401	8174.35	7294.05
865.8212	1185.8713	7988.55	7112.95
865.9659	1187.8017	7731.6	6854.45
866.1106	1189.7315	7446.8	6570.5
866.2554	1191.6605	7227.75	6324.35
866.4001	1193.5888	7005.7	6129
866.5448	1195.5163	6880.55	6003.8
866.6895	1197.4432	6771.05	5892.6
866.8342	1199.3693	6703.05	5827.5
866.9789	1201.2947	6662.9	5782.4
867.1236	1203.2193	6660.45	5782.45
867.2683	1205.1432	6664.45	5786.45
867.413	1207.0664	6712.45	5835.45
867.5576	1208.9889	6795	5913.55
867.7023	1210.9106	6887.05	6011.55
867.847	1212.8316	6982.6	6109.5
867.9916	1214.7519	7072.7	6186.3
868.1363	1216.6715	7084.65	6208
868.2809	1218.5903	7056.1	6179.3
868.4255	1220.5084	7009.65	6134.9
868.5701	1222.4257	6985.4	6107.75
868.7148	1224.3424	6923.45	6047.55
868.8594	1226.2583	6985.05	6101.45
869.004	1228.1735	7080.75	6204.5
869.1486	1230.0879	7194.65	6315.9
869.2932	1232.0016	7353.3	6478.1
869.4377	1233.9146	7398.45	6518.3
869.5823	1235.8269	7325.4	6449.45
869.7269	1237.7384	7191.7	6313
869.8715	1239.6492	7011.35	6132.6
870.016	1241.5592	6897.3	6021.55
870.1606	1243.4686	6774.3	5895.55
870.3051	1245.3772	6719.15	5842.25
870.4496	1247.285	6658.65	5782.8
870.5941	1249.1922	6601.7	5722.15
870.7387	1251.0986	6579.4	5702.5
870.8832	1253.0042	6602.55	5726.3
871.0277	1254.9092	6678.8	5800.8
871.1722	1256.8134	6760.45	5882.85
871.3167	1258.7169	6925.7	6046.45
871.4611	1260.6196	7056.5	6180
871.6056	1262.5216	7225.4	6345.7
871.7501	1264.4229	7391.7	6515.7
871.8945	1266.3234	7498.8	6621.65
872.039	1268.2232	7547.35	6669.6
872.1834	1270.1223	7524.2	6645.15
872.3278	1272.0207	7490.45	6610.9
872.4723	1273.9183	7462.1	6578.85
872.6167	1275.8151	7389.25	6511.15
872.7611	1277.7113	7288.35	6411.15
872.9055	1279.6067	7142.1	6264.15
873.0499	1281.5014	6970.7	6089.85
873.1943	1283.3953	6834.25	5951.05
873.3386	1285.2885	6737.65	5859.65
873.483	1287.181	6649.1	5768.75
873.6274	1289.0727	6642.8	5766.25
873.7717	1290.9637	6664.25	5785.85
873.9161	1292.854	6797.65	5920.05
874.0604	1294.7435	6948.2	6069.9
874.2047	1296.6323	7178.8	6299.2
874.349	1298.5204	7441.55	6560.6
874.4933	1300.4077	7680.95	6801.3
874.6376	1302.2943	7872.9	6995.85
874.7819	1304.1802	7985.9	7108.3
874.9262	1306.0653	7940.85	7062
875.0705	1307.9497	7825.05	6947.3
875.2147	1309.8333	7759.9	6880.25
875.359	1311.7162	7735.3	6857.4
875.5032	1313.5984	7825.05	6943.1
875.6475	1315.4798	7982.8	7092.05
875.7917	1317.3605	8202.4	7307.75
875.9359	1319.2405	8340.35	7460.2
876.0801	1321.1197	8381.65	7500.55
876.2243	1322.9982	8360.05	7476.8
876.3685	1324.876	8353.7	7472.55
876.5127	1326.753	8332.65	7454.95
876.6569	1328.6293	8327.6	7444.75
876.801	1330.5048	8368.1	7487.45
876.9452	1332.3796	8346.35	7468.85
877.0893	1334.2537	8318	7409.8
877.2335	1336.127	8268.1	7389.05
877.3776	1337.9996	8215.5	7337.05
877.5217	1339.8714	8175.15	7296.7
877.6658	1341.7426	8139.05	7217.25
877.8099	1343.6129	8049.8	7168.9
877.954	1345.4826	7965.55	7086.35
878.0981	1347.3515	7915.45	7035.9
878.2422	1349.2196	7859.85	6978.45
878.3862	1351.087	7865.05	6984.4
878.5303	1352.9537	7889.35	7008.8
878.6743	1354.8197	8008.4	7128.85
878.8184	1356.6849	8147.9	7266.85
878.9624	1358.5493	8240.4	7363.75
879.1064	1360.4131	8239.25	7360.2
879.2504	1362.276	8163.2	7284.6
879.3944	1364.1383	8008.35	7130
879.5384	1365.9998	7795.8	6912.25
879.6823	1367.8606	7508.5	6629.65
879.8263	1369.7206	7283.15	6403
879.9702	1371.5799	7105.1	6222.75
880.1142	1373.4384	6995.85	6115.75
880.2581	1375.2962	6858.8	5978
880.402	1377.1533	6654.85	5775.95
880.5459	1379.0096	6391.9	5511.3
880.6898	1380.8652	6125.6	5246.35
880.8337	1382.7201	5871.55	4991.6
880.9776	1384.5742	5685.8	4805.95
881.1215	1386.4275	5555.05	4674.45
881.2653	1388.2802	5444.9	4568.6
881.4092	1390.132	5355.8	4476.15
881.553	1391.9832	5302.55	4420.3
881.6968	1393.8336	5238.05	4357.65
881.8406	1395.6832	5197.2	4313.85
881.9844	1397.5322	5169.65	4289.75
882.1282	1399.3803	5151.6	4266.6
882.272	1401.2278	5130.4	4250.9
882.4158	1403.0745	5144.3	4263.6
882.5595	1404.9204	5129.15	4251.6
882.7033	1406.7656	5134.3	4253.5
882.847	1408.6101	5148.1	4268.45
882.9908	1410.4538	5168.25	4286.05
883.1345	1412.2968	5206.8	4324.9
883.2782	1414.139	5281.7	4403.15
883.4219	1415.9805	5351.85	4472.25
883.5656	1417.8213	5472.25	4585.55
883.7092	1419.6613	5591.95	4712.65
883.8529	1421.5006	5794.75	4913.5
883.9965	1423.3391	6044.4	5163.9
884.1402	1425.1769	6410.3	5527.8
884.2838	1427.0139	6928.15	6045.7
884.4274	1428.8502	7558.05	6676.75
884.571	1430.6858	8179.55	7298.95
884.7146	1432.5206	8647.3	7766.9
884.8582	1434.3547	8944	8062.9
885.0018	1436.188	8978.3	8099.05
885.1453	1438.0206	8934.65	8052.25
885.2889	1439.8524	8791.75	7909.65
885.4324	1441.6835	8687.7	7807.4
885.5759	1443.5139	8630.95	7747.75
885.7194	1445.3435	8529.65	7649.9
885.8629	1447.1724	8480.35	7601.35
886.0064	1449.0005	8395.7	7514.55
886.1499	1450.8279	8294.05	7411.55
886.2933	1452.6545	8271.65	7391.4
886.4368	1454.4804	8308.3	7428.3
886.5802	1456.3056	8298.65	7409.05
886.7237	1458.13	8217.4	7336.4
886.8671	1459.9536	7972.45	7089.25
887.0105	1461.7766	7610.15	6732.75
887.1539	1463.5987	7186.65	6303.9
887.2972	1465.4202	6802.95	5924.65
887.4406	1467.2409	6429.95	5549
887.584	1469.0608	6141.05	5260.6
887.7273	1470.88	5876	4993.8
887.8706	1472.6984	5640.45	4760.75
888.0139	1474.5161	5452.95	4570.15
888.1572	1476.3331	5286.3	4405.75
888.3005	1478.1493	5170.9	4289.05
888.4438	1479.9648	5070.65	4191.35
888.5871	1481.7795	4954.3	4072.6
888.7303	1483.5935	4900.85	4022.1
888.8736	1485.4067	4841.85	3960.2
889.0168	1487.2192	4805.1	3922.5
889.16	1489.031	4761.15	3878.75
889.3032	1490.842	4716.35	3835.7
889.4464	1492.6522	4693.05	3814.2
889.5896	1494.4618	4660.6	3778.95
889.7327	1496.2705	4632.85	3751.5
889.8759	1498.0785	4627.8	3745.9
890.019	1499.8858	4585.05	3703.55
890.1622	1501.6924	4573	3692.8
890.3053	1503.4981	4567.05	3686.7
890.4484	1505.3032	4531.2	3650.15
890.5914	1507.1075	4516.5	3636.95
890.7345	1508.911	4510.65	3630.6
890.8776	1510.7138	4472.65	3590.55
891.0206	1512.5159	4448.45	3567.3
891.1637	1514.3172	4409.7	3526.7
891.3067	1516.1178	4363.35	3484.2
891.4497	1517.9176	4347.65	3462.9
891.5927	1519.7166	4332.75	3454.2
891.7357	1521.515	4315.2	3427
891.8786	1523.3126	4285.25	3403.7
892.0216	1525.1094	4260.15	3378.4
892.1645	1526.9055	4267.1	3388.45
892.3074	1528.7008	4228.1	3347
892.4503	1530.4954	4217.1	3327.85
892.5932	1532.2893	4193.25	3314.3
892.7361	1534.0824	4189.4	3302.75
892.879	1535.8747	4186.7	3306.15
893.0218	1537.6663	4163.85	3281.3
893.1647	1539.4572	4169.5	3286.4
893.3075	1541.2473	4150.95	3267.7
893.4503	1543.0367	4157.4	3278.65
893.5931	1544.8253	4157.75	3273.55
893.7359	1546.6132	4163.1	3280.6
893.8787	1548.4003	4165.95	3274.95
894.0214	1550.1867	4192.75	3301.6
894.1642	1551.9723	4187.4	3302.05
894.3069	1553.7572	4214.1	3331.1
894.4496	1555.5414	4241.3	3358.4
894.5923	1557.3247	4271.85	3388.95
894.735	1559.1074	4297.4	3416.45
894.8777	1560.8893	4360.3	3482.3
895.0204	1562.6705	4411.95	3530.55
895.163	1564.4509	4496.65	3615.75
895.3056	1566.2305	4582	3702.85
895.4482	1568.0094	4672.75	3791
895.5908	1569.7876	4762.35	3882.4
895.7334	1571.565	4814.55	3934.25
895.876	1573.3417	4868.2	3989.75
896.0186	1575.1176	4879.9	3998.65
896.1611	1576.8928	4866.85	3985.1
896.3036	1578.6672	4788.7	3910.8
896.4461	1580.4409	4694.95	3815.4
896.5886	1582.2138	4555.4	3673.05
896.7311	1583.986	4445.7	3563.85
896.8736	1585.7575	4336.75	3457.65
897.0161	1587.5282	4264.75	3385.9
897.1585	1589.2981	4209	3328.55
897.3009	1591.0673	4167.85	3286.35
897.4433	1592.8358	4149.75	3268.6
897.5857	1594.6035	4137.1	3252.3
897.7281	1596.3704	4122.05	3242
897.8705	1598.1366	4132.2	3251.1
898.0128	1599.9021	4163.05	3283.1
898.1551	1601.6668	4177.1	3293.15
898.2975	1603.4308	4214.4	3332.85
898.4398	1605.194	4290.8	3406.15
898.5821	1606.9564	4371.1	3488.5
898.7243	1608.7182	4477.65	3591.8
898.8666	1610.4791	4599.1	3718.55
899.0088	1612.2394	4754.65	3873.8
899.1511	1613.9988	4952.5	4069.65
899.2933	1615.7576	5170.65	4288.45
899.4355	1617.5156	5410.15	4523.75
899.5776	1619.2728	5642.55	4762.05
899.7198	1621.0293	5828.85	4949.9
899.862	1622.785	5921.5	5036.15
900.0041	1624.54	5878.45	4996.05
900.1462	1626.2942	5750.75	4870.15
900.2883	1628.0477	5533.65	4650.35
900.4304	1629.8005	5297.25	4413.1
900.5725	1631.5525	5042.35	4161
900.7145	1633.3037	4827.3	3946.45
900.8566	1635.0542	4668.1	3786.2
900.9986	1636.804	4523.2	3641
901.1406	1638.553	4509.6	3549.1
901.2826	1640.3013	4372.3	3492.95
901.4245	1642.0488	4331.85	3451.15
901.5665	1643.7955	4313.3	3432.85
901.7085	1645.5416	4347.45	3467.7
901.8504	1647.2868	4387.05	3508.1
901.9923	1649.0313	4458.7	3577
902.1342	1650.7751	4615.85	3732.1
902.2761	1652.5181	4787.6	3907.35
902.4179	1654.2604	5022.35	4142.15
902.5598	1656.0019	5334.85	4455.05
902.7016	1657.7427	5695.35	4812.25
902.8434	1659.4828	6061.8	5182.15
902.9852	1661.222	6311.4	5430.25
903.127	1662.9606	6353.75	5473.3
903.2687	1664.6984	6236.15	5357.25
903.4105	1666.4354	5922.9	5039.8
903.5522	1668.1717	5469.2	4590.9
903.6939	1669.9072	5040.05	4160.9
903.8356	1671.642	4660.25	3778.25
903.9773	1673.3761	4346.7	3468.6
904.119	1675.1094	4117.95	3237.25
904.2606	1676.8419	3947.25	3067.2
904.4022	1678.5737	3824.15	2945.15
904.5439	1680.3048	3744.1	2862.95
904.6855	1682.0351	3645.9	2766.8
904.827	1683.7646	3615.1	2733.7
904.9686	1685.4934	3563.1	2683.05
905.1101	1687.2215	3521.55	2641.1
905.2517	1688.9488	3474.6	2593.95
905.3932	1690.6754	3451.45	2573.2
905.5347	1692.4012	3446.15	2565.5
905.6761	1694.1263	3422.5	2543.5
905.8176	1695.8506	3399.8	2519.15
905.9591	1697.5742	3394.1	2513.9
906.1005	1699.297	3355.4	2474.75
906.2419	1701.0191	3337	2456.1
906.3833	1702.7404	3317.2	2437.95
906.5246	1704.461	3294.5	2413.9
906.666	1706.1808	3287.55	2406.3
906.8073	1707.8999	3260.65	2378.85
906.9487	1709.6182	3258.85	2377.7
907.09	1711.3358	3238.8	2359.15
907.2313	1713.0527	3232.75	2355.6
907.3725	1714.7688	3222.65	2338.1
907.5138	1716.4841	3201.6	2319.9
907.655	1718.1987	3196.2	2312.3
907.7962	1719.9126	3184.9	2305.05
907.9374	1721.6257	3173.45	2291.2
908.0786	1723.338	3163.6	2280.85
908.2198	1725.0496	3153.8	2271
908.3609	1726.7605	3136.35	2254.75
908.502	1728.4706	3123.35	2239.65
908.6431	1730.18	3119.9	2237.55
908.7842	1731.8886	3109.25	2228.9
908.9253	1733.5964	3107.65	2221.1
909.0664	1735.3036	3102.35	2220.85
909.2074	1737.0099	3084.7	2205.45
909.3484	1738.7156	3092.1	2214.3
909.4894	1740.4204	3071.4	2188.45
909.6304	1742.1246	3060.9	2178.9
909.7714	1743.8279	3064.05	2183.55
909.9123	1745.5306	3054.35	2173.95
910.0532	1747.2325	3057.2	2175.8
910.1941	1748.9336	3035.55	2157.9
910.335	1750.634	3025.4	2141.2
910.4759	1752.3336	3028.45	2148.05
910.6168	1754.0325	3022	2141.15
910.7576	1755.7307	3000.7	2122.55
910.8984	1757.4281	3000.7	2120.85
911.0392	1759.1247	3020.5	2133
911.18	1760.8206	3001.05	2116.75
911.3208	1762.5158	3000.55	2115.9
911.4615	1764.2102	2990.4	2110.15
911.6022	1765.9039	2978.4	2096.3
911.7429	1767.5968	2950.4	2071.65
911.8836	1769.289	2950.4	2069.3
912.0243	1770.9804	2947.15	2067.4
912.1649	1772.6711	2951.95	2071
912.3056	1774.361	2963.1	2082.8
912.4462	1776.0502	2937	2056.25
912.5868	1777.7386	2939.65	2056.05
912.7274	1779.4263	2925.05	2045.85
912.8679	1781.1132	2933.6	2051.25
913.0084	1782.7994	2915.85	2033.45
913.149	1784.4849	2911.6	2030.8
913.2895	1786.1696	2925.2	2026.5
913.4299	1787.8535	2908.2	2029.05
913.5704	1789.5367	2890.55	2010.45
913.7108	1791.2192	2898.2	2018.55
913.8513	1792.9009	2904.2	1997.15
913.9917	1794.5818	2885.5	2005.85
914.132	1796.2621	2872.2	1993.6
914.2724	1797.9415	2854.4	1973.7
914.4128	1799.6202	2863.85	1984.55
914.5531	1801.2982	2856.55	1977.75
914.6934	1802.9755	2860.2	1979.05
914.8337	1804.6519	2864.15	1983.4
914.9739	1806.3277	2841.8	1963.8
915.1142	1808.0027	2831.3	1951.4
915.2544	1809.6769	2825.2	1944.65
915.3946	1811.3504	2830.5	1947.65
915.5348	1813.0231	2826.7	1946.5
915.675	1814.6951	2820.45	1940
915.8151	1816.3664	2827.3	1946.5
915.9553	1818.0369	2815.1	1933.75
916.0954	1819.7067	2803.8	1922.6
916.2355	1821.3757	2799.65	1919.45
916.3755	1823.044	2802.15	1921.7
916.5156	1824.7115	2802.85	1923.4
916.6556	1826.3783	2778.45	1898
916.7956	1828.0443	2778.15	1900.3
916.9356	1829.7096	2776	1894.2
917.0756	1831.3741	2779.3	1895.05
917.2155	1833.0379	2782.2	1901.2
917.3555	1834.701	2763.7	1879.3
917.4954	1836.3633	2772.95	1889.7
917.6353	1838.0248	2760.85	1877.4
917.7751	1839.6856	2754.5	1875.2
917.915	1841.3457	2745.85	1866.55
918.0548	1843.005	2754.25	1873.45
918.1946	1844.6636	2750.8	1872.2
918.3344	1846.3214	2745.6	1864.75
918.4742	1847.9785	2737.65	1856.75
918.6139	1849.6349	2733.4	1851.2
918.7537	1851.2904	2745.5	1857.65
918.8934	1852.9453	2727.35	1847.55
919.0331	1854.5994	2720.7	1838.15
919.1727	1856.2528	2719.6	1836.35
919.3124	1857.9054	2723.05	1842.05
919.452	1859.5572	2699.95	1822.3
919.5916	1861.2083	2700.75	1819.25
919.7312	1862.8587	2705.65	1824.85
919.8708	1864.5084	2696.4	1814.9
920.0103	1866.1572	2693.35	1813.95
920.1498	1867.8054	2682.75	1800
920.2893	1869.4528	2684.65	1804.4
920.4288	1871.0994	2672.95	1792.4
920.5683	1872.7453	2669.2	1786.8
920.7077	1874.3905	2675.1	1777.65
920.8471	1876.0349	2662.55	1782
920.9865	1877.6786	2658.3	1775.8
921.1259	1879.3215	2661.35	1779.9
921.2653	1880.9637	2652.4	1770.25
921.4046	1882.6051	2645.8	1765.45
921.5439	1884.2458	2643.6	1759.9
921.6832	1885.8858	2630.7	1749.6
921.8225	1887.525	2627.65	1747.25
921.9617	1889.1634	2621.7	1742.8
922.101	1890.8011	2614.95	1736.3
922.2402	1892.4381	2600.35	1720.15
922.3794	1894.0743	2606.4	1725.2
922.5185	1895.7098	2600.75	1719.55
922.6577	1897.3446	2605.05	1724.5
922.7968	1898.9786	2600.35	1714.7
922.9359	1900.6118	2599.45	1718.25
923.075	1902.2443	2587.25	1704.75
923.214	1903.8761	2581.15	1700.5
923.3531	1905.5071	2572.75	1690.55
923.4921	1907.1374	2573.4	1693.75
923.6311	1908.7669	2575.15	1694.15
923.77	1910.3957	2565	1686.6
923.909	1912.0237	2536.05	1653.8
924.0479	1913.651	2555.1	1676.35
924.1868	1915.2776	2534.15	1654.65
924.3257	1916.9034	2543.05	1664.35
924.4646	1918.5285	2535.3	1655.3
924.6034	1920.1528	2533.25	1652.3
924.7422	1921.7764	2533.4	1654.45
924.881	1923.3992	2522.85	1645.35
925.0198	1925.0213	2509.1	1629
925.1586	1926.6427	2504.85	1626.35
925.2973	1928.2633	2560.85	1601.55
925.436	1929.8832	2510.15	1629.2
925.5747	1931.5023	2501.95	1622
925.7134	1933.1207	2483.85	1601.25
925.852	1934.7383	2486.4	1605.8
925.9906	1936.3552	2481.45	1599.05
926.1292	1937.9714	2460.65	1579.85
926.2678	1939.5868	2472.3	1591.8
926.4064	1941.2015	2454.65	1574.45
926.5449	1942.8154	2454.5	1575.5
926.6834	1944.4286	2445.7	1565.75
926.8219	1946.041	2469.6	1562.7
926.9604	1947.6528	2435.5	1552.45
927.0988	1949.2637	2419.65	1539.8
927.2372	1950.8739	2423.9	1542.65
927.3756	1952.4834	2416.7	1535.45
927.514	1954.0921	2416.9	1535.1
927.6523	1955.7001	2426.1	1542.3
927.7907	1957.3074	2397.55	1516.7
927.929	1958.9139	2396.1	1516.55
928.0673	1960.5197	2400.5	1517.75
928.2055	1962.1247	2368.5	1488
928.3438	1963.729	2378.2	1498.6
928.482	1965.3325	2388.35	1483.85
928.6202	1966.9353	2371.55	1490.65
928.7584	1968.5374	2356	1476.35
928.8965	1970.1387	2350.25	1470
929.0346	1971.7393	2346.8	1465.55
929.1727	1973.3392	2349.5	1467.7
929.3108	1974.9383	2347.15	1468
929.4489	1976.5366	2336.3	1458.55
929.5869	1978.1342	2329.3	1447.05
929.7249	1979.7311	2343.9	1462.85
929.8629	1981.3273	2323.75	1440.75
930.0009	1982.9227	2330.55	1448.05
930.1388	1984.5173	2314.65	1433.35
930.2767	1986.1112	2319.35	1439
930.4146	1987.7044	2311.45	1432.3
930.5525	1989.2968	2306.1	1423.65
930.6904	1990.8885	2305.4	1422.8
930.8282	1992.4795	2307.1	1424.05
930.966	1994.0697	2285.05	1404.9
931.1038	1995.6592	2293.45	1411.85
931.2415	1997.2479	2286.7	1406.4
931.3793	1998.8359	2282.4	1402.05
931.517	2000.4232	2266.8	1388.25
931.6547	2002.0097	2280.7	1399.55
931.7923	2003.5955	2267.25	1384.95
931.93	2005.1805	2266.35	1382.85
932.0676	2006.7648	2264.05	1384.2
932.2052	2008.3484	2258.55	1376.8
932.3427	2009.9312	2264.8	1382.65
932.4803	2011.5133	2262.65	1383.55
932.6178	2013.0946	2256.75	1377.2
932.7553	2014.6752	2244.45	1363.8
932.8928	2016.2551	2243.1	1362.65
933.0302	2017.8342	2236.4	1354.85
933.1676	2019.4126	2233.85	1353.35
933.305	2020.9902	2227.3	1349
933.4424	2022.5672	2219.25	1336.3
933.5798	2024.1433	2226.7	1338.3
933.7171	2025.7188	2216.6	1338.15
933.8544	2027.2935	2218.45	1336.1
933.9917	2028.8674	2213.45	1333.4
934.129	2030.4406	2203.95	1324.35
934.2662	2032.0131	2203.75	1324.9
934.4034	2033.5849	2208.65	1323.35
934.5406	2035.1559	2200.75	1317.15
934.6778	2036.7261	2198.95	1317.35
934.8149	2038.2957	2195.05	1313.75
934.952	2039.8645	2181.65	1302.15
935.0891	2041.4325	2191.9	1307.8
935.2262	2042.9998	2178.2	1297.85
935.3632	2044.5664	2185.75	1303.5
935.5002	2046.1323	2173.55	1294.05
935.6372	2047.6974	2171.55	1289.55
935.7742	2049.2617	2167.95	1286.1
935.9111	2050.8254	2163.2	1275
936.048	2052.3883	2161.4	1279.8
936.1849	2053.9504	2157.65	1275.7
936.3218	2055.5118	2142.65	1259.75
936.4586	2057.0725	2145.3	1261.1
936.5955	2058.6325	2154.45	1272.85
936.7323	2060.1917	2140.9	1262.2
936.869	2061.7502	2131.9	1248.35
937.0058	2063.3079	2137.75	1256.2
937.1425	2064.8649	2136.4	1250.25
937.2792	2066.4212	2127.55	1244.8
937.4159	2067.9767	2122.55	1243.6
937.5525	2069.5315	2104.4	1223.05
937.6891	2071.0856	2108.25	1227.35
937.8257	2072.6389	2101.4	1219.95
937.9623	2074.1915	2094.75	1213.8
938.0989	2075.7433	2102.3	1219.3
938.2354	2077.2945	2103.85	1223
938.3719	2078.8448	2083.6	1201.75
938.5084	2080.3945	2086.3	1207.95
938.6448	2081.9434	2086.85	1204.85
938.7812	2083.4916	2079.4	1198.3
938.9176	2085.039	2075.6	1192.45
939.054	2086.5857	2074.05	1190.9
939.1903	2088.1317	2070.4	1190.4
939.3267	2089.677	2067.85	1186.1
939.463	2091.2215	2070.05	1189.85
939.5992	2092.7652	2058.4	1175.1
939.7355	2094.3083	2060.3	1178.7
939.8717	2095.8506	2051.2	1173.45
940.0079	2097.3921	2060.45	1180.55
940.1441	2098.933	2052.5	1172.75
940.2802	2100.4731	2053.5	1172.8
940.4163	2102.0124	2050.95	1161.35
940.5524	2103.5511	2047	1165.25
940.6885	2105.089	2051.45	1169.75
940.8245	2106.6261	2047.25	1166.2
940.9606	2108.1626	2043.5	1161.4
941.0965	2109.6983	2067.9	1155.15
941.2325	2111.2332	2038.65	1157.1
941.3684	2112.7675	2029.05	1148.1
941.5044	2114.301	2023.6	1141.85
941.6403	2115.8337	2028.85	1148.95
941.7761	2117.3657	2021.15	1140
941.912	2118.897	2014.05	1133.5
942.0478	2120.4276	2019.7	1135.05
942.1835	2121.9575	2019.45	1138.6
942.3193	2123.4866	2022.3	1127.2
942.455	2125.0149	2008.05	1123.1
942.5907	2126.5426	2000.9	1120.1
942.7264	2128.0695	2003.95	1116.75
942.8621	2129.5956	2000.8	1119.6
942.9977	2131.1211	1999.8	1114.7
943.1333	2132.6458	1993.6	1112.3
943.2689	2134.1698	1986.45	1106.7
943.4044	2135.693	1983	1101.2
943.54	2137.2155	1987.75	1104.4
943.6755	2138.7373	1973.9	1092.8
943.8109	2140.2584	1978.65	1097.6
943.9464	2141.7787	1975.5	1086.75
944.0818	2143.2983	1965.1	1083.5
944.2172	2144.8171	1972.6	1090.95
944.3526	2146.3353	1960.05	1075.9
944.4879	2147.8527	1958.8	1079.5
944.6232	2149.3693	1967.25	1085.45
944.7585	2150.8853	1961.95	1080.85
944.8938	2152.4005	1946.75	1064.85
945.029	2153.9149	1949.2	1068.2
945.1642	2155.4287	1956.25	1076.5
945.2994	2156.9417	1944.65	1064.15
945.4346	2158.454	1934	1050.35
945.5697	2159.9655	1943.45	1062.55
945.7048	2161.4764	1936.65	1055.6
945.8399	2162.9865	1943.6	1063.15
945.9749	2164.4958	1941.65	1058.75
946.1099	2166.0045	1928.35	1043
946.2449	2167.5124	1932	1051.2
946.3799	2169.0195	1924.55	1044.05
946.5148	2170.526	1924.65	1043.65
946.6498	2172.0317	1929.1	1048.5
946.7846	2173.5367	1909.25	1026.8
946.9195	2175.0409	1914.35	1033
947.0543	2176.5445	1921.6	1041.05
947.1891	2178.0473	1912.3	1030
947.3239	2179.5494	1913.15	1027.25
947.4587	2181.0507	1902.45	1020.2
947.5934	2182.5513	1898.65	1018.7
947.7281	2184.0512	1890.5	1008.6
947.8628	2185.5504	1894	1013.1
947.9974	2187.0488	1878.5	996.3
948.132	2188.5465	1881.35	998.15
948.2666	2190.0435	1885.5	1005
948.4012	2191.5397	1875.4	993
948.5357	2193.0353	1882.4	1002.5
948.6702	2194.5301	1882.5	999.2
948.8047	2196.0241	1874.3	994.45
948.9392	2197.5175	1870.35	987.85
949.0736	2199.0101	1867.55	982
949.208	2200.502	1872.55	990.25
949.3424	2201.9931	1864.95	985.05
949.4767	2203.4835	1849.1	966.85
949.611	2204.9733	1867.5	977.4
949.7453	2206.4622	1846.2	965.25
949.8796	2207.9505	1851.1	967.1
950.0138	2209.438	1839.8	959.2
950.148	2210.9248	1845.8	963.55
950.2822	2212.4109	1844.5	964.15
950.4164	2213.8962	1845.95	961.7
950.5505	2215.3809	1831.9	950.2
950.6846	2216.8648	1828.85	946.6
950.8186	2218.3479	1828.75	943.6
950.9527	2219.8304	1834.1	949.65
951.0867	2221.3121	1823.75	940.65
951.2207	2222.7931	1806.9	924.1
951.3546	2224.2733	1815.75	933.75
951.4886	2225.7529	1817.65	934.45
951.6225	2227.2317	1823.2	939.65
951.7563	2228.7098	1814.25	933.8
951.8902	2230.1872	1802.35	919.7
952.024	2231.6638	1800.3	918.7
952.1578	2233.1397	1804.1	919.35
952.2916	2234.6149	1792.95	911.35
952.4253	2236.0894	1795.4	914.75
952.559	2237.5632	1790.05	905.6
952.6927	2239.0362	1792.25	910.65
952.8263	2240.5085	1783.65	902.25
952.9599	2241.9801	1785.5	904.85
953.0935	2243.4509	1771.95	890.85
953.2271	2244.921	1771.55	889.8
953.3606	2246.3904	1766.9	884.4
953.4941	2247.8591	1765.85	883.4
953.6276	2249.3271	1763.9	882.75
953.7611	2250.7943	1757.35	877.55
953.8945	2252.2608	1756.2	873.65
954.0279	2253.7266	1764.75	882.85
954.1612	2255.1917	1751.75	869.25
954.2946	2256.656	1749.25	866.9
954.4279	2258.1197	1749.6	868.5
954.5612	2259.5826	1750.45	867.15
954.6944	2261.0447	1747.75	866.3
954.8276	2262.5062	1741.2	855.6
954.9608	2263.9669	1746.95	863.7
955.094	2265.4269	1743.7	861.35
955.2271	2266.8862	1743.65	861.75
955.3602	2268.3448	1741.6	860.25
955.4933	2269.8026	1729.75	848.35
955.6264	2271.2598	1742.2	859.3
955.7594	2272.7162	1724.65	842.9
955.8924	2274.1719	1719	839.5
956.0253	2275.6268	1730.45	847.9
956.1583	2277.0811	1730.55	848.4
956.2912	2278.5346	1734.25	852.9
956.4241	2279.9874	1728.55	846.35
956.5569	2281.4395	1715.45	835.55
956.6897	2282.8908	1720.95	831.55
956.8225	2284.3414	1714.6	831.05
956.9553	2285.7914	1712.5	830.6
957.088	2287.2406	1711.2	826.65
957.2207	2288.689	1701.35	821.05
957.3534	2290.1368	1712.55	828.1
957.486	2291.5838	1708.7	826
957.6186	2293.0302	1709.1	825.9
957.7512	2294.4758	1695.95	815.45
957.8838	2295.9206	1695.4	811.7
958.0163	2297.3648	1692.75	810.65
958.1488	2298.8082	1700.5	817.65
958.2813	2300.251	1692.85	811.7
958.4137	2301.693	1685.5	801.9
958.5461	2303.1343	1682.95	801
958.6785	2304.5748	1687.6	805.45
958.8108	2306.0147	1678.1	797.1
958.9432	2307.4538	1682.15	797.55
959.0754	2308.8922	1674.05	791.95
959.2077	2310.3299	1668.15	787.2
959.3399	2311.7669	1674.1	791.8
959.4721	2313.2031	1665	784.15
959.6043	2314.6387	1662.8	782.3
959.7365	2316.0735	1660.85	779.4
959.8686	2317.5076	1665.4	783.95
960.0006	2318.941	1666.3	783.45
960.1327	2320.3737	1657.2	773.9
960.2647	2321.8056	1657.7	775.25
960.3967	2323.2369	1651.7	769.8
960.5287	2324.6674	1650.75	767.85
960.6606	2326.0972	1649.95	766.7
960.7925	2327.5263	1648.7	768.6
960.9244	2328.9547	1642.85	758.15
961.0562	2330.3823	1647	765.45
961.1881	2331.8092	1645.55	761.05
961.3198	2333.2355	1639.35	757.85
961.4516	2334.661	1634.35	751.2
961.5833	2336.0858	1636.3	753
961.715	2337.5098	1632.05	749.9
961.8467	2338.9332	1628.7	747.2
961.9783	2340.3558	1627.15	742.6
962.1099	2341.7778	1636.8	756
962.2415	2343.199	1635.65	752.1
962.373	2344.6195	1625.15	744.9
962.5045	2346.0393	1621	740.3
962.636	2347.4583	1631.1	748.5
962.7675	2348.8767	1626.15	743.75
962.8989	2350.2943	1616.7	735.85
963.0303	2351.7113	1620.25	737.1
963.1617	2353.1275	1612.05	733.45
963.293	2354.543	1638.2	734.45
963.4243	2355.9578	1618.2	735.25
963.5556	2357.3718	1616.45	735.9
963.6868	2358.7852	1612.6	728
963.818	2360.1978	1601.15	719.95
963.9492	2361.6098	1601.2	719.15
964.0803	2363.021	1604.35	717.25
964.2114	2364.4315	1604.7	723.1
964.3425	2365.8413	1611.95	723.95
964.4736	2367.2504	1595.8	717.1
964.6046	2368.6587	1600.1	717.05
964.7356	2370.0664	1602.45	721.4
964.8666	2371.4733	1588	708.45
964.9975	2372.8795	1586.25	703.65
965.1284	2374.285	1583.55	701.85
965.2593	2375.6899	1585.55	705.5
965.3901	2377.0939	1572.95	693.05
965.5209	2378.4973	1572.55	691.65
965.6517	2379.9	1579.85	698.1
965.7825	2381.3019	1579.5	698.75
965.9132	2382.7032	1573.05	691.05
966.0439	2384.1037	1572.85	692.9
966.1745	2385.5035	1565.15	685.05
966.3051	2386.9027	1570.9	688.4
966.4357	2388.3011	1563.4	677.7
966.5663	2389.6987	1557.35	677.6
966.6968	2391.0957	1568	685.7
966.8273	2392.492	1550.95	671.1
966.9578	2393.8876	1543.05	662.55
967.0882	2395.2824	1545.9	663.75
967.2186	2396.6765	1542.3	662.1
967.349	2398.07	1544.4	664.4
967.4793	2399.4627	1544.1	662.2
967.6097	2400.8547	1543.85	665.2
967.7399	2402.246	1541.6	654.65
967.8702	2403.6366	1531.15	651.6
968.0004	2405.0265	1536.9	657.05
968.1306	2406.4156	1542.1	656.65
968.2607	2407.8041	1530.85	647.85
968.3909	2409.1918	1536.8	653.5
968.521	2410.5789	1535.55	654.3
968.651	2411.9652	1526.7	644.8
968.781	2413.3508	1521.9	641.5
968.911	2414.7358	1525.8	642.6
969.041	2416.12	1517.05	635.95
969.1709	2417.5035	1521.05	640.05
969.3008	2418.8863	1524	642.3
969.4307	2420.2684	1522.2	641.6
969.5606	2421.6497	1522	643.95
969.6904	2423.0304	1511.1	630.15
969.8201	2424.4104	1522.05	642.15
969.9499	2425.7896	1520.7	633.6
970.0796	2427.1682	1502.3	622.15
970.2093	2428.546	1510.65	628.05
970.3389	2429.9232	1508.6	626.1
970.4685	2431.2996	1506.75	626.3
970.5981	2432.6753	1504.1	622.85
970.7277	2434.0503	1494.65	612.95
970.8572	2435.4246	1495.2	615.2
970.9867	2436.7982	1493.6	609.55
971.1161	2438.1711	1497.5	618.8
971.2456	2439.5433	1492.85	610.1
971.375	2440.9148	1495.15	607.75
971.5043	2442.2856	1485	604.3
971.6336	2443.6557	1491.15	606.9
971.7629	2445.025	1480.9	600.55
971.8922	2446.3937	1487.5	605.65
972.0214	2447.7617	1481.05	599.1
972.1506	2449.1289	1480.85	602.6
972.2798	2450.4955	1490.7	605.3
972.4089	2451.8613	1477.05	598.9
972.538	2453.2265	1469.25	588.75
972.6671	2454.5909	1475.7	592.05
972.7961	2455.9546	1473.85	592.95
972.9251	2457.3177	1474.9	592.75
973.0541	2458.68	1473.15	590.6
973.1831	2460.0416	1470.45	588.15
973.312	2461.4025	1472.25	589
973.4408	2462.7627	1483.3	591
973.5697	2464.1222	1469.4	590.2
973.6985	2465.4811	1470.45	588.95
973.8273	2466.8392	1470.35	589
973.956	2468.1966	1466.3	583.4
974.0847	2469.5533	1468.05	583.9
974.2134	2470.9093	1471.55	589.75
974.3421	2472.2645	1472.95	588.85
974.4707	2473.6191	1464.3	583.5
974.5993	2474.973	1466.3	583.35
974.7278	2476.3262	1465.15	582.65
974.8563	2477.6787	1459.05	577.15
974.9848	2479.0305	1453.65	571.6
975.1132	2480.3816	1462.15	577.05
975.2417	2481.7319	1453.65	573
975.37	2483.0816	1456.65	573.9
975.4984	2484.4306	1448.95	567.15
975.6267	2485.7789	1448.2	566.25
975.755	2487.1264	1452.3	567.8
975.8833	2488.4733	1441.8	559.95
976.0115	2489.8195	1458.25	558.65
976.1397	2491.165	1449.95	565.05
976.2678	2492.5097	1443.4	559.75
976.3959	2493.8538	1438	557.5
976.524	2495.1972	1429.8	549.1
976.6521	2496.5398	1430.85	550.7
976.7801	2497.8818	1435.85	551.85
976.9081	2499.2231	1434.95	552.7
977.036	2500.5637	1433.95	551.55
977.164	2501.9035	1424.2	540.2
977.2918	2503.2427	1427.85	542.55
977.4197	2504.5812	1428.6	546.45
977.5475	2505.919	1423.8	538.2
977.6753	2507.256	1430.1	547.95
977.8031	2508.5924	1412.95	532.7
977.9308	2509.9281	1421.2	533.65
978.0585	2511.2631	1416.4	536.45
978.1861	2512.5974	1418.6	536.95
978.3137	2513.9309	1421.1	538.65
978.4413	2515.2638	1437.35	530
978.5689	2516.596	1412.95	532.45
978.6964	2517.9275	1417.55	535.4
978.8239	2519.2583	1404.7	522.1
978.9513	2520.5884	1411.5	528.25
979.0788	2521.9178	1405.3	523.75
979.2062	2523.2465	1408.3	526.3
979.3335	2524.5745	1406.4	525.4
979.4608	2525.9018	1401.55	519.4
979.5881	2527.2284	1399.35	520.1
979.7154	2528.5543	1400.1	521.25
979.8426	2529.8796	1405.9	526
979.9698	2531.2041	1406.9	524.7
980.0969	2532.5279	1394.75	514.65
980.224	2533.851	1404.4	524.15
980.3511	2535.1735	1400.95	520.9
980.4781	2536.4952	1388.55	505.4
980.6052	2537.8163	1402.9	521
980.7321	2539.1366	1393.5	513.95
980.8591	2540.4562	1387.65	504.75
980.986	2541.7752	1390.75	510.8
981.1129	2543.0935	1392.9	510.9
981.2397	2544.411	1398.15	517.2
981.3665	2545.7279	1385.05	502.15
981.4933	2547.0441	1387.35	505.5
981.62	2548.3596	1392.4	509.1
981.7467	2549.6744	1389.2	506.45
981.8734	2550.9885	1386	500.3
982.0001	2552.3019	1384.1	502.45
982.1267	2553.6146	1375.55	494.65
982.2532	2554.9266	1380.6	497.85
982.3798	2556.2379	1374.5	492.35
982.5063	2557.5485	1376.55	494.5
982.6327	2558.8585	1384.8	496.95
982.7592	2560.1677	1379.85	495.5
982.8856	2561.4762	1366.65	486.15
983.0119	2562.7841	1373.1	487.4
983.1383	2564.0913	1366.6	485.45
983.2646	2565.3977	1371.35	489.9
983.3908	2566.7035	1369.85	488.65
983.517	2568.0086	1366.15	482.45
983.6432	2569.313	1368.9	488.25
983.7694	2570.6167	1371.95	486.8
983.8955	2571.9197	1363.75	483.3
984.0216	2573.222	1368.35	484.6
984.1476	2574.5236	1363.95	481.95
984.2737	2575.8246	1370.65	486.05
984.3996	2577.1248	1368.4	483.05
984.5256	2578.4244	1364.95	483.9
984.6515	2579.7232	1361.3	480
984.7774	2581.0214	1397.85	487.55
984.9032	2582.3189	1373.5	494.25
985.029	2583.6157	1369.5	483.25
985.1548	2584.9118	1372.5	490.75
985.2806	2586.2072	1368.3	488
985.4063	2587.5019	1367.5	484.85
985.5319	2588.7959	1370.35	490.55
985.6576	2590.0893	1369.6	485.75
985.7832	2591.3819	1381.25	501.35
985.9087	2592.6739	1370.8	489.25
986.0343	2593.9652	1377.2	492.45
986.1597	2595.2557	1380.2	498.65
986.2852	2596.5456	1377.35	493.95
986.4106	2597.8348	1377.4	494.5
986.536	2599.1234	1373.5	491.6
986.6614	2600.4112	1385.85	503.35
986.7867	2601.6983	1387.7	502.65
986.912	2602.9848	1374.9	492.35
987.0372	2604.2705	1385	494.8
987.1624	2605.5556	1381.5	498.45
987.2876	2606.84	1378.95	497.45
987.4128	2608.1237	1381.7	497
987.5379	2609.4067	1376.25	495.15
987.6629	2610.689	1385.45	495.35
987.788	2611.9707	1377.9	494.45
987.913	2613.2516	1371.5	483.65
988.0379	2614.5319	1368.95	486.45
988.1629	2615.8115	1371.45	487.55
988.2878	2617.0903	1364.6	481.15
988.4126	2618.3685	1371.8	487.95
988.5375	2619.6461	1373.35	491.4
988.6622	2620.9229	1367.1	484.9
988.787	2622.199	1369.45	486.3
988.9117	2623.4745	1366.7	484.45
989.0364	2624.7493	1373.85	491.95
989.161	2626.0234	1366.4	486.1
989.2857	2627.2968	1370.45	487.75
989.4102	2628.5695	1370.45	486.95
989.5348	2629.8415	1367.5	484.65
989.6593	2631.1128	1371.75	488.3
989.7837	2632.3835	1366	484.7
989.9082	2633.6535	1362.5	480.25
990.0326	2634.9228	1365.3	482.85
990.1569	2636.1914	1363.9	481.9
990.2812	2637.4593	1370.75	487.1
990.4055	2638.7265	1365.95	482.55
990.5298	2639.9931	1366.85	485.3
990.654	2641.259	1369.05	484.95
990.7782	2642.5242	1366.65	485.4
990.9023	2643.7887	1361.05	478.2
991.0264	2645.0525	1359.45	480.65
991.1505	2646.3156	1361.05	478.6
991.2745	2647.5781	1355.55	474.95
991.3985	2648.8398	1353.4	472.75
991.5225	2650.1009	1358.35	465.85
991.6464	2651.3613	1351.55	471
991.7703	2652.6211	1349.5	466.7
991.8942	2653.8801	1353.65	472.45
992.018	2655.1385	1352.7	467.85
992.1418	2656.3961	1354.35	472.2
992.2655	2657.6531	1351.75	468.8
992.3892	2658.9094	1354.65	473
992.5129	2660.1651	1358.4	476.4
992.6366	2661.42	1356.8	475.75
992.7602	2662.6743	1357	475
992.8837	2663.9279	1355.75	472.5
993.0073	2665.1808	1352	469.4
993.1307	2666.433	1363.05	482.2
993.2542	2667.6846	1360.85	481.05
993.3776	2668.9354	1367.7	482
993.501	2670.1856	1365.75	482.55
993.6244	2671.4351	1365.45	484.15
993.7477	2672.6839	1374.05	490.8
993.8709	2673.9321	1368.6	487.7
993.9942	2675.1795	1375.55	492.5
994.1174	2676.4263	1373.45	492.15
994.2405	2677.6724	1376.15	493.65
994.3637	2678.9179	1375.1	492.45
994.4868	2680.1626	1381.8	499.7
994.6098	2681.4067	1377.75	497.55
994.7328	2682.6501	1382.45	499.35
994.8558	2683.8928	1379.7	498
994.9788	2685.1348	1377.2	496.1
995.1017	2686.3761	1365.5	484.65
995.2245	2687.6168	1366.05	484
995.3474	2688.8568	1371.8	491.95
995.4702	2690.0961	1361.95	479.9
995.5929	2691.3348	1367.7	487.75
995.7156	2692.5727	1354.3	473.7
995.8383	2693.81	1357.35	474.5
995.961	2695.0466	1350	469.9
996.0836	2696.2826	1355.35	473
996.2062	2697.5178	1362.05	476.7
996.3287	2698.7524	1356.8	476.95
996.4512	2699.9863	1362.9	476.8
996.5737	2701.2195	1353.15	472.9
996.6961	2702.452	1364.25	480.6
996.8185	2703.6839	1367.45	484.3
996.9408	2704.9151	1371.65	490.15
997.0631	2706.1456	1381.9	500.45
997.1854	2707.3755	1378.15	495.95
997.3077	2708.6046	1390.35	505.45
997.4299	2709.8331	1405.05	522.75
997.552	2711.0609	1408.15	526.5
997.6742	2712.2881	1412.55	530.85
997.7963	2713.5145	1423.6	538.7
997.9183	2714.7403	1436.4	555.2
998.0403	2715.9654	1441.7	558.75
998.1623	2717.1899	1468.35	571.8
998.2842	2718.4136	1467.85	586.1
998.4062	2719.6367	1484	599.75
998.528	2720.8591	1499.9	609.95
998.6498	2722.0809	1503.75	619.5
998.7716	2723.3019	1518.55	633.1
998.8934	2724.5223	1519.95	636.5
999.0151	2725.7421	1517.75	632.65
999.1368	2726.9611	1532.75	647.7
999.2584	2728.1795	1533	646.25
999.38	2729.3972	1524.45	645.55
999.5016	2730.6142	1518.8	620.35
999.6231	2731.8306	1500.35	617.15
999.7446	2733.0462	1486.1	601.85
999.8661	2734.2612	1476.85	588.25
999.9875	2735.4756	1454.1	571.9
1000.1089	2736.6892	1435.9	552.25
1000.2302	2737.9022	1418	536.2
1000.3515	2739.1145	1407.5	526.25
1000.4728	2740.3262	1409.7	520.5
1000.594	2741.5372	1382.85	500.25
1000.7152	2742.7475	1368.5	487.75
1000.8363	2743.9571	1367.85	481.15
1000.9575	2745.1661	1356.95	470.3
1001.0785	2746.3744	1342.75	458.85
1001.1996	2747.582	1339.3	457.65
1001.3206	2748.7889	1326.25	442.6
1001.4415	2749.9952	1320.8	438.45
1001.5625	2751.2008	1321.85	437.35
1001.6833	2752.4057	1322.8	439.2
1001.8042	2753.61	1313.5	429.8
1001.925	2754.8136	1312.2	429.45
1002.0458	2756.0165	1311.85	430.4
1002.1665	2757.2188	1307.45	427.1
1002.2872	2758.4204	1308.8	426.1
1002.4078	2759.6213	1311.85	428.45
1002.5285	2760.8215	1313.2	424
1002.649	2762.0211	1310.95	427.6
1002.7696	2763.22	1311	425.25
1002.8901	2764.4182	1305.05	421.1
1003.0106	2765.6158	1306	424.3
1003.131	2766.8127	1303.2	422.05
1003.2514	2768.009	1297.6	416.7
1003.3717	2769.2045	1295.6	411.7
1003.492	2770.3994	1295.2	410
1003.6123	2771.5936	1291	407.75
1003.7325	2772.7872	1296.05	415.8
1003.8527	2773.9801	1288.45	402.5
1003.9729	2775.1723	1304.6	405.05
1004.093	2776.3639	1285.25	402.6
1004.2131	2777.5548	1292.75	407.7
1004.3331	2778.745	1289.4	405.75
1004.4531	2779.9346	1299.45	417.35
1004.5731	2781.1235	1306.3	421.55
1004.693	2782.3117	1303.65	421.95
1004.8129	2783.4992	1308.5	426.9
1004.9328	2784.6861	1310	428.55
1005.0526	2785.8723	1311.75	428.25
1005.1723	2787.0579	1325.3	442.9
1005.2921	2788.2428	1332.4	448.45
1005.4118	2789.427	1342.15	460.45
1005.5314	2790.6106	1355	471.25
1005.651	2791.7935	1364.05	480.85
1005.7706	2792.9757	1380.25	498.9
1005.8902	2794.1573	1388.25	503.3
1006.0097	2795.3382	1406.45	526.45
1006.1291	2796.5184	1422.5	541.95
1006.2485	2797.698	1440.75	556.2
1006.3679	2798.8769	1453.2	570.35
1006.4873	2800.0551	1473.4	592.2
1006.6066	2801.2327	1490.9	606.45
1006.7258	2802.4096	1517.75	636.45
1006.8451	2803.5859	1535.25	653.15
1006.9642	2804.7615	1559.25	675.2
1007.0834	2805.9364	1584.9	704.6
1007.2025	2807.1106	1610.75	730.7
1007.3216	2808.2842	1640.55	756.45
1007.4406	2809.4572	1675.6	793.85
1007.5596	2810.6294	1704.95	820.4
1007.6785	2811.801	1752.85	872.2
1007.7975	2812.972	1799.7	916.7
1007.9163	2814.1423	1836.1	952.6
1008.0352	2815.3119	1898	1014.6
1008.154	2816.4808	1933.3	1051.55
1008.2727	2817.6491	1997.65	1113.4
1008.3914	2818.8167	2039.8	1159.35
1008.5101	2819.9837	2088.65	1204.2
1008.6288	2821.15	2132.4	1251.45
1008.7474	2822.3157	2185.6	1305.85
1008.8659	2823.4807	2232.95	1350
1008.9844	2824.645	2281.4	1400.1
1009.1029	2825.8086	2319.35	1438.9
1009.2214	2826.9716	2350.35	1467.55
1009.3398	2828.134	2379.45	1497.7
1009.4581	2829.2957	2436.9	1554
1009.5764	2830.4567	2459.75	1578.55
1009.6947	2831.617	2469.4	1586.1
1009.813	2832.7767	2493.35	1613.25
1009.9312	2833.9358	2495.15	1613
1010.0493	2835.0941	2488.25	1607.2
1010.1675	2836.2519	2477.9	1595.15
1010.2855	2837.4089	2460.75	1578.9
1010.4036	2838.5653	2456.8	1575.5
1010.5216	2839.7211	2453.55	1571.45
1010.6396	2840.8761	2462.4	1579.65
1010.7575	2842.0306	2482.3	1599
1010.8754	2843.1843	2519.45	1636.9
1010.9932	2844.3374	2568.55	1686.9
1011.111	2845.4899	2627.65	1744.95
1011.2288	2846.6417	2708.5	1827.8
1011.3465	2847.7928	2763.35	1881.25
1011.4642	2848.9433	2858.75	1977.2
1011.5818	2850.0931	2933.3	2049.8
1011.6995	2851.2422	3031.1	2147.4
1011.817	2852.3907	3102.55	2218.55
1011.9345	2853.5385	3173.4	2289
1012.052	2854.6857	3245.05	2336.5
1012.1695	2855.8323	3289.05	2407.15
1012.2869	2856.9781	3325.75	2442.15
1012.4042	2858.1233	3383.5	2501.9
1012.5216	2859.2679	3438.7	2556.35
1012.6389	2860.4118	3477.25	2594.15
1012.7561	2861.555	3537.4	2651.6
1012.8733	2862.6976	3558.9	2674.35
1012.9905	2863.8395	3594.4	2713.55
1013.1076	2864.9808	3626.8	2744.85
1013.2247	2866.1214	3628.3	2747.7
1013.3417	2867.2614	3651.1	2768.3
1013.4587	2868.4007	3660.7	2777.75
1013.5757	2869.5393	3675.8	2791.4
1013.6926	2870.6773	3695.8	2811.3
1013.8095	2871.8146	3709.25	2825.05
1013.9263	2872.9513	3704.35	2818.2
1014.0431	2874.0874	3701.95	2819.9
1014.1599	2875.2227	3697.15	2812.85
1014.2766	2876.3574	3688.85	2808.1
1014.3933	2877.4915	3664.5	2781.7
1014.51	2878.6249	3630.85	2749.2
1014.6266	2879.7577	3604.65	2721.35
1014.7431	2880.8898	3600.8	2709.1
1014.8596	2882.0212	3567.05	2687.25
1014.9761	2883.152	3554.5	2671.8
1015.0925	2884.2821	3536.65	2652.95
1015.2089	2885.4116	3539.4	2657.8
1015.3253	2886.5405	3536.55	2654.55
1015.4416	2887.6686	3544.25	2657.95
1015.5579	2888.7962	3558.5	2677.25
1015.6741	2889.923	3566.2	2686.45
1015.7903	2891.0493	3567.65	2685.35
1015.9065	2892.1748	3589.2	2707.2
1016.0226	2893.2997	3601.8	2718.45
1016.1387	2894.424	3626.75	2745.95
1016.2547	2895.5476	3641.75	2757.4
1016.3707	2896.6706	3657.6	2776.8
1016.4866	2897.7929	3690	2806.85
1016.6025	2898.9145	3714.3	2832.05
1016.7184	2900.0355	3744.5	2863.35
1016.8342	2901.1559	3780.35	2898.85
1016.95	2902.2756	3799.95	2918.05
1017.0658	2903.3946	3840.5	2960.3
1017.1815	2904.513	3871.2	2984.85
1017.2971	2905.6308	3904.2	3021.6
1017.4127	2906.7479	3922.45	3035.65
1017.5283	2907.8643	3960.8	3078.05
1017.6439	2908.9801	3976.35	3094.45
1017.7594	2910.0953	3987.85	3106.25
1017.8748	2911.2098	3976.35	3092.65
1017.9902	2912.3236	3969.9	3080.25
1018.1056	2913.4368	3983.45	3098.55
1018.2209	2914.5494	3955.6	3074.3
1018.3362	2915.6613	3921.4	3033.05
1018.4515	2916.7725	3890.05	3004.6
1018.5667	2917.8831	3874.6	2990.45
1018.6819	2918.9931	3834.3	2949.5
1018.797	2920.1024	3800.5	2917.25
1018.9121	2921.211	3800.35	2919.1
1019.0271	2922.319	3766.8	2884.35
1019.1421	2923.4264	3759.75	2878.25
1019.2571	2924.5331	3735.2	2853.5
1019.372	2925.6391	3717.65	2835
1019.4869	2926.7445	3724.5	2844.05
1019.6017	2927.8493	3712.7	2829.45
1019.7165	2928.9534	3707.3	2825.8
1019.8313	2930.0569	3707.5	2821.7
1019.946	2931.1597	3690.3	2807.45
1020.0606	2932.2619	3678.2	2797.35
1020.1753	2933.3634	3673.05	2792.55
1020.2899	2934.4643	3674.5	2784.3
1020.4044	2935.5645	3645	2759.75
1020.5189	2936.6641	3618.6	2732.2
1020.6334	2937.763	3555.8	2675.75
1020.7478	2938.8613	3527.2	2644.35
1020.8622	2939.959	3455.95	2567.25
1020.9765	2941.056	3373	2491.2
1021.0908	2942.1523	3293.1	2407.95
1021.2051	2943.248	3199.35	2317.45
1021.3193	2944.3431	3113.3	2234.1
1021.4334	2945.4375	3009.95	2125.35
1021.5476	2946.5313	2896.5	2016.4
1021.6617	2947.6244	2800.95	1918.75
1021.7757	2948.7169	2684.45	1803.55
1021.8897	2949.8087	2607.4	1726.1
1022.0037	2950.8999	2508.55	1624.05
1022.1176	2951.9904	2425.1	1543.5
1022.2315	2953.0803	2342.35	1460.4
1022.3453	2954.1696	2280.15	1397.55
1022.4591	2955.2582	2215.5	1334.15
1022.5728	2956.3462	2180.85	1299.7
1022.6865	2957.4335	2144.2	1262.2
1022.8002	2958.5202	2104.5	1220.3
1022.9138	2959.6062	2068.9	1187.35
1023.0274	2960.6916	2052.15	1172.2
1023.141	2961.7764	2027.4	1143.5
1023.2545	2962.8605	2015.65	1133.4
1023.3679	2963.9439	2006.1	1125.05
1023.4813	2965.0267	1997.9	1113.6
1023.5947	2966.1089	2000.5	1096.85
1023.708	2967.1905	1977.7	1097.5
1023.8213	2968.2714	1969.95	1087.7
1023.9346	2969.3516	1968.8	1086.45
1024.0478	2970.4312	1981.3	1090.5
1024.1609	2971.5102	1982.3	1100.5
1024.274	2972.5885	1970.55	1088.9
1024.3871	2973.6662	1978	1091.9
1024.5002	2974.7432	1972.9	1094.8
1024.6132	2975.8196	1967	1085.05
1024.7261	2976.8954	1952.4	1072.6
1024.839	2977.9705	1940.9	1059.45
1024.9519	2979.045	1932.5	1051.7
1025.0647	2980.1188	1906.5	1026.35
1025.1775	2981.192	1887.8	1007.65
1025.2902	2982.2645	1879.9	996.65
1025.4029	2983.3364	1848.05	968.55
1025.5156	2984.4077	1821.85	941.8
1025.6282	2985.4783	1800.75	912
1025.7407	2986.5483	1767.2	886.85
1025.8532	2987.6177	1727	845.6
1025.9657	2988.6864	1701.3	819.7
1026.0782	2989.7545	1662.65	780.95
1026.1906	2990.8219	1625.45	743.65
1026.3029	2991.8887	1592.45	708.75
1026.4152	2992.9548	1558.65	677.7
1026.5275	2994.0204	1529.85	649.4
1026.6397	2995.0852	1498.55	616.65
1026.7519	2996.1495	1478.45	597.85
1026.864	2997.2131	1456.95	576.35
1026.9761	2998.276	1431.35	549.95
1027.0882	2999.3383	1411.4	528.4
1027.2002	3000.4	1397.8	515.65
1027.3122	3001.4611	1377.6	494.95
1027.4241	3002.5215	1367.05	484.8
1027.536	3003.5812	1357.25	473.4
1027.6478	3004.6404	1334.4	452.95
1027.7596	3005.6989	1332.9	449.6
1027.8714	3006.7567	1325.15	442.5
1027.9831	3007.8139	1338.2	437.75
1028.0947	3008.8705	1311.1	430.5
1028.2064	3009.9264	1306.85	422.3
1028.3179	3010.9818	1302.4	422.2
1028.4295	3012.0364	1297.5	414.1
1028.541	3013.0905	1298.9	418.45
1028.6524	3014.1439	1298.15	416.45
1028.7638	3015.1966	1295.25	413.6
1028.8752	3016.2487	1297.65	417
1028.9865	3017.3002	1292.85	408.3
1029.0978	3018.3511	1293.85	414
1029.209	3019.4013	1295.75	414.35
1029.3202	3020.4509	1298	416.95
1029.4314	3021.4998	1298.8	417.2
1029.5425	3022.5481	1296.25	414.9
1029.6535	3023.5958	1292.2	409.9
1029.7645	3024.6428	1294.6	411.4
1029.8755	3025.6892	1302	421.85
1029.9864	3026.735	1302.75	419.45
1030.0973	3027.7802	1307.1	423.85
1030.2082	3028.8247	1310	428.7
1030.319	3029.8685	1311	427.9
1030.4297	3030.9118	1320.6	438.6
1030.5404	3031.9544	1318.45	436.5
1030.6511	3032.9963	1327.75	444.5
1030.7617	3034.0376	1325.5	442.7
1030.8723	3035.0783	1333.65	449.45
1030.9829	3036.1184	1342.1	460.3
1031.0934	3037.1578	1342.9	462.55
1031.2038	3038.1966	1343.1	460.55
1031.3142	3039.2348	1346.35	466.1
1031.4246	3040.2723	1353.85	463
1031.5349	3041.3092	1337.3	457.55
1031.6452	3042.3455	1344.1	462.15
1031.7554	3043.3811	1345.15	464.25
1031.8656	3044.4161	1340.45	456.95
1031.9758	3045.4505	1330.9	450.65
1032.0859	3046.4842	1331.9	451
1032.1959	3047.5173	1321.45	440.85
1032.3059	3048.5498	1314.1	431.6
1032.4159	3049.5816	1309.95	427.7
1032.5258	3050.6128	1298.75	415.45
1032.6357	3051.6434	1292.4	409.3
1032.7455	3052.6734	1286.35	402
1032.8553	3053.7027	1280.9	399.75
1032.9651	3054.7314	1275.7	393.05
1033.0748	3055.7594	1267.65	386.5
1033.1845	3056.7868	1264.2	381
1033.2941	3057.8136	1260.5	379.25
1033.4037	3058.8398	1248.75	368.7
1033.5132	3059.8653	1250	368.35
1033.6227	3060.8902	1242.75	361.9
1033.7321	3061.9145	1239.55	359
1033.8415	3062.9381	1229.8	349.55
1033.9509	3063.9612	1237.25	341.45
1034.0602	3064.9835	1229.45	347.2
1034.1694	3066.0053	1218.65	334.35
1034.2787	3067.0264	1210.55	330.95
1034.3878	3068.0469	1202.6	318.65
1034.497	3069.0668	1191.25	306.4
1034.6061	3070.086	1181.85	300.9
1034.7151	3071.1046	1183.65	299.3
1034.8241	3072.1226	1166.75	284.3
1034.9331	3073.1399	1161	280.7
1035.042	3074.1567	1149.65	265.85
1035.1508	3075.1727	1144.05	259.85
1035.2597	3076.1882	1134.25	252.7
1035.3684	3077.203	1125	244.15
1035.4772	3078.2173	1114.9	232.45
1035.5859	3079.2308	1109.4	225.45
1035.6945	3080.2438	1099.75	215.6
1035.8031	3081.2561	1089	206.65
1035.9117	3082.2678	1085.05	202.65
1036.0202	3083.2789	1076.6	195.65
1036.1286	3084.2893	1073.9	191.8
1036.2371	3085.2991	1067.2	184
1036.3454	3086.3083	1064.25	180.15
1036.4538	3087.3169	1060.7	177
1036.562	3088.3248	1051.6	167.35
1036.6703	3089.3321	1046.75	164.25
1036.7785	3090.3388	1045.6	163.15
1036.8866	3091.3449	1041.6	162.1
1036.9948	3092.3503	1040.65	155.55
1037.1028	3093.3551	1031.85	153.1
1037.2108	3094.3593	1028.15	147.1
1037.3188	3095.3629	1026.15	146.1
1037.4267	3096.3658	1026	144.2
1037.5346	3097.3681	1020.6	139.75
1037.6425	3098.3698	1020.1	134.75
1037.7503	3099.3708	1017.45	134.95
1037.858	3100.3713	1014.4	133.9
1037.9657	3101.3711	1012.3	128.3
1038.0734	3102.3702	1124.65	126.25
1038.181	3103.3688	1009.05	124.95
1038.2886	3104.3667	1004.2	124.85
1038.3961	3105.364	1000.25	121.05
1038.5036	3106.3607	1004.7	121.1
1038.611	3107.3568	1004.05	123.45
1038.7184	3108.3522	1001.55	121.2
1038.8257	3109.347	1001.6	118.3
1038.933	3110.3412	999.4	113.1
1039.0403	3111.3348	997	114.85
1039.1475	3112.3277	994.45	112.15
1039.2547	3113.32	992.2	111.45
1039.3618	3114.3117	996.15	116.3
1039.4689	3115.3028	991.65	112.15
1039.5759	3116.2932	992.7	108.65
1039.6829	3117.2831	992.7	109.05
1039.7898	3118.2723	989.15	108.75
1039.8967	3119.2608	988.35	108.05
1040.0035	3120.2488	984.2	102.15
1040.1103	3121.2361	984.7	102.95
1040.2171	3122.2229	985.55	104.3
1040.3238	3123.209	985.45	104.5
1040.4305	3124.1944	987.2	107
1040.5371	3125.1793	984.25	101.3
1040.6437	3126.1635	978.45	100
1040.7502	3127.1471	979.8	98.05
1040.8567	3128.1301	981.8	101.3
1040.9631	3129.1125	976.25	96.2
1041.0695	3130.0942	978.95	97.2
1041.1759	3131.0753	981.6	89.85
1041.2822	3132.0558	978.5	94.35
1041.3884	3133.0357	975.4	94.55
1041.4946	3134.015	974	90.35
1041.6008	3134.9936	975.55	92.65
1041.7069	3135.9716	992.25	91.45
1041.813	3136.949	971.6	91.15
1041.919	3137.9258	987.3	84.2
1042.025	3138.902	972.45	84.85
1042.1309	3139.8775	968.15	87
1042.2368	3140.8524	968.2	87.55
1042.3427	3141.8267	966.85	84.85
1042.4485	3142.8004	967.1	86
1042.5542	3143.7735	971	83.2
1042.6599	3144.7459	970.25	87.5
1042.7656	3145.7178	966.15	85.9
1042.8712	3146.689	959.5	78.8
1042.9768	3147.6596	963.25	80.45
1043.0823	3148.6295	962.2	80.55
1043.1878	3149.5989	959.6	78.4
1043.2932	3150.5676	961	81.05
1043.3986	3151.5357	957.15	78
1043.5039	3152.5032	956.15	76.55
1043.6092	3153.4701	956.55	76.9
1043.7145	3154.4364	961.1	77.15
1043.8197	3155.402	958.15	78.25
1043.9248	3156.367	957.5	74.55
1044.03	3157.3315	997.8	72.3
1044.135	3158.2952	954.7	69.8
1044.24	3159.2584	950.3	69
1044.345	3160.221	953.6	70.8
1044.4499	3161.1829	949.2	66.45
1044.5548	3162.1442	951.35	71.15
1044.6596	3163.105	948.15	66.85
1044.7644	3164.065	951.25	70.2
1044.8692	3165.0245	951.6	68.1
1044.9739	3165.9834	947.5	69.75
1045.0785	3166.9416	947.85	67.35
1045.1831	3167.8993	949.1	66.5
1045.2877	3168.8563	950.45	69.4
1045.3922	3169.8127	945.15	64.85
1045.4966	3170.7684	947.35	66.65
1045.6011	3171.7236	946.7	65.35
1045.7054	3172.6782	947.9	65.8
1045.8098	3173.6321	946.7	64.3
1045.914	3174.5854	949.4	64.65
1046.0183	3175.5381	945.4	62.35
1046.1224	3176.4902	948.4	68.2
1046.2266	3177.4417	944.15	64.25
1046.3307	3178.3926	944.1	63.05
1046.4347	3179.3428	939.4	62.3
1046.5387	3180.2924	941.05	62.1
1046.6427	3181.2415	941.05	59.9
1046.7466	3182.1899	940.45	56.55
1046.8504	3183.1377	940.25	57.55
1046.9542	3184.0848	945.5	59.95
1047.058	3185.0314	939.3	57.05
1047.1617	3185.9773	940.2	58.5
1047.2654	3186.9227	942.1	62
1047.369	3187.8674	936.1	56.05
1047.4726	3188.8115	943.2	58.35
1047.5761	3189.755	937.7	56.9
1047.6796	3190.6979	936.5	56.45
1047.783	3191.6402	935.9	56.35
1047.8864	3192.5818	936.55	57.95
1047.9898	3193.5229	959.4	57.15
1048.0931	3194.4633	936.35	55.05
1048.1963	3195.4031	935.75	54.6
1048.2995	3196.3423	934	52.95
1048.4027	3197.2809	932.95	50.9
1048.5058	3198.2189	938.05	55.4
1048.6089	3199.1563	954.1	55.2
1048.7119	3200.0931	935.8	56.7
1048.8148	3201.0292	933.6	53.9
1048.9178	3201.9648	935.7	55.3
1049.0206	3202.8997	933.95	50.25
1049.1235	3203.834	932.7	51.75
1049.2262	3204.7677	931.15	49.45
1049.329	3205.7008	934.25	52.25
1049.4317	3206.6333	930.35	49.55
1049.5343	3207.5652	935.4	53.45
1049.6369	3208.4964	931.6	48.6
1049.7394	3209.4271	931.2	52.15
1049.8419	3210.3571	929.85	49.35
1049.9444	3211.2865	930.75	47.95
1050.0468	3212.2154	930.65	46.4
1050.1491	3213.1436	933.9	51.65
1050.2514	3214.0712	936.4	49.5
1050.3537	3214.9982	933.3	51.05
1050.4559	3215.9246	928.8	46.65
1050.5581	3216.8503	928.1	47.1
1050.6602	3217.7755	929.9	48.85
1050.7623	3218.7001	928.75	47.25
1050.8643	3219.624	929.3	47.05
1050.9663	3220.5473	929.25	48.15
1051.0682	3221.4701	927.4	44.85
1051.1701	3222.3922	930.4	47.55
1051.2719	3223.3137	924.45	44.95
1051.3737	3224.2346	926.9	47.8
1051.4754	3225.1549	925.95	45.3
1051.5771	3226.0746	926.35	44.7
1051.6788	3226.9937	927.2	46.85
1051.7804	3227.9121	923.9	43.35
1051.8819	3228.83	925.25	43.05
1051.9834	3229.7473	927.05	46.65
1052.0849	3230.6639	925.9	45
1052.1863	3231.5799	926.8	47.15
1052.2876	3232.4954	925.55	43.65
1052.3889	3233.4102	923.6	42.75
1052.4902	3234.3244	926.3	45.15
1052.5914	3235.238	924.55	44.8
1052.6926	3236.151	948.15	43.2
1052.7937	3237.0634	927.4	48.75
1052.8948	3237.9752	924.6	43.8
1052.9958	3238.8864	924	42
1053.0968	3239.797	924.55	44.5
1053.1977	3240.7069	925.6	42.7
1053.2986	3241.6163	923.55	41.75
1053.3994	3242.5251	921.75	40.8
1053.5002	3243.4332	920.75	41.65
1053.6009	3244.3408	920.45	38.95
1053.7016	3245.2477	918.65	39.15
1053.8022	3246.154	922.6	40.9
1053.9028	3247.0598	920.9	40.4
1054.0034	3247.9649	920.7	41.35
1054.1039	3248.8694	921	39.9
1054.2043	3249.7733	920.45	39.75
1054.3047	3250.6766	919.4	38.1
1054.4051	3251.5793	921.45	39.65
1054.5054	3252.4814	916.5	35.5
1054.6056	3253.3829	915.75	34.4
1054.7058	3254.2838	915.5	36
1054.806	3255.1841	917.4	38.8
1054.9061	3256.0838	915.15	36.05
1055.0061	3256.9829	915.05	36.55
1055.1062	3257.8814	917.6	35.1
1055.2061	3258.7792	919.3	36.35
1055.306	3259.6765	916.6	35.75
1055.4059	3260.5731	913.45	33.65
1055.5057	3261.4692	912.15	30.7
1055.6055	3262.3647	913.55	30.65
1055.7052	3263.2595	915.6	36.25
1055.8049	3264.1538	911.65	30.4
1055.9045	3265.0474	911.3	30.9
1056.0041	3265.9404	912.35	31.35
1056.1036	3266.8329	912.4	32.95
1056.2031	3267.7247	919.4	27.55
1056.3025	3268.616	909.7	32.3
1056.4019	3269.5066	908.75	28.9
1056.5013	3270.3966	910.25	28.15
1056.6005	3271.286	908.05	28.9
