Software Version:	3.9.2.0
Unit SN:	10000200
Spectrometer SN:	6960
Date:	3/14/2024 1:46:33 PM
Data Line Index:	25
Spectral Points:	2048
Integration time (ms):	125
Averages:	20
Delay (ms):	30000
Sequence Number:	1
Processing:	dark subtract
Laser Power (mW):	305
Laser Current (mA):	825
Laser Diode Temp (C):	25.1
Laser Case Temp (C):	28.8
System Temp (C):	28.8
Spectrometer Temp (C):	26.7
CCD Temp (C):	0.007
Secondary Temp (C):	20.01
Heatsink Temp (C):	24.714
CCDPCB Temp (C):	38.03
SecondaryPCB Temp (C):	35.829

Wavelength	RamanShift	Raw Counts	Dark Subtracted
787.061	30.1047	464.35	54.4
787.2016	32.3739	465.25	56.8
787.3422	34.6426	472.6	61.55
787.4828	36.9109	476.4	65.7
787.6235	39.1787	486.3	71.3
787.7642	41.4461	498.6	77.8
787.9049	43.7131	505.15	80
788.0456	45.9796	516.55	88.75
788.1863	48.2456	527.3	96.65
788.3271	50.5112	538.35	102.1
788.4679	52.7764	546.3	108.65
788.6087	55.0411	559.4	119.25
788.7496	57.3054	568.15	123
788.8904	59.5692	580.35	132.5
789.0313	61.8326	595.75	143.65
789.1722	64.0955	608.9	149.15
789.3132	66.3579	628.85	166.7
789.4541	68.6199	650.95	185.05
789.5951	70.8815	680.2	212.5
789.7361	73.1426	765.75	294.75
789.8771	75.4032	977.8	498.6
790.0181	77.6634	1500.85	1017.6
790.1592	79.9231	2741.1	2252.35
790.3003	82.1824	5481.95	4982.75
790.4414	84.4412	10522.8	10005.7
790.5825	86.6995	17667.35	17127.55
790.7237	88.9574	24758.85	24196.45
790.8648	91.2148	29800.5	29221.05
791.006	93.4717	32258.75	31673.25
791.1472	95.7282	32797.15	32205.95
791.2885	97.9842	32791	32197.95
791.4297	100.2398	32285.65	31689.7
791.571	102.4949	31593.25	30990.7
791.7123	104.7495	30848.55	30245.65
791.8536	107.0036	30055.75	29453.35
791.9949	109.2573	29273	28670.15
792.1363	111.5105	28499.2	27892.35
792.2777	113.7632	27793.4	27192.05
792.4191	116.0154	27167.95	26550.9
792.5605	118.2672	26742.75	26131.5
792.7019	120.5185	26269.2	25653.2
792.8434	122.7693	25924.1	25309.6
792.9849	125.0197	25611.45	24994
793.1264	127.2696	25296.75	24676.5
793.2679	129.519	25164.25	24542.95
793.4094	131.7679	24974.05	24352
793.551	134.0163	24767.5	24142.45
793.6926	136.2642	24546.7	23910.85
793.8342	138.5117	24337.3	23692.1
793.9758	140.7587	24032.2	23396.05
794.1175	143.0052	23816.5	23178.25
794.2591	145.2512	23552.6	22915.7
794.4008	147.4967	23301	22662.3
794.5425	149.7417	23159.3	22518.15
794.6842	151.9863	22975.5	22330.7
794.826	154.2304	22938.75	22290.8
794.9677	156.4739	22766.7	22112.9
795.1095	158.717	22646.15	21991.5
795.2513	160.9596	22494.4	21837.6
795.3931	163.2017	22223.85	21563.55
795.535	165.4433	21904.9	21242.4
795.6768	167.6844	21530.4	20864.65
795.8187	169.925	21199.25	20534.1
795.9606	172.1651	20775.4	20107.75
796.1025	174.4047	20543.15	19871.5
796.2445	176.6439	20289.05	19614.2
796.3864	178.8825	19998	19321.15
796.5284	181.1206	19824.4	19145.15
796.6704	183.3582	19637.75	18953.5
796.8124	185.5954	19530.05	18845.65
796.9544	187.832	19424.6	18734.5
797.0965	190.0681	19385.95	18693.15
797.2386	192.3037	19385.35	18692.6
797.3806	194.5388	19376.75	18681.2
797.5228	196.7734	19420.2	18722.9
797.6649	199.0075	19482.45	18781.75
797.807	201.2411	19631.8	18926
797.9492	203.4742	19651.3	18946.05
798.0914	205.7068	19846.35	19139.15
798.2336	207.9389	19893.15	19186.25
798.3758	210.1704	20061.2	19353.85
798.518	212.4015	20142.55	19429.2
798.6603	214.632	20312.3	19594.8
798.8025	216.862	20476.75	19766.7
798.9448	219.0915	20623.25	19920.55
799.0871	221.3205	20792.7	20094.4
799.2294	223.549	21024.9	20334.4
799.3718	225.777	21295.25	20605.8
799.5141	228.0044	21616.65	20922.15
799.6565	230.2314	22010.4	21319.05
799.7989	232.4578	22380.55	21688.1
799.9413	234.6837	22753.4	22056.5
800.0837	236.909	22894.65	22196.6
800.2262	239.1339	22867.4	22143.05
800.3687	241.3582	22654.5	21944.85
800.5111	243.582	22360.2	21625.7
800.6536	245.8053	22038.4	21311.1
800.7961	248.0281	21756	21031.9
800.9387	250.2503	21560.2	20831.55
801.0812	252.472	21417.45	20684.2
801.2238	254.6932	21379.9	20645.95
801.3664	256.9139	21350.35	20615.25
801.509	259.134	21386.65	20644
801.6516	261.3536	21390.9	20651.1
801.7942	263.5727	21492.55	20754.4
801.9369	265.7912	21470.6	20732.65
802.0795	268.0092	21568.75	20824.75
802.2222	270.2267	21528.55	20786.1
802.3649	272.4436	21518.35	20778.5
802.5076	274.6601	21449.8	20699.75
802.6504	276.8759	21368.2	20623
802.7931	279.0913	21290.9	20543.25
802.9359	281.3061	21222.75	20477.25
803.0787	283.5204	21229.65	20478.6
803.2215	285.7341	21292.95	20532.9
803.3643	287.9473	21378.95	20611.75
803.5071	290.16	21575.15	20810.55
803.6499	292.3721	21847.2	21090.55
803.7928	294.5837	22245.55	21489.15
803.9357	296.7947	22578.5	21819.85
804.0786	299.0052	22769.4	22015.65
804.2215	301.2152	22638	21876.7
804.3644	303.4246	22263.85	21504.3
804.5074	305.6334	21698.05	20938.85
804.6503	307.8418	21173.9	20414.4
804.7933	310.0495	20759.85	19999.1
804.9363	312.2568	20372.65	19618.5
805.0793	314.4635	20087	19327
805.2223	316.6696	19962.35	19200.4
805.3653	318.8752	19831.65	19057.95
805.5084	321.0802	19868.1	19107.3
805.6514	323.2847	19951.05	19185.65
805.7945	325.4887	19999.4	19231.25
805.9376	327.692	19936.25	19171.25
806.0807	329.8949	19858.95	19090.4
806.2238	332.0972	19554.65	18784.45
806.367	334.2989	19285.85	18513.45
806.5101	336.5001	18969.55	18194
806.6533	338.7007	18731.15	17957.55
806.7965	340.9008	18645.3	17868.6
806.9397	343.1003	18476.25	17699.45
807.0829	345.2992	18426.25	17649.95
807.2261	347.4976	18375.55	17597.65
807.3693	349.6955	18351.15	17565.4
807.5126	351.8927	18378.45	17593.15
807.6559	354.0895	18295.55	17505.35
807.7991	356.2856	18366.1	17582.8
807.9424	358.4812	18337.2	17553.75
808.0857	360.6763	18335.55	17554.35
808.2291	362.8707	18300.85	17515.6
808.3724	365.0646	18327.9	17541.35
808.5158	367.258	18325.05	17535.05
808.6591	369.4508	18371.45	17577.95
808.8025	371.643	18422.9	17629.4
808.9459	373.8346	18409.1	17614.15
809.0893	376.0257	18393.1	17594.5
809.2327	378.2162	18319.25	17521.5
809.3762	380.4062	18187.2	17384.95
809.5196	382.5956	18038.75	17238.7
809.6631	384.7844	17921.3	17116.55
809.8066	386.9726	17760.8	16952.85
809.9501	389.1603	17699.1	16892.05
810.0936	391.3474	17653.65	16812.95
810.2371	393.5339	17605.25	16796.9
810.3806	395.7199	17547.9	16748.35
810.5241	397.9052	17535.15	16739.2
810.6677	400.09	17567.75	16770.8
810.8113	402.2743	17603.9	16812.9
810.9548	404.4579	17704.95	16912.55
811.0984	406.641	17890.65	17097.9
811.2421	408.8235	18080.05	17287.45
811.3857	411.0054	18359.95	17564.1
811.5293	413.1868	18756	17957
811.673	415.3675	19069.6	18271.1
811.8166	417.5477	19197.1	18396.55
811.9603	419.7273	19188.5	18388.55
812.104	421.9064	19083.05	18277.25
812.2477	424.0848	18961.5	18159.55
812.3914	426.2627	18721.25	17917.15
812.5351	428.4399	18407.45	17598.25
812.6788	430.6166	18019.25	17203.6
812.8226	432.7928	17616.75	16803.5
812.9663	434.9683	17327.25	16513.1
813.1101	437.1432	17090.7	16271.15
813.2539	439.3176	16861.5	16044.6
813.3977	441.4914	16747.45	15931.7
813.5415	443.6645	16736.7	15919.1
813.6853	445.8371	16652.5	15832.6
813.8291	448.0091	16519.35	15698.8
813.973	450.1806	16485.8	15666.5
814.1168	452.3514	16429.7	15610.6
814.2607	454.5216	16417.5	15586.85
814.4046	456.6913	16325.35	15506.9
814.5485	458.8603	16355.95	15534.45
814.6924	461.0288	16440.25	15618
814.8363	463.1967	16434.55	15611.65
814.9802	465.3639	16545.05	15720.45
815.1241	467.5306	16605.15	15779.35
815.2681	469.6967	16677.15	15853.05
815.412	471.8622	16773.2	15948.45
815.556	474.0271	16897.05	16072.7
815.7	476.1914	16934.55	16105.4
815.844	478.3551	16952.6	16126.4
815.988	480.5182	16912.05	16086.3
816.132	482.6807	16910.55	16083.3
816.276	484.8426	17058.85	16232.4
816.4201	487.0039	17310.7	16483.5
816.5641	489.1647	17708.85	16881.4
816.7082	491.3248	18123.35	17298.05
816.8522	493.4843	18316.9	17487.55
816.9963	495.6432	18300.4	17473.1
817.1404	497.8015	18162	17330.8
817.2845	499.9592	18113.95	17287.45
817.4286	502.1163	18031.15	17203
817.5727	504.2728	17734.95	16905.2
817.7168	506.4287	17411.8	16581.85
817.861	508.5839	17001.1	16166.1
818.0051	510.7386	16649.1	15818.75
818.1493	512.8927	16462.75	15625
818.2935	515.0461	16338.65	15506.85
818.4377	517.199	16322.25	15492.05
818.5818	519.3512	16334.2	15499.75
818.726	521.5029	16452.15	15614.55
818.8703	523.6539	16532.85	15700.95
819.0145	525.8043	16582.45	15748.1
819.1587	527.9541	16537.65	15700.95
819.303	530.1033	16505.95	15669.75
819.4472	532.2519	16478.4	15641.7
819.5915	534.3999	16588.05	15748.25
819.7357	536.5472	16805.2	15965.6
819.88	538.694	17221.15	16381.85
820.0243	540.8401	17753.2	16913.25
820.1686	542.9856	18178.8	17334.5
820.3129	545.1305	18322.45	17481.95
820.4572	547.2748	18139.1	17296.6
820.6016	549.4185	17776.35	16933.95
820.7459	551.5615	17447.85	16606.2
820.8902	553.704	17319.45	16476.8
821.0346	555.8458	17214.6	16372.6
821.1789	557.987	17256.7	16413
821.3233	560.1276	17260.05	16413
821.4677	562.2675	17284	16442.8
821.6121	564.4069	17453.2	16611.35
821.7565	566.5456	17505	16664.05
821.9009	568.6837	17462.95	16619.8
822.0453	570.8212	17133	16292
822.1897	572.958	16713.35	15870.8
822.3342	575.0942	16367.95	15527.8
822.4786	577.2299	16072.4	15230.15
822.6231	579.3648	15995.5	15152.6
822.7675	581.4992	16057.2	15215.15
822.912	583.6329	16251.5	15410.35
823.0565	585.766	16430.6	15591.4
823.201	587.8985	16525.3	15684.1
823.3454	590.0304	16552.05	15685.35
823.4899	592.1616	16486.45	15641.2
823.6345	594.2922	16345.4	15501.8
823.779	596.4222	16151.8	15306.5
823.9235	598.5515	15958.7	15112.85
824.068	600.6802	15762.7	14916.1
824.2126	602.8083	15561.85	14716
824.3571	604.9358	15510	14662.8
824.5017	607.0626	15446.95	14598.3
824.6462	609.1888	15390.05	14542.95
824.7908	611.3144	15417.1	14570.55
824.9354	613.4393	15284.9	14436.4
825.08	615.5636	15257.65	14411.65
825.2246	617.6873	15140.9	14293.35
825.3692	619.8103	15073.25	14223.1
825.5138	621.9327	14948.05	14096.3
825.6584	624.0544	14857.1	14007.7
825.803	626.1756	14810.05	13964.45
825.9477	628.2961	14729.65	13879.85
826.0923	630.4159	14669.05	13819.75
826.237	632.5351	14593.2	13741.3
826.3816	634.6537	14522.95	13671.7
826.5263	636.7716	14476.8	13626.15
826.6709	638.8889	14443.65	13590.65
826.8156	641.0056	14487.6	13636.7
826.9603	643.1216	14476.7	13622.95
827.105	645.237	14483.9	13628.9
827.2497	647.3518	14443.3	13588.55
827.3944	649.4659	14426.75	13574.35
827.5391	651.5793	14393.6	13539.55
827.6838	653.6922	14347.2	13494.55
827.8285	655.8043	14318.45	13465.95
827.9733	657.9159	14302.8	13449.1
828.118	660.0268	14216.2	13359.7
828.2627	662.137	14171.9	13317.55
828.4075	664.2466	14129.45	13272.3
828.5522	666.3556	14100.85	13246.15
828.697	668.4639	14070.65	13211.45
828.8418	670.5716	14102.55	13248.2
828.9865	672.6786	14126.15	13267.05
829.1313	674.785	14144.4	13287.05
829.2761	676.8907	14204.8	13346.35
829.4209	678.9958	14274.85	13419.55
829.5657	681.1002	14239.85	13380.95
829.7105	683.204	14187.5	13326.1
829.8553	685.3072	14118.8	13256.1
830.0001	687.4097	14037.2	13180.7
830.1449	689.5115	13979.3	13119.65
830.2898	691.6127	13931.7	13073.2
830.4346	693.7132	13852.4	12990.7
830.5794	695.8131	13796.7	12926.8
830.7243	697.9123	13770.15	12909.55
830.8691	700.0109	13750.55	12889.85
831.014	702.1089	13752.7	12892
831.1588	704.2061	13696.9	12836.05
831.3037	706.3028	13714.95	12850.85
831.4486	708.3987	13765.2	12904.45
831.5935	710.4941	13814	12948.85
831.7383	712.5887	13944.8	13083.6
831.8832	714.6827	14191.9	13326.8
832.0281	716.7761	14509.95	13649.35
832.173	718.8688	14826.3	13965.95
832.3179	720.9608	14999.45	14131.85
832.4628	723.0522	15060.15	14195.6
832.6077	725.1429	14865.5	14003.2
832.7527	727.233	14629.5	13767.15
832.8976	729.3224	14435.75	13569.75
833.0425	731.4112	14184.1	13318.45
833.1874	733.4993	13989.8	13124.35
833.3324	735.5867	13778.55	12914.1
833.4773	737.6735	13653.35	12783.7
833.6222	739.7596	13499.7	12633.9
833.7672	741.845	13436.1	12570.5
833.9122	743.9298	13383.45	12516.3
834.0571	746.014	13364.55	12500.25
834.2021	748.0974	13367.15	12500.8
834.347	750.1802	13347.15	12483.6
834.492	752.2624	13375.75	12510.2
834.637	754.3439	13355.15	12487.35
834.782	756.4247	13432.8	12560.6
834.9269	758.5048	13552.1	12687.85
835.0719	760.5843	13776.4	12911.85
835.2169	762.6631	14115.05	13248.2
835.3619	764.7413	14576.4	13710.3
835.5069	766.8188	15177.4	14310.25
835.6519	768.8956	15671.7	14802.75
835.7969	770.9718	15997.9	15133.3
835.9419	773.0473	15869.05	15002.5
836.0869	775.1221	15486.75	14619.45
836.232	777.1962	15132.95	14265.05
836.377	779.2697	14908.35	14042.35
836.522	781.3426	14955.3	14077.4
836.667	783.4147	15164.2	14296.4
836.8121	785.4862	15410.55	14540.35
836.9571	787.557	15394.1	14525.55
837.1021	789.6271	14986.45	14115.1
837.2472	791.6966	14386.85	13518.55
837.3922	793.7654	13813.3	12941.7
837.5373	795.8335	13437.5	12568.3
837.6823	797.901	13214.1	12346.15
837.8274	799.9678	13118.4	12246.9
837.9724	802.0339	13079.45	12212.2
838.1175	804.0993	13111.7	12233.8
838.2626	806.1641	13075	12205.3
838.4076	808.2282	12957.55	12088.1
838.5527	810.2916	12881.65	12008.15
838.6978	812.3544	12768.9	11900.15
838.8428	814.4164	12690.45	11821.4
838.9879	816.4778	12709.8	11839.65
839.133	818.5385	12689.35	11816.9
839.2781	820.5986	12748.7	11878.7
839.4232	822.658	12889.1	12017.05
839.5682	824.7166	13007	12138
839.7133	826.7747	13311.15	12444.35
839.8584	828.832	13550.95	12683.4
840.0035	830.8886	13713.7	12842.55
840.1486	832.9446	13835	12965.75
840.2937	834.9999	13827.5	12958.1
840.4388	837.0545	13779.4	12905.6
840.5839	839.1085	13674.8	12803.8
840.729	841.1618	13538.6	12663.6
840.8741	843.2143	13468.35	12597.9
841.0192	845.2662	13332.7	12459.85
841.1643	847.3175	13261.8	12390.8
841.3095	849.368	13117.65	12245.5
841.4546	851.4179	12978.25	12104.95
841.5997	853.467	12829.6	11957.55
841.7448	855.5155	12730.3	11858.1
841.8899	857.5633	12637.3	11767.55
842.0351	859.6105	12480.85	11609.8
842.1802	861.6569	12383.9	11509.15
842.3253	863.7027	12334.05	11460.85
842.4704	865.7478	12288.25	11413.35
842.6156	867.7922	12255.95	11385.8
842.7607	869.8359	12291.55	11421
842.9058	871.8789	12368.5	11492.55
843.0509	873.9212	12525.35	11617.85
843.1961	875.9629	12625.55	11749.6
843.3412	878.0039	12822.35	11950.3
843.4863	880.0441	12893.6	12022.15
843.6315	882.0837	12902.05	12028.9
843.7766	884.1226	12804.35	11929.8
843.9218	886.1609	12703.55	11832.05
844.0669	888.1984	12641.55	11768.4
844.212	890.2352	12634.1	11762.5
844.3572	892.2714	12603.75	11729.3
844.5023	894.3069	12568.9	11694.25
844.6475	896.3416	12442.05	11566.65
844.7926	898.3757	12346.1	11471.7
844.9377	900.4091	12331.25	11455.25
845.0829	902.4418	12329.35	11450.85
845.228	904.4739	12314.1	11437.3
845.3732	906.5052	12330.45	11451.65
845.5183	908.5358	12231.2	11357.05
845.6635	910.5658	12069.5	11190.95
845.8086	912.595	11896.6	11021.05
845.9538	914.6236	11729.75	10855.25
846.0989	916.6515	11640.45	10766.65
846.2441	918.6786	11597.7	10722.65
846.3892	920.7051	11636.45	10759.7
846.5344	922.7309	11693.5	10818.25
846.6795	924.756	11720.95	10844
846.8246	926.7804	11840.15	10965.1
846.9698	928.8041	11779.1	10900.1
847.1149	930.8272	11813.75	10938.75
847.2601	932.8495	11760.5	10885.2
847.4052	934.8711	11688.15	10812
847.5504	936.892	11568.55	10693.05
847.6955	938.9123	11423.85	10547.05
847.8407	940.9318	11318.7	10442.45
847.9858	942.9506	11203.2	10325.55
848.131	944.9688	11126.6	10248.55
848.2761	946.9862	11059.65	10182.7
848.4213	949.003	10958.75	10083.8
848.5664	951.019	10945.2	10069.8
848.7115	953.0344	10909.5	10030.95
848.8567	955.0491	10919.95	10044.35
849.0018	957.063	10988.7	10112.9
849.147	959.0763	11111.2	10235.3
849.2921	961.0888	11088.15	10209.45
849.4373	963.1007	11178.25	10299.1
849.5824	965.1119	11214.55	10337.3
849.7275	967.1223	11220.45	10342.3
849.8727	969.1321	11211.65	10334
850.0178	971.1412	11214.9	10337.4
850.1629	973.1495	11217.7	10341.25
850.3081	975.1572	11274.5	10362.2
850.4532	977.1641	11268.45	10391.2
850.5983	979.1704	11226.15	10347.85
850.7435	981.1759	11186.85	10306.65
850.8886	983.1808	11242.25	10365.7
851.0337	985.1849	11339.75	10452.75
851.1788	987.1884	11449.4	10569.95
851.324	989.1911	11589.35	10705.6
851.4691	991.1932	11725.05	10848.25
851.6142	993.1945	11778.2	10900.45
851.7593	995.1951	11694.9	10818.65
851.9045	997.1951	11674.95	10794.35
852.0496	999.1943	11570.75	10691.4
852.1947	1001.1928	11537.35	10658.4
852.3398	1003.1906	11522.35	10645.4
852.4849	1005.1877	11599	10717.4
852.63	1007.1841	11599.45	10722
852.7751	1009.1798	11526.05	10648.1
852.9202	1011.1748	11359.35	10478.95
853.0653	1013.1691	11166.75	10288.6
853.2104	1015.1627	10938.65	10058.65
853.3555	1017.1556	10682.75	9805.55
853.5006	1019.1477	10570.8	9690.95
853.6457	1021.1392	10477.7	9601.15
853.7908	1023.1299	10490.1	9611.55
853.9359	1025.12	10494.55	9613.7
854.081	1027.1093	10559.95	9683
854.2261	1029.0979	10630.9	9751.45
854.3712	1031.0859	10713.7	9837
854.5163	1033.0731	10695.55	9815.7
854.6613	1035.0596	10618.25	9741.45
854.8064	1037.0454	10477.8	9598.55
854.9515	1039.0304	10359.85	9482.2
855.0965	1041.0148	10230.25	9353.55
855.2416	1042.9985	10092.2	9211.05
855.3867	1044.9814	10058.45	9180.55
855.5317	1046.9636	10000.65	9119.85
855.6768	1048.9452	9965.2	9086.85
855.8219	1050.926	9983.4	9105
855.9669	1052.9061	9959.35	9080.6
856.112	1054.8855	9962.35	9082.95
856.257	1056.8642	10000.95	9122.45
856.4021	1058.8421	10039.05	9156.55
856.5471	1060.8194	10076.4	9198.2
856.6921	1062.7959	10072.45	9193.6
856.8372	1064.7717	10090.75	9210.7
856.9822	1066.7469	10111.15	9232.4
857.1272	1068.7213	10126.85	9244.85
857.2723	1070.695	10119.65	9239.8
857.4173	1072.6679	10067.9	9187.35
857.5623	1074.6402	10025.7	9145
857.7073	1076.6117	10025.6	9140.8
857.8523	1078.5826	9971.35	9092.45
857.9973	1080.5527	9980.9	9100.9
858.1423	1082.5221	10014.95	9135.85
858.2873	1084.4908	10171.5	9291.8
858.4323	1086.4587	10311.1	9431.05
858.5773	1088.426	10454.15	9574.3
858.7223	1090.3925	10425.75	9541.3
858.8673	1092.3584	10388.1	9511.85
859.0123	1094.3235	10277.3	9399.05
859.1573	1096.2879	10191.75	9311.45
859.3022	1098.2515	10215.05	9334.2
859.4472	1100.2145	10302	9425.1
859.5922	1102.1767	10411.35	9526.85
859.7371	1104.1382	10591.45	9709.95
859.8821	1106.099	10808.9	9926.2
860.027	1108.0591	11009.8	10129.4
860.172	1110.0185	11165.15	10282.4
860.3169	1111.9771	11194.2	10315.05
860.4619	1113.9351	10976.7	10096.85
860.6068	1115.8923	10691.45	9811.35
860.7517	1117.8488	10396.25	9515.45
860.8967	1119.8045	10164.5	9284.7
861.0416	1121.7596	10031.75	9149.15
861.1865	1123.7139	9935.3	9054.45
861.3314	1125.6675	9967.35	9087.9
861.4763	1127.6204	9989.2	9109.15
861.6212	1129.5726	9961.95	9080
861.7661	1131.524	9942.7	9063.55
861.911	1133.4748	9859.3	8978.4
862.0559	1135.4248	9818.65	8935.85
862.2008	1137.3741	9759.6	8880.45
862.3457	1139.3226	9702	8819.45
862.4905	1141.2705	9652.2	8772.95
862.6354	1143.2176	9584.7	8697.85
862.7803	1145.164	9538.1	8655.45
862.9251	1147.1097	9532.1	8652.4
863.07	1149.0546	9501.45	8619.55
863.2148	1150.9989	9399.2	8519.55
863.3597	1152.9424	9248.75	8368.8
863.5045	1154.8852	9083.7	8203.3
863.6493	1156.8272	8993.35	8111.95
863.7942	1158.7686	8948.2	8060.65
863.939	1160.7092	8910.2	8028.2
864.0838	1162.6491	8911.7	8028.65
864.2286	1164.5883	9011.65	8132
864.3734	1166.5267	9085.8	8204.65
864.5182	1168.4644	9234.1	8351.5
864.663	1170.4014	9423.3	8536.65
864.8078	1172.3377	9646.55	8766.05
864.9526	1174.2732	9899.1	9016.95
865.0974	1176.2081	10173.95	9295.45
865.2421	1178.1421	10462.7	9577.5
865.3869	1180.0755	10762.55	9884.05
865.5317	1182.0082	10887.35	10004.9
865.6764	1183.9401	10959.65	10076.6
865.8212	1185.8713	10804.2	9921.6
865.9659	1187.8017	10546.05	9663.15
866.1106	1189.7315	10238.55	9357.5
866.2554	1191.6605	9960.3	9050.15
866.4001	1193.5888	9736.1	8852.65
866.5448	1195.5163	9594.65	8715.25
866.6895	1197.4432	9505.6	8623.8
866.8342	1199.3693	9469.5	8586.35
866.9789	1201.2947	9443.4	8554.25
867.1236	1203.2193	9380.6	8500.75
867.2683	1205.1432	9419.7	8535.65
867.413	1207.0664	9419.85	8536.4
867.5576	1208.9889	9469.8	8586.9
867.7023	1210.9106	9505.8	8623.9
867.847	1212.8316	9511.4	8629.7
867.9916	1214.7519	9544.7	8651.1
868.1363	1216.6715	9580.15	8697.7
868.2809	1218.5903	9602.05	8721.3
868.4255	1220.5084	9577.55	8694.95
868.5701	1222.4257	9587.5	8705.15
868.7148	1224.3424	9583.25	8703.4
868.8594	1226.2583	9628.5	8741.35
869.004	1228.1735	9729.35	8846.05
869.1486	1230.0879	9840.7	8957.4
869.2932	1232.0016	9990.5	9108.5
869.4377	1233.9146	9987.6	9104.4
869.5823	1235.8269	9915.8	9033.3
869.7269	1237.7384	9808.45	8925.45
869.8715	1239.6492	9595.15	8712.05
870.016	1241.5592	9517.05	8635.2
870.1606	1243.4686	9426.3	8544.05
870.3051	1245.3772	9432.1	8549.7
870.4496	1247.285	9448	8566.1
870.5941	1249.1922	9460.65	8578.05
870.7387	1251.0986	9474.4	8593.6
870.8832	1253.0042	9467.25	8585.05
871.0277	1254.9092	9504.4	8624.2
871.1722	1256.8134	9570	8687.3
871.3167	1258.7169	9750	8865.25
871.4611	1260.6196	9918.35	9035.65
871.6056	1262.5216	10140.05	9255.4
871.7501	1264.4229	10322.2	9440.4
871.8945	1266.3234	10445.55	9562.75
872.039	1268.2232	10537.15	9653.85
872.1834	1270.1223	10553.1	9670.25
872.3278	1272.0207	10524.65	9643.1
872.4723	1273.9183	10494.75	9607.2
872.6167	1275.8151	10431.8	9548.6
872.7611	1277.7113	10347.35	9464.1
872.9055	1279.6067	10262	9380.45
873.0499	1281.5014	10191.75	9306.15
873.1943	1283.3953	10230.6	9344.55
873.3386	1285.2885	10357.65	9476.35
873.483	1287.181	10457.8	9576.8
873.6274	1289.0727	10619.85	9738.55
873.7717	1290.9637	10714.75	9830
873.9161	1292.854	10823.5	9942.4
874.0604	1294.7435	10904.45	10022.25
874.2047	1296.6323	11032.9	10148.45
874.349	1298.5204	11192.1	10304.8
874.4933	1300.4077	11264.7	10380.2
874.6376	1302.2943	11327.4	10444.5
874.7819	1304.1802	11327.85	10446.15
874.9262	1306.0653	11130.75	10246.45
875.0705	1307.9497	10901.05	10019.4
875.2147	1309.8333	10701.3	9818.75
875.359	1311.7162	10579.7	9695.95
875.5032	1313.5984	10584.75	9700.15
875.6475	1315.4798	10604.65	9721.5
875.7917	1317.3605	10690.05	9789.05
875.9359	1319.2405	10708.75	9823.7
876.0801	1321.1197	10668.95	9782.55
876.2243	1322.9982	10516.95	9629.85
876.3685	1324.876	10412.65	9532.25
876.5127	1326.753	10324.75	9440.8
876.6569	1328.6293	10268.6	9383.2
876.801	1330.5048	10227.75	9343.55
876.9452	1332.3796	10159.5	9279.2
877.0893	1334.2537	10146.85	9236.35
877.2335	1336.127	10087.35	9203
877.3776	1337.9996	10090.45	9207.35
877.5217	1339.8714	10062.8	9178.85
877.6658	1341.7426	10088.95	9161.55
877.8099	1343.6129	10031	9147.35
877.954	1345.4826	9950	9066
878.0981	1347.3515	9957.2	9071.5
878.2422	1349.2196	9914.5	9028.55
878.3862	1351.087	9920.6	9037.85
878.5303	1352.9537	9980.65	9098.05
878.6743	1354.8197	10122.85	9240.45
878.8184	1356.6849	10276.25	9391.85
878.9624	1358.5493	10383.3	9499.65
879.1064	1360.4131	10467.25	9584.8
879.2504	1362.276	10462.55	9580.35
879.3944	1364.1383	10328.65	9445.75
879.5384	1365.9998	10115.15	9225.3
879.6823	1367.8606	9772.15	8885.4
879.8263	1369.7206	9462.85	8579.75
879.9702	1371.5799	9212.1	8325.55
880.1142	1373.4384	8997.4	8112.9
880.2581	1375.2962	8809	7923.65
880.402	1377.1533	8551.05	7667.75
880.5459	1379.0096	8258.9	7375.9
880.6898	1380.8652	7943	7058.6
880.8337	1382.7201	7684.6	6800.6
880.9776	1384.5742	7443.2	6558.6
881.1215	1386.4275	7264.35	6379.9
881.2653	1388.2802	7155.65	6273.7
881.4092	1390.132	7041.6	6158.05
881.553	1391.9832	6988.85	6103.9
881.6968	1393.8336	6903.15	6020.15
881.8406	1395.6832	6870.05	5985.25
881.9844	1397.5322	6825.65	5942.25
882.1282	1399.3803	6809.1	5921.85
882.272	1401.2278	6776	5891.65
882.4158	1403.0745	6794.75	5912.3
882.5595	1404.9204	6778.25	5894.85
882.7033	1406.7656	6802.3	5919.35
882.847	1408.6101	6805.5	5920.15
882.9908	1410.4538	6844.1	5960.25
883.1345	1412.2968	6931.5	6047.8
883.2782	1414.139	6967.55	6086.6
883.4219	1415.9805	7065.85	6183.45
883.5656	1417.8213	7154.65	6264.75
883.7092	1419.6613	7263.5	6380.6
883.8529	1421.5006	7446.15	6557.75
883.9965	1423.3391	7686.5	6803.25
884.1402	1425.1769	8009.5	7125.25
884.2838	1427.0139	8501.9	7619.35
884.4274	1428.8502	9090.45	8204.4
884.571	1430.6858	9663.35	8780.7
884.7146	1432.5206	10065.75	9181.85
884.8582	1434.3547	10295.9	9412.3
885.0018	1436.188	10323.7	9439.15
885.1453	1438.0206	10237.85	9352.85
885.2889	1439.8524	10070.95	9188.05
885.4324	1441.6835	9965.45	9082.2
885.5759	1443.5139	9860.2	8971.5
885.7194	1445.3435	9777	8892.85
885.8629	1447.1724	9736.05	8853.85
886.0064	1449.0005	9682.95	8799.55
886.1499	1450.8279	9598.8	8714.85
886.2933	1452.6545	9557.65	8672.85
886.4368	1454.4804	9579.45	8696.95
886.5802	1456.3056	9586.7	8697
886.7237	1458.13	9489.8	8606.45
886.8671	1459.9536	9265.6	8382.2
887.0105	1461.7766	8961.8	8079.6
887.1539	1463.5987	8560.45	7675.45
887.2972	1465.4202	8164.95	7281.5
887.4406	1467.2409	7808.7	6925.1
887.584	1469.0608	7545.85	6664.05
887.7273	1470.88	7280.15	6395.9
887.8706	1472.6984	7049.25	6165.8
888.0139	1474.5161	6849	5961.7
888.1572	1476.3331	6699.15	5817.15
888.3005	1478.1493	6562.6	5679.4
888.4438	1479.9648	6468.8	5585.65
888.5871	1481.7795	6373.1	5488.45
888.7303	1483.5935	6331.45	5449.1
888.8736	1485.4067	6238.6	5355.15
889.0168	1487.2192	6221.15	5337
889.16	1489.031	6145.3	5260.5
889.3032	1490.842	6125.8	5243.75
889.4464	1492.6522	6072.45	5188.05
889.5896	1494.4618	6036.35	5151.3
889.7327	1496.2705	6023.75	5138.8
889.8759	1498.0785	5968.85	5085.55
890.019	1499.8858	5936.9	5051.15
890.1622	1501.6924	5907.45	5024.35
890.3053	1503.4981	5901.6	5019.1
890.4484	1505.3032	5865.35	4982.65
890.5914	1507.1075	5841.15	4956.85
890.7345	1508.911	5802.4	4918.85
890.8776	1510.7138	5780.75	4897
891.0206	1512.5159	5736.9	4853.45
891.1637	1514.3172	5705.6	4819.8
891.3067	1516.1178	5645.85	4763.2
891.4497	1517.9176	5651.75	4764.6
891.5927	1519.7166	5613.05	4731.5
891.7357	1521.515	5586.2	4695.9
891.8786	1523.3126	5558.3	4675.05
892.0216	1525.1094	5528.15	4644.4
892.1645	1526.9055	5511.4	4628.95
892.3074	1528.7008	5499.25	4616.4
892.4503	1530.4954	5472.05	4586.85
892.5932	1532.2893	5476.4	4594.3
892.7361	1534.0824	5438.3	4552.2
892.879	1535.8747	5408.4	4523.95
893.0218	1537.6663	5409.05	4525.9
893.1647	1539.4572	5410.45	4524.95
893.3075	1541.2473	5417.8	4533.1
893.4503	1543.0367	5396.2	4513.25
893.5931	1544.8253	5420.05	4529.95
893.7359	1546.6132	5407.5	4519.9
893.8787	1548.4003	5420.5	4525.4
894.0214	1550.1867	5456.2	4563.5
894.1642	1551.9723	5472.5	4581.6
894.3069	1553.7572	5523.85	4641.05
894.4496	1555.5414	5584.3	4699.45
894.5923	1557.3247	5651.85	4767.85
894.735	1559.1074	5771.15	4887.65
894.8777	1560.8893	5863.8	4983.7
895.0204	1562.6705	5951.45	5068.25
895.163	1564.4509	6037.55	5153.8
895.3056	1566.2305	6094.1	5212.85
895.4482	1568.0094	6172.5	5289.95
895.5908	1569.7876	6194.5	5312.1
895.7334	1571.565	6205.7	5321.85
895.876	1573.3417	6220.75	5338.85
896.0186	1575.1176	6195.45	5309.9
896.1611	1576.8928	6167.45	5284.15
896.3036	1578.6672	6118.35	5233.45
896.4461	1580.4409	6036.05	5152.15
896.5886	1582.2138	5949.7	5064.45
896.7311	1583.986	5877.2	4992
896.8736	1585.7575	5841.95	4959.15
897.0161	1587.5282	5819.35	4937.05
897.1585	1589.2981	5817.95	4933.85
897.3009	1591.0673	5809.9	4926.5
897.4433	1592.8358	5826.75	4945.35
897.5857	1594.6035	5867.65	4981.9
897.7281	1596.3704	5913.8	5030.7
897.8705	1598.1366	5946.05	5063.25
898.0128	1599.9021	6018.3	5135.75
898.1551	1601.6668	6053.1	5165.7
898.2975	1603.4308	6149.65	5266.1
898.4398	1605.194	6270.35	5382.55
898.5821	1606.9564	6392.85	5510.55
898.7243	1608.7182	6567.3	5679.7
898.8666	1610.4791	6761.65	5880.65
899.0088	1612.2394	6968.55	6084.25
899.1511	1613.9988	7162.35	6278.1
899.2933	1615.7576	7407.85	6523.4
899.4355	1617.5156	7632.05	6741.05
899.5776	1619.2728	7777.7	6897.4
899.7198	1621.0293	7878.85	6996.85
899.862	1622.785	7875.5	6986.55
900.0041	1624.54	7764.15	6878.6
900.1462	1626.2942	7575.45	6691.05
900.2883	1628.0477	7332.8	6447.1
900.4304	1629.8005	7086.65	6200.05
900.5725	1631.5525	6855.6	5972.6
900.7145	1633.3037	6681	5795.65
900.8566	1635.0542	6527.45	5643.5
900.9986	1636.804	6416.25	5531.95
901.1406	1638.553	6412.65	5452.7
901.2826	1640.3013	6338.2	5454.7
901.4245	1642.0488	6297.25	5413.8
901.5665	1643.7955	6334.15	5452.6
901.7085	1645.5416	6405.35	5523.15
901.8504	1647.2868	6501.45	5619.25
901.9923	1649.0313	6608.3	5725.95
902.1342	1650.7751	6781.8	5892.2
902.2761	1652.5181	6939.35	6056.5
902.4179	1654.2604	7136.55	6254.05
902.5598	1656.0019	7396.15	6514.05
902.7016	1657.7427	7693.45	6811.15
902.8434	1659.4828	8008.2	7125.4
902.9852	1661.222	8193.15	7310.95
903.127	1662.9606	8164.8	7285.7
903.2687	1664.6984	7936.6	7053.9
903.4105	1666.4354	7525.55	6641.15
903.5522	1668.1717	6982.7	6102.5
903.6939	1669.9072	6481.4	5601.05
903.8356	1671.642	6045.65	5162.65
903.9773	1673.3761	5692.05	4812.25
904.119	1675.1094	5406.4	4523.7
904.2606	1676.8419	5199.9	4318.5
904.4022	1678.5737	5027.9	4144.45
904.5439	1680.3048	4932.65	4049.35
904.6855	1682.0351	4809.45	3928.5
904.827	1683.7646	4715.95	3830.2
904.9686	1685.4934	4644.7	3763.05
905.1101	1687.2215	4594.6	3711.25
905.2517	1688.9488	4537.05	3656
905.3932	1690.6754	4507.45	3625.45
905.5347	1692.4012	4469.4	3589.05
905.6761	1694.1263	4439.2	3558
905.8176	1695.8506	4426.7	3544.8
905.9591	1697.5742	4388.15	3505.7
906.1005	1699.297	4357.6	3474.15
906.2419	1701.0191	4316.85	3435.6
906.3833	1702.7404	4298.8	3415.4
906.5246	1704.461	4265.4	3382.35
906.666	1706.1808	4249	3365.6
906.8073	1707.8999	4219.45	3336.4
906.9487	1709.6182	4206.9	3324.55
907.09	1711.3358	4174.8	3292.9
907.2313	1713.0527	4156.05	3272.15
907.3725	1714.7688	4137.7	3251
907.5138	1716.4841	4110.55	3227.65
907.655	1718.1987	4120.55	3236.75
907.7962	1719.9126	4106.75	3226.4
907.9374	1721.6257	4088.75	3203
908.0786	1723.338	4057.9	3175.45
908.2198	1725.0496	4051.4	3169.3
908.3609	1726.7605	4049.8	3167.85
908.502	1728.4706	4033.3	3149.85
908.6431	1730.18	4019.55	3133.8
908.7842	1731.8886	4001.05	3119.25
908.9253	1733.5964	3990.35	3104.1
909.0664	1735.3036	3974.5	3086.8
909.2074	1737.0099	3946.9	3063.55
909.3484	1738.7156	3946.65	3064.9
909.4894	1740.4204	3917.05	3031.3
909.6304	1742.1246	3899.45	3015.45
909.7714	1743.8279	3899.55	3020.4
909.9123	1745.5306	3879.75	2996.15
910.0532	1747.2325	3852.75	2969.65
910.1941	1748.9336	3829.6	2949.05
910.335	1750.634	3814.45	2931
910.4759	1752.3336	3807.25	2925.5
910.6168	1754.0325	3811.05	2928.6
910.7576	1755.7307	3805.55	2922.8
910.8984	1757.4281	3816.35	2934.15
911.0392	1759.1247	3790.65	2899.1
911.18	1760.8206	3781.05	2896.1
911.3208	1762.5158	3776.95	2892.4
911.4615	1764.2102	3754.4	2874.3
911.6022	1765.9039	3745.1	2861.85
911.7429	1767.5968	3740.5	2860.3
911.8836	1769.289	3727.25	2844.15
912.0243	1770.9804	3705.7	2822.65
912.1649	1772.6711	3727.25	2842.75
912.3056	1774.361	3700.3	2817.15
912.4462	1776.0502	3701.2	2820.1
912.5868	1777.7386	3681.75	2795.8
912.7274	1779.4263	3677.05	2795.85
912.8679	1781.1132	3677.95	2797.65
913.0084	1782.7994	3676.8	2791.1
913.149	1784.4849	3653.75	2771.5
913.2895	1786.1696	3664.3	2761.9
913.4299	1787.8535	3632.85	2752.9
913.5704	1789.5367	3627.6	2743.15
913.7108	1791.2192	3618.25	2736.5
913.8513	1792.9009	3624.9	2727.4
913.9917	1794.5818	3620.5	2737.35
914.132	1796.2621	3605.8	2724.1
914.2724	1797.9415	3599.65	2716.1
914.4128	1799.6202	3574	2693
914.5531	1801.2982	3584.1	2703.45
914.6934	1802.9755	3569.8	2685.1
914.8337	1804.6519	3581.8	2698.35
914.9739	1806.3277	3555.3	2671.25
915.1142	1808.0027	3548.95	2667.25
915.2544	1809.6769	3557.9	2674.15
915.3946	1811.3504	3535.05	2651.3
915.5348	1813.0231	3528.25	2648.2
915.675	1814.6951	3536.25	2652.55
915.8151	1816.3664	3525.95	2642.5
915.9553	1818.0369	3521.15	2639
916.0954	1819.7067	3493.6	2611.55
916.2355	1821.3757	3498.7	2615.5
916.3755	1823.044	3492.45	2609.75
916.5156	1824.7115	3495.95	2613.15
916.6556	1826.3783	3474.75	2594.1
916.7956	1828.0443	3473.85	2591.6
916.9356	1829.7096	3470.4	2588.15
917.0756	1831.3741	3471.8	2585.35
917.2155	1833.0379	3467.5	2585.3
917.3555	1834.701	3441.35	2559.15
917.4954	1836.3633	3454.75	2570.4
917.6353	1838.0248	3439	2555.35
917.7751	1839.6856	3432.4	2548.5
917.915	1841.3457	3428.75	2548.85
918.0548	1843.005	3429.3	2548.7
918.1946	1844.6636	3441.15	2560.05
918.3344	1846.3214	3427.95	2546.25
918.4742	1847.9785	3410.25	2529.65
918.6139	1849.6349	3406.3	2523.2
918.7537	1851.2904	3406.05	2516
918.8934	1852.9453	3388.5	2506.45
919.0331	1854.5994	3394.7	2507.7
919.1727	1856.2528	3379.6	2492.5
919.3124	1857.9054	3387	2504.3
919.452	1859.5572	3366.55	2485.65
919.5916	1861.2083	3371.35	2490.65
919.7312	1862.8587	3367.85	2486.05
919.8708	1864.5084	3369.55	2487.95
920.0103	1866.1572	3353.05	2472.4
920.1498	1867.8054	3345.5	2463.95
920.2893	1869.4528	3335.8	2454.05
920.4288	1871.0994	3322.9	2440.2
920.5683	1872.7453	3321	2440.45
920.7077	1874.3905	3317.35	2416.4
920.8471	1876.0349	3314.45	2432.2
920.9865	1877.6786	3308.4	2425.75
921.1259	1879.3215	3298.95	2419.3
921.2653	1880.9637	3294.05	2411.75
921.4046	1882.6051	3271.85	2388.6
921.5439	1884.2458	3277.9	2392.65
921.6832	1885.8858	3266.35	2385.35
921.8225	1887.525	3263.05	2380.7
921.9617	1889.1634	3255.75	2375
922.101	1890.8011	3245.35	2362.2
922.2402	1892.4381	3238.1	2356.5
922.3794	1894.0743	3244.35	2362.6
922.5185	1895.7098	3230.45	2348.6
922.6577	1897.3446	3226.45	2343.05
922.7968	1898.9786	3225.25	2340.9
922.9359	1900.6118	3221.8	2341.3
923.075	1902.2443	3198.4	2314.25
923.214	1903.8761	3200.15	2320.45
923.3531	1905.5071	3174.5	2291.3
923.4921	1907.1374	3180.2	2295.05
923.6311	1908.7669	3191.7	2309.25
923.77	1910.3957	3173.45	2291.75
923.909	1912.0237	3160.95	2279.85
924.0479	1913.651	3154.65	2271.65
924.1868	1915.2776	3157	2276.9
924.3257	1916.9034	3144.95	2264
924.4646	1918.5285	3133.35	2254.45
924.6034	1920.1528	3128.65	2245.1
924.7422	1921.7764	3129.25	2247.45
924.881	1923.3992	3121.1	2240.8
925.0198	1925.0213	3107.85	2225.75
925.1586	1926.6427	3092.4	2212.15
925.2973	1928.2633	3192	2186.15
925.436	1929.8832	3094.7	2210.8
925.5747	1931.5023	3080.7	2198.9
925.7134	1933.1207	3074.8	2193.4
925.852	1934.7383	3061.25	2176.6
925.9906	1936.3552	3053.3	2171.75
926.1292	1937.9714	3063.7	2181.85
926.2678	1939.5868	3038.9	2156.55
926.4064	1941.2015	3011.7	2129.5
926.5449	1942.8154	3017.85	2137.8
926.6834	1944.4286	3014.5	2134.4
926.8219	1946.041	3016.8	2112.85
926.9604	1947.6528	3005.45	2118.1
927.0988	1949.2637	3000.05	2120.2
927.2372	1950.8739	2982	2099.4
927.3756	1952.4834	2974.8	2091.85
927.514	1954.0921	2967.5	2085.95
927.6523	1955.7001	2965.65	2078.4
927.7907	1957.3074	2953.3	2070.5
927.929	1958.9139	2943.1	2061.25
928.0673	1960.5197	2952.85	2068.6
928.2055	1962.1247	2934.3	2053.6
928.3438	1963.729	2914.25	2033.85
928.482	1965.3325	2935.45	2030.45
928.6202	1966.9353	2909.95	2028.95
928.7584	1968.5374	2908.35	2025.7
928.8965	1970.1387	2898.7	2016.5
929.0346	1971.7393	2887.65	2006.15
929.1727	1973.3392	2877.85	1998.6
929.3108	1974.9383	2872.35	1993.3
929.4489	1976.5366	2863.45	1982.35
929.5869	1978.1342	2862.5	1981.2
929.7249	1979.7311	2864.6	1979.75
929.8629	1981.3273	2857.25	1975.05
930.0009	1982.9227	2848.65	1965.25
930.1388	1984.5173	2842.9	1962
930.2767	1986.1112	2830.05	1948.05
930.4146	1987.7044	2820.85	1941.55
930.5525	1989.2968	2812.75	1928
930.6904	1990.8885	2801.6	1915.85
930.8282	1992.4795	2813.35	1930.55
930.966	1994.0697	2798.85	1915.15
931.1038	1995.6592	2798.2	1916.9
931.2415	1997.2479	2797.15	1915.25
931.3793	1998.8359	2792.6	1910.25
931.517	2000.4232	2776.3	1894.95
931.6547	2002.0097	2768.5	1890.1
931.7923	2003.5955	2769.1	1885.25
931.93	2005.1805	2765.9	1881.85
932.0676	2006.7648	2759.1	1877.75
932.2052	2008.3484	2734.95	1850.95
932.3427	2009.9312	2762.65	1877.8
932.4803	2011.5133	2745	1864.95
932.6178	2013.0946	2738.85	1857.2
932.7553	2014.6752	2725.7	1846.1
932.8928	2016.2551	2733.05	1850.25
933.0302	2017.8342	2734.05	1851.05
933.1676	2019.4126	2723.1	1840.55
933.305	2020.9902	2707.3	1826.45
933.4424	2022.5672	2709.3	1826.2
933.5798	2024.1433	2720.4	1833.15
933.7171	2025.7188	2695.2	1814.2
933.8544	2027.2935	2690.65	1806.2
933.9917	2028.8674	2681.95	1798.9
934.129	2030.4406	2679.15	1797.85
934.2662	2032.0131	2681.45	1799.4
934.4034	2033.5849	2668.75	1780.15
934.5406	2035.1559	2669.4	1787
934.6778	2036.7261	2654.95	1773.45
934.8149	2038.2957	2658	1775.85
934.952	2039.8645	2653.7	1773.45
935.0891	2041.4325	2659.65	1774.8
935.2262	2042.9998	2635.25	1753.7
935.3632	2044.5664	2640.8	1756
935.5002	2046.1323	2631.35	1749.1
935.6372	2047.6974	2631.3	1748.55
935.7742	2049.2617	2623.55	1741.5
935.9111	2050.8254	2650.15	1732.65
936.048	2052.3883	2618.4	1737.3
936.1849	2053.9504	2619.05	1734.85
936.3218	2055.5118	2607.25	1725.45
936.4586	2057.0725	2595.15	1708.15
936.5955	2058.6325	2602	1719.55
936.7323	2060.1917	2589.55	1708.85
936.869	2061.7502	2594.8	1709.5
937.0058	2063.3079	2580	1698.75
937.1425	2064.8649	2573.65	1688.6
937.2792	2066.4212	2567.15	1684.8
937.4159	2067.9767	2568.95	1686.15
937.5525	2069.5315	2579.7	1695
937.6891	2071.0856	2548.25	1665.65
937.8257	2072.6389	2550.95	1665.7
937.9623	2074.1915	2544	1664.3
938.0989	2075.7433	2535.8	1651.2
938.2354	2077.2945	2531.95	1651
938.3719	2078.8448	2517.95	1638.3
938.5084	2080.3945	2519	1638.25
938.6448	2081.9434	2522.65	1641.2
938.7812	2083.4916	2521.25	1638.65
938.9176	2085.039	2503	1620.2
939.054	2086.5857	2492.5	1606.8
939.1903	2088.1317	2490.9	1609.85
939.3267	2089.677	2488.5	1606.4
939.463	2091.2215	2488.05	1607.05
939.5992	2092.7652	2484.1	1600.2
939.7355	2094.3083	2482.9	1601.2
939.8717	2095.8506	2476.55	1594.65
940.0079	2097.3921	2460.75	1579.75
940.1441	2098.933	2463.1	1580.15
940.2802	2100.4731	2469.55	1589.3
940.4163	2102.0124	2487.6	1586.2
940.5524	2103.5511	2466.35	1581.4
940.6885	2105.089	2452.4	1571.25
940.8245	2106.6261	2454.5	1572.95
940.9606	2108.1626	2448.25	1566.4
941.0965	2109.6983	2468.15	1555.4
941.2325	2111.2332	2452.3	1570
941.3684	2112.7675	2434.35	1550.35
941.5044	2114.301	2432.05	1548.2
941.6403	2115.8337	2431.1	1547.5
941.7761	2117.3657	2414.45	1533.35
941.912	2118.897	2419.75	1534.75
942.0478	2120.4276	2414.4	1526.05
942.1835	2121.9575	2406.85	1524.35
942.3193	2123.4866	2424.15	1527.55
942.455	2125.0149	2407.4	1524.05
942.5907	2126.5426	2392.45	1509.5
942.7264	2128.0695	2404.2	1513.45
942.8621	2129.5956	2384.05	1502.1
942.9977	2131.1211	2395.6	1508.45
943.1333	2132.6458	2378.05	1498.85
943.2689	2134.1698	2381.35	1497.9
943.4044	2135.693	2371.6	1485.6
943.54	2137.2155	2380.2	1497
943.6755	2138.7373	2372.8	1489
943.8109	2140.2584	2383.7	1501.15
943.9464	2141.7787	2364.65	1478.35
944.0818	2143.2983	2346.3	1461.95
944.2172	2144.8171	2348.3	1467.9
944.3526	2146.3353	2350.65	1464.65
944.4879	2147.8527	2333.15	1454.05
944.6232	2149.3693	2339.85	1456.9
944.7585	2150.8853	2329.95	1446.45
944.8938	2152.4005	2329.1	1446.75
945.029	2153.9149	2331.2	1448.3
945.1642	2155.4287	2320.45	1440.3
945.2994	2156.9417	2315.35	1429.7
945.4346	2158.454	2321.2	1436.6
945.5697	2159.9655	2308	1426.8
945.7048	2161.4764	2298.3	1414.75
945.8399	2162.9865	2307.5	1421.55
945.9749	2164.4958	2303.45	1419.3
946.1099	2166.0045	2293.85	1405.25
946.2449	2167.5124	2285.6	1403.4
946.3799	2169.0195	2277.7	1396.25
946.5148	2170.526	2289.9	1406.65
946.6498	2172.0317	2277.75	1395.25
946.7846	2173.5367	2271.15	1386.15
946.9195	2175.0409	2271.55	1390.4
947.0543	2176.5445	2273.35	1390.7
947.1891	2178.0473	2275.5	1394.7
947.3239	2179.5494	2264.3	1377.8
947.4587	2181.0507	2251.75	1368.9
947.5934	2182.5513	2256.2	1373.05
947.7281	2184.0512	2250.4	1367.5
947.8628	2185.5504	2247.55	1365.55
947.9974	2187.0488	2243.6	1359.3
948.132	2188.5465	2232.25	1350.55
948.2666	2190.0435	2233.7	1353.4
948.4012	2191.5397	2230.55	1349.35
948.5357	2193.0353	2211.75	1330.75
948.6702	2194.5301	2222.05	1339.55
948.8047	2196.0241	2222.6	1341.7
948.9392	2197.5175	2212.15	1329
949.0736	2199.0101	2206.45	1319.85
949.208	2200.502	2206.35	1323.7
949.3424	2201.9931	2198.8	1317.4
949.4767	2203.4835	2191.6	1306.85
949.611	2204.9733	2199.85	1311
949.7453	2206.4622	2191.05	1310.2
949.8796	2207.9505	2189.85	1304.5
950.0138	2209.438	2176.35	1293.3
950.148	2210.9248	2172.1	1290
950.2822	2212.4109	2171.05	1288.3
950.4164	2213.8962	2163.05	1276.15
950.5505	2215.3809	2170	1286.85
950.6846	2216.8648	2174.5	1290.35
950.8186	2218.3479	2160.05	1274.5
950.9527	2219.8304	2153.7	1269.1
951.0867	2221.3121	2149.85	1267.05
951.2207	2222.7931	2137.75	1256.2
951.3546	2224.2733	2137.65	1255.7
951.4886	2225.7529	2143.3	1259.8
951.6225	2227.2317	2126.4	1242.15
951.7563	2228.7098	2129.9	1249.05
951.8902	2230.1872	2122.05	1239.65
952.024	2231.6638	2125.3	1242.7
952.1578	2233.1397	2109.65	1219.75
952.2916	2234.6149	2110.05	1228.65
952.4253	2236.0894	2109.2	1226.05
952.559	2237.5632	2112.1	1219.25
952.6927	2239.0362	2092.3	1209.3
952.8263	2240.5085	2099.75	1215.3
952.9599	2241.9801	2092.35	1208.85
953.0935	2243.4509	2073.5	1192.5
953.2271	2244.921	2075.1	1193.9
953.3606	2246.3904	2067.3	1183.35
953.4941	2247.8591	2062.5	1181.8
953.6276	2249.3271	2076.8	1193.9
953.7611	2250.7943	2060.05	1175.8
953.8945	2252.2608	2054.15	1171.05
954.0279	2253.7266	2049.9	1168.9
954.1612	2255.1917	2044.9	1163.75
954.2946	2256.656	2042.85	1160.4
954.4279	2258.1197	2039.8	1158.5
954.5612	2259.5826	2039.15	1154.2
954.6944	2261.0447	2032.6	1148.55
954.8276	2262.5062	2036.8	1152.5
954.9608	2263.9669	2034.3	1149.65
955.094	2265.4269	2026.45	1145.1
955.2271	2266.8862	2025.8	1142.6
955.3602	2268.3448	2015.7	1131.2
955.4933	2269.8026	2028.4	1143.8
955.6264	2271.2598	2018	1134.8
955.7594	2272.7162	2016.45	1134.65
955.8924	2274.1719	2013.9	1131.6
956.0253	2275.6268	1992.65	1110.4
956.1583	2277.0811	2007.85	1126.35
956.2912	2278.5346	2009.4	1128.45
956.4241	2279.9874	2004.25	1121.85
956.5569	2281.4395	2005.6	1125.05
956.6897	2282.8908	2009.35	1118.3
956.8225	2284.3414	1998.8	1115.8
956.9553	2285.7914	1988.2	1106.5
957.088	2287.2406	1988.9	1106
957.2207	2288.689	1981.1	1097.75
957.3534	2290.1368	1981.45	1096.7
957.486	2291.5838	1977	1090.55
957.6186	2293.0302	1971.15	1087.4
957.7512	2294.4758	1973.3	1089.25
957.8838	2295.9206	1970	1086.55
958.0163	2297.3648	1973.15	1091.35
958.1488	2298.8082	1968.2	1083.35
958.2813	2300.251	1961.5	1079.25
958.4137	2301.693	1958.5	1072.55
958.5461	2303.1343	1957.65	1074.85
958.6785	2304.5748	1958.1	1074.95
958.8108	2306.0147	1957.2	1074.05
958.9432	2307.4538	1956.8	1072.65
959.0754	2308.8922	1937.25	1055.5
959.2077	2310.3299	1947.8	1063.65
959.3399	2311.7669	1932.75	1049.95
959.4721	2313.2031	1932	1050.05
959.6043	2314.6387	1919.65	1034.95
959.7365	2316.0735	1920.65	1039.75
959.8686	2317.5076	1920.8	1038.25
960.0006	2318.941	1918.1	1036.95
960.1327	2320.3737	1913.7	1031.4
960.2647	2321.8056	1910.45	1026.8
960.3967	2323.2369	1911.4	1029
960.5287	2324.6674	1911.9	1026.6
960.6606	2326.0972	1916.1	1030.9
960.7925	2327.5263	1908.55	1025.55
960.9244	2328.9547	1895.6	1011.7
961.0562	2330.3823	1905.1	1022.1
961.1881	2331.8092	1899.4	1015.5
961.3198	2333.2355	1890.5	1008.35
961.4516	2334.661	1880.2	998.65
961.5833	2336.0858	1880.35	994.85
961.715	2337.5098	1882.7	1001
961.8467	2338.9332	1887.2	1005.45
961.9783	2340.3558	1881.15	994.7
962.1099	2341.7778	1879.2	998.85
962.2415	2343.199	1871.7	986.2
962.373	2344.6195	1880.15	997.3
962.5045	2346.0393	1870.2	988.45
962.636	2347.4583	1868.05	984.7
962.7675	2348.8767	1865.2	984.05
962.8989	2350.2943	1861.9	977.9
963.0303	2351.7113	1874.55	991.3
963.1617	2353.1275	1861.05	977.95
963.293	2354.543	1878.2	971.9
963.4243	2355.9578	1865.15	982.1
963.5556	2357.3718	1861.05	980.45
963.6868	2358.7852	1850.5	964.8
963.818	2360.1978	1848.2	967.3
963.9492	2361.6098	1847.55	966.8
964.0803	2363.021	1843.25	955.65
964.2114	2364.4315	1836.9	956.3
964.3425	2365.8413	1843.85	960.55
964.4736	2367.2504	1821.65	940.9
964.6046	2368.6587	1822.25	937.9
964.7356	2370.0664	1821.25	939.65
964.8666	2371.4733	1819.15	936.75
964.9975	2372.8795	1814.5	931.45
965.1284	2374.285	1816.35	933.15
965.2593	2375.6899	1809.3	929.05
965.3901	2377.0939	1815.05	932.9
965.5209	2378.4973	1802.1	922.05
965.6517	2379.9	1803.1	921
965.7825	2381.3019	1801	917.6
965.9132	2382.7032	1801.25	921.15
966.0439	2384.1037	1792.55	912.6
966.1745	2385.5035	1791.35	910.8
966.3051	2386.9027	1789.5	909.6
966.4357	2388.3011	1782.9	898.5
966.5663	2389.6987	1785.15	901.35
966.6968	2391.0957	1777.8	894.6
966.8273	2392.492	1774.8	893.7
966.9578	2393.8876	1777.15	893.9
967.0882	2395.2824	1766.85	885.95
967.2186	2396.6765	1766.5	886.6
967.349	2398.07	1756.8	876.55
967.4793	2399.4627	1756.2	874.45
967.6097	2400.8547	1754.75	873.1
967.7399	2402.246	1762.5	876.05
967.8702	2403.6366	1741.15	858.85
968.0004	2405.0265	1754.3	874
968.1306	2406.4156	1742.65	856.65
968.2607	2407.8041	1742.6	856.65
968.3909	2409.1918	1736.55	852.9
968.521	2410.5789	1740.2	859.35
968.651	2411.9652	1739.75	855.15
968.781	2413.3508	1737.8	854.1
968.911	2414.7358	1728.15	844.3
969.041	2416.12	1728.35	846.2
969.1709	2417.5035	1732.55	851.25
969.3008	2418.8863	1721.75	838.55
969.4307	2420.2684	1716.15	835.1
969.5606	2421.6497	1717.6	834.95
969.6904	2423.0304	1715.35	834.3
969.8201	2424.4104	1714.4	834.3
969.9499	2425.7896	1714.05	829.45
970.0796	2427.1682	1699.45	817.75
970.2093	2428.546	1703.3	821.75
970.3389	2429.9232	1714.85	832.15
970.4685	2431.2996	1695.75	814.55
970.5981	2432.6753	1693.35	812.3
970.7277	2434.0503	1694.8	812.35
970.8572	2435.4246	1689.1	808.7
970.9867	2436.7982	1688.05	802.3
971.1161	2438.1711	1685.25	805.1
971.2456	2439.5433	1682.05	799.25
971.375	2440.9148	1691.5	805.75
971.5043	2442.2856	1678.9	796.15
971.6336	2443.6557	1678.8	796.9
971.7629	2445.025	1663.35	780.75
971.8922	2446.3937	1676.5	793.15
972.0214	2447.7617	1666.3	783.4
972.1506	2449.1289	1667.25	786.1
972.2798	2450.4955	1669.8	785.6
972.4089	2451.8613	1671.3	790.75
972.538	2453.2265	1653.55	769.6
972.6671	2454.5909	1661.5	776.75
972.7961	2455.9546	1656.1	773.4
972.9251	2457.3177	1655.75	774.2
973.0541	2458.68	1661.1	776.85
973.1831	2460.0416	1651.75	769.2
973.312	2461.4025	1655.2	771.3
973.4408	2462.7627	1656.85	762.9
973.5697	2464.1222	1657.55	775.5
973.6985	2465.4811	1653.35	771.15
973.8273	2466.8392	1641.5	760.2
973.956	2468.1966	1649	763.55
974.0847	2469.5533	1649.75	764
974.2134	2470.9093	1648.3	766.4
974.3421	2472.2645	1644.05	759.3
974.4707	2473.6191	1636.85	756.65
974.5993	2474.973	1640.6	757.6
974.7278	2476.3262	1636.8	751.7
974.8563	2477.6787	1625.95	745.65
974.9848	2479.0305	1632.1	751.55
975.1132	2480.3816	1627.95	742.7
975.2417	2481.7319	1622.75	742.3
975.37	2483.0816	1628.7	745.8
975.4984	2484.4306	1621	738.15
975.6267	2485.7789	1622.9	741.45
975.755	2487.1264	1620.65	736.65
975.8833	2488.4733	1612.8	732.75
976.0115	2489.8195	1618.8	718.9
976.1397	2491.165	1612.6	727
976.2678	2492.5097	1603.25	719.3
976.3959	2493.8538	1606.25	724.65
976.524	2495.1972	1605.25	721.9
976.6521	2496.5398	1604.8	722.05
976.7801	2497.8818	1597.15	713.4
976.9081	2499.2231	1598	716.95
977.036	2500.5637	1593.45	709.4
977.164	2501.9035	1588.9	708.9
977.2918	2503.2427	1583	695.6
977.4197	2504.5812	1586.2	704.35
977.5475	2505.919	1588.8	703.6
977.6753	2507.256	1584.45	702.1
977.8031	2508.5924	1576.3	693.35
977.9308	2509.9281	1591.65	702.25
978.0585	2511.2631	1578.45	695.9
978.1861	2512.5974	1577.9	693.45
978.3137	2513.9309	1575.3	694.8
978.4413	2515.2638	1597.1	688.2
978.5689	2516.596	1574.3	693
978.6964	2517.9275	1577.65	694.15
978.8239	2519.2583	1559.05	676.75
978.9513	2520.5884	1560.6	676.2
979.0788	2521.9178	1562.45	682.2
979.2062	2523.2465	1559.45	677.6
979.3335	2524.5745	1564.65	681.25
979.4608	2525.9018	1551	667.6
979.5881	2527.2284	1553.1	673.2
979.7154	2528.5543	1549.35	668.15
979.8426	2529.8796	1542.4	659.8
979.9698	2531.2041	1553.05	669.4
980.0969	2532.5279	1555.2	675.35
980.224	2533.851	1553.25	670.65
980.3511	2535.1735	1549.15	668.2
980.4781	2536.4952	1545.45	662.75
980.6052	2537.8163	1548.75	663.9
980.7321	2539.1366	1537.8	657.8
980.8591	2540.4562	1549.15	667.1
980.986	2541.7752	1541.4	658.9
981.1129	2543.0935	1540.9	658.6
981.2397	2544.411	1533.7	648.5
981.3665	2545.7279	1542.75	660.55
981.4933	2547.0441	1542.5	658.7
981.62	2548.3596	1540.85	654.95
981.7467	2549.6744	1532.05	649.6
981.8734	2550.9885	1532.25	647.8
982.0001	2552.3019	1523.25	642
982.1267	2553.6146	1522.55	641.3
982.2532	2554.9266	1530.3	647.2
982.3798	2556.2379	1521.1	636.55
982.5063	2557.5485	1516.2	634.7
982.6327	2558.8585	1522.95	632.45
982.7592	2560.1677	1531.6	647.25
982.8856	2561.4762	1522.15	640.1
983.0119	2562.7841	1527.45	643.75
983.1383	2564.0913	1510.7	630.2
983.2646	2565.3977	1513.3	631.95
983.3908	2566.7035	1512.05	627.95
983.517	2568.0086	1519.3	633.15
983.6432	2569.313	1506.8	625.6
983.7694	2570.6167	1515.75	631.05
983.8955	2571.9197	1513.3	630.2
984.0216	2573.222	1507	621.55
984.1476	2574.5236	1504.4	621.05
984.2737	2575.8246	1504.95	619.35
984.3996	2577.1248	1503.45	618.65
984.5256	2578.4244	1502.15	620.55
984.6515	2579.7232	1504.4	622.85
984.7774	2581.0214	1530.8	617.75
984.9032	2582.3189	1502.75	620.45
985.029	2583.6157	1510.25	622.95
985.1548	2584.9118	1503.3	619.35
985.2806	2586.2072	1507.5	626.75
985.4063	2587.5019	1507.7	624.8
985.5319	2588.7959	1512.35	629.85
985.6576	2590.0893	1506.25	622.85
985.7832	2591.3819	1514.55	634.25
985.9087	2592.6739	1511	629.35
986.0343	2593.9652	1508.05	626
986.1597	2595.2557	1519.95	638.7
986.2852	2596.5456	1507.45	624.25
986.4106	2597.8348	1501.45	620.6
986.536	2599.1234	1512.45	629.15
986.6614	2600.4112	1509.15	627.35
986.7867	2601.6983	1505.1	619.4
986.912	2602.9848	1507.85	626.15
987.0372	2604.2705	1511.2	621.05
987.1624	2605.5556	1504.35	621.2
987.2876	2606.84	1506.8	624.2
987.4128	2608.1237	1501.95	618.4
987.5379	2609.4067	1503.95	621.4
987.6629	2610.689	1508.6	617.65
987.788	2611.9707	1502.05	616.55
987.913	2613.2516	1496.8	611.1
988.0379	2614.5319	1493.05	608.05
988.1629	2615.8115	1485.6	603.05
988.2878	2617.0903	1489.2	603.45
988.4126	2618.3685	1488.05	605.75
988.5375	2619.6461	1484.7	603.7
988.6622	2620.9229	1485.85	604.75
988.787	2622.199	1482.2	601.2
988.9117	2623.4745	1482.2	600.4
989.0364	2624.7493	1482.55	598.9
989.161	2626.0234	1481.95	601.75
989.2857	2627.2968	1483.35	601.95
989.4102	2628.5695	1480.7	596.85
989.5348	2629.8415	1475.8	593.2
989.6593	2631.1128	1479.4	597.2
989.7837	2632.3835	1472.2	589.75
989.9082	2633.6535	1471.5	589.3
990.0326	2634.9228	1477.15	595.4
990.1569	2636.1914	1478.85	595.9
990.2812	2637.4593	1478.05	595.4
990.4055	2638.7265	1474	590.9
990.5298	2639.9931	1471.15	588.7
990.654	2641.259	1469.2	585.6
990.7782	2642.5242	1467.45	584.35
990.9023	2643.7887	1457.6	573.65
991.0264	2645.0525	1465	583.8
991.1505	2646.3156	1458.75	574.65
991.2745	2647.5781	1463.45	580.4
991.3985	2648.8398	1459.7	577.1
991.5225	2650.1009	1488.35	567.65
991.6464	2651.3613	1463.2	580.9
991.7703	2652.6211	1460.25	578.5
991.8942	2653.8801	1450.55	567
992.018	2655.1385	1456.35	570.55
992.1418	2656.3961	1456.85	573.15
992.2655	2657.6531	1457.85	577.15
992.3892	2658.9094	1455.4	571.4
992.5129	2660.1651	1453.45	572.45
992.6366	2661.42	1452.35	569.05
992.7602	2662.6743	1461.65	578.35
992.8837	2663.9279	1456.45	577.35
993.0073	2665.1808	1461.95	577.95
993.1307	2666.433	1470.25	586.7
993.2542	2667.6846	1456.2	573.95
993.3776	2668.9354	1463.3	578.65
993.501	2670.1856	1466.45	584.1
993.6244	2671.4351	1468.25	586.35
993.7477	2672.6839	1474.35	590.9
993.8709	2673.9321	1473	592.05
993.9942	2675.1795	1472.2	592.2
994.1174	2676.4263	1471.65	589.5
994.2405	2677.6724	1472.5	590.3
994.3637	2678.9179	1471.35	588.15
994.4868	2680.1626	1475.65	595
994.6098	2681.4067	1471.75	588.35
994.7328	2682.6501	1481.15	598.75
994.8558	2683.8928	1477.35	594.55
994.9788	2685.1348	1469.2	586.7
995.1017	2686.3761	1463.65	583.5
995.2245	2687.6168	1468.3	584.7
995.3474	2688.8568	1462.1	579.4
995.4702	2690.0961	1460.1	579.95
995.5929	2691.3348	1451.65	567.85
995.7156	2692.5727	1455.25	571.85
995.8383	2693.81	1453	569.6
995.961	2695.0466	1452.75	570.75
996.0836	2696.2826	1442.8	560.95
996.2062	2697.5178	1445.15	558.1
996.3287	2698.7524	1446.5	564.1
996.4512	2699.9863	1450.1	565.85
996.5737	2701.2195	1447.8	566.85
996.6961	2702.452	1456.95	573.55
996.8185	2703.6839	1458.6	575.9
996.9408	2704.9151	1459.05	576.65
997.0631	2706.1456	1459.4	574.05
997.1854	2707.3755	1474.65	594.2
997.3077	2708.6046	1476.15	589.65
997.4299	2709.8331	1485.8	601.3
997.552	2711.0609	1482.95	601.85
997.6742	2712.2881	1498.7	618.55
997.7963	2713.5145	1500.85	615.5
997.9183	2714.7403	1521.45	640.35
998.0403	2715.9654	1527.6	644.25
998.1623	2717.1899	1547.5	649.75
998.2842	2718.4136	1542.05	658.75
998.4062	2719.6367	1560.7	678.8
998.528	2720.8591	1575.6	686.7
998.6498	2722.0809	1579.95	698.4
998.7716	2723.3019	1592.8	707.65
998.8934	2724.5223	1605.75	721.6
999.0151	2725.7421	1602.4	716.05
999.1368	2726.9611	1609.6	724.35
999.2584	2728.1795	1609.45	722.35
999.38	2729.3972	1593.55	713.45
999.5016	2730.6142	1600.8	704.85
999.6231	2731.8306	1579.2	696.7
999.7446	2733.0462	1560.95	678.9
999.8661	2734.2612	1550.25	664
999.9875	2735.4756	1527.5	643.85
1000.1089	2736.6892	1513.9	631.6
1000.2302	2737.9022	1496.5	613.15
1000.3515	2739.1145	1477.05	594.05
1000.4728	2740.3262	1474.1	583.95
1000.594	2741.5372	1460.35	575.75
1000.7152	2742.7475	1448.7	565.85
1000.8363	2743.9571	1439.6	555.25
1000.9575	2745.1661	1430.25	543.5
1001.0785	2746.3744	1417.35	534.6
1001.1996	2747.582	1416.45	533.95
1001.3206	2748.7889	1400.55	517.45
1001.4415	2749.9952	1395.05	513.45
1001.5625	2751.2008	1395.25	511.1
1001.6833	2752.4057	1394.45	510.3
1001.8042	2753.61	1390.95	507.85
1001.925	2754.8136	1389.9	505.4
1002.0458	2756.0165	1385.1	503.6
1002.1665	2757.2188	1385.4	504.4
1002.2872	2758.4204	1382.35	501.05
1002.4078	2759.6213	1383.35	498.1
1002.5285	2760.8215	1387.1	499.3
1002.649	2762.0211	1381.4	497
1002.7696	2763.22	1379.15	492.95
1002.8901	2764.4182	1374.35	491.3
1003.0106	2765.6158	1369.45	487.25
1003.131	2766.8127	1371.15	488.95
1003.2514	2768.009	1371.6	489.3
1003.3717	2769.2045	1371.4	488.45
1003.492	2770.3994	1360.05	474.35
1003.6123	2771.5936	1367.7	484.85
1003.7325	2772.7872	1360.55	479.45
1003.8527	2773.9801	1354.55	471.9
1003.9729	2775.1723	1364.55	462.95
1004.093	2776.3639	1352.75	471.5
1004.2131	2777.5548	1365.6	480.4
1004.3331	2778.745	1357.5	473.95
1004.4531	2779.9346	1361.75	479.35
1004.5731	2781.1235	1361.25	478.45
1004.693	2782.3117	1366.7	485.8
1004.8129	2783.4992	1361.3	479.15
1004.9328	2784.6861	1375.05	493.25
1005.0526	2785.8723	1378.55	495.4
1005.1723	2787.0579	1381.2	498.6
1005.2921	2788.2428	1386.8	503.9
1005.4118	2789.427	1394.55	512.2
1005.5314	2790.6106	1405.5	523.15
1005.651	2791.7935	1413.3	531.65
1005.7706	2792.9757	1412.25	528.55
1005.8902	2794.1573	1436.2	551.6
1006.0097	2795.3382	1446.6	564.8
1006.1291	2796.5184	1455.65	575.8
1006.2485	2797.698	1479.65	595.4
1006.3679	2798.8769	1490.95	608.4
1006.4873	2800.0551	1500.9	617.6
1006.6066	2801.2327	1522.95	637.25
1006.7258	2802.4096	1536	652.25
1006.8451	2803.5859	1551.2	669.3
1006.9642	2804.7615	1570.3	686
1007.0834	2805.9364	1591.45	709.75
1007.2025	2807.1106	1624.55	741.6
1007.3216	2808.2842	1646.4	763
1007.4406	2809.4572	1679.65	797.35
1007.5596	2810.6294	1722.85	840.95
1007.6785	2811.801	1757.35	875.9
1007.7975	2812.972	1793.35	912.25
1007.9163	2814.1423	1836.25	952.8
1008.0352	2815.3119	1889.65	1006.2
1008.154	2816.4808	1928.5	1047.45
1008.2727	2817.6491	1975.25	1093.15
1008.3914	2818.8167	2035.45	1154.55
1008.5101	2819.9837	2084.8	1197.25
1008.6288	2821.15	2134.9	1251.25
1008.7474	2822.3157	2182.1	1299.65
1008.8659	2823.4807	2235.55	1350.7
1008.9844	2824.645	2282.3	1397.95
1009.1029	2825.8086	2328.35	1447.35
1009.2214	2826.9716	2369.2	1489.9
1009.3398	2828.134	2424.15	1543.9
1009.4581	2829.2957	2459.05	1579.75
1009.5764	2830.4567	2491.25	1610.15
1009.6947	2831.617	2509.4	1624.75
1009.813	2832.7767	2529.35	1648.1
1009.9312	2833.9358	2519.1	1639.1
1010.0493	2835.0941	2516.9	1631.5
1010.1675	2836.2519	2513.6	1630.15
1010.2855	2837.4089	2484.25	1599.45
1010.4036	2838.5653	2472.8	1590.3
1010.5216	2839.7211	2465.95	1583.6
1010.6396	2840.8761	2480.3	1594.6
1010.7575	2842.0306	2499.2	1616.2
1010.8754	2843.1843	2522.1	1640.3
1010.9932	2844.3374	2566.85	1685.95
1011.111	2845.4899	2624.75	1741.3
1011.2288	2846.6417	2683.3	1801.45
1011.3465	2847.7928	2745.5	1863.6
1011.4642	2848.9433	2825.2	1942.85
1011.5818	2850.0931	2900.45	2018
1011.6995	2851.2422	2971.9	2087.15
1011.817	2852.3907	3044.05	2159.55
1011.9345	2853.5385	3094.35	2209.8
1012.052	2854.6857	3181.25	2272.2
1012.1695	2855.8323	3214.4	2333.65
1012.2869	2856.9781	3251.35	2368.6
1012.4042	2858.1233	3313	2429.75
1012.5216	2859.2679	3361.15	2481.2
1012.6389	2860.4118	3400.95	2518.5
1012.7561	2861.555	3461.45	2574.45
1012.8733	2862.6976	3501.05	2616.9
1012.9905	2863.8395	3523.4	2643.2
1013.1076	2864.9808	3545.8	2663.55
1013.2247	2866.1214	3564.4	2683.3
1013.3417	2867.2614	3570.75	2688.4
1013.4587	2868.4007	3585.4	2700.4
1013.5757	2869.5393	3596.45	2711.75
1013.6926	2870.6773	3627.05	2742.05
1013.8095	2871.8146	3636.65	2750.55
1013.9263	2872.9513	3646.8	2762.05
1014.0431	2874.0874	3631.95	2750.65
1014.1599	2875.2227	3628.05	2744.25
1014.2766	2876.3574	3616.35	2733.8
1014.3933	2877.4915	3587.4	2706.35
1014.51	2878.6249	3548.3	2666.85
1014.6266	2879.7577	3531.5	2649
1014.7431	2880.8898	3504.65	2609.75
1014.8596	2882.0212	3493	2611.25
1014.9761	2883.152	3486.55	2605.15
1015.0925	2884.2821	3480.35	2599.45
1015.2089	2885.4116	3461	2580.45
1015.3253	2886.5405	3464.15	2580.45
1015.4416	2887.6686	3477.6	2594.3
1015.5579	2888.7962	3460.95	2581.5
1015.6741	2889.923	3499.95	2617.7
1015.7903	2891.0493	3493.75	2613.85
1015.9065	2892.1748	3514.05	2630.1
1016.0226	2893.2997	3518.25	2636.3
1016.1387	2894.424	3526.55	2647.85
1016.2547	2895.5476	3549.45	2668.9
1016.3707	2896.6706	3576.15	2695.85
1016.4866	2897.7929	3608.55	2726
1016.6025	2898.9145	3626.2	2743.9
1016.7184	2900.0355	3641.25	2759.75
1016.8342	2901.1559	3689.4	2806.85
1016.95	2902.2756	3716.7	2833.4
1017.0658	2903.3946	3755.35	2872.55
1017.1815	2904.513	3783.85	2900.35
1017.2971	2905.6308	3802.5	2919.35
1017.4127	2906.7479	3823.4	2938.55
1017.5283	2907.8643	3861.4	2980.85
1017.6439	2908.9801	3869.9	2987.7
1017.7594	2910.0953	3867.6	2987.05
1017.8748	2911.2098	3887.75	3000.6
1017.9902	2912.3236	3884.5	2994.5
1018.1056	2913.4368	3858.95	2973.1
1018.2209	2914.5494	3845.85	2963.35
1018.3362	2915.6613	3804.75	2915.4
1018.4515	2916.7725	3785.55	2901.5
1018.5667	2917.8831	3751.05	2868.6
1018.6819	2918.9931	3734.6	2849.8
1018.797	2920.1024	3691.75	2809.4
1018.9121	2921.211	3679.8	2796.65
1019.0271	2922.319	3653.55	2770.35
1019.1421	2923.4264	3626.4	2744.15
1019.2571	2924.5331	3631.8	2749.65
1019.372	2925.6391	3611.9	2730.85
1019.4869	2926.7445	3627	2745.25
1019.6017	2927.8493	3612.8	2732.35
1019.7165	2928.9534	3620	2736.5
1019.8313	2930.0569	3624.1	2737.95
1019.946	2931.1597	3604.15	2721.45
1020.0606	2932.2619	3609.75	2729.75
1020.1753	2933.3634	3577	2694.55
1020.2899	2934.4643	3595.1	2705.1
1020.4044	2935.5645	3577.15	2689.85
1020.5189	2936.6641	3547.2	2658.85
1020.6334	2937.763	3500.2	2618.5
1020.7478	2938.8613	3465	2579.9
1020.8622	2939.959	3433.05	2545.2
1020.9765	2941.056	3348.4	2466.45
1021.0908	2942.1523	3264.3	2380.65
1021.2051	2943.248	3197.8	2315.15
1021.3193	2944.3431	3084.45	2202.95
1021.4334	2945.4375	2986.45	2103.9
1021.5476	2946.5313	2887.15	2006.55
1021.6617	2947.6244	2779.3	1897.45
1021.7757	2948.7169	2674.85	1792.15
1021.8897	2949.8087	2583	1700.6
1022.0037	2950.8999	2498.2	1615.25
1022.1176	2951.9904	2415	1532.9
1022.2315	2953.0803	2344.9	1461.05
1022.3453	2954.1696	2281.05	1399.35
1022.4591	2955.2582	2224.15	1343.5
1022.5728	2956.3462	2175.15	1292.95
1022.6865	2957.4335	2142.85	1258.95
1022.8002	2958.5202	2103.3	1219.25
1022.9138	2959.6062	2070.95	1187.25
1023.0274	2960.6916	2050.5	1167.9
1023.141	2961.7764	2044.45	1161.4
1023.2545	2962.8605	2020.2	1136.9
1023.3679	2963.9439	2014.95	1132.4
1023.4813	2965.0267	2000.1	1117.45
1023.5947	2966.1089	2012.7	1108.1
1023.708	2967.1905	1974.7	1092.1
1023.8213	2968.2714	1983.6	1101.2
1023.9346	2969.3516	1984.3	1102.65
1024.0478	2970.4312	1990.55	1101.45
1024.1609	2971.5102	1989.65	1108.35
1024.274	2972.5885	1987.25	1105.8
1024.3871	2973.6662	1989.7	1103
1024.5002	2974.7432	1984.05	1104.05
1024.6132	2975.8196	1973.55	1091.7
1024.7261	2976.8954	1970.3	1089.3
1024.839	2977.9705	1962.35	1080.85
1024.9519	2979.045	1959.3	1077.75
1025.0647	2980.1188	1937.7	1056
1025.1775	2981.192	1913.2	1032.95
1025.2902	2982.2645	1906	1022.05
1025.4029	2983.3364	1874.25	991.85
1025.5156	2984.4077	1849.3	967.3
1025.6282	2985.4783	1815.8	928
1025.7407	2986.5483	1782.6	900.45
1025.8532	2987.6177	1757.75	874.05
1025.9657	2988.6864	1713.25	828.45
1026.0782	2989.7545	1690.35	807.75
1026.1906	2990.8219	1656.25	775.4
1026.3029	2991.8887	1615.8	731.4
1026.4152	2992.9548	1586.55	705.7
1026.5275	2994.0204	1558.6	675.7
1026.6397	2995.0852	1525.35	645.8
1026.7519	2996.1495	1507.3	623.25
1026.864	2997.2131	1488.45	606.8
1026.9761	2998.276	1460.5	577.3
1027.0882	2999.3383	1439.95	559.35
1027.2002	3000.4	1418.2	534.85
1027.3122	3001.4611	1403.05	517.55
1027.4241	3002.5215	1384.55	506.6
1027.536	3003.5812	1374.6	492.6
1027.6478	3004.6404	1370.45	487.7
1027.7596	3005.6989	1354.7	470.95
1027.8714	3006.7567	1344.2	464.35
1027.9831	3007.8139	1359.2	452.7
1028.0947	3008.8705	1324.5	443.45
1028.2064	3009.9264	1325.25	424.5
1028.3179	3010.9818	1308.75	427.5
1028.4295	3012.0364	1311.15	428.9
1028.541	3013.0905	1306.15	421.7
1028.6524	3014.1439	1300.95	419.65
1028.7638	3015.1966	1296.1	415.8
1028.8752	3016.2487	1297.2	414.5
1028.9865	3017.3002	1299.2	413.3
1029.0978	3018.3511	1294.3	412.3
1029.209	3019.4013	1297.35	416.6
1029.3202	3020.4509	1290.1	408.05
1029.4314	3021.4998	1297.25	413.2
1029.5425	3022.5481	1300.25	418.8
1029.6535	3023.5958	1288.9	406
1029.7645	3024.6428	1292.6	410.5
1029.8755	3025.6892	1295.15	414.6
1029.9864	3026.735	1298.15	416.9
1030.0973	3027.7802	1298	416.8
1030.2082	3028.8247	1292	409.9
1030.319	3029.8685	1301.05	418.55
1030.4297	3030.9118	1311.25	428.65
1030.5404	3031.9544	1314.45	433.55
1030.6511	3032.9963	1315.75	433.65
1030.7617	3034.0376	1314.25	434.2
1030.8723	3035.0783	1326.6	443.95
1030.9829	3036.1184	1321.65	440.85
1031.0934	3037.1578	1327.05	445.15
1031.2038	3038.1966	1327.8	444.25
1031.3142	3039.2348	1326.35	443.55
1031.4246	3040.2723	1340	450.95
1031.5349	3041.3092	1329.35	448.6
1031.6452	3042.3455	1325.65	444.85
1031.7554	3043.3811	1322	440.5
1031.8656	3044.4161	1321.8	439.6
1031.9758	3045.4505	1317.8	438.45
1032.0859	3046.4842	1317.05	437.25
1032.1959	3047.5173	1310.9	428.05
1032.3059	3048.5498	1299.9	418.1
1032.4159	3049.5816	1301.4	419.35
1032.5258	3050.6128	1286.35	403.1
1032.6357	3051.6434	1288.05	404.45
1032.7455	3052.6734	1285.15	401.7
1032.8553	3053.7027	1282.4	401.15
1032.9651	3054.7314	1276.6	394.3
1033.0748	3055.7594	1269.1	386.95
1033.1845	3056.7868	1265.15	384.9
1033.2941	3057.8136	1270.15	387.65
1033.4037	3058.8398	1256.9	377.55
1033.5132	3059.8653	1253	372.7
1033.6227	3060.8902	1242.95	361
1033.7321	3061.9145	1246.45	366.25
1033.8415	3062.9381	1235	353.15
1033.9509	3063.9612	1253	354.9
1034.0602	3064.9835	1230.95	348.45
1034.1694	3066.0053	1226.55	343.3
1034.2787	3067.0264	1219.8	339.8
1034.3878	3068.0469	1212.35	327.9
1034.497	3069.0668	1204.5	320.45
1034.6061	3070.086	1201.05	322.1
1034.7151	3071.1046	1196.05	311.55
1034.8241	3072.1226	1185.05	304.1
1034.9331	3073.1399	1176.4	295
1035.042	3074.1567	1166.1	283.25
1035.1508	3075.1727	1160.1	277.25
1035.2597	3076.1882	1151.95	270.65
1035.3684	3077.203	1140.3	257.45
1035.4772	3078.2173	1137.9	255.65
1035.5859	3079.2308	1133.5	249.55
1035.6945	3080.2438	1122.45	238.45
1035.8031	3081.2561	1112.65	230.45
1035.9117	3082.2678	1108.3	227.8
1036.0202	3083.2789	1104.3	223.05
1036.1286	3084.2893	1101.8	220.7
1036.2371	3085.2991	1092.85	211.15
1036.3454	3086.3083	1093.95	207.9
1036.4538	3087.3169	1083.15	199.5
1036.562	3088.3248	1082.95	199.15
1036.6703	3089.3321	1070.6	185.5
1036.7785	3090.3388	1070.1	191.05
1036.8866	3091.3449	1062.85	179.7
1036.9948	3092.3503	1065.4	183.2
1037.1028	3093.3551	1060.85	180.35
1037.2108	3094.3593	1055.15	175.5
1037.3188	3095.3629	1052	171.7
1037.4267	3096.3658	1050.4	166.85
1037.5346	3097.3681	1048.85	169.65
1037.6425	3098.3698	1044.85	161.25
1037.7503	3099.3708	1050.3	161.2
1037.858	3100.3713	1039.7	159.45
1037.9657	3101.3711	1037.75	154.9
1038.0734	3102.3702	1179.5	160.7
1038.181	3103.3688	1032.8	150.5
1038.2886	3104.3667	1028.8	146.45
1038.3961	3105.364	1030.6	149.8
1038.5036	3106.3607	1028.75	145.05
1038.611	3107.3568	1029.65	148.8
1038.7184	3108.3522	1021.2	143.2
1038.8257	3109.347	1026.95	143.25
1038.933	3110.3412	1025.9	139.4
1039.0403	3111.3348	1021.3	138.95
1039.1475	3112.3277	1018.9	136.3
1039.2547	3113.32	1014.6	133
1039.3618	3114.3117	1018.1	136.45
1039.4689	3115.3028	1017.1	136.35
1039.5759	3116.2932	1016.45	133.35
1039.6829	3117.2831	1018.85	133.8
1039.7898	3118.2723	1010.4	128.1
1039.8967	3119.2608	1009.1	126.75
1040.0035	3120.2488	1008.85	126.9
1040.1103	3121.2361	1005.4	122.8
1040.2171	3122.2229	1004.85	122.25
1040.3238	3123.209	1004.35	123.5
1040.4305	3124.1944	1003.2	120.3
1040.5371	3125.1793	1004.3	121.65
1040.6437	3126.1635	1000.25	119.85
1040.7502	3127.1471	1001.5	120.4
1040.8567	3128.1301	999.9	120.25
1040.9631	3129.1125	995.85	115.8
1041.0695	3130.0942	1001.85	120.8
1041.1759	3131.0753	1009.8	119.9
1041.2822	3132.0558	998.5	114
1041.3884	3133.0357	993.2	112.95
1041.4946	3134.015	995.45	112.45
1041.6008	3134.9936	990.75	107.5
1041.7069	3135.9716	1009.35	108
1041.813	3136.949	993.05	110.95
1041.919	3137.9258	1005.2	106.7
1042.025	3138.902	994.95	107.9
1042.1309	3139.8775	987.6	105.85
1042.2368	3140.8524	988.55	106.8
1042.3427	3141.8267	988.05	102
1042.4485	3142.8004	985.8	103.9
1042.5542	3143.7735	993.2	105.2
1042.6599	3144.7459	985.55	101.95
1042.7656	3145.7178	982.7	100.95
1042.8712	3146.689	985.15	104.45
1042.9768	3147.6596	982.05	98.05
1043.0823	3148.6295	982.35	101.95
1043.1878	3149.5989	976.6	93.9
1043.2932	3150.5676	977.1	96.9
1043.3986	3151.5357	976.9	95.95
1043.5039	3152.5032	977.5	97.95
1043.6092	3153.4701	980.1	99.3
1043.7145	3154.4364	977.55	92.15
1043.8197	3155.402	972.1	93.5
1043.9248	3156.367	976.3	91.8
1044.03	3157.3315	1010.3	93.05
1044.135	3158.2952	972	91
1044.24	3159.2584	971	90.35
1044.345	3160.221	972.4	91.8
1044.4499	3161.1829	971.1	87.9
1044.5548	3162.1442	970.65	90.75
1044.6596	3163.105	963	81.45
1044.7644	3164.065	967.9	86.6
1044.8692	3165.0245	969.95	85.25
1044.9739	3165.9834	964.45	84.65
1045.0785	3166.9416	965.2	83.9
1045.1831	3167.8993	966.95	87.25
1045.2877	3168.8563	967.2	86.15
1045.3922	3169.8127	965.35	82.95
1045.4966	3170.7684	966.1	83.35
1045.6011	3171.7236	964.9	82.5
1045.7054	3172.6782	965.5	84.25
1045.8098	3173.6321	965.85	82.5
1045.914	3174.5854	965.95	81.6
1046.0183	3175.5381	961.1	78.8
1046.1224	3176.4902	965.45	84.6
1046.2266	3177.4417	957.1	75.2
1046.3307	3178.3926	958.7	76.1
1046.4347	3179.3428	954.85	73.35
1046.5387	3180.2924	956.1	74.3
1046.6427	3181.2415	961.05	78.4
1046.7466	3182.1899	957.25	76.35
1046.8504	3183.1377	957.4	76
1046.9542	3184.0848	959.65	72.6
1047.058	3185.0314	954.65	73.95
1047.1617	3185.9773	956.85	72.3
1047.2654	3186.9227	953.55	70.35
1047.369	3187.8674	956.6	74.55
1047.4726	3188.8115	959	73.75
1047.5761	3189.755	953.9	72.95
1047.6796	3190.6979	950.4	67.95
1047.783	3191.6402	953.3	73.55
1047.8864	3192.5818	953.45	71.15
1047.9898	3193.5229	974.15	71.2
1048.0931	3194.4633	950.95	70.7
1048.1963	3195.4031	951.85	70.05
1048.2995	3196.3423	953.65	72.4
1048.4027	3197.2809	953.45	71.7
1048.5058	3198.2189	949.6	68.95
1048.6089	3199.1563	965	65.9
1048.7119	3200.0931	950.35	69.35
1048.8148	3201.0292	947.3	67.25
1048.9178	3201.9648	948.8	67.25
1049.0206	3202.8997	949.75	65.7
1049.1235	3203.834	948.95	66.7
1049.2262	3204.7677	948.55	65.85
1049.329	3205.7008	947.6	65.9
1049.4317	3206.6333	944.9	64.15
1049.5343	3207.5652	946.9	62.75
1049.6369	3208.4964	949.4	68.25
1049.7394	3209.4271	942.05	61.85
1049.8419	3210.3571	943.3	61.8
1049.9444	3211.2865	946.95	61.25
1050.0468	3212.2154	947.6	65.55
1050.1491	3213.1436	947.15	63.75
1050.2514	3214.0712	951.8	64.95
1050.3537	3214.9982	941.95	58.85
1050.4559	3215.9246	944.6	62.45
1050.5581	3216.8503	944	63.75
1050.6602	3217.7755	943.4	62
1050.7623	3218.7001	942.3	60.7
1050.8643	3219.624	940.4	58.4
1050.9663	3220.5473	943.1	62.55
1051.0682	3221.4701	942.5	60.8
1051.1701	3222.3922	939.35	55.15
1051.2719	3223.3137	943.1	62.15
1051.3737	3224.2346	941.4	59.75
1051.4754	3225.1549	939.2	57.75
1051.5771	3226.0746	938.25	57.65
1051.6788	3226.9937	938.5	55.1
1051.7804	3227.9121	941.25	59.35
1051.8819	3228.83	941.75	61.05
1051.9834	3229.7473	938.75	59.5
1052.0849	3230.6639	937.95	53.95
1052.1863	3231.5799	938.65	59.6
1052.2876	3232.4954	940.1	55.8
1052.3889	3233.4102	937.55	57.75
1052.4902	3234.3244	939.25	58.15
1052.5914	3235.238	934.4	52.35
1052.6926	3236.151	957.25	49.05
1052.7937	3237.0634	934.25	54.6
1052.8948	3237.9752	935.5	54.3
1052.9958	3238.8864	935.15	54
1053.0968	3239.797	934.35	52.05
1053.1977	3240.7069	936.7	55.5
1053.2986	3241.6163	934.2	52.55
1053.3994	3242.5251	933.9	54.95
1053.5002	3243.4332	932.1	50.85
1053.6009	3244.3408	934.2	51.7
1053.7016	3245.2477	935.65	55.4
1053.8022	3246.154	935.95	53.35
1053.9028	3247.0598	931.9	50.95
1054.0034	3247.9649	933.3	54.3
1054.1039	3248.8694	931.9	50.75
1054.2043	3249.7733	929.65	48.3
1054.3047	3250.6766	928.7	46.9
1054.4051	3251.5793	930.5	50.15
1054.5054	3252.4814	927.05	45
1054.6056	3253.3829	928.2	50.3
1054.7058	3254.2838	929.7	48.5
1054.806	3255.1841	929.2	50.8
1054.9061	3256.0838	926.55	45.6
1055.0061	3256.9829	927.35	48.9
1055.1062	3257.8814	927.85	45.15
1055.2061	3258.7792	928.05	46.75
1055.306	3259.6765	927.95	45.5
1055.4059	3260.5731	924.1	43.4
1055.5057	3261.4692	922.9	41.15
1055.6055	3262.3647	925.3	45.2
1055.7052	3263.2595	923.35	42.6
1055.8049	3264.1538	922.85	41.15
1055.9045	3265.0474	921.5	39.1
1056.0041	3265.9404	921.35	40.45
1056.1036	3266.8329	919.6	40.45
1056.2031	3267.7247	929.8	37.55
1056.3025	3268.616	919.3	40.5
1056.4019	3269.5066	918.05	35.55
1056.5013	3270.3966	915.95	33.4
1056.6005	3271.286	912.25	32.05
