Software Version:	3.9.2.0
Unit SN:	10000200
Spectrometer SN:	6960
Date:	3/14/2024 2:14:53 PM
Data Line Index:	25
Spectral Points:	2048
Integration time (ms):	125
Averages:	20
Delay (ms):	30000
Sequence Number:	1
Processing:	dark subtract
Laser Power (mW):	300
Laser Current (mA):	826
Laser Diode Temp (C):	25
Laser Case Temp (C):	29.1
System Temp (C):	29.1
Spectrometer Temp (C):	26.9
CCD Temp (C):	0.012
Secondary Temp (C):	20.011
Heatsink Temp (C):	24.926
CCDPCB Temp (C):	38.452
SecondaryPCB Temp (C):	36.018

Wavelength	RamanShift	Raw Counts	Dark Subtracted
787.061	30.1047	457.85	48.55
787.2016	32.3739	457.5	49.25
787.3422	34.6426	463.4	54.05
787.4828	36.9109	468.4	58.8
787.6235	39.1787	478.8	66.2
787.7642	41.4461	484.5	64.7
787.9049	43.7131	494.55	70.85
788.0456	45.9796	501.9	74.8
788.1863	48.2456	509.1	77.3
788.3271	50.5112	525	90.45
788.4679	52.7764	533.95	96.5
788.6087	55.0411	542.45	103.5
788.7496	57.3054	554.9	108.85
788.8904	59.5692	566.9	118
789.0313	61.8326	577.95	125.3
789.1722	64.0955	587.8	130.2
789.3132	66.3579	608.65	146.25
789.4541	68.6199	625	159.3
789.5951	70.8815	656.25	188.1
789.7361	73.1426	730.8	259.65
789.8771	75.4032	920.35	443.1
790.0181	77.6634	1381.4	899.15
790.1592	79.9231	2470.85	1983.15
790.3003	82.1824	4880.9	4380.45
790.4414	84.4412	9369.55	8855.65
790.5825	86.6995	15650.15	15116.8
790.7237	88.9574	22044.9	21493.25
790.8648	91.2148	26650.15	26085.55
791.006	93.4717	28871.15	28295.8
791.1472	95.7282	29476.55	28897.55
791.2885	97.9842	29511.85	28929.35
791.4297	100.2398	29077.55	28491.65
791.571	102.4949	28512.5	27926.85
791.7123	104.7495	27739.9	27146.95
791.8536	107.0036	26980.25	26388.1
791.9949	109.2573	26154	25560.95
792.1363	111.5105	25317.85	24723.65
792.2777	113.7632	24520.65	23926.85
792.4191	116.0154	23810.05	23203.4
792.5605	118.2672	23263.7	22666.75
792.7019	120.5185	22690.9	22090.45
792.8434	122.7693	22275.7	21673.35
792.9849	125.0197	21958.8	21350.5
793.1264	127.2696	21648.95	21040.7
793.2679	129.519	21523.25	20913.85
793.4094	131.7679	21306.4	20691.05
793.551	134.0163	21203.2	20585.65
793.6926	136.2642	21063.7	20441.45
793.8342	138.5117	20884.95	20253.25
793.9758	140.7587	20696.4	20071.15
794.1175	143.0052	20537.25	19910.5
794.2591	145.2512	20327.7	19700.45
794.4008	147.4967	20135.75	19506.1
794.5425	149.7417	19977.65	19345.15
794.6842	151.9863	19855.4	19222.65
794.826	154.2304	19797.95	19157.95
794.9677	156.4739	19636.7	18992.05
795.1095	158.717	19543.45	18900.9
795.2513	160.9596	19403.6	18758
795.3931	163.2017	19152.35	18504.7
795.535	165.4433	18848.15	18198.6
795.6768	167.6844	18491	17839.15
795.8187	169.925	18137.7	17482.85
795.9606	172.1651	17709	17048.8
796.1025	174.4047	17360	16696.25
796.2445	176.6439	17117.9	16451.6
796.3864	178.8825	16809.1	16141.9
796.5284	181.1206	16618.65	15946
796.6704	183.3582	16426.35	15751.55
796.8124	185.5954	16297.6	15621.45
796.9544	187.832	16191.8	15508.35
797.0965	190.0681	16133.65	15452.35
797.2386	192.3037	16122	15437.9
797.3806	194.5388	16092.25	15405.45
797.5228	196.7734	16115.65	15428.35
797.6649	199.0075	16161.05	15469.6
797.807	201.2411	16257.95	15559.4
797.9492	203.4742	16335.85	15641.25
798.0914	205.7068	16449.1	15751.25
798.2336	207.9389	16569.1	15871.75
798.3758	210.1704	16726.6	16026.25
798.518	212.4015	16801.25	16097.7
798.6603	214.632	16973.55	16272.65
798.8025	216.862	17171.55	16476.65
798.9448	219.0915	17355.6	16671.25
799.0871	221.3205	17611.1	16926.7
799.2294	223.549	17921.05	17240.9
799.3718	225.777	18287.65	17607.35
799.5141	228.0044	18776.45	18089.15
799.6565	230.2314	19301.2	18620.15
799.7989	232.4578	19837.85	19153.65
799.9413	234.6837	20285.85	19596.8
800.0837	236.909	20527.2	19834.45
800.2262	239.1339	20499.6	19782.55
800.3687	241.3582	20163.5	19459.8
800.5111	243.582	19763.9	19035.05
800.6536	245.8053	19298.45	18582
800.7961	248.0281	18878.85	18165.25
800.9387	250.2503	18477.6	17756.3
801.0812	252.472	18247.45	17521.35
801.2238	254.6932	18123.95	17396.8
801.3664	256.9139	17949.65	17221.15
801.509	259.134	17837.85	17103.85
801.6516	261.3536	17710.55	16979.9
801.7942	263.5727	17665.5	16934.6
801.9369	265.7912	17458.3	16728.8
802.0795	268.0092	17415.9	16684.45
802.2222	270.2267	17314.15	16580.5
802.3649	272.4436	17227.65	16494.65
802.5076	274.6601	17183	16444.5
802.6504	276.8759	17078.55	16346.8
802.7931	279.0913	17094.95	16357
802.9359	281.3061	17125.8	16387.4
803.0787	283.5204	17244.8	16500.85
803.2215	285.7341	17362.9	16616.75
803.3643	287.9473	17565.85	16806.65
803.5071	290.16	17843.5	17090
803.6499	292.3721	18198.5	17450.45
803.7928	294.5837	18682.7	17934.9
803.9357	296.7947	19116.35	18371.85
804.0786	299.0052	19344.4	18597.8
804.2215	301.2152	19145.9	18394.95
804.3644	303.4246	18722.3	17975.85
804.5074	305.6334	18082.15	17335.7
804.6503	307.8418	17488.55	16739.65
804.7933	310.0495	17021.4	16271.15
804.9363	312.2568	16719.6	15970.5
805.0793	314.4635	16505.85	15754.45
805.2223	316.6696	16404.1	15649.6
805.3653	318.8752	16408.1	15647.75
805.5084	321.0802	16469.25	15715.35
805.6514	323.2847	16599.65	15845.6
805.7945	325.4887	16664.3	15906.15
805.9376	327.692	16560.35	15803.2
806.0807	329.8949	16467.9	15707.95
806.2238	332.0972	16150.5	15389.15
806.367	334.2989	15842.65	15079.2
806.5101	336.5001	15550.3	14785.55
806.6533	338.7007	15300.7	14537.4
806.7965	340.9008	15167.1	14399.35
806.9397	343.1003	15030.35	14260.8
807.0829	345.2992	14944.8	14176.85
807.2261	347.4976	14924.2	14152.45
807.3693	349.6955	14928.4	14156.9
807.5126	351.8927	14961.7	14188.25
807.6559	354.0895	14974.45	14190.55
807.7991	356.2856	15011.5	14233.25
807.9424	358.4812	14995	14218.5
808.0857	360.6763	15008.95	14232.7
808.2291	362.8707	14970.95	14195.1
808.3724	365.0646	15004.75	14225.85
808.5158	367.258	14961.05	14176.95
808.6591	369.4508	14950.35	14167.8
808.8025	371.643	14997.2	14211.35
808.9459	373.8346	14966.35	14178.9
809.0893	376.0257	14910.8	14119.5
809.2327	378.2162	14811.85	14019.95
809.3762	380.4062	14698.45	13901.5
809.5196	382.5956	14539.6	13745.6
809.6631	384.7844	14401.4	13610.3
809.8066	386.9726	14308.15	13510.1
809.9501	389.1603	14224.4	13430.2
810.0936	391.3474	14176.85	13347.95
810.2371	393.5339	14151.25	13360
810.3806	395.7199	14087.2	13299.2
810.5241	397.9052	14109.5	13323.5
810.6677	400.09	14070.7	13283.2
810.8113	402.2743	14104.3	13318.7
810.9548	404.4579	14134.6	13350.9
811.0984	406.641	14307.4	13520.65
811.2421	408.8235	14523.15	13737.25
811.3857	411.0054	14880.75	14094.05
811.5293	413.1868	15377.75	14587.6
811.673	415.3675	15819.05	15031
811.8166	417.5477	16056.05	15263.5
811.9603	419.7273	16121.1	15328.35
812.104	421.9064	16001.35	15200.65
812.2477	424.0848	15833.75	15033.75
812.3914	426.2627	15581.8	14781.9
812.5351	428.4399	15233.15	14431.95
812.6788	430.6166	14828.1	14020.75
812.8226	432.7928	14453.85	13646.5
812.9663	434.9683	14086.8	13279.75
813.1101	437.1432	13846.1	13039.3
813.2539	439.3176	13671.7	12865.9
813.3977	441.4914	13557.5	12748.2
813.5415	443.6645	13497.5	12681.75
813.6853	445.8371	13431.75	12616.95
813.8291	448.0091	13338.95	12528.7
813.973	450.1806	13275.7	12468
814.1168	452.3514	13189.35	12374.4
814.2607	454.5216	13204.6	12384.65
814.4046	456.6913	13100.15	12286.5
814.5485	458.8603	13077.5	12265.05
814.6924	461.0288	13162.7	12349.25
814.8363	463.1967	13182.15	12367.5
814.9802	465.3639	13338.2	12521.95
815.1241	467.5306	13480.55	12663.45
815.2681	469.6967	13635.15	12817.95
815.412	471.8622	13831.2	13016.8
815.556	474.0271	14018.1	13202.7
815.7	476.1914	14108.85	13290.75
815.844	478.3551	14059.85	13242.4
815.988	480.5182	13990.5	13171.55
816.132	482.6807	13943.05	13121.9
816.276	484.8426	13962.2	13143.9
816.4201	487.0039	14219.6	13401.4
816.5641	489.1647	14632.1	13810.6
816.7082	491.3248	15106.2	14287.2
816.8522	493.4843	15339.6	14519.6
816.9963	495.6432	15349.8	14531.5
817.1404	497.8015	15290.45	14468.9
817.2845	499.9592	15288.45	14466.35
817.4286	502.1163	15253.45	14430.8
817.5727	504.2728	15065.9	14241.1
817.7168	506.4287	14753.6	13928.7
817.861	508.5839	14250.85	13429.7
818.0051	510.7386	13823.4	13002
818.1493	512.8927	13582.2	12753.65
818.2935	515.0461	13411.05	12587
818.4377	517.199	13277	12451.05
818.5818	519.3512	13194.2	12369.1
818.726	521.5029	13182.05	12350.5
818.8703	523.6539	13177.15	12346.55
819.0145	525.8043	13192.15	12364.45
819.1587	527.9541	13244.35	12414.65
819.303	530.1033	13272.15	12441.55
819.4472	532.2519	13325.35	12496.35
819.5915	534.3999	13488.5	12657.2
819.7357	536.5472	13865.4	13034.5
819.88	538.694	14403.15	13571.6
820.0243	540.8401	15090.95	14257.95
820.1686	542.9856	15705.75	14872.75
820.3129	545.1305	15903.05	15071.1
820.4572	547.2748	15731	14899
820.6016	549.4185	15287.75	14454.6
820.7459	551.5615	14844.95	14011.95
820.8902	553.704	14617.35	13781.9
821.0346	555.8458	14490.15	13655.15
821.1789	557.987	14411.45	13579.8
821.3233	560.1276	14253.95	13415.3
821.4677	562.2675	14126.6	13291.85
821.6121	564.4069	13968	13136.9
821.7565	566.5456	13837.15	13005.15
821.9009	568.6837	13674.85	12839.45
822.0453	570.8212	13423.3	12591.05
822.1897	572.958	13165.55	12329.8
822.3342	575.0942	13009.8	12178.55
822.4786	577.2299	12876.4	12041.4
822.6231	579.3648	12892.95	12058.1
822.7675	581.4992	13031.65	12195.65
822.912	583.6329	13246.9	12409.5
823.0565	585.766	13489.5	12655.85
823.201	587.8985	13644.25	12808.25
823.3454	590.0304	13653.6	12808.25
823.4899	592.1616	13571.55	12734.4
823.6345	594.2922	13469.4	12630.8
823.779	596.4222	13325.3	12486.8
823.9235	598.5515	13133.95	12294.4
824.068	600.6802	12942.85	12104.4
824.2126	602.8083	12746.25	11906.55
824.3571	604.9358	12645.25	11805
824.5017	607.0626	12545.35	11704.25
824.6462	609.1888	12431.45	11589.2
824.7908	611.3144	12294.1	11452.7
824.9354	613.4393	12096.45	11257.25
825.08	615.5636	11949.9	11107.3
825.2246	617.6873	11814.8	10973.1
825.3692	619.8103	11760.05	10918.95
825.5138	621.9327	11678.55	10834
825.6584	624.0544	11656.65	10815.75
825.803	626.1756	11646.1	10802
825.9477	628.2961	11603.15	10759.2
826.0923	630.4159	11530.75	10690.6
826.237	632.5351	11457	10613.55
826.3816	634.6537	11434.8	10592.65
826.5263	636.7716	11402.1	10553.9
826.6709	638.8889	11370.95	10528.85
826.8156	641.0056	11382.1	10534.5
826.9603	643.1216	11360.5	10512.95
827.105	645.237	11394.2	10548.05
827.2497	647.3518	11384.1	10534.65
827.3944	649.4659	11421.95	10573.8
827.5391	651.5793	11427.2	10578.75
827.6838	653.6922	11399.9	10555.25
827.8285	655.8043	11337.7	10489.55
827.9733	657.9159	11330.3	10482.5
828.118	660.0268	11231.75	10382.05
828.2627	662.137	11151.5	10303
828.4075	664.2466	11096.7	10245.25
828.5522	666.3556	11054.25	10207.75
828.697	668.4639	11058.05	10204.35
828.8418	670.5716	11113.95	10262.95
828.9865	672.6786	11162.2	10308.9
829.1313	674.785	11259.9	10405.3
829.2761	676.8907	11356.35	10504.2
829.4209	678.9958	11431.4	10582.25
829.5657	681.1002	11435.65	10581.7
829.7105	683.204	11374.8	10520.65
829.8553	685.3072	11281.15	10427.5
830.0001	687.4097	11197.2	10345.5
830.1449	689.5115	11140.1	10286.6
830.2898	691.6127	11055.85	10201.9
830.4346	693.7132	10936.65	10082.9
830.5794	695.8131	10886.8	10011.7
830.7243	697.9123	10793.2	9940.5
830.8691	700.0109	10738.45	9884.4
831.014	702.1089	10715.2	9862.95
831.1588	704.2061	10710.65	9855.65
831.3037	706.3028	10721.65	9867.7
831.4486	708.3987	10766.9	9912.05
831.5935	710.4941	10836	9982.1
831.7383	712.5887	11038.05	10183.6
831.8832	714.6827	11366.4	10506.7
832.0281	716.7761	11779.85	10921.75
832.173	718.8688	12210.85	11354.3
832.3179	720.9608	12445.75	11586.65
832.4628	723.0522	12463.8	11603.1
832.6077	725.1429	12170.7	11314.6
832.7527	727.233	11758.6	10901
832.8976	729.3224	11375.7	10518.1
833.0425	731.4112	11014.65	10155.05
833.1874	733.4993	10789.85	9929.8
833.3324	735.5867	10605.55	9746.45
833.4773	737.6735	10502.4	9641.15
833.6222	739.7596	10453.45	9590.6
833.7672	741.845	10422.9	9563.9
833.9122	743.9298	10401.7	9541.05
834.0571	746.014	10424.4	9566.25
834.2021	748.0974	10443	9580.45
834.347	750.1802	10421.45	9561.8
834.492	752.2624	10401.5	9542.85
834.637	754.3439	10394.5	9534.55
834.782	756.4247	10462.2	9593.55
834.9269	758.5048	10538.65	9678.1
835.0719	760.5843	10728.4	9868.8
835.2169	762.6631	10977.25	10118
835.3619	764.7413	11405.8	10545.9
835.5069	766.8188	11961.25	11097.55
835.6519	768.8956	12478.15	11614.25
835.7969	770.9718	12773.15	11913.9
835.9419	773.0473	12676.15	11819.5
836.0869	775.1221	12307.55	11447.45
836.232	777.1962	11902.9	11043.05
836.377	779.2697	11726.05	10862.3
836.522	781.3426	11770.55	10896.5
836.667	783.4147	12064.5	11201.85
836.8121	785.4862	12421	11559.85
836.9571	787.557	12460.85	11599.8
837.1021	789.6271	12105.85	11244.25
837.2472	791.6966	11525.65	10662.1
837.3922	793.7654	10967.3	10103.4
837.5373	795.8335	10637.05	9773.55
837.6823	797.901	10382.5	9521.05
837.8274	799.9678	10361.45	9499.4
837.9724	802.0339	10370.95	9506.8
838.1175	804.0993	10418.3	9543.5
838.2626	806.1641	10419.75	9557.05
838.4076	808.2282	10309.05	9449.4
838.5527	810.2916	10233.85	9367.9
838.6978	812.3544	10110.3	9247.8
838.8428	814.4164	10004.75	9142.7
838.9879	816.4778	10007.1	9141.9
839.133	818.5385	9958.4	9094.55
839.2781	820.5986	10000.45	9135.6
839.4232	822.658	10017.45	9149.1
839.5682	824.7166	10069.95	9208.8
839.7133	826.7747	10169.95	9308.05
839.8584	828.832	10283.1	9419.25
840.0035	830.8886	10348.6	9482.25
840.1486	832.9446	10497.25	9629.9
840.2937	834.9999	10598.9	9736
840.4388	837.0545	10713.75	9845.3
840.5839	839.1085	10774.8	9906.45
840.729	841.1618	10808.25	9938.45
840.8741	843.2143	10783.6	9918.9
841.0192	845.2662	10717.1	9852.5
841.1643	847.3175	10655.2	9791.05
841.3095	849.368	10530.25	9664.3
841.4546	851.4179	10391.95	9525.95
841.5997	853.467	10234.55	9367.5
841.7448	855.5155	10088.4	9223.35
841.8899	857.5633	9985.9	9120.1
842.0351	859.6105	9837.25	8971.2
842.1802	861.6569	9768.7	8903.85
842.3253	863.7027	9700.8	8834.7
842.4704	865.7478	9679.3	8810.45
842.6156	867.7922	9671.55	8805.2
842.7607	869.8359	9716.05	8846.85
842.9058	871.8789	9837.6	8972.85
843.0509	873.9212	10060.7	9159.45
843.1961	875.9629	10198.9	9330.7
843.3412	878.0039	10403.1	9534.1
843.4863	880.0441	10512.5	9647.5
843.6315	882.0837	10479.6	9609.75
843.7766	884.1226	10344.6	9474.05
843.9218	886.1609	10166	9300.1
844.0669	888.1984	10008	9141.5
844.212	890.2352	9924.65	9057.95
844.3572	892.2714	9842.05	8970.5
844.5023	894.3069	9820.25	8950.8
844.6475	896.3416	9752.4	8882.9
844.7926	898.3757	9726.3	8855.7
844.9377	900.4091	9712.15	8841.1
845.0829	902.4418	9734.65	8861.25
845.228	904.4739	9722.1	8851.3
845.3732	906.5052	9669.4	8799.85
845.5183	908.5358	9573.25	8705.5
845.6635	910.5658	9407.1	8535.85
845.8086	912.595	9265.05	8395.4
845.9538	914.6236	9129.45	8258.45
846.0989	916.6515	9065.75	8197.9
846.2441	918.6786	9055.05	8182.7
846.3892	920.7051	9121.8	8247.8
846.5344	922.7309	9247.35	8378.6
846.6795	924.756	9319.2	8448.6
846.8246	926.7804	9401.7	8529.5
846.9698	928.8041	9389.25	8517.2
847.1149	930.8272	9365.8	8496.75
847.2601	932.8495	9292.7	8422.35
847.4052	934.8711	9232.55	8361.2
847.5504	936.892	9060.25	8189.95
847.6955	938.9123	8891.85	8019.8
847.8407	940.9318	8704.75	7832.65
847.9858	942.9506	8583.4	7712.95
848.131	944.9688	8483.3	7612.6
848.2761	946.9862	8445.35	7573.25
848.4213	949.003	8392.5	7520.8
848.5664	951.019	8389.45	7516.15
848.7115	953.0344	8424.25	7551.4
848.8567	955.0491	8461.45	7589.25
849.0018	957.063	8526.65	7654.5
849.147	959.0763	8622.4	7751.15
849.2921	961.0888	8679.55	7805.5
849.4373	963.1007	8761.9	7890.55
849.5824	965.1119	8776.4	7902.9
849.7275	967.1223	8796.85	7924.7
849.8727	969.1321	8843.3	7973.75
850.0178	971.1412	8888.65	8015.2
850.1629	973.1495	8878.7	8007.4
850.3081	975.1572	8962.35	8050.7
850.4532	977.1641	8967.85	8094.75
850.5983	979.1704	8935.2	8061.45
850.7435	981.1759	8927.15	8052
850.8886	983.1808	9007.95	8132.15
851.0337	985.1849	9098.65	8222.3
851.1788	987.1884	9264.05	8387.4
851.324	989.1911	9481.65	8605.9
851.4691	991.1932	9637.95	8764.3
851.6142	993.1945	9688	8813.25
851.7593	995.1951	9653.6	8782.45
851.9045	997.1951	9601.65	8722.4
852.0496	999.1943	9526.25	8654.05
852.1947	1001.1928	9471.55	8598.7
852.3398	1003.1906	9435.45	8563.9
852.4849	1005.1877	9447.8	8574.2
852.63	1007.1841	9422.9	8548.05
852.7751	1009.1798	9323	8450.3
852.9202	1011.1748	9117.35	8241.2
853.0653	1013.1691	8902.65	8029
853.2104	1015.1627	8681	7807.5
853.3555	1017.1556	8469.95	7594.65
853.5006	1019.1477	8386.5	7510.8
853.6457	1021.1392	8304.35	7431.15
853.7908	1023.1299	8297.8	7422.35
853.9359	1025.12	8332.1	7455.55
854.081	1027.1093	8368.9	7495.65
854.2261	1029.0979	8464.8	7591.45
854.3712	1031.0859	8510.3	7639.9
854.5163	1033.0731	8500.85	7627.05
854.6613	1035.0596	8434.7	7562.6
854.8064	1037.0454	8275.15	7399.25
854.9515	1039.0304	8173.2	7298.9
855.0965	1041.0148	8063.2	7190.2
855.2416	1042.9985	7953.9	7076.7
855.3867	1044.9814	7887.1	7013.85
855.5317	1046.9636	7862.3	6987.6
855.6768	1048.9452	7806	6932.3
855.8219	1050.926	7815	6942.4
855.9669	1052.9061	7788.5	6914.1
856.112	1054.8855	7780.8	6905.95
856.257	1056.8642	7797.5	6921.95
856.4021	1058.8421	7851.45	6972.85
856.5471	1060.8194	7881.65	7007.5
856.6921	1062.7959	7903.7	7028.25
856.8372	1064.7717	7914.1	7039.75
856.9822	1066.7469	7906.75	7029.95
857.1272	1068.7213	7854.55	6975.8
857.2723	1070.695	7846.4	6972.95
857.4173	1072.6679	7758.1	6882.3
857.5623	1074.6402	7712.55	6837.85
857.7073	1076.6117	7690.15	6810.6
857.8523	1078.5826	7706.15	6831.6
857.9973	1080.5527	7759.3	6879.25
858.1423	1082.5221	7935.75	7061.6
858.2873	1084.4908	8147.5	7271.95
858.4323	1086.4587	8389.9	7512.55
858.5773	1088.426	8568.65	7692.25
858.7223	1090.3925	8564.15	7683.6
858.8673	1092.3584	8502.3	7628.2
859.0123	1094.3235	8321.2	7447.3
859.1573	1096.2879	8184.6	7309.95
859.3022	1098.2515	8137.3	7259.8
859.4472	1100.2145	8156.95	7280.35
859.5922	1102.1767	8200.6	7321.75
859.7371	1104.1382	8357.9	7482.45
859.8821	1106.099	8577.15	7700.15
860.027	1108.0591	8773.7	7898.4
860.172	1110.0185	8917.05	8038.5
860.3169	1111.9771	8906.95	8032.7
860.4619	1113.9351	8660.45	7786.15
860.6068	1115.8923	8342.3	7466.05
860.7517	1117.8488	8000	7120.15
860.8967	1119.8045	7669.6	6794.6
861.0416	1121.7596	7529.25	6650.15
861.1865	1123.7139	7441.5	6567.3
861.3314	1125.6675	7452.8	6577.1
861.4763	1127.6204	7502.7	6625.75
861.6212	1129.5726	7522.25	6643.2
861.7661	1131.524	7574.25	6699.25
861.911	1133.4748	7623.15	6745
862.0559	1135.4248	7659.85	6782.95
862.2008	1137.3741	7675.55	6799.1
862.3457	1139.3226	7684.85	6807.3
862.4905	1141.2705	7617.3	6741.25
862.6354	1143.2176	7575.3	6692.2
862.7803	1145.164	7589.9	6712.75
862.9251	1147.1097	7626.5	6748.7
863.07	1149.0546	7624.1	6748.65
863.2148	1150.9989	7491.15	6612.4
863.3597	1152.9424	7327.8	6448.65
863.5045	1154.8852	7119.6	6243.6
863.6493	1156.8272	6952.2	6075.5
863.7942	1158.7686	6874.7	5990.15
863.939	1160.7092	6835.95	5957.05
864.0838	1162.6491	6825.15	5946.2
864.2286	1164.5883	6884.85	6009.5
864.3734	1166.5267	6956.3	6076.3
864.5182	1168.4644	7099.75	6222.3
864.663	1170.4014	7289.05	6412.15
864.8078	1172.3377	7518.55	6640.4
864.9526	1174.2732	7741.7	6863.85
865.0974	1176.2081	7913.4	7036.7
865.2421	1178.1421	8108.05	7227.15
865.3869	1180.0755	8218.15	7341.1
865.5317	1182.0082	8234.9	7355.85
865.6764	1183.9401	8156.35	7278.45
865.8212	1185.8713	7930.45	7053.25
865.9659	1187.8017	7680.75	6803.4
866.1106	1189.7315	7421.7	6545.7
866.2554	1191.6605	7204.15	6298
866.4001	1193.5888	6990.65	6113.55
866.5448	1195.5163	6841.65	5961.25
866.6895	1197.4432	6765.1	5884.3
866.8342	1199.3693	6684.9	5807.35
866.9789	1201.2947	6615.65	5734.1
867.1236	1203.2193	6581.9	5705.05
867.2683	1205.1432	6619.55	5739.75
867.413	1207.0664	6672.8	5796.3
867.5576	1208.9889	6749.2	5867.6
867.7023	1210.9106	6855.65	5977.5
867.847	1212.8316	6980.8	6106.95
867.9916	1214.7519	7054.85	6167.75
868.1363	1216.6715	7049.6	6172.3
868.2809	1218.5903	7026.9	6149.5
868.4255	1220.5084	6957.9	6078.1
868.5701	1222.4257	6937.15	6060.3
868.7148	1224.3424	6895.8	6018.8
868.8594	1226.2583	6938.5	6053.15
869.004	1228.1735	7038.95	6158.8
869.1486	1230.0879	7174.8	6295.2
869.2932	1232.0016	7316.65	6440.15
869.4377	1233.9146	7369.55	6487.15
869.5823	1235.8269	7270.7	6393.55
869.7269	1237.7384	7118.7	6240.4
869.8715	1239.6492	6951.2	6073.35
870.016	1241.5592	6825.3	5945.25
870.1606	1243.4686	6735.5	5857.7
870.3051	1245.3772	6658.95	5780.15
870.4496	1247.285	6620.35	5741.5
870.5941	1249.1922	6549.25	5666.6
870.7387	1251.0986	6553.15	5675.55
870.8832	1253.0042	6561.4	5682.95
871.0277	1254.9092	6629.9	5749.25
871.1722	1256.8134	6725.7	5847.95
871.3167	1258.7169	6865.85	5989.5
871.4611	1260.6196	7020.75	6143.2
871.6056	1262.5216	7206	6329
871.7501	1264.4229	7350.25	6471.2
871.8945	1266.3234	7447.9	6568.9
872.039	1268.2232	7483.4	6603.25
872.1834	1270.1223	7481	6600
872.3278	1272.0207	7427.65	6547.2
872.4723	1273.9183	7405.15	6517.35
872.6167	1275.8151	7339.55	6460.9
872.7611	1277.7113	7205.65	6325.8
872.9055	1279.6067	7058	6181.55
873.0499	1281.5014	6905.6	6024.5
873.1943	1283.3953	6771.55	5889.25
873.3386	1285.2885	6660.6	5784.05
873.483	1287.181	6575.25	5695.15
873.6274	1289.0727	6596.45	5716.95
873.7717	1290.9637	6620.8	5739.8
873.9161	1292.854	6743.75	5862.5
874.0604	1294.7435	6886.15	6006.05
874.2047	1296.6323	7123.45	6242.8
874.349	1298.5204	7383.15	6499.05
874.4933	1300.4077	7632.9	6751.85
874.6376	1302.2943	7841.55	6961.3
874.7819	1304.1802	7923.45	7047.45
874.9262	1306.0653	7888.25	7007.55
875.0705	1307.9497	7753.2	6873
875.2147	1309.8333	7671.75	6795.05
875.359	1311.7162	7669.2	6789.95
875.5032	1313.5984	7767.95	6886.8
875.6475	1315.4798	7936.05	7046
875.7917	1317.3605	8114.7	7218.55
875.9359	1319.2405	8247.5	7364.55
876.0801	1321.1197	8306.9	7424.6
876.2243	1322.9982	8281.55	7396.4
876.3685	1324.876	8280.5	7402.7
876.5127	1326.753	8257.05	7376.8
876.6569	1328.6293	8282.1	7400.5
876.801	1330.5048	8305.1	7421.8
876.9452	1332.3796	8265.6	7387
877.0893	1334.2537	8230.3	7321.95
877.2335	1336.127	8182.95	7303.95
877.3776	1337.9996	8146.95	7267.8
877.5217	1339.8714	8053.2	7173.5
877.6658	1341.7426	8058.2	7134.3
877.8099	1343.6129	7963.95	7082.6
877.954	1345.4826	7894.85	7015.45
878.0981	1347.3515	7828.9	6946.55
878.2422	1349.2196	7736.3	6853.5
878.3862	1351.087	7753.25	6873.1
878.5303	1352.9537	7789.7	6909.35
878.6743	1354.8197	7927.6	7047.7
878.8184	1356.6849	8081.3	7201.6
878.9624	1358.5493	8168.55	7287.75
879.1064	1360.4131	8168.25	7288.15
879.2504	1362.276	8091.15	7212.2
879.3944	1364.1383	7895.6	7014.2
879.5384	1365.9998	7686.85	6800
879.6823	1367.8606	7425.6	6544
879.8263	1369.7206	7182.4	6300.95
879.9702	1371.5799	7034	6151.95
880.1142	1373.4384	6899.9	6017.85
880.2581	1375.2962	6794	5912.2
880.402	1377.1533	6562	5681.15
880.5459	1379.0096	6267.6	5386.75
880.6898	1380.8652	6000.1	5118.6
880.8337	1382.7201	5770.3	4890.75
880.9776	1384.5742	5577.55	4698.9
881.1215	1386.4275	5440.7	4559.95
881.2653	1388.2802	5339.35	4461.1
881.4092	1390.132	5242.6	4362.25
881.553	1391.9832	5181.9	4298.9
881.6968	1393.8336	5112.5	4231.05
881.8406	1395.6832	5086.1	4202.45
881.9844	1397.5322	5061.65	4181.1
882.1282	1399.3803	5056.4	4171.6
882.272	1401.2278	5027.3	4144.5
882.4158	1403.0745	5024	4143.6
882.5595	1404.9204	5022.15	4142.55
882.7033	1406.7656	5039.05	4156.95
882.847	1408.6101	5054.25	4173.85
882.9908	1410.4538	5082.45	4201.35
883.1345	1412.2968	5119.45	4238.6
883.2782	1414.139	5187.45	4306.6
883.4219	1415.9805	5255.95	4376.3
883.5656	1417.8213	5362.35	4475
883.7092	1419.6613	5491.45	4614.6
883.8529	1421.5006	5679.6	4796.5
883.9965	1423.3391	5971.5	5089
884.1402	1425.1769	6342.5	5460.45
884.2838	1427.0139	6854.8	5973.45
884.4274	1428.8502	7466.45	6584.5
884.571	1430.6858	8092.8	7212.85
884.7146	1432.5206	8569.95	7687.9
884.8582	1434.3547	8845.5	7962.2
885.0018	1436.188	8879.8	7999.1
885.1453	1438.0206	8807.95	7926.85
885.2889	1439.8524	8683.2	7802.65
885.4324	1441.6835	8604.7	7723
885.5759	1443.5139	8513.65	7629.05
885.7194	1445.3435	8445.7	7565.4
885.8629	1447.1724	8397.05	7518.55
886.0064	1449.0005	8303.4	7420.65
886.1499	1450.8279	8205	7323.75
886.2933	1452.6545	8167.95	7286.2
886.4368	1454.4804	8207.9	7328.65
886.5802	1456.3056	8180.45	7291.95
886.7237	1458.13	8078.6	7195.65
886.8671	1459.9536	7842.95	6961.95
887.0105	1461.7766	7489.95	6607.65
887.1539	1463.5987	7073.65	6190.05
887.2972	1465.4202	6683.4	5804.2
887.4406	1467.2409	6309.6	5427.85
887.584	1469.0608	6040.25	5160.45
887.7273	1470.88	5776.7	4894.35
887.8706	1472.6984	5529.35	4648.65
888.0139	1474.5161	5350.8	4467.5
888.1572	1476.3331	5192.15	4311.45
888.3005	1478.1493	5049.6	4167.6
888.4438	1479.9648	4949.6	4069.05
888.5871	1481.7795	4867.75	3987.85
888.7303	1483.5935	4783.3	3903.25
888.8736	1485.4067	4724.1	3842.2
889.0168	1487.2192	4683.4	3804.2
889.16	1489.031	4631.05	3748.7
889.3032	1490.842	4579.15	3698.35
889.4464	1492.6522	4560	3679.45
889.5896	1494.4618	4539.9	3658.1
889.7327	1496.2705	4501	3621.8
889.8759	1498.0785	4482.4	3600.6
890.019	1499.8858	4458.45	3577.05
890.1622	1501.6924	4455.65	3576.05
890.3053	1503.4981	4431.2	3549.8
890.4484	1505.3032	4422.4	3541.95
890.5914	1507.1075	4381.95	3501.1
890.7345	1508.911	4357.45	3476.15
890.8776	1510.7138	4346.1	3465
891.0206	1512.5159	4318.9	3437
891.1637	1514.3172	4275.75	3393.95
891.3067	1516.1178	4244.15	3365.1
891.4497	1517.9176	4242.35	3359.75
891.5927	1519.7166	4205.1	3325.8
891.7357	1521.515	4174.45	3286.1
891.8786	1523.3126	4159.55	3277.85
892.0216	1525.1094	4148.7	3266.75
892.1645	1526.9055	4141.85	3262.9
892.3074	1528.7008	4115.75	3234.9
892.4503	1530.4954	4096.95	3209.55
892.5932	1532.2893	4072.8	3193.85
892.7361	1534.0824	4056.95	3168.25
892.879	1535.8747	4068.85	3186.5
893.0218	1537.6663	4060.8	3180.75
893.1647	1539.4572	4050.9	3166.9
893.3075	1541.2473	4039.45	3157.45
893.4503	1543.0367	4044.05	3163.25
893.5931	1544.8253	4039.45	3154.3
893.7359	1546.6132	4055.55	3174.85
893.8787	1548.4003	4037.05	3146.1
894.0214	1550.1867	4046.5	3158
894.1642	1551.9723	4070.3	3183.15
894.3069	1553.7572	4095.5	3212.7
894.4496	1555.5414	4110.7	3229.2
894.5923	1557.3247	4129.2	3247.85
894.735	1559.1074	4164	3283.55
894.8777	1560.8893	4217.2	3337.95
895.0204	1562.6705	4274.65	3393.1
895.163	1564.4509	4354	3473.7
895.3056	1566.2305	4438.15	3559.6
895.4482	1568.0094	4539.3	3657.75
895.5908	1569.7876	4641.3	3758.6
895.7334	1571.565	4700	3817.6
895.876	1573.3417	4743	3862.55
896.0186	1575.1176	4747.35	3866.55
896.1611	1576.8928	4722.15	3839.75
896.3036	1578.6672	4668.7	3790.5
896.4461	1580.4409	4572.85	3691.65
896.5886	1582.2138	4437.25	3557.7
896.7311	1583.986	4300.6	3418.85
896.8736	1585.7575	4213.75	3333
897.0161	1587.5282	4131.05	3252.35
897.1585	1589.2981	4080.9	3200.4
897.3009	1591.0673	4042.25	3160.45
897.4433	1592.8358	4012.2	3132.85
897.5857	1594.6035	3999.2	3116.75
897.7281	1596.3704	4001.7	3120.6
897.8705	1598.1366	4003.35	3124.2
898.0128	1599.9021	4031.15	3151.9
898.1551	1601.6668	4057.6	3173.3
898.2975	1603.4308	4092.3	3212.3
898.4398	1605.194	4190.25	3306.2
898.5821	1606.9564	4243.1	3362.55
898.7243	1608.7182	4366.35	3479.65
898.8666	1610.4791	4479.5	3597.45
899.0088	1612.2394	4635.4	3753.6
899.1511	1613.9988	4821.55	3941.5
899.2933	1615.7576	5040.2	4159
899.4355	1617.5156	5296.55	4409.95
899.5776	1619.2728	5528.1	4648.15
899.7198	1621.0293	5697.5	4816.5
899.862	1622.785	5798.75	4919.15
900.0041	1624.54	5750.05	4863.4
900.1462	1626.2942	5623.8	4743.4
900.2883	1628.0477	5398.25	4512.45
900.4304	1629.8005	5151	4267.25
900.5725	1631.5525	4914.55	4034.1
900.7145	1633.3037	4701.2	3817.1
900.8566	1635.0542	4550.05	3668.55
900.9986	1636.804	4409.4	3528.15
901.1406	1638.553	4383.6	3432.8
901.2826	1640.3013	4273.6	3394.45
901.4245	1642.0488	4215.95	3335.75
901.5665	1643.7955	4225.7	3345
901.7085	1645.5416	4233.5	3352
901.8504	1647.2868	4286.7	3406.3
901.9923	1649.0313	4355.8	3474.95
902.1342	1650.7751	4499.4	3616.4
902.2761	1652.5181	4683.7	3803.9
902.4179	1654.2604	4923.4	4040.75
902.5598	1656.0019	5227.05	4348.55
902.7016	1657.7427	5593.95	4713
902.8434	1659.4828	5959.2	5079.4
902.9852	1661.222	6221.85	5341.4
903.127	1662.9606	6256.65	5378.45
903.2687	1664.6984	6107.9	5228.2
903.4105	1666.4354	5775.45	4894.45
903.5522	1668.1717	5337.75	4459.75
903.6939	1669.9072	4892.85	4013.5
903.8356	1671.642	4523.9	3643.15
903.9773	1673.3761	4231.6	3352.55
904.119	1675.1094	4008.45	3128.3
904.2606	1676.8419	3822.2	2941.25
904.4022	1678.5737	3706.25	2827.5
904.5439	1680.3048	3606.1	2726.5
904.6855	1682.0351	3536.95	2657.9
904.827	1683.7646	3476.75	2595.25
904.9686	1685.4934	3429.1	2550.5
905.1101	1687.2215	3399	2517.35
905.2517	1688.9488	3368.85	2489.05
905.3932	1690.6754	3355.25	2476
905.5347	1692.4012	3327.85	2449.75
905.6761	1694.1263	3305.3	2425.9
905.8176	1695.8506	3289.05	2409
905.9591	1697.5742	3269.1	2388.65
906.1005	1699.297	3242.05	2360.7
906.2419	1701.0191	3228.3	2349.6
906.3833	1702.7404	3193.35	2312.4
906.5246	1704.461	3186.2	2304.95
906.666	1706.1808	3167.25	2286.05
906.8073	1707.8999	3159.25	2277.45
906.9487	1709.6182	3155.15	2274.45
907.09	1711.3358	3133.7	2254.35
907.2313	1713.0527	3114	2236
907.3725	1714.7688	3103.2	2217.05
907.5138	1716.4841	3082.45	2199.65
907.655	1718.1987	3091.25	2206
907.7962	1719.9126	3070.5	2191.55
907.9374	1721.6257	3066.1	2182.3
908.0786	1723.338	3064.8	2182.15
908.2198	1725.0496	3029.85	2149.4
908.3609	1726.7605	3032.3	2153.05
908.502	1728.4706	3014.45	2132.75
908.6431	1730.18	3008.55	2126.5
908.7842	1731.8886	2996.45	2116.6
908.9253	1733.5964	2993.9	2109.35
909.0664	1735.3036	2988.9	2108.1
909.2074	1737.0099	2973.9	2095.3
909.3484	1738.7156	2968.25	2089.1
909.4894	1740.4204	2961.2	2077.4
909.6304	1742.1246	2945.6	2066.4
909.7714	1743.8279	2950.9	2071.55
909.9123	1745.5306	2944.35	2064.05
910.0532	1747.2325	2930	2048.95
910.1941	1748.9336	2917.55	2038.1
910.335	1750.634	2918.6	2035.1
910.4759	1752.3336	2898.5	2018.8
910.6168	1754.0325	2907.75	2028.15
910.7576	1755.7307	2910.65	2032.35
910.8984	1757.4281	2900.4	2019.2
911.0392	1759.1247	2892.55	2001.4
911.18	1760.8206	2894.75	2010.75
911.3208	1762.5158	2879.45	1996.3
911.4615	1764.2102	2866.15	1986.85
911.6022	1765.9039	2864.4	1983.9
911.7429	1767.5968	2853.1	1972
911.8836	1769.289	2841.05	1960.6
912.0243	1770.9804	2838.35	1958.4
912.1649	1772.6711	2824.75	1944.9
912.3056	1774.361	2829.8	1949.75
912.4462	1776.0502	2812.15	1931.8
912.5868	1777.7386	2822.35	1939.85
912.7274	1779.4263	2811.05	1929.6
912.8679	1781.1132	2812.65	1933.9
913.0084	1782.7994	2797.3	1914.55
913.149	1784.4849	2796.75	1917.05
913.2895	1786.1696	2811.6	1912.35
913.4299	1787.8535	2787	1908.2
913.5704	1789.5367	2779.05	1898.2
913.7108	1791.2192	2778.95	1899.55
913.8513	1792.9009	2799.3	1894.2
913.9917	1794.5818	2786.55	1905.7
914.132	1796.2621	2760.85	1881.6
914.2724	1797.9415	2751.45	1873.05
914.4128	1799.6202	2736.6	1856.65
914.5531	1801.2982	2740.9	1862.3
914.6934	1802.9755	2746.85	1865.85
914.8337	1804.6519	2734.05	1851.25
914.9739	1806.3277	2733.4	1854.45
915.1142	1808.0027	2730.55	1853.8
915.2544	1809.6769	2726.7	1847.25
915.3946	1811.3504	2720.7	1841.35
915.5348	1813.0231	2711.1	1831.15
915.675	1814.6951	2700.8	1819.7
915.8151	1816.3664	2704.65	1822.1
915.9553	1818.0369	2708.8	1829.1
916.0954	1819.7067	2690.2	1811
916.2355	1821.3757	2687.35	1805.75
916.3755	1823.044	2692.5	1813.25
916.5156	1824.7115	2688.7	1807.3
916.6556	1826.3783	2687	1810.35
916.7956	1828.0443	2674.8	1796.25
916.9356	1829.7096	2681.95	1803.35
917.0756	1831.3741	2678.1	1794.05
917.2155	1833.0379	2654.15	1773.55
917.3555	1834.701	2666.95	1782.85
917.4954	1836.3633	2644.95	1764.5
917.6353	1838.0248	2655.15	1773.1
917.7751	1839.6856	2653.5	1773.7
917.915	1841.3457	2647.55	1768.35
918.0548	1843.005	2633.95	1754.85
918.1946	1844.6636	2632.05	1753.25
918.3344	1846.3214	2630.5	1750.75
918.4742	1847.9785	2626.35	1745.8
918.6139	1849.6349	2631.85	1750.25
918.7537	1851.2904	2623.8	1736.1
918.8934	1852.9453	2611.55	1735
919.0331	1854.5994	2621	1739.2
919.1727	1856.2528	2621.7	1736.1
919.3124	1857.9054	2612.55	1732.85
919.452	1859.5572	2606.8	1726.25
919.5916	1861.2083	2603.6	1723.3
919.7312	1862.8587	2598	1717.6
919.8708	1864.5084	2586	1706
920.0103	1866.1572	2588.65	1709.35
920.1498	1867.8054	2577.3	1698.85
920.2893	1869.4528	2566.95	1690.35
920.4288	1871.0994	2570.8	1693.35
920.5683	1872.7453	2562.75	1682.5
920.7077	1874.3905	2553.7	1668.75
920.8471	1876.0349	2551.3	1671
920.9865	1877.6786	2548.7	1667.25
921.1259	1879.3215	2547.15	1669.6
921.2653	1880.9637	2549.35	1667.7
921.4046	1882.6051	2536.6	1656.85
921.5439	1884.2458	2535.45	1653.6
921.6832	1885.8858	2520.15	1638.7
921.8225	1887.525	2522.35	1642.3
921.9617	1889.1634	2513.7	1634.25
922.101	1890.8011	2503.1	1624.2
922.2402	1892.4381	2502.4	1623.45
922.3794	1894.0743	2510.15	1630.7
922.5185	1895.7098	2499.85	1620.5
922.6577	1897.3446	2499	1616.7
922.7968	1898.9786	2513.1	1626.2
922.9359	1900.6118	2483.4	1605.1
923.075	1902.2443	2483.1	1601.1
923.214	1903.8761	2482.5	1603.3
923.3531	1905.5071	2480.1	1599.75
923.4921	1907.1374	2458.8	1579.8
923.6311	1908.7669	2477	1595.1
923.77	1910.3957	2464.6	1585.15
923.909	1912.0237	2450.65	1572.55
924.0479	1913.651	2454.05	1572.1
924.1868	1915.2776	2458.25	1577.95
924.3257	1916.9034	2450.05	1570.95
924.4646	1918.5285	2432.75	1555.1
924.6034	1920.1528	2427	1546.8
924.7422	1921.7764	2431.35	1552.75
924.881	1923.3992	2411.2	1531.85
925.0198	1925.0213	2413.05	1534.85
925.1586	1926.6427	2415.75	1538.7
925.2973	1928.2633	2501.4	1519.95
925.436	1929.8832	2428.05	1545.35
925.5747	1931.5023	2393.7	1514.25
925.7134	1933.1207	2389.55	1509.3
925.852	1934.7383	2391.5	1512.15
925.9906	1936.3552	2388.05	1507.4
926.1292	1937.9714	2371	1490.7
926.2678	1939.5868	2368.2	1486.5
926.4064	1941.2015	2364.5	1485.25
926.5449	1942.8154	2354.1	1475.05
926.6834	1944.4286	2350.75	1470.45
926.8219	1946.041	2363.85	1460.95
926.9604	1947.6528	2331.35	1446.15
927.0988	1949.2637	2328.25	1450.45
927.2372	1950.8739	2324.35	1443.3
927.3756	1952.4834	2323.35	1441.65
927.514	1954.0921	2332.3	1452.05
927.6523	1955.7001	2323.4	1439
927.7907	1957.3074	2303.5	1425
927.929	1958.9139	2304.9	1425.6
928.0673	1960.5197	2296.05	1415.55
928.2055	1962.1247	2291.25	1411.7
928.3438	1963.729	2283.7	1405
928.482	1965.3325	2296.15	1393.4
928.6202	1966.9353	2278.2	1398
928.7584	1968.5374	2280.35	1397.25
928.8965	1970.1387	2267.15	1387.7
929.0346	1971.7393	2260.55	1379.45
929.1727	1973.3392	2253	1372
929.3108	1974.9383	2254.3	1375.45
929.4489	1976.5366	2248.45	1369.2
929.5869	1978.1342	2259.35	1380.3
929.7249	1979.7311	2245.4	1364.5
929.8629	1981.3273	2236.6	1355.4
930.0009	1982.9227	2229.25	1347.1
930.1388	1984.5173	2224.95	1344.15
930.2767	1986.1112	2224.35	1343.9
930.4146	1987.7044	2217.3	1337.8
930.5525	1989.2968	2215.55	1333.7
930.6904	1990.8885	2213.95	1329.9
930.8282	1992.4795	2207.05	1324.55
930.966	1994.0697	2202.2	1323.45
931.1038	1995.6592	2199.1	1318.5
931.2415	1997.2479	2202.6	1324.3
931.3793	1998.8359	2188.1	1307.5
931.517	2000.4232	2186.5	1305.3
931.6547	2002.0097	2180.15	1302.95
931.7923	2003.5955	2173.9	1293.2
931.93	2005.1805	2174.4	1294.25
932.0676	2006.7648	2174.6	1295.75
932.2052	2008.3484	2173.7	1290.4
932.3427	2009.9312	2178.35	1296.2
932.4803	2011.5133	2171.35	1292.65
932.6178	2013.0946	2168.65	1289.1
932.7553	2014.6752	2156.1	1276.05
932.8928	2016.2551	2166.35	1285.15
933.0302	2017.8342	2152.3	1273.15
933.1676	2019.4126	2145.2	1266.15
933.305	2020.9902	2146.2	1267.5
933.4424	2022.5672	2135.2	1256.15
933.5798	2024.1433	2147.45	1258.4
933.7171	2025.7188	2129.5	1249.75
933.8544	2027.2935	2138.4	1255.85
933.9917	2028.8674	2120.05	1239.25
934.129	2030.4406	2121.9	1244.2
934.2662	2032.0131	2104.5	1225.8
934.4034	2033.5849	2111.35	1226.8
934.5406	2035.1559	2112.45	1233.15
934.6778	2036.7261	2108.9	1228.4
934.8149	2038.2957	2098.65	1219.55
934.952	2039.8645	2096.3	1214.2
935.0891	2041.4325	2106.7	1224.45
935.2262	2042.9998	2087.75	1206.6
935.3632	2044.5664	2088.5	1207.3
935.5002	2046.1323	2086.15	1205.55
935.6372	2047.6974	2089.55	1210.75
935.7742	2049.2617	2081.35	1201.25
935.9111	2050.8254	2103.95	1200.65
936.048	2052.3883	2084.05	1201.55
936.1849	2053.9504	2076.55	1197.2
936.3218	2055.5118	2085.45	1203.05
936.4586	2057.0725	2064.3	1180.25
936.5955	2058.6325	2071.7	1192.55
936.7323	2060.1917	2071.4	1190.45
936.869	2061.7502	2082.65	1201.15
937.0058	2063.3079	2075.4	1194.95
937.1425	2064.8649	2073.3	1189.7
937.2792	2066.4212	2059.3	1179.85
937.4159	2067.9767	2059.5	1179.15
937.5525	2069.5315	2062.85	1183.5
937.6891	2071.0856	2052	1169.65
937.8257	2072.6389	2046.05	1165.55
937.9623	2074.1915	2042.7	1164.45
938.0989	2075.7433	2024.65	1144.35
938.2354	2077.2945	2016.2	1138.3
938.3719	2078.8448	2012.9	1132.95
938.5084	2080.3945	2011.1	1130.35
938.6448	2081.9434	2006.35	1124.95
938.7812	2083.4916	2008.2	1127.75
938.9176	2085.039	2001.45	1121.4
939.054	2086.5857	2001.9	1119.6
939.1903	2088.1317	1996.85	1117.3
939.3267	2089.677	2001.55	1122.55
939.463	2091.2215	1982.4	1102.85
939.5992	2092.7652	1987.75	1105.5
939.7355	2094.3083	1989.5	1109.95
939.8717	2095.8506	1980.6	1101.9
940.0079	2097.3921	1986.5	1106.85
940.1441	2098.933	1971.5	1090.3
940.2802	2100.4731	1963.85	1084.6
940.4163	2102.0124	1984.9	1098.05
940.5524	2103.5511	1974.85	1093.55
940.6885	2105.089	1967.65	1086.85
940.8245	2106.6261	1959.15	1074.8
940.9606	2108.1626	1954.5	1070.6
941.0965	2109.6983	1984.35	1070.75
941.2325	2111.2332	1956.05	1070.95
941.3684	2112.7675	1946.5	1062.7
941.5044	2114.301	1947.7	1061.65
941.6403	2115.8337	1945.85	1061.75
941.7761	2117.3657	1940.4	1056.85
941.912	2118.897	1954.85	1070.1
942.0478	2120.4276	1944.35	1055.9
942.1835	2121.9575	1930.1	1047.85
942.3193	2123.4866	1955.75	1059.8
942.455	2125.0149	1937.5	1052.95
942.5907	2126.5426	1924	1042.85
942.7264	2128.0695	1920.85	1036.8
942.8621	2129.5956	1929.05	1048.5
942.9977	2131.1211	1922.05	1036.65
943.1333	2132.6458	1910.65	1030.4
943.2689	2134.1698	1920.65	1038.85
943.4044	2135.693	1928.75	1046
943.54	2137.2155	1916.15	1033.75
943.6755	2138.7373	1906.3	1023.85
943.8109	2140.2584	1912	1030.85
943.9464	2141.7787	1911.15	1026.2
944.0818	2143.2983	1897.4	1018.5
944.2172	2144.8171	1897.05	1017.45
944.3526	2146.3353	1890.75	1008
944.4879	2147.8527	1893.6	1012.85
944.6232	2149.3693	1886.8	1004.55
944.7585	2150.8853	1881.95	1000.6
944.8938	2152.4005	1880.8	998.55
945.029	2153.9149	1883.55	1002.7
945.1642	2155.4287	1873.95	992.15
945.2994	2156.9417	1872.9	991.1
945.4346	2158.454	1875.6	992
945.5697	2159.9655	1863.6	982.2
945.7048	2161.4764	1865.9	985.05
945.8399	2162.9865	1867.15	986.15
945.9749	2164.4958	1864.2	979.8
946.1099	2166.0045	1867.25	983.1
946.2449	2167.5124	1863.15	981.65
946.3799	2169.0195	1848.8	967.9
946.5148	2170.526	1854.4	972.65
946.6498	2172.0317	1849	968.35
946.7846	2173.5367	1853.1	971.7
946.9195	2175.0409	1847.15	967.1
947.0543	2176.5445	1837.75	957.5
947.1891	2178.0473	1847.85	969.45
947.3239	2179.5494	1842.8	957.1
947.4587	2181.0507	1840.05	959.65
947.5934	2182.5513	1832.85	951.9
947.7281	2184.0512	1824.15	945.35
947.8628	2185.5504	1835.6	955.2
947.9974	2187.0488	1820.5	938.5
948.132	2188.5465	1817.55	938.15
948.2666	2190.0435	1821.9	940.55
948.4012	2191.5397	1812.4	931.85
948.5357	2193.0353	1810.65	932.05
948.6702	2194.5301	1815.5	932.95
948.8047	2196.0241	1806.75	927.8
948.9392	2197.5175	1801.15	922.65
949.0736	2199.0101	1801.95	918.15
949.208	2200.502	1799.7	919.9
949.3424	2201.9931	1794.7	911.75
949.4767	2203.4835	1794.05	911.95
949.611	2204.9733	1796.7	908.7
949.7453	2206.4622	1775.15	893.2
949.8796	2207.9505	1788.95	906.3
950.0138	2209.438	1779.85	901.3
950.148	2210.9248	1784.9	903.05
950.2822	2212.4109	1774.05	893.9
950.4164	2213.8962	1774.05	890.5
950.5505	2215.3809	1776.45	897
950.6846	2216.8648	1779.5	899.15
950.8186	2218.3479	1778.25	894.7
950.9527	2219.8304	1763.35	881.25
951.0867	2221.3121	1755.6	870.85
951.2207	2222.7931	1764.05	885.6
951.3546	2224.2733	1755.95	874.35
951.4886	2225.7529	1750.1	868.45
951.6225	2227.2317	1746.6	863.3
951.7563	2228.7098	1744.9	863.35
951.8902	2230.1872	1746.9	866.8
952.024	2231.6638	1732.05	851
952.1578	2233.1397	1741.3	853.4
952.2916	2234.6149	1730.35	851.75
952.4253	2236.0894	1727.95	846.7
952.559	2237.5632	1731.05	848.4
952.6927	2239.0362	1733.45	850.8
952.8263	2240.5085	1722	838.85
952.9599	2241.9801	1717.9	837.7
953.0935	2243.4509	1714.5	832.35
953.2271	2244.921	1707.75	828.5
953.3606	2246.3904	1714.2	831.4
953.4941	2247.8591	1702.5	824.55
953.6276	2249.3271	1701.65	822.8
953.7611	2250.7943	1694.1	811.45
953.8945	2252.2608	1688.9	809.95
954.0279	2253.7266	1695.8	815.75
954.1612	2255.1917	1695.95	815.75
954.2946	2256.656	1692.65	810.25
954.4279	2258.1197	1678.9	798.45
954.5612	2259.5826	1679.5	797.65
954.6944	2261.0447	1686.55	804.9
954.8276	2262.5062	1680.45	796.8
954.9608	2263.9669	1677.85	795.8
955.094	2265.4269	1681.3	802.1
955.2271	2266.8862	1678.6	796.75
955.3602	2268.3448	1676.9	794.85
955.4933	2269.8026	1682.1	800.2
955.6264	2271.2598	1668.85	789.55
955.7594	2272.7162	1674.85	792.6
955.8924	2274.1719	1665.65	785.65
956.0253	2275.6268	1666.85	786.3
956.1583	2277.0811	1662.3	781.6
956.2912	2278.5346	1668.9	788.15
956.4241	2279.9874	1656.9	775.5
956.5569	2281.4395	1656.45	776.35
956.6897	2282.8908	1656.7	770.7
956.8225	2284.3414	1655.8	773.55
956.9553	2285.7914	1650.45	771.25
957.088	2287.2406	1659.05	775.45
957.2207	2288.689	1648.2	768.7
957.3534	2290.1368	1652.45	769.9
957.486	2291.5838	1655.85	775
957.6186	2293.0302	1651.25	770.05
957.7512	2294.4758	1641.65	761.65
957.8838	2295.9206	1642.55	759.8
958.0163	2297.3648	1637.7	756.55
958.1488	2298.8082	1637.25	754.5
958.2813	2300.251	1635.9	756.15
958.4137	2301.693	1635.8	751.45
958.5461	2303.1343	1637.6	756.05
958.6785	2304.5748	1621.85	740.3
958.8108	2306.0147	1622.8	741.2
958.9432	2307.4538	1627	742.9
959.0754	2308.8922	1620.65	741.8
959.2077	2310.3299	1620.75	741.3
959.3399	2311.7669	1616.5	734.75
959.4721	2313.2031	1614.25	733.4
959.6043	2314.6387	1605.9	724.15
959.7365	2316.0735	1605.2	724.95
959.8686	2317.5076	1607.85	724.9
960.0006	2318.941	1608.5	729.55
960.1327	2320.3737	1604.6	722.75
960.2647	2321.8056	1602.7	719.9
960.3967	2323.2369	1601.35	719.5
960.5287	2324.6674	1601.3	717.05
960.6606	2326.0972	1606.3	725.9
960.7925	2327.5263	1598.9	718.7
960.9244	2328.9547	1588.6	706.9
961.0562	2330.3823	1597	715.8
961.1881	2331.8092	1594.55	710.6
961.3198	2333.2355	1590.15	710.5
961.4516	2334.661	1588.75	706.95
961.5833	2336.0858	1585.85	705
961.715	2337.5098	1579.5	698.6
961.8467	2338.9332	1582	701.9
961.9783	2340.3558	1578.95	695
962.1099	2341.7778	1577.7	696.25
962.2415	2343.199	1580.1	694.55
962.373	2344.6195	1576.15	693.9
962.5045	2346.0393	1570.05	688.35
962.636	2347.4583	1569.6	687.75
962.7675	2348.8767	1579	698.8
962.8989	2350.2943	1570.5	690.65
963.0303	2351.7113	1572.6	690.95
963.1617	2353.1275	1564.9	684.65
963.293	2354.543	1592.55	688.3
963.4243	2355.9578	1564.25	683.3
963.5556	2357.3718	1561.6	683.95
963.6868	2358.7852	1558.1	673.55
963.818	2360.1978	1556.6	674.65
963.9492	2361.6098	1552.95	671.9
964.0803	2363.021	1559.8	677.15
964.2114	2364.4315	1557.5	676.35
964.3425	2365.8413	1553.4	672.45
964.4736	2367.2504	1543.2	662.8
964.6046	2368.6587	1543.75	661.6
964.7356	2370.0664	1551.35	671.7
964.8666	2371.4733	1544.4	664.75
964.9975	2372.8795	1535.75	655
965.1284	2374.285	1542.95	660.7
965.2593	2375.6899	1531.85	653.65
965.3901	2377.0939	1529.55	649.65
965.5209	2378.4973	1530.65	651.05
965.6517	2379.9	1525.35	646.75
965.7825	2381.3019	1537.05	657.65
965.9132	2382.7032	1530.2	650.8
966.0439	2384.1037	1519.05	642.15
966.1745	2385.5035	1520.3	637.95
966.3051	2386.9027	1513.8	635.65
966.4357	2388.3011	1514.35	631
966.5663	2389.6987	1516.05	635.7
966.6968	2391.0957	1509.75	627.1
966.8273	2392.492	1510.5	631.75
966.9578	2393.8876	1511.9	631.85
967.0882	2395.2824	1500	620.6
967.2186	2396.6765	1495.25	616.45
967.349	2398.07	1493.85	615.3
967.4793	2399.4627	1501.75	620.7
967.6097	2400.8547	1495.05	617.25
967.7399	2402.246	1497.55	611.4
967.8702	2403.6366	1493.95	612.05
968.0004	2405.0265	1494.95	616.6
968.1306	2406.4156	1490.75	605.65
968.2607	2407.8041	1491.5	608.95
968.3909	2409.1918	1485.05	603.85
968.521	2410.5789	1485.7	605.45
968.651	2411.9652	1490	607.75
968.781	2413.3508	1475.4	596.2
968.911	2414.7358	1492.55	613.15
969.041	2416.12	1484.4	605.85
969.1709	2417.5035	1479.85	600.1
969.3008	2418.8863	1477.9	597.95
969.4307	2420.2684	1475.65	595.25
969.5606	2421.6497	1481.55	599.85
969.6904	2423.0304	1467	588
969.8201	2424.4104	1472.9	591.8
969.9499	2425.7896	1464.3	581.85
970.0796	2427.1682	1465.45	585.65
970.2093	2428.546	1463.15	582.75
970.3389	2429.9232	1462.5	581.6
970.4685	2431.2996	1461.25	582.75
970.5981	2432.6753	1461.5	581.85
970.7277	2434.0503	1456.25	574.7
970.8572	2435.4246	1457.6	577.45
970.9867	2436.7982	1457.9	577.5
971.1161	2438.1711	1455.5	577.7
971.2456	2439.5433	1448.75	566.65
971.375	2440.9148	1450.55	566.05
971.5043	2442.2856	1445.7	566.2
971.6336	2443.6557	1445	563.9
971.7629	2445.025	1446.7	565.95
971.8922	2446.3937	1440.15	560.65
972.0214	2447.7617	1439.4	558.7
972.1506	2449.1289	1439.35	560.4
972.2798	2450.4955	1441.4	556.1
972.4089	2451.8613	1439.3	559.25
972.538	2453.2265	1436.3	556.5
972.6671	2454.5909	1438	556.65
972.7961	2455.9546	1440.9	561.7
972.9251	2457.3177	1432.05	552.05
973.0541	2458.68	1434.15	552.5
973.1831	2460.0416	1432.7	551.95
973.312	2461.4025	1433.5	552.75
973.4408	2462.7627	1444.95	550.35
973.5697	2464.1222	1431.8	551.35
973.6985	2465.4811	1435.3	553.95
973.8273	2466.8392	1428.4	550.1
973.956	2468.1966	1433.55	550.65
974.0847	2469.5533	1434.85	550.4
974.2134	2470.9093	1421.5	540.55
974.3421	2472.2645	1423.4	541.7
974.4707	2473.6191	1428.65	549.3
974.5993	2474.973	1422.8	542.55
974.7278	2476.3262	1423.8	541.75
974.8563	2477.6787	1418.5	539.3
974.9848	2479.0305	1415.95	535.9
975.1132	2480.3816	1416.8	535.3
975.2417	2481.7319	1410.1	528.5
975.37	2483.0816	1417.95	536.85
975.4984	2484.4306	1416.45	535.45
975.6267	2485.7789	1410.1	531.4
975.755	2487.1264	1414.3	529.95
975.8833	2488.4733	1406.5	528.1
976.0115	2489.8195	1419.1	520.65
976.1397	2491.165	1410.1	528.8
976.2678	2492.5097	1400.95	519.8
976.3959	2493.8538	1402.8	523.45
976.524	2495.1972	1400.1	519.7
976.6521	2496.5398	1399.15	516.4
976.7801	2497.8818	1396	511.95
976.9081	2499.2231	1392	510.2
977.036	2500.5637	1400.65	518.4
977.164	2501.9035	1388.45	507.75
977.2918	2503.2427	1390.5	507.7
977.4197	2504.5812	1387.9	509.65
977.5475	2505.919	1391.35	508.45
977.6753	2507.256	1389.4	508.9
977.8031	2508.5924	1381.9	501.2
977.9308	2509.9281	1391	504.3
978.0585	2511.2631	1382.45	502
978.1861	2512.5974	1385.05	503.7
978.3137	2513.9309	1383.85	503.05
978.4413	2515.2638	1407.5	495.1
978.5689	2516.596	1384.35	504.25
978.6964	2517.9275	1372.65	490.65
978.8239	2519.2583	1378.6	496.9
978.9513	2520.5884	1376.2	494.55
979.0788	2521.9178	1373.8	491.05
979.2062	2523.2465	1366.85	486.3
979.3335	2524.5745	1375.3	494.4
979.4608	2525.9018	1369.55	489.1
979.5881	2527.2284	1366.55	487.55
979.7154	2528.5543	1365.5	486.9
979.8426	2529.8796	1368	486.8
979.9698	2531.2041	1365.45	484.4
980.0969	2532.5279	1367.35	488.45
980.224	2533.851	1364.15	481.65
980.3511	2535.1735	1366.95	486.05
980.4781	2536.4952	1370.9	491.95
980.6052	2537.8163	1359.65	477.45
980.7321	2539.1366	1365.25	485.85
980.8591	2540.4562	1356.9	474.65
980.986	2541.7752	1361.05	483.35
981.1129	2543.0935	1359	478.05
981.2397	2544.411	1359.05	477.3
981.3665	2545.7279	1358.25	477.2
981.4933	2547.0441	1351.45	472.5
981.62	2548.3596	1356	472.8
981.7467	2549.6744	1353.75	473.65
981.8734	2550.9885	1356.45	473.65
982.0001	2552.3019	1354.45	473.95
982.1267	2553.6146	1345.95	464.1
982.2532	2554.9266	1347.8	466.6
982.3798	2556.2379	1345.6	465.1
982.5063	2557.5485	1345.5	466.6
982.6327	2558.8585	1343.9	455.6
982.7592	2560.1677	1348.8	463.1
982.8856	2561.4762	1340	459.55
983.0119	2562.7841	1341.55	456.8
983.1383	2564.0913	1337.5	458.15
983.2646	2565.3977	1330	450.75
983.3908	2566.7035	1335.55	454.45
983.517	2568.0086	1344.5	464.5
983.6432	2569.313	1341.15	460.75
983.7694	2570.6167	1334.5	450.2
983.8955	2571.9197	1332.05	452.7
984.0216	2573.222	1332.9	449.75
984.1476	2574.5236	1331.1	448.85
984.2737	2575.8246	1336.2	450.95
984.3996	2577.1248	1333.65	451.7
984.5256	2578.4244	1331.25	451.15
984.6515	2579.7232	1331.45	451.15
984.7774	2581.0214	1364	452.1
984.9032	2582.3189	1334.4	454.75
985.029	2583.6157	1344.5	458.2
985.1548	2584.9118	1338.15	455.75
985.2806	2586.2072	1341.2	461.65
985.4063	2587.5019	1336.3	458.15
985.5319	2588.7959	1345.6	463.2
985.6576	2590.0893	1351.9	469.3
985.7832	2591.3819	1346.15	466.15
985.9087	2592.6739	1349	470.05
986.0343	2593.9652	1342.7	462.9
986.1597	2595.2557	1351.1	472.6
986.2852	2596.5456	1354.35	472.45
986.4106	2597.8348	1347.05	467.4
986.536	2599.1234	1342.2	461.6
986.6614	2600.4112	1345.75	464.45
986.7867	2601.6983	1357.1	472.85
986.912	2602.9848	1354.5	472
987.0372	2604.2705	1357.7	469.6
987.1624	2605.5556	1357.55	480.3
987.2876	2606.84	1346.15	465.8
987.4128	2608.1237	1349.2	469.2
987.5379	2609.4067	1349.35	469.05
987.6629	2610.689	1356.85	468.2
987.788	2611.9707	1354.75	469.8
987.913	2613.2516	1352.4	466.75
988.0379	2614.5319	1351.9	471.9
988.1629	2615.8115	1342.15	461.1
988.2878	2617.0903	1338.6	458.4
988.4126	2618.3685	1335.45	453.25
988.5375	2619.6461	1342.2	462.05
988.6622	2620.9229	1337.25	457.65
988.787	2622.199	1349.1	466.7
988.9117	2623.4745	1339.6	459.75
989.0364	2624.7493	1343.75	464.4
989.161	2626.0234	1342.5	462.9
989.2857	2627.2968	1342.2	461.75
989.4102	2628.5695	1346.05	464.8
989.5348	2629.8415	1343.55	462.2
989.6593	2631.1128	1347.65	465.95
989.7837	2632.3835	1338.6	456.85
989.9082	2633.6535	1342.55	462.6
990.0326	2634.9228	1341.4	461.95
990.1569	2636.1914	1342.25	462.3
990.2812	2637.4593	1341.05	459.6
990.4055	2638.7265	1341.55	461.55
990.5298	2639.9931	1339.1	460.55
990.654	2641.259	1333.45	451.75
990.7782	2642.5242	1337.6	458.25
990.9023	2643.7887	1335.65	453.9
991.0264	2645.0525	1336.5	454.4
991.1505	2646.3156	1334.35	452.3
991.2745	2647.5781	1326.75	445.2
991.3985	2648.8398	1324.15	444.6
991.5225	2650.1009	1334.3	446
991.6464	2651.3613	1332.3	451.5
991.7703	2652.6211	1319.4	438.25
991.8942	2653.8801	1322.3	442.65
992.018	2655.1385	1329.95	447.7
992.1418	2656.3961	1324.55	444.35
992.2655	2657.6531	1326.5	445.35
992.3892	2658.9094	1321.65	441
992.5129	2660.1651	1325.95	445.1
992.6366	2661.42	1320.4	439
992.7602	2662.6743	1333.2	450.7
992.8837	2663.9279	1331.95	450.6
993.0073	2665.1808	1331.65	450.3
993.1307	2666.433	1330.5	447.3
993.2542	2667.6846	1341.05	459.05
993.3776	2668.9354	1345.45	461.95
993.501	2670.1856	1344.3	463.4
993.6244	2671.4351	1342.25	463.2
993.7477	2672.6839	1352.95	470.5
993.8709	2673.9321	1353.8	472.9
993.9942	2675.1795	1351.65	471.2
994.1174	2676.4263	1354.1	474.4
994.2405	2677.6724	1355.6	476.3
994.3637	2678.9179	1357.6	475.9
994.4868	2680.1626	1359.3	479.8
994.6098	2681.4067	1368.2	487.35
994.7328	2682.6501	1358.75	476.35
994.8558	2683.8928	1350.45	469
994.9788	2685.1348	1349.1	468.95
995.1017	2686.3761	1351.05	469.8
995.2245	2687.6168	1352.15	473.25
995.3474	2688.8568	1343.1	462.65
995.4702	2690.0961	1349.15	468.1
995.5929	2691.3348	1344.35	463.3
995.7156	2692.5727	1339.4	458.95
995.8383	2693.81	1340.2	461.25
995.961	2695.0466	1332.75	453.1
996.0836	2696.2826	1336.5	452.65
996.2062	2697.5178	1337.65	453
996.3287	2698.7524	1337.55	456.9
996.4512	2699.9863	1339.85	457.35
996.5737	2701.2195	1336.05	456.45
996.6961	2702.452	1343.3	461.7
996.8185	2703.6839	1353.9	473.1
996.9408	2704.9151	1350.95	472.35
997.0631	2706.1456	1353.85	473.65
997.1854	2707.3755	1359.3	475.75
997.3077	2708.6046	1364.45	482.65
997.4299	2709.8331	1378.7	498.05
997.552	2711.0609	1393.35	509.5
997.6742	2712.2881	1399.85	519.45
997.7963	2713.5145	1407.8	523.95
997.9183	2714.7403	1413.8	535.05
998.0403	2715.9654	1421.9	540.6
998.1623	2717.1899	1452.35	554.55
998.2842	2718.4136	1450.3	570.8
998.4062	2719.6367	1464.95	584
998.528	2720.8591	1479.65	595.9
998.6498	2722.0809	1487.8	607.8
998.7716	2723.3019	1492.8	609.05
998.8934	2724.5223	1498.15	616.05
999.0151	2725.7421	1508.5	624.75
999.1368	2726.9611	1508.3	624.05
999.2584	2728.1795	1510.7	626.1
999.38	2729.3972	1500.2	619.65
999.5016	2730.6142	1503.45	611.8
999.6231	2731.8306	1480.7	596
999.7446	2733.0462	1461.45	577.1
999.8661	2734.2612	1447.4	561.25
999.9875	2735.4756	1425.9	541.75
1000.1089	2736.6892	1423.85	541.2
1000.2302	2737.9022	1398.1	519.5
1000.3515	2739.1145	1386	504.9
1000.4728	2740.3262	1384.95	495.95
1000.594	2741.5372	1365.35	484.55
1000.7152	2742.7475	1356.35	474.2
1000.8363	2743.9571	1344.3	464.25
1000.9575	2745.1661	1338.15	451.2
1001.0785	2746.3744	1330.35	451.3
1001.1996	2747.582	1313.6	432.65
1001.3206	2748.7889	1314.65	431.65
1001.4415	2749.9952	1308.95	429.15
1001.5625	2751.2008	1302.35	418.5
1001.6833	2752.4057	1296.55	412.6
1001.8042	2753.61	1295.7	415.65
1001.925	2754.8136	1298.6	414.25
1002.0458	2756.0165	1292.5	413.15
1002.1665	2757.2188	1291.35	411.35
1002.2872	2758.4204	1292.1	411.35
1002.4078	2759.6213	1294.6	410.95
1002.5285	2760.8215	1292	405.7
1002.649	2762.0211	1287.1	404.4
1002.7696	2763.22	1296.6	412.3
1002.8901	2764.4182	1291.1	407.2
1003.0106	2765.6158	1285.4	405.15
1003.131	2766.8127	1281.95	399.55
1003.2514	2768.009	1275	395.95
1003.3717	2769.2045	1271.05	389.65
1003.492	2770.3994	1275.55	393.35
1003.6123	2771.5936	1278.2	395.75
1003.7325	2772.7872	1273.55	392.45
1003.8527	2773.9801	1277.75	392.8
1003.9729	2775.1723	1291.9	396.1
1004.093	2776.3639	1268.2	387.85
1004.2131	2777.5548	1273.75	388.85
1004.3331	2778.745	1277.55	395.55
1004.4531	2779.9346	1280.75	400.4
1004.5731	2781.1235	1286.6	406
1004.693	2782.3117	1287.25	406
1004.8129	2783.4992	1291.4	411.85
1004.9328	2784.6861	1295.2	413.15
1005.0526	2785.8723	1299.7	417.25
1005.1723	2787.0579	1314.2	432.1
1005.2921	2788.2428	1316.9	435.85
1005.4118	2789.427	1330.85	448.8
1005.5314	2790.6106	1337.1	454.25
1005.651	2791.7935	1348.6	465.9
1005.7706	2792.9757	1365.4	483.8
1005.8902	2794.1573	1384.5	499.2
1006.0097	2795.3382	1388.55	508.9
1006.1291	2796.5184	1404	525.75
1006.2485	2797.698	1425.05	541.7
1006.3679	2798.8769	1443.15	561.5
1006.4873	2800.0551	1457.5	575.2
1006.6066	2801.2327	1481.9	599.9
1006.7258	2802.4096	1496.6	617.05
1006.8451	2803.5859	1529.1	647.75
1006.9642	2804.7615	1553	669.3
1007.0834	2805.9364	1571.7	692.3
1007.2025	2807.1106	1593.2	711.95
1007.3216	2808.2842	1631.15	749.9
1007.4406	2809.4572	1664.6	783.8
1007.5596	2810.6294	1699	818.7
1007.6785	2811.801	1741.65	861.4
1007.7975	2812.972	1787.5	906.55
1007.9163	2814.1423	1830.3	949.35
1008.0352	2815.3119	1881.7	1002
1008.154	2816.4808	1933.25	1053.1
1008.2727	2817.6491	1988.05	1106.05
1008.3914	2818.8167	2023.65	1144.9
1008.5101	2819.9837	2082.05	1198.3
1008.6288	2821.15	2121.45	1239.5
1008.7474	2822.3157	2176	1297.4
1008.8659	2823.4807	2219.9	1340.5
1008.9844	2824.645	2270.8	1389.5
1009.1029	2825.8086	2305.3	1424.35
1009.2214	2826.9716	2349.6	1469.5
1009.3398	2828.134	2390.15	1508.9
1009.4581	2829.2957	2420.9	1538.7
1009.5764	2830.4567	2440.35	1561.45
1009.6947	2831.617	2467.3	1585.1
1009.813	2832.7767	2475.5	1595.4
1009.9312	2833.9358	2470.45	1590.85
1010.0493	2835.0941	2471.55	1590
1010.1675	2836.2519	2456.25	1576
1010.2855	2837.4089	2459.3	1576.75
1010.4036	2838.5653	2449.5	1568.2
1010.5216	2839.7211	2437.45	1559.2
1010.6396	2840.8761	2445.85	1564.55
1010.7575	2842.0306	2470.85	1590.3
1010.8754	2843.1843	2525.35	1645.5
1010.9932	2844.3374	2559.5	1679.05
1011.111	2845.4899	2612.75	1731.05
1011.2288	2846.6417	2702.55	1824.05
1011.3465	2847.7928	2768	1888.35
1011.4642	2848.9433	2856.4	1975.55
1011.5818	2850.0931	2932.25	2050.9
1011.6995	2851.2422	3016.75	2134.45
1011.817	2852.3907	3086.2	2205.5
1011.9345	2853.5385	3163.4	2278.45
1012.052	2854.6857	3241.45	2333.8
1012.1695	2855.8323	3277.85	2398.35
1012.2869	2856.9781	3328.6	2447.85
1012.4042	2858.1233	3385.35	2504.65
1012.5216	2859.2679	3433.2	2552.55
1012.6389	2860.4118	3479.55	2600.7
1012.7561	2861.555	3513.4	2628.05
1012.8733	2862.6976	3563.65	2681.65
1012.9905	2863.8395	3577.85	2698.45
1013.1076	2864.9808	3622.2	2740
1013.2247	2866.1214	3622.4	2742.2
1013.3417	2867.2614	3647.05	2767.2
1013.4587	2868.4007	3663.9	2781.85
1013.5757	2869.5393	3669.75	2786.4
1013.6926	2870.6773	3671.55	2785.95
1013.8095	2871.8146	3698.7	2815.2
1013.9263	2872.9513	3708.4	2825.65
1014.0431	2874.0874	3702.2	2820.95
1014.1599	2875.2227	3701.9	2820.45
1014.2766	2876.3574	3676.9	2795.6
1014.3933	2877.4915	3658.95	2776.7
1014.51	2878.6249	3635.1	2754.9
1014.6266	2879.7577	3600.3	2717.75
1014.7431	2880.8898	3603.25	2710.45
1014.8596	2882.0212	3568.1	2688.25
1014.9761	2883.152	3566.15	2684.05
1015.0925	2884.2821	3552.9	2675.3
1015.2089	2885.4116	3531.7	2651.75
1015.3253	2886.5405	3533.95	2652.6
1015.4416	2887.6686	3554.9	2671.4
1015.5579	2888.7962	3551.7	2673
1015.6741	2889.923	3551.7	2669.5
1015.7903	2891.0493	3556	2676.15
1015.9065	2892.1748	3579.6	2698.9
1016.0226	2893.2997	3601.05	2716.55
1016.1387	2894.424	3600.9	2722.4
1016.2547	2895.5476	3622.4	2741.55
1016.3707	2896.6706	3653.7	2772.9
1016.4866	2897.7929	3684.75	2804.55
1016.6025	2898.9145	3719.5	2839.05
1016.7184	2900.0355	3743.75	2863.55
1016.8342	2901.1559	3776.8	2894.1
1016.95	2902.2756	3801	2919.65
1017.0658	2903.3946	3845.4	2964.9
1017.1815	2904.513	3871.8	2986.5
1017.2971	2905.6308	3911.55	3031.45
1017.4127	2906.7479	3922	3039.5
1017.5283	2907.8643	3946.65	3066.7
1017.6439	2908.9801	3962.25	3081.2
1017.7594	2910.0953	3981.15	3101.55
1017.8748	2911.2098	3978.15	3095.3
1017.9902	2912.3236	3994	3102.4
1018.1056	2913.4368	3976.1	3091.35
1018.2209	2914.5494	3941.4	3060.9
1018.3362	2915.6613	3933.2	3045.1
1018.4515	2916.7725	3894.65	3010.55
1018.5667	2917.8831	3869.8	2986.65
1018.6819	2918.9931	3846.4	2963.2
1018.797	2920.1024	3818.3	2937.55
1018.9121	2921.211	3782.25	2900.8
1019.0271	2922.319	3788.35	2907.95
1019.1421	2923.4264	3750.85	2871.35
1019.2571	2924.5331	3742.1	2863.5
1019.372	2925.6391	3729.2	2849.4
1019.4869	2926.7445	3719.45	2839.35
1019.6017	2927.8493	3714.3	2831.9
1019.7165	2928.9534	3704.55	2822.5
1019.8313	2930.0569	3704.2	2820.4
1019.946	2931.1597	3682.7	2801.55
1020.0606	2932.2619	3681.5	2801.15
1020.1753	2933.3634	3662.9	2783.2
1020.2899	2934.4643	3664.45	2776.85
1020.4044	2935.5645	3648.8	2762.2
1020.5189	2936.6641	3614.85	2731.35
1020.6334	2937.763	3554.3	2676.15
1020.7478	2938.8613	3522.95	2642.15
1020.8622	2939.959	3456.05	2567.3
1020.9765	2941.056	3361.7	2481.65
1021.0908	2942.1523	3292.9	2410.45
1021.2051	2943.248	3196.1	2314.7
1021.3193	2944.3431	3107.4	2228.15
1021.4334	2945.4375	3017.35	2135.05
1021.5476	2946.5313	2901.2	2022.4
1021.6617	2947.6244	2785.8	1905.3
1021.7757	2948.7169	2694.55	1812.65
1021.8897	2949.8087	2595.25	1714.5
1022.0037	2950.8999	2508.35	1626.25
1022.1176	2951.9904	2419	1539.2
1022.2315	2953.0803	2344.3	1462.1
1022.3453	2954.1696	2271.55	1391.45
1022.4591	2955.2582	2217.25	1336.65
1022.5728	2956.3462	2174.25	1292.2
1022.6865	2957.4335	2128.85	1246.2
1022.8002	2958.5202	2099.4	1214.8
1022.9138	2959.6062	2055.45	1175.15
1023.0274	2960.6916	2039	1157.55
1023.141	2961.7764	2016.6	1133.55
1023.2545	2962.8605	2003.15	1122.35
1023.3679	2963.9439	1984.85	1104.65
1023.4813	2965.0267	1980.1	1097.4
1023.5947	2966.1089	1998.25	1094.5
1023.708	2967.1905	1967.85	1088
1023.8213	2968.2714	1960.75	1078.8
1023.9346	2969.3516	1966.05	1087.5
1024.0478	2970.4312	1972.4	1083.35
1024.1609	2971.5102	1967.6	1086.1
1024.274	2972.5885	1968.4	1090.55
1024.3871	2973.6662	1973.25	1087.2
1024.5002	2974.7432	1965.35	1086.2
1024.6132	2975.8196	1963.3	1083.3
1024.7261	2976.8954	1945.5	1064.05
1024.839	2977.9705	1932.25	1053.15
1024.9519	2979.045	1916.05	1036.4
1025.0647	2980.1188	1911.15	1029.65
1025.1775	2981.192	1893.15	1013.05
1025.2902	2982.2645	1882.2	999.3
1025.4029	2983.3364	1846.65	966.15
1025.5156	2984.4077	1812.45	930.95
1025.6282	2985.4783	1790.35	904.55
1025.7407	2986.5483	1751.4	870.35
1025.8532	2987.6177	1716.55	835.7
1025.9657	2988.6864	1688.9	809.15
1026.0782	2989.7545	1649.1	768.15
1026.1906	2990.8219	1606.6	725.05
1026.3029	2991.8887	1588.05	707.35
1026.4152	2992.9548	1546.2	663.65
1026.5275	2994.0204	1518.45	639.45
1026.6397	2995.0852	1497.05	618.9
1026.7519	2996.1495	1466.75	585.95
1026.864	2997.2131	1445.55	566.15
1026.9761	2998.276	1426.9	545.65
1027.0882	2999.3383	1408.1	524.35
1027.2002	3000.4	1386.45	505.55
1027.3122	3001.4611	1368.95	489.15
1027.4241	3002.5215	1359.6	479.75
1027.536	3003.5812	1347.05	465.4
1027.6478	3004.6404	1336.55	455.95
1027.7596	3005.6989	1328.4	447.25
1027.8714	3006.7567	1316.3	433.55
1027.9831	3007.8139	1332.3	431.2
1028.0947	3008.8705	1303.9	424.3
1028.2064	3009.9264	1303.5	419.15
1028.3179	3010.9818	1300.2	419.1
1028.4295	3012.0364	1294.3	412.8
1028.541	3013.0905	1291.35	413.3
1028.6524	3014.1439	1289.3	407.75
1028.7638	3015.1966	1292.25	412.3
1028.8752	3016.2487	1288.35	408.65
1028.9865	3017.3002	1286.95	400.65
1029.0978	3018.3511	1281.1	403.45
1029.209	3019.4013	1287.95	408.1
1029.3202	3020.4509	1290.9	409.7
1029.4314	3021.4998	1289.25	408.3
1029.5425	3022.5481	1290.9	409.55
1029.6535	3023.5958	1289.15	410.2
1029.7645	3024.6428	1290.55	408.55
1029.8755	3025.6892	1291.55	413.7
1029.9864	3026.735	1301.1	419.7
1030.0973	3027.7802	1303.7	424.35
1030.2082	3028.8247	1303.95	422.8
1030.319	3029.8685	1310.3	428.75
1030.4297	3030.9118	1313.3	432.1
1030.5404	3031.9544	1315.5	436.55
1030.6511	3032.9963	1319	438.25
1030.7617	3034.0376	1326.55	448.15
1030.8723	3035.0783	1327.25	445.45
1030.9829	3036.1184	1340.75	459.85
1031.0934	3037.1578	1341.85	462
1031.2038	3038.1966	1343.35	460.95
1031.3142	3039.2348	1336.75	456.95
1031.4246	3040.2723	1352.85	463
1031.5349	3041.3092	1338.85	460.35
1031.6452	3042.3455	1345.25	463.55
1031.7554	3043.3811	1340.3	457.6
1031.8656	3044.4161	1330.6	450.45
1031.9758	3045.4505	1323.85	443.95
1032.0859	3046.4842	1327.8	446.15
1032.1959	3047.5173	1316.8	436.65
1032.3059	3048.5498	1306	426.05
1032.4159	3049.5816	1309.05	430.15
1032.5258	3050.6128	1297.05	414.45
1032.6357	3051.6434	1292.45	411.1
1032.7455	3052.6734	1285.9	405.3
1032.8553	3053.7027	1272.05	391.05
1032.9651	3054.7314	1270.95	390.2
1033.0748	3055.7594	1256.25	375.7
1033.1845	3056.7868	1256.75	374.15
1033.2941	3057.8136	1252.8	373.4
1033.4037	3058.8398	1249.4	369.2
1033.5132	3059.8653	1243.3	363.35
1033.6227	3060.8902	1233.45	353.35
1033.7321	3061.9145	1228.5	350.5
1033.8415	3062.9381	1225.65	344.45
1033.9509	3063.9612	1238.05	340.6
1034.0602	3064.9835	1222.5	343
1034.1694	3066.0053	1211.55	330.05
1034.2787	3067.0264	1201.75	321.75
1034.3878	3068.0469	1195.05	313.5
1034.497	3069.0668	1190.55	307.9
1034.6061	3070.086	1174.65	296.1
1034.7151	3071.1046	1175.7	293.9
1034.8241	3072.1226	1166.05	284
1034.9331	3073.1399	1150.15	269.85
1035.042	3074.1567	1141.55	262
1035.1508	3075.1727	1132.8	251.95
1035.2597	3076.1882	1124.85	245.65
1035.3684	3077.203	1112.25	230.35
1035.4772	3078.2173	1108.85	227
1035.5859	3079.2308	1101.25	217.2
1035.6945	3080.2438	1094.05	211.1
1035.8031	3081.2561	1085.5	204.3
1035.9117	3082.2678	1076.85	194.95
1036.0202	3083.2789	1070.75	191.25
1036.1286	3084.2893	1064.9	184.1
1036.2371	3085.2991	1060.25	180.05
1036.3454	3086.3083	1061.15	176.25
1036.4538	3087.3169	1054.85	172.8
1036.562	3088.3248	1047.55	165.45
1036.6703	3089.3321	1049.55	166.45
1036.7785	3090.3388	1035.95	155.95
1036.8866	3091.3449	1036.05	155.95
1036.9948	3092.3503	1033.3	151.5
1037.1028	3093.3551	1023.9	143.75
1037.2108	3094.3593	1019.25	139.75
1037.3188	3095.3629	1020.25	142
1037.4267	3096.3658	1018.05	137
1037.5346	3097.3681	1012.9	131.9
1037.6425	3098.3698	1014.9	132.2
1037.7503	3099.3708	1020.15	133.9
1037.858	3100.3713	1006.05	128.35
1037.9657	3101.3711	1008.6	127.5
1038.0734	3102.3702	1145.45	123.95
1038.181	3103.3688	1007.05	125.3
1038.2886	3104.3667	999.5	120
1038.3961	3105.364	1001.15	120.25
1038.5036	3106.3607	999.75	118.25
1038.611	3107.3568	997.4	116.75
1038.7184	3108.3522	993.3	112.95
1038.8257	3109.347	996.9	115.75
1038.933	3110.3412	999.15	114.25
1039.0403	3111.3348	990.8	110.5
1039.1475	3112.3277	988.7	108.15
1039.2547	3113.32	990.2	111.75
1039.3618	3114.3117	991.1	110.55
1039.4689	3115.3028	989	107.7
1039.5759	3116.2932	988.8	106.5
1039.6829	3117.2831	992.55	107.85
1039.7898	3118.2723	985.25	105.25
1039.8967	3119.2608	982	102.3
1040.0035	3120.2488	983.55	102.95
1040.1103	3121.2361	983.6	102.5
1040.2171	3122.2229	983.6	105.05
1040.3238	3123.209	978	95.3
1040.4305	3124.1944	978.85	100.3
1040.5371	3125.1793	981.65	98.65
1040.6437	3126.1635	975.15	94.7
1040.7502	3127.1471	976.9	97.7
1040.8567	3128.1301	975	95.55
1040.9631	3129.1125	975.7	97.1
1041.0695	3130.0942	973	95.2
1041.1759	3131.0753	984.4	94.6
1041.2822	3132.0558	975.85	93.15
1041.3884	3133.0357	970.95	90.2
1041.4946	3134.015	971.05	92.35
1041.6008	3134.9936	970.3	89.7
1041.7069	3135.9716	988.1	88.8
1041.813	3136.949	966.9	87.35
1041.919	3137.9258	981.15	82.3
1042.025	3138.902	970.15	83.65
1042.1309	3139.8775	966.35	87.7
1042.2368	3140.8524	965.6	87.15
1042.3427	3141.8267	964.15	81.5
1042.4485	3142.8004	961	80
1042.5542	3143.7735	965.5	79.15
1042.6599	3144.7459	958.1	75.45
1042.7656	3145.7178	956.9	76.2
1042.8712	3146.689	957.2	78.2
1042.9768	3147.6596	962	77.5
1043.0823	3148.6295	961	78.05
1043.1878	3149.5989	955.9	75.05
1043.2932	3150.5676	952.5	74.3
1043.3986	3151.5357	954.6	75.4
1043.5039	3152.5032	955.1	76.95
1043.6092	3153.4701	951.35	71.65
1043.7145	3154.4364	957.6	75.55
1043.8197	3155.402	953.5	73.95
1043.9248	3156.367	952.25	71.95
1044.03	3157.3315	991.05	66.6
1044.135	3158.2952	950.25	70.35
1044.24	3159.2584	944.9	64.9
1044.345	3160.221	948	67.6
1044.4499	3161.1829	947.1	67.45
1044.5548	3162.1442	946.85	66.2
1044.6596	3163.105	946.35	66.05
1044.7644	3164.065	944.25	64.9
1044.8692	3165.0245	950.3	66.65
1044.9739	3165.9834	942.35	64.2
1045.0785	3166.9416	941.65	60.9
1045.1831	3167.8993	944.15	66.15
1045.2877	3168.8563	941.6	61.9
1045.3922	3169.8127	943.55	64.4
1045.4966	3170.7684	939.3	59.2
1045.6011	3171.7236	940.4	58.2
1045.7054	3172.6782	939.75	60.85
1045.8098	3173.6321	942.7	60.5
1045.914	3174.5854	944.9	58.6
1046.0183	3175.5381	938.9	58.95
1046.1224	3176.4902	939.4	58.9
1046.2266	3177.4417	943.1	63.5
1046.3307	3178.3926	936.65	55.8
1046.4347	3179.3428	936.45	57.9
1046.5387	3180.2924	937.4	58.2
1046.6427	3181.2415	938.1	56.85
1046.7466	3182.1899	939.4	56.8
1046.8504	3183.1377	938.25	60.3
1046.9542	3184.0848	938.95	54.4
1047.058	3185.0314	936.4	57.7
1047.1617	3185.9773	937.55	57.85
1047.2654	3186.9227	936.8	57.4
1047.369	3187.8674	936.35	57.3
1047.4726	3188.8115	940	55.45
1047.5761	3189.755	935.45	56.95
1047.6796	3190.6979	932.65	52.9
1047.783	3191.6402	931.35	52.2
1047.8864	3192.5818	932.75	51.6
1047.9898	3193.5229	952.9	51.8
1048.0931	3194.4633	932.1	51.55
1048.1963	3195.4031	932.9	51
1048.2995	3196.3423	931.6	52.8
1048.4027	3197.2809	931.95	53.35
1048.5058	3198.2189	932.05	52.3
1048.6089	3199.1563	949.45	53.35
1048.7119	3200.0931	930.5	51.45
1048.8148	3201.0292	930.45	51.05
1048.9178	3201.9648	933.55	54.6
1049.0206	3202.8997	932.75	48
1049.1235	3203.834	931	52.3
1049.2262	3204.7677	929.4	48.85
1049.329	3205.7008	926.8	45.05
1049.4317	3206.6333	926.65	48.35
1049.5343	3207.5652	929.85	47.45
1049.6369	3208.4964	930.15	50.3
1049.7394	3209.4271	928.25	48.85
1049.8419	3210.3571	926.7	49.85
1049.9444	3211.2865	928.3	47.95
1050.0468	3212.2154	926.85	45.6
1050.1491	3213.1436	931.45	48.65
1050.2514	3214.0712	935.9	48.3
1050.3537	3214.9982	926.75	47.7
1050.4559	3215.9246	929.25	48.8
1050.5581	3216.8503	924.4	45.45
1050.6602	3217.7755	924.7	42.55
1050.7623	3218.7001	925.1	44.9
1050.8643	3219.624	928.5	47.65
1050.9663	3220.5473	924.7	45.05
1051.0682	3221.4701	928.4	46.4
1051.1701	3222.3922	925.9	44.25
1051.2719	3223.3137	926.15	48.3
1051.3737	3224.2346	926.4	44.35
1051.4754	3225.1549	921.55	41.85
1051.5771	3226.0746	922.6	42.25
1051.6788	3226.9937	919.6	40
1051.7804	3227.9121	922.8	44.45
1051.8819	3228.83	921.6	42.45
1051.9834	3229.7473	924.05	46.8
1052.0849	3230.6639	920.95	39.25
1052.1863	3231.5799	922.35	44.25
1052.2876	3232.4954	921.4	40.7
1052.3889	3233.4102	921.25	40.05
1052.4902	3234.3244	924.2	42.75
1052.5914	3235.238	921.1	39.85
1052.6926	3236.151	944.1	40.65
1052.7937	3237.0634	919.25	39.85
1052.8948	3237.9752	920.45	40.1
1052.9958	3238.8864	922.3	42.35
1053.0968	3239.797	918.9	39.65
1053.1977	3240.7069	920.9	39.4
1053.2986	3241.6163	922.15	42.45
1053.3994	3242.5251	921.35	42.5
1053.5002	3243.4332	918.95	39.3
1053.6009	3244.3408	920.9	40.95
1053.7016	3245.2477	917.85	38.65
1053.8022	3246.154	920.65	40.65
1053.9028	3247.0598	916.05	36.85
1054.0034	3247.9649	918.05	38.1
1054.1039	3248.8694	919.15	41.05
1054.2043	3249.7733	916.3	35.05
1054.3047	3250.6766	917.85	37.8
1054.4051	3251.5793	917.05	34.45
1054.5054	3252.4814	913.9	34.8
1054.6056	3253.3829	913.6	34.75
1054.7058	3254.2838	916.3	36.75
1054.806	3255.1841	914.65	33.35
1054.9061	3256.0838	913.95	34.25
1055.0061	3256.9829	915.2	36.8
1055.1062	3257.8814	911.5	29.65
1055.2061	3258.7792	915.45	33.95
1055.306	3259.6765	915.55	36
1055.4059	3260.5731	911.3	32.85
1055.5057	3261.4692	911.15	32.95
1055.6055	3262.3647	912.65	31.6
1055.7052	3263.2595	910.45	29.55
1055.8049	3264.1538	907.65	30.25
1055.9045	3265.0474	909.8	29.8
1056.0041	3265.9404	908.35	29.3
1056.1036	3266.8329	910.05	30.5
1056.2031	3267.7247	917.3	27.45
1056.3025	3268.616	907.65	30.35
1056.4019	3269.5066	903.55	22.5
1056.5013	3270.3966	907.3	26.8
1056.6005	3271.286	904.4	24
