Software Version:	3.9.2.0
Unit SN:	10000200
Spectrometer SN:	6960
Date:	3/14/2024 1:12:30 PM
Data Line Index:	25
Spectral Points:	2048
Integration time (ms):	125
Averages:	20
Delay (ms):	30000
Sequence Number:	1
Processing:	dark subtract
Laser Power (mW):	305
Laser Current (mA):	825
Laser Diode Temp (C):	25.1
Laser Case Temp (C):	28.1
System Temp (C):	28.2
Spectrometer Temp (C):	26.1
CCD Temp (C):	0.004
Secondary Temp (C):	20.01
Heatsink Temp (C):	24.1
CCDPCB Temp (C):	37.641
SecondaryPCB Temp (C):	35.34

Wavelength	RamanShift	Raw Counts	Dark Subtracted
787.061	30.1047	441.7	29.4
787.2016	32.3739	441.65	32.95
787.3422	34.6426	445.9	35
787.4828	36.9109	450.85	38.3
787.6235	39.1787	455.8	39.2
787.7642	41.4461	463.05	41.4
787.9049	43.7131	472	46.65
788.0456	45.9796	475.3	46.4
788.1863	48.2456	482.85	48.15
788.3271	50.5112	488.85	51.4
788.4679	52.7764	495.35	57.95
788.6087	55.0411	502.15	59.4
788.7496	57.3054	510.9	63.75
788.8904	59.5692	519.45	71.05
789.0313	61.8326	528.8	76
789.1722	64.0955	534.6	78.1
789.3132	66.3579	551.75	88.3
789.4541	68.6199	559.4	93.35
789.5951	70.8815	579.1	111.25
789.7361	73.1426	633.35	162.05
789.8771	75.4032	761.3	285
790.0181	77.6634	1073.05	591.15
790.1592	79.9231	1811.6	1323.55
790.3003	82.1824	3381.15	2888.75
790.4414	84.4412	6186.15	5677.9
790.5825	86.6995	10017.1	9495.7
790.7237	88.9574	13828.2	13289.55
790.8648	91.2148	16496.75	15951.1
791.006	93.4717	17762.05	17211.6
791.1472	95.7282	17991.8	17433.35
791.2885	97.9842	17862.15	17302.95
791.4297	100.2398	17451.5	16888.25
791.571	102.4949	16976.65	16412.45
791.7123	104.7495	16461.95	15890.5
791.8536	107.0036	15899	15327.5
791.9949	109.2573	15420.55	14850.95
792.1363	111.5105	14947.25	14373.4
792.2777	113.7632	14547.15	13973.4
792.4191	116.0154	14220	13635.9
792.5605	118.2672	13977.6	13399.5
792.7019	120.5185	13701.35	13122.3
792.8434	122.7693	13515.75	12933.3
792.9849	125.0197	13330.95	12748.75
793.1264	127.2696	13172.6	12586.25
793.2679	129.519	13092.35	12503.15
793.4094	131.7679	12912.65	12322.6
793.551	134.0163	12754.75	12160
793.6926	136.2642	12559.3	11960
793.8342	138.5117	12355.45	11750.7
793.9758	140.7587	12129.25	11526.65
794.1175	143.0052	11931.15	11323.8
794.2591	145.2512	11736.35	11127.05
794.4008	147.4967	11547.05	10938.9
794.5425	149.7417	11391.8	10780.25
794.6842	151.9863	11294	10680.35
794.826	154.2304	11214.7	10599.25
794.9677	156.4739	11118.85	10495.6
795.1095	158.717	11086.65	10466.05
795.2513	160.9596	10987.85	10361.85
795.3931	163.2017	10844.65	10215.15
795.535	165.4433	10685.8	10056.85
795.6768	167.6844	10523.6	9890.05
795.8187	169.925	10334.3	9697.6
795.9606	172.1651	10115.15	9476.2
796.1025	174.4047	9957.45	9314.95
796.2445	176.6439	9796.85	9151.8
796.3864	178.8825	9658.85	9014.9
796.5284	181.1206	9564	8911.15
796.6704	183.3582	9470	8817
796.8124	185.5954	9424.7	8770.35
796.9544	187.832	9386.15	8727.2
797.0965	190.0681	9352.95	8691.7
797.2386	192.3037	9364.2	8698
797.3806	194.5388	9343.2	8676.85
797.5228	196.7734	9366.3	8696.55
797.6649	199.0075	9424.4	8749.4
797.807	201.2411	9487.35	8810.55
797.9492	203.4742	9519.45	8844.7
798.0914	205.7068	9613.45	8936.7
798.2336	207.9389	9669.2	8990.9
798.3758	210.1704	9780.25	9101.25
798.518	212.4015	9823.2	9141.55
798.6603	214.632	9905.75	9221.15
798.8025	216.862	9964.1	9285.15
798.9448	219.0915	10005.65	9335.4
799.0871	221.3205	10047.2	9380.15
799.2294	223.549	10095.6	9435.7
799.3718	225.777	10158	9497.55
799.5141	228.0044	10193.25	9527.15
799.6565	230.2314	10246.2	9585
799.7989	232.4578	10320.35	9658.85
799.9413	234.6837	10362.05	9690.15
800.0837	236.909	10404.35	9730.25
800.2262	239.1339	10404.6	9707.25
800.3687	241.3582	10346.3	9664.9
800.5111	243.582	10303.55	9598.45
800.6536	245.8053	10260.95	9561.6
800.7961	248.0281	10214.35	9520.7
800.9387	250.2503	10222.85	9524.2
801.0812	252.472	10229.85	9523.9
801.2238	254.6932	10299.9	9595.3
801.3664	256.9139	10319.95	9606.75
801.509	259.134	10427.4	9713.25
801.6516	261.3536	10579.15	9865.9
801.7942	263.5727	10760.25	10046.95
801.9369	265.7912	10906.1	10193.1
802.0795	268.0092	11054.3	10341
802.2222	270.2267	11177.9	10464.2
802.3649	272.4436	11282.6	10565.3
802.5076	274.6601	11301.85	10576.3
802.6504	276.8759	11254.35	10537.85
802.7931	279.0913	11221.35	10502.65
802.9359	281.3061	11154.9	10432.1
803.0787	283.5204	11137.05	10413.25
803.2215	285.7341	11151.9	10423.8
803.3643	287.9473	11148.6	10418.25
803.5071	290.16	11138.45	10404.35
803.6499	292.3721	11171.7	10445.3
803.7928	294.5837	11289.1	10560
803.9357	296.7947	11382.75	10653.25
804.0786	299.0052	11469.7	10739.85
804.2215	301.2152	11434.35	10701.9
804.3644	303.4246	11365.15	10635.05
804.5074	305.6334	11170.5	10437.45
804.6503	307.8418	10946.7	10214.15
804.7933	310.0495	10691.1	9956.4
804.9363	312.2568	10458.85	9725.3
805.0793	314.4635	10235.05	9496.75
805.2223	316.6696	10008.75	9271.2
805.3653	318.8752	9876.05	9128.4
805.5084	321.0802	9792.45	9057
805.6514	323.2847	9782.8	9044.8
805.7945	325.4887	9815.65	9074.95
805.9376	327.692	9817.5	9077.7
806.0807	329.8949	9828.85	9087.15
806.2238	332.0972	9739	8994.75
806.367	334.2989	9635.25	8887.15
806.5101	336.5001	9475.8	8730.15
806.6533	338.7007	9337.2	8591.25
806.7965	340.9008	9239.8	8491.75
806.9397	343.1003	9119.75	8365.9
807.0829	345.2992	9049.4	8298.2
807.2261	347.4976	8988.55	8234.45
807.3693	349.6955	8918.25	8157.65
807.5126	351.8927	8880.85	8121.05
807.6559	354.0895	8831.4	8062.15
807.7991	356.2856	8802.15	8042.95
807.9424	358.4812	8758.3	7999.5
808.0857	360.6763	8758.05	7998.15
808.2291	362.8707	8753.7	7992.05
808.3724	365.0646	8774.65	8011.7
808.5158	367.258	8777.8	8014.75
808.6591	369.4508	8817.55	8049.35
808.8025	371.643	8900.5	8129.95
808.9459	373.8346	8925.1	8152.4
809.0893	376.0257	8993.95	8218.15
809.2327	378.2162	9006.65	8229.5
809.3762	380.4062	9009.55	8229.55
809.5196	382.5956	8939.3	8161.8
809.6631	384.7844	8871.75	8094.25
809.8066	386.9726	8748.35	7967.65
809.9501	389.1603	8710.85	7927.25
810.0936	391.3474	8679.65	7865.1
810.2371	393.5339	8649.45	7866.7
810.3806	395.7199	8606.9	7831.4
810.5241	397.9052	8645.2	7870.95
810.6677	400.09	8692.5	7917.65
810.8113	402.2743	8778.25	8008.45
810.9548	404.4579	8871.85	8101.7
811.0984	406.641	8988.15	8215.2
811.2421	408.8235	9084.35	8312.05
811.3857	411.0054	9194	8418.6
811.5293	413.1868	9313.55	8537.65
811.673	415.3675	9338.4	8560.1
811.8166	417.5477	9363.6	8584.4
811.9603	419.7273	9284.75	8503.7
812.104	421.9064	9208.3	8418.95
812.2477	424.0848	9119.2	8334.2
812.3914	426.2627	9030.75	8244
812.5351	428.4399	8900.55	8111.7
812.6788	430.6166	8692.95	7899.45
812.8226	432.7928	8478.15	7684.05
812.9663	434.9683	8316.95	7521.55
813.1101	437.1432	8189.2	7393.45
813.2539	439.3176	8093.75	7298.95
813.3977	441.4914	7995.45	7199.25
813.5415	443.6645	7977.85	7179.55
813.6853	445.8371	7939.35	7137.45
813.8291	448.0091	7924.8	7127.9
813.973	450.1806	7903.45	7104.9
814.1168	452.3514	7876.35	7073.85
814.2607	454.5216	7888.1	7077.7
814.4046	456.6913	7873.3	7070
814.5485	458.8603	7911.55	7108
814.6924	461.0288	7919.6	7115.75
814.8363	463.1967	7898.8	7097.9
814.9802	465.3639	7921.2	7117.3
815.1241	467.5306	7907	7104.05
815.2681	469.6967	7881	7074.5
815.412	471.8622	7876.45	7072.7
815.556	474.0271	7892.9	7089.3
815.7	476.1914	7925.85	7117.45
815.844	478.3551	7905.8	7099.1
815.988	480.5182	7927.65	7119.35
816.132	482.6807	7968.85	7160.45
816.276	484.8426	8093.85	7286.4
816.4201	487.0039	8269	7458.8
816.5641	489.1647	8487.4	7678.5
816.7082	491.3248	8670.9	7862.3
816.8522	493.4843	8746.4	7938.45
816.9963	495.6432	8720.2	7911
817.1404	497.8015	8618.1	7804.65
817.2845	499.9592	8523.6	7713.5
817.4286	502.1163	8391.35	7578.65
817.5727	504.2728	8205.15	7391.25
817.7168	506.4287	8047.1	7232.3
817.861	508.5839	7858.1	7041.2
818.0051	510.7386	7752.4	6940.55
818.1493	512.8927	7709.2	6887.25
818.2935	515.0461	7697.1	6880.1
818.4377	517.199	7740.2	6923.95
818.5818	519.3512	7820.65	7006.35
818.726	521.5029	7987.8	7166.95
818.8703	523.6539	8158.8	7341.75
819.0145	525.8043	8208.7	7389.85
819.1587	527.9541	8173.95	7351.15
819.303	530.1033	8040.6	7222.4
819.4472	532.2519	7925.6	7104.85
819.5915	534.3999	7863.75	7041.4
819.7357	536.5472	7902.55	7081.35
819.88	538.694	7982.15	7159.5
820.0243	540.8401	8137.45	7315.75
820.1686	542.9856	8249.8	7426.25
820.3129	545.1305	8267	7443.8
820.4572	547.2748	8250.85	7425.8
820.6016	549.4185	8163.3	7335.65
820.7459	551.5615	8054.6	7225.9
820.8902	553.704	8062.75	7236.3
821.0346	555.8458	8093.55	7268.9
821.1789	557.987	8198.1	7372.65
821.3233	560.1276	8316	7486.6
821.4677	562.2675	8523.8	7697
821.6121	564.4069	8810.25	7987
821.7565	566.5456	9084.6	8258.4
821.9009	568.6837	9160.3	8332.9
822.0453	570.8212	8932.6	8106.35
822.1897	572.958	8554.6	7725.9
822.3342	575.0942	8152.4	7324.25
822.4786	577.2299	7888.65	7059.95
822.6231	579.3648	7773.2	6946.95
822.7675	581.4992	7734.85	6908.55
822.912	583.6329	7792.05	6962.25
823.0565	585.766	7860.95	7035
823.201	587.8985	7944.85	7120.25
823.3454	590.0304	8014.4	7162.6
823.4899	592.1616	7990.45	7159.65
823.6345	594.2922	7911.45	7080.25
823.779	596.4222	7809.85	6979
823.9235	598.5515	7645.15	6812.35
824.068	600.6802	7534.15	6701.8
824.2126	602.8083	7442.25	6609.15
824.3571	604.9358	7429.7	6597.85
824.5017	607.0626	7424.05	6591.25
824.6462	609.1888	7479.85	6647.05
824.7908	611.3144	7557.75	6722.4
824.9354	613.4393	7635.85	6800.65
825.08	615.5636	7732.25	6897.8
825.2246	617.6873	7760.15	6927.9
825.3692	619.8103	7730.9	6894.2
825.5138	621.9327	7614.85	6778.65
825.6584	624.0544	7476.7	6640.7
825.803	626.1756	7383.15	6546.45
825.9477	628.2961	7282.6	6446.35
826.0923	630.4159	7216.1	6378.4
826.237	632.5351	7186.15	6348.6
826.3816	634.6537	7176.2	6339.3
826.5263	636.7716	7148.4	6309.65
826.6709	638.8889	7177	6337.6
826.8156	641.0056	7180.35	6339.95
826.9603	643.1216	7159.55	6318.65
827.105	645.237	7153.2	6309.85
827.2497	647.3518	7095.85	6253.25
827.3944	649.4659	7063.5	6220.45
827.5391	651.5793	6999.1	6157.5
827.6838	653.6922	7002.7	6163.45
827.8285	655.8043	6978.8	6136.7
827.9733	657.9159	6967.9	6127.15
828.118	660.0268	6952.3	6108.4
828.2627	662.137	6932.2	6089.35
828.4075	664.2466	6938.15	6094.5
828.5522	666.3556	6940.3	6098.7
828.697	668.4639	6919.85	6073.95
828.8418	670.5716	6883.95	6040.55
828.9865	672.6786	6855.95	6011.3
829.1313	674.785	6807.9	5961.35
829.2761	676.8907	6782.7	5938.2
829.4209	678.9958	6782.8	5937.8
829.5657	681.1002	6788.85	5942.75
829.7105	683.204	6745.85	5894.1
829.8553	685.3072	6747.85	5901.5
830.0001	687.4097	6731.2	5886.15
830.1449	689.5115	6710	5860.5
830.2898	691.6127	6717.2	5869.85
830.4346	693.7132	6696.75	5847.7
830.5794	695.8131	6706.15	5843.55
830.7243	697.9123	6703.75	5854.25
830.8691	700.0109	6735.55	5885.75
831.014	702.1089	6743.25	5895.95
831.1588	704.2061	6759.5	5912.65
831.3037	706.3028	6805.2	5955.2
831.4486	708.3987	6842.4	5992.6
831.5935	710.4941	6864.15	6014.55
831.7383	712.5887	6882.75	6032.5
831.8832	714.6827	6928.5	6072.85
832.0281	716.7761	6983.6	6133.1
832.173	718.8688	7058.3	6205.6
832.3179	720.9608	7141.85	6288.85
832.4628	723.0522	7221.65	6367.75
832.6077	725.1429	7238.15	6386.85
832.7527	727.233	7294.95	6442.15
832.8976	729.3224	7368.5	6518.4
833.0425	731.4112	7345.8	6492.65
833.1874	733.4993	7248.25	6390.85
833.3324	735.5867	7106.7	6251.8
833.4773	737.6735	6940.4	6085.45
833.6222	739.7596	6815	5961.75
833.7672	741.845	6750.65	5896
833.9122	743.9298	6695.3	5839.55
834.0571	746.014	6659.2	5804.35
834.2021	748.0974	6649.2	5793.8
834.347	750.1802	6640.85	5787.3
834.492	752.2624	6681.1	5826.55
834.637	754.3439	6659.65	5802.1
834.782	756.4247	6716.1	5848.7
834.9269	758.5048	6803.75	5950.05
835.0719	760.5843	6949.35	6092.6
835.2169	762.6631	7155.25	6299.95
835.3619	764.7413	7473.95	6618.05
835.5069	766.8188	7886.25	7026.5
835.6519	768.8956	8238.05	7379
835.7969	770.9718	8475.2	7620
835.9419	773.0473	8454.85	7599.15
836.0869	775.1221	8307.45	7450.5
836.232	777.1962	8155.8	7298.55
836.377	779.2697	8129.95	7272
836.522	781.3426	8220.35	7355.8
836.667	783.4147	8280.85	7420.3
836.8121	785.4862	8313.4	7457.7
836.9571	787.557	8195.8	7337.65
837.1021	789.6271	7884.7	7027.35
837.2472	791.6966	7486.55	6625.9
837.3922	793.7654	7139.3	6278.95
837.5373	795.8335	6851.25	5991.75
837.6823	797.901	6693.3	5834.15
837.8274	799.9678	6593.7	5733
837.9724	802.0339	6525.35	5666.55
838.1175	804.0993	6526.35	5658
838.2626	806.1641	6455.3	5596.05
838.4076	808.2282	6420.2	5562.2
838.5527	810.2916	6357.35	5495.55
838.6978	812.3544	6320.05	5459.4
838.8428	814.4164	6288.3	5429.8
838.9879	816.4778	6320.6	5458.65
839.133	818.5385	6321.05	5457.25
839.2781	820.5986	6402	5542.55
839.4232	822.658	6537.55	5674.15
839.5682	824.7166	6748.6	5889.9
839.7133	826.7747	7070.7	6212.3
839.8584	828.832	7373.6	6511.75
840.0035	830.8886	7606.35	6743.65
840.1486	832.9446	7720.85	6859.1
840.2937	834.9999	7655.85	6795.4
840.4388	837.0545	7462.35	6597.9
840.5839	839.1085	7211.7	6348.85
840.729	841.1618	7010.9	6144.9
840.8741	843.2143	6842.65	5981
841.0192	845.2662	6729.4	5867.15
841.1643	847.3175	6638.4	5776.65
841.3095	849.368	6576.85	5716.55
841.4546	851.4179	6531.1	5668.8
841.5997	853.467	6460.3	5597.7
841.7448	855.5155	6420.05	5556.55
841.8899	857.5633	6370.8	5507.45
842.0351	859.6105	6315.2	5452.25
842.1802	861.6569	6284.5	5421.95
842.3253	863.7027	6232.2	5367
842.4704	865.7478	6184.15	5320.7
842.6156	867.7922	6156.15	5292.4
842.7607	869.8359	6147.2	5282.9
842.9058	871.8789	6154.05	5290.45
843.0509	873.9212	6207.6	5309.85
843.1961	875.9629	6219.85	5354
843.3412	878.0039	6284	5416.55
843.4863	880.0441	6349.55	5484.65
843.6315	882.0837	6372.7	5505.05
843.7766	884.1226	6421.6	5554
843.9218	886.1609	6462.7	5597.9
844.0669	888.1984	6533.3	5667
844.212	890.2352	6600.6	5738.4
844.3572	892.2714	6628.05	5760.2
844.5023	894.3069	6579.05	5713.5
844.6475	896.3416	6481.7	5616.25
844.7926	898.3757	6386.2	5518.3
844.9377	900.4091	6306.95	5440.85
845.0829	902.4418	6281.9	5410.8
845.228	904.4739	6306.45	5439.1
845.3732	906.5052	6353.8	5487.2
845.5183	908.5358	6317.6	5451.15
845.6635	910.5658	6252.95	5386.5
845.8086	912.595	6124.9	5259.5
845.9538	914.6236	5981.25	5116.8
846.0989	916.6515	5909.6	5043.75
846.2441	918.6786	5851.6	4984.15
846.3892	920.7051	5852.75	4983.7
846.5344	922.7309	5840.05	4975.3
846.6795	924.756	5853.15	4985.15
846.8246	926.7804	5889.2	5017.25
846.9698	928.8041	5874.3	5005.9
847.1149	930.8272	5939.55	5070.1
847.2601	932.8495	5930.85	5062
847.4052	934.8711	5908.6	5038.2
847.5504	936.892	5906.1	5038.7
847.6955	938.9123	5884.15	5014.6
847.8407	940.9318	5899.4	5028.85
847.9858	942.9506	5919.2	5048.75
848.131	944.9688	5897.2	5026.5
848.2761	946.9862	5808.25	4938.2
848.4213	949.003	5716.3	4846.75
848.5664	951.019	5648.35	4777.05
848.7115	953.0344	5601.2	4732.4
848.8567	955.0491	5593.7	4723
849.0018	957.063	5617.55	4747.35
849.147	959.0763	5647.95	4775.1
849.2921	961.0888	5651.9	4777.7
849.4373	963.1007	5671.55	4800.35
849.5824	965.1119	5696.7	4827.05
849.7275	967.1223	5695.2	4825.2
849.8727	969.1321	5678.5	4807.9
850.0178	971.1412	5659.15	4788.35
850.1629	973.1495	5644.8	4777.1
850.3081	975.1572	5679.75	4776.95
850.4532	977.1641	5657.3	4788.55
850.5983	979.1704	5641.8	4772.05
850.7435	981.1759	5617.05	4742.9
850.8886	983.1808	5600.5	4728.5
851.0337	985.1849	5626.9	4744.65
851.1788	987.1884	5640	4765.15
851.324	989.1911	5709.2	4834.7
851.4691	991.1932	5732.05	4858.85
851.6142	993.1945	5737.45	4866.9
851.7593	995.1951	5711.25	4836.15
851.9045	997.1951	5697.5	4818.85
852.0496	999.1943	5677.45	4809.75
852.1947	1001.1928	5686.85	4814.85
852.3398	1003.1906	5719.35	4848.55
852.4849	1005.1877	5812.45	4939.25
852.63	1007.1841	5855.2	4980.2
852.7751	1009.1798	5851.25	4976.75
852.9202	1011.1748	5821.65	4947.65
853.0653	1013.1691	5743.4	4868.4
853.2104	1015.1627	5609.2	4736.95
853.3555	1017.1556	5474.3	4601.6
853.5006	1019.1477	5412	4538.6
853.6457	1021.1392	5339	4467.05
853.7908	1023.1299	5326.55	4456.05
853.9359	1025.12	5330.75	4456.65
854.081	1027.1093	5358.7	4488.4
854.2261	1029.0979	5434.45	4563.2
854.3712	1031.0859	5499.55	4628.15
854.5163	1033.0731	5507.95	4633.1
854.6613	1035.0596	5468.5	4597
854.8064	1037.0454	5394.1	4521.6
854.9515	1039.0304	5338.15	4465.5
855.0965	1041.0148	5279.3	4406.9
855.2416	1042.9985	5216.5	4341.25
855.3867	1044.9814	5182.75	4310.8
855.5317	1046.9636	5150.1	4274.1
855.6768	1048.9452	5144.7	4271
855.8219	1050.926	5164	4292.85
855.9669	1052.9061	5185.85	4311.95
856.112	1054.8855	5214.55	4342.35
856.257	1056.8642	5223.9	4351.9
856.4021	1058.8421	5227.3	4348.45
856.5471	1060.8194	5261.6	4387.75
856.6921	1062.7959	5280.55	4405.95
856.8372	1064.7717	5308.05	4434.1
856.9822	1066.7469	5352.7	4476.75
857.1272	1068.7213	5396.35	4518.35
857.2723	1070.695	5428.9	4554.8
857.4173	1072.6679	5449.8	4574.55
857.5623	1074.6402	5478	4603.7
857.7073	1076.6117	5481.95	4603.25
857.8523	1078.5826	5396.6	4520.05
857.9973	1080.5527	5303.45	4424.6
858.1423	1082.5221	5235.65	4358.9
858.2873	1084.4908	5197.85	4324.4
858.4323	1086.4587	5203.55	4329.35
858.5773	1088.426	5216.1	4341.65
858.7223	1090.3925	5219.35	4338.05
858.8673	1092.3584	5234.2	4360.55
859.0123	1094.3235	5252.75	4378.05
859.1573	1096.2879	5306.15	4430.25
859.3022	1098.2515	5364.95	4489.05
859.4472	1100.2145	5465.2	4590.05
859.5922	1102.1767	5574.25	4697.35
859.7371	1104.1382	5726.75	4851.1
859.8821	1106.099	5880.45	5001.95
860.027	1108.0591	6006.25	5130.8
860.172	1110.0185	6103.35	5225.3
860.3169	1111.9771	6161.75	5285.8
860.4619	1113.9351	6157.65	5279.45
860.6068	1115.8923	6097.55	5222.3
860.7517	1117.8488	6018.4	5139.5
860.8967	1119.8045	5883.5	5010.1
861.0416	1121.7596	5766.5	4889.65
861.1865	1123.7139	5680.25	4804.35
861.3314	1125.6675	5631.75	4757.8
861.4763	1127.6204	5628.1	4751.1
861.6212	1129.5726	5632.75	4755.15
861.7661	1131.524	5592.85	4715.5
861.911	1133.4748	5515.05	4638.6
862.0559	1135.4248	5383.8	4506.05
862.2008	1137.3741	5282.15	4405.2
862.3457	1139.3226	5190.05	4311.3
862.4905	1141.2705	5174.15	4297.4
862.6354	1143.2176	5123.4	4241.75
862.7803	1145.164	5107.5	4230.7
862.9251	1147.1097	5068.7	4190.3
863.07	1149.0546	5008.9	4132.5
863.2148	1150.9989	4933.35	4056.65
863.3597	1152.9424	4867.1	3990.8
863.5045	1154.8852	4795.65	3919.15
863.6493	1156.8272	4777.75	3900.55
863.7942	1158.7686	4790.85	3904.4
863.939	1160.7092	4798.85	3919.65
864.0838	1162.6491	4821.2	3942.5
864.2286	1164.5883	4886	4009.15
864.3734	1166.5267	4940.95	4063.7
864.5182	1168.4644	5060.6	4183.45
864.663	1170.4014	5155.75	4272.2
864.8078	1172.3377	5297.7	4423.55
864.9526	1174.2732	5476.15	4599.4
865.0974	1176.2081	5753.35	4876.7
865.2421	1178.1421	6051.8	5171.2
865.3869	1180.0755	6376.85	5500.45
865.5317	1182.0082	6598.15	5720.55
865.6764	1183.9401	6674.15	5796.95
865.8212	1185.8713	6565.2	5687.45
865.9659	1187.8017	6348.9	5470.8
866.1106	1189.7315	6116.35	5239.35
866.2554	1191.6605	5879.75	4975.95
866.4001	1193.5888	5652.15	4775.25
866.5448	1195.5163	5561.5	4684.85
866.6895	1197.4432	5471.75	4594.4
866.8342	1199.3693	5447	4569.9
866.9789	1201.2947	5429.8	4544
867.1236	1203.2193	5391.1	4514.1
867.2683	1205.1432	5391.1	4511.55
867.413	1207.0664	5380.45	4502.2
867.5576	1208.9889	5360.1	4479.55
867.7023	1210.9106	5336.8	4459.8
867.847	1212.8316	5349.05	4472.75
867.9916	1214.7519	5388.05	4502.9
868.1363	1216.6715	5415.25	4539.1
868.2809	1218.5903	5441.2	4563.6
868.4255	1220.5084	5495.15	4617
868.5701	1222.4257	5559.65	4681.25
868.7148	1224.3424	5594.05	4715.3
868.8594	1226.2583	5689.9	4808.3
869.004	1228.1735	5786.8	4904.25
869.1486	1230.0879	5898.8	5019.2
869.2932	1232.0016	6004.6	5126.95
869.4377	1233.9146	6110	5230.1
869.5823	1235.8269	6139.25	5260.6
869.7269	1237.7384	6128.95	5251.6
869.8715	1239.6492	6047.75	5169.65
870.016	1241.5592	6049.6	5171.3
870.1606	1243.4686	6075.5	5196.05
870.3051	1245.3772	6201.1	5321.2
870.4496	1247.285	6361.8	5483.45
870.5941	1249.1922	6490.2	5613.15
870.7387	1251.0986	6650	5773.1
870.8832	1253.0042	6738.5	5856.65
871.0277	1254.9092	6830.45	5950.15
871.1722	1256.8134	6882	6006.2
871.3167	1258.7169	6968.6	6089.25
871.4611	1260.6196	7052.75	6174.15
871.6056	1262.5216	7168.8	6287.55
871.7501	1264.4229	7259.3	6380.1
871.8945	1266.3234	7384.85	6504.5
872.039	1268.2232	7455.35	6574.5
872.1834	1270.1223	7475.55	6594.2
872.3278	1272.0207	7489.7	6612.4
872.4723	1273.9183	7470	6586.25
872.6167	1275.8151	7429.4	6550.8
872.7611	1277.7113	7428.2	6545.6
872.9055	1279.6067	7508.15	6630.9
873.0499	1281.5014	7683.2	6800.7
873.1943	1283.3953	7997.1	7115.25
873.3386	1285.2885	8340.2	7463.15
873.483	1287.181	8733.8	7852.15
873.6274	1289.0727	9058.3	8180.4
873.7717	1290.9637	9258.4	8377.3
873.9161	1292.854	9399.85	8520.9
874.0604	1294.7435	9364.95	8483.05
874.2047	1296.6323	9289.1	8409.55
874.349	1298.5204	9113.7	8232
874.4933	1300.4077	8949.3	8068.55
874.6376	1302.2943	8745.35	7867.35
874.7819	1304.1802	8540.6	7660.15
874.9262	1306.0653	8242.55	7360.25
875.0705	1307.9497	7935.85	7057.2
875.2147	1309.8333	7645.15	6764.85
875.359	1311.7162	7441.2	6561.15
875.5032	1313.5984	7306.2	6424.7
875.6475	1315.4798	7232.85	6342.5
875.7917	1317.3605	7205.6	6308.2
875.9359	1319.2405	7121.85	6240.15
876.0801	1321.1197	6963.75	6079
876.2243	1322.9982	6765.55	5878.25
876.3685	1324.876	6560.35	5680.4
876.5127	1326.753	6365.8	5486.1
876.6569	1328.6293	6201.7	5320.55
876.801	1330.5048	6071.75	5190.15
876.9452	1332.3796	5937.8	5058.4
877.0893	1334.2537	5897.7	4991.75
877.2335	1336.127	5812.8	4934.35
877.3776	1337.9996	5780.5	4901.35
877.5217	1339.8714	5740.45	4860.55
877.6658	1341.7426	5769.65	4847.85
877.8099	1343.6129	5773.6	4894.2
877.954	1345.4826	5733.2	4850.9
878.0981	1347.3515	5738	4856.1
878.2422	1349.2196	5717.1	4837.65
878.3862	1351.087	5724.75	4843.7
878.5303	1352.9537	5754.7	4872.75
878.6743	1354.8197	5816.9	4935.7
878.8184	1356.6849	5885.8	5006.2
878.9624	1358.5493	6001.55	5121.7
879.1064	1360.4131	6116.55	5236.5
879.2504	1362.276	6215.8	5336.45
879.3944	1364.1383	6267.95	5388.25
879.5384	1365.9998	6171.15	5283.75
879.6823	1367.8606	6018.35	5135.7
879.8263	1369.7206	5818	4937.2
879.9702	1371.5799	5654.95	4773.1
880.1142	1373.4384	5491.45	4606.65
880.2581	1375.2962	5350.6	4469
880.402	1377.1533	5165.95	4285.05
880.5459	1379.0096	4972.85	4087.3
880.6898	1380.8652	4772.5	3892.15
880.8337	1382.7201	4608.25	3729.2
880.9776	1384.5742	4449.85	3571.15
881.1215	1386.4275	4369.3	3487.1
881.2653	1388.2802	4273.2	3393
881.4092	1390.132	4212.95	3331.8
881.553	1391.9832	4167.75	3286.95
881.6968	1393.8336	4120.85	3240.55
881.8406	1395.6832	4106.7	3223.5
881.9844	1397.5322	4075.25	3194.55
882.1282	1399.3803	4050.85	3164.45
882.272	1401.2278	4043.05	3163.2
882.4158	1403.0745	4014.75	3132.65
882.5595	1404.9204	4000.5	3119.25
882.7033	1406.7656	4008.4	3128.1
882.847	1408.6101	4040.5	3157.9
882.9908	1410.4538	4043.1	3162.8
883.1345	1412.2968	4070.95	3189.25
883.2782	1414.139	4094.55	3214.35
883.4219	1415.9805	4130.65	3251.05
883.5656	1417.8213	4186.65	3297.55
883.7092	1419.6613	4235.6	3354.75
883.8529	1421.5006	4324.1	3442.1
883.9965	1423.3391	4455.85	3573.35
884.1402	1425.1769	4604.55	3721.55
884.2838	1427.0139	4856.3	3974.7
884.4274	1428.8502	5177.4	4294.75
884.571	1430.6858	5469.15	4588.2
884.7146	1432.5206	5688.8	4807.3
884.8582	1434.3547	5805.25	4923
885.0018	1436.188	5828.4	4948.8
885.1453	1438.0206	5775.4	4893.35
885.2889	1439.8524	5682.15	4799.3
885.4324	1441.6835	5648.9	4767.55
885.5759	1443.5139	5566.75	4682.9
885.7194	1445.3435	5522.2	4639.6
885.8629	1447.1724	5519.35	4637.95
886.0064	1449.0005	5487.05	4604.5
886.1499	1450.8279	5478.4	4594.3
886.2933	1452.6545	5460.2	4579.8
886.4368	1454.4804	5489.6	4609.35
886.5802	1456.3056	5464.45	4576.7
886.7237	1458.13	5425.3	4544.55
886.8671	1459.9536	5338.6	4458.9
887.0105	1461.7766	5200.5	4320.65
887.1539	1463.5987	5017.7	4135.9
887.2972	1465.4202	4834.05	3951.05
887.4406	1467.2409	4637.75	3756.6
887.584	1469.0608	4489.4	3607.4
887.7273	1470.88	4326.4	3445.45
887.8706	1472.6984	4193.4	3310.65
888.0139	1474.5161	4086.35	3201.65
888.1572	1476.3331	4004.7	3124.55
888.3005	1478.1493	3948.3	3066.6
888.4438	1479.9648	3907.4	3025.7
888.5871	1481.7795	3858.3	2979.3
888.7303	1483.5935	3824.9	2942.8
888.8736	1485.4067	3787.8	2906
889.0168	1487.2192	3791.45	2909.15
889.16	1489.031	3758.3	2873.65
889.3032	1490.842	3731.9	2850.7
889.4464	1492.6522	3725.05	2844.1
889.5896	1494.4618	3698.55	2816.5
889.7327	1496.2705	3692.7	2813.2
889.8759	1498.0785	3664.3	2782.35
890.019	1499.8858	3638.9	2757.95
890.1622	1501.6924	3623.3	2744.45
890.3053	1503.4981	3604.55	2721.05
890.4484	1505.3032	3589.4	2709.4
890.5914	1507.1075	3561.05	2677.15
890.7345	1508.911	3528.85	2647.5
890.8776	1510.7138	3512.15	2628.55
891.0206	1512.5159	3483.95	2603.8
891.1637	1514.3172	3453.4	2571.65
891.3067	1516.1178	3427.8	2548.1
891.4497	1517.9176	3411.6	2528.35
891.5927	1519.7166	3397.1	2516.6
891.7357	1521.515	3397.4	2508.75
891.8786	1523.3126	3371.95	2490.4
892.0216	1525.1094	3354.65	2470.1
892.1645	1526.9055	3343.65	2463.8
892.3074	1528.7008	3348.35	2466.3
892.4503	1530.4954	3327.5	2438.35
892.5932	1532.2893	3320.1	2441.8
892.7361	1534.0824	3298.85	2411.85
892.879	1535.8747	3313.9	2432.4
893.0218	1537.6663	3305.5	2421.5
893.1647	1539.4572	3318.75	2434
893.3075	1541.2473	3315.4	2433.4
893.4503	1543.0367	3309.85	2427.9
893.5931	1544.8253	3322.2	2436.9
893.7359	1546.6132	3345.25	2462.45
893.8787	1548.4003	3352.65	2460.35
894.0214	1550.1867	3393	2505.55
894.1642	1551.9723	3426.05	2540.95
894.3069	1553.7572	3473.9	2589
894.4496	1555.5414	3538.8	2656.35
894.5923	1557.3247	3630.2	2747
894.735	1559.1074	3734.15	2852.3
894.8777	1560.8893	3843.05	2962.9
895.0204	1562.6705	3952.9	3071.15
895.163	1564.4509	4040.8	3159.35
895.3056	1566.2305	4084.1	3203
895.4482	1568.0094	4106.95	3227.05
895.5908	1569.7876	4107.75	3225.95
895.7334	1571.565	4092.45	3209
895.876	1573.3417	4107	3227.6
896.0186	1575.1176	4111.95	3232.55
896.1611	1576.8928	4106.75	3222.55
896.3036	1578.6672	4115.05	3234.25
896.4461	1580.4409	4150.85	3268.5
896.5886	1582.2138	4194	3309.65
896.7311	1583.986	4237.4	3354.75
896.8736	1585.7575	4307.7	3425.6
897.0161	1587.5282	4370.35	3489.6
897.1585	1589.2981	4440.5	3558.65
897.3009	1591.0673	4515.65	3634.65
897.4433	1592.8358	4567.8	3686.95
897.5857	1594.6035	4626.65	3742.5
897.7281	1596.3704	4653.95	3771.1
897.8705	1598.1366	4702.45	3820.9
898.0128	1599.9021	4743.7	3860.8
898.1551	1601.6668	4781.35	3896.8
898.2975	1603.4308	4848.8	3967.25
898.4398	1605.194	4923.9	4037.65
898.5821	1606.9564	5045.8	4164.85
898.7243	1608.7182	5219.85	4334.45
898.8666	1610.4791	5402	4521.7
899.0088	1612.2394	5618.4	4736.95
899.1511	1613.9988	5833.8	4953.6
899.2933	1615.7576	6041.55	5157.7
899.4355	1617.5156	6160.6	5275
899.5776	1619.2728	6187.8	5308.05
899.7198	1621.0293	6125.55	5244.9
899.862	1622.785	5946.2	5059.4
900.0041	1624.54	5729.8	4843.7
900.1462	1626.2942	5500.3	4616.5
900.2883	1628.0477	5206.15	4321.1
900.4304	1629.8005	4987.05	4101.2
900.5725	1631.5525	4748.2	3866.9
900.7145	1633.3037	4548.25	3667.2
900.8566	1635.0542	4407.85	3526.3
900.9986	1636.804	4296.05	3413.75
901.1406	1638.553	4256.8	3329.3
901.2826	1640.3013	4161	3280.05
901.4245	1642.0488	4120.2	3238.15
901.5665	1643.7955	4117.35	3237.35
901.7085	1645.5416	4120.95	3238.3
901.8504	1647.2868	4169.85	3288.4
901.9923	1649.0313	4212.45	3332.25
902.1342	1650.7751	4284.1	3399.6
902.2761	1652.5181	4344.15	3463.4
902.4179	1654.2604	4426.7	3543.25
902.5598	1656.0019	4530.1	3649.6
902.7016	1657.7427	4666.25	3784.7
902.8434	1659.4828	4813.55	3930.05
902.9852	1661.222	4914.05	4031.3
903.127	1662.9606	4934.65	4055.35
903.2687	1664.6984	4839	3955.65
903.4105	1666.4354	4624.55	3742.85
903.5522	1668.1717	4337.5	3457.7
903.6939	1669.9072	4025.7	3142.9
903.8356	1671.642	3761.3	2879.2
903.9773	1673.3761	3553.4	2673.45
904.119	1675.1094	3378.85	2497.7
904.2606	1676.8419	3248.65	2367.3
904.4022	1678.5737	3142.95	2259.8
904.5439	1680.3048	3065.35	2184.5
904.6855	1682.0351	3004.95	2124.3
904.827	1683.7646	2930.2	2044.6
904.9686	1685.4934	2883.9	2003.95
905.1101	1687.2215	2852.35	1970.2
905.2517	1688.9488	2813.15	1933.6
905.3932	1690.6754	2788.95	1906.9
905.5347	1692.4012	2763.6	1883.7
905.6761	1694.1263	2736.8	1854.9
905.8176	1695.8506	2720.9	1838.55
905.9591	1697.5742	2701.85	1823.65
906.1005	1699.297	2688.6	1807.25
906.2419	1701.0191	2658.65	1776.9
906.3833	1702.7404	2636.4	1756
906.5246	1704.461	2616.35	1733.15
906.666	1706.1808	2607.35	1723.65
906.8073	1707.8999	2602.65	1720.15
906.9487	1709.6182	2580.45	1695.9
907.09	1711.3358	2563.85	1681.65
907.2313	1713.0527	2552.25	1673.4
907.3725	1714.7688	2547.85	1661.9
907.5138	1716.4841	2530	1646.95
907.655	1718.1987	2533.7	1647.6
907.7962	1719.9126	2526.6	1646.25
907.9374	1721.6257	2501.5	1616.35
908.0786	1723.338	2498.45	1614.9
908.2198	1725.0496	2478.55	1595.55
908.3609	1726.7605	2486.7	1604.55
908.502	1728.4706	2482.75	1599.55
908.6431	1730.18	2472.05	1586.15
908.7842	1731.8886	2462.85	1581.15
908.9253	1733.5964	2463.95	1575.55
909.0664	1735.3036	2447.45	1563.6
909.2074	1737.0099	2443.9	1561.15
909.3484	1738.7156	2429.55	1548.4
909.4894	1740.4204	2418.95	1534.3
909.6304	1742.1246	2413	1531.25
909.7714	1743.8279	2392.3	1512.05
909.9123	1745.5306	2396.2	1513.75
910.0532	1747.2325	2386.7	1507.05
910.1941	1748.9336	2367.85	1484.95
910.335	1750.634	2376.65	1493.1
910.4759	1752.3336	2359.65	1476.85
910.6168	1754.0325	2355.5	1474.85
910.7576	1755.7307	2353.6	1471.8
910.8984	1757.4281	2360	1477.85
911.0392	1759.1247	2342.5	1453.75
911.18	1760.8206	2345.65	1460.05
911.3208	1762.5158	2341.2	1456.55
911.4615	1764.2102	2325.2	1443.3
911.6022	1765.9039	2316.25	1434.1
911.7429	1767.5968	2328.55	1444.75
911.8836	1769.289	2324.7	1442.45
912.0243	1770.9804	2303.75	1422.55
912.1649	1772.6711	2304.95	1422.5
912.3056	1774.361	2303.55	1420.95
912.4462	1776.0502	2300.3	1420.45
912.5868	1777.7386	2297.5	1412.3
912.7274	1779.4263	2291.4	1409.95
912.8679	1781.1132	2277.8	1396.05
913.0084	1782.7994	2284.5	1400.9
913.149	1784.4849	2283.5	1400.85
913.2895	1786.1696	2292	1391.25
913.4299	1787.8535	2271.2	1390.05
913.5704	1789.5367	2267.5	1385.95
913.7108	1791.2192	2272.55	1391.8
913.8513	1792.9009	2274.85	1379.45
913.9917	1794.5818	2250.5	1367.4
914.132	1796.2621	2247.85	1366.9
914.2724	1797.9415	2249.35	1368.45
914.4128	1799.6202	2236.65	1353.45
914.5531	1801.2982	2232.65	1352.05
914.6934	1802.9755	2241.8	1358.65
914.8337	1804.6519	2240.5	1356.9
914.9739	1806.3277	2231.9	1351.9
915.1142	1808.0027	2211.5	1329.9
915.2544	1809.6769	2221.7	1338.6
915.3946	1811.3504	2220.75	1337.1
915.5348	1813.0231	2217.2	1334.45
915.675	1814.6951	2218.45	1338.85
915.8151	1816.3664	2218.9	1334.85
915.9553	1818.0369	2211.95	1330.15
916.0954	1819.7067	2202.45	1323
916.2355	1821.3757	2191.35	1306.65
916.3755	1823.044	2199.75	1318.45
916.5156	1824.7115	2195.45	1312.95
916.6556	1826.3783	2182.6	1301.85
916.7956	1828.0443	2174	1293.8
916.9356	1829.7096	2180.55	1295.3
917.0756	1831.3741	2186.8	1301.55
917.2155	1833.0379	2170.85	1288.55
917.3555	1834.701	2180.2	1296.05
917.4954	1836.3633	2168.5	1284.3
917.6353	1838.0248	2172.8	1287.5
917.7751	1839.6856	2167.75	1286.15
917.915	1841.3457	2158.95	1278.05
918.0548	1843.005	2175.1	1293.15
918.1946	1844.6636	2167.35	1286.3
918.3344	1846.3214	2162.8	1280.7
918.4742	1847.9785	2158.5	1276.7
918.6139	1849.6349	2147.55	1264.7
918.7537	1851.2904	2173.7	1284.2
918.8934	1852.9453	2155.6	1274.35
919.0331	1854.5994	2147.5	1264.15
919.1727	1856.2528	2148.35	1261.6
919.3124	1857.9054	2146.9	1267.5
919.452	1859.5572	2133.85	1252.65
919.5916	1861.2083	2129.75	1246.15
919.7312	1862.8587	2127.3	1245.2
919.8708	1864.5084	2132.9	1249.1
920.0103	1866.1572	2125.85	1246.35
920.1498	1867.8054	2124.2	1242.2
920.2893	1869.4528	2122.3	1241.45
920.4288	1871.0994	2121.8	1238.75
920.5683	1872.7453	2125.05	1242.35
920.7077	1874.3905	2118.2	1220.35
920.8471	1876.0349	2108.1	1225.55
920.9865	1877.6786	2104.9	1220.7
921.1259	1879.3215	2103.1	1221.5
921.2653	1880.9637	2094.4	1211.2
921.4046	1882.6051	2099.5	1218.6
921.5439	1884.2458	2101.4	1217.45
921.6832	1885.8858	2085.8	1205.9
921.8225	1887.525	2080.1	1195.9
921.9617	1889.1634	2082.2	1201.75
922.101	1890.8011	2073.6	1191.75
922.2402	1892.4381	2074.75	1193.05
922.3794	1894.0743	2069.95	1188.6
922.5185	1895.7098	2078.65	1197.05
922.6577	1897.3446	2064.35	1182.1
922.7968	1898.9786	2068.35	1181.95
922.9359	1900.6118	2070.95	1191.1
923.075	1902.2443	2057.4	1173.45
923.214	1903.8761	2058.2	1177.25
923.3531	1905.5071	2044.45	1161.2
923.4921	1907.1374	2050.6	1167.95
923.6311	1908.7669	2046.15	1164.35
923.77	1910.3957	2038.4	1156.1
923.909	1912.0237	2033.3	1149.4
924.0479	1913.651	2033.75	1149.4
924.1868	1915.2776	2023.65	1143.2
924.3257	1916.9034	2019.3	1137.1
924.4646	1918.5285	2007.5	1127.85
924.6034	1920.1528	2018.05	1136.65
924.7422	1921.7764	2019.7	1138.8
924.881	1923.3992	2015.65	1134.65
925.0198	1925.0213	2003.9	1121.8
925.1586	1926.6427	2010.45	1128.7
925.2973	1928.2633	2094.95	1105.05
925.436	1929.8832	1995.8	1111.7
925.5747	1931.5023	1993.9	1112.55
925.7134	1933.1207	1982.5	1101.7
925.852	1934.7383	1983.15	1102.1
925.9906	1936.3552	1974	1091.05
926.1292	1937.9714	1971.8	1089.7
926.2678	1939.5868	1974.75	1093.75
926.4064	1941.2015	1966.75	1085.2
926.5449	1942.8154	1957.95	1078.25
926.6834	1944.4286	1958.8	1077.45
926.8219	1946.041	1981.75	1076.1
926.9604	1947.6528	1961.35	1074.75
927.0988	1949.2637	1944.85	1062.95
927.2372	1950.8739	1935.35	1053.55
927.3756	1952.4834	1941.1	1058.35
927.514	1954.0921	1948.95	1067
927.6523	1955.7001	1941.75	1056.55
927.7907	1957.3074	1934.45	1053.05
927.929	1958.9139	1926	1044.6
928.0673	1960.5197	1939.35	1054.7
928.2055	1962.1247	1923.65	1041.65
928.3438	1963.729	1911	1031.05
928.482	1965.3325	1929.3	1024.9
928.6202	1966.9353	1907.8	1028.7
928.7584	1968.5374	1907.95	1023.2
928.8965	1970.1387	1905.25	1022.25
929.0346	1971.7393	1900	1017.65
929.1727	1973.3392	1902.4	1019.3
929.3108	1974.9383	1892.3	1011.95
929.4489	1976.5366	1892.4	1009.25
929.5869	1978.1342	1898.75	1015.1
929.7249	1979.7311	1888.9	1005.65
929.8629	1981.3273	1882.2	998.55
930.0009	1982.9227	1872.8	991
930.1388	1984.5173	1884.75	1004.1
930.2767	1986.1112	1868.7	986.05
930.4146	1987.7044	1863.6	983
930.5525	1989.2968	1876.5	992.55
930.6904	1990.8885	1869.35	984.45
930.8282	1992.4795	1864.15	981.35
930.966	1994.0697	1861.95	978.35
931.1038	1995.6592	1850.75	970.1
931.2415	1997.2479	1857.2	975.55
931.3793	1998.8359	1848.05	964.7
931.517	2000.4232	1847.85	967.55
931.6547	2002.0097	1846.45	965.6
931.7923	2003.5955	1845.6	964
931.93	2005.1805	1842.45	959.15
932.0676	2006.7648	1844.15	962.25
932.2052	2008.3484	1838.45	954.65
932.3427	2009.9312	1844.25	959.7
932.4803	2011.5133	1822.9	940.8
932.6178	2013.0946	1824.35	943
932.7553	2014.6752	1825.55	944.6
932.8928	2016.2551	1831.8	947.35
933.0302	2017.8342	1824.05	941.1
933.1676	2019.4126	1817.15	936.05
933.305	2020.9902	1814.4	934.05
933.4424	2022.5672	1815.7	932.9
933.5798	2024.1433	1825.2	936.85
933.7171	2025.7188	1806.5	925.8
933.8544	2027.2935	1806.75	922.95
933.9917	2028.8674	1803.6	920.75
934.129	2030.4406	1805.3	921.9
934.2662	2032.0131	1796.55	915.3
934.4034	2033.5849	1795.9	905.8
934.5406	2035.1559	1791.8	912.05
934.6778	2036.7261	1796.6	913.25
934.8149	2038.2957	1785.7	904.15
934.952	2039.8645	1793.6	913.25
935.0891	2041.4325	1794.65	909.55
935.2262	2042.9998	1790.7	908.65
935.3632	2044.5664	1790.75	907.05
935.5002	2046.1323	1779.4	896.65
935.6372	2047.6974	1784.8	903.35
935.7742	2049.2617	1780.3	899.4
935.9111	2050.8254	1800	883.6
936.048	2052.3883	1780.35	895.75
936.1849	2053.9504	1774.85	892.05
936.3218	2055.5118	1763.75	882.3
936.4586	2057.0725	1771.25	885.75
936.5955	2058.6325	1760.75	877.75
936.7323	2060.1917	1760.6	880.1
936.869	2061.7502	1764.25	878.1
937.0058	2063.3079	1751.2	872.05
937.1425	2064.8649	1762.4	877.65
937.2792	2066.4212	1759.65	876.9
937.4159	2067.9767	1757.95	876.9
937.5525	2069.5315	1740.5	860.05
937.6891	2071.0856	1745.9	864.3
937.8257	2072.6389	1739.85	854.85
937.9623	2074.1915	1736.75	855.2
938.0989	2075.7433	1734.55	850.6
938.2354	2077.2945	1723.3	843.05
938.3719	2078.8448	1720.8	840.4
938.5084	2080.3945	1724.25	844.4
938.6448	2081.9434	1721.35	840.45
938.7812	2083.4916	1714.5	832.9
938.9176	2085.039	1715.3	831.1
939.054	2086.5857	1717.85	834.9
939.1903	2088.1317	1720.3	838.1
939.3267	2089.677	1722.35	839.55
939.463	2091.2215	1708.75	830.2
939.5992	2092.7652	1701.45	817.4
939.7355	2094.3083	1702.85	820.75
939.8717	2095.8506	1708.55	827
940.0079	2097.3921	1710.5	829.8
940.1441	2098.933	1710.4	829.8
940.2802	2100.4731	1703.15	820
940.4163	2102.0124	1715	815.55
940.5524	2103.5511	1706.85	825
940.6885	2105.089	1688.95	804.9
940.8245	2106.6261	1688.95	808.3
940.9606	2108.1626	1691.2	806.3
941.0965	2109.6983	1709.2	795.7
941.2325	2111.2332	1690.05	806.05
941.3684	2112.7675	1687.5	804.65
941.5044	2114.301	1682.6	799.95
941.6403	2115.8337	1684.3	802
941.7761	2117.3657	1689.55	807.45
941.912	2118.897	1685.65	804.7
942.0478	2120.4276	1683.45	795.55
942.1835	2121.9575	1672.4	790.7
942.3193	2123.4866	1693.8	796.75
942.455	2125.0149	1673.3	788.1
942.5907	2126.5426	1661.75	778.9
942.7264	2128.0695	1669.95	782.75
942.8621	2129.5956	1663.3	782.2
942.9977	2131.1211	1668	780.05
943.1333	2132.6458	1660.7	778.85
943.2689	2134.1698	1659.6	776.2
943.4044	2135.693	1651.75	765.4
943.54	2137.2155	1652.95	770.6
943.6755	2138.7373	1660.65	778.6
943.8109	2140.2584	1650.7	769.35
943.9464	2141.7787	1657.6	768.4
944.0818	2143.2983	1650.7	769.5
944.2172	2144.8171	1639	756.2
944.3526	2146.3353	1641.85	757.6
944.4879	2147.8527	1637.85	758.8
944.6232	2149.3693	1632.6	751.1
944.7585	2150.8853	1625.8	742.1
944.8938	2152.4005	1628.95	748.3
945.029	2153.9149	1632.65	747.95
945.1642	2155.4287	1624.75	742.9
945.2994	2156.9417	1622.55	739.8
945.4346	2158.454	1624.5	740.35
945.5697	2159.9655	1618.8	733.75
945.7048	2161.4764	1627.55	745.3
945.8399	2162.9865	1628.75	747
945.9749	2164.4958	1616.35	733.15
946.1099	2166.0045	1620.4	734.8
946.2449	2167.5124	1612.25	729.15
946.3799	2169.0195	1612.2	729.55
946.5148	2170.526	1609.3	724.5
946.6498	2172.0317	1613.65	729.55
946.7846	2173.5367	1606.55	723.6
946.9195	2175.0409	1606.35	725
947.0543	2176.5445	1603.3	723.7
947.1891	2178.0473	1607.05	724.35
947.3239	2179.5494	1592.5	706.55
947.4587	2181.0507	1592.4	710.3
947.5934	2182.5513	1600.8	720.4
947.7281	2184.0512	1590.85	707.05
947.8628	2185.5504	1592.2	709.45
947.9974	2187.0488	1588.6	704.75
948.132	2188.5465	1595.05	713.2
948.2666	2190.0435	1586.15	704
948.4012	2191.5397	1577.75	696.45
948.5357	2193.0353	1580.45	699.75
948.6702	2194.5301	1580.85	697
948.8047	2196.0241	1585.2	701.75
948.9392	2197.5175	1585.4	704.9
949.0736	2199.0101	1583.65	699.85
949.208	2200.502	1567.7	686.9
949.3424	2201.9931	1573.9	691.95
949.4767	2203.4835	1568.55	684.1
949.611	2204.9733	1566.85	676.55
949.7453	2206.4622	1562.45	680.55
949.8796	2207.9505	1560.35	673.1
950.0138	2209.438	1559.5	678.7
950.148	2210.9248	1558.7	676.95
950.2822	2212.4109	1555.75	674.7
950.4164	2213.8962	1554	670.25
950.5505	2215.3809	1550.55	666.35
950.6846	2216.8648	1552.25	669.85
950.8186	2218.3479	1549.05	664.15
950.9527	2219.8304	1544.85	659.2
951.0867	2221.3121	1547.9	663.25
951.2207	2222.7931	1536.3	654.6
951.3546	2224.2733	1538.8	656.35
951.4886	2225.7529	1530.3	648.1
951.6225	2227.2317	1532.05	647.05
951.7563	2228.7098	1535.25	653.45
951.8902	2230.1872	1531.8	647.35
952.024	2231.6638	1524.8	644.15
952.1578	2233.1397	1527.95	639.6
952.2916	2234.6149	1524.05	641.45
952.4253	2236.0894	1520.3	637.65
952.559	2237.5632	1526.55	633.7
952.6927	2239.0362	1518.15	634.15
952.8263	2240.5085	1507.05	624.7
952.9599	2241.9801	1516.7	633.2
953.0935	2243.4509	1515.15	634.45
953.2271	2244.921	1510.4	627.1
953.3606	2246.3904	1509.25	626
953.4941	2247.8591	1503.35	621.65
953.6276	2249.3271	1507.3	626.6
953.7611	2250.7943	1507	625.05
953.8945	2252.2608	1497.65	615.35
954.0279	2253.7266	1499.65	616.45
954.1612	2255.1917	1493.9	613.15
954.2946	2256.656	1492.6	609.7
954.4279	2258.1197	1490.65	609.7
954.5612	2259.5826	1495.05	609.95
954.6944	2261.0447	1491.95	606.95
954.8276	2262.5062	1488	603.9
954.9608	2263.9669	1485.85	602
955.094	2265.4269	1488.65	609.9
955.2271	2266.8862	1484.4	602.65
955.3602	2268.3448	1482.45	600
955.4933	2269.8026	1485	602.05
955.6264	2271.2598	1476.95	594.9
955.7594	2272.7162	1473.1	592.8
955.8924	2274.1719	1483	600.55
956.0253	2275.6268	1471.65	588
956.1583	2277.0811	1474.05	592.35
956.2912	2278.5346	1471.7	590.5
956.4241	2279.9874	1465.05	583.05
956.5569	2281.4395	1473.8	592.7
956.6897	2282.8908	1465.7	578.9
956.8225	2284.3414	1467.7	585.75
956.9553	2285.7914	1458.75	576.05
957.088	2287.2406	1468.1	582.95
957.2207	2288.689	1469.9	589.2
957.3534	2290.1368	1457.15	575.3
957.486	2291.5838	1454.05	571.55
957.6186	2293.0302	1459	577.15
957.7512	2294.4758	1456.7	575.8
957.8838	2295.9206	1458.2	576.65
958.0163	2297.3648	1451.65	569.65
958.1488	2298.8082	1455.9	574.25
958.2813	2300.251	1456.3	573.5
958.4137	2301.693	1451.6	566.6
958.5461	2303.1343	1456	573.2
958.6785	2304.5748	1445.4	561.65
958.8108	2306.0147	1447.9	567
958.9432	2307.4538	1448.35	561.5
959.0754	2308.8922	1441.35	560.4
959.2077	2310.3299	1444.95	564.2
959.3399	2311.7669	1445.1	561.05
959.4721	2313.2031	1438.65	554.75
959.6043	2314.6387	1437.2	554.75
959.7365	2316.0735	1433.75	550.5
959.8686	2317.5076	1434.85	553.15
960.0006	2318.941	1428.6	545.65
960.1327	2320.3737	1431.35	549.4
960.2647	2321.8056	1428.7	545.15
960.3967	2323.2369	1432.7	548.6
960.5287	2324.6674	1426.85	543.2
960.6606	2326.0972	1426.25	542.65
960.7925	2327.5263	1422.95	542.85
960.9244	2328.9547	1423.5	540.45
961.0562	2330.3823	1426.7	545.6
961.1881	2331.8092	1426.45	542.45
961.3198	2333.2355	1424.8	541.5
961.4516	2334.661	1415.15	532.9
961.5833	2336.0858	1417.9	532.3
961.715	2337.5098	1412.35	529.85
961.8467	2338.9332	1420.95	537.85
961.9783	2340.3558	1413.65	525.9
962.1099	2341.7778	1406.55	524.45
962.2415	2343.199	1403.75	518.35
962.373	2344.6195	1408.55	526.85
962.5045	2346.0393	1400.4	519.5
962.636	2347.4583	1404.25	522.25
962.7675	2348.8767	1399.5	516.55
962.8989	2350.2943	1406.8	523.7
963.0303	2351.7113	1401.05	518.6
963.1617	2353.1275	1396.15	513.85
963.293	2354.543	1407	517.1
963.4243	2355.9578	1398.65	515.8
963.5556	2357.3718	1392.7	512.55
963.6868	2358.7852	1392.15	506.65
963.818	2360.1978	1394.75	511.4
963.9492	2361.6098	1390.45	508.25
964.0803	2363.021	1395.7	509.9
964.2114	2364.4315	1388.35	507.05
964.3425	2365.8413	1384.05	499.8
964.4736	2367.2504	1391.2	510.45
964.6046	2368.6587	1388.15	505.75
964.7356	2370.0664	1375.3	492.85
964.8666	2371.4733	1384.8	502.85
964.9975	2372.8795	1374.7	492.15
965.1284	2374.285	1378.9	496.35
965.2593	2375.6899	1373.05	490.45
965.3901	2377.0939	1374.45	491.1
965.5209	2378.4973	1374.05	493
965.6517	2379.9	1369.45	485.35
965.7825	2381.3019	1371.1	489.8
965.9132	2382.7032	1370.25	488.25
966.0439	2384.1037	1364.85	484.1
966.1745	2385.5035	1370.3	488.05
966.3051	2386.9027	1363.95	481.55
966.4357	2388.3011	1370.8	484.75
966.5663	2389.6987	1360.65	478.35
966.6968	2391.0957	1355.05	472.8
966.8273	2392.492	1344.45	463.8
966.9578	2393.8876	1353.5	470.7
967.0882	2395.2824	1354.5	474.25
967.2186	2396.6765	1351.55	470.2
967.349	2398.07	1351.55	469.05
967.4793	2399.4627	1350.45	467.95
967.6097	2400.8547	1346.55	464.4
967.7399	2402.246	1348.3	460.15
967.8702	2403.6366	1340.15	458.85
968.0004	2405.0265	1341	459.45
968.1306	2406.4156	1348.55	461.75
968.2607	2407.8041	1340.55	456.6
968.3909	2409.1918	1337.95	453.9
968.521	2410.5789	1336.75	455.6
968.651	2411.9652	1341.95	456.3
968.781	2413.3508	1334.3	452
968.911	2414.7358	1333.6	450.2
969.041	2416.12	1337.4	456.55
969.1709	2417.5035	1328.5	447.15
969.3008	2418.8863	1329.2	446.15
969.4307	2420.2684	1324.55	442.8
969.5606	2421.6497	1325.45	442.05
969.6904	2423.0304	1325.7	445
969.8201	2424.4104	1325.7	442.25
969.9499	2425.7896	1329.5	439.95
970.0796	2427.1682	1317.65	436.15
970.2093	2428.546	1321.55	441.2
970.3389	2429.9232	1316.95	433.35
970.4685	2431.2996	1324.55	444.2
970.5981	2432.6753	1325.4	444.55
970.7277	2434.0503	1318.15	434.95
970.8572	2435.4246	1311.45	429.6
970.9867	2436.7982	1319.95	436.65
971.1161	2438.1711	1314.95	434.1
971.2456	2439.5433	1311.95	429.35
971.375	2440.9148	1309.55	422.3
971.5043	2442.2856	1306.5	426
971.6336	2443.6557	1311.35	429.35
971.7629	2445.025	1302.1	419.5
971.8922	2446.3937	1305.05	422.8
972.0214	2447.7617	1304.55	422
972.1506	2449.1289	1306.45	425.4
972.2798	2450.4955	1300.15	414.75
972.4089	2451.8613	1300.8	419.8
972.538	2453.2265	1295.6	412.7
972.6671	2454.5909	1300.45	415.85
972.7961	2455.9546	1297.25	417.55
972.9251	2457.3177	1300.9	417.75
973.0541	2458.68	1298.3	415.45
973.1831	2460.0416	1302.15	419.95
973.312	2461.4025	1290.8	406.8
973.4408	2462.7627	1303.2	410.35
973.5697	2464.1222	1286.1	405
973.6985	2465.4811	1297.25	414.2
973.8273	2466.8392	1293.55	409.75
973.956	2468.1966	1292.2	406.45
974.0847	2469.5533	1292.85	409.85
974.2134	2470.9093	1289.3	407.05
974.3421	2472.2645	1291.4	408.05
974.4707	2473.6191	1287.4	404.05
974.5993	2474.973	1286.35	403.8
974.7278	2476.3262	1290.3	405.95
974.8563	2477.6787	1285.45	404.6
974.9848	2479.0305	1282.65	401.4
975.1132	2480.3816	1279.25	394.85
975.2417	2481.7319	1286.35	405
975.37	2483.0816	1284.1	400.75
975.4984	2484.4306	1283.35	399.05
975.6267	2485.7789	1275.75	395.45
975.755	2487.1264	1276.5	393.35
975.8833	2488.4733	1276	392.65
976.0115	2489.8195	1283.45	382.65
976.1397	2491.165	1281.3	394.25
976.2678	2492.5097	1271.25	385.45
976.3959	2493.8538	1270.2	388.35
976.524	2495.1972	1268.8	385.5
976.6521	2496.5398	1267.95	384.95
976.7801	2497.8818	1270.65	388.1
976.9081	2499.2231	1268.25	385.65
977.036	2500.5637	1270.25	386.85
977.164	2501.9035	1269.85	387.95
977.2918	2503.2427	1267.65	384
977.4197	2504.5812	1265.35	382.7
977.5475	2505.919	1265.55	381.1
977.6753	2507.256	1264.7	380.45
977.8031	2508.5924	1265.95	383.65
977.9308	2509.9281	1264.75	377.55
978.0585	2511.2631	1261.15	379.25
978.1861	2512.5974	1257.1	376.7
978.3137	2513.9309	1256.65	375.4
978.4413	2515.2638	1280.45	368.15
978.5689	2516.596	1251.8	370.55
978.6964	2517.9275	1251.95	367.75
978.8239	2519.2583	1253.95	369.75
978.9513	2520.5884	1250.15	366.6
979.0788	2521.9178	1250	367.6
979.2062	2523.2465	1249.15	369
979.3335	2524.5745	1249.2	367.5
979.4608	2525.9018	1249.2	366.95
979.5881	2527.2284	1247.4	368.9
979.7154	2528.5543	1244.55	363.7
979.8426	2529.8796	1245	364.05
979.9698	2531.2041	1249.15	366.4
980.0969	2532.5279	1247.3	366.55
980.224	2533.851	1243.95	360.4
980.3511	2535.1735	1238.85	358.3
980.4781	2536.4952	1242.15	360.3
980.6052	2537.8163	1244.9	360.25
980.7321	2539.1366	1239.65	359.25
980.8591	2540.4562	1239.85	357.4
980.986	2541.7752	1237.95	356.2
981.1129	2543.0935	1240.4	358.45
981.2397	2544.411	1235.05	353.45
981.3665	2545.7279	1229.6	349.4
981.4933	2547.0441	1238.95	357.3
981.62	2548.3596	1240.2	355.55
981.7467	2549.6744	1240.7	359.15
981.8734	2550.9885	1244.1	354.15
982.0001	2552.3019	1225.55	345.7
982.1267	2553.6146	1235.6	352.35
982.2532	2554.9266	1235.45	353.35
982.3798	2556.2379	1231.45	345.8
982.5063	2557.5485	1235.95	355.65
982.6327	2558.8585	1241.7	354.4
982.7592	2560.1677	1238.3	353
982.8856	2561.4762	1228.7	346.75
983.0119	2562.7841	1236.55	352.7
983.1383	2564.0913	1227.9	347.6
983.2646	2565.3977	1228.8	346.6
983.3908	2566.7035	1227.6	345.65
983.517	2568.0086	1227	343.4
983.6432	2569.313	1228.85	345.5
983.7694	2570.6167	1223.9	337.15
983.8955	2571.9197	1222	340.75
984.0216	2573.222	1226.2	341.4
984.1476	2574.5236	1226.2	343.25
984.2737	2575.8246	1228.6	344.8
984.3996	2577.1248	1225.5	341.15
984.5256	2578.4244	1227.3	346.1
984.6515	2579.7232	1225.1	343.85
984.7774	2581.0214	1253.85	340.75
984.9032	2582.3189	1221.2	339.1
985.029	2583.6157	1227.95	343.1
985.1548	2584.9118	1223.5	341.75
985.2806	2586.2072	1223.9	343.05
985.4063	2587.5019	1219.4	338.9
985.5319	2588.7959	1230.75	347.45
985.6576	2590.0893	1225.45	342
985.7832	2591.3819	1221.4	340.7
985.9087	2592.6739	1220.55	340.05
986.0343	2593.9652	1220.8	336.8
986.1597	2595.2557	1223.25	342.85
986.2852	2596.5456	1226.95	341.8
986.4106	2597.8348	1224	342.8
986.536	2599.1234	1224.85	343.05
986.6614	2600.4112	1225.65	343.75
986.7867	2601.6983	1229.7	344.6
986.912	2602.9848	1225.5	342.95
987.0372	2604.2705	1234	344.95
987.1624	2605.5556	1219.75	335.25
987.2876	2606.84	1223.15	340.35
987.4128	2608.1237	1223.05	340.15
987.5379	2609.4067	1219.55	337.25
987.6629	2610.689	1225.5	333.3
987.788	2611.9707	1220.45	335.15
987.913	2613.2516	1221.7	337.5
988.0379	2614.5319	1211.65	328.95
988.1629	2615.8115	1205.9	322.35
988.2878	2617.0903	1208.35	325.2
988.4126	2618.3685	1204.55	322.3
988.5375	2619.6461	1202.7	320.6
988.6622	2620.9229	1209.55	327.05
988.787	2622.199	1209.65	327.1
988.9117	2623.4745	1207.95	325.3
989.0364	2624.7493	1206.9	325.35
989.161	2626.0234	1199.35	318.4
989.2857	2627.2968	1204.05	322.45
989.4102	2628.5695	1204.5	319.1
989.5348	2629.8415	1204.85	323.2
989.6593	2631.1128	1204.35	321.3
989.7837	2632.3835	1198.85	315.4
989.9082	2633.6535	1194.5	313
990.0326	2634.9228	1204.65	324.35
990.1569	2636.1914	1201.35	318.3
990.2812	2637.4593	1202.4	320
990.4055	2638.7265	1194.05	311.05
990.5298	2639.9931	1201.4	318.05
990.654	2641.259	1200.45	317.8
990.7782	2642.5242	1192.45	309.3
990.9023	2643.7887	1186.6	304.85
991.0264	2645.0525	1191.45	310.55
991.1505	2646.3156	1189.65	305.1
991.2745	2647.5781	1189.7	309.55
991.3985	2648.8398	1185.95	304.6
991.5225	2650.1009	1227.9	311.35
991.6464	2651.3613	1188.25	308.7
991.7703	2652.6211	1192.2	308.75
991.8942	2653.8801	1184.15	303.25
992.018	2655.1385	1182.8	296.05
992.1418	2656.3961	1185.4	302.4
992.2655	2657.6531	1186.6	304.7
992.3892	2658.9094	1186.6	304.15
992.5129	2660.1651	1187.7	308.5
992.6366	2661.42	1187.5	305.5
992.7602	2662.6743	1191.4	307.6
992.8837	2663.9279	1188	306.95
993.0073	2665.1808	1189.7	307
993.1307	2666.433	1200.05	319.05
993.2542	2667.6846	1189.7	306.9
993.3776	2668.9354	1189.7	304.9
993.501	2670.1856	1193.55	312.35
993.6244	2671.4351	1195.65	313.55
993.7477	2672.6839	1198	313.25
993.8709	2673.9321	1197.1	315.6
993.9942	2675.1795	1196.5	313.25
994.1174	2676.4263	1199	317.8
994.2405	2677.6724	1201.1	317.4
994.3637	2678.9179	1200.5	317.3
994.4868	2680.1626	1197.8	317.4
994.6098	2681.4067	1204.4	323.3
994.7328	2682.6501	1202.85	322.05
994.8558	2683.8928	1197.7	314.35
994.9788	2685.1348	1189.25	310
995.1017	2686.3761	1193.7	311.5
995.2245	2687.6168	1192.05	309.75
995.3474	2688.8568	1189.35	309.1
995.4702	2690.0961	1188.9	305.55
995.5929	2691.3348	1186.4	306.9
995.7156	2692.5727	1179.95	299.25
995.8383	2693.81	1183.35	303.2
995.961	2695.0466	1176.9	296.5
996.0836	2696.2826	1177.65	294.3
996.2062	2697.5178	1192.7	306.3
996.3287	2698.7524	1184.5	303.3
996.4512	2699.9863	1186.75	301.4
996.5737	2701.2195	1186.4	306.7
996.6961	2702.452	1185.7	302.25
996.8185	2703.6839	1186.55	305.7
996.9408	2704.9151	1193.85	313.95
997.0631	2706.1456	1193.25	312.05
997.1854	2707.3755	1195.2	313.9
997.3077	2708.6046	1206.65	323.15
997.4299	2709.8331	1202	318.5
997.552	2711.0609	1204.75	322.25
997.6742	2712.2881	1211.15	331.25
997.7963	2713.5145	1211.9	328.7
997.9183	2714.7403	1219.2	338.5
998.0403	2715.9654	1223.7	342.9
998.1623	2717.1899	1247.65	353.6
998.2842	2718.4136	1232.95	350.65
998.4062	2719.6367	1238.75	357.75
998.528	2720.8591	1255.8	366.9
998.6498	2722.0809	1251.5	368.05
998.7716	2723.3019	1262.2	376.95
998.8934	2724.5223	1268.35	385.8
999.0151	2725.7421	1263.3	381.05
999.1368	2726.9611	1264.75	379.95
999.2584	2728.1795	1267.95	380.3
999.38	2729.3972	1253.35	371.9
999.5016	2730.6142	1263.7	368.3
999.6231	2731.8306	1243	359.15
999.7446	2733.0462	1236.9	354.8
999.8661	2734.2612	1234	345.6
999.9875	2735.4756	1226.65	345.35
1000.1089	2736.6892	1211.45	327.7
1000.2302	2737.9022	1199.4	319.5
1000.3515	2739.1145	1200.8	318.55
1000.4728	2740.3262	1205.7	317.55
1000.594	2741.5372	1189.25	306.9
1000.7152	2742.7475	1182.1	299
1000.8363	2743.9571	1173.1	287.65
1000.9575	2745.1661	1173.25	287.4
1001.0785	2746.3744	1171.4	289
1001.1996	2747.582	1164.2	283.35
1001.3206	2748.7889	1156.3	270.1
1001.4415	2749.9952	1156.05	274.85
1001.5625	2751.2008	1152.85	270.65
1001.6833	2752.4057	1152.55	268.6
1001.8042	2753.61	1150.6	268.8
1001.925	2754.8136	1152.5	267.35
1002.0458	2756.0165	1146.35	265.5
1002.1665	2757.2188	1144.7	265.95
1002.2872	2758.4204	1146.95	265.85
1002.4078	2759.6213	1151.5	266.8
1002.5285	2760.8215	1157.9	268.7
1002.649	2762.0211	1148.6	265.95
1002.7696	2763.22	1150.9	266.95
1002.8901	2764.4182	1145.8	262.3
1003.0106	2765.6158	1143.1	261.9
1003.131	2766.8127	1143.5	261.8
1003.2514	2768.009	1134.75	253.5
1003.3717	2769.2045	1137.45	255
1003.492	2770.3994	1140.1	255.9
1003.6123	2771.5936	1142.2	258.65
1003.7325	2772.7872	1133.65	252.95
1003.8527	2773.9801	1131.5	247.75
1003.9729	2775.1723	1148.55	250.65
1004.093	2776.3639	1132.05	251.15
1004.2131	2777.5548	1133.8	249.3
1004.3331	2778.745	1132.55	247.65
1004.4531	2779.9346	1128.8	246.35
1004.5731	2781.1235	1139.15	254.1
1004.693	2782.3117	1131.35	249.5
1004.8129	2783.4992	1132.95	252.05
1004.9328	2784.6861	1132.65	251.5
1005.0526	2785.8723	1139.75	257.2
1005.1723	2787.0579	1135.45	252.15
1005.2921	2788.2428	1137	256.1
1005.4118	2789.427	1140.95	257.7
1005.5314	2790.6106	1144.75	263.7
1005.651	2791.7935	1150.05	268.4
1005.7706	2792.9757	1146.75	265.75
1005.8902	2794.1573	1160.35	275.55
1006.0097	2795.3382	1154.25	271.7
1006.1291	2796.5184	1161.55	281.75
1006.2485	2797.698	1168.35	283.95
1006.3679	2798.8769	1171	288.95
1006.4873	2800.0551	1186.35	303.35
1006.6066	2801.2327	1188.2	303.3
1006.7258	2802.4096	1189.95	308.1
1006.8451	2803.5859	1197.25	315
1006.9642	2804.7615	1205.7	321.35
1007.0834	2805.9364	1218.35	335.75
1007.2025	2807.1106	1228.95	348.1
1007.3216	2808.2842	1244.7	360.35
1007.4406	2809.4572	1250	366.65
1007.5596	2810.6294	1274.65	391.1
1007.6785	2811.801	1280.2	398.95
1007.7975	2812.972	1305.2	423.25
1007.9163	2814.1423	1328.6	444.85
1008.0352	2815.3119	1347.75	466
1008.154	2816.4808	1368.3	486.85
1008.2727	2817.6491	1409.25	527.6
1008.3914	2818.8167	1428.25	547.55
1008.5101	2819.9837	1455.15	568.8
1008.6288	2821.15	1476.6	594.45
1008.7474	2822.3157	1512.25	630.1
1008.8659	2823.4807	1555.25	670.85
1008.9844	2824.645	1575.3	692.8
1009.1029	2825.8086	1605.05	724.15
1009.2214	2826.9716	1636.1	754.4
1009.3398	2828.134	1670.15	788.35
1009.4581	2829.2957	1695.45	812.35
1009.5764	2830.4567	1708.3	829.4
1009.6947	2831.617	1712.95	831.5
1009.813	2832.7767	1731.1	850.75
1009.9312	2833.9358	1726.25	844
1010.0493	2835.0941	1732.9	851.9
1010.1675	2836.2519	1717.65	835.75
1010.2855	2837.4089	1702.45	818.45
1010.4036	2838.5653	1694.3	810.35
1010.5216	2839.7211	1684.95	804
1010.6396	2840.8761	1681.05	798.05
1010.7575	2842.0306	1688.9	807.8
1010.8754	2843.1843	1696.75	815.95
1010.9932	2844.3374	1712.5	831.3
1011.111	2845.4899	1740.4	857.85
1011.2288	2846.6417	1753.75	870.5
1011.3465	2847.7928	1786.15	904.45
1011.4642	2848.9433	1816.5	936.35
1011.5818	2850.0931	1853.25	973.6
1011.6995	2851.2422	1887.85	1004.65
1011.817	2852.3907	1910.65	1026.5
1011.9345	2853.5385	1939.95	1055.85
1012.052	2854.6857	1980.15	1071.6
1012.1695	2855.8323	1980.75	1098.25
1012.2869	2856.9781	2008.45	1126.65
1012.4042	2858.1233	2038.05	1153.6
1012.5216	2859.2679	2067.6	1187.7
1012.6389	2860.4118	2090.4	1207
1012.7561	2861.555	2113.9	1227.7
1012.8733	2862.6976	2138.55	1255.65
1012.9905	2863.8395	2149.1	1267.45
1013.1076	2864.9808	2170.75	1289.6
1013.2247	2866.1214	2172.3	1292.25
1013.3417	2867.2614	2197.9	1314.75
1013.4587	2868.4007	2206.8	1323.35
1013.5757	2869.5393	2215.85	1332.35
1013.6926	2870.6773	2226.8	1341.4
1013.8095	2871.8146	2229.8	1343.25
1013.9263	2872.9513	2230.95	1346.1
1014.0431	2874.0874	2227.1	1346.8
1014.1599	2875.2227	2211.1	1327.3
1014.2766	2876.3574	2197.65	1314
1014.3933	2877.4915	2192.1	1311.95
1014.51	2878.6249	2181.35	1300.65
1014.6266	2879.7577	2169.5	1287.25
1014.7431	2880.8898	2167.75	1273.35
1014.8596	2882.0212	2154.5	1273.3
1014.9761	2883.152	2150.35	1268.65
1015.0925	2884.2821	2144.9	1263.4
1015.2089	2885.4116	2140.7	1259.3
1015.3253	2886.5405	2138.4	1256
1015.4416	2887.6686	2151.15	1264.9
1015.5579	2888.7962	2155.8	1276.3
1015.6741	2889.923	2155.25	1272.65
1015.7903	2891.0493	2160.6	1281.65
1015.9065	2892.1748	2170.7	1289.45
1016.0226	2893.2997	2175	1293.1
1016.1387	2894.424	2180.75	1301.15
1016.2547	2895.5476	2186.7	1304.75
1016.3707	2896.6706	2196.65	1316.35
1016.4866	2897.7929	2206.5	1323.5
1016.6025	2898.9145	2220.6	1337.2
1016.7184	2900.0355	2225.5	1343.8
1016.8342	2901.1559	2249.25	1366.6
1016.95	2902.2756	2260.8	1379.95
1017.0658	2903.3946	2276.8	1393.7
1017.1815	2904.513	2288.9	1403.55
1017.2971	2905.6308	2294.8	1414.2
1017.4127	2906.7479	2304.75	1420.55
1017.5283	2907.8643	2319.1	1437.45
1017.6439	2908.9801	2328.3	1446.3
1017.7594	2910.0953	2328.15	1443.8
1017.8748	2911.2098	2329.2	1444.15
1017.9902	2912.3236	2328.4	1438.5
1018.1056	2913.4368	2317.15	1432.7
1018.2209	2914.5494	2308.9	1427.25
1018.3362	2915.6613	2297.7	1410.25
1018.4515	2916.7725	2276.9	1393.3
1018.5667	2917.8831	2266.85	1382.4
1018.6819	2918.9931	2245.1	1361.55
1018.797	2920.1024	2229.45	1347.55
1018.9121	2921.211	2216.6	1335.15
1019.0271	2922.319	2209.15	1328.65
1019.1421	2923.4264	2211.95	1330.55
1019.2571	2924.5331	2185.85	1303.45
1019.372	2925.6391	2188.7	1308.35
1019.4869	2926.7445	2186.55	1305.15
1019.6017	2927.8493	2197.5	1313.95
1019.7165	2928.9534	2195.05	1313.15
1019.8313	2930.0569	2200.95	1315
1019.946	2931.1597	2195.35	1314.4
1020.0606	2932.2619	2210.55	1325.9
1020.1753	2933.3634	2209.35	1326.75
1020.2899	2934.4643	2220.45	1332.35
1020.4044	2935.5645	2222	1335.2
1020.5189	2936.6641	2207.5	1322.2
1020.6334	2937.763	2188.75	1306.75
1020.7478	2938.8613	2175.15	1293.75
1020.8622	2939.959	2163.45	1275.7
1020.9765	2941.056	2120.5	1238.5
1021.0908	2942.1523	2077.75	1195
1021.2051	2943.248	2030.65	1147.1
1021.3193	2944.3431	2000.75	1118.75
1021.4334	2945.4375	1946.65	1064.4
1021.5476	2946.5313	1895.65	1016.6
1021.6617	2947.6244	1845.2	962.75
1021.7757	2948.7169	1795.85	913.8
1021.8897	2949.8087	1740.25	856.8
1022.0037	2950.8999	1705.9	824.05
1022.1176	2951.9904	1658.45	776.45
1022.2315	2953.0803	1621.35	738.45
1022.3453	2954.1696	1591	709.05
1022.4591	2955.2582	1565.4	683.15
1022.5728	2956.3462	1539.25	657.2
1022.6865	2957.4335	1533.85	650.65
1022.8002	2958.5202	1511.2	626.85
1022.9138	2959.6062	1498.55	617.5
1023.0274	2960.6916	1483.5	602.2
1023.141	2961.7764	1475.55	594.1
1023.2545	2962.8605	1467.1	585
1023.3679	2963.9439	1462.1	579.95
1023.4813	2965.0267	1454.75	570.25
1023.5947	2966.1089	1474.65	569.5
1023.708	2967.1905	1450.9	568.05
1023.8213	2968.2714	1446.6	562.8
1023.9346	2969.3516	1447.35	563.45
1024.0478	2970.4312	1464.15	576.6
1024.1609	2971.5102	1455.3	574.2
1024.274	2972.5885	1456.25	575.9
1024.3871	2973.6662	1461.9	574.7
1024.5002	2974.7432	1455.15	574.4
1024.6132	2975.8196	1454.55	571.85
1024.7261	2976.8954	1452.65	570
1024.839	2977.9705	1452.6	569.75
1024.9519	2979.045	1448.35	566.4
1025.0647	2980.1188	1441.45	560.75
1025.1775	2981.192	1426.1	545.7
1025.2902	2982.2645	1419.35	535.8
1025.4029	2983.3364	1408.25	525.45
1025.5156	2984.4077	1398.05	515.05
1025.6282	2985.4783	1389.2	500.1
1025.7407	2986.5483	1368.6	486.05
1025.8532	2987.6177	1350.5	467.65
1025.9657	2988.6864	1333.15	450.75
1026.0782	2989.7545	1314.7	429.85
1026.1906	2990.8219	1298.35	417
1026.3029	2991.8887	1281.25	399.2
1026.4152	2992.9548	1263.45	380.3
1026.5275	2994.0204	1243.85	363.5
1026.6397	2995.0852	1229.5	348.05
1026.7519	2996.1495	1215.4	332.4
1026.864	2997.2131	1203.35	321.8
1026.9761	2998.276	1185.2	303.55
1027.0882	2999.3383	1178.25	296.25
1027.2002	3000.4	1164.75	282.9
1027.3122	3001.4611	1154.45	270.6
1027.4241	3002.5215	1146.9	263.65
1027.536	3003.5812	1136.3	255.45
1027.6478	3004.6404	1136.05	252.7
1027.7596	3005.6989	1131.65	249.3
1027.8714	3006.7567	1120.2	236.5
1027.9831	3007.8139	1146.35	237.7
1028.0947	3008.8705	1109.5	227.1
1028.2064	3009.9264	1120.85	221.35
1028.3179	3010.9818	1099.2	218.85
1028.4295	3012.0364	1099.1	217.25
1028.541	3013.0905	1095.6	213.45
1028.6524	3014.1439	1091.75	210.15
1028.7638	3015.1966	1088.85	208.5
1028.8752	3016.2487	1087.2	205.3
1028.9865	3017.3002	1091.05	202.85
1029.0978	3018.3511	1083.7	203.45
1029.209	3019.4013	1084.25	202.8
1029.3202	3020.4509	1078.4	197.9
1029.4314	3021.4998	1076.55	194.85
1029.5425	3022.5481	1082.85	201.15
1029.6535	3023.5958	1072.2	188.75
1029.7645	3024.6428	1081.2	198.35
1029.8755	3025.6892	1075.35	194.1
1029.9864	3026.735	1077.7	195.5
1030.0973	3027.7802	1073.35	190.3
1030.2082	3028.8247	1072.3	191.65
1030.319	3029.8685	1079.2	195.6
1030.4297	3030.9118	1076.65	195.65
1030.5404	3031.9544	1075.8	195.5
1030.6511	3032.9963	1083.15	201.1
1030.7617	3034.0376	1075.95	195.1
1030.8723	3035.0783	1084.2	200.6
1030.9829	3036.1184	1081.2	198.25
1031.0934	3037.1578	1077.9	197.75
1031.2038	3038.1966	1080.15	196.05
1031.3142	3039.2348	1081.9	201.5
1031.4246	3040.2723	1090.2	200.1
1031.5349	3041.3092	1079.35	198.3
1031.6452	3042.3455	1084.8	204.25
1031.7554	3043.3811	1083.65	201.8
1031.8656	3044.4161	1086.35	204.55
1031.9758	3045.4505	1083.55	203
1032.0859	3046.4842	1080.2	198.05
1032.1959	3047.5173	1080.15	198.75
1032.3059	3048.5498	1080.75	199
1032.4159	3049.5816	1080.45	199.2
1032.5258	3050.6128	1078.5	197.45
1032.6357	3051.6434	1079	196.7
1032.7455	3052.6734	1076.7	193.7
1032.8553	3053.7027	1069.95	188.8
1032.9651	3054.7314	1071.3	190.75
1033.0748	3055.7594	1069.35	186.85
1033.1845	3056.7868	1069.1	187.15
1033.2941	3057.8136	1066.1	184.65
1033.4037	3058.8398	1067.35	187.35
1033.5132	3059.8653	1065.35	182.45
1033.6227	3060.8902	1065.95	186.55
1033.7321	3061.9145	1065.3	182.8
1033.8415	3062.9381	1064	181.55
1033.9509	3063.9612	1073	174.95
1034.0602	3064.9835	1062.15	181.15
1034.1694	3066.0053	1058.8	175.95
1034.2787	3067.0264	1055.15	172.65
1034.3878	3068.0469	1055.7	175.55
1034.497	3069.0668	1057.4	171.35
1034.6061	3070.086	1049.3	169.85
1034.7151	3071.1046	1051.3	164.1
1034.8241	3072.1226	1049.85	169.9
1034.9331	3073.1399	1042.65	162.35
1035.042	3074.1567	1039.55	158.2
1035.1508	3075.1727	1036.75	153.4
1035.2597	3076.1882	1028.3	146.6
1035.3684	3077.203	1030	147.1
1035.4772	3078.2173	1027.55	145.8
1035.5859	3079.2308	1023.3	138.95
1035.6945	3080.2438	1023.6	139.75
1035.8031	3081.2561	1014.45	133.25
1035.9117	3082.2678	1011.9	130.45
1036.0202	3083.2789	1010.65	129.7
1036.1286	3084.2893	1006.95	125.8
1036.2371	3085.2991	1006	123.4
1036.3454	3086.3083	1000.3	114.2
1036.4538	3087.3169	1000.95	118.65
1036.562	3088.3248	999.2	116.7
1036.6703	3089.3321	1000.55	116.75
1036.7785	3090.3388	992.75	112.95
1036.8866	3091.3449	990.35	107.5
1036.9948	3092.3503	993.7	110.15
1037.1028	3093.3551	987.2	108.9
1037.2108	3094.3593	986.8	104.45
1037.3188	3095.3629	984.55	105
1037.4267	3096.3658	984.7	103.1
1037.5346	3097.3681	982.05	99.05
1037.6425	3098.3698	978.5	93.7
1037.7503	3099.3708	989.95	102.15
1037.858	3100.3713	973.65	95.6
1037.9657	3101.3711	974.7	90.45
1038.0734	3102.3702	1110.25	88.55
1038.181	3103.3688	974.8	90.15
1038.2886	3104.3667	969.65	88.95
1038.3961	3105.364	971.45	91.2
1038.5036	3106.3607	973.2	89.85
1038.611	3107.3568	971	87.75
1038.7184	3108.3522	971.7	92.05
1038.8257	3109.347	969.5	85.55
1038.933	3110.3412	970.15	85.9
1039.0403	3111.3348	964.65	82.75
1039.1475	3112.3277	968.3	88.25
1039.2547	3113.32	962.2	81.6
1039.3618	3114.3117	959.7	76.25
1039.4689	3115.3028	959.6	77.9
1039.5759	3116.2932	961.7	78.6
1039.6829	3117.2831	963.8	77.95
1039.7898	3118.2723	956.9	76.9
1039.8967	3119.2608	955.7	73.15
1040.0035	3120.2488	957.05	74.85
1040.1103	3121.2361	959	76.05
1040.2171	3122.2229	955.9	72.95
1040.3238	3123.209	957.3	74.55
1040.4305	3124.1944	953.7	72
1040.5371	3125.1793	956.5	71.45
1040.6437	3126.1635	952.95	73.65
1040.7502	3127.1471	952.2	71.8
1040.8567	3128.1301	949.5	68.5
1040.9631	3129.1125	948.9	67.3
1041.0695	3130.0942	947.9	64.85
1041.1759	3131.0753	956.75	68.35
1041.2822	3132.0558	952.15	67.2
1041.3884	3133.0357	949	66.45
1041.4946	3134.015	946.05	63.55
1041.6008	3134.9936	950.7	67.6
1041.7069	3135.9716	966.75	62.5
1041.813	3136.949	945.45	63.8
1041.919	3137.9258	964.65	64.45
1042.025	3138.902	951.5	64.55
1042.1309	3139.8775	941.45	60.75
1042.2368	3140.8524	944.95	63.7
1042.3427	3141.8267	944.7	62.15
1042.4485	3142.8004	941.5	59.85
1042.5542	3143.7735	952.25	64.45
1042.6599	3144.7459	946.35	64.25
1042.7656	3145.7178	942.25	59.9
1042.8712	3146.689	938.45	56.85
1042.9768	3147.6596	942	59.85
1043.0823	3148.6295	937.85	56.35
1043.1878	3149.5989	939.5	58.55
1043.2932	3150.5676	936.6	55.05
1043.3986	3151.5357	937.3	56.7
1043.5039	3152.5032	938.1	57.2
1043.6092	3153.4701	937.25	55.15
1043.7145	3154.4364	940.35	56.55
1043.8197	3155.402	936.2	57.05
1043.9248	3156.367	937.75	55.35
1044.03	3157.3315	953.8	53
1044.135	3158.2952	936.95	54.9
1044.24	3159.2584	931.95	49.75
1044.345	3160.221	935.9	53.7
1044.4499	3161.1829	935.2	53
1044.5548	3162.1442	934.55	52.65
1044.6596	3163.105	934	51.65
1044.7644	3164.065	933.7	51.45
1044.8692	3165.0245	934.8	50.2
1044.9739	3165.9834	932.5	52.3
1045.0785	3166.9416	933.25	52.35
1045.1831	3167.8993	930.2	47.3
1045.2877	3168.8563	933.15	52
1045.3922	3169.8127	930.8	49.45
1045.4966	3170.7684	931.25	49.4
1045.6011	3171.7236	932.85	48.75
1045.7054	3172.6782	931.35	48.35
1045.8098	3173.6321	931.95	49.5
1045.914	3174.5854	933.85	47.35
1046.0183	3175.5381	930.4	49.45
1046.1224	3176.4902	926.75	45
1046.2266	3177.4417	927.4	46
1046.3307	3178.3926	926.85	44.05
1046.4347	3179.3428	928.05	47.55
1046.5387	3180.2924	928.8	47
1046.6427	3181.2415	930.45	46.65
1046.7466	3182.1899	928.25	43.85
1046.8504	3183.1377	929.4	48.85
1046.9542	3184.0848	930.25	45
1047.058	3185.0314	926.65	43.75
1047.1617	3185.9773	925.45	42.25
1047.2654	3186.9227	928.25	42.95
1047.369	3187.8674	924.75	43.1
1047.4726	3188.8115	929.1	43.45
1047.5761	3189.755	924.6	42.7
1047.6796	3190.6979	924.5	42.9
1047.783	3191.6402	924.95	44.65
1047.8864	3192.5818	922.55	41.8
1047.9898	3193.5229	943.8	40.35
1048.0931	3194.4633	925.2	42.2
1048.1963	3195.4031	922.9	38.75
1048.2995	3196.3423	923.15	41.05
1048.4027	3197.2809	923.05	40.65
1048.5058	3198.2189	922.55	41.35
1048.6089	3199.1563	932.7	45.25
1048.7119	3200.0931	921.8	41.6
1048.8148	3201.0292	918.1	36.75
1048.9178	3201.9648	922.5	42.1
1049.0206	3202.8997	922.95	38
1049.1235	3203.834	923.95	42.65
1049.2262	3204.7677	924.15	41.55
1049.329	3205.7008	921.55	36.2
1049.4317	3206.6333	918.9	38.75
1049.5343	3207.5652	922.15	39
1049.6369	3208.4964	920.15	37.95
1049.7394	3209.4271	918.5	37.05
1049.8419	3210.3571	921.35	39.55
1049.9444	3211.2865	922.3	38.4
1050.0468	3212.2154	922.35	39.5
1050.1491	3213.1436	923.4	39.8
1050.2514	3214.0712	924.55	36.35
1050.3537	3214.9982	916.65	35.6
1050.4559	3215.9246	917.1	33.85
1050.5581	3216.8503	916.75	36.55
1050.6602	3217.7755	916.8	33.35
1050.7623	3218.7001	917.4	35.75
1050.8643	3219.624	920	36.4
1050.9663	3220.5473	918.55	37.35
1051.0682	3221.4701	920	37.45
1051.1701	3222.3922	918.15	34.7
1051.2719	3223.3137	916.95	34.1
1051.3737	3224.2346	917.55	34.8
1051.4754	3225.1549	916.6	36.4
1051.5771	3226.0746	915	34.55
1051.6788	3226.9937	915.65	34.15
1051.7804	3227.9121	914.15	33.8
1051.8819	3228.83	915.5	33.1
1051.9834	3229.7473	916.15	34.8
1052.0849	3230.6639	914.65	33.75
1052.1863	3231.5799	915.4	34.45
1052.2876	3232.4954	917.1	34.7
1052.3889	3233.4102	915.05	34.15
1052.4902	3234.3244	915.4	33.4
1052.5914	3235.238	916.1	34.25
1052.6926	3236.151	939.75	32.15
1052.7937	3237.0634	911.9	31.1
1052.8948	3237.9752	914.15	32.85
1052.9958	3238.8864	912.9	31
1053.0968	3239.797	911.85	31.65
1053.1977	3240.7069	913.45	31.8
1053.2986	3241.6163	913.25	31.2
1053.3994	3242.5251	911.25	29.6
1053.5002	3243.4332	909.4	29.35
1053.6009	3244.3408	911.2	26.75
1053.7016	3245.2477	910.5	28.15
1053.8022	3246.154	913.45	30.65
1053.9028	3247.0598	911.8	29.25
1054.0034	3247.9649	913.7	30.35
1054.1039	3248.8694	910.4	27.45
1054.2043	3249.7733	912.45	29.7
1054.3047	3250.6766	909.65	27.25
1054.4051	3251.5793	911.15	31.45
1054.5054	3252.4814	910	28.3
1054.6056	3253.3829	911.2	29
1054.7058	3254.2838	906.8	25.25
1054.806	3255.1841	909.15	27.7
1054.9061	3256.0838	909.3	26.4
1055.0061	3256.9829	908	27.3
1055.1062	3257.8814	910.75	29.65
1055.2061	3258.7792	907.75	23.45
1055.306	3259.6765	908.55	25.65
1055.4059	3260.5731	907	25.2
1055.5057	3261.4692	907.55	25.65
1055.6055	3262.3647	908.2	26.25
1055.7052	3263.2595	905	22.6
1055.8049	3264.1538	905.4	23.9
1055.9045	3265.0474	905.3	23.25
1056.0041	3265.9404	903.3	21.1
1056.1036	3266.8329	904.25	23.3
1056.2031	3267.7247	914.5	21.85
1056.3025	3268.616	903.45	24.2
1056.4019	3269.5066	901.25	17.95
1056.5013	3270.3966	904.55	20.5
1056.6005	3271.286	902.55	22.6
