Software Version:	3.9.2.0
Unit SN:	10000200
Spectrometer SN:	6960
Date:	3/14/2024 12:55:49 PM
Data Line Index:	25
Spectral Points:	2048
Integration time (ms):	125
Averages:	20
Delay (ms):	30000
Sequence Number:	1
Processing:	dark subtract
Laser Power (mW):	300
Laser Current (mA):	823
Laser Diode Temp (C):	25
Laser Case Temp (C):	27.8
System Temp (C):	27.9
Spectrometer Temp (C):	25.6
CCD Temp (C):	0.004
Secondary Temp (C):	20.011
Heatsink Temp (C):	23.675
CCDPCB Temp (C):	37.285
SecondaryPCB Temp (C):	34.862

Wavelength	RamanShift	Raw Counts	Dark Subtracted
787.061	30.1047	419.8	8.45
787.2016	32.3739	416.1	3.5
787.3422	34.6426	420.05	7.75
787.4828	36.9109	421.35	9.15
787.6235	39.1787	425.3	8.1
787.7642	41.4461	432.2	9.65
787.9049	43.7131	435.5	12
788.0456	45.9796	436.9	8.35
788.1863	48.2456	442.75	12.05
788.3271	50.5112	450.1	13.8
788.4679	52.7764	451.45	12.7
788.6087	55.0411	453.75	11.7
788.7496	57.3054	460.2	11.15
788.8904	59.5692	462.55	12.4
789.0313	61.8326	469.45	17.45
789.1722	64.0955	475.4	18
789.3132	66.3579	481.45	17.65
789.4541	68.6199	487.85	20.25
789.5951	70.8815	496.3	28.25
789.7361	73.1426	508.8	36.15
789.8771	75.4032	541.8	65.6
790.0181	77.6634	606.15	123.1
790.1592	79.9231	759.35	271.65
790.3003	82.1824	1074.3	581.95
790.4414	84.4412	1612.45	1112.3
790.5825	86.6995	2298.1	1782.7
790.7237	88.9574	2996.4	2471.35
790.8648	91.2148	3490.1	2955.25
791.006	93.4717	3741.35	3201
791.1472	95.7282	3790.8	3246.1
791.2885	97.9842	3819.25	3270
791.4297	100.2398	3805.5	3255.4
791.571	102.4949	3762.25	3209.25
791.7123	104.7495	3747.15	3191
791.8536	107.0036	3714.5	3157.05
791.9949	109.2573	3666.6	3108.9
792.1363	111.5105	3608.15	3050.3
792.2777	113.7632	3550.8	2990.65
792.4191	116.0154	3508.55	2936.65
792.5605	118.2672	3439.85	2877.85
792.7019	120.5185	3365.75	2799.35
792.8434	122.7693	3336.5	2767.7
792.9849	125.0197	3281.35	2709.1
793.1264	127.2696	3233	2658.35
793.2679	129.519	3210.9	2633.2
793.4094	131.7679	3183.6	2603.9
793.551	134.0163	3180.3	2598.35
793.6926	136.2642	3167.6	2581.15
793.8342	138.5117	3163.55	2576
793.9758	140.7587	3147.6	2556.85
794.1175	143.0052	3123.5	2526.4
794.2591	145.2512	3081	2484.7
794.4008	147.4967	3059.05	2462.95
794.5425	149.7417	3024.4	2426.35
794.6842	151.9863	3005.4	2403.3
794.826	154.2304	2995.9	2394.7
794.9677	156.4739	2990.95	2385.6
795.1095	158.717	2993.2	2382.25
795.2513	160.9596	3002.05	2387.6
795.3931	163.2017	3004.45	2391.4
795.535	165.4433	3020.4	2401.8
795.6768	167.6844	3023.35	2402.35
795.8187	169.925	2999.75	2377.3
795.9606	172.1651	2958.2	2330.85
796.1025	174.4047	2938.05	2308.2
796.2445	176.6439	2904.7	2273.9
796.3864	178.8825	2879	2245.5
796.5284	181.1206	2872.5	2239.35
796.6704	183.3582	2865.95	2227.3
796.8124	185.5954	2864.75	2220.7
796.9544	187.832	2852.6	2207.1
797.0965	190.0681	2848.35	2198.65
797.2386	192.3037	2850.3	2200.3
797.3806	194.5388	2858.15	2201
797.5228	196.7734	2870.2	2215.55
797.6649	199.0075	2868.8	2205.4
797.807	201.2411	2892.85	2228.6
797.9492	203.4742	2893.05	2228.2
798.0914	205.7068	2921.35	2257.15
798.2336	207.9389	2919.3	2253.45
798.3758	210.1704	2937.75	2269.4
798.518	212.4015	2935.1	2264.8
798.6603	214.632	2931.75	2260.7
798.8025	216.862	2926.85	2261.5
798.9448	219.0915	2915.2	2259.85
799.0871	221.3205	2935.3	2280
799.2294	223.549	2929.55	2277.9
799.3718	225.777	2921.1	2272.55
799.5141	228.0044	2906.5	2253.45
799.6565	230.2314	2896.35	2247.15
799.7989	232.4578	2885.15	2233
799.9413	234.6837	2879.9	2221
800.0837	236.909	2874.55	2211.6
800.2262	239.1339	2883.75	2196.9
800.3687	241.3582	2870	2200.2
800.5111	243.582	2895.15	2198.55
800.6536	245.8053	2884.4	2193.6
800.7961	248.0281	2878.9	2193.4
800.9387	250.2503	2892.3	2203.1
801.0812	252.472	2886.4	2189.05
801.2238	254.6932	2890.95	2192.05
801.3664	256.9139	2895.35	2196.7
801.509	259.134	2901.8	2200.85
801.6516	261.3536	2908.05	2209.05
801.7942	263.5727	2924.85	2222.85
801.9369	265.7912	2945.55	2242.3
802.0795	268.0092	2982	2279.65
802.2222	270.2267	3008.05	2304.65
802.3649	272.4436	3032.9	2329.2
802.5076	274.6601	3060.65	2347.55
802.6504	276.8759	3072	2361.45
802.7931	279.0913	3067.7	2356.8
802.9359	281.3061	3077.5	2368.35
803.0787	283.5204	3089.9	2375.1
803.2215	285.7341	3107.75	2391.35
803.3643	287.9473	3109.6	2387.9
803.5071	290.16	3118.65	2393.6
803.6499	292.3721	3084.9	2366.4
803.7928	294.5837	3060.65	2339.7
803.9357	296.7947	3030.95	2311.35
804.0786	299.0052	3034.1	2313.5
804.2215	301.2152	3024	2303.6
804.3644	303.4246	2997.2	2277.5
804.5074	305.6334	2985.55	2265.5
804.6503	307.8418	2961.05	2234.95
804.7933	310.0495	2943.45	2218.4
804.9363	312.2568	2927.25	2204.75
805.0793	314.4635	2887.45	2159.95
805.2223	316.6696	2860.1	2132.4
805.3653	318.8752	2826.9	2089.75
805.5084	321.0802	2809.4	2080.15
805.6514	323.2847	2789.85	2058.45
805.7945	325.4887	2786.8	2055.85
805.9376	327.692	2794.8	2062.5
806.0807	329.8949	2825.5	2090.9
806.2238	332.0972	2841.4	2105.4
806.367	334.2989	2849.95	2109.65
806.5101	336.5001	2841.65	2103.05
806.6533	338.7007	2831.6	2094.5
806.7965	340.9008	2803.4	2060.65
806.9397	343.1003	2771.05	2027.9
807.0829	345.2992	2739	1995.95
807.2261	347.4976	2703.25	1958.15
807.3693	349.6955	2675.05	1924.55
807.5126	351.8927	2675.3	1923.5
807.6559	354.0895	2661.8	1904.4
807.7991	356.2856	2641	1889.95
807.9424	358.4812	2631.65	1879.95
808.0857	360.6763	2624.25	1871.8
808.2291	362.8707	2624.3	1873.35
808.3724	365.0646	2629.25	1875.2
808.5158	367.258	2630.75	1872.3
808.6591	369.4508	2635.2	1872.9
808.8025	371.643	2653.55	1890.75
808.9459	373.8346	2658.35	1895.4
809.0893	376.0257	2682.1	1911.95
809.2327	378.2162	2690.3	1924.85
809.3762	380.4062	2701.25	1931.7
809.5196	382.5956	2682.95	1908.95
809.6631	384.7844	2652.75	1882.6
809.8066	386.9726	2626.8	1853.9
809.9501	389.1603	2595.85	1826.65
810.0936	391.3474	2617.7	1815
810.2371	393.5339	2589.4	1818.85
810.3806	395.7199	2572.5	1807.35
810.5241	397.9052	2572.85	1809.2
810.6677	400.09	2602.2	1839.7
810.8113	402.2743	2630	1867.5
810.9548	404.4579	2644.05	1880.65
811.0984	406.641	2669.9	1903.65
811.2421	408.8235	2705.5	1942.55
811.3857	411.0054	2735.85	1967.65
811.5293	413.1868	2804.65	2034.25
811.673	415.3675	2866.85	2096.35
811.8166	417.5477	2874.45	2102.65
811.9603	419.7273	2814.85	2040.4
812.104	421.9064	2735.6	1951.65
812.2477	424.0848	2664.05	1885.7
812.3914	426.2627	2623.3	1845.3
812.5351	428.4399	2599.15	1817.55
812.6788	430.6166	2556	1771.55
812.8226	432.7928	2510.6	1726.2
812.9663	434.9683	2479.05	1690.45
813.1101	437.1432	2452.1	1665.5
813.2539	439.3176	2441.4	1650.85
813.3977	441.4914	2430.3	1639.8
813.5415	443.6645	2420.75	1629.35
813.6853	445.8371	2431.7	1642.6
813.8291	448.0091	2425.05	1636.35
813.973	450.1806	2421	1628.95
814.1168	452.3514	2407.15	1610.45
814.2607	454.5216	2404.45	1603.25
814.4046	456.6913	2397.5	1601.7
814.5485	458.8603	2409.55	1614.4
814.6924	461.0288	2392	1597.4
814.8363	463.1967	2402.9	1608.1
814.9802	465.3639	2392.35	1593.05
815.1241	467.5306	2387.75	1588.75
815.2681	469.6967	2369	1571.7
815.412	471.8622	2372.25	1574.6
815.556	474.0271	2371.05	1572.75
815.7	476.1914	2368.9	1568.55
815.844	478.3551	2366.55	1567.05
815.988	480.5182	2366.35	1565.75
816.132	482.6807	2361.5	1559.4
816.276	484.8426	2374.1	1571.65
816.4201	487.0039	2383.45	1580.8
816.5641	489.1647	2412.45	1609.6
816.7082	491.3248	2441.7	1639.9
816.8522	493.4843	2448.35	1647.9
816.9963	495.6432	2440.25	1636
817.1404	497.8015	2422.25	1615.75
817.2845	499.9592	2392.75	1589.85
817.4286	502.1163	2367.55	1562.85
817.5727	504.2728	2343.65	1534.4
817.7168	506.4287	2325.15	1516.95
817.861	508.5839	2301.85	1495.25
818.0051	510.7386	2297.65	1491.65
818.1493	512.8927	2291.85	1474.4
818.2935	515.0461	2306.35	1495.85
818.4377	517.199	2302.9	1494.35
818.5818	519.3512	2333.25	1526
818.726	521.5029	2370.95	1556.55
818.8703	523.6539	2411.35	1597.2
819.0145	525.8043	2404.4	1590.25
819.1587	527.9541	2382.65	1566.55
819.303	530.1033	2345.35	1531.95
819.4472	532.2519	2301.9	1486.55
819.5915	534.3999	2293.25	1478.55
819.7357	536.5472	2276.95	1462.5
819.88	538.694	2268.9	1454.75
820.0243	540.8401	2284.2	1469.5
820.1686	542.9856	2288.4	1470.8
820.3129	545.1305	2298.3	1477.65
820.4572	547.2748	2308.05	1489.1
820.6016	549.4185	2314.45	1495.1
820.7459	551.5615	2303.55	1484.95
820.8902	553.704	2315.55	1495.5
821.0346	555.8458	2329.4	1513
821.1789	557.987	2338.75	1522.35
821.3233	560.1276	2354.05	1533.05
821.4677	562.2675	2379.1	1562.55
821.6121	564.4069	2401.95	1582.5
821.7565	566.5456	2431.5	1613.15
821.9009	568.6837	2432.3	1614.35
822.0453	570.8212	2378.95	1559.35
822.1897	572.958	2341.05	1519.75
822.3342	575.0942	2325.05	1503.7
822.4786	577.2299	2286.9	1466.6
822.6231	579.3648	2282.8	1459.45
822.7675	581.4992	2254.4	1431.6
822.912	583.6329	2243.2	1421.35
823.0565	585.766	2267.15	1443.45
823.201	587.8985	2281.3	1457.25
823.3454	590.0304	2323.9	1489
823.4899	592.1616	2327.9	1501.5
823.6345	594.2922	2314.7	1489.15
823.779	596.4222	2303.2	1475
823.9235	598.5515	2255.9	1429.75
824.068	600.6802	2239.1	1412.6
824.2126	602.8083	2202.15	1374.2
824.3571	604.9358	2189.95	1358.55
824.5017	607.0626	2182.65	1355.8
824.6462	609.1888	2179.3	1348.95
824.7908	611.3144	2197.8	1370.3
824.9354	613.4393	2215.2	1387.7
825.08	615.5636	2243.2	1414.15
825.2246	617.6873	2268.95	1441.05
825.3692	619.8103	2293.45	1459.95
825.5138	621.9327	2294.7	1459.9
825.6584	624.0544	2271.3	1439.05
825.803	626.1756	2242.15	1409.5
825.9477	628.2961	2206	1375.2
826.0923	630.4159	2191.9	1359.55
826.237	632.5351	2193.2	1361.4
826.3816	634.6537	2179.5	1345.5
826.5263	636.7716	2174.75	1342.8
826.6709	638.8889	2171.6	1338.7
826.8156	641.0056	2170.45	1335
826.9603	643.1216	2165.6	1329.8
827.105	645.237	2185.4	1348.2
827.2497	647.3518	2157.45	1323.75
827.3944	649.4659	2158.75	1324.75
827.5391	651.5793	2137.75	1300.4
827.6838	653.6922	2133.05	1298
827.8285	655.8043	2105.3	1269.5
827.9733	657.9159	2108.85	1268.5
828.118	660.0268	2100.15	1260.75
828.2627	662.137	2099.65	1260.2
828.4075	664.2466	2097.2	1255.85
828.5522	666.3556	2104.75	1264.65
828.697	668.4639	2092.5	1249.95
828.8418	670.5716	2084.9	1245.4
828.9865	672.6786	2083.15	1243.15
829.1313	674.785	2077.6	1236.75
829.2761	676.8907	2075.95	1232.5
829.4209	678.9958	2068.9	1227.5
829.5657	681.1002	2059.05	1216.8
829.7105	683.204	2063.3	1219.25
829.8553	685.3072	2065.65	1222.55
830.0001	687.4097	2061.5	1219.5
830.1449	689.5115	2058.4	1213.25
830.2898	691.6127	2055.7	1214.05
830.4346	693.7132	2060.1	1213.75
830.5794	695.8131	2067	1208.45
830.7243	697.9123	2061.05	1215.75
830.8691	700.0109	2061.5	1215.15
831.014	702.1089	2076.5	1232.55
831.1588	704.2061	2073.8	1227.25
831.3037	706.3028	2086.75	1240.25
831.4486	708.3987	2094.5	1247.1
831.5935	710.4941	2097.65	1250.6
831.7383	712.5887	2108	1261.2
831.8832	714.6827	2113.7	1265
832.0281	716.7761	2096.15	1249.65
832.173	718.8688	2086.45	1238.85
832.3179	720.9608	2098.1	1247.7
832.4628	723.0522	2104.4	1253.6
832.6077	725.1429	2105.75	1258.05
832.7527	727.233	2133.3	1284.15
832.8976	729.3224	2172.35	1321.75
833.0425	731.4112	2205.05	1355.6
833.1874	733.4993	2206.05	1354.9
833.3324	735.5867	2185.25	1333.7
833.4773	737.6735	2154.95	1302.8
833.6222	739.7596	2109.35	1257.15
833.7672	741.845	2100.4	1249.35
833.9122	743.9298	2093.85	1240.7
834.0571	746.014	2117.75	1266.9
834.2021	748.0974	2117.35	1263.9
834.347	750.1802	2110.6	1257.85
834.492	752.2624	2104.4	1252.9
834.637	754.3439	2096.3	1244.35
834.782	756.4247	2082.25	1219.9
834.9269	758.5048	2071.9	1218.3
835.0719	760.5843	2073.75	1220.7
835.2169	762.6631	2079.95	1226.05
835.3619	764.7413	2114.6	1261.5
835.5069	766.8188	2168	1315.05
835.6519	768.8956	2210.65	1354.5
835.7969	770.9718	2244.7	1392.1
835.9419	773.0473	2233.3	1379
836.0869	775.1221	2214.45	1362.55
836.232	777.1962	2204.15	1351
836.377	779.2697	2240.55	1384.1
836.522	781.3426	2304.7	1439.15
836.667	783.4147	2339.35	1482.9
836.8121	785.4862	2332.75	1479.05
836.9571	787.557	2271.8	1417.95
837.1021	789.6271	2204.3	1349.8
837.2472	791.6966	2127.6	1272.9
837.3922	793.7654	2065.45	1207.75
837.5373	795.8335	2028.25	1172.15
837.6823	797.901	2016.95	1160.55
837.8274	799.9678	2007.8	1149.15
837.9724	802.0339	1998.85	1144.45
838.1175	804.0993	2006.1	1140.65
838.2626	806.1641	1986.75	1127.5
838.4076	808.2282	1976	1118.85
838.5527	810.2916	1969.95	1109
838.6978	812.3544	1959.8	1102.8
838.8428	814.4164	1954.55	1098.25
838.9879	816.4778	1964.4	1106.85
839.133	818.5385	1960.95	1103
839.2781	820.5986	1970.95	1115
839.4232	822.658	1999.7	1136.85
839.5682	824.7166	2036.75	1177.8
839.7133	826.7747	2083.35	1223.95
839.8584	828.832	2137	1279.6
840.0035	830.8886	2181.85	1319.45
840.1486	832.9446	2192.05	1330.9
840.2937	834.9999	2172.05	1313.45
840.4388	837.0545	2133.25	1270.6
840.5839	839.1085	2082.1	1221.4
840.729	841.1618	2037.75	1173.6
840.8741	843.2143	2007.85	1148.95
841.0192	845.2662	1969.6	1109.95
841.1643	847.3175	1951.1	1091.15
841.3095	849.368	1950.4	1090.95
841.4546	851.4179	1949.05	1089.7
841.5997	853.467	1953	1092.55
841.7448	855.5155	1948.55	1087.75
841.8899	857.5633	1950.45	1088.8
842.0351	859.6105	1956.05	1094.65
842.1802	861.6569	1937	1076.6
842.3253	863.7027	1919.8	1056.8
842.4704	865.7478	1921	1059.5
842.6156	867.7922	1919.9	1058.7
842.7607	869.8359	1896.5	1034.7
842.9058	871.8789	1903.05	1039.1
843.0509	873.9212	1939.35	1043.2
843.1961	875.9629	1897.9	1035.95
843.3412	878.0039	1904.8	1039.6
843.4863	880.0441	1905.5	1041.65
843.6315	882.0837	1935	1067.95
843.7766	884.1226	1945.8	1079.15
843.9218	886.1609	1965.75	1105.05
844.0669	888.1984	1985.35	1122.55
844.212	890.2352	2009	1146.5
844.3572	892.2714	2019.85	1151.65
844.5023	894.3069	2010.4	1145.55
844.6475	896.3416	1968.85	1102.75
844.7926	898.3757	1938.25	1074.65
844.9377	900.4091	1929.5	1064.5
845.0829	902.4418	1937.45	1069.6
845.228	904.4739	1947.45	1080.55
845.3732	906.5052	1941	1075.25
845.5183	908.5358	1939.05	1075.4
845.6635	910.5658	1925.7	1058
845.8086	912.595	1904.65	1040.55
845.9538	914.6236	1881.5	1015.6
846.0989	916.6515	1870.6	1007.55
846.2441	918.6786	1856.9	986.75
846.3892	920.7051	1850.5	983.2
846.5344	922.7309	1847.7	981.4
846.6795	924.756	1840.3	972.25
846.8246	926.7804	1847.85	980.35
846.9698	928.8041	1857.9	989.9
847.1149	930.8272	1857.35	991
847.2601	932.8495	1861.9	994.2
847.4052	934.8711	1862.45	994.25
847.5504	936.892	1863.6	997.1
847.6955	938.9123	1868.4	999.95
847.8407	940.9318	1882.2	1013.5
847.9858	942.9506	1890.75	1023.4
848.131	944.9688	1893.25	1025.85
848.2761	946.9862	1868.1	998.7
848.4213	949.003	1848.1	979.7
848.5664	951.019	1828.95	961.1
848.7115	953.0344	1823.95	955.4
848.8567	955.0491	1816.7	947.95
849.0018	957.063	1808.95	939.65
849.147	959.0763	1818.2	951.55
849.2921	961.0888	1808	937.3
849.4373	963.1007	1792.6	923.55
849.5824	965.1119	1797.75	929.85
849.7275	967.1223	1796.3	925.7
849.8727	969.1321	1791.65	924.1
850.0178	971.1412	1794.2	924.8
850.1629	973.1495	1781	912.65
850.3081	975.1572	1809.7	902.3
850.4532	977.1641	1776.75	908
850.5983	979.1704	1771.8	901.2
850.7435	981.1759	1772.75	898.8
850.8886	983.1808	1768.3	896.65
851.0337	985.1849	1774.3	893.7
851.1788	987.1884	1758.35	885.55
851.324	989.1911	1757.75	885.95
851.4691	991.1932	1768.75	896.55
851.6142	993.1945	1764.55	896.1
851.7593	995.1951	1752.95	882.15
851.9045	997.1951	1763.1	888.95
852.0496	999.1943	1748	877.1
852.1947	1001.1928	1744.95	873.2
852.3398	1003.1906	1753.85	880.2
852.4849	1005.1877	1766.15	891.85
852.63	1007.1841	1777.45	905.55
852.7751	1009.1798	1780.2	909.75
852.9202	1011.1748	1772.9	902.05
853.0653	1013.1691	1756.25	884.85
853.2104	1015.1627	1744.45	873.2
853.3555	1017.1556	1720.2	849.5
853.5006	1019.1477	1702.85	830.15
853.6457	1021.1392	1688.15	817.55
853.7908	1023.1299	1687.1	817.05
853.9359	1025.12	1684.4	811.05
854.081	1027.1093	1682.75	810.7
854.2261	1029.0979	1699.8	827.95
854.3712	1031.0859	1704.2	830.9
854.5163	1033.0731	1712.9	841.15
854.6613	1035.0596	1710.3	838.25
854.8064	1037.0454	1702.5	828.8
854.9515	1039.0304	1692.2	819.1
855.0965	1041.0148	1676.3	804.45
855.2416	1042.9985	1668.2	795
855.3867	1044.9814	1654.05	781.35
855.5317	1046.9636	1647.15	772.95
855.6768	1048.9452	1650.35	778
855.8219	1050.926	1666.85	795.35
855.9669	1052.9061	1672.45	801.5
856.112	1054.8855	1679.55	808.2
856.257	1056.8642	1669.55	798.5
856.4021	1058.8421	1673.1	795.05
856.5471	1060.8194	1657.6	785.35
856.6921	1062.7959	1660.75	786.35
856.8372	1064.7717	1659	786.1
856.9822	1066.7469	1660.7	784.4
857.1272	1068.7213	1661.9	786.15
857.2723	1070.695	1660.65	787.45
857.4173	1072.6679	1675.9	801.05
857.5623	1074.6402	1690.15	817.45
857.7073	1076.6117	1691.45	812
857.8523	1078.5826	1682.7	807.25
857.9973	1080.5527	1658.1	780
858.1423	1082.5221	1637.95	761.45
858.2873	1084.4908	1614.45	740.4
858.4323	1086.4587	1611.1	733.75
858.5773	1088.426	1601.15	726.75
858.7223	1090.3925	1600.75	720.55
858.8673	1092.3584	1597.65	723.7
859.0123	1094.3235	1603.35	730.55
859.1573	1096.2879	1618.4	745.6
859.3022	1098.2515	1616.25	740.95
859.4472	1100.2145	1636.05	762.15
859.5922	1102.1767	1657.9	780.25
859.7371	1104.1382	1671.5	797.2
859.8821	1106.099	1713	834.9
860.027	1108.0591	1721.1	845.5
860.172	1110.0185	1751.9	875.85
860.3169	1111.9771	1771.95	897.95
860.4619	1113.9351	1794.1	918.1
860.6068	1115.8923	1827.75	952.25
860.7517	1117.8488	1851.3	971.9
860.8967	1119.8045	1811.3	935.55
861.0416	1121.7596	1762.45	885.95
861.1865	1123.7139	1703.55	830.3
861.3314	1125.6675	1666.4	789.75
861.4763	1127.6204	1667.55	792.3
861.6212	1129.5726	1681.4	802.4
861.7661	1131.524	1678.15	801.4
861.911	1133.4748	1648.5	771.1
862.0559	1135.4248	1614.45	737.35
862.2008	1137.3741	1586.3	710.2
862.3457	1139.3226	1576.7	699.95
862.4905	1141.2705	1568.1	690.9
862.6354	1143.2176	1580.85	697.2
862.7803	1145.164	1578.65	700.9
862.9251	1147.1097	1579.1	702.55
863.07	1149.0546	1554.9	676.95
863.2148	1150.9989	1540.95	661.5
863.3597	1152.9424	1529.7	651.9
863.5045	1154.8852	1518.3	641.3
863.6493	1156.8272	1521.25	644.8
863.7942	1158.7686	1527.5	644.55
863.939	1160.7092	1524.35	647.9
864.0838	1162.6491	1516.55	637.55
864.2286	1164.5883	1520.95	644.75
864.3734	1166.5267	1533.7	655.65
864.5182	1168.4644	1544.15	666.3
864.663	1170.4014	1560	677.1
864.8078	1172.3377	1582.3	705.2
864.9526	1174.2732	1601.6	724.5
865.0974	1176.2081	1651.25	773.6
865.2421	1178.1421	1719.15	836.55
865.3869	1180.0755	1782.3	905.85
865.5317	1182.0082	1824	946.05
865.6764	1183.9401	1813	933.85
865.8212	1185.8713	1742.6	865.75
865.9659	1187.8017	1683.8	802.6
866.1106	1189.7315	1618.95	741.2
866.2554	1191.6605	1611	703
866.4001	1193.5888	1553.6	674.7
866.5448	1195.5163	1528.6	650.4
866.6895	1197.4432	1512.2	632.6
866.8342	1199.3693	1505.3	629.1
866.9789	1201.2947	1500.6	616.85
867.1236	1203.2193	1495.65	616.8
867.2683	1205.1432	1487.55	608.3
867.413	1207.0664	1483.15	603.7
867.5576	1208.9889	1484.35	605.5
867.7023	1210.9106	1482.55	602.3
867.847	1212.8316	1478.55	602.45
867.9916	1214.7519	1500.65	612.5
868.1363	1216.6715	1488.4	611.65
868.2809	1218.5903	1498.25	622.8
868.4255	1220.5084	1506.7	627.75
868.5701	1222.4257	1514.45	635.5
868.7148	1224.3424	1517.4	639.7
868.8594	1226.2583	1533.5	649.65
869.004	1228.1735	1543.2	663.85
869.1486	1230.0879	1563.1	683.2
869.2932	1232.0016	1576.1	699.1
869.4377	1233.9146	1598	716.65
869.5823	1235.8269	1601.9	721.85
869.7269	1237.7384	1612.1	733.8
869.8715	1239.6492	1612.35	733.55
870.016	1241.5592	1618.45	739.6
870.1606	1243.4686	1643.1	765.2
870.3051	1245.3772	1683.3	805.25
870.4496	1247.285	1725.9	846.4
870.5941	1249.1922	1759.9	880.1
870.7387	1251.0986	1811.2	931.85
870.8832	1253.0042	1846.35	968.35
871.0277	1254.9092	1891.95	1010.3
871.1722	1256.8134	1928.25	1049.3
871.3167	1258.7169	1973.1	1091.25
871.4611	1260.6196	1989.65	1112.2
871.6056	1262.5216	1997.95	1117.2
871.7501	1264.4229	1978.7	1101.15
871.8945	1266.3234	1962.5	1082.7
872.039	1268.2232	1937.4	1055.4
872.1834	1270.1223	1917.65	1038.25
872.3278	1272.0207	1893.15	1012.15
872.4723	1273.9183	1877.45	991.9
872.6167	1275.8151	1875.4	995.85
872.7611	1277.7113	1907.65	1027
872.9055	1279.6067	1950.35	1070.8
873.0499	1281.5014	2013.75	1133
873.1943	1283.3953	2119.45	1237.8
873.3386	1285.2885	2218.55	1339.55
873.483	1287.181	2295.25	1412.35
873.6274	1289.0727	2325.35	1445.6
873.7717	1290.9637	2298.35	1417.1
873.9161	1292.854	2240.65	1360.65
874.0604	1294.7435	2177.55	1297.4
874.2047	1296.6323	2121.5	1238.95
874.349	1298.5204	2082.2	1199.15
874.4933	1300.4077	2026.75	1145.75
874.6376	1302.2943	2005.75	1125.15
874.7819	1304.1802	1992.75	1112.15
874.9262	1306.0653	1969.65	1084.35
875.0705	1307.9497	1949.9	1068.75
875.2147	1309.8333	1935.05	1055.5
875.359	1311.7162	1911.25	1030.05
875.5032	1313.5984	1890.8	1007.15
875.6475	1315.4798	1892.55	1000.15
875.7917	1317.3605	1881.85	997.6
875.9359	1319.2405	1876.75	993.95
876.0801	1321.1197	1862.25	980.2
876.2243	1322.9982	1832.4	946.65
876.3685	1324.876	1785.75	905.5
876.5127	1326.753	1739.1	856.15
876.6569	1328.6293	1701.65	821.15
876.801	1330.5048	1648.55	766.15
876.9452	1332.3796	1605.4	727.45
877.0893	1334.2537	1606.35	696.15
877.2335	1336.127	1553.8	672.35
877.3776	1337.9996	1539	657.4
877.5217	1339.8714	1523.6	641.45
877.6658	1341.7426	1559.35	635.3
877.8099	1343.6129	1516.2	636.8
877.954	1345.4826	1499.85	618.25
878.0981	1347.3515	1501	616.75
878.2422	1349.2196	1484.35	602.7
878.3862	1351.087	1477.8	597.55
878.5303	1352.9537	1484.4	601.5
878.6743	1354.8197	1474.5	593.15
878.8184	1356.6849	1475.7	594.9
878.9624	1358.5493	1493.1	612.35
879.1064	1360.4131	1505.4	624.4
879.2504	1362.276	1525.45	645.15
879.3944	1364.1383	1536	653.7
879.5384	1365.9998	1557.15	670.45
879.6823	1367.8606	1538.55	657.3
879.8263	1369.7206	1538.35	657.15
879.9702	1371.5799	1538.35	655.35
880.1142	1373.4384	1528.2	644.65
880.2581	1375.2962	1519.9	638.85
880.402	1377.1533	1479.7	598.9
880.5459	1379.0096	1461.8	578.45
880.6898	1380.8652	1438	555.2
880.8337	1382.7201	1421	538.85
880.9776	1384.5742	1406.3	523.45
881.1215	1386.4275	1397.15	513.7
881.2653	1388.2802	1383.35	501.95
881.4092	1390.132	1371.95	491.9
881.553	1391.9832	1376.65	494.1
881.6968	1393.8336	1366.85	486.8
881.8406	1395.6832	1357.25	473.1
881.9844	1397.5322	1357.55	473.7
882.1282	1399.3803	1362.25	477.15
882.272	1401.2278	1341	458.5
882.4158	1403.0745	1341	459.8
882.5595	1404.9204	1331.4	448.7
882.7033	1406.7656	1328.85	445.45
882.847	1408.6101	1331.8	449.85
882.9908	1410.4538	1329.7	450.55
883.1345	1412.2968	1329.65	447.55
883.2782	1414.139	1321.25	439.2
883.4219	1415.9805	1327.85	447.6
883.5656	1417.8213	1337.1	449.75
883.7092	1419.6613	1343.7	463.45
883.8529	1421.5006	1361.3	477.35
883.9965	1423.3391	1371.25	489.3
884.1402	1425.1769	1402.55	517.7
884.2838	1427.0139	1435.95	554.75
884.4274	1428.8502	1483.3	599.45
884.571	1430.6858	1519.05	636.8
884.7146	1432.5206	1529.95	645.6
884.8582	1434.3547	1524.85	640.1
885.0018	1436.188	1505.5	622.9
885.1453	1438.0206	1513.85	629.4
885.2889	1439.8524	1502.8	619.6
885.4324	1441.6835	1499.6	616.25
885.5759	1443.5139	1499.85	614
885.7194	1445.3435	1505.3	623.3
885.8629	1447.1724	1505.55	623.5
886.0064	1449.0005	1496.3	612.4
886.1499	1450.8279	1493.25	610.05
886.2933	1452.6545	1490.6	607.4
886.4368	1454.4804	1492.7	611.3
886.5802	1456.3056	1490.95	601.25
886.7237	1458.13	1482.5	599.35
886.8671	1459.9536	1462	579.5
887.0105	1461.7766	1440.65	558
887.1539	1463.5987	1421.9	537.65
887.2972	1465.4202	1400.65	516.65
887.4406	1467.2409	1372.95	490.4
887.584	1469.0608	1364.4	481.7
887.7273	1470.88	1349.05	465.1
887.8706	1472.6984	1329.85	446.65
888.0139	1474.5161	1319.8	434.6
888.1572	1476.3331	1312.95	429.4
888.3005	1478.1493	1308.05	424.75
888.4438	1479.9648	1299.5	417.3
888.5871	1481.7795	1301.1	416.95
888.7303	1483.5935	1303.45	418.65
888.8736	1485.4067	1302.65	418.4
889.0168	1487.2192	1304	423.2
889.16	1489.031	1298.75	412.85
889.3032	1490.842	1299.7	417.8
889.4464	1492.6522	1293.3	411.7
889.5896	1494.4618	1288.35	404.05
889.7327	1496.2705	1293.6	411.95
889.8759	1498.0785	1283.2	400.6
890.019	1499.8858	1283.45	399.65
890.1622	1501.6924	1280.7	397.45
890.3053	1503.4981	1277.75	394.25
890.4484	1505.3032	1268.2	384.75
890.5914	1507.1075	1264.8	381.65
890.7345	1508.911	1263.15	379.7
890.8776	1510.7138	1261	378.85
891.0206	1512.5159	1252.65	369.15
891.1637	1514.3172	1254.75	371.2
891.3067	1516.1178	1251.3	368.9
891.4497	1517.9176	1250.4	365.85
891.5927	1519.7166	1238.65	358.05
891.7357	1521.515	1250.4	361.45
891.8786	1523.3126	1239.35	356.05
892.0216	1525.1094	1230.45	344.7
892.1645	1526.9055	1228.75	346.85
892.3074	1528.7008	1221.95	339.4
892.4503	1530.4954	1229.95	341.1
892.5932	1532.2893	1219.85	336.5
892.7361	1534.0824	1227.8	339.85
892.879	1535.8747	1218.1	334.95
893.0218	1537.6663	1213.7	330
893.1647	1539.4572	1218.4	332.9
893.3075	1541.2473	1217.9	333.5
893.4503	1543.0367	1207.55	324.5
893.5931	1544.8253	1218.5	327.6
893.7359	1546.6132	1217.95	331.2
893.8787	1548.4003	1222.85	329.8
894.0214	1550.1867	1230.4	337
894.1642	1551.9723	1221.2	333.55
894.3069	1553.7572	1227.15	344.1
894.4496	1555.5414	1233.55	350.25
894.5923	1557.3247	1252.75	368.1
894.735	1559.1074	1260.95	377.65
894.8777	1560.8893	1280.7	396.65
895.0204	1562.6705	1305.9	421.25
895.163	1564.4509	1315.55	432.15
895.3056	1566.2305	1314.05	431.6
895.4482	1568.0094	1312.05	428.45
895.5908	1569.7876	1316.6	433.4
895.7334	1571.565	1310.3	424.1
895.876	1573.3417	1311.3	428.05
896.0186	1575.1176	1307.25	423.55
896.1611	1576.8928	1321.65	436.5
896.3036	1578.6672	1334.35	449.15
896.4461	1580.4409	1336.1	452.2
896.5886	1582.2138	1360.6	473.85
896.7311	1583.986	1372.3	487.05
896.8736	1585.7575	1386.55	504.8
897.0161	1587.5282	1390	508.1
897.1585	1589.2981	1411.7	529.25
897.3009	1591.0673	1419.95	535.7
897.4433	1592.8358	1417.5	534.85
897.5857	1594.6035	1425.1	539.65
897.7281	1596.3704	1422.35	539.1
897.8705	1598.1366	1405.9	522.5
898.0128	1599.9021	1393.95	513.9
898.1551	1601.6668	1386.95	500.6
898.2975	1603.4308	1376.9	492.4
898.4398	1605.194	1380.95	494.2
898.5821	1606.9564	1386.75	502.45
898.7243	1608.7182	1414.5	525.75
898.8666	1610.4791	1456.95	569.6
899.0088	1612.2394	1496.2	612.85
899.1511	1613.9988	1537.5	653.7
899.2933	1615.7576	1579.3	696.2
899.4355	1617.5156	1590.35	701.05
899.5776	1619.2728	1575.85	692.6
899.7198	1621.0293	1534.6	650.8
899.862	1622.785	1481.45	592.85
900.0041	1624.54	1417.65	531.35
900.1462	1626.2942	1366.7	481.3
900.2883	1628.0477	1324.75	437.05
900.4304	1629.8005	1285.6	399.1
900.5725	1631.5525	1251.9	369.5
900.7145	1633.3037	1228.95	345.15
900.8566	1635.0542	1204.6	319.4
900.9986	1636.804	1189.7	304.3
901.1406	1638.553	1239.4	292.95
901.2826	1640.3013	1174.4	289.9
901.4245	1642.0488	1162.45	276.4
901.5665	1643.7955	1150.85	267.95
901.7085	1645.5416	1149.4	265.6
901.8504	1647.2868	1136.35	252.1
901.9923	1649.0313	1140.85	257.1
902.1342	1650.7751	1134.5	248.4
902.2761	1652.5181	1134.8	252.75
902.4179	1654.2604	1129.7	245.15
902.5598	1656.0019	1132.15	247.8
902.7016	1657.7427	1136.45	253.35
902.8434	1659.4828	1145.5	261.75
902.9852	1661.222	1164.5	279.75
903.127	1662.9606	1170.45	287.85
903.2687	1664.6984	1188.4	303.95
903.4105	1666.4354	1187.15	302.95
903.5522	1668.1717	1173.25	289.55
903.6939	1669.9072	1156.65	271.95
903.8356	1671.642	1143.85	258.55
903.9773	1673.3761	1124.65	242.85
904.119	1675.1094	1112.5	229.4
904.2606	1676.8419	1099.6	216.6
904.4022	1678.5737	1095.75	211.6
904.5439	1680.3048	1090.45	206.9
904.6855	1682.0351	1084.4	200.65
904.827	1683.7646	1088.55	202.3
904.9686	1685.4934	1077.5	193.2
905.1101	1687.2215	1077.5	192.05
905.2517	1688.9488	1069.6	184.05
905.3932	1690.6754	1074.4	189.05
905.5347	1692.4012	1071.95	188
905.6761	1694.1263	1072.4	188.95
905.8176	1695.8506	1066.2	182.2
905.9591	1697.5742	1065.35	180.65
906.1005	1699.297	1066.55	180.4
906.2419	1701.0191	1059.65	175.55
906.3833	1702.7404	1065.7	182.25
906.5246	1704.461	1062.75	176.35
906.666	1706.1808	1062.1	176.65
906.8073	1707.8999	1058.7	173.4
906.9487	1709.6182	1054	171.45
907.09	1711.3358	1059.3	175.35
907.2313	1713.0527	1054.8	171.9
907.3725	1714.7688	1055.15	165.65
907.5138	1716.4841	1056.85	172
907.655	1718.1987	1056.8	167.05
907.7962	1719.9126	1051.15	168.9
907.9374	1721.6257	1057.65	168.95
908.0786	1723.338	1055.3	170.6
908.2198	1725.0496	1052.1	165.45
908.3609	1726.7605	1053.75	169.7
908.502	1728.4706	1052.25	167.15
908.6431	1730.18	1050.65	165.75
908.7842	1731.8886	1046.75	162.25
908.9253	1733.5964	1051.95	164.8
909.0664	1735.3036	1047.25	162.9
909.2074	1737.0099	1044.95	161.2
909.3484	1738.7156	1044.6	158.5
909.4894	1740.4204	1046.9	159.1
909.6304	1742.1246	1043.75	156.9
909.7714	1743.8279	1049.2	164.45
909.9123	1745.5306	1042.8	158.15
910.0532	1747.2325	1045.45	162.35
910.1941	1748.9336	1045.2	160.8
910.335	1750.634	1052.05	167.5
910.4759	1752.3336	1039.7	155.8
910.6168	1754.0325	1039.9	157.25
910.7576	1755.7307	1041.05	154.95
910.8984	1757.4281	1040.3	155.1
911.0392	1759.1247	1050.35	156.55
911.18	1760.8206	1043.55	154.65
911.3208	1762.5158	1044.4	157.4
911.4615	1764.2102	1038.85	155.25
911.6022	1765.9039	1037.95	155.75
911.7429	1767.5968	1043.55	158.45
911.8836	1769.289	1039.45	155.05
912.0243	1770.9804	1037.7	152.95
912.1649	1772.6711	1039.05	153.55
912.3056	1774.361	1034.5	148.65
912.4462	1776.0502	1036.2	153.05
912.5868	1777.7386	1040.15	153.1
912.7274	1779.4263	1033.35	148.8
912.8679	1781.1132	1039.9	154.6
913.0084	1782.7994	1036.7	150.75
913.149	1784.4849	1034.5	151.25
913.2895	1786.1696	1052.25	147.95
913.4299	1787.8535	1034.25	149.75
913.5704	1789.5367	1034.95	149.75
913.7108	1791.2192	1033.7	149.45
913.8513	1792.9009	1048.15	149.05
913.9917	1794.5818	1032.85	147.7
914.132	1796.2621	1031.85	150.2
914.2724	1797.9415	1029.7	143.35
914.4128	1799.6202	1027.3	141.2
914.5531	1801.2982	1031.95	148.25
914.6934	1802.9755	1031.3	144
914.8337	1804.6519	1027.4	142.9
914.9739	1806.3277	1030.6	147.1
915.1142	1808.0027	1030.75	146.8
915.2544	1809.6769	1027.15	141.95
915.3946	1811.3504	1029.35	142.95
915.5348	1813.0231	1027.35	140.65
915.675	1814.6951	1028.6	145
915.8151	1816.3664	1033.55	146.1
915.9553	1818.0369	1024.1	140.35
916.0954	1819.7067	1023.15	141.9
916.2355	1821.3757	1025.3	138.8
916.3755	1823.044	1027.15	143.15
916.5156	1824.7115	1024.25	141
916.6556	1826.3783	1023.7	139
916.7956	1828.0443	1023.05	140.2
916.9356	1829.7096	1026.75	140.4
917.0756	1831.3741	1025.8	137.8
917.2155	1833.0379	1022.55	137.2
917.3555	1834.701	1023.85	137.45
917.4954	1836.3633	1024.9	138.35
917.6353	1838.0248	1022.95	137.1
917.7751	1839.6856	1021.15	137.75
917.915	1841.3457	1020.25	137.4
918.0548	1843.005	1016.7	132.4
918.1946	1844.6636	1015.9	135.05
918.3344	1846.3214	1017.75	133.85
918.4742	1847.9785	1021.95	136.85
918.6139	1849.6349	1020.3	133.5
918.7537	1851.2904	1022.85	131.05
918.8934	1852.9453	1020.6	138.85
919.0331	1854.5994	1018.55	130
919.1727	1856.2528	1020.95	132.45
919.3124	1857.9054	1018.45	132.9
919.452	1859.5572	1016.15	131.15
919.5916	1861.2083	1017.35	131.05
919.7312	1862.8587	1014.35	130.45
919.8708	1864.5084	1016.2	131.3
920.0103	1866.1572	1012.05	130.05
920.1498	1867.8054	1016.3	132.65
920.2893	1869.4528	1013.15	127
920.4288	1871.0994	1015.35	131.05
920.5683	1872.7453	1014.6	129.25
920.7077	1874.3905	1032.35	131.35
920.8471	1876.0349	1017.5	131.05
920.9865	1877.6786	1013.8	127.95
921.1259	1879.3215	1012.4	129.2
921.2653	1880.9637	1012.9	125.7
921.4046	1882.6051	1010.4	127.2
921.5439	1884.2458	1010.1	121.7
921.6832	1885.8858	1010.45	126.6
921.8225	1887.525	1009.4	122.8
921.9617	1889.1634	1011.2	126.25
922.101	1890.8011	1010.2	124.2
922.2402	1892.4381	1011.4	127.8
922.3794	1894.0743	1009.5	126.35
922.5185	1895.7098	1008.05	123.65
922.6577	1897.3446	1007.6	123.95
922.7968	1898.9786	1016.4	128.15
922.9359	1900.6118	1010.35	126.4
923.075	1902.2443	1010.1	121.3
923.214	1903.8761	1009.3	125
923.3531	1905.5071	1008.85	122.1
923.4921	1907.1374	1006.5	122.05
923.6311	1908.7669	1005.45	119.45
923.77	1910.3957	1006.7	124
923.909	1912.0237	1007.75	122.15
924.0479	1913.651	1006.65	123.65
924.1868	1915.2776	1003.8	121.45
924.3257	1916.9034	1003.1	120.15
924.4646	1918.5285	1004.45	120.45
924.6034	1920.1528	1004.25	119.25
924.7422	1921.7764	1004.4	121.25
924.881	1923.3992	999.05	117.1
925.0198	1925.0213	1001.95	117.05
925.1586	1926.6427	1000.2	116.05
925.2973	1928.2633	1110.8	118.15
925.436	1929.8832	1003.8	117.85
925.5747	1931.5023	1005.15	121.45
925.7134	1933.1207	1002.15	117.45
925.852	1934.7383	1000.6	114.6
925.9906	1936.3552	1003.2	117.75
926.1292	1937.9714	1003.7	117.8
926.2678	1939.5868	1004.45	117.55
926.4064	1941.2015	1002.45	117.1
926.5449	1942.8154	1002.8	119.05
926.6834	1944.4286	997.25	114.05
926.8219	1946.041	1021.75	112.8
926.9604	1947.6528	1001.9	113
927.0988	1949.2637	997.85	111.75
927.2372	1950.8739	1000.2	117.05
927.3756	1952.4834	997.35	112.75
927.514	1954.0921	995.25	111.2
927.6523	1955.7001	1003.75	114.4
927.7907	1957.3074	996.25	112.8
927.929	1958.9139	995.8	110.15
928.0673	1960.5197	999.3	111.9
928.2055	1962.1247	997.45	113.6
928.3438	1963.729	998	114.45
928.482	1965.3325	1016.1	107.2
928.6202	1966.9353	996.05	111.8
928.7584	1968.5374	997.45	112.65
928.8965	1970.1387	992.6	108.5
929.0346	1971.7393	994.15	109.75
929.1727	1973.3392	992.2	106.5
929.3108	1974.9383	992.05	106.35
929.4489	1976.5366	993.95	108.95
929.5869	1978.1342	993.9	106.8
929.7249	1979.7311	992.15	105.75
929.8629	1981.3273	990.05	106.4
930.0009	1982.9227	994.15	108.35
930.1388	1984.5173	993.5	108.55
930.2767	1986.1112	991.35	106.75
930.4146	1987.7044	988.8	106.95
930.5525	1989.2968	996.35	111.1
930.6904	1990.8885	995.45	106.05
930.8282	1992.4795	994.4	108.55
930.966	1994.0697	991.35	106
931.1038	1995.6592	990.2	104.4
931.2415	1997.2479	992.05	108.75
931.3793	1998.8359	988.45	104.45
931.517	2000.4232	988.5	105.25
931.6547	2002.0097	989.35	107.7
931.7923	2003.5955	990.75	106.05
931.93	2005.1805	990.45	104.3
932.0676	2006.7648	987.55	101.55
932.2052	2008.3484	989.75	105.35
932.3427	2009.9312	989.85	102.9
932.4803	2011.5133	988.6	103.05
932.6178	2013.0946	990.3	106.35
932.7553	2014.6752	989.9	105.35
932.8928	2016.2551	986.65	101.2
933.0302	2017.8342	989.25	104.9
933.1676	2019.4126	989.15	105.15
933.305	2020.9902	985.3	102.05
933.4424	2022.5672	991.2	106.4
933.5798	2024.1433	996.2	105.9
933.7171	2025.7188	990.25	106.4
933.8544	2027.2935	987.55	102
933.9917	2028.8674	987.85	104.15
934.129	2030.4406	984.55	99.8
934.2662	2032.0131	986.6	103.65
934.4034	2033.5849	993.65	100.5
934.5406	2035.1559	984.9	101.1
934.6778	2036.7261	984	99.8
934.8149	2038.2957	983.7	100.6
934.952	2039.8645	987.85	104.85
935.0891	2041.4325	988.55	102.65
935.2262	2042.9998	985.95	100.5
935.3632	2044.5664	985.45	99.1
935.5002	2046.1323	986.3	101.95
935.6372	2047.6974	986.95	103.8
935.7742	2049.2617	984.25	98.4
935.9111	2050.8254	1017.45	96.95
936.048	2052.3883	986.55	99.2
936.1849	2053.9504	984.5	99.55
936.3218	2055.5118	988.7	103.45
936.4586	2057.0725	988.4	99.7
936.5955	2058.6325	986.65	102.65
936.7323	2060.1917	984.9	99.65
936.869	2061.7502	988.05	102
937.0058	2063.3079	985.55	103.3
937.1425	2064.8649	989.65	101.55
937.2792	2066.4212	987.1	100.75
937.4159	2067.9767	986.25	103.1
937.5525	2069.5315	982.35	96.7
937.6891	2071.0856	985.35	100.15
937.8257	2072.6389	987.35	102.05
937.9623	2074.1915	983.95	99.8
938.0989	2075.7433	985.05	97.4
938.2354	2077.2945	983.45	98.15
938.3719	2078.8448	988.85	105.3
938.5084	2080.3945	983.35	98.5
938.6448	2081.9434	983.2	100.35
938.7812	2083.4916	981.2	95.9
938.9176	2085.039	986.3	100.65
939.054	2086.5857	984.3	98.95
939.1903	2088.1317	983.4	97.55
939.3267	2089.677	984.45	100.8
939.463	2091.2215	979.55	95.2
939.5992	2092.7652	986.7	99.05
939.7355	2094.3083	986.8	101.7
939.8717	2095.8506	981.6	98.9
940.0079	2097.3921	982.5	99.15
940.1441	2098.933	984.15	99.7
940.2802	2100.4731	981.2	96.5
940.4163	2102.0124	998.4	95.85
940.5524	2103.5511	980.85	97.85
940.6885	2105.089	982.3	98.6
940.8245	2106.6261	985.5	101.25
940.9606	2108.1626	985.9	101.05
941.0965	2109.6983	1009.9	97.55
941.2325	2111.2332	984.8	98.3
941.3684	2112.7675	983.9	100.3
941.5044	2114.301	986	98.45
941.6403	2115.8337	979.65	95.75
941.7761	2117.3657	985.1	100.75
941.912	2118.897	982.15	95.75
942.0478	2120.4276	987.45	97.65
942.1835	2121.9575	983	99.4
942.3193	2123.4866	996.75	95.6
942.455	2125.0149	983.8	96.65
942.5907	2126.5426	982.8	99.2
942.7264	2128.0695	983.7	95.9
942.8621	2129.5956	984.25	98.05
942.9977	2131.1211	989.15	101.75
943.1333	2132.6458	984.4	99.05
943.2689	2134.1698	979.9	95.05
943.4044	2135.693	981.35	96.55
943.54	2137.2155	981.1	96.05
943.6755	2138.7373	981.95	96.85
943.8109	2140.2584	981.75	96
943.9464	2141.7787	984.35	92.9
944.0818	2143.2983	985.15	101.25
944.2172	2144.8171	980	97.45
944.3526	2146.3353	980.5	94.9
944.4879	2147.8527	982.25	98.35
944.6232	2149.3693	982.95	98.05
944.7585	2150.8853	978.05	94.1
944.8938	2152.4005	982.35	96.8
945.029	2153.9149	976.7	92.15
945.1642	2155.4287	977.6	92.55
945.2994	2156.9417	981.65	95.9
945.4346	2158.454	983.6	95.65
945.5697	2159.9655	979.1	94.8
945.7048	2161.4764	979.15	94.3
945.8399	2162.9865	980.15	95.3
945.9749	2164.4958	980.5	96.2
946.1099	2166.0045	986.15	96.15
946.2449	2167.5124	977.1	93.85
946.3799	2169.0195	977.1	91.65
946.5148	2170.526	982.35	98.95
946.6498	2172.0317	977.55	90.2
946.7846	2173.5367	978.55	93.95
946.9195	2175.0409	978.5	95.3
947.0543	2176.5445	979.05	95.45
947.1891	2178.0473	977.5	93.45
947.3239	2179.5494	976.7	89.6
947.4587	2181.0507	978.65	93.8
947.5934	2182.5513	978.65	95.6
947.7281	2184.0512	976.85	92.1
947.8628	2185.5504	974.35	89.4
947.9974	2187.0488	976.15	93
948.132	2188.5465	979.7	94.75
948.2666	2190.0435	977.8	92.35
948.4012	2191.5397	973.65	88.75
948.5357	2193.0353	977.7	94.15
948.6702	2194.5301	974.6	89.65
948.8047	2196.0241	974.55	89.9
948.9392	2197.5175	974.85	92.6
949.0736	2199.0101	975.45	87.8
949.208	2200.502	975.35	93.85
949.3424	2201.9931	974.1	89.8
949.4767	2203.4835	977.45	92.9
949.611	2204.9733	983.2	92.6
949.7453	2206.4622	977.7	93.65
949.8796	2207.9505	977.75	91.3
950.0138	2209.438	975.85	90.6
950.148	2210.9248	972.35	85.35
950.2822	2212.4109	976.05	92.25
950.4164	2213.8962	976	88.7
950.5505	2215.3809	973.9	89.15
950.6846	2216.8648	973.2	89.7
950.8186	2218.3479	976.1	87.4
950.9527	2219.8304	975.3	87.1
951.0867	2221.3121	972.45	85.9
951.2207	2222.7931	969.55	85.5
951.3546	2224.2733	971.35	87.15
951.4886	2225.7529	970.85	85.15
951.6225	2227.2317	974.3	85.75
951.7563	2228.7098	974.05	88.85
951.8902	2230.1872	972.9	86.5
952.024	2231.6638	971.8	85.85
952.1578	2233.1397	973.55	87.6
952.2916	2234.6149	972.1	88.2
952.4253	2236.0894	972.5	86.75
952.559	2237.5632	979.4	83.2
952.6927	2239.0362	969.9	86.35
952.8263	2240.5085	969.5	84.3
952.9599	2241.9801	970.35	86.8
953.0935	2243.4509	969.35	83.85
953.2271	2244.921	968.45	84.4
953.3606	2246.3904	971.5	83.65
953.4941	2247.8591	965.7	84.75
953.6276	2249.3271	970.45	87
953.7611	2250.7943	965.85	79.55
953.8945	2252.2608	969.3	84.75
954.0279	2253.7266	966.7	82.3
954.1612	2255.1917	963.2	77.9
954.2946	2256.656	966.85	80.2
954.4279	2258.1197	966.85	81.4
954.5612	2259.5826	969.3	81.9
954.6944	2261.0447	965.85	81.05
954.8276	2262.5062	969.1	83.75
954.9608	2263.9669	966.35	80.05
955.094	2265.4269	965.2	83
955.2271	2266.8862	966	82.85
955.3602	2268.3448	965.35	79.8
955.4933	2269.8026	966.55	81.7
955.6264	2271.2598	966.05	81.25
955.7594	2272.7162	965.4	80.85
955.8924	2274.1719	965.45	79.8
956.0253	2275.6268	963.45	80.45
956.1583	2277.0811	964.5	78.55
956.2912	2278.5346	963.7	81.1
956.4241	2279.9874	966.5	81.25
956.5569	2281.4395	962.3	80.05
956.6897	2282.8908	969.5	78.3
956.8225	2284.3414	966.55	80.85
956.9553	2285.7914	968.3	85.9
957.088	2287.2406	964.9	78.45
957.2207	2288.689	962.8	75.5
957.3534	2290.1368	964.85	79.55
957.486	2291.5838	964.2	77.6
957.6186	2293.0302	965.45	78.85
957.7512	2294.4758	964.15	80.95
957.8838	2295.9206	962.65	74.85
958.0163	2297.3648	961.6	77.65
958.1488	2298.8082	965.2	80.1
958.2813	2300.251	962.1	76.65
958.4137	2301.693	961.65	74
958.5461	2303.1343	960.25	74.6
958.6785	2304.5748	960.6	77.4
958.8108	2306.0147	961.85	76.9
958.9432	2307.4538	962.15	75.15
959.0754	2308.8922	959.95	75.4
959.2077	2310.3299	960.7	75.95
959.3399	2311.7669	961.35	77.25
959.4721	2313.2031	961.75	79.15
959.6043	2314.6387	960.9	74.85
959.7365	2316.0735	960.3	75
959.8686	2317.5076	960	74.1
960.0006	2318.941	958.7	74.85
960.1327	2320.3737	959.15	74.4
960.2647	2321.8056	962.15	75.65
960.3967	2323.2369	960.8	76.65
960.5287	2324.6674	966.15	79.25
960.6606	2326.0972	964.6	79.5
960.7925	2327.5263	966.1	82.55
960.9244	2328.9547	965.2	79.95
961.0562	2330.3823	964.2	80.25
961.1881	2331.8092	963.35	74.45
961.3198	2333.2355	958.7	74.95
961.4516	2334.661	959.65	74.65
961.5833	2336.0858	957.8	71.85
961.715	2337.5098	958.85	75.4
961.8467	2338.9332	960.5	75.45
961.9783	2340.3558	959.7	72.15
962.1099	2341.7778	958.25	73.95
962.2415	2343.199	958.25	73.4
962.373	2344.6195	955.5	71
962.5045	2346.0393	956.55	72.55
962.636	2347.4583	958	72.5
962.7675	2348.8767	957.3	72.6
962.8989	2350.2943	952.1	66.4
963.0303	2351.7113	954.95	68.4
963.1617	2353.1275	955.2	70.4
963.293	2354.543	964.75	72.95
963.4243	2355.9578	955.35	70.7
963.5556	2357.3718	955.1	69.75
963.6868	2358.7852	959.4	71.55
963.818	2360.1978	956.85	72.85
963.9492	2361.6098	952.85	70.75
964.0803	2363.021	958.55	68.1
964.2114	2364.4315	954.7	70.5
964.3425	2365.8413	952.8	67.1
964.4736	2367.2504	953.05	69.4
964.6046	2368.6587	953.75	68.4
964.7356	2370.0664	949.3	63.75
964.8666	2371.4733	955.8	74.05
964.9975	2372.8795	953.95	69.6
965.1284	2374.285	950.3	64.85
965.2593	2375.6899	950.5	66.25
965.3901	2377.0939	950.2	65.25
965.5209	2378.4973	950.35	67
965.6517	2379.9	949.85	61.65
965.7825	2381.3019	952.55	67.35
965.9132	2382.7032	950.4	66.45
966.0439	2384.1037	952.3	70.6
966.1745	2385.5035	955.05	69.05
966.3051	2386.9027	952.15	66.5
966.4357	2388.3011	952.9	64.7
966.5663	2389.6987	948.65	65.65
966.6968	2391.0957	947.85	63.9
966.8273	2392.492	948.9	63.05
966.9578	2393.8876	949	62.8
967.0882	2395.2824	947.8	61.3
967.2186	2396.6765	946.85	63.15
967.349	2398.07	950.1	66.05
967.4793	2399.4627	949.3	64.8
967.6097	2400.8547	949.15	65
967.7399	2402.246	950.5	59.85
967.8702	2403.6366	950.3	64.8
968.0004	2405.0265	948.3	62.7
968.1306	2406.4156	952.15	61.9
968.2607	2407.8041	950.1	61.5
968.3909	2409.1918	945.75	58.85
968.521	2410.5789	948.3	63.8
968.651	2411.9652	949.4	63.6
968.781	2413.3508	944.7	58.05
968.911	2414.7358	947.85	61.5
969.041	2416.12	946.5	62.45
969.1709	2417.5035	942.45	59.2
969.3008	2418.8863	946.45	59.85
969.4307	2420.2684	946.2	62.15
969.5606	2421.6497	944.9	60.25
969.6904	2423.0304	940.95	57.75
969.8201	2424.4104	944.25	59.75
969.9499	2425.7896	949.45	59.4
970.0796	2427.1682	943.2	60.35
970.2093	2428.546	945.15	59.55
970.3389	2429.9232	946.6	60.85
970.4685	2431.2996	943.5	58.95
970.5981	2432.6753	943.2	57.4
970.7277	2434.0503	942.5	57.2
970.8572	2435.4246	941.05	55.75
970.9867	2436.7982	946	60.85
971.1161	2438.1711	939.95	56.2
971.2456	2439.5433	943.15	57.5
971.375	2440.9148	949.1	58.75
971.5043	2442.2856	941.35	58.5
971.6336	2443.6557	944	56.2
971.7629	2445.025	941.3	57.15
971.8922	2446.3937	942.5	57.8
972.0214	2447.7617	941.2	54.4
972.1506	2449.1289	942.15	58.3
972.2798	2450.4955	943.3	54.05
972.4089	2451.8613	938.3	54.7
972.538	2453.2265	941.35	53.85
972.6671	2454.5909	943.65	59.1
972.7961	2455.9546	942.65	59.95
972.9251	2457.3177	942.4	58.05
973.0541	2458.68	941.2	55.5
973.1831	2460.0416	938.95	53.3
973.312	2461.4025	940.6	52.4
973.4408	2462.7627	955.5	59.05
973.5697	2464.1222	935.6	50.6
973.6985	2465.4811	944.7	59.8
973.8273	2466.8392	941.1	56
973.956	2468.1966	939.85	51.85
974.0847	2469.5533	939.9	54.35
974.2134	2470.9093	942.75	56.25
974.3421	2472.2645	942.6	55.35
974.4707	2473.6191	937.5	53.8
974.5993	2474.973	938.85	54.45
974.7278	2476.3262	935.75	49.8
974.8563	2477.6787	934	49.8
974.9848	2479.0305	936.15	50.95
975.1132	2480.3816	940.65	54.1
975.2417	2481.7319	940.6	57.85
975.37	2483.0816	938.7	52.3
975.4984	2484.4306	939.7	55.15
975.6267	2485.7789	939.05	54.5
975.755	2487.1264	940.6	54.55
975.8833	2488.4733	937.9	54.85
976.0115	2489.8195	952.85	53.5
976.1397	2491.165	940	51.35
976.2678	2492.5097	938	52.3
976.3959	2493.8538	936.05	52.55
976.524	2495.1972	938.1	51.65
976.6521	2496.5398	936.65	50.2
976.7801	2497.8818	938.9	51.35
976.9081	2499.2231	937.25	52.85
977.036	2500.5637	939.1	54.1
977.164	2501.9035	935.5	50.15
977.2918	2503.2427	938.15	48.75
977.4197	2504.5812	937.4	51.8
977.5475	2505.919	936.55	50.25
977.6753	2507.256	934.6	51.3
977.8031	2508.5924	933.35	48.85
977.9308	2509.9281	939.4	48.7
978.0585	2511.2631	935.2	49.3
978.1861	2512.5974	935.1	50.25
978.3137	2513.9309	934.55	51.25
978.4413	2515.2638	962.05	49.8
978.5689	2516.596	931.9	48
978.6964	2517.9275	932.75	46
978.8239	2519.2583	933.15	48.7
978.9513	2520.5884	934.7	48.9
979.0788	2521.9178	932.95	47.25
979.2062	2523.2465	934.1	52.75
979.3335	2524.5745	931.85	47.35
979.4608	2525.9018	933.15	47.95
979.5881	2527.2284	932.6	47.3
979.7154	2528.5543	933.95	51.25
979.8426	2529.8796	932.95	48.8
979.9698	2531.2041	932.1	47.55
980.0969	2532.5279	931.45	48.95
980.224	2533.851	931.9	48.45
980.3511	2535.1735	932.35	47.3
980.4781	2536.4952	931.55	46.85
980.6052	2537.8163	933.6	49.75
980.7321	2539.1366	928.7	43.3
980.8591	2540.4562	932.2	47.1
980.986	2541.7752	929.35	45.5
981.1129	2543.0935	932	48.5
981.2397	2544.411	931.65	45.2
981.3665	2545.7279	930.05	47.1
981.4933	2547.0441	931.35	45.8
981.62	2548.3596	933.3	44.2
981.7467	2549.6744	928.75	44
981.8734	2550.9885	933.2	49.05
982.0001	2552.3019	930.25	43.95
982.1267	2553.6146	931.1	47.1
982.2532	2554.9266	929.35	44.55
982.3798	2556.2379	930.9	46.1
982.5063	2557.5485	928.35	45.65
982.6327	2558.8585	936.65	43.65
982.7592	2560.1677	932.75	46.1
982.8856	2561.4762	927.5	41.35
983.0119	2562.7841	930.5	42.05
983.1383	2564.0913	926.75	43.95
983.2646	2565.3977	928.25	44.55
983.3908	2566.7035	929.35	45.25
983.517	2568.0086	931.2	45.15
983.6432	2569.313	928.8	43.15
983.7694	2570.6167	929.6	41.75
983.8955	2571.9197	930	47.15
984.0216	2573.222	932.7	46.3
984.1476	2574.5236	928.8	42
984.2737	2575.8246	931.95	45.45
984.3996	2577.1248	931.45	43.8
984.5256	2578.4244	927.4	43.2
984.6515	2579.7232	928.8	43.8
984.7774	2581.0214	951.15	40.2
984.9032	2582.3189	929.1	47.1
985.029	2583.6157	933.25	43.55
985.1548	2584.9118	927.15	43.2
985.2806	2586.2072	927.1	41.35
985.4063	2587.5019	926.15	42.8
985.5319	2588.7959	927.7	42.65
985.6576	2590.0893	931.25	45.95
985.7832	2591.3819	925.9	42.4
985.9087	2592.6739	925.9	41.6
986.0343	2593.9652	928.85	43.7
986.1597	2595.2557	927.1	45.2
986.2852	2596.5456	927.1	39.9
986.4106	2597.8348	925.4	42.3
986.536	2599.1234	927	45.25
986.6614	2600.4112	923.85	39.85
986.7867	2601.6983	930.9	41.2
986.912	2602.9848	928.4	41.85
987.0372	2604.2705	934.45	44.5
987.1624	2605.5556	925.8	41
987.2876	2606.84	926.9	41.9
987.4128	2608.1237	928.05	42.4
987.5379	2609.4067	926.5	41.75
987.6629	2610.689	936.3	43.9
987.788	2611.9707	929.35	42.5
987.913	2613.2516	929.2	41.45
988.0379	2614.5319	923.75	38.9
988.1629	2615.8115	924.4	38.15
988.2878	2617.0903	925.5	39.3
988.4126	2618.3685	927.35	42.2
988.5375	2619.6461	924.2	38.25
988.6622	2620.9229	922.9	40.15
988.787	2622.199	925.85	41.35
988.9117	2623.4745	924.5	39.85
989.0364	2624.7493	925.15	40.45
989.161	2626.0234	923.35	38.5
989.2857	2627.2968	923.3	37.4
989.4102	2628.5695	924.4	39.35
989.5348	2629.8415	920.85	37.5
989.6593	2631.1128	923.25	37.85
989.7837	2632.3835	924.4	41.55
989.9082	2633.6535	921.5	38.7
990.0326	2634.9228	921.9	38
990.1569	2636.1914	922	36.9
990.2812	2637.4593	927.3	36.25
990.4055	2638.7265	924.65	39
990.5298	2639.9931	923.6	37.25
990.654	2641.259	923.35	36.9
990.7782	2642.5242	921.3	36.1
990.9023	2643.7887	922.5	38.7
991.0264	2645.0525	921.25	35.75
991.1505	2646.3156	921.3	36.85
991.2745	2647.5781	921.8	38.75
991.3985	2648.8398	919.4	36.85
991.5225	2650.1009	957.7	35.5
991.6464	2651.3613	923.15	38.15
991.7703	2652.6211	920.45	36.9
991.8942	2653.8801	919.15	34.05
992.018	2655.1385	920.55	33
992.1418	2656.3961	919.25	35.2
992.2655	2657.6531	922.15	37.1
992.3892	2658.9094	919.05	33.7
992.5129	2660.1651	918.85	34.3
992.6366	2661.42	918.05	32.25
992.7602	2662.6743	919.75	34.45
992.8837	2663.9279	918.1	33.4
993.0073	2665.1808	917.75	31.95
993.1307	2666.433	920.25	33.4
993.2542	2667.6846	918.25	34.9
993.3776	2668.9354	923.45	35.15
993.501	2670.1856	919.25	35
993.6244	2671.4351	919.9	36.15
993.7477	2672.6839	922.8	35.2
993.8709	2673.9321	918.4	36.35
993.9942	2675.1795	921.75	36.85
994.1174	2676.4263	920.85	38.05
994.2405	2677.6724	920.85	36.6
994.3637	2678.9179	919.75	33.2
994.4868	2680.1626	918.95	35.4
994.6098	2681.4067	919.55	32.3
994.7328	2682.6501	920.3	34.5
994.8558	2683.8928	918.1	34
994.9788	2685.1348	919.8	35.5
995.1017	2686.3761	920.05	36.55
995.2245	2687.6168	916.45	31.75
995.3474	2688.8568	918.9	35.6
995.4702	2690.0961	914.25	30.1
995.5929	2691.3348	919.85	36.1
995.7156	2692.5727	917	33.05
995.8383	2693.81	917.3	31.7
995.961	2695.0466	913.7	29.75
996.0836	2696.2826	917.25	30.75
996.2062	2697.5178	936.7	30.55
996.3287	2698.7524	916.4	30.45
996.4512	2699.9863	917.65	32.4
996.5737	2701.2195	913.95	31.35
996.6961	2702.452	917.9	33.75
996.8185	2703.6839	919.95	35.85
996.9408	2704.9151	914.55	31.6
997.0631	2706.1456	917.75	33.6
997.1854	2707.3755	918.35	32.05
997.3077	2708.6046	921.25	35.05
997.4299	2709.8331	918.4	34.55
997.552	2711.0609	920.25	34.55
997.6742	2712.2881	917.7	33.75
997.7963	2713.5145	920.6	33.5
997.9183	2714.7403	917.95	34.4
998.0403	2715.9654	917.2	29.85
998.1623	2717.1899	933.05	35.55
998.2842	2718.4136	918.35	36.25
998.4062	2719.6367	919.55	33.4
998.528	2720.8591	927.5	37
998.6498	2722.0809	924.45	38.05
998.7716	2723.3019	924.7	37.4
998.8934	2724.5223	925.05	39
999.0151	2725.7421	920.5	33.7
999.1368	2726.9611	921.3	33.6
999.2584	2728.1795	925.4	36.05
999.38	2729.3972	920.7	36.3
999.5016	2730.6142	931.9	35.55
999.6231	2731.8306	919.95	35.3
999.7446	2733.0462	921.05	33.95
999.8661	2734.2612	921.1	32.7
999.9875	2735.4756	920.15	35.25
1000.1089	2736.6892	915.05	29.6
1000.2302	2737.9022	915.1	29.8
1000.3515	2739.1145	916.65	31.25
1000.4728	2740.3262	923.85	32.05
1000.594	2741.5372	915.65	30.1
1000.7152	2742.7475	914.05	28.8
1000.8363	2743.9571	917.45	32.55
1000.9575	2745.1661	918.15	27
1001.0785	2746.3744	912.05	26.1
1001.1996	2747.582	912.85	28.9
1001.3206	2748.7889	914.6	28.35
1001.4415	2749.9952	912.2	26.65
1001.5625	2751.2008	914.35	29.7
1001.6833	2752.4057	915.2	27.65
1001.8042	2753.61	913.3	27.65
1001.925	2754.8136	912.5	27.3
1002.0458	2756.0165	911.55	28
1002.1665	2757.2188	912.7	28.9
1002.2872	2758.4204	913.15	30.55
1002.4078	2759.6213	914.1	26.6
1002.5285	2760.8215	918.4	27.55
1002.649	2762.0211	914.65	28.95
1002.7696	2763.22	915.05	26.25
1002.8901	2764.4182	915.2	30.85
1003.0106	2765.6158	911.1	26.45
1003.131	2766.8127	910.75	26.35
1003.2514	2768.009	912.1	27.15
1003.3717	2769.2045	913.4	29.3
1003.492	2770.3994	911.5	25.1
1003.6123	2771.5936	911.3	26.5
1003.7325	2772.7872	908.9	23.2
1003.8527	2773.9801	912.2	26.35
1003.9729	2775.1723	928.2	28.8
1004.093	2776.3639	908.85	25.1
1004.2131	2777.5548	911.4	24.65
1004.3331	2778.745	910.3	24.1
1004.4531	2779.9346	909.6	25.1
1004.5731	2781.1235	912	25.25
1004.693	2782.3117	910.2	24.95
1004.8129	2783.4992	909.85	26.75
1004.9328	2784.6861	910	24.45
1005.0526	2785.8723	910.85	23.15
1005.1723	2787.0579	911.55	26.2
1005.2921	2788.2428	909.45	23.95
1005.4118	2789.427	908.45	24.5
1005.5314	2790.6106	909.7	24.6
1005.651	2791.7935	910.15	25.65
1005.7706	2792.9757	906.1	21.4
1005.8902	2794.1573	911.4	22.6
1006.0097	2795.3382	909.7	25.45
1006.1291	2796.5184	908.05	25.3
1006.2485	2797.698	912.2	25.7
1006.3679	2798.8769	908.65	23.2
1006.4873	2800.0551	910.6	24
1006.6066	2801.2327	912.5	24.5
1006.7258	2802.4096	908.95	24.65
1006.8451	2803.5859	909.6	23.8
1006.9642	2804.7615	909.7	23.7
1007.0834	2805.9364	908.6	25.9
1007.2025	2807.1106	911.95	28.5
1007.3216	2808.2842	914.45	30.3
1007.4406	2809.4572	913.5	28.55
1007.5596	2810.6294	911.2	24.55
1007.6785	2811.801	911.55	28.45
1007.7975	2812.972	910.8	27.7
1007.9163	2814.1423	913.1	28.85
1008.0352	2815.3119	913.4	28.05
1008.154	2816.4808	914.45	29.95
1008.2727	2817.6491	918.15	29.85
1008.3914	2818.8167	917.05	33.85
1008.5101	2819.9837	923.25	34.4
1008.6288	2821.15	922.7	37.25
1008.7474	2822.3157	924	42.45
1008.8659	2823.4807	928.6	43.65
1008.9844	2824.645	933.75	48
1009.1029	2825.8086	934.65	49.8
1009.2214	2826.9716	935.85	51.1
1009.3398	2828.134	940.05	55.55
1009.4581	2829.2957	940.85	56.65
1009.5764	2830.4567	945.4	61.5
1009.6947	2831.617	949.1	64.9
1009.813	2832.7767	950.5	67.25
1009.9312	2833.9358	948	64.25
1010.0493	2835.0941	952.45	66.15
1010.1675	2836.2519	947.2	61.5
1010.2855	2837.4089	947.8	63.65
1010.4036	2838.5653	943.4	59.3
1010.5216	2839.7211	942.25	58.05
1010.6396	2840.8761	944.75	57.7
1010.7575	2842.0306	938.55	55.2
1010.8754	2843.1843	941.1	58.1
1010.9932	2844.3374	942.45	58.95
1011.111	2845.4899	941.95	56.8
1011.2288	2846.6417	941.45	57.05
1011.3465	2847.7928	942.75	59.45
1011.4642	2848.9433	943.4	60.5
1011.5818	2850.0931	943.1	58.8
1011.6995	2851.2422	946.75	61.3
1011.817	2852.3907	947.4	61.35
1011.9345	2853.5385	947.1	61.85
1012.052	2854.6857	972.3	60.35
1012.1695	2855.8323	941.85	57.6
1012.2869	2856.9781	947.4	61.5
1012.4042	2858.1233	947.2	64.3
1012.5216	2859.2679	948.85	62.4
1012.6389	2860.4118	955.2	68.05
1012.7561	2861.555	958.75	68.6
1012.8733	2862.6976	958.65	72.9
1012.9905	2863.8395	953.1	68.5
1013.1076	2864.9808	955.1	70.4
1013.2247	2866.1214	952.25	68.5
1013.3417	2867.2614	958.35	74.2
1013.4587	2868.4007	960.25	74.65
1013.5757	2869.5393	963.1	76.2
1013.6926	2870.6773	963.15	77.1
1013.8095	2871.8146	963.25	75.5
1013.9263	2872.9513	966.7	80.55
1014.0431	2874.0874	963.25	78.6
1014.1599	2875.2227	965.3	80.45
1014.2766	2876.3574	965.95	82.2
1014.3933	2877.4915	964.65	81.6
1014.51	2878.6249	965.55	81.2
1014.6266	2879.7577	970.5	84.55
1014.7431	2880.8898	981.75	86.6
1014.8596	2882.0212	967.85	83.65
1014.9761	2883.152	969.45	84.65
1015.0925	2884.2821	967.85	85.9
1015.2089	2885.4116	971.2	87.75
1015.3253	2886.5405	971.2	86.35
1015.4416	2887.6686	976.6	89.5
1015.5579	2888.7962	972.3	89
1015.6741	2889.923	973.65	89.1
1015.7903	2891.0493	970.35	86.55
1015.9065	2892.1748	972	86.75
1016.0226	2893.2997	969.95	86.15
1016.1387	2894.424	969.5	84.9
1016.2547	2895.5476	969.05	83.45
1016.3707	2896.6706	971.25	88.55
1016.4866	2897.7929	973.35	87.65
1016.6025	2898.9145	971.35	85.95
1016.7184	2900.0355	974.95	90.4
1016.8342	2901.1559	974.25	87.5
1016.95	2902.2756	976.65	86.9
1017.0658	2903.3946	972.7	87.75
1017.1815	2904.513	976.75	88.05
1017.2971	2905.6308	971.8	87.6
1017.4127	2906.7479	973.15	85.95
1017.5283	2907.8643	973.05	88.65
1017.6439	2908.9801	971.05	87.25
1017.7594	2910.0953	970.4	86.05
1017.8748	2911.2098	972.35	84.2
1017.9902	2912.3236	976.8	84.2
1018.1056	2913.4368	971.5	85.15
1018.2209	2914.5494	969.9	84.4
1018.3362	2915.6613	973.6	82.7
1018.4515	2916.7725	972.7	85.95
1018.5667	2917.8831	967.1	79.15
1018.6819	2918.9931	968.9	82.6
1018.797	2920.1024	966.55	80.85
1018.9121	2921.211	963.55	79.1
1019.0271	2922.319	960.9	74.9
1019.1421	2923.4264	960.85	76.2
1019.2571	2924.5331	960.9	78.15
1019.372	2925.6391	964.25	79.95
1019.4869	2926.7445	959.55	76.55
1019.6017	2927.8493	960.7	76.7
1019.7165	2928.9534	964	77.3
1019.8313	2930.0569	963	76
1019.946	2931.1597	965.85	80.3
1020.0606	2932.2619	964.9	78.8
1020.1753	2933.3634	960.8	77.25
1020.2899	2934.4643	969.35	75.75
1020.4044	2935.5645	970.5	79.4
1020.5189	2936.6641	968.4	80.35
1020.6334	2937.763	966.55	83.05
1020.7478	2938.8613	965.45	80.25
1020.8622	2939.959	969.15	80.85
1020.9765	2941.056	962.15	78.7
1021.0908	2942.1523	964.85	80.25
1021.2051	2943.248	958.3	73.05
1021.3193	2944.3431	951.85	67.6
1021.4334	2945.4375	947.6	61.2
1021.5476	2946.5313	946	64.2
1021.6617	2947.6244	944.75	59.75
1021.7757	2948.7169	943.35	58.4
1021.8897	2949.8087	938.35	52.35
1022.0037	2950.8999	936.65	52.3
1022.1176	2951.9904	931.55	49
1022.2315	2953.0803	932.4	46.2
1022.3453	2954.1696	929.15	43.4
1022.4591	2955.2582	928.8	44.4
1022.5728	2956.3462	924.85	38.95
1022.6865	2957.4335	928.95	44.25
1022.8002	2958.5202	930.35	42.35
1022.9138	2959.6062	927.25	45.55
1023.0274	2960.6916	923.7	39.2
1023.141	2961.7764	927.5	41.3
1023.2545	2962.8605	926.2	39.25
1023.3679	2963.9439	922.95	38.25
1023.4813	2965.0267	926.95	40.45
1023.5947	2966.1089	946.65	37.4
1023.708	2967.1905	926	41.1
1023.8213	2968.2714	924.6	40.2
1023.9346	2969.3516	922.7	37.35
1024.0478	2970.4312	931.2	41.8
1024.1609	2971.5102	925.65	43.3
1024.274	2972.5885	923.75	40.65
1024.3871	2973.6662	927.8	39.7
1024.5002	2974.7432	924.1	38.9
1024.6132	2975.8196	923	36.8
1024.7261	2976.8954	924.35	40.1
1024.839	2977.9705	924.15	39.25
1024.9519	2979.045	924.25	40.05
1025.0647	2980.1188	921.25	38.05
1025.1775	2981.192	923.8	39.45
1025.2902	2982.2645	924.95	39.5
1025.4029	2983.3364	922.1	38.2
1025.5156	2984.4077	919.15	35.55
1025.6282	2985.4783	927	38.35
1025.7407	2986.5483	916.1	33
1025.8532	2987.6177	916.5	31.35
1025.9657	2988.6864	916.2	30.15
1026.0782	2989.7545	917	31.55
1026.1906	2990.8219	915.05	31.05
1026.3029	2991.8887	916.8	29.2
1026.4152	2992.9548	912	26.8
1026.5275	2994.0204	911.65	28
1026.6397	2995.0852	908.3	25.6
1026.7519	2996.1495	910.4	26.05
1026.864	2997.2131	906	19.8
1026.9761	2998.276	908.9	23.85
1027.0882	2999.3383	906.5	20.75
1027.2002	3000.4	907.6	21.6
1027.3122	3001.4611	902.65	17
1027.4241	3002.5215	903.6	17.65
1027.536	3003.5812	904.3	18.5
1027.6478	3004.6404	903.8	18.2
1027.7596	3005.6989	906.75	18.7
1027.8714	3006.7567	902.75	19
1027.9831	3007.8139	931.9	16.2
1028.0947	3008.8705	903.4	17.8
1028.2064	3009.9264	921	19.25
1028.3179	3010.9818	901.2	16
1028.4295	3012.0364	898.4	13.45
1028.541	3013.0905	900.8	16.05
1028.6524	3014.1439	900.6	16.25
1028.7638	3015.1966	900.55	17.5
1028.8752	3016.2487	901.75	16.95
1028.9865	3017.3002	907.05	16.65
1029.0978	3018.3511	900.45	16.25
1029.209	3019.4013	900.95	15.4
1029.3202	3020.4509	896.85	12.8
1029.4314	3021.4998	898.6	14.45
1029.5425	3022.5481	901.35	17.9
1029.6535	3023.5958	900.3	14.8
1029.7645	3024.6428	900.9	14.6
1029.8755	3025.6892	899.25	17.5
1029.9864	3026.735	899.45	13.85
1030.0973	3027.7802	897.7	13.85
1030.2082	3028.8247	898.95	14.5
1030.319	3029.8685	899.65	14.45
1030.4297	3030.9118	902.7	16.05
1030.5404	3031.9544	898.2	13.25
1030.6511	3032.9963	898.35	13.3
1030.7617	3034.0376	896.55	11.8
1030.8723	3035.0783	900.85	12.2
1030.9829	3036.1184	900.8	16.15
1031.0934	3037.1578	896.95	13.9
1031.2038	3038.1966	901.35	16.05
1031.3142	3039.2348	895.8	12
1031.4246	3040.2723	907.75	16.75
1031.5349	3041.3092	897.9	16.15
1031.6452	3042.3455	902.65	19.45
1031.7554	3043.3811	899.3	13.45
1031.8656	3044.4161	901.1	17.1
1031.9758	3045.4505	896.9	13.45
1032.0859	3046.4842	898.9	13.35
1032.1959	3047.5173	899.9	15.95
1032.3059	3048.5498	898.85	14.2
1032.4159	3049.5816	899.7	11.2
1032.5258	3050.6128	899.55	14.15
1032.6357	3051.6434	899.85	13.75
1032.7455	3052.6734	898.55	13.15
1032.8553	3053.7027	899.15	13.95
1032.9651	3054.7314	897.9	14
1033.0748	3055.7594	898.85	13.55
1033.1845	3056.7868	899.4	14.7
1033.2941	3057.8136	898.55	15.4
1033.4037	3058.8398	899.05	15
1033.5132	3059.8653	900.7	15.15
1033.6227	3060.8902	898.85	13.65
1033.7321	3061.9145	899	14.15
1033.8415	3062.9381	899.35	14.5
1033.9509	3063.9612	914.05	12.95
1034.0602	3064.9835	899.55	14.1
1034.1694	3066.0053	902.6	15.65
1034.2787	3067.0264	898.6	15.45
1034.3878	3068.0469	900.4	13.7
1034.497	3069.0668	903.8	14.6
1034.6061	3070.086	898.9	15.35
1034.7151	3071.1046	902.65	15.15
1034.8241	3072.1226	900.25	14.65
1034.9331	3073.1399	899.75	14.3
1035.042	3074.1567	898.9	11.2
1035.1508	3075.1727	901.85	16.45
1035.2597	3076.1882	898.4	13
1035.3684	3077.203	898.95	13.5
1035.4772	3078.2173	898.4	13.25
1035.5859	3079.2308	901.8	13.5
1035.6945	3080.2438	900.5	15.1
1035.8031	3081.2561	897	13.95
1035.9117	3082.2678	893.95	9.3
1036.0202	3083.2789	895.8	9.4
1036.1286	3084.2893	895.15	10.4
1036.2371	3085.2991	897.6	13.45
1036.3454	3086.3083	902.4	12
1036.4538	3087.3169	897.7	11.5
1036.562	3088.3248	899.3	15.15
1036.6703	3089.3321	896.15	10.45
1036.7785	3090.3388	894.7	12
1036.8866	3091.3449	894.65	11.35
1036.9948	3092.3503	898.35	9.15
1037.1028	3093.3551	893.95	11.6
1037.2108	3094.3593	893.4	10.4
1037.3188	3095.3629	895.9	13.5
1037.4267	3096.3658	897.1	10.75
1037.5346	3097.3681	893.55	9.2
1037.6425	3098.3698	897.55	11.9
1037.7503	3099.3708	896.1	11.8
1037.858	3100.3713	894.7	9.85
1037.9657	3101.3711	894.6	10.75
1038.0734	3102.3702	1033.8	7.75
1038.181	3103.3688	897.9	12.45
1038.2886	3104.3667	893.8	8.9
1038.3961	3105.364	894.25	11.4
1038.5036	3106.3607	897.4	10.95
1038.611	3107.3568	895.65	10.05
1038.7184	3108.3522	892.55	8.75
1038.8257	3109.347	895.3	9.4
1038.933	3110.3412	898.3	10.25
1039.0403	3111.3348	892.15	6.7
1039.1475	3112.3277	893.75	9.15
1039.2547	3113.32	892.35	7.7
1039.3618	3114.3117	895.85	11.4
1039.4689	3115.3028	893.4	7.45
1039.5759	3116.2932	892.4	7.4
1039.6829	3117.2831	897.3	6.85
1039.7898	3118.2723	893.55	8.9
1039.8967	3119.2608	891.8	7.55
1040.0035	3120.2488	894	10.6
1040.1103	3121.2361	892.1	7.05
1040.2171	3122.2229	893.2	10.1
1040.3238	3123.209	895.95	9.6
1040.4305	3124.1944	893.1	9.95
1040.5371	3125.1793	893.75	7
1040.6437	3126.1635	892.55	9.55
1040.7502	3127.1471	891.75	7.9
1040.8567	3128.1301	891.75	6.1
1040.9631	3129.1125	891.1	7.65
1041.0695	3130.0942	893.25	7.15
1041.1759	3131.0753	902.05	9
1041.2822	3132.0558	894.65	6.65
1041.3884	3133.0357	893.1	6.05
1041.4946	3134.015	893.2	7.95
1041.6008	3134.9936	893.2	6.85
1041.7069	3135.9716	913.05	8.25
1041.813	3136.949	893	7.25
1041.919	3137.9258	911.25	10.2
1042.025	3138.902	897.35	6.05
1042.1309	3139.8775	890.95	6.55
1042.2368	3140.8524	890.2	6.65
1042.3427	3141.8267	893.15	6.95
1042.4485	3142.8004	893.3	8.7
1042.5542	3143.7735	897.3	6.8
1042.6599	3144.7459	892.05	7.2
1042.7656	3145.7178	893.9	9.4
1042.8712	3146.689	889.8	5.7
1042.9768	3147.6596	892.8	4.55
1043.0823	3148.6295	893.1	7.8
1043.1878	3149.5989	891.95	6
1043.2932	3150.5676	890.25	7.05
1043.3986	3151.5357	890.2	6.4
1043.5039	3152.5032	889.7	3.55
1043.6092	3153.4701	891.65	6.55
1043.7145	3154.4364	895.2	7.8
1043.8197	3155.402	889.85	6.4
1043.9248	3156.367	892.9	6.95
1044.03	3157.3315	911.25	7.75
1044.135	3158.2952	891.2	7.5
1044.24	3159.2584	889.45	5.05
1044.345	3160.221	889.2	5.15
1044.4499	3161.1829	891.05	5.3
1044.5548	3162.1442	890	6.05
1044.6596	3163.105	891.35	6.95
1044.7644	3164.065	891.5	6.15
1044.8692	3165.0245	893.05	6.15
1044.9739	3165.9834	889.65	5.55
1045.0785	3166.9416	891.6	5.2
1045.1831	3167.8993	891.65	7.35
1045.2877	3168.8563	891	6.15
1045.3922	3169.8127	890.3	4.55
1045.4966	3170.7684	891.35	7.35
1045.6011	3171.7236	889.6	2.15
1045.7054	3172.6782	891.3	7.9
1045.8098	3173.6321	890.85	5.2
1045.914	3174.5854	893.7	4.75
1046.0183	3175.5381	890.35	3.9
1046.1224	3176.4902	890.3	6
1046.2266	3177.4417	889.65	5.25
1046.3307	3178.3926	889.6	5.9
1046.4347	3179.3428	891.05	6.8
1046.5387	3180.2924	888.15	4.3
1046.6427	3181.2415	890.9	6.05
1046.7466	3182.1899	892.8	7.7
1046.8504	3183.1377	891.5	7.35
1046.9542	3184.0848	892.4	3.85
1047.058	3185.0314	891.45	6.85
1047.1617	3185.9773	889.55	4.3
1047.2654	3186.9227	892.55	6.45
1047.369	3187.8674	891.15	7.5
1047.4726	3188.8115	893.25	4.95
1047.5761	3189.755	890	5.45
1047.6796	3190.6979	889.75	4.9
1047.783	3191.6402	888.85	4.7
1047.8864	3192.5818	889.25	3.3
1047.9898	3193.5229	903.55	5.85
1048.0931	3194.4633	890.2	5.9
1048.1963	3195.4031	890.85	7.2
1048.2995	3196.3423	887	2.4
1048.4027	3197.2809	890.45	4.95
1048.5058	3198.2189	890.7	6.8
1048.6089	3199.1563	907.7	5.7
1048.7119	3200.0931	888.15	3.2
1048.8148	3201.0292	888.95	6.95
1048.9178	3201.9648	890.5	4.95
1049.0206	3202.8997	893.05	4.7
1049.1235	3203.834	891.65	7.55
1049.2262	3204.7677	890.45	5.35
1049.329	3205.7008	891.9	4.95
1049.4317	3206.6333	886.9	1.3
1049.5343	3207.5652	891.8	5.55
1049.6369	3208.4964	888.8	5.1
1049.7394	3209.4271	887.9	2.3
1049.8419	3210.3571	888.2	3.4
1049.9444	3211.2865	890.5	6.4
1050.0468	3212.2154	889.9	4.5
1050.1491	3213.1436	891.45	5.05
1050.2514	3214.0712	896.4	5.2
1050.3537	3214.9982	890.5	4.9
1050.4559	3215.9246	889.45	5.1
1050.5581	3216.8503	890.6	5.4
1050.6602	3217.7755	889.05	4.6
1050.7623	3218.7001	889.3	4.5
1050.8643	3219.624	890.5	5.05
1050.9663	3220.5473	888.4	4.2
1051.0682	3221.4701	890	3.4
1051.1701	3222.3922	889.7	3.95
1051.2719	3223.3137	887.3	2.25
1051.3737	3224.2346	889.5	3.25
1051.4754	3225.1549	887.45	4.15
1051.5771	3226.0746	888.5	3.35
1051.6788	3226.9937	890.65	6.85
1051.7804	3227.9121	888.5	4
1051.8819	3228.83	890.6	4.6
1051.9834	3229.7473	890.95	6.1
1052.0849	3230.6639	888.55	4.8
1052.1863	3231.5799	886.95	2.75
1052.2876	3232.4954	891.3	5.1
1052.3889	3233.4102	887.85	2.75
1052.4902	3234.3244	889.4	5.4
1052.5914	3235.238	888.7	3.35
1052.6926	3236.151	913.25	2.5
1052.7937	3237.0634	888.75	3.2
1052.8948	3237.9752	886.55	1.25
1052.9958	3238.8864	889.4	5.9
1053.0968	3239.797	889.7	6
1053.1977	3240.7069	889.85	5.25
1053.2986	3241.6163	890.55	5
1053.3994	3242.5251	888.65	5.5
1053.5002	3243.4332	887.15	3.95
1053.6009	3244.3408	888.9	2.65
1053.7016	3245.2477	888.55	3.85
1053.8022	3246.154	890.7	5.7
1053.9028	3247.0598	890.25	4.7
1054.0034	3247.9649	890.05	4.4
1054.1039	3248.8694	888.65	3.8
1054.2043	3249.7733	888.35	2.2
1054.3047	3250.6766	887.55	3.3
1054.4051	3251.5793	891.6	5.45
1054.5054	3252.4814	888.7	5.15
1054.6056	3253.3829	888.5	4.65
1054.7058	3254.2838	886.75	2.25
1054.806	3255.1841	887.85	3.5
1054.9061	3256.0838	887.3	2.3
1055.0061	3256.9829	887.25	3.65
1055.1062	3257.8814	888.85	0.5
1055.2061	3258.7792	891.4	2.9
1055.306	3259.6765	888.5	4.15
1055.4059	3260.5731	885.85	1.35
1055.5057	3261.4692	887	4.8
1055.6055	3262.3647	888.4	4.1
1055.7052	3263.2595	888.9	3.3
1055.8049	3264.1538	888.65	4.15
1055.9045	3265.0474	889.7	2.9
1056.0041	3265.9404	887.95	5.35
1056.1036	3266.8329	888.8	5.45
1056.2031	3267.7247	898.3	4.45
1056.3025	3268.616	886.65	6.1
1056.4019	3269.5066	888.7	2.45
1056.5013	3270.3966	888.6	1.3
1056.6005	3271.286	884.65	2.05
