Software Version:	3.9.2.0
Unit SN:	10000200
Spectrometer SN:	6960
Date:	3/14/2024 12:43:10 PM
Data Line Index:	25
Spectral Points:	2048
Integration time (ms):	125
Averages:	20
Delay (ms):	30000
Sequence Number:	1
Processing:	dark subtract
Laser Power (mW):	300
Laser Current (mA):	823
Laser Diode Temp (C):	25
Laser Case Temp (C):	27.2
System Temp (C):	27.2
Spectrometer Temp (C):	24.9
CCD Temp (C):	0.005
Secondary Temp (C):	20.01
Heatsink Temp (C):	23.186
CCDPCB Temp (C):	36.885
SecondaryPCB Temp (C):	34.417

Wavelength	RamanShift	Raw Counts	Dark Subtracted
787.061	30.1047	418.5	6.45
787.2016	32.3739	417.65	6.85
787.3422	34.6426	417.45	5.55
787.4828	36.9109	418.8	3.8
787.6235	39.1787	422.5	3.45
787.7642	41.4461	429.9	7.15
787.9049	43.7131	434.15	6.8
788.0456	45.9796	436.95	8.5
788.1863	48.2456	441.9	7.3
788.3271	50.5112	449.1	12.55
788.4679	52.7764	449.9	9.75
788.6087	55.0411	453.5	8.9
788.7496	57.3054	457.45	11.3
788.8904	59.5692	462.8	13.95
789.0313	61.8326	466.95	14.4
789.1722	64.0955	472.75	16.85
789.3132	66.3579	480.9	18.25
789.4541	68.6199	485.15	22
789.5951	70.8815	492.3	24.15
789.7361	73.1426	506.2	35.75
789.8771	75.4032	535.65	62.2
790.0181	77.6634	599	119.45
790.1592	79.9231	730.8	246.35
790.3003	82.1824	1031.35	541.4
790.4414	84.4412	1522.9	1025.4
790.5825	86.6995	2177.8	1670.8
790.7237	88.9574	2808.35	2293.2
790.8648	91.2148	3256.05	2736.95
791.006	93.4717	3471.65	2948.15
791.1472	95.7282	3524.5	2998.25
791.2885	97.9842	3538.25	3008.4
791.4297	100.2398	3526.7	2993.95
791.571	102.4949	3508.15	2970.9
791.7123	104.7495	3484.15	2941.9
791.8536	107.0036	3436	2894.3
791.9949	109.2573	3399.8	2861.55
792.1363	111.5105	3363.1	2821.45
792.2777	113.7632	3302.55	2759.05
792.4191	116.0154	3248.4	2696.55
792.5605	118.2672	3170.35	2621.35
792.7019	120.5185	3111.15	2562.35
792.8434	122.7693	3062.25	2511.5
792.9849	125.0197	3002.9	2450.65
793.1264	127.2696	2960.7	2404.55
793.2679	129.519	2931.95	2372.35
793.4094	131.7679	2911.35	2351.7
793.551	134.0163	2897.8	2334
793.6926	136.2642	2905.35	2333.85
793.8342	138.5117	2896.5	2323.25
793.9758	140.7587	2882.6	2309.65
794.1175	143.0052	2863.75	2288.55
794.2591	145.2512	2814.95	2235.2
794.4008	147.4967	2783.2	2204.7
794.5425	149.7417	2745.85	2166.55
794.6842	151.9863	2738.8	2156.7
794.826	154.2304	2740.25	2153.05
794.9677	156.4739	2724.9	2130.15
795.1095	158.717	2734.4	2144.3
795.2513	160.9596	2732	2134
795.3931	163.2017	2742.95	2142.7
795.535	165.4433	2764.3	2160.75
795.6768	167.6844	2761.7	2157.4
795.8187	169.925	2735.1	2128.2
795.9606	172.1651	2703.4	2092.6
796.1025	174.4047	2683.8	2072.35
796.2445	176.6439	2656.4	2043.1
796.3864	178.8825	2633.85	2015.8
796.5284	181.1206	2617.1	1995.25
796.6704	183.3582	2609.65	1984.45
796.8124	185.5954	2617.65	1990.95
796.9544	187.832	2611.5	1982.25
797.0965	190.0681	2604.6	1972.75
797.2386	192.3037	2603.9	1968.15
797.3806	194.5388	2603.05	1964.4
797.5228	196.7734	2610.85	1969.2
797.6649	199.0075	2630.05	1983.8
797.807	201.2411	2645.7	1996.6
797.9492	203.4742	2644.55	1997.05
798.0914	205.7068	2654.5	2006.1
798.2336	207.9389	2687.45	2037.3
798.3758	210.1704	2688.2	2036.45
798.518	212.4015	2692.6	2035.3
798.6603	214.632	2694.35	2037.45
798.8025	216.862	2683	2033.7
798.9448	219.0915	2676.7	2034.2
799.0871	221.3205	2675.1	2034.6
799.2294	223.549	2675.65	2043.7
799.3718	225.777	2663.95	2028.2
799.5141	228.0044	2661.8	2021.85
799.6565	230.2314	2667	2031.7
799.7989	232.4578	2658.8	2020.7
799.9413	234.6837	2644.2	1997.55
800.0837	236.909	2640.7	1992.5
800.2262	239.1339	2644.7	1973.65
800.3687	241.3582	2632	1977.9
800.5111	243.582	2638.4	1957.05
800.6536	245.8053	2641.05	1965.95
800.7961	248.0281	2635.55	1965.9
800.9387	250.2503	2648.35	1972.9
801.0812	252.472	2649.2	1970.75
801.2238	254.6932	2655.8	1971.95
801.3664	256.9139	2658.8	1973.8
801.509	259.134	2663.5	1977.2
801.6516	261.3536	2670.5	1987.25
801.7942	263.5727	2687.85	1998.65
801.9369	265.7912	2713.85	2025.6
802.0795	268.0092	2751.2	2064.8
802.2222	270.2267	2776.05	2086.75
802.3649	272.4436	2803.9	2112.15
802.5076	274.6601	2836.75	2134.25
802.6504	276.8759	2831.7	2139.1
802.7931	279.0913	2850.3	2155.75
802.9359	281.3061	2853.95	2157.8
803.0787	283.5204	2852	2150.9
803.2215	285.7341	2870.95	2165.25
803.3643	287.9473	2889.55	2183.5
803.5071	290.16	2886.7	2177.3
803.6499	292.3721	2858.1	2151.7
803.7928	294.5837	2838.2	2129.8
803.9357	296.7947	2802.55	2096.8
804.0786	299.0052	2785.05	2080.8
804.2215	301.2152	2782.55	2073.7
804.3644	303.4246	2771.45	2067.05
804.5074	305.6334	2758.15	2051.6
804.6503	307.8418	2746.3	2036.8
804.7933	310.0495	2733.1	2022.2
804.9363	312.2568	2696.95	1987.15
805.0793	314.4635	2668.6	1957.25
805.2223	316.6696	2649.85	1937.6
805.3653	318.8752	2601.95	1880.9
805.5084	321.0802	2583.3	1868.4
805.6514	323.2847	2577.6	1861.25
805.7945	325.4887	2569.65	1852.45
805.9376	327.692	2581.2	1863.4
806.0807	329.8949	2607.7	1889.25
806.2238	332.0972	2631.9	1912.15
806.367	334.2989	2661.65	1937.25
806.5101	336.5001	2644.65	1918.4
806.6533	338.7007	2632.65	1905.45
806.7965	340.9008	2605.35	1878.3
806.9397	343.1003	2569.15	1839.4
807.0829	345.2992	2524.35	1791.7
807.2261	347.4976	2497.2	1764.15
807.3693	349.6955	2479.5	1742.6
807.5126	351.8927	2471.95	1735.85
807.6559	354.0895	2467.05	1719.2
807.7991	356.2856	2447.65	1708.85
807.9424	358.4812	2431.05	1692.1
808.0857	360.6763	2425.1	1686.3
808.2291	362.8707	2423.8	1684.45
808.3724	365.0646	2423.4	1680.25
808.5158	367.258	2426.55	1680.65
808.6591	369.4508	2442.2	1694
808.8025	371.643	2459.25	1710.75
808.9459	373.8346	2473.9	1722.3
809.0893	376.0257	2493.2	1737.45
809.2327	378.2162	2511.9	1753.7
809.3762	380.4062	2501	1742.75
809.5196	382.5956	2492.9	1733
809.6631	384.7844	2458.75	1701.15
809.8066	386.9726	2435.1	1676.75
809.9501	389.1603	2420.5	1661.55
810.0936	391.3474	2426.2	1632.45
810.2371	393.5339	2409.5	1648.05
810.3806	395.7199	2401.1	1644.85
810.5241	397.9052	2409.65	1657.55
810.6677	400.09	2412.75	1662.15
810.8113	402.2743	2452.75	1700.25
810.9548	404.4579	2468.95	1717.55
811.0984	406.641	2490.3	1737.6
811.2421	408.8235	2530	1776.45
811.3857	411.0054	2561.3	1804.95
811.5293	413.1868	2631.05	1873.7
811.673	415.3675	2704.1	1945.5
811.8166	417.5477	2716.25	1956.9
811.9603	419.7273	2659.65	1894.9
812.104	421.9064	2558.45	1786.2
812.2477	424.0848	2497.35	1730.9
812.3914	426.2627	2452.8	1681.95
812.5351	428.4399	2417.9	1645.25
812.6788	430.6166	2390.2	1613.55
812.8226	432.7928	2353.15	1577.4
812.9663	434.9683	2321.55	1545.3
813.1101	437.1432	2295.2	1518
813.2539	439.3176	2277.55	1498.75
813.3977	441.4914	2265.85	1488.15
813.5415	443.6645	2272.2	1490.5
813.6853	445.8371	2264.85	1486.35
813.8291	448.0091	2266.7	1484.9
813.973	450.1806	2258.9	1476.6
814.1168	452.3514	2255.45	1472.4
814.2607	454.5216	2257.1	1463.8
814.4046	456.6913	2240.8	1453.8
814.5485	458.8603	2243.95	1458.95
814.6924	461.0288	2250.65	1464.7
814.8363	463.1967	2244.7	1460.35
814.9802	465.3639	2243.4	1457.25
815.1241	467.5306	2229.15	1440.85
815.2681	469.6967	2228.3	1440.85
815.412	471.8622	2219.2	1429.55
815.556	474.0271	2220.1	1432.9
815.7	476.1914	2217.9	1424.75
815.844	478.3551	2207.1	1417.3
815.988	480.5182	2210	1418.95
816.132	482.6807	2212.55	1418.8
816.276	484.8426	2220.7	1428.25
816.4201	487.0039	2246.8	1452.2
816.5641	489.1647	2275.5	1481.55
816.7082	491.3248	2312.55	1519.9
816.8522	493.4843	2315.7	1522.4
816.9963	495.6432	2305.15	1511.45
817.1404	497.8015	2279.1	1478.85
817.2845	499.9592	2249.6	1455.4
817.4286	502.1163	2216.25	1419.85
817.5727	504.2728	2193.55	1394.05
817.7168	506.4287	2177.35	1379.9
817.861	508.5839	2167.2	1368.55
818.0051	510.7386	2156.5	1358.1
818.1493	512.8927	2173.3	1367.35
818.2935	515.0461	2170.65	1372.45
818.4377	517.199	2172.8	1373.15
818.5818	519.3512	2202.15	1401.2
818.726	521.5029	2243.95	1435.8
818.8703	523.6539	2280.35	1476.8
819.0145	525.8043	2289.25	1485.2
819.1587	527.9541	2249	1442.85
819.303	530.1033	2204.95	1400.7
819.4472	532.2519	2171.35	1368.9
819.5915	534.3999	2151	1344.5
819.7357	536.5472	2144.35	1335.75
819.88	538.694	2154.75	1347.45
820.0243	540.8401	2151.8	1344.85
820.1686	542.9856	2165.75	1356.6
820.3129	545.1305	2179	1370.9
820.4572	547.2748	2179.95	1370.9
820.6016	549.4185	2184.65	1375.85
820.7459	551.5615	2193.85	1385.8
820.8902	553.704	2208.55	1399.75
821.0346	555.8458	2198.7	1388.35
821.1789	557.987	2224.9	1416.4
821.3233	560.1276	2233.3	1421.55
821.4677	562.2675	2263.05	1451.85
821.6121	564.4069	2306.4	1495.55
821.7565	566.5456	2328.4	1517.25
821.9009	568.6837	2319.95	1505.25
822.0453	570.8212	2280.55	1467.85
822.1897	572.958	2232.85	1417.15
822.3342	575.0942	2208.45	1394.35
822.4786	577.2299	2182.25	1367.75
822.6231	579.3648	2153.9	1339.3
822.7675	581.4992	2134	1319.15
822.912	583.6329	2130.3	1314.25
823.0565	585.766	2143.65	1328.05
823.201	587.8985	2169.4	1353.75
823.3454	590.0304	2198.7	1368.65
823.4899	592.1616	2211.85	1393
823.6345	594.2922	2227.7	1408.05
823.779	596.4222	2190.35	1372.9
823.9235	598.5515	2163.45	1345.2
824.068	600.6802	2117.1	1297.5
824.2126	602.8083	2098.9	1278.15
824.3571	604.9358	2083.95	1263.35
824.5017	607.0626	2069.1	1246.5
824.6462	609.1888	2081.75	1257.7
824.7908	611.3144	2092.4	1268.4
824.9354	613.4393	2123.05	1301.1
825.08	615.5636	2155.4	1332
825.2246	617.6873	2178.75	1355.3
825.3692	619.8103	2204.6	1381.35
825.5138	621.9327	2209.85	1382.3
825.6584	624.0544	2173.2	1348.45
825.803	626.1756	2141.6	1318.5
825.9477	628.2961	2101.35	1275.15
826.0923	630.4159	2090.35	1263.55
826.237	632.5351	2090.45	1265.15
826.3816	634.6537	2086.6	1258.75
826.5263	636.7716	2072.05	1243.05
826.6709	638.8889	2065.7	1235.95
826.8156	641.0056	2074.15	1247.25
826.9603	643.1216	2072.05	1242.95
827.105	645.237	2082.9	1254.1
827.2497	647.3518	2066.15	1237.1
827.3944	649.4659	2052.9	1222.2
827.5391	651.5793	2040.85	1210.05
827.6838	653.6922	2033.85	1205.2
827.8285	655.8043	2018.65	1188.25
827.9733	657.9159	2006.2	1173.95
828.118	660.0268	1999.95	1167.05
828.2627	662.137	2006.8	1174.25
828.4075	664.2466	2015.05	1179.9
828.5522	666.3556	2000.95	1166.25
828.697	668.4639	1996.55	1161.7
828.8418	670.5716	2000.7	1166.3
828.9865	672.6786	1983.05	1146.55
829.1313	674.785	1987.45	1152.1
829.2761	676.8907	1979.2	1142.55
829.4209	678.9958	1975.4	1142
829.5657	681.1002	1976.5	1139.2
829.7105	683.204	1978.6	1137.8
829.8553	685.3072	1986.1	1150.25
830.0001	687.4097	1976.2	1139.6
830.1449	689.5115	1971.4	1132.1
830.2898	691.6127	1966.25	1129.6
830.4346	693.7132	1977.9	1139.6
830.5794	695.8131	1974.3	1129.4
830.7243	697.9123	1968.6	1129.75
830.8691	700.0109	1966.95	1126.95
831.014	702.1089	1981.65	1143.15
831.1588	704.2061	1973.85	1134.75
831.3037	706.3028	2000.65	1159.95
831.4486	708.3987	2005.9	1165.85
831.5935	710.4941	2013.25	1173.8
831.7383	712.5887	2023.2	1180.5
831.8832	714.6827	2022.9	1176.75
832.0281	716.7761	2011.3	1169.2
832.173	718.8688	2014.8	1173.2
832.3179	720.9608	2018.5	1173.4
832.4628	723.0522	2022.9	1177.4
832.6077	725.1429	2025.1	1184.65
832.7527	727.233	2054.45	1211.8
832.8976	729.3224	2097.2	1254.1
833.0425	731.4112	2135.15	1291.05
833.1874	733.4993	2140.8	1294.9
833.3324	735.5867	2113.8	1268.65
833.4773	737.6735	2066.85	1220.65
833.6222	739.7596	2038.9	1190.85
833.7672	741.845	2021.65	1174.4
833.9122	743.9298	2029.7	1182.35
834.0571	746.014	2024	1180
834.2021	748.0974	2046.95	1200.55
834.347	750.1802	2037.65	1190.4
834.492	752.2624	2032.45	1186.85
834.637	754.3439	2022.9	1173.75
834.782	756.4247	2009.35	1152.35
834.9269	758.5048	1993.7	1144.65
835.0719	760.5843	1994.55	1145.7
835.2169	762.6631	2020.1	1171.25
835.3619	764.7413	2040.15	1194
835.5069	766.8188	2090.55	1240.85
835.6519	768.8956	2142.9	1291.9
835.7969	770.9718	2181.55	1331.35
835.9419	773.0473	2159.65	1311.85
836.0869	775.1221	2148.6	1298.05
836.232	777.1962	2124.8	1273.85
836.377	779.2697	2174.95	1324.65
836.522	781.3426	2247.9	1387.6
836.667	783.4147	2279	1428.5
836.8121	785.4862	2285.3	1436.45
836.9571	787.557	2221.85	1370.5
837.1021	789.6271	2139.25	1288.85
837.2472	791.6966	2050.5	1198.4
837.3922	793.7654	1985.6	1132.2
837.5373	795.8335	1954.1	1101.95
837.6823	797.901	1933.5	1083.5
837.8274	799.9678	1923.5	1067.95
837.9724	802.0339	1921.55	1071.35
838.1175	804.0993	1938.7	1078.45
838.2626	806.1641	1924.2	1069.25
838.4076	808.2282	1911.35	1059.5
838.5527	810.2916	1901.85	1047.65
838.6978	812.3544	1892.4	1038.4
838.8428	814.4164	1881.1	1029.2
838.9879	816.4778	1888.25	1035.9
839.133	818.5385	1890.05	1036.75
839.2781	820.5986	1906.25	1051.3
839.4232	822.658	1954.8	1099.6
839.5682	824.7166	1984.5	1130.1
839.7133	826.7747	2041.95	1185.3
839.8584	828.832	2079.8	1223.5
840.0035	830.8886	2128.5	1272.45
840.1486	832.9446	2139.9	1282.5
840.2937	834.9999	2124	1270.95
840.4388	837.0545	2078.65	1219.7
840.5839	839.1085	2021.9	1165.7
840.729	841.1618	1972.6	1114.25
840.8741	843.2143	1937.9	1081
841.0192	845.2662	1912.1	1056.65
841.1643	847.3175	1901.5	1046.8
841.3095	849.368	1891	1033.55
841.4546	851.4179	1895.1	1036.95
841.5997	853.467	1888.1	1030.75
841.7448	855.5155	1895.35	1037.8
841.8899	857.5633	1888.4	1032.2
842.0351	859.6105	1884.5	1027.35
842.1802	861.6569	1872.75	1013.45
842.3253	863.7027	1865.8	1006.9
842.4704	865.7478	1858.4	999.05
842.6156	867.7922	1848.65	992.2
842.7607	869.8359	1842.45	983.9
842.9058	871.8789	1835.1	974.45
843.0509	873.9212	1873	979.2
843.1961	875.9629	1835.45	975.9
843.3412	878.0039	1852.55	991.9
843.4863	880.0441	1866.1	1007.7
843.6315	882.0837	1875.85	1014.8
843.7766	884.1226	1885.2	1023.35
843.9218	886.1609	1897.85	1039.5
844.0669	888.1984	1935.55	1077.75
844.212	890.2352	1972	1113.45
844.3572	892.2714	1969.35	1105.4
844.5023	894.3069	1947.05	1085.15
844.6475	896.3416	1929.4	1069.2
844.7926	898.3757	1887.25	1027.25
844.9377	900.4091	1873.1	1013.2
845.0829	902.4418	1874	1007.2
845.228	904.4739	1886.8	1024.55
845.3732	906.5052	1892.65	1032.25
845.5183	908.5358	1892.25	1029.9
845.6635	910.5658	1884.45	1020.3
845.8086	912.595	1857.55	997.55
845.9538	914.6236	1833.95	970.9
846.0989	916.6515	1810.95	948.8
846.2441	918.6786	1804.6	941.15
846.3892	920.7051	1791.35	927.15
846.5344	922.7309	1782.8	920.8
846.6795	924.756	1783.25	917.75
846.8246	926.7804	1788.25	923.65
846.9698	928.8041	1794.7	927.9
847.1149	930.8272	1805.35	940.65
847.2601	932.8495	1807.2	941.95
847.4052	934.8711	1816.65	950.85
847.5504	936.892	1809.75	945.3
847.6955	938.9123	1836.05	970.25
847.8407	940.9318	1845.25	980.95
847.9858	942.9506	1850.95	985.75
848.131	944.9688	1841.2	977.4
848.2761	946.9862	1823	958.45
848.4213	949.003	1814.25	948.8
848.5664	951.019	1789.4	924.75
848.7115	953.0344	1773.1	905.85
848.8567	955.0491	1771.8	904.65
849.0018	957.063	1762.3	896.5
849.147	959.0763	1764.1	900.2
849.2921	961.0888	1764.55	895.1
849.4373	963.1007	1751.65	885
849.5824	965.1119	1749.45	883.2
849.7275	967.1223	1748.4	882.7
849.8727	969.1321	1752.25	886.25
850.0178	971.1412	1731.3	864.3
850.1629	973.1495	1736.2	868.65
850.3081	975.1572	1786.95	863.65
850.4532	977.1641	1735.5	870.45
850.5983	979.1704	1741.5	873.7
850.7435	981.1759	1742.9	873.3
850.8886	983.1808	1731.65	861.35
851.0337	985.1849	1730.2	849
851.1788	987.1884	1714.45	843.6
851.324	989.1911	1717.8	846.95
851.4691	991.1932	1722.7	853.3
851.6142	993.1945	1716	849.15
851.7593	995.1951	1721.55	852.45
851.9045	997.1951	1722.4	849.2
852.0496	999.1943	1711.4	844.2
852.1947	1001.1928	1705.95	835.35
852.3398	1003.1906	1714.7	845.15
852.4849	1005.1877	1724.5	853.85
852.63	1007.1841	1740.9	871.25
852.7751	1009.1798	1754.05	886.7
852.9202	1011.1748	1742.05	874.6
853.0653	1013.1691	1722.55	852.3
853.2104	1015.1627	1705.9	837.5
853.3555	1017.1556	1687.15	816.45
853.5006	1019.1477	1672.55	801.45
853.6457	1021.1392	1652.85	785.4
853.7908	1023.1299	1649.9	780.6
853.9359	1025.12	1642.05	768.15
854.081	1027.1093	1660.25	790.75
854.2261	1029.0979	1665.1	795.35
854.3712	1031.0859	1669.75	800.15
854.5163	1033.0731	1680.7	810.05
854.6613	1035.0596	1670	799.25
854.8064	1037.0454	1676.05	806
854.9515	1039.0304	1660.05	789.85
855.0965	1041.0148	1641.55	771.55
855.2416	1042.9985	1630.6	757.9
855.3867	1044.9814	1632.45	762.4
855.5317	1046.9636	1620.25	746.45
855.6768	1048.9452	1619.3	750.25
855.8219	1050.926	1635.9	766
855.9669	1052.9061	1640.2	769.75
856.112	1054.8855	1639.9	767
856.257	1056.8642	1645.05	773.95
856.4021	1058.8421	1650.9	774.4
856.5471	1060.8194	1628.95	757.15
856.6921	1062.7959	1628.45	758.15
856.8372	1064.7717	1634.75	762
856.9822	1066.7469	1634.9	761.65
857.1272	1068.7213	1627.4	753.75
857.2723	1070.695	1623.8	752.2
857.4173	1072.6679	1647.85	774.05
857.5623	1074.6402	1666.75	795.05
857.7073	1076.6117	1668.55	791
857.8523	1078.5826	1658.25	786.45
857.9973	1080.5527	1631.45	756.15
858.1423	1082.5221	1606.2	731.3
858.2873	1084.4908	1589.75	715.25
858.4323	1086.4587	1577.8	704.5
858.5773	1088.426	1566.05	692.55
858.7223	1090.3925	1567.35	690.3
858.8673	1092.3584	1571.25	697.9
859.0123	1094.3235	1566.45	693.2
859.1573	1096.2879	1580.1	705.65
859.3022	1098.2515	1593.15	719.65
859.4472	1100.2145	1609.6	736.85
859.5922	1102.1767	1627	748
859.7371	1104.1382	1649.85	777
859.8821	1106.099	1680.1	803.5
860.027	1108.0591	1713	839.3
860.172	1110.0185	1738.25	862.95
860.3169	1111.9771	1752.9	880.15
860.4619	1113.9351	1779.7	904.95
860.6068	1115.8923	1826.7	950.95
860.7517	1117.8488	1841.05	965.65
860.8967	1119.8045	1829.3	954.55
861.0416	1121.7596	1754.65	878
861.1865	1123.7139	1689.7	815.65
861.3314	1125.6675	1641.45	766.65
861.4763	1127.6204	1645.35	772.05
861.6212	1129.5726	1659.9	782.85
861.7661	1131.524	1658.9	785.35
861.911	1133.4748	1634.55	759.2
862.0559	1135.4248	1596.25	719.3
862.2008	1137.3741	1569.15	693.85
862.3457	1139.3226	1546.7	669.2
862.4905	1141.2705	1542.5	666.9
862.6354	1143.2176	1556.4	674.7
862.7803	1145.164	1560.7	683.2
862.9251	1147.1097	1556.95	681.65
863.07	1149.0546	1541.3	664.75
863.2148	1150.9989	1529.7	654.15
863.3597	1152.9424	1520.05	644.35
863.5045	1154.8852	1501.45	625.15
863.6493	1156.8272	1494.95	619.35
863.7942	1158.7686	1503.1	619.6
863.939	1160.7092	1499.65	620.1
864.0838	1162.6491	1500.15	624.7
864.2286	1164.5883	1504.65	629.15
864.3734	1166.5267	1515.25	636.45
864.5182	1168.4644	1520.75	644.5
864.663	1170.4014	1541.6	656.95
864.8078	1172.3377	1558.3	683.65
864.9526	1174.2732	1594.95	719.5
865.0974	1176.2081	1648.9	772.8
865.2421	1178.1421	1717.95	836.6
865.3869	1180.0755	1783.85	907.75
865.5317	1182.0082	1830.75	954.55
865.6764	1183.9401	1820.15	942.5
865.8212	1185.8713	1756.9	879.8
865.9659	1187.8017	1683.2	803.6
866.1106	1189.7315	1612.95	737.05
866.2554	1191.6605	1597.1	689.75
866.4001	1193.5888	1535.9	657.65
866.5448	1195.5163	1526.45	649.1
866.6895	1197.4432	1504	626.2
866.8342	1199.3693	1497.7	622.65
866.9789	1201.2947	1489.6	606.35
867.1236	1203.2193	1466.3	589.8
867.2683	1205.1432	1472.15	595.65
867.413	1207.0664	1465.2	587.3
867.5576	1208.9889	1464.9	585.15
867.7023	1210.9106	1467.1	588.5
867.847	1212.8316	1473.75	597.5
867.9916	1214.7519	1484.75	596.3
868.1363	1216.6715	1477.9	600.05
868.2809	1218.5903	1488.7	610.25
868.4255	1220.5084	1492.45	617.3
868.5701	1222.4257	1500.95	624
868.7148	1224.3424	1502.75	623.2
868.8594	1226.2583	1519.05	637.1
869.004	1228.1735	1537.95	657.45
869.1486	1230.0879	1548.9	670.7
869.2932	1232.0016	1571.6	693.55
869.4377	1233.9146	1589.1	710.15
869.5823	1235.8269	1602.45	725.75
869.7269	1237.7384	1605.25	726.05
869.8715	1239.6492	1601.35	723.2
870.016	1241.5592	1610.7	729.9
870.1606	1243.4686	1634.55	755.5
870.3051	1245.3772	1672.75	793.3
870.4496	1247.285	1718.15	838.6
870.5941	1249.1922	1773.2	893.1
870.7387	1251.0986	1817.2	938.8
870.8832	1253.0042	1847.05	966.55
871.0277	1254.9092	1897.75	1015.65
871.1722	1256.8134	1943.1	1064.8
871.3167	1258.7169	1999.3	1121.05
871.4611	1260.6196	2030.05	1152.8
871.6056	1262.5216	2041.35	1161.1
871.7501	1264.4229	2047.95	1169.65
871.8945	1266.3234	2024.2	1142.4
872.039	1268.2232	1983.35	1103.65
872.1834	1270.1223	1960.8	1081
872.3278	1272.0207	1931.1	1051.5
872.4723	1273.9183	1918.85	1033.3
872.6167	1275.8151	1923.4	1044.7
872.7611	1277.7113	1936.3	1054.55
872.9055	1279.6067	1983.3	1104.5
873.0499	1281.5014	2068.2	1186.2
873.1943	1283.3953	2180	1299
873.3386	1285.2885	2291.45	1413.05
873.483	1287.181	2392.45	1511.15
873.6274	1289.0727	2427.6	1549.95
873.7717	1290.9637	2387.7	1505
873.9161	1292.854	2323.95	1444.25
874.0604	1294.7435	2239.45	1359
874.2047	1296.6323	2172.25	1293.3
874.349	1298.5204	2106	1221.65
874.4933	1300.4077	2054.45	1174
874.6376	1302.2943	2022.05	1141.8
874.7819	1304.1802	2008.25	1128.8
874.9262	1306.0653	1992.15	1108.7
875.0705	1307.9497	1965.95	1086.3
875.2147	1309.8333	1954.05	1075.65
875.359	1311.7162	1935.3	1055.35
875.5032	1313.5984	1916.95	1035.75
875.6475	1315.4798	1921.45	1029.1
875.7917	1317.3605	1921.55	1024.1
875.9359	1319.2405	1912.3	1029.55
876.0801	1321.1197	1899.4	1015.6
876.2243	1322.9982	1882.45	995.95
876.3685	1324.876	1841.95	960.25
876.5127	1326.753	1774.3	891.25
876.6569	1328.6293	1726.6	844.2
876.801	1330.5048	1676.05	793.4
876.9452	1332.3796	1630.1	750.45
877.0893	1334.2537	1622.05	711.8
877.2335	1336.127	1559.7	679.1
877.3776	1337.9996	1548.6	667.25
877.5217	1339.8714	1534.05	651.65
877.6658	1341.7426	1563.25	637.45
877.8099	1343.6129	1515.85	634.5
877.954	1345.4826	1501	619.6
878.0981	1347.3515	1501.7	618.1
878.2422	1349.2196	1492.35	611.1
878.3862	1351.087	1479.7	601.1
878.5303	1352.9537	1473.45	589.8
878.6743	1354.8197	1485.05	602.75
878.8184	1356.6849	1488	606.6
878.9624	1358.5493	1493.85	611.9
879.1064	1360.4131	1507.1	625.15
879.2504	1362.276	1527.2	646.2
879.3944	1364.1383	1540.25	658.75
879.5384	1365.9998	1558.9	670.45
879.6823	1367.8606	1554.8	672.9
879.8263	1369.7206	1548	665.65
879.9702	1371.5799	1540.65	655.6
880.1142	1373.4384	1538.8	657.05
880.2581	1375.2962	1525.3	643.65
880.402	1377.1533	1490	608.65
880.5459	1379.0096	1457.3	575.4
880.6898	1380.8652	1440.85	557.7
880.8337	1382.7201	1424.9	543.55
880.9776	1384.5742	1413.1	529.9
881.1215	1386.4275	1399.1	515.4
881.2653	1388.2802	1384.15	502.7
881.4092	1390.132	1376	493.6
881.553	1391.9832	1373.8	490.1
881.6968	1393.8336	1369.25	487.4
881.8406	1395.6832	1361.9	478
881.9844	1397.5322	1357.85	475.4
882.1282	1399.3803	1356.5	469
882.272	1401.2278	1351	470.6
882.4158	1403.0745	1340.7	458.8
882.5595	1404.9204	1334.75	453.25
882.7033	1406.7656	1331.9	448.35
882.847	1408.6101	1329.3	446.05
882.9908	1410.4538	1327.5	445.95
883.1345	1412.2968	1325.95	442.05
883.2782	1414.139	1326.25	444.75
883.4219	1415.9805	1331.05	449.65
883.5656	1417.8213	1337.7	449.05
883.7092	1419.6613	1346.65	465.05
883.8529	1421.5006	1361.85	477.7
883.9965	1423.3391	1385.2	502.9
884.1402	1425.1769	1406.45	523.55
884.2838	1427.0139	1457.3	574.95
884.4274	1428.8502	1499.8	614.85
884.571	1430.6858	1545.5	662.15
884.7146	1432.5206	1554.45	671.15
884.8582	1434.3547	1557.65	674.2
885.0018	1436.188	1538.6	654.8
885.1453	1438.0206	1537.4	653.4
885.2889	1439.8524	1524	639.1
885.4324	1441.6835	1518.05	633.35
885.5759	1443.5139	1522.95	637.9
885.7194	1445.3435	1520.3	637.35
885.8629	1447.1724	1528.45	647
886.0064	1449.0005	1514.85	632.45
886.1499	1450.8279	1518.5	634.3
886.2933	1452.6545	1513.05	630.95
886.4368	1454.4804	1518.05	636
886.5802	1456.3056	1517.6	626.3
886.7237	1458.13	1498.7	614.75
886.8671	1459.9536	1479.15	595.2
887.0105	1461.7766	1460.2	577.3
887.1539	1463.5987	1439.75	553.75
887.2972	1465.4202	1412.45	528.5
887.4406	1467.2409	1392.65	507.85
887.584	1469.0608	1375.4	494.9
887.7273	1470.88	1361.85	478.3
887.8706	1472.6984	1345.4	462.7
888.0139	1474.5161	1327.05	441.25
888.1572	1476.3331	1312.55	429.7
888.3005	1478.1493	1315.85	431.7
888.4438	1479.9648	1304.15	420.75
888.5871	1481.7795	1299.55	415.75
888.7303	1483.5935	1307.95	424
888.8736	1485.4067	1305	420.45
889.0168	1487.2192	1304.8	420.7
889.16	1489.031	1313.9	427.85
889.3032	1490.842	1303.65	421.9
889.4464	1492.6522	1303.25	420.45
889.5896	1494.4618	1305.15	420.75
889.7327	1496.2705	1301.5	418.85
889.8759	1498.0785	1294.75	410.6
890.019	1499.8858	1294.75	410.35
890.1622	1501.6924	1283.5	400.95
890.3053	1503.4981	1284.25	401.15
890.4484	1505.3032	1281.4	397.45
890.5914	1507.1075	1280.9	396.3
890.7345	1508.911	1276.05	391.1
890.8776	1510.7138	1272.9	388.1
891.0206	1512.5159	1269.9	386.3
891.1637	1514.3172	1260.6	378.65
891.3067	1516.1178	1257.75	374.8
891.4497	1517.9176	1258.15	374
891.5927	1519.7166	1251.35	371.25
891.7357	1521.515	1255.9	364.5
891.8786	1523.3126	1244.65	361
892.0216	1525.1094	1246.6	360.5
892.1645	1526.9055	1238.6	355.35
892.3074	1528.7008	1235.85	352.95
892.4503	1530.4954	1239.2	348.3
892.5932	1532.2893	1228.5	345.9
892.7361	1534.0824	1233.45	343.6
892.879	1535.8747	1232.75	349.3
893.0218	1537.6663	1228.6	344.95
893.1647	1539.4572	1220.1	333.9
893.3075	1541.2473	1223.45	339.15
893.4503	1543.0367	1224.25	340.45
893.5931	1544.8253	1223.7	336.4
893.7359	1546.6132	1230.7	344.9
893.8787	1548.4003	1239.15	345.25
894.0214	1550.1867	1240.15	347.45
894.1642	1551.9723	1237.65	348.65
894.3069	1553.7572	1242.3	356.2
894.4496	1555.5414	1242	359.45
894.5923	1557.3247	1260.85	376.3
894.735	1559.1074	1275.65	392.6
894.8777	1560.8893	1305.85	421.65
895.0204	1562.6705	1329.85	443.55
895.163	1564.4509	1336.6	451.35
895.3056	1566.2305	1344.65	460.9
895.4482	1568.0094	1342.35	459.65
895.5908	1569.7876	1341.35	457.35
895.7334	1571.565	1336.55	449.85
895.876	1573.3417	1338.35	454.6
896.0186	1575.1176	1343.25	460.05
896.1611	1576.8928	1352.35	466.65
896.3036	1578.6672	1359.9	476.35
896.4461	1580.4409	1374.8	490.65
896.5886	1582.2138	1386.3	499.05
896.7311	1583.986	1413.8	527.7
896.8736	1585.7575	1427	542.55
897.0161	1587.5282	1441.55	559.2
897.1585	1589.2981	1465.8	584.4
897.3009	1591.0673	1473	588.75
897.4433	1592.8358	1481	597.55
897.5857	1594.6035	1477.7	591.55
897.7281	1596.3704	1460.25	576.45
897.8705	1598.1366	1453.15	568.2
898.0128	1599.9021	1448.25	563.7
898.1551	1601.6668	1429.35	541.9
898.2975	1603.4308	1409.75	523.55
898.4398	1605.194	1415.2	525.45
898.5821	1606.9564	1427.35	542.4
898.7243	1608.7182	1455.95	566.1
898.8666	1610.4791	1486.05	602.8
899.0088	1612.2394	1540.95	658.45
899.1511	1613.9988	1605.45	718.4
899.2933	1615.7576	1647.35	761.8
899.4355	1617.5156	1674.25	784.3
899.5776	1619.2728	1662.9	779.85
899.7198	1621.0293	1611.6	726.5
899.862	1622.785	1550.35	660.9
900.0041	1624.54	1483.7	595.05
900.1462	1626.2942	1422.5	535.9
900.2883	1628.0477	1366.1	476
900.4304	1629.8005	1330.9	443.5
900.5725	1631.5525	1281.85	396.6
900.7145	1633.3037	1264.7	378.9
900.8566	1635.0542	1233.7	346.85
900.9986	1636.804	1216.75	333.35
901.1406	1638.553	1265.7	318
901.2826	1640.3013	1193.1	309.55
901.4245	1642.0488	1175	289.15
901.5665	1643.7955	1171.4	286.9
901.7085	1645.5416	1162.45	278.5
901.8504	1647.2868	1162.15	280.2
901.9923	1649.0313	1151.35	265.8
902.1342	1650.7751	1155.2	266.65
902.2761	1652.5181	1148.85	266.85
902.4179	1654.2604	1152.9	264.85
902.5598	1656.0019	1150.35	267.25
902.7016	1657.7427	1157.35	271.7
902.8434	1659.4828	1164.35	281.8
902.9852	1661.222	1179.7	293.35
903.127	1662.9606	1192.5	306.85
903.2687	1664.6984	1216.8	329.05
903.4105	1666.4354	1214.1	329.85
903.5522	1668.1717	1214.7	331.25
903.6939	1669.9072	1193.95	310.3
903.8356	1671.642	1167.1	279.45
903.9773	1673.3761	1150.7	268.05
904.119	1675.1094	1129.7	245.2
904.2606	1676.8419	1121.85	237.35
904.4022	1678.5737	1116.8	231.35
904.5439	1680.3048	1104.6	220.55
904.6855	1682.0351	1102.5	218.7
904.827	1683.7646	1101.75	214.4
904.9686	1685.4934	1094	210.45
905.1101	1687.2215	1089.95	204.8
905.2517	1688.9488	1090.7	206.4
905.3932	1690.6754	1087.15	203.2
905.5347	1692.4012	1085.15	203.3
905.6761	1694.1263	1088.45	203.65
905.8176	1695.8506	1080	193.85
905.9591	1697.5742	1078	193.5
906.1005	1699.297	1083.7	196.75
906.2419	1701.0191	1078.3	192.75
906.3833	1702.7404	1073.6	191
906.5246	1704.461	1078	192.1
906.666	1706.1808	1076.55	188.85
906.8073	1707.8999	1074.6	188.85
906.9487	1709.6182	1068.9	184.4
907.09	1711.3358	1069.65	184.75
907.2313	1713.0527	1069.3	184.75
907.3725	1714.7688	1074.9	184.65
907.5138	1716.4841	1074.55	186.7
907.655	1718.1987	1074.2	184
907.7962	1719.9126	1065.8	181.5
907.9374	1721.6257	1067	178.85
908.0786	1723.338	1065.7	178.75
908.2198	1725.0496	1063.9	179.45
908.3609	1726.7605	1061.3	175.35
908.502	1728.4706	1062.75	174.45
908.6431	1730.18	1064.95	176.6
908.7842	1731.8886	1061.85	175.2
908.9253	1733.5964	1083.95	177.85
909.0664	1735.3036	1062.5	175.75
909.2074	1737.0099	1059.25	174.3
909.3484	1738.7156	1060.55	176.6
909.4894	1740.4204	1064.9	175.7
909.6304	1742.1246	1056.75	168.7
909.7714	1743.8279	1058.7	173.4
909.9123	1745.5306	1059.8	174.6
910.0532	1747.2325	1060.5	175.7
910.1941	1748.9336	1057.45	172.95
910.335	1750.634	1059.4	171.9
910.4759	1752.3336	1058.8	173.1
910.6168	1754.0325	1054.6	170.8
910.7576	1755.7307	1056.4	169.4
910.8984	1757.4281	1055.85	169.6
911.0392	1759.1247	1063.5	170.9
911.18	1760.8206	1057.25	167.2
911.3208	1762.5158	1055.9	167.7
911.4615	1764.2102	1050.45	165.85
911.6022	1765.9039	1050.45	164.8
911.7429	1767.5968	1052.35	166.15
911.8836	1769.289	1051.4	166.2
912.0243	1770.9804	1054.2	168.15
912.1649	1772.6711	1049.75	164.45
912.3056	1774.361	1051.6	164.95
912.4462	1776.0502	1055.65	170
912.5868	1777.7386	1056.95	167.65
912.7274	1779.4263	1050	163.95
912.8679	1781.1132	1053.5	167.9
913.0084	1782.7994	1050.45	161.2
913.149	1784.4849	1053.55	168.05
913.2895	1786.1696	1071.1	165.95
913.4299	1787.8535	1049.85	164.6
913.5704	1789.5367	1045.3	159.75
913.7108	1791.2192	1045.9	160.1
913.8513	1792.9009	1060.45	160.05
913.9917	1794.5818	1046.35	160.3
914.132	1796.2621	1043.3	162.45
914.2724	1797.9415	1044.1	155.9
914.4128	1799.6202	1043.75	158.45
914.5531	1801.2982	1043	157.05
914.6934	1802.9755	1043.7	159.15
914.8337	1804.6519	1042.2	156.1
914.9739	1806.3277	1041.25	155.9
915.1142	1808.0027	1041.15	154.4
915.2544	1809.6769	1040.9	156.9
915.3946	1811.3504	1041.45	152.55
915.5348	1813.0231	1040.5	155.15
915.675	1814.6951	1042.05	157.1
915.8151	1816.3664	1044.85	159.3
915.9553	1818.0369	1043	157.65
916.0954	1819.7067	1039.9	154.55
916.2355	1821.3757	1040.35	152.05
916.3755	1823.044	1036.9	150.65
916.5156	1824.7115	1039.4	152.15
916.6556	1826.3783	1032.7	148.9
916.7956	1828.0443	1032.2	147.7
916.9356	1829.7096	1039	151.6
917.0756	1831.3741	1040.7	154.05
917.2155	1833.0379	1035.2	148.7
917.3555	1834.701	1037.3	150.4
917.4954	1836.3633	1033.85	145.3
917.6353	1838.0248	1037.05	150.75
917.7751	1839.6856	1032.35	147.95
917.915	1841.3457	1029.3	144.25
918.0548	1843.005	1031.25	146.85
918.1946	1844.6636	1030.75	147.95
918.3344	1846.3214	1034.75	150.15
918.4742	1847.9785	1034.25	149.65
918.6139	1849.6349	1034.05	147.8
918.7537	1851.2904	1039.95	144.6
918.8934	1852.9453	1028.15	143.4
919.0331	1854.5994	1032.95	144.7
919.1727	1856.2528	1033.8	142.5
919.3124	1857.9054	1030.3	141.6
919.452	1859.5572	1023.85	139.2
919.5916	1861.2083	1031.25	143.8
919.7312	1862.8587	1030.2	145.35
919.8708	1864.5084	1029.85	143.5
920.0103	1866.1572	1030.35	145.95
920.1498	1867.8054	1023.9	139.3
920.2893	1869.4528	1023.8	139.35
920.4288	1871.0994	1025.75	141.65
920.5683	1872.7453	1028.85	142.25
920.7077	1874.3905	1033.6	139.8
920.8471	1876.0349	1025.05	139.15
920.9865	1877.6786	1030.4	142.4
921.1259	1879.3215	1022.4	136.4
921.2653	1880.9637	1026.3	138.75
921.4046	1882.6051	1024.7	139.7
921.5439	1884.2458	1026.9	139.85
921.6832	1885.8858	1024.55	136.5
921.8225	1887.525	1024.6	138.3
921.9617	1889.1634	1019.9	132.85
922.101	1890.8011	1017.8	131.15
922.2402	1892.4381	1020.15	134.25
922.3794	1894.0743	1020.95	136.45
922.5185	1895.7098	1023.1	136.95
922.6577	1897.3446	1020.2	135.05
922.7968	1898.9786	1028.15	138.15
922.9359	1900.6118	1019.5	136.15
923.075	1902.2443	1022	131.8
923.214	1903.8761	1016.75	131.95
923.3531	1905.5071	1016.85	129.7
923.4921	1907.1374	1024.95	136.85
923.6311	1908.7669	1018.2	132
923.77	1910.3957	1019.3	132.95
923.909	1912.0237	1017.95	132.3
924.0479	1913.651	1016.85	130.45
924.1868	1915.2776	1015.15	131.85
924.3257	1916.9034	1018.4	133.45
924.4646	1918.5285	1011.1	127.05
924.6034	1920.1528	1017.55	130.9
924.7422	1921.7764	1015.5	130.65
924.881	1923.3992	1014.95	128.75
925.0198	1925.0213	1014.85	130.2
925.1586	1926.6427	1011.35	126.3
925.2973	1928.2633	1117.9	121.95
925.436	1929.8832	1019.95	131.75
925.5747	1931.5023	1012.25	126.45
925.7134	1933.1207	1013.6	126.6
925.852	1934.7383	1014.1	128.7
925.9906	1936.3552	1015.7	129.05
926.1292	1937.9714	1013.1	127.95
926.2678	1939.5868	1012.5	125.95
926.4064	1941.2015	1010.3	124.55
926.5449	1942.8154	1007.1	120.7
926.6834	1944.4286	1010.75	124.05
926.8219	1946.041	1035.65	126.1
926.9604	1947.6528	1015.25	122.9
927.0988	1949.2637	1012.7	126.2
927.2372	1950.8739	1007.55	120.7
927.3756	1952.4834	1006.9	121.6
927.514	1954.0921	1013.25	127
927.6523	1955.7001	1009.85	119.2
927.7907	1957.3074	1004.1	119.85
927.929	1958.9139	1006.85	120.5
928.0673	1960.5197	1009.75	122.75
928.2055	1962.1247	1004.75	119.25
928.3438	1963.729	1002.9	117.15
928.482	1965.3325	1033.1	122.65
928.6202	1966.9353	998.3	111.6
928.7584	1968.5374	1003	114.75
928.8965	1970.1387	1003.9	117.95
929.0346	1971.7393	1004.45	118
929.1727	1973.3392	1003.85	121
929.3108	1974.9383	1000.3	116.7
929.4489	1976.5366	1002.4	116.15
929.5869	1978.1342	1006.65	119.2
929.7249	1979.7311	1002.2	114.7
929.8629	1981.3273	1006.5	120.85
930.0009	1982.9227	1006.6	117.9
930.1388	1984.5173	1002	115.5
930.2767	1986.1112	1001.8	117.1
930.4146	1987.7044	999.25	114.7
930.5525	1989.2968	1001.4	115.55
930.6904	1990.8885	1004.15	114.8
930.8282	1992.4795	1002.65	114.7
930.966	1994.0697	1001.5	114.8
931.1038	1995.6592	995.65	110.3
931.2415	1997.2479	999.7	113.45
931.3793	1998.8359	999.5	113.45
931.517	2000.4232	998.35	111.6
931.6547	2002.0097	996.95	109.65
931.7923	2003.5955	999.45	112.8
931.93	2005.1805	1002.25	113.15
932.0676	2006.7648	999.3	113.75
932.2052	2008.3484	998.05	109.9
932.3427	2009.9312	998.45	111.85
932.4803	2011.5133	996.45	111.2
932.6178	2013.0946	998.75	111
932.7553	2014.6752	995.95	111.15
932.8928	2016.2551	995.6	109.75
933.0302	2017.8342	997.4	110.25
933.1676	2019.4126	997.1	112.5
933.305	2020.9902	995.9	110.65
933.4424	2022.5672	997.55	111.2
933.5798	2024.1433	1003.1	109.7
933.7171	2025.7188	995.65	112.55
933.8544	2027.2935	998.85	110.9
933.9917	2028.8674	996.15	109.7
934.129	2030.4406	997.65	114.1
934.2662	2032.0131	991.95	107.3
934.4034	2033.5849	997.6	104.9
934.5406	2035.1559	996.9	110.4
934.6778	2036.7261	995.2	109.55
934.8149	2038.2957	994.35	109.4
934.952	2039.8645	997.45	112.25
935.0891	2041.4325	998.25	108.25
935.2262	2042.9998	993.35	105.95
935.3632	2044.5664	996.85	108.5
935.5002	2046.1323	1000.2	115.55
935.6372	2047.6974	993.05	105.95
935.7742	2049.2617	991.05	105.05
935.9111	2050.8254	1025.35	105.15
936.048	2052.3883	995.85	108
936.1849	2053.9504	994.65	108.9
936.3218	2055.5118	995.3	108.05
936.4586	2057.0725	997.25	108.2
936.5955	2058.6325	994.85	109.5
936.7323	2060.1917	993.3	107.6
936.869	2061.7502	997.95	108.9
937.0058	2063.3079	994.65	107.65
937.1425	2064.8649	996.65	107.9
937.2792	2066.4212	993.1	106.05
937.4159	2067.9767	993.9	107.25
937.5525	2069.5315	992.3	107.5
937.6891	2071.0856	995.15	110.1
937.8257	2072.6389	995.3	107.6
937.9623	2074.1915	993.9	107.9
938.0989	2075.7433	992.9	106.05
938.2354	2077.2945	991.8	104.85
938.3719	2078.8448	992	106.95
938.5084	2080.3945	985.75	99.6
938.6448	2081.9434	991.9	106.6
938.7812	2083.4916	989.9	104.4
938.9176	2085.039	994.35	107.55
939.054	2086.5857	991.75	103.65
939.1903	2088.1317	993.15	107.8
939.3267	2089.677	989.95	103.95
939.463	2091.2215	987.55	99.75
939.5992	2092.7652	992.05	105.7
939.7355	2094.3083	991	104.9
939.8717	2095.8506	988.45	103.95
940.0079	2097.3921	988.1	100.85
940.1441	2098.933	989.75	104.9
940.2802	2100.4731	993.4	107.5
940.4163	2102.0124	996.35	103.95
940.5524	2103.5511	991.75	105.65
940.6885	2105.089	992.5	106.35
940.8245	2106.6261	988.65	103.05
940.9606	2108.1626	990.45	104.8
941.0965	2109.6983	1018.55	103.65
941.2325	2111.2332	990.45	103.8
941.3684	2112.7675	992.8	105.7
941.5044	2114.301	991.3	101.95
941.6403	2115.8337	988.7	102.25
941.7761	2117.3657	988.8	103.05
941.912	2118.897	990.15	103.75
942.0478	2120.4276	996.9	105.35
942.1835	2121.9575	989.7	103.35
942.3193	2123.4866	1002.95	102.9
942.455	2125.0149	993.45	105.9
942.5907	2126.5426	990.5	103.6
942.7264	2128.0695	994.65	105.3
942.8621	2129.5956	985.55	101.1
942.9977	2131.1211	993.5	102.6
943.1333	2132.6458	989.7	105.15
943.2689	2134.1698	985.95	99.45
943.4044	2135.693	991.05	103.3
943.54	2137.2155	989.65	102.1
943.6755	2138.7373	988.3	102.8
943.8109	2140.2584	989	102.45
943.9464	2141.7787	990.3	98.6
944.0818	2143.2983	989	102.45
944.2172	2144.8171	984.6	100.25
944.3526	2146.3353	988.65	101
944.4879	2147.8527	984.85	98.45
944.6232	2149.3693	987.45	100.3
944.7585	2150.8853	984	98.5
944.8938	2152.4005	984.35	97.9
945.029	2153.9149	987.35	101.8
945.1642	2155.4287	986.2	101.3
945.2994	2156.9417	988.2	103.15
945.4346	2158.454	991.1	102.4
945.5697	2159.9655	986.6	102.35
945.7048	2161.4764	980.45	94.6
945.8399	2162.9865	984.25	96.55
945.9749	2164.4958	985.4	98.15
946.1099	2166.0045	989.9	98.65
946.2449	2167.5124	985.4	99.95
946.3799	2169.0195	982.4	97.9
946.5148	2170.526	985.4	99.3
946.6498	2172.0317	985.2	100.55
946.7846	2173.5367	985	98.05
946.9195	2175.0409	985.05	99.9
947.0543	2176.5445	983.5	97.75
947.1891	2178.0473	985.6	98.15
947.3239	2179.5494	986.55	98.8
947.4587	2181.0507	984.9	98.25
947.5934	2182.5513	983.5	97.55
947.7281	2184.0512	981.05	95.05
947.8628	2185.5504	985.3	99
947.9974	2187.0488	982.5	95
948.132	2188.5465	981.7	95
948.2666	2190.0435	981.35	95.1
948.4012	2191.5397	982.65	96.4
948.5357	2193.0353	985.25	101.35
948.6702	2194.5301	981.15	94.95
948.8047	2196.0241	978.8	93
948.9392	2197.5175	976.8	93.45
949.0736	2199.0101	980.9	90.95
949.208	2200.502	976.4	93.25
949.3424	2201.9931	981.5	95.45
949.4767	2203.4835	981.55	93.1
949.611	2204.9733	985.75	92
949.7453	2206.4622	979.65	93.85
949.8796	2207.9505	981.65	94.15
950.0138	2209.438	975.05	90.75
950.148	2210.9248	978.55	91
950.2822	2212.4109	977.55	91.65
950.4164	2213.8962	981.85	93.15
950.5505	2215.3809	979.3	93.1
950.6846	2216.8648	979.15	91.85
950.8186	2218.3479	982.3	91.75
950.9527	2219.8304	979.8	92.6
951.0867	2221.3121	977.75	90.6
951.2207	2222.7931	978.05	93.75
951.3546	2224.2733	978.4	95.35
951.4886	2225.7529	976.2	87.5
951.6225	2227.2317	976.05	85.75
951.7563	2228.7098	974.85	89.75
951.8902	2230.1872	974.45	88.05
952.024	2231.6638	976.25	88.9
952.1578	2233.1397	973.65	84.6
952.2916	2234.6149	976.6	90.65
952.4253	2236.0894	975.6	88.5
952.559	2237.5632	985.85	90
952.6927	2239.0362	975.3	89.4
952.8263	2240.5085	974.75	87
952.9599	2241.9801	971.8	87.05
953.0935	2243.4509	970.4	85.1
953.2271	2244.921	972.7	86.85
953.3606	2246.3904	974.65	87.35
953.4941	2247.8591	971.3	85.65
953.6276	2249.3271	972.5	86.5
953.7611	2250.7943	971.5	87.35
953.8945	2252.2608	972.4	85.85
954.0279	2253.7266	971.3	85.75
954.1612	2255.1917	970.2	84.25
954.2946	2256.656	970.45	84.45
954.4279	2258.1197	969.7	84.55
954.5612	2259.5826	973.9	84.85
954.6944	2261.0447	973.55	87.3
954.8276	2262.5062	973.75	85.6
954.9608	2263.9669	971.15	81.75
955.094	2265.4269	967.45	82.55
955.2271	2266.8862	968.2	82.4
955.3602	2268.3448	970.7	85.5
955.4933	2269.8026	972.25	86.5
955.6264	2271.2598	967.9	82.6
955.7594	2272.7162	966.55	82.1
955.8924	2274.1719	969.05	82.65
956.0253	2275.6268	969.7	83.45
956.1583	2277.0811	967.65	80.45
956.2912	2278.5346	968.85	82.45
956.4241	2279.9874	964.7	79.35
956.5569	2281.4395	966.5	81.65
956.6897	2282.8908	969.15	78.95
956.8225	2284.3414	970.1	81
956.9553	2285.7914	967.9	82.15
957.088	2287.2406	968.9	80.7
957.2207	2288.689	964.9	78.75
957.3534	2290.1368	968	79.3
957.486	2291.5838	969.3	81.25
957.6186	2293.0302	968.2	80.75
957.7512	2294.4758	966.4	79.95
957.8838	2295.9206	967.1	81.1
958.0163	2297.3648	964.75	80.7
958.1488	2298.8082	968	81.45
958.2813	2300.251	965.5	79.5
958.4137	2301.693	969.55	82.9
958.5461	2303.1343	966.3	80.3
958.6785	2304.5748	966.7	80.1
958.8108	2306.0147	962.9	75.4
958.9432	2307.4538	963.6	75.25
959.0754	2308.8922	963.95	79.3
959.2077	2310.3299	968	83.8
959.3399	2311.7669	964.25	79.5
959.4721	2313.2031	961.1	74.3
959.6043	2314.6387	965.4	78.6
959.7365	2316.0735	964.75	79.25
959.8686	2317.5076	965.9	79.55
960.0006	2318.941	963.75	77.9
960.1327	2320.3737	961	76.75
960.2647	2321.8056	966.6	76.4
960.3967	2323.2369	965.6	76.05
960.5287	2324.6674	967.95	80.25
960.6606	2326.0972	966.9	79.1
960.7925	2327.5263	971.65	85.15
960.9244	2328.9547	971.8	86.3
961.0562	2330.3823	972.35	86.15
961.1881	2331.8092	971.2	81.3
961.3198	2333.2355	964.55	76.6
961.4516	2334.661	964.5	77.7
961.5833	2336.0858	963.45	73.6
961.715	2337.5098	960.85	75.5
961.8467	2338.9332	960.05	72.5
961.9783	2340.3558	964.9	75
962.1099	2341.7778	961.7	73.45
962.2415	2343.199	961.05	74.2
962.373	2344.6195	957.95	73.05
962.5045	2346.0393	960.2	74.25
962.636	2347.4583	960.8	74
962.7675	2348.8767	960.3	72.9
962.8989	2350.2943	957.2	71.05
963.0303	2351.7113	958.1	70.8
963.1617	2353.1275	956.4	71.75
963.293	2354.543	966.1	71.95
963.4243	2355.9578	958.2	73.8
963.5556	2357.3718	955.75	70.45
963.6868	2358.7852	959.7	69.75
963.818	2360.1978	956.55	69.15
963.9492	2361.6098	956.9	71.15
964.0803	2363.021	961.7	72.1
964.2114	2364.4315	958.8	71.75
964.3425	2365.8413	958.4	69.9
964.4736	2367.2504	955.95	70.95
964.6046	2368.6587	957.95	70
964.7356	2370.0664	956.1	71.85
964.8666	2371.4733	955.6	68.6
964.9975	2372.8795	956.7	71.3
965.1284	2374.285	955.6	68.3
965.2593	2375.6899	954.1	68.2
965.3901	2377.0939	957.15	70.15
965.5209	2378.4973	956.4	71.65
965.6517	2379.9	959.15	72.65
965.7825	2381.3019	958.2	71.15
965.9132	2382.7032	954.65	68.95
966.0439	2384.1037	954.8	71.25
966.1745	2385.5035	953.2	66.85
966.3051	2386.9027	954.15	69.1
966.4357	2388.3011	958.3	68.4
966.5663	2389.6987	955.15	67.75
966.6968	2391.0957	954.55	68.6
966.8273	2392.492	952.5	66.15
966.9578	2393.8876	956.3	71.65
967.0882	2395.2824	957.6	73.25
967.2186	2396.6765	951.4	65.35
967.349	2398.07	953.15	67.3
967.4793	2399.4627	953.9	65
967.6097	2400.8547	951.85	64.5
967.7399	2402.246	957.1	65.7
967.8702	2403.6366	951.35	64.45
968.0004	2405.0265	951.55	65.55
968.1306	2406.4156	954.75	63.65
968.2607	2407.8041	955.35	66.7
968.3909	2409.1918	953.95	65.45
968.521	2410.5789	950.7	62.9
968.651	2411.9652	954.1	65.1
968.781	2413.3508	951.15	66.7
968.911	2414.7358	949.25	61.5
969.041	2416.12	945.8	60.6
969.1709	2417.5035	948.5	62.3
969.3008	2418.8863	949.85	62.45
969.4307	2420.2684	950.25	64.4
969.5606	2421.6497	950.3	63.15
969.6904	2423.0304	948.85	62.8
969.8201	2424.4104	948.15	60.95
969.9499	2425.7896	955.55	64.5
970.0796	2427.1682	947.95	63.85
970.2093	2428.546	947.95	60.55
970.3389	2429.9232	948.9	60.7
970.4685	2431.2996	946.95	60.65
970.5981	2432.6753	949.5	64.15
970.7277	2434.0503	945.15	61.1
970.8572	2435.4246	948.35	61.8
970.9867	2436.7982	948.05	57.6
971.1161	2438.1711	945.55	61.2
971.2456	2439.5433	947.95	60.95
971.375	2440.9148	951	58.55
971.5043	2442.2856	946.9	61.35
971.6336	2443.6557	945.7	58.65
971.7629	2445.025	942.5	55.65
971.8922	2446.3937	945.3	57.35
972.0214	2447.7617	945.6	59.4
972.1506	2449.1289	947.05	61.5
972.2798	2450.4955	951.6	60.25
972.4089	2451.8613	944	59.5
972.538	2453.2265	942.6	56.65
972.6671	2454.5909	943.55	54.9
972.7961	2455.9546	944.45	57.5
972.9251	2457.3177	944.85	59.1
973.0541	2458.68	943.65	56.85
973.1831	2460.0416	946.75	62.55
973.312	2461.4025	946.6	59.15
973.4408	2462.7627	956	57.2
973.5697	2464.1222	944.05	58.3
973.6985	2465.4811	946.8	58.25
973.8273	2466.8392	945.55	59.65
973.956	2468.1966	946.65	58.85
974.0847	2469.5533	942.25	53.25
974.2134	2470.9093	943.5	56.75
974.3421	2472.2645	943.3	56.9
974.4707	2473.6191	942.95	57.3
974.5993	2474.973	944.15	59.1
974.7278	2476.3262	944.2	56.35
974.8563	2477.6787	941.25	56.15
974.9848	2479.0305	944.05	59.55
975.1132	2480.3816	941.35	53.4
975.2417	2481.7319	940.35	52.2
975.37	2483.0816	942.05	54.7
975.4984	2484.4306	944.4	56.5
975.6267	2485.7789	941.05	55.55
975.755	2487.1264	942.25	52.6
975.8833	2488.4733	940.05	54.15
976.0115	2489.8195	957.4	54.2
976.1397	2491.165	941.3	51.35
976.2678	2492.5097	938.65	49.9
976.3959	2493.8538	938.5	52.8
976.524	2495.1972	942.5	56.35
976.6521	2496.5398	942.55	53.3
976.7801	2497.8818	941.1	54.05
976.9081	2499.2231	943.35	57.1
977.036	2500.5637	941.95	55.9
977.164	2501.9035	942.65	53.15
977.2918	2503.2427	942.2	51.75
977.4197	2504.5812	936.6	49.65
977.5475	2505.919	940.25	53.7
977.6753	2507.256	939.85	56.55
977.8031	2508.5924	938.5	50.95
977.9308	2509.9281	942.9	52.75
978.0585	2511.2631	941.05	55.9
978.1861	2512.5974	938.85	52.55
978.3137	2513.9309	938.25	51.6
978.4413	2515.2638	967.6	47.9
978.5689	2516.596	937.05	51.2
978.6964	2517.9275	937.7	51.35
978.8239	2519.2583	936.95	48.15
978.9513	2520.5884	935	47.9
979.0788	2521.9178	941.05	54.95
979.2062	2523.2465	933.85	48.75
979.3335	2524.5745	936.75	51.65
979.4608	2525.9018	938.55	52.75
979.5881	2527.2284	933.6	49.45
979.7154	2528.5543	935.55	50.8
979.8426	2529.8796	936.8	50.3
979.9698	2531.2041	937.05	49.3
980.0969	2532.5279	934.55	51.3
980.224	2533.851	935.25	47.65
980.3511	2535.1735	937.3	52
980.4781	2536.4952	934.2	47.45
980.6052	2537.8163	936	50
980.7321	2539.1366	935.2	50.1
980.8591	2540.4562	936.75	48.5
980.986	2541.7752	933.95	48
981.1129	2543.0935	936.4	50.35
981.2397	2544.411	934.75	48.1
981.3665	2545.7279	937.85	52.85
981.4933	2547.0441	934	48.2
981.62	2548.3596	938.35	50.25
981.7467	2549.6744	935.5	51.1
981.8734	2550.9885	936.85	49.55
982.0001	2552.3019	935.1	49.35
982.1267	2553.6146	934.95	47.8
982.2532	2554.9266	935.35	47.55
982.3798	2556.2379	937.3	48.1
982.5063	2557.5485	931.6	45.95
982.6327	2558.8585	939.8	45.2
982.7592	2560.1677	939.7	50.5
982.8856	2561.4762	932.35	45.95
983.0119	2562.7841	935.5	45.4
983.1383	2564.0913	931.25	45.5
983.2646	2565.3977	929.85	44.35
983.3908	2566.7035	935.6	49.6
983.517	2568.0086	933.45	43.7
983.6432	2569.313	930.65	44.65
983.7694	2570.6167	937.2	48.5
983.8955	2571.9197	932.1	47.2
984.0216	2573.222	933.6	44.55
984.1476	2574.5236	931.35	44.95
984.2737	2575.8246	933.5	47.15
984.3996	2577.1248	935.7	46.9
984.5256	2578.4244	931.5	46.15
984.6515	2579.7232	931.8	43.9
984.7774	2581.0214	962.15	51.2
984.9032	2582.3189	932.05	44.75
985.029	2583.6157	934.7	42.5
985.1548	2584.9118	931.5	44.45
985.2806	2586.2072	932.05	45.8
985.4063	2587.5019	931.2	45.2
985.5319	2588.7959	932.1	47.4
985.6576	2590.0893	933.55	44.95
985.7832	2591.3819	932.4	46.95
985.9087	2592.6739	931.8	48.55
986.0343	2593.9652	932.5	44.55
986.1597	2595.2557	930.2	44.6
986.2852	2596.5456	933	44.7
986.4106	2597.8348	934	48.45
986.536	2599.1234	931.75	46.3
986.6614	2600.4112	929.6	43.85
986.7867	2601.6983	934.55	46.4
986.912	2602.9848	934.5	46.45
987.0372	2604.2705	939.15	46.95
987.1624	2605.5556	930.95	44.85
987.2876	2606.84	927.25	40.95
987.4128	2608.1237	931.6	44.1
987.5379	2609.4067	929.1	42.8
987.6629	2610.689	942.55	49.85
987.788	2611.9707	932.95	42.85
987.913	2613.2516	933.15	42.15
988.0379	2614.5319	928.25	42.25
988.1629	2615.8115	927.65	40.2
988.2878	2617.0903	930	42.05
988.4126	2618.3685	931.4	44.8
988.5375	2619.6461	928.35	42.2
988.6622	2620.9229	927.75	42.95
988.787	2622.199	931.3	45.8
988.9117	2623.4745	928	39.35
989.0364	2624.7493	926.1	41.15
989.161	2626.0234	924.1	39.45
989.2857	2627.2968	925.7	39.3
989.4102	2628.5695	929.75	42.45
989.5348	2629.8415	929.55	43.35
989.6593	2631.1128	928.4	41.45
989.7837	2632.3835	925.8	40.6
989.9082	2633.6535	924.55	39.9
990.0326	2634.9228	926.85	41.9
990.1569	2636.1914	928.05	41.6
990.2812	2637.4593	933.15	42.85
990.4055	2638.7265	926.3	38.35
990.5298	2639.9931	927.1	40.05
990.654	2641.259	924.35	36.85
990.7782	2642.5242	926.1	39.85
990.9023	2643.7887	926.25	41.4
991.0264	2645.0525	926.25	38.9
991.1505	2646.3156	926.05	40.95
991.2745	2647.5781	922.65	37.55
991.3985	2648.8398	924.8	39.75
991.5225	2650.1009	962.3	38.5
991.6464	2651.3613	927.1	39.35
991.7703	2652.6211	923.1	38.4
991.8942	2653.8801	920.65	34.2
992.018	2655.1385	926.7	37.35
992.1418	2656.3961	924.7	37.75
992.2655	2657.6531	923.55	38.35
992.3892	2658.9094	923.15	37.1
992.5129	2660.1651	923.9	41.7
992.6366	2661.42	923.8	36.45
992.7602	2662.6743	925.75	39.15
992.8837	2663.9279	924.6	39.2
993.0073	2665.1808	924.4	37.5
993.1307	2666.433	927.15	38.15
993.2542	2667.6846	922.8	33.1
993.3776	2668.9354	928.15	36.8
993.501	2670.1856	924.65	37.65
993.6244	2671.4351	921.5	35.35
993.7477	2672.6839	926.3	40.15
993.8709	2673.9321	923.25	38.15
993.9942	2675.1795	924.25	37.8
994.1174	2676.4263	924	37.7
994.2405	2677.6724	924.4	37.2
994.3637	2678.9179	924.05	38.45
994.4868	2680.1626	925.2	38.75
994.6098	2681.4067	925.9	39.45
994.7328	2682.6501	925	37.2
994.8558	2683.8928	921.95	35.3
994.9788	2685.1348	924.05	37.25
995.1017	2686.3761	923.65	39.25
995.2245	2687.6168	919.5	33.8
995.3474	2688.8568	922.55	37.3
995.4702	2690.0961	921.95	36.2
995.5929	2691.3348	921.85	34.4
995.7156	2692.5727	923.35	35.55
995.8383	2693.81	921.95	34.25
995.961	2695.0466	917.8	33.9
996.0836	2696.2826	921.4	32.55
996.2062	2697.5178	927.6	39.5
996.3287	2698.7524	923.5	38.95
996.4512	2699.9863	922.6	34.95
996.5737	2701.2195	921.45	35
996.6961	2702.452	920.25	32.1
996.8185	2703.6839	922.4	34.1
996.9408	2704.9151	920.05	35
997.0631	2706.1456	921.9	36.45
997.1854	2707.3755	923.1	37.45
997.3077	2708.6046	925.8	37.8
997.4299	2709.8331	924.4	39.5
997.552	2711.0609	923.15	37.4
997.6742	2712.2881	922.25	34.35
997.7963	2713.5145	924.35	37.2
997.9183	2714.7403	920.15	35.35
998.0403	2715.9654	926	39.25
998.1623	2717.1899	925.7	35.05
998.2842	2718.4136	922.8	36.25
998.4062	2719.6367	925.25	40.3
998.528	2720.8591	931.15	37.85
998.6498	2722.0809	924.45	37.15
998.7716	2723.3019	931.25	43.1
998.8934	2724.5223	925.75	38.75
999.0151	2725.7421	927	38.55
999.1368	2726.9611	929.5	42
999.2584	2728.1795	931.95	41.2
999.38	2729.3972	922.2	35.95
999.5016	2730.6142	934.6	35.1
999.6231	2731.8306	924.45	36.15
999.7446	2733.0462	924.45	37.8
999.8661	2734.2612	925.85	35.55
999.9875	2735.4756	923.05	36.95
1000.1089	2736.6892	923.6	35.2
1000.2302	2737.9022	919	34.9
1000.3515	2739.1145	921.2	33.9
1000.4728	2740.3262	926.75	33.3
1000.594	2741.5372	920.55	35.35
1000.7152	2742.7475	917.85	30.7
1000.8363	2743.9571	919.25	30.7
1000.9575	2745.1661	922.85	32.25
1001.0785	2746.3744	919.05	30.5
1001.1996	2747.582	915.2	27.4
1001.3206	2748.7889	920.8	33.15
1001.4415	2749.9952	916.45	30.15
1001.5625	2751.2008	919.85	32.15
1001.6833	2752.4057	920.5	31.1
1001.8042	2753.61	917.2	28.45
1001.925	2754.8136	919.15	31.2
1002.0458	2756.0165	913.8	27.65
1002.1665	2757.2188	916.9	33.55
1002.2872	2758.4204	913.4	26.4
1002.4078	2759.6213	918.4	31.05
1002.5285	2760.8215	922.05	29.45
1002.649	2762.0211	918.2	31.65
1002.7696	2763.22	918.65	29.3
1002.8901	2764.4182	916.9	27.3
1003.0106	2765.6158	916.1	28.35
1003.131	2766.8127	917.8	31.4
1003.2514	2768.009	913.45	28.25
1003.3717	2769.2045	916.05	29.2
1003.492	2770.3994	915.95	28
1003.6123	2771.5936	913.15	26.15
1003.7325	2772.7872	910	23.7
1003.8527	2773.9801	915.55	27.6
1003.9729	2775.1723	931.9	28.6
1004.093	2776.3639	913.35	27.4
1004.2131	2777.5548	916.75	28.45
1004.3331	2778.745	914.2	27.7
1004.4531	2779.9346	914.35	28.2
1004.5731	2781.1235	915.5	27.5
1004.693	2782.3117	914.5	29.5
1004.8129	2783.4992	912.5	26.55
1004.9328	2784.6861	914.75	28.5
1005.0526	2785.8723	914.05	26.2
1005.1723	2787.0579	915.5	29.5
1005.2921	2788.2428	911.95	26.25
1005.4118	2789.427	915.9	30.2
1005.5314	2790.6106	916.05	29.9
1005.651	2791.7935	913.85	26.45
1005.7706	2792.9757	911.3	25.6
1005.8902	2794.1573	914.85	27.85
1006.0097	2795.3382	913	26.1
1006.1291	2796.5184	913.85	29.55
1006.2485	2797.698	916.9	27.75
1006.3679	2798.8769	913.5	28.75
1006.4873	2800.0551	913.1	27.8
1006.6066	2801.2327	916.7	29.05
1006.7258	2802.4096	913.6	28.35
1006.8451	2803.5859	916.15	27.3
1006.9642	2804.7615	917.1	28.45
1007.0834	2805.9364	916.15	32.35
1007.2025	2807.1106	912.65	27.2
1007.3216	2808.2842	916.4	29.95
1007.4406	2809.4572	914.4	29.15
1007.5596	2810.6294	918.3	30.55
1007.6785	2811.801	917.1	32.1
1007.7975	2812.972	917.25	31.2
1007.9163	2814.1423	920.3	32.65
1008.0352	2815.3119	922.3	36.25
1008.154	2816.4808	922.7	38.5
1008.2727	2817.6491	923.55	38.1
1008.3914	2818.8167	923.85	38.55
1008.5101	2819.9837	933.7	44.3
1008.6288	2821.15	928.5	41.75
1008.7474	2822.3157	929.15	45
1008.8659	2823.4807	935.65	51.05
1008.9844	2824.645	940.35	52.6
1009.1029	2825.8086	942.45	57.35
1009.2214	2826.9716	945	62.4
1009.3398	2828.134	954.35	68.1
1009.4581	2829.2957	956.9	71.3
1009.5764	2830.4567	954.3	67.85
1009.6947	2831.617	964.9	78.1
1009.813	2832.7767	961.75	77.5
1009.9312	2833.9358	960.3	75.15
1010.0493	2835.0941	964.55	77.95
1010.1675	2836.2519	959.35	74.3
1010.2855	2837.4089	956.85	71.05
1010.4036	2838.5653	956.8	72
1010.5216	2839.7211	955.05	70.9
1010.6396	2840.8761	953.8	65.85
1010.7575	2842.0306	948.45	64.55
1010.8754	2843.1843	948.95	61.7
1010.9932	2844.3374	950.1	64.65
1011.111	2845.4899	951.2	63.75
1011.2288	2846.6417	954.1	68.7
1011.3465	2847.7928	952.45	67
1011.4642	2848.9433	954.5	69.75
1011.5818	2850.0931	957.15	68.3
1011.6995	2851.2422	957	69.2
1011.817	2852.3907	955.5	67.8
1011.9345	2853.5385	958.05	70.9
1012.052	2854.6857	982.4	70.05
1012.1695	2855.8323	958.75	72.7
1012.2869	2856.9781	957.3	72.2
1012.4042	2858.1233	961.4	74.3
1012.5216	2859.2679	960.8	76.4
1012.6389	2860.4118	962.65	76.3
1012.7561	2861.555	974.3	84.65
1012.8733	2862.6976	968.1	77.45
1012.9905	2863.8395	969	83.6
1013.1076	2864.9808	970.25	84.25
1013.2247	2866.1214	969.2	84.4
1013.3417	2867.2614	971.05	83.25
1013.4587	2868.4007	973.9	87.4
1013.5757	2869.5393	972.25	83.5
1013.6926	2870.6773	976.65	88.2
1013.8095	2871.8146	977.9	88.25
1013.9263	2872.9513	977.5	90.4
1014.0431	2874.0874	979.2	93.15
1014.1599	2875.2227	976.75	90.75
1014.2766	2876.3574	982.4	94.8
1014.3933	2877.4915	979.5	93.25
1014.51	2878.6249	982.85	97.15
1014.6266	2879.7577	983.55	96
1014.7431	2880.8898	992.4	96.85
1014.8596	2882.0212	984.55	99
1014.9761	2883.152	984.55	98.85
1015.0925	2884.2821	985.7	101.15
1015.2089	2885.4116	988.45	102.9
1015.3253	2886.5405	985.7	100.6
1015.4416	2887.6686	993.25	104.2
1015.5579	2888.7962	988.7	105
1015.6741	2889.923	986.65	99.35
1015.7903	2891.0493	989.3	103.1
1015.9065	2892.1748	990.85	103.9
1016.0226	2893.2997	986.85	100.1
1016.1387	2894.424	989.85	103.25
1016.2547	2895.5476	987.95	103.4
1016.3707	2896.6706	988.35	102.55
1016.4866	2897.7929	992.85	105.65
1016.6025	2898.9145	992.9	107.1
1016.7184	2900.0355	992	102.95
1016.8342	2901.1559	990.4	103.55
1016.95	2902.2756	989	99.55
1017.0658	2903.3946	984.2	100.6
1017.1815	2904.513	989.65	101.35
1017.2971	2905.6308	981.75	95.1
1017.4127	2906.7479	986.6	99.65
1017.5283	2907.8643	987.1	100.65
1017.6439	2908.9801	983.85	98.2
1017.7594	2910.0953	984.9	100.3
1017.8748	2911.2098	991.45	102.75
1017.9902	2912.3236	992.5	99.2
1018.1056	2913.4368	993.8	103.65
1018.2209	2914.5494	982.35	95.4
1018.3362	2915.6613	990.8	99.35
1018.4515	2916.7725	986.25	98.95
1018.5667	2917.8831	980.3	91.8
1018.6819	2918.9931	984.3	95.2
1018.797	2920.1024	980.1	92.15
1018.9121	2921.211	977.95	90.8
1019.0271	2922.319	978.5	90.05
1019.1421	2923.4264	978.15	93.45
1019.2571	2924.5331	975.75	87.85
1019.372	2925.6391	976.85	91.4
1019.4869	2926.7445	972.95	88.2
1019.6017	2927.8493	978.8	92.85
1019.7165	2928.9534	976.1	90.2
1019.8313	2930.0569	979.9	90.3
1019.946	2931.1597	979.6	92.3
1020.0606	2932.2619	975.2	87.95
1020.1753	2933.3634	976.3	92.2
1020.2899	2934.4643	982.55	91.4
1020.4044	2935.5645	986.3	94.15
1020.5189	2936.6641	985.05	94.5
1020.6334	2937.763	979.65	95.05
1020.7478	2938.8613	982.05	94.8
1020.8622	2939.959	986.6	96.15
1020.9765	2941.056	978.45	92.8
1021.0908	2942.1523	973.75	88.05
1021.2051	2943.248	969.7	82.85
1021.3193	2944.3431	968.7	82.2
1021.4334	2945.4375	961.2	74.9
1021.5476	2946.5313	957.2	72.8
1021.6617	2947.6244	954.85	68
1021.7757	2948.7169	953.95	67.65
1021.8897	2949.8087	948.65	60.7
1022.0037	2950.8999	946.7	59.95
1022.1176	2951.9904	939.05	54.15
1022.2315	2953.0803	942.15	56.1
1022.3453	2954.1696	937.65	51.05
1022.4591	2955.2582	936.3	50.35
1022.5728	2956.3462	935.75	49.9
1022.6865	2957.4335	933.8	47.5
1022.8002	2958.5202	935.05	46.7
1022.9138	2959.6062	933.65	47.35
1023.0274	2960.6916	933.8	49.35
1023.141	2961.7764	936.8	48.95
1023.2545	2962.8605	932.65	44.2
1023.3679	2963.9439	931.65	47.05
1023.4813	2965.0267	934.55	47.05
1023.5947	2966.1089	953.7	45.65
1023.708	2967.1905	932.65	46.35
1023.8213	2968.2714	930.25	45.2
1023.9346	2969.3516	930.75	43.4
1024.0478	2970.4312	940.2	48.05
1024.1609	2971.5102	933.95	47.5
1024.274	2972.5885	929.7	44.25
1024.3871	2973.6662	937.25	44.6
1024.5002	2974.7432	932.05	44.4
1024.6132	2975.8196	930.65	44.95
1024.7261	2976.8954	931.55	46
1024.839	2977.9705	931.8	46.25
1024.9519	2979.045	930.2	43.3
1025.0647	2980.1188	931.45	44.95
1025.1775	2981.192	931.9	48.1
1025.2902	2982.2645	930.55	41.1
1025.4029	2983.3364	929.6	42.6
1025.5156	2984.4077	928.1	42.4
1025.6282	2985.4783	933.1	41.15
1025.7407	2986.5483	926.7	41.75
1025.8532	2987.6177	926.4	41.95
1025.9657	2988.6864	925.65	39.6
1026.0782	2989.7545	924.2	37.7
1026.1906	2990.8219	920.8	35.1
1026.3029	2991.8887	922.6	34.25
1026.4152	2992.9548	919.6	31.9
1026.5275	2994.0204	916.05	30.7
1026.6397	2995.0852	914.75	30
1026.7519	2996.1495	915.9	28.2
1026.864	2997.2131	913.4	26.2
1026.9761	2998.276	913.4	26.85
1027.0882	2999.3383	912.2	26.7
1027.2002	3000.4	913	24.3
1027.3122	3001.4611	908.85	23.65
1027.4241	3002.5215	909	23.85
1027.536	3003.5812	908.6	22.4
1027.6478	3004.6404	906.95	20.2
1027.7596	3005.6989	908.65	22.9
1027.8714	3006.7567	907.15	20.9
1027.9831	3007.8139	935.05	18.75
1028.0947	3008.8705	905.35	18.75
1028.2064	3009.9264	921.7	19.15
1028.3179	3010.9818	906	18.2
1028.4295	3012.0364	903.85	16.9
1028.541	3013.0905	905.55	20.55
1028.6524	3014.1439	903.7	18.85
1028.7638	3015.1966	902.85	16.6
1028.8752	3016.2487	905.35	18.3
1028.9865	3017.3002	911.1	16.9
1029.0978	3018.3511	901.7	16.1
1029.209	3019.4013	905.25	19.5
1029.3202	3020.4509	901.4	17.6
1029.4314	3021.4998	903	17.6
1029.5425	3022.5481	901.8	15.2
1029.6535	3023.5958	902.85	17.1
1029.7645	3024.6428	902.05	15.3
1029.8755	3025.6892	902.5	17.2
1029.9864	3026.735	901.45	16.2
1030.0973	3027.7802	901	13.95
1030.2082	3028.8247	901.75	15.85
1030.319	3029.8685	903.6	16.1
1030.4297	3030.9118	903.2	16.85
1030.5404	3031.9544	899.65	14.3
1030.6511	3032.9963	902.5	15.6
1030.7617	3034.0376	901.55	16.9
1030.8723	3035.0783	905.4	17.95
1030.9829	3036.1184	902.9	17
1031.0934	3037.1578	903	18.05
1031.2038	3038.1966	903.5	14.25
1031.3142	3039.2348	902.15	16.6
1031.4246	3040.2723	911.25	16.85
1031.5349	3041.3092	902.15	14.15
1031.6452	3042.3455	900.65	16.85
1031.7554	3043.3811	901.8	14.1
1031.8656	3044.4161	904.4	16.35
1031.9758	3045.4505	903.25	17.75
1032.0859	3046.4842	903.25	18.1
1032.1959	3047.5173	901.65	18.65
1032.3059	3048.5498	903.95	17.85
1032.4159	3049.5816	902.35	15.85
1032.5258	3050.6128	902.45	14.2
1032.6357	3051.6434	902.6	15.85
1032.7455	3052.6734	902.75	15.15
1032.8553	3053.7027	901.5	14.3
1032.9651	3054.7314	899.3	12.65
1033.0748	3055.7594	903.75	18.5
1033.1845	3056.7868	905.05	17.35
1033.2941	3057.8136	902.85	16.75
1033.4037	3058.8398	902	14.25
1033.5132	3059.8653	904	17.2
1033.6227	3060.8902	903.15	17.95
1033.7321	3061.9145	902.55	15.05
1033.8415	3062.9381	903.3	15.75
1033.9509	3063.9612	917.65	16.7
1034.0602	3064.9835	903.15	17.25
1034.1694	3066.0053	903.65	15.5
1034.2787	3067.0264	902.35	14.15
1034.3878	3068.0469	904	17.15
1034.497	3069.0668	905.25	17.15
1034.6061	3070.086	902.15	17.15
1034.7151	3071.1046	904.65	15.7
1034.8241	3072.1226	904.8	17.1
1034.9331	3073.1399	902	16.35
1035.042	3074.1567	903.75	19
1035.1508	3075.1727	904.2	14.8
1035.2597	3076.1882	900.7	13.55
1035.3684	3077.203	904.2	17.25
1035.4772	3078.2173	902.9	17
1035.5859	3079.2308	903.4	14.8
1035.6945	3080.2438	904.5	17.8
1035.8031	3081.2561	900.35	14
1035.9117	3082.2678	897.9	13.55
1036.0202	3083.2789	899.7	13
1036.1286	3084.2893	901.1	16.7
1036.2371	3085.2991	897.45	10.3
1036.3454	3086.3083	904.75	14.45
1036.4538	3087.3169	901.85	14.1
1036.562	3088.3248	900.9	13.45
1036.6703	3089.3321	901.9	14.75
1036.7785	3090.3388	898.3	12.55
1036.8866	3091.3449	899.85	13.3
1036.9948	3092.3503	901	10.5
1037.1028	3093.3551	894.45	11.2
1037.2108	3094.3593	897	11.2
1037.3188	3095.3629	896.4	11.15
1037.4267	3096.3658	899.8	13.25
1037.5346	3097.3681	898.05	10.3
1037.6425	3098.3698	899.4	10.4
1037.7503	3099.3708	898.15	11.7
1037.858	3100.3713	897.45	12.3
1037.9657	3101.3711	894.95	8.1
1038.0734	3102.3702	1033.8	10
1038.181	3103.3688	899.5	10.9
1038.2886	3104.3667	894.7	8.8
1038.3961	3105.364	897.5	11.35
1038.5036	3106.3607	897.6	8.65
1038.611	3107.3568	899	12.15
1038.7184	3108.3522	897.2	12.95
1038.8257	3109.347	898.75	12.05
1038.933	3110.3412	899.65	8.75
1039.0403	3111.3348	895.7	9
1039.1475	3112.3277	896.6	11.5
1039.2547	3113.32	895.1	9.5
1039.3618	3114.3117	895.75	10.15
1039.4689	3115.3028	896.9	12.45
1039.5759	3116.2932	898.3	9.7
1039.6829	3117.2831	903.05	10
1039.7898	3118.2723	895.85	8.1
1039.8967	3119.2608	896.05	10.95
1040.0035	3120.2488	896.65	8.4
1040.1103	3121.2361	893.65	6.9
1040.2171	3122.2229	894.65	9.65
1040.3238	3123.209	895.5	7.85
1040.4305	3124.1944	895.15	11.5
1040.5371	3125.1793	896.85	9.15
1040.6437	3126.1635	893.8	6.65
1040.7502	3127.1471	895	9.35
1040.8567	3128.1301	894.55	8.2
1040.9631	3129.1125	894.8	9.8
1041.0695	3130.0942	895.05	9.3
1041.1759	3131.0753	903.95	10.8
1041.2822	3132.0558	897.55	9.9
1041.3884	3133.0357	896.7	8.95
1041.4946	3134.015	894.8	7.8
1041.6008	3134.9936	895.3	6.4
1041.7069	3135.9716	913	5.35
1041.813	3136.949	895.7	9.5
1041.919	3137.9258	912.45	7.65
1042.025	3138.902	900.7	9.8
1042.1309	3139.8775	894.35	10
1042.2368	3140.8524	891.7	6.9
1042.3427	3141.8267	893.5	4
1042.4485	3142.8004	894.55	6.9
1042.5542	3143.7735	900.95	8.3
1042.6599	3144.7459	896.5	8.15
1042.7656	3145.7178	893.65	5
1042.8712	3146.689	891.45	6.05
1042.9768	3147.6596	894.85	6.4
1043.0823	3148.6295	892.75	8
1043.1878	3149.5989	894.5	9.8
1043.2932	3150.5676	891.9	5.4
1043.3986	3151.5357	892.55	5.5
1043.5039	3152.5032	893.2	9.1
1043.6092	3153.4701	892.25	7.15
1043.7145	3154.4364	895.05	7.1
1043.8197	3155.402	891.7	5.85
1043.9248	3156.367	896.15	8.45
1044.03	3157.3315	925.2	7.2
1044.135	3158.2952	892.3	6.15
1044.24	3159.2584	895.65	10.7
1044.345	3160.221	895.4	8.15
1044.4499	3161.1829	893	5.1
1044.5548	3162.1442	893.4	6.95
1044.6596	3163.105	892.25	5.8
1044.7644	3164.065	892.45	6.7
1044.8692	3165.0245	896.15	6.3
1044.9739	3165.9834	890.85	5.55
1045.0785	3166.9416	892.25	7.3
1045.1831	3167.8993	892.4	5.65
1045.2877	3168.8563	893.65	6.6
1045.3922	3169.8127	893.55	7.6
1045.4966	3170.7684	892.4	5.85
1045.6011	3171.7236	893.5	7.2
1045.7054	3172.6782	892.95	6.55
1045.8098	3173.6321	891.8	4.35
1045.914	3174.5854	895.7	6.05
1046.0183	3175.5381	892.95	6.3
1046.1224	3176.4902	891.1	5
1046.2266	3177.4417	891.65	5
1046.3307	3178.3926	890.35	4.2
1046.4347	3179.3428	892.1	7.25
1046.5387	3180.2924	891.4	6.05
1046.6427	3181.2415	893.55	7.2
1046.7466	3182.1899	895.1	7.8
1046.8504	3183.1377	893.35	7.05
1046.9542	3184.0848	894.95	4.8
1047.058	3185.0314	892.85	5.2
1047.1617	3185.9773	893.9	8.1
1047.2654	3186.9227	894.9	6.35
1047.369	3187.8674	891.95	5.7
1047.4726	3188.8115	896.2	6.4
1047.5761	3189.755	891.45	3.45
1047.6796	3190.6979	892.05	5.5
1047.783	3191.6402	891.65	8.15
1047.8864	3192.5818	891.35	5.9
1047.9898	3193.5229	898.7	6.4
1048.0931	3194.4633	890.5	5.25
1048.1963	3195.4031	890.65	4.35
1048.2995	3196.3423	891.8	6.6
1048.4027	3197.2809	889.7	2.35
1048.5058	3198.2189	891.8	5.05
1048.6089	3199.1563	899.6	6.35
1048.7119	3200.0931	891.45	5.8
1048.8148	3201.0292	891.35	8.35
1048.9178	3201.9648	892.2	6.25
1049.0206	3202.8997	893.1	5.2
1049.1235	3203.834	892.25	5.9
1049.2262	3204.7677	890.35	5
1049.329	3205.7008	893.9	6.9
1049.4317	3206.6333	889.05	4.1
1049.5343	3207.5652	894.05	6.65
1049.6369	3208.4964	891.55	3.8
1049.7394	3209.4271	890.15	4.7
1049.8419	3210.3571	890.35	3.9
1049.9444	3211.2865	890.75	2.9
1050.0468	3212.2154	890.3	4.15
1050.1491	3213.1436	894.4	6.7
1050.2514	3214.0712	899.2	7.05
1050.3537	3214.9982	891.05	4.8
1050.4559	3215.9246	892.95	7.55
1050.5581	3216.8503	890.55	6.65
1050.6602	3217.7755	892.25	6.1
1050.7623	3218.7001	890.4	2.55
1050.8643	3219.624	891.35	6.2
1050.9663	3220.5473	890.15	3.65
1051.0682	3221.4701	892.9	4.25
1051.1701	3222.3922	895.7	6.6
1051.2719	3223.3137	889.25	3.4
1051.3737	3224.2346	891.6	5.8
1051.4754	3225.1549	892.1	6.6
1051.5771	3226.0746	889.7	4.05
1051.6788	3226.9937	891.65	5.1
1051.7804	3227.9121	891.95	7.1
1051.8819	3228.83	889.05	1.55
1051.9834	3229.7473	891.6	5.55
1052.0849	3230.6639	890.75	3.7
1052.1863	3231.5799	891.75	5.7
1052.2876	3232.4954	891.75	4
1052.3889	3233.4102	889.4	3.85
1052.4902	3234.3244	890.7	2.75
1052.5914	3235.238	890.4	3.45
1052.6926	3236.151	913.9	2.7
1052.7937	3237.0634	888.55	3.7
1052.8948	3237.9752	889.15	2.5
1052.9958	3238.8864	891.8	6.6
1053.0968	3239.797	890.95	4.9
1053.1977	3240.7069	890.85	4.25
1053.2986	3241.6163	893.3	7.25
1053.3994	3242.5251	888.4	0.95
1053.5002	3243.4332	890.55	4.75
1053.6009	3244.3408	891.15	4.85
1053.7016	3245.2477	890.65	5.35
1053.8022	3246.154	892.75	6.6
1053.9028	3247.0598	891.2	5.6
1054.0034	3247.9649	889.15	2.7
1054.1039	3248.8694	889.8	3.95
1054.2043	3249.7733	889.5	3.05
1054.3047	3250.6766	891.3	4.35
1054.4051	3251.5793	891.35	4.85
1054.5054	3252.4814	890.4	4.9
1054.6056	3253.3829	889.25	2.1
1054.7058	3254.2838	891.1	6.45
1054.806	3255.1841	889.1	6.1
1054.9061	3256.0838	891.2	4.85
1055.0061	3256.9829	888.9	4.25
1055.1062	3257.8814	893.45	5.45
1055.2061	3258.7792	893.5	6.65
1055.306	3259.6765	890.7	3.95
1055.4059	3260.5731	890.3	5.2
1055.5057	3261.4692	891.7	5.35
1055.6055	3262.3647	890.05	4
1055.7052	3263.2595	889.2	0.1
1055.8049	3264.1538	888.85	2.65
1055.9045	3265.0474	890.25	4.75
1056.0041	3265.9404	890.1	4.4
1056.1036	3266.8329	888.65	2.45
1056.2031	3267.7247	899.45	3.2
1056.3025	3268.616	888.7	3.6
1056.4019	3269.5066	887.5	1.45
1056.5013	3270.3966	890.55	3.25
1056.6005	3271.286	887.95	2.15
