Software Version:	3.9.2.0
Unit SN:	10000200
Spectrometer SN:	6960
Date:	3/14/2024 12:28:53 PM
Data Line Index:	25
Spectral Points:	2048
Integration time (ms):	125
Averages:	20
Delay (ms):	30000
Sequence Number:	1
Processing:	dark subtract
Laser Power (mW):	305
Laser Current (mA):	822
Laser Diode Temp (C):	25.1
Laser Case Temp (C):	25.7
System Temp (C):	25.6
Spectrometer Temp (C):	23.4
CCD Temp (C):	0.009
Secondary Temp (C):	20.008
Heatsink Temp (C):	22.56
CCDPCB Temp (C):	36.307
SecondaryPCB Temp (C):	31.094

Wavelength	RamanShift	Raw Counts	Dark Subtracted
787.061	30.1047	420.7	8.45
787.2016	32.3739	419.3	8.6
787.3422	34.6426	419.35	8.3
787.4828	36.9109	422.95	8.4
787.6235	39.1787	426.25	10.6
787.7642	41.4461	432.9	10
787.9049	43.7131	437.25	13
788.0456	45.9796	440.4	12.1
788.1863	48.2456	444.4	10.55
788.3271	50.5112	450.15	12.7
788.4679	52.7764	452.95	13.2
788.6087	55.0411	455.3	12.3
788.7496	57.3054	461.45	14.8
788.8904	59.5692	464.75	17.2
789.0313	61.8326	471.4	19
789.1722	64.0955	476.7	19.35
789.3132	66.3579	483.8	21.35
789.4541	68.6199	488.35	25.55
789.5951	70.8815	496.3	28.2
789.7361	73.1426	516.95	45.55
789.8771	75.4032	553.15	78.2
790.0181	77.6634	640.2	160.2
790.1592	79.9231	825.85	343.65
790.3003	82.1824	1233.95	747.55
790.4414	84.4412	1910.25	1419.1
790.5825	86.6995	2797.15	2299.6
790.7237	88.9574	3642.05	3140.75
790.8648	91.2148	4263.65	3759.5
791.006	93.4717	4545.4	4037.15
791.1472	95.7282	4618.05	4107.7
791.2885	97.9842	4621.25	4109.7
791.4297	100.2398	4579.05	4063.1
791.571	102.4949	4535.25	4015.7
791.7123	104.7495	4476.6	3953.95
791.8536	107.0036	4429.7	3906.05
791.9949	109.2573	4364.4	3843
792.1363	111.5105	4278.3	3754.05
792.2777	113.7632	4181.1	3651.9
792.4191	116.0154	4095.9	3557.95
792.5605	118.2672	3955.7	3426
792.7019	120.5185	3850.6	3319
792.8434	122.7693	3737.2	3201.45
792.9849	125.0197	3627.15	3088.9
793.1264	127.2696	3539.75	3000.65
793.2679	129.519	3481.3	2937.95
793.4094	131.7679	3459.5	2914.8
793.551	134.0163	3418.4	2869.8
793.6926	136.2642	3395.7	2843.4
793.8342	138.5117	3401.75	2845.95
793.9758	140.7587	3383.6	2826.8
794.1175	143.0052	3341.75	2780.45
794.2591	145.2512	3280.75	2719.5
794.4008	147.4967	3210.45	2646.1
794.5425	149.7417	3157.75	2594
794.6842	151.9863	3109.15	2540.1
794.826	154.2304	3100.8	2530.7
794.9677	156.4739	3089.05	2510.9
795.1095	158.717	3105.75	2527.75
795.2513	160.9596	3128	2547.15
795.3931	163.2017	3164.2	2581.25
795.535	165.4433	3184.55	2600.1
795.6768	167.6844	3197.65	2611.65
795.8187	169.925	3171.9	2580.7
795.9606	172.1651	3109.45	2515.15
796.1025	174.4047	3051.6	2453.25
796.2445	176.6439	2989	2387.75
796.3864	178.8825	2953.85	2350.5
796.5284	181.1206	2923.35	2319
796.6704	183.3582	2910.35	2300.5
796.8124	185.5954	2905.7	2296.15
796.9544	187.832	2895.7	2280.1
797.0965	190.0681	2900.35	2281.6
797.2386	192.3037	2911.2	2291.25
797.3806	194.5388	2913.4	2290.75
797.5228	196.7734	2924.15	2298.9
797.6649	199.0075	2946.2	2316.45
797.807	201.2411	2975.65	2342.2
797.9492	203.4742	2979.6	2348.1
798.0914	205.7068	3018.55	2384.4
798.2336	207.9389	3046.85	2414.4
798.3758	210.1704	3063.75	2426.45
798.518	212.4015	3066.75	2423.95
798.6603	214.632	3056.4	2415.25
798.8025	216.862	3061.65	2425.9
798.9448	219.0915	3060.45	2432.65
799.0871	221.3205	3066.7	2440.75
799.2294	223.549	3063.35	2443.05
799.3718	225.777	3077.65	2456.15
799.5141	228.0044	3077.5	2453.05
799.6565	230.2314	3067.25	2446.2
799.7989	232.4578	3065.3	2440.25
799.9413	234.6837	3041.05	2410.6
800.0837	236.909	3019.05	2387.85
800.2262	239.1339	3021	2364.4
800.3687	241.3582	3003.9	2362.6
800.5111	243.582	3015.4	2349.75
800.6536	245.8053	3010.85	2351.7
800.7961	248.0281	3015.7	2361.6
800.9387	250.2503	3024.15	2364.45
801.0812	252.472	3035.7	2372.05
801.2238	254.6932	3039.65	2370.7
801.3664	256.9139	3035.05	2364.45
801.509	259.134	3064.8	2392.2
801.6516	261.3536	3077.8	2405.4
801.7942	263.5727	3121	2446.3
801.9369	265.7912	3158.65	2484.35
802.0795	268.0092	3220.75	2547.5
802.2222	270.2267	3293.15	2617.25
802.3649	272.4436	3350.8	2674.5
802.5076	274.6601	3400.8	2716.85
802.6504	276.8759	3414.15	2734.3
802.7931	279.0913	3440.35	2758.55
802.9359	281.3061	3457.2	2774.45
803.0787	283.5204	3489.55	2804.35
803.2215	285.7341	3510.55	2821.35
803.3643	287.9473	3566.45	2875.55
803.5071	290.16	3573.1	2875.85
803.6499	292.3721	3499.1	2806.75
803.7928	294.5837	3432.2	2740.3
803.9357	296.7947	3387.85	2693.7
804.0786	299.0052	3360.65	2667.95
804.2215	301.2152	3340.35	2644.4
804.3644	303.4246	3318.2	2625.2
804.5074	305.6334	3308.85	2614.9
804.6503	307.8418	3305.6	2608.35
804.7933	310.0495	3293.45	2596.05
804.9363	312.2568	3245.55	2550.25
805.0793	314.4635	3197.55	2498.15
805.2223	316.6696	3139.2	2436.45
805.3653	318.8752	3078.6	2367.05
805.5084	321.0802	3036.15	2333.8
805.6514	323.2847	3025.85	2321.15
805.7945	325.4887	3021.5	2315.3
805.9376	327.692	3029.35	2321.7
806.0807	329.8949	3083.45	2376.9
806.2238	332.0972	3140.45	2430.65
806.367	334.2989	3217.1	2503.15
806.5101	336.5001	3215.3	2503.5
806.6533	338.7007	3199.4	2485.7
806.7965	340.9008	3119.3	2403.6
806.9397	343.1003	3048.25	2330.35
807.0829	345.2992	2982.05	2264.55
807.2261	347.4976	2924.3	2204.65
807.3693	349.6955	2891.35	2167.2
807.5126	351.8927	2859.05	2134.85
807.6559	354.0895	2841.15	2105.1
807.7991	356.2856	2825.55	2098.45
807.9424	358.4812	2799.8	2074.4
808.0857	360.6763	2798.75	2071.5
808.2291	362.8707	2783	2055
808.3724	365.0646	2785.2	2055.45
808.5158	367.258	2795.2	2063.65
808.6591	369.4508	2813	2077.35
808.8025	371.643	2838.95	2102.85
808.9459	373.8346	2884.55	2143.3
809.0893	376.0257	2935	2191.25
809.2327	378.2162	2978.6	2233.85
809.3762	380.4062	2999	2253.65
809.5196	382.5956	2976.75	2228.6
809.6631	384.7844	2920.35	2173.65
809.8066	386.9726	2860.55	2111.35
809.9501	389.1603	2818.35	2069.15
810.0936	391.3474	2814.75	2035.15
810.2371	393.5339	2794.85	2044.95
810.3806	395.7199	2784.95	2040.7
810.5241	397.9052	2821.15	2079.95
810.6677	400.09	2857.25	2117.7
810.8113	402.2743	2921.65	2181.1
810.9548	404.4579	2952.5	2213.15
811.0984	406.641	3005.55	2263.4
811.2421	408.8235	3058	2315.55
811.3857	411.0054	3119.85	2374.7
811.5293	413.1868	3184.5	2438.05
811.673	415.3675	3251.55	2504
811.8166	417.5477	3261	2509.9
811.9603	419.7273	3196	2443.45
812.104	421.9064	3115.55	2355.4
812.2477	424.0848	3020.05	2262.5
812.3914	426.2627	2953.9	2196.2
812.5351	428.4399	2861.45	2101.35
812.6788	430.6166	2815.3	2051
812.8226	432.7928	2744.65	1978.75
812.9663	434.9683	2694.05	1929.1
813.1101	437.1432	2660.25	1894.4
813.2539	439.3176	2641.7	1872.15
813.3977	441.4914	2628	1860.75
813.5415	443.6645	2628.9	1858.05
813.6853	445.8371	2615	1843.75
813.8291	448.0091	2614.8	1844.2
813.973	450.1806	2624.65	1854.1
814.1168	452.3514	2616.4	1843.9
814.2607	454.5216	2639.95	1855.8
814.4046	456.6913	2602.65	1827.95
814.5485	458.8603	2614.55	1839.8
814.6924	461.0288	2624.1	1847.35
814.8363	463.1967	2620.35	1847.15
814.9802	465.3639	2621.5	1843.55
815.1241	467.5306	2599.2	1820.45
815.2681	469.6967	2599.3	1822
815.412	471.8622	2587.8	1811
815.556	474.0271	2576.95	1797.65
815.7	476.1914	2586.45	1803.35
815.844	478.3551	2569.7	1789.4
815.988	480.5182	2577.5	1796.75
816.132	482.6807	2569.25	1786.35
816.276	484.8426	2591.9	1809.2
816.4201	487.0039	2645.5	1861.15
816.5641	489.1647	2708	1923.85
816.7082	491.3248	2780.3	1997.25
816.8522	493.4843	2789.35	2006.95
816.9963	495.6432	2774.2	1989.25
817.1404	497.8015	2741.55	1952.4
817.2845	499.9592	2695.55	1910.75
817.4286	502.1163	2632.1	1844.5
817.5727	504.2728	2557	1767.4
817.7168	506.4287	2541.25	1752.55
817.861	508.5839	2525.35	1737.7
818.0051	510.7386	2512.1	1723.55
818.1493	512.8927	2511.65	1716.35
818.2935	515.0461	2509.2	1719.2
818.4377	517.199	2525.6	1734.35
818.5818	519.3512	2577.15	1786.9
818.726	521.5029	2677	1878.9
818.8703	523.6539	2741.2	1948.4
819.0145	525.8043	2771.85	1975.9
819.1587	527.9541	2719.3	1923.45
819.303	530.1033	2619.95	1824.45
819.4472	532.2519	2553.4	1756.5
819.5915	534.3999	2521.95	1723.85
819.7357	536.5472	2516.7	1719.75
819.88	538.694	2513.05	1714.85
820.0243	540.8401	2526.95	1730.1
820.1686	542.9856	2544.3	1745.3
820.3129	545.1305	2561.95	1760.9
820.4572	547.2748	2582.65	1781.8
820.6016	549.4185	2598.4	1796.2
820.7459	551.5615	2596.4	1795.25
820.8902	553.704	2622.6	1819.3
821.0346	555.8458	2630.55	1828.2
821.1789	557.987	2666.7	1864.95
821.3233	560.1276	2696.15	1890.35
821.4677	562.2675	2769	1965.55
821.6121	564.4069	2887.15	2082.95
821.7565	566.5456	2947.3	2142.25
821.9009	568.6837	2924.95	2118.3
822.0453	570.8212	2803.6	1997.1
822.1897	572.958	2688.45	1882.65
822.3342	575.0942	2610.15	1804.1
822.4786	577.2299	2568.25	1762.15
822.6231	579.3648	2534.95	1726.9
822.7675	581.4992	2511.6	1703.25
822.912	583.6329	2517.8	1709.7
823.0565	585.766	2544.65	1736.25
823.201	587.8985	2598.3	1793.7
823.3454	590.0304	2687.2	1854.3
823.4899	592.1616	2719.75	1909.95
823.6345	594.2922	2736.4	1927.6
823.779	596.4222	2703.35	1893.2
823.9235	598.5515	2624.45	1811.45
824.068	600.6802	2543.35	1730.7
824.2126	602.8083	2494.1	1680.5
824.3571	604.9358	2474.8	1662.35
824.5017	607.0626	2460.3	1648.4
824.6462	609.1888	2456.55	1641.8
824.7908	611.3144	2487.2	1671.1
824.9354	613.4393	2541.15	1726.55
825.08	615.5636	2605.1	1788.7
825.2246	617.6873	2665.25	1851.5
825.3692	619.8103	2716.65	1897.35
825.5138	621.9327	2726.95	1906.3
825.6584	624.0544	2687.65	1870.8
825.803	626.1756	2619.7	1803.9
825.9477	628.2961	2537.65	1721.25
826.0923	630.4159	2505.5	1688.05
826.237	632.5351	2496.15	1678.3
826.3816	634.6537	2476.15	1655.6
826.5263	636.7716	2475.4	1653.2
826.6709	638.8889	2464.3	1642.6
826.8156	641.0056	2469.3	1647.15
826.9603	643.1216	2489.5	1666.7
827.105	645.237	2503.45	1679.95
827.2497	647.3518	2482.4	1658.7
827.3944	649.4659	2446.1	1622.75
827.5391	651.5793	2416.8	1592
827.6838	653.6922	2400.6	1578.55
827.8285	655.8043	2378.75	1554.35
827.9733	657.9159	2368.25	1542.05
828.118	660.0268	2354.85	1528.95
828.2627	662.137	2348	1520.95
828.4075	664.2466	2355.55	1527.95
828.5522	666.3556	2359.95	1532.15
828.697	668.4639	2349.3	1518.85
828.8418	670.5716	2345.05	1516.55
828.9865	672.6786	2328.05	1499.1
829.1313	674.785	2313.35	1484.5
829.2761	676.8907	2318.5	1490
829.4209	678.9958	2319.1	1492.75
829.5657	681.1002	2322.65	1492.7
829.7105	683.204	2318.7	1485.45
829.8553	685.3072	2324.15	1495.25
830.0001	687.4097	2308.1	1476.75
830.1449	689.5115	2317.75	1485.35
830.2898	691.6127	2315.6	1487.6
830.4346	693.7132	2302.8	1469.85
830.5794	695.8131	2329.9	1483.85
830.7243	697.9123	2311.8	1478.45
830.8691	700.0109	2310.1	1475.9
831.014	702.1089	2325.2	1492.5
831.1588	704.2061	2342.95	1509.45
831.3037	706.3028	2371.65	1534.9
831.4486	708.3987	2408.95	1573.55
831.5935	710.4941	2422.85	1588.8
831.7383	712.5887	2428.2	1593.95
831.8832	714.6827	2427.8	1587.6
832.0281	716.7761	2409.05	1574.05
832.173	718.8688	2399	1561.7
832.3179	720.9608	2406.1	1567.2
832.4628	723.0522	2408.75	1573.8
832.6077	725.1429	2428	1591.2
832.7527	727.233	2466.35	1629.4
832.8976	729.3224	2547.25	1710.2
833.0425	731.4112	2623.6	1783.45
833.1874	733.4993	2650	1808.8
833.3324	735.5867	2619.5	1778.9
833.4773	737.6735	2516.35	1676.7
833.6222	739.7596	2446.9	1606.95
833.7672	741.845	2387.35	1547.7
833.9122	743.9298	2383.75	1540.3
834.0571	746.014	2377.95	1537.85
834.2021	748.0974	2390.65	1547.95
834.347	750.1802	2402.4	1562.45
834.492	752.2624	2392.55	1550.55
834.637	754.3439	2381.85	1537.8
834.782	756.4247	2369.8	1518.85
834.9269	758.5048	2363.7	1521.6
835.0719	760.5843	2381.75	1538.4
835.2169	762.6631	2419.65	1577.55
835.3619	764.7413	2484.35	1642.35
835.5069	766.8188	2595.05	1748.1
835.6519	768.8956	2694.2	1847.05
835.7969	770.9718	2774.65	1930.95
835.9419	773.0473	2772.9	1927.9
836.0869	775.1221	2718.4	1874.25
836.232	777.1962	2695.1	1849.65
836.377	779.2697	2756.35	1908.95
836.522	781.3426	2895.3	2038.85
836.667	783.4147	2999.95	2152.6
836.8121	785.4862	3023.15	2178.95
836.9571	787.557	2908.85	2063.85
837.1021	789.6271	2762	1914.05
837.2472	791.6966	2571.55	1726.2
837.3922	793.7654	2438.95	1589.55
837.5373	795.8335	2364.95	1518.45
837.6823	797.901	2317.5	1469.85
837.8274	799.9678	2300.35	1448.65
837.9724	802.0339	2295.7	1448.3
838.1175	804.0993	2309.9	1452.25
838.2626	806.1641	2307.45	1458.55
838.4076	808.2282	2289.25	1440.05
838.5527	810.2916	2269.95	1418.5
838.6978	812.3544	2248.05	1401.6
838.8428	814.4164	2226.9	1381.15
838.9879	816.4778	2229.7	1378.15
839.133	818.5385	2243.85	1396.7
839.2781	820.5986	2294.75	1446.1
839.4232	822.658	2362.1	1511.45
839.5682	824.7166	2442.9	1592.15
839.7133	826.7747	2551	1704.2
839.8584	828.832	2643.85	1793.2
840.0035	830.8886	2710.95	1859.35
840.1486	832.9446	2761.8	1910.35
840.2937	834.9999	2727.4	1877.6
840.4388	837.0545	2651.6	1797.55
840.5839	839.1085	2534.35	1680.7
840.729	841.1618	2438.85	1585.9
840.8741	843.2143	2354.85	1504.45
841.0192	845.2662	2309.85	1457.5
841.1643	847.3175	2280.8	1429.85
841.3095	849.368	2279.6	1428.25
841.4546	851.4179	2264.6	1411.6
841.5997	853.467	2261.65	1410.85
841.7448	855.5155	2270.65	1418.65
841.8899	857.5633	2277.8	1425.55
842.0351	859.6105	2266.8	1415.05
842.1802	861.6569	2260.05	1406.35
842.3253	863.7027	2241.1	1387.05
842.4704	865.7478	2224.05	1370.1
842.6156	867.7922	2213.55	1358.8
842.7607	869.8359	2183.35	1328.4
842.9058	871.8789	2176.8	1323.15
843.0509	873.9212	2215.25	1326.4
843.1961	875.9629	2189.95	1336.15
843.3412	878.0039	2191.7	1335.25
843.4863	880.0441	2210.5	1354.9
843.6315	882.0837	2237.9	1381.8
843.7766	884.1226	2272.65	1414.85
843.9218	886.1609	2305.75	1451.85
844.0669	888.1984	2372.65	1518.4
844.212	890.2352	2446.15	1591.3
844.3572	892.2714	2464.3	1603.65
844.5023	894.3069	2434.6	1578.15
844.6475	896.3416	2376.3	1517.2
844.7926	898.3757	2292.35	1435.05
844.9377	900.4091	2261.7	1403.7
845.0829	902.4418	2269.3	1408.35
845.228	904.4739	2298.85	1439.8
845.3732	906.5052	2322.7	1465.05
845.5183	908.5358	2327.65	1470.25
845.6635	910.5658	2301.9	1442.4
845.8086	912.595	2248.55	1391.7
845.9538	914.6236	2209.8	1351.6
846.0989	916.6515	2177.7	1321.05
846.2441	918.6786	2144.5	1283.7
846.3892	920.7051	2132.7	1273.85
846.5344	922.7309	2113.85	1255.9
846.6795	924.756	2123.15	1263.2
846.8246	926.7804	2139.1	1277.35
846.9698	928.8041	2150.45	1289.15
847.1149	930.8272	2172.45	1312.55
847.2601	932.8495	2176.9	1314.6
847.4052	934.8711	2202.05	1341.5
847.5504	936.892	2197.15	1338.6
847.6955	938.9123	2225.55	1364.15
847.8407	940.9318	2253.8	1392.1
847.9858	942.9506	2277.95	1415.6
848.131	944.9688	2286	1424.3
848.2761	946.9862	2250.9	1389.35
848.4213	949.003	2203.7	1341.95
848.5664	951.019	2178.85	1316.15
848.7115	953.0344	2151.3	1287.4
848.8567	955.0491	2135.55	1271.45
849.0018	957.063	2114.1	1251.9
849.147	959.0763	2114.2	1251.75
849.2921	961.0888	2112.9	1248.05
849.4373	963.1007	2107.45	1245.4
849.5824	965.1119	2100.7	1238.65
849.7275	967.1223	2080.75	1217.2
849.8727	969.1321	2074.45	1210.7
850.0178	971.1412	2078.15	1213.85
850.1629	973.1495	2058.45	1196
850.3081	975.1572	2103.25	1192.8
850.4532	977.1641	2065.9	1202.55
850.5983	979.1704	2064.75	1200.6
850.7435	981.1759	2061.55	1194.1
850.8886	983.1808	2050.75	1186.85
851.0337	985.1849	2035.35	1157.85
851.1788	987.1884	2046.3	1181.5
851.324	989.1911	2048	1178.85
851.4691	991.1932	2058.1	1192.1
851.6142	993.1945	2051.7	1187.35
851.7593	995.1951	2052.1	1186.75
851.9045	997.1951	2058.65	1186.8
852.0496	999.1943	2047.9	1183.45
852.1947	1001.1928	2031.65	1166.05
852.3398	1003.1906	2055.65	1190.1
852.4849	1005.1877	2088.3	1221.85
852.63	1007.1841	2123.3	1258.5
852.7751	1009.1798	2135.2	1269.65
852.9202	1011.1748	2128.4	1262.4
853.0653	1013.1691	2103.3	1234.95
853.2104	1015.1627	2060.45	1192.95
853.3555	1017.1556	2014.2	1148.7
853.5006	1019.1477	1994.85	1125.55
853.6457	1021.1392	1970.4	1104.45
853.7908	1023.1299	1958.95	1089.45
853.9359	1025.12	1939.05	1069.7
854.081	1027.1093	1953.35	1087.15
854.2261	1029.0979	1986.65	1120.5
854.3712	1031.0859	2014.65	1146.8
854.5163	1033.0731	2030.65	1161.15
854.6613	1035.0596	2027.35	1160.2
854.8064	1037.0454	2024.75	1157.4
854.9515	1039.0304	2005	1135.95
855.0965	1041.0148	1980.55	1114.1
855.2416	1042.9985	1955.05	1086.2
855.3867	1044.9814	1928.45	1060.3
855.5317	1046.9636	1925.55	1056.85
855.6768	1048.9452	1919.85	1051.55
855.8219	1050.926	1950	1081.35
855.9669	1052.9061	1971.65	1103.5
856.112	1054.8855	1993.9	1125.35
856.257	1056.8642	1983.45	1115.35
856.4021	1058.8421	1990.5	1116.9
856.5471	1060.8194	1973.1	1103.3
856.6921	1062.7959	1966.15	1097
856.8372	1064.7717	1962.3	1090.95
856.9822	1066.7469	1959.05	1088.2
857.1272	1068.7213	1958.5	1086.35
857.2723	1070.695	1977.35	1107.6
857.4173	1072.6679	2003.25	1132.45
857.5623	1074.6402	2049	1178.2
857.7073	1076.6117	2066.2	1191.7
857.8523	1078.5826	2044.2	1172.9
857.9973	1080.5527	1989.45	1115.5
858.1423	1082.5221	1947.65	1077.85
858.2873	1084.4908	1899.4	1029.55
858.4323	1086.4587	1881.4	1008.35
858.5773	1088.426	1867	994.2
858.7223	1090.3925	1867.25	993.1
858.8673	1092.3584	1864.3	991.65
859.0123	1094.3235	1874.35	1004.8
859.1573	1096.2879	1900.95	1030.1
859.3022	1098.2515	1922.45	1053.25
859.4472	1100.2145	1951.9	1080.4
859.5922	1102.1767	1986.2	1113.35
859.7371	1104.1382	2036.35	1164.1
859.8821	1106.099	2108.8	1233.5
860.027	1108.0591	2171.75	1300.35
860.172	1110.0185	2225.45	1353.45
860.3169	1111.9771	2273.45	1402.6
860.4619	1113.9351	2321.25	1449.25
860.6068	1115.8923	2410.2	1536.65
860.7517	1117.8488	2482.95	1609.5
860.8967	1119.8045	2441.3	1569.15
861.0416	1121.7596	2328.4	1455.05
861.1865	1123.7139	2171.15	1297.75
861.3314	1125.6675	2093.4	1221.6
861.4763	1127.6204	2078.6	1204
861.6212	1129.5726	2094.55	1218.5
861.7661	1131.524	2110.95	1240.3
861.911	1133.4748	2071	1198.75
862.0559	1135.4248	1998.6	1124.6
862.2008	1137.3741	1922.5	1050.1
862.3457	1139.3226	1870.4	996.95
862.4905	1141.2705	1871.35	996.6
862.6354	1143.2176	1881.75	1002.3
862.7803	1145.164	1893.5	1016.15
862.9251	1147.1097	1905.35	1031.7
863.07	1149.0546	1883.3	1009.3
863.2148	1150.9989	1852.1	979
863.3597	1152.9424	1820.95	947.65
863.5045	1154.8852	1805.9	932.5
863.6493	1156.8272	1785.3	912.35
863.7942	1158.7686	1788.9	907.3
863.939	1160.7092	1777.75	902
864.0838	1162.6491	1775.35	899.7
864.2286	1164.5883	1787.65	914.4
864.3734	1166.5267	1820	944.05
864.5182	1168.4644	1847.65	972.3
864.663	1170.4014	1877.25	998.3
864.8078	1172.3377	1918.4	1044
864.9526	1174.2732	1987.4	1112.2
865.0974	1176.2081	2070.8	1197
865.2421	1178.1421	2223.6	1345.9
865.3869	1180.0755	2394.3	1522.3
865.5317	1182.0082	2505.6	1631.1
865.6764	1183.9401	2512.35	1635.5
865.8212	1185.8713	2418.1	1543.05
865.9659	1187.8017	2254.05	1376.85
866.1106	1189.7315	2093.6	1216.1
866.2554	1191.6605	2000	1095.75
866.4001	1193.5888	1912.35	1036.7
866.5448	1195.5163	1865.9	991.45
866.6895	1197.4432	1834.9	957.35
866.8342	1199.3693	1808.75	932.55
866.9789	1201.2947	1802.3	920.55
867.1236	1203.2193	1789.65	915.35
867.2683	1205.1432	1784.05	905.85
867.413	1207.0664	1761.2	885.8
867.5576	1208.9889	1772.05	891.35
867.7023	1210.9106	1772.65	898.35
867.847	1212.8316	1774.7	901.35
867.9916	1214.7519	1791.35	904.55
868.1363	1216.6715	1797.85	923.8
868.2809	1218.5903	1809.15	932.1
868.4255	1220.5084	1831.15	955.3
868.5701	1222.4257	1841.6	963.45
868.7148	1224.3424	1854.05	978.35
868.8594	1226.2583	1872.5	991.05
869.004	1228.1735	1895.6	1018.55
869.1486	1230.0879	1943.6	1067.05
869.2932	1232.0016	1995.8	1119.15
869.4377	1233.9146	2037.05	1159.2
869.5823	1235.8269	2064.5	1188.25
869.7269	1237.7384	2066.45	1189.5
869.8715	1239.6492	2047.5	1170.85
870.016	1241.5592	2065.55	1187.45
870.1606	1243.4686	2107.85	1230.55
870.3051	1245.3772	2188.65	1312.95
870.4496	1247.285	2294.75	1416.2
870.5941	1249.1922	2403.1	1525.5
870.7387	1251.0986	2501.1	1624.55
870.8832	1253.0042	2574.25	1695.5
871.0277	1254.9092	2680.55	1803.9
871.1722	1256.8134	2797.05	1921
871.3167	1258.7169	2922.95	2044.3
871.4611	1260.6196	3029.2	2150.5
871.6056	1262.5216	3100.35	2221.15
871.7501	1264.4229	3116.95	2240.55
871.8945	1266.3234	3075.65	2197.85
872.039	1268.2232	3009.35	2130.65
872.1834	1270.1223	2911.8	2033.35
872.3278	1272.0207	2861.45	1982.9
872.4723	1273.9183	2838.8	1955.55
872.6167	1275.8151	2826.3	1947.15
872.7611	1277.7113	2868.15	1989.8
872.9055	1279.6067	2944.4	2066.05
873.0499	1281.5014	3119.6	2237.15
873.1943	1283.3953	3359.8	2478.75
873.3386	1285.2885	3626.4	2749.45
873.483	1287.181	3882.6	3002.35
873.6274	1289.0727	3971.7	3094.9
873.7717	1290.9637	3929.95	3049.95
873.9161	1292.854	3787.4	2908.15
874.0604	1294.7435	3579.9	2700.7
874.2047	1296.6323	3389.5	2511.45
874.349	1298.5204	3223.8	2339.85
874.4933	1300.4077	3104.5	2223.05
874.6376	1302.2943	3021.2	2140
874.7819	1304.1802	2953.95	2076.65
874.9262	1306.0653	2907.55	2026.15
875.0705	1307.9497	2869.55	1992.35
875.2147	1309.8333	2834.55	1956.9
875.359	1311.7162	2824.8	1945.3
875.5032	1313.5984	2785.65	1903.35
875.6475	1315.4798	2780.5	1890.95
875.7917	1317.3605	2777.5	1882.05
875.9359	1319.2405	2808.65	1927.05
876.0801	1321.1197	2810.65	1928.05
876.2243	1322.9982	2793	1909.05
876.3685	1324.876	2735.4	1856.2
876.5127	1326.753	2623.35	1742.55
876.6569	1328.6293	2506.2	1623.7
876.801	1330.5048	2386.35	1504.5
876.9452	1332.3796	2253.45	1376.05
877.0893	1334.2537	2180	1270.75
877.2335	1336.127	2088.65	1208.15
877.3776	1337.9996	2042.95	1162.7
877.5217	1339.8714	2011.7	1131.95
877.6658	1341.7426	2036.75	1113.6
877.8099	1343.6129	1969.4	1089.3
877.954	1345.4826	1945.5	1063.9
878.0981	1347.3515	1921	1038.25
878.2422	1349.2196	1896.95	1017.3
878.3862	1351.087	1887.1	1007.45
878.5303	1352.9537	1885.55	1004.05
878.6743	1354.8197	1880.1	999.4
878.8184	1356.6849	1892.15	1012.25
878.9624	1358.5493	1914.4	1033.4
879.1064	1360.4131	1932.15	1052.85
879.2504	1362.276	1976.5	1097.8
879.3944	1364.1383	2025.4	1144.9
879.5384	1365.9998	2060.2	1174.45
879.6823	1367.8606	2046.05	1165.9
879.8263	1369.7206	2040.6	1160
879.9702	1371.5799	2050	1168.15
880.1142	1373.4384	2029.15	1148.7
880.2581	1375.2962	2018.05	1134.8
880.402	1377.1533	1936.3	1056.95
880.5459	1379.0096	1879.75	998.45
880.6898	1380.8652	1840.5	959.55
880.8337	1382.7201	1812.8	934.5
880.9776	1384.5742	1774.1	894.25
881.1215	1386.4275	1745.45	861.85
881.2653	1388.2802	1711.3	832.4
881.4092	1390.132	1693.6	813.35
881.553	1391.9832	1690.45	807.2
881.6968	1393.8336	1687	806.4
881.8406	1395.6832	1672.95	789.5
881.9844	1397.5322	1675.2	795.15
882.1282	1399.3803	1659.45	773.15
882.272	1401.2278	1640.65	759.5
882.4158	1403.0745	1624.1	744.45
882.5595	1404.9204	1618.4	735.8
882.7033	1406.7656	1606.45	725.45
882.847	1408.6101	1597.4	715.8
882.9908	1410.4538	1602.8	720.5
883.1345	1412.2968	1601.35	720.85
883.2782	1414.139	1608	725.2
883.4219	1415.9805	1613.3	732.25
883.5656	1417.8213	1632.7	744
883.7092	1419.6613	1649.2	770.4
883.8529	1421.5006	1675.1	792.35
883.9965	1423.3391	1725.2	843.6
884.1402	1425.1769	1789.9	907.7
884.2838	1427.0139	1892.9	1011.3
884.4274	1428.8502	2001.85	1119.5
884.571	1430.6858	2092.55	1210.7
884.7146	1432.5206	2129.1	1246.35
884.8582	1434.3547	2134.65	1251.05
885.0018	1436.188	2099.95	1218.25
885.1453	1438.0206	2081.1	1198.15
885.2889	1439.8524	2069.7	1187.05
885.4324	1441.6835	2068.4	1185.85
885.5759	1443.5139	2069.2	1185.5
885.7194	1445.3435	2069.35	1188.25
885.8629	1447.1724	2073.55	1192.45
886.0064	1449.0005	2067.55	1185.2
886.1499	1450.8279	2059.35	1175.1
886.2933	1452.6545	2045.8	1161.2
886.4368	1454.4804	2053.15	1173.3
886.5802	1456.3056	2043.35	1152.3
886.7237	1458.13	2002.7	1122.4
886.8671	1459.9536	1975.15	1090.4
887.0105	1461.7766	1934.05	1051.55
887.1539	1463.5987	1891.55	1009.5
887.2972	1465.4202	1844.1	959.55
887.4406	1467.2409	1791.2	909.85
887.584	1469.0608	1750.8	869.1
887.7273	1470.88	1710	826.85
887.8706	1472.6984	1680.85	799.55
888.0139	1474.5161	1644.05	758.5
888.1572	1476.3331	1622.95	740.1
888.3005	1478.1493	1610.75	726.25
888.4438	1479.9648	1607.95	724.75
888.5871	1481.7795	1592.55	710.3
888.7303	1483.5935	1601.05	718.1
888.8736	1485.4067	1598.3	716.55
889.0168	1487.2192	1618.35	734.3
889.16	1489.031	1616.75	731.65
889.3032	1490.842	1607.1	724.65
889.4464	1492.6522	1613.1	730.25
889.5896	1494.4618	1605.2	720.95
889.7327	1496.2705	1608.4	723.85
889.8759	1498.0785	1603.9	721.35
890.019	1499.8858	1596.85	714.65
890.1622	1501.6924	1580.4	697.4
890.3053	1503.4981	1582.6	701
890.4484	1505.3032	1578.45	695.75
890.5914	1507.1075	1565.35	682.65
890.7345	1508.911	1562.25	681.95
890.8776	1510.7138	1549.45	665.35
891.0206	1512.5159	1540.55	658
891.1637	1514.3172	1537.25	655
891.3067	1516.1178	1524.35	642.4
891.4497	1517.9176	1527.45	640.45
891.5927	1519.7166	1507.2	625.05
891.7357	1521.515	1508.55	618.4
891.8786	1523.3126	1500.8	615.85
892.0216	1525.1094	1502.9	618.15
892.1645	1526.9055	1477.7	597
892.3074	1528.7008	1484.45	598.6
892.4503	1530.4954	1485.6	595.5
892.5932	1532.2893	1477.35	596.35
892.7361	1534.0824	1477.4	589.5
892.879	1535.8747	1471.6	588.45
893.0218	1537.6663	1466.3	581.7
893.1647	1539.4572	1476.35	589.05
893.3075	1541.2473	1472.45	589.7
893.4503	1543.0367	1472.55	589.2
893.5931	1544.8253	1475.4	588.8
893.7359	1546.6132	1475.6	591.3
893.8787	1548.4003	1495.4	601.55
894.0214	1550.1867	1487.45	596.5
894.1642	1551.9723	1498.7	609.75
894.3069	1553.7572	1509.6	624.65
894.4496	1555.5414	1532.4	646.5
894.5923	1557.3247	1568.6	684.85
894.735	1559.1074	1610.5	729.45
894.8777	1560.8893	1657.15	772.95
895.0204	1562.6705	1706.6	821.5
895.163	1564.4509	1750.7	867.6
895.3056	1566.2305	1754.8	871.25
895.4482	1568.0094	1770.3	885.85
895.5908	1569.7876	1771.35	888.7
895.7334	1571.565	1777.55	892.4
895.876	1573.3417	1759.65	877.9
896.0186	1575.1176	1781.05	897.75
896.1611	1576.8928	1798.9	913.85
896.3036	1578.6672	1820.6	935
896.4461	1580.4409	1852.75	969.75
896.5886	1582.2138	1908.9	1023.35
896.7311	1583.986	1965.5	1079.9
896.8736	1585.7575	2018.95	1136.6
897.0161	1587.5282	2068.45	1185.95
897.1585	1589.2981	2108.4	1223.45
897.3009	1591.0673	2130.5	1247
897.4433	1592.8358	2140.9	1256.75
897.5857	1594.6035	2139	1252.3
897.7281	1596.3704	2125	1238.85
897.8705	1598.1366	2086.95	1202.95
898.0128	1599.9021	2047.65	1165.05
898.1551	1601.6668	2016.15	1127.75
898.2975	1603.4308	1983.05	1097.35
898.4398	1605.194	1978.7	1089.55
898.5821	1606.9564	2001.25	1117.15
898.7243	1608.7182	2066.85	1178.65
898.8666	1610.4791	2152.85	1268.85
899.0088	1612.2394	2288.5	1405
899.1511	1613.9988	2435.2	1551.85
899.2933	1615.7576	2579.2	1696.25
899.4355	1617.5156	2653.7	1763.85
899.5776	1619.2728	2642	1758.2
899.7198	1621.0293	2545.6	1662.3
899.862	1622.785	2403.35	1515.95
900.0041	1624.54	2235.45	1345.75
900.1462	1626.2942	2063.65	1177.25
900.2883	1628.0477	1929.65	1043.7
900.4304	1629.8005	1815	926.35
900.5725	1631.5525	1719.7	835.25
900.7145	1633.3037	1645	760.8
900.8566	1635.0542	1590.6	704.8
900.9986	1636.804	1545.7	658.9
901.1406	1638.553	1567.1	621.65
901.2826	1640.3013	1486.15	602.9
901.4245	1642.0488	1462.7	576.25
901.5665	1643.7955	1438.4	553.65
901.7085	1645.5416	1426.45	542.05
901.8504	1647.2868	1413.2	530.1
901.9923	1649.0313	1397.55	513.35
902.1342	1650.7751	1393.75	505.75
902.2761	1652.5181	1391.75	506.35
902.4179	1654.2604	1378.1	491.5
902.5598	1656.0019	1387.65	504.8
902.7016	1657.7427	1395.5	509.9
902.8434	1659.4828	1419.65	534.9
902.9852	1661.222	1447.65	561.05
903.127	1662.9606	1496.95	612.85
903.2687	1664.6984	1555.2	669
903.4105	1666.4354	1583.55	697.8
903.5522	1668.1717	1576.35	692.55
903.6939	1669.9072	1525.6	640.75
903.8356	1671.642	1486.95	599.7
903.9773	1673.3761	1419.4	534.25
904.119	1675.1094	1375.8	494.45
904.2606	1676.8419	1353.25	467.9
904.4022	1678.5737	1325	443.85
904.5439	1680.3048	1301.95	415.05
904.6855	1682.0351	1298.65	413.7
904.827	1683.7646	1294.35	408.4
904.9686	1685.4934	1283.45	400.35
905.1101	1687.2215	1272.8	388.8
905.2517	1688.9488	1268.55	384.2
905.3932	1690.6754	1270.7	389.1
905.5347	1692.4012	1261.9	377.45
905.6761	1694.1263	1256.4	371.75
905.8176	1695.8506	1257.1	370.6
905.9591	1697.5742	1250.35	366.4
906.1005	1699.297	1248.55	362.8
906.2419	1701.0191	1250.1	365.6
906.3833	1702.7404	1243.85	358.1
906.5246	1704.461	1237.1	351.1
906.666	1706.1808	1243.9	358.05
906.8073	1707.8999	1239.5	352.65
906.9487	1709.6182	1232.95	347.3
907.09	1711.3358	1234.5	348.65
907.2313	1713.0527	1226.9	342.1
907.3725	1714.7688	1237.55	347.95
907.5138	1716.4841	1230.95	342.8
907.655	1718.1987	1231.25	341.65
907.7962	1719.9126	1219.5	334.9
907.9374	1721.6257	1224.5	335.15
908.0786	1723.338	1224.95	337
908.2198	1725.0496	1218.6	332
908.3609	1726.7605	1217.5	331.9
908.502	1728.4706	1220.9	334.85
908.6431	1730.18	1217.75	328.95
908.7842	1731.8886	1221.05	334.95
908.9253	1733.5964	1237.2	333.95
909.0664	1735.3036	1215.1	328.55
909.2074	1737.0099	1209.55	324.45
909.3484	1738.7156	1211.2	327.85
909.4894	1740.4204	1210	321.2
909.6304	1742.1246	1211.75	326.35
909.7714	1743.8279	1204.35	319.7
909.9123	1745.5306	1208.2	320.2
910.0532	1747.2325	1209.8	324.1
910.1941	1748.9336	1203.15	318
910.335	1750.634	1209.9	324.2
910.4759	1752.3336	1199.15	314.05
910.6168	1754.0325	1198.3	314.45
910.7576	1755.7307	1201.25	316.6
910.8984	1757.4281	1195.05	310.15
911.0392	1759.1247	1212.65	321.85
911.18	1760.8206	1200.5	309.95
911.3208	1762.5158	1204.2	315.35
911.4615	1764.2102	1192.2	306.45
911.6022	1765.9039	1194.8	310.65
911.7429	1767.5968	1200.35	314.5
911.8836	1769.289	1193.95	306.85
912.0243	1770.9804	1194.2	309.6
912.1649	1772.6711	1192.35	305.15
912.3056	1774.361	1197.1	311.75
912.4462	1776.0502	1188.85	305.1
912.5868	1777.7386	1197.25	309.4
912.7274	1779.4263	1186.25	300
912.8679	1781.1132	1191.3	305.4
913.0084	1782.7994	1189.75	302.2
913.149	1784.4849	1184.9	301.65
913.2895	1786.1696	1189.85	296.95
913.4299	1787.8535	1187.15	302.1
913.5704	1789.5367	1188.05	302.15
913.7108	1791.2192	1184.35	299.7
913.8513	1792.9009	1194.5	294.2
913.9917	1794.5818	1188.15	303.55
914.132	1796.2621	1181.35	297.3
914.2724	1797.9415	1178.5	291.65
914.4128	1799.6202	1172.3	289.05
914.5531	1801.2982	1175	286.75
914.6934	1802.9755	1184.9	298.85
914.8337	1804.6519	1174.75	288.3
914.9739	1806.3277	1173.15	288.1
915.1142	1808.0027	1178.6	293.4
915.2544	1809.6769	1176.3	290.25
915.3946	1811.3504	1176.25	286.9
915.5348	1813.0231	1168.3	282.4
915.675	1814.6951	1170.7	285.55
915.8151	1816.3664	1171.4	282.5
915.9553	1818.0369	1174.05	287.2
916.0954	1819.7067	1165.05	278.6
916.2355	1821.3757	1172	283.45
916.3755	1823.044	1163.4	278.8
916.5156	1824.7115	1171.35	285.3
916.6556	1826.3783	1163.6	279.75
916.7956	1828.0443	1163.2	276.8
916.9356	1829.7096	1166.3	280.65
917.0756	1831.3741	1169.5	280.85
917.2155	1833.0379	1164.65	277.1
917.3555	1834.701	1165.25	277.35
917.4954	1836.3633	1162.8	273.45
917.6353	1838.0248	1160.15	271.45
917.7751	1839.6856	1157.7	272.15
917.915	1841.3457	1160.65	276.25
918.0548	1843.005	1157.9	273
918.1946	1844.6636	1157.6	271.95
918.3344	1846.3214	1158.1	273.75
918.4742	1847.9785	1159.65	276.1
918.6139	1849.6349	1157.75	268.65
918.7537	1851.2904	1163.7	270.55
918.8934	1852.9453	1159.7	274.25
919.0331	1854.5994	1158.4	271.55
919.1727	1856.2528	1160.15	270
919.3124	1857.9054	1153.65	265.85
919.452	1859.5572	1153.65	268.75
919.5916	1861.2083	1153.35	267.35
919.7312	1862.8587	1147.4	262.25
919.8708	1864.5084	1155.9	270.3
920.0103	1866.1572	1149.85	265.2
920.1498	1867.8054	1145.3	261.1
920.2893	1869.4528	1148.5	261.75
920.4288	1871.0994	1155	268.35
920.5683	1872.7453	1149.65	264.7
920.7077	1874.3905	1153.95	260.7
920.8471	1876.0349	1148	262.05
920.9865	1877.6786	1150.7	264.2
921.1259	1879.3215	1153.45	267.9
921.2653	1880.9637	1152.95	266.1
921.4046	1882.6051	1145.9	260.45
921.5439	1884.2458	1146.85	259.45
921.6832	1885.8858	1141.45	254.4
921.8225	1887.525	1143.3	256.05
921.9617	1889.1634	1143.65	259.15
922.101	1890.8011	1140.45	254.4
922.2402	1892.4381	1144.2	259.65
922.3794	1894.0743	1140.65	255.9
922.5185	1895.7098	1140.9	254.9
922.6577	1897.3446	1143.8	256.85
922.7968	1898.9786	1145.25	255.9
922.9359	1900.6118	1140.5	254.75
923.075	1902.2443	1141.25	251.8
923.214	1903.8761	1135.65	248.4
923.3531	1905.5071	1140	251.65
923.4921	1907.1374	1134.9	248.15
923.6311	1908.7669	1134.5	247.75
923.77	1910.3957	1133.95	246.45
923.909	1912.0237	1128.95	242.8
924.0479	1913.651	1133.4	245.85
924.1868	1915.2776	1131.05	246.65
924.3257	1916.9034	1131.05	247.3
924.4646	1918.5285	1126.85	240.4
924.6034	1920.1528	1130.55	244.55
924.7422	1921.7764	1127.7	241.8
924.881	1923.3992	1127.85	241.95
925.0198	1925.0213	1124.4	236.55
925.1586	1926.6427	1125.85	241.45
925.2973	1928.2633	1212.7	239.95
925.436	1929.8832	1127.95	240.25
925.5747	1931.5023	1124.3	239.05
925.7134	1933.1207	1126	240.6
925.852	1934.7383	1117.1	230.95
925.9906	1936.3552	1115.15	229.75
926.1292	1937.9714	1118.95	232.7
926.2678	1939.5868	1125.2	238.7
926.4064	1941.2015	1116.85	229.5
926.5449	1942.8154	1118.2	231.8
926.6834	1944.4286	1118.15	231.65
926.8219	1946.041	1139.5	230.7
926.9604	1947.6528	1119.3	228.15
927.0988	1949.2637	1112.55	228.3
927.2372	1950.8739	1108.45	223.45
927.3756	1952.4834	1114.35	226.95
927.514	1954.0921	1111.4	224.15
927.6523	1955.7001	1118.3	227.65
927.7907	1957.3074	1115.35	228.7
927.929	1958.9139	1113.65	228
928.0673	1960.5197	1111.6	222.85
928.2055	1962.1247	1105.7	218.9
928.3438	1963.729	1109.7	223.6
928.482	1965.3325	1133.4	226.1
928.6202	1966.9353	1106.95	219.55
928.7584	1968.5374	1108	218.05
928.8965	1970.1387	1108.1	220.05
929.0346	1971.7393	1103.6	218.15
929.1727	1973.3392	1106.5	221.2
929.3108	1974.9383	1104.7	219.6
929.4489	1976.5366	1099.3	212.1
929.5869	1978.1342	1103.3	215.8
929.7249	1979.7311	1105.75	217.2
929.8629	1981.3273	1100.45	213.15
930.0009	1982.9227	1100.45	212.55
930.1388	1984.5173	1102.05	215.15
930.2767	1986.1112	1098.6	213
930.4146	1987.7044	1098.2	212.2
930.5525	1989.2968	1102.4	214.6
930.6904	1990.8885	1101.5	212
930.8282	1992.4795	1101.05	212.35
930.966	1994.0697	1098.95	212.3
931.1038	1995.6592	1099.15	211.95
931.2415	1997.2479	1095.5	208.05
931.3793	1998.8359	1095.95	212.25
931.517	2000.4232	1098.6	211.9
931.6547	2002.0097	1094.35	210.45
931.7923	2003.5955	1095.8	208.3
931.93	2005.1805	1095.45	209.4
932.0676	2006.7648	1096.15	211.45
932.2052	2008.3484	1096.35	207.9
932.3427	2009.9312	1092.1	203.9
932.4803	2011.5133	1088.25	202.05
932.6178	2013.0946	1094.8	208.95
932.7553	2014.6752	1088.55	204.5
932.8928	2016.2551	1090.55	202.9
933.0302	2017.8342	1088	202.6
933.1676	2019.4126	1089.1	203.05
933.305	2020.9902	1089.05	201.15
933.4424	2022.5672	1091.45	203.95
933.5798	2024.1433	1094.75	202.8
933.7171	2025.7188	1089.4	201.75
933.8544	2027.2935	1087.9	199.35
933.9917	2028.8674	1088.6	202.8
934.129	2030.4406	1087.75	204.9
934.2662	2032.0131	1084.4	197.65
934.4034	2033.5849	1089.35	195
934.5406	2035.1559	1085.85	199.75
934.6778	2036.7261	1083.2	196.15
934.8149	2038.2957	1085.65	201.25
934.952	2039.8645	1084.25	197.95
935.0891	2041.4325	1088.5	198.65
935.2262	2042.9998	1085.55	200.8
935.3632	2044.5664	1084.85	196.85
935.5002	2046.1323	1085.45	199.65
935.6372	2047.6974	1082.85	196.7
935.7742	2049.2617	1083.65	196.75
935.9111	2050.8254	1114.3	193.15
936.048	2052.3883	1087.85	200.9
936.1849	2053.9504	1089.4	205.05
936.3218	2055.5118	1079.65	191.9
936.4586	2057.0725	1080.8	190.35
936.5955	2058.6325	1080.7	194.5
936.7323	2060.1917	1078.5	191.2
936.869	2061.7502	1084.85	194.3
937.0058	2063.3079	1083.95	199.1
937.1425	2064.8649	1090.55	200.65
937.2792	2066.4212	1077.25	191.25
937.4159	2067.9767	1080.35	192.8
937.5525	2069.5315	1077.5	191.65
937.6891	2071.0856	1073.05	187.35
937.8257	2072.6389	1077.9	189.6
937.9623	2074.1915	1078.4	193.3
938.0989	2075.7433	1075.05	188
938.2354	2077.2945	1077.4	192.65
938.3719	2078.8448	1072.35	185.9
938.5084	2080.3945	1077.3	191.95
938.6448	2081.9434	1071.4	185.3
938.7812	2083.4916	1073.25	187.45
938.9176	2085.039	1073.55	186.25
939.054	2086.5857	1076.4	188.1
939.1903	2088.1317	1073.05	186.7
939.3267	2089.677	1072.8	185.2
939.463	2091.2215	1073	185.8
939.5992	2092.7652	1073.8	188.9
939.7355	2094.3083	1069.5	183.7
939.8717	2095.8506	1068	181.95
940.0079	2097.3921	1069.25	183.9
940.1441	2098.933	1069.3	182.9
940.2802	2100.4731	1067.2	182.25
940.4163	2102.0124	1078.3	183.45
940.5524	2103.5511	1071.85	184.7
940.6885	2105.089	1068.9	183.6
940.8245	2106.6261	1068.5	181.05
940.9606	2108.1626	1070.35	181.65
941.0965	2109.6983	1098.2	182.5
941.2325	2111.2332	1072.05	185.55
941.3684	2112.7675	1068.8	183
941.5044	2114.301	1065.2	176.8
941.6403	2115.8337	1067.55	181.4
941.7761	2117.3657	1067.3	180.45
941.912	2118.897	1067.3	179.25
942.0478	2120.4276	1072.8	179.1
942.1835	2121.9575	1068.25	182.4
942.3193	2123.4866	1079.65	179.8
942.455	2125.0149	1070.65	181.95
942.5907	2126.5426	1063.25	177.3
942.7264	2128.0695	1069.1	179.1
942.8621	2129.5956	1061.95	176.15
942.9977	2131.1211	1072	180.5
943.1333	2132.6458	1063.45	178.6
943.2689	2134.1698	1064.05	176.65
943.4044	2135.693	1068.15	178.55
943.54	2137.2155	1061.95	172.2
943.6755	2138.7373	1066.55	181
943.8109	2140.2584	1064.2	177.35
943.9464	2141.7787	1070.9	179.65
944.0818	2143.2983	1062.65	177.35
944.2172	2144.8171	1060.7	176.55
944.3526	2146.3353	1063.65	174.7
944.4879	2147.8527	1061.5	176.1
944.6232	2149.3693	1061.65	174.2
944.7585	2150.8853	1062.6	174.35
944.8938	2152.4005	1056.95	171.15
945.029	2153.9149	1054.55	167.15
945.1642	2155.4287	1057.5	173
945.2994	2156.9417	1061.55	174.35
945.4346	2158.454	1062.6	173.25
945.5697	2159.9655	1054.45	167
945.7048	2161.4764	1059.25	172.55
945.8399	2162.9865	1058.35	172.9
945.9749	2164.4958	1059.15	169.6
946.1099	2166.0045	1059.75	167.35
946.2449	2167.5124	1055.6	168.45
946.3799	2169.0195	1056.75	170.95
946.5148	2170.526	1056.65	170.75
946.6498	2172.0317	1055.35	168.95
946.7846	2173.5367	1056.15	168.3
946.9195	2175.0409	1054.7	168.5
947.0543	2176.5445	1051.85	166.75
947.1891	2178.0473	1057	168.75
947.3239	2179.5494	1056.3	164.35
947.4587	2181.0507	1058.25	170.8
947.5934	2182.5513	1052.1	164.5
947.7281	2184.0512	1056.25	169.8
947.8628	2185.5504	1053.35	168.35
947.9974	2187.0488	1049.65	163.1
948.132	2188.5465	1052.9	166.3
948.2666	2190.0435	1051.9	165.7
948.4012	2191.5397	1047.15	160.15
948.5357	2193.0353	1052.1	167.55
948.6702	2194.5301	1051.45	165.75
948.8047	2196.0241	1046.25	157.25
948.9392	2197.5175	1051.5	165.1
949.0736	2199.0101	1051.8	162.5
949.208	2200.502	1048.8	163.25
949.3424	2201.9931	1044.65	157.7
949.4767	2203.4835	1045.8	156.55
949.611	2204.9733	1053.5	162.35
949.7453	2206.4622	1039.85	154.25
949.8796	2207.9505	1051.45	163.45
950.0138	2209.438	1041.9	157.4
950.148	2210.9248	1045	158.05
950.2822	2212.4109	1045.15	161.1
950.4164	2213.8962	1045.55	157.4
950.5505	2215.3809	1047	157.8
950.6846	2216.8648	1047.35	162
950.8186	2218.3479	1046.5	156.5
950.9527	2219.8304	1046.25	156.15
951.0867	2221.3121	1040.85	153.5
951.2207	2222.7931	1044.95	159.75
951.3546	2224.2733	1034	146.75
951.4886	2225.7529	1038	152.05
951.6225	2227.2317	1041.35	151.2
951.7563	2228.7098	1039.7	154.25
951.8902	2230.1872	1036.15	149.3
952.024	2231.6638	1037.6	150.75
952.1578	2233.1397	1043.15	149.15
952.2916	2234.6149	1036.05	150.4
952.4253	2236.0894	1035.4	148.2
952.559	2237.5632	1048.3	153.05
952.6927	2239.0362	1037.65	152.65
952.8263	2240.5085	1035.65	149.45
952.9599	2241.9801	1034.7	148.95
953.0935	2243.4509	1036.3	150.85
953.2271	2244.921	1032.85	147.2
953.3606	2246.3904	1035.95	147.85
953.4941	2247.8591	1033	147.7
953.6276	2249.3271	1032.1	145.45
953.7611	2250.7943	1028.65	144.25
953.8945	2252.2608	1033.1	147.9
954.0279	2253.7266	1028.15	143
954.1612	2255.1917	1030.05	142.85
954.2946	2256.656	1032.65	146.9
954.4279	2258.1197	1030.75	144.8
954.5612	2259.5826	1030.65	139.85
954.6944	2261.0447	1032.6	145.2
954.8276	2262.5062	1031.05	143.15
954.9608	2263.9669	1032	144.2
955.094	2265.4269	1029.55	143.15
955.2271	2266.8862	1028.75	141.45
955.3602	2268.3448	1032.55	145.75
955.4933	2269.8026	1028.7	142.65
955.6264	2271.2598	1025.95	138.25
955.7594	2272.7162	1028.65	144.15
955.8924	2274.1719	1028.25	142.35
956.0253	2275.6268	1029.45	143.65
956.1583	2277.0811	1027.4	140.6
956.2912	2278.5346	1028.4	141.4
956.4241	2279.9874	1026	139.55
956.5569	2281.4395	1027.75	141.85
956.6897	2282.8908	1030	136.9
956.8225	2284.3414	1031	143.85
956.9553	2285.7914	1022.9	137.75
957.088	2287.2406	1030.25	142.2
957.2207	2288.689	1023.65	139.9
957.3534	2290.1368	1024.85	139.55
957.486	2291.5838	1027.05	139
957.6186	2293.0302	1024.15	137.8
957.7512	2294.4758	1021.5	136.8
957.8838	2295.9206	1028.25	141.25
958.0163	2297.3648	1028.25	139.9
958.1488	2298.8082	1022.05	134.9
958.2813	2300.251	1018.25	132.35
958.4137	2301.693	1023.9	135.1
958.5461	2303.1343	1023.5	137.75
958.6785	2304.5748	1022.4	134.7
958.8108	2306.0147	1021.95	135.8
958.9432	2307.4538	1020.75	129.6
959.0754	2308.8922	1017.35	131.6
959.2077	2310.3299	1017.95	132.15
959.3399	2311.7669	1019.15	132.15
959.4721	2313.2031	1020.25	134.5
959.6043	2314.6387	1020.25	133.7
959.7365	2316.0735	1015.9	128.95
959.8686	2317.5076	1018.75	133.2
960.0006	2318.941	1015.25	129.45
960.1327	2320.3737	1016.25	129.7
960.2647	2321.8056	1018.1	127.05
960.3967	2323.2369	1018.65	131.4
960.5287	2324.6674	1022.25	133.05
960.6606	2326.0972	1021.45	134
960.7925	2327.5263	1026.35	142.35
960.9244	2328.9547	1026.45	140.05
961.0562	2330.3823	1021.65	133.85
961.1881	2331.8092	1021.05	131.1
961.3198	2333.2355	1015.95	128.45
961.4516	2334.661	1014.3	127.5
961.5833	2336.0858	1018.1	130.15
961.715	2337.5098	1014.65	129.95
961.8467	2338.9332	1013.2	126.45
961.9783	2340.3558	1016.05	125.65
962.1099	2341.7778	1015	128.1
962.2415	2343.199	1013.5	124.75
962.373	2344.6195	1015.6	127.9
962.5045	2346.0393	1008.3	121.05
962.636	2347.4583	1014.3	126.8
962.7675	2348.8767	1013.6	126.75
962.8989	2350.2943	1010.55	123.1
963.0303	2351.7113	1015.15	126.75
963.1617	2353.1275	1008.85	125.1
963.293	2354.543	1035.55	123.05
963.4243	2355.9578	1010.95	122.2
963.5556	2357.3718	1008.75	120.45
963.6868	2358.7852	1015.05	126.45
963.818	2360.1978	1013.85	127.35
963.9492	2361.6098	1012.1	124.75
964.0803	2363.021	1010.95	120.05
964.2114	2364.4315	1009.25	123.6
964.3425	2365.8413	1010.95	123.75
964.4736	2367.2504	1009.45	124.25
964.6046	2368.6587	1007.9	121.1
964.7356	2370.0664	1010.2	124.7
964.8666	2371.4733	1010.7	123.3
964.9975	2372.8795	1008.8	121.2
965.1284	2374.285	1004.55	117.25
965.2593	2375.6899	1003.6	116.7
965.3901	2377.0939	1009.4	124.45
965.5209	2378.4973	1008.7	124.2
965.6517	2379.9	1005.6	117.85
965.7825	2381.3019	1007.75	123
965.9132	2382.7032	1002.5	115.9
966.0439	2384.1037	999.3	112.2
966.1745	2385.5035	1005.9	120.35
966.3051	2386.9027	1004.3	118.1
966.4357	2388.3011	1006.25	111.9
966.5663	2389.6987	1001.3	112.95
966.6968	2391.0957	1001.9	116.8
966.8273	2392.492	1001.45	117.05
966.9578	2393.8876	1000.4	113.9
967.0882	2395.2824	995.95	109.85
967.2186	2396.6765	1000.7	115.3
967.349	2398.07	997.35	112.25
967.4793	2399.4627	1000.9	112.2
967.6097	2400.8547	999.6	113.25
967.7399	2402.246	1004.5	111
967.8702	2403.6366	1000.75	112.75
968.0004	2405.0265	999.7	115.15
968.1306	2406.4156	1004.95	113.1
968.2607	2407.8041	1000.6	112.85
968.3909	2409.1918	998.45	109.65
968.521	2410.5789	996.8	109.1
968.651	2411.9652	1001.8	112.7
968.781	2413.3508	994.9	108.15
968.911	2414.7358	994.5	107.05
969.041	2416.12	993.6	108.65
969.1709	2417.5035	996.95	112.05
969.3008	2418.8863	998.45	110.95
969.4307	2420.2684	998.65	110.9
969.5606	2421.6497	994.65	107.45
969.6904	2423.0304	989.2	102.8
969.8201	2424.4104	991.2	104.15
969.9499	2425.7896	1001.2	107.65
970.0796	2427.1682	993.25	107.1
970.2093	2428.546	994.15	105.4
970.3389	2429.9232	994.45	107.8
970.4685	2431.2996	993.35	108.3
970.5981	2432.6753	991.6	105.35
970.7277	2434.0503	992.3	106.45
970.8572	2435.4246	987.45	100.9
970.9867	2436.7982	996.2	106.3
971.1161	2438.1711	992.8	106.7
971.2456	2439.5433	993.75	106.85
971.375	2440.9148	998.6	107.15
971.5043	2442.2856	989.3	104.15
971.6336	2443.6557	993.1	106.05
971.7629	2445.025	990.35	104.9
971.8922	2446.3937	989.6	102.45
972.0214	2447.7617	989.65	102.5
972.1506	2449.1289	992.35	107.4
972.2798	2450.4955	992	102.05
972.4089	2451.8613	988.2	103.6
972.538	2453.2265	989.4	101.85
972.6671	2454.5909	988.8	101.8
972.7961	2455.9546	991.35	106.7
972.9251	2457.3177	986.1	99.25
973.0541	2458.68	990.4	102.8
973.1831	2460.0416	990.45	103.6
973.312	2461.4025	990	102.35
973.4408	2462.7627	997.45	100.7
973.5697	2464.1222	986.15	99.9
973.6985	2465.4811	987.45	100.5
973.8273	2466.8392	986.9	100.85
973.956	2468.1966	990.2	103.9
974.0847	2469.5533	990.05	100.25
974.2134	2470.9093	988.6	99.65
974.3421	2472.2645	984.4	97.75
974.4707	2473.6191	987.2	100
974.5993	2474.973	985.7	100.1
974.7278	2476.3262	986	96.8
974.8563	2477.6787	980.7	95.2
974.9848	2479.0305	982.8	95.9
975.1132	2480.3816	988.6	98
975.2417	2481.7319	988.55	100.65
975.37	2483.0816	987	97.3
975.4984	2484.4306	989.35	100.55
975.6267	2485.7789	983.3	99.1
975.755	2487.1264	985.3	97.1
975.8833	2488.4733	982.55	96.15
976.0115	2489.8195	1000.15	95.35
976.1397	2491.165	986	95.75
976.2678	2492.5097	984.2	94.75
976.3959	2493.8538	981.45	95.05
976.524	2495.1972	982	95.05
976.6521	2496.5398	984.2	94.85
976.7801	2497.8818	983.25	92.9
976.9081	2499.2231	981.85	95.3
977.036	2500.5637	983.35	91.7
977.164	2501.9035	981.7	94.05
977.2918	2503.2427	984.65	95.15
977.4197	2504.5812	981.2	93.45
977.5475	2505.919	982.55	93.15
977.6753	2507.256	975.55	90.15
977.8031	2508.5924	981.45	94.05
977.9308	2509.9281	985.15	93.75
978.0585	2511.2631	980.45	94.7
978.1861	2512.5974	978.75	92.2
978.3137	2513.9309	976	89.05
978.4413	2515.2638	1009.9	91.4
978.5689	2516.596	981.25	95.45
978.6964	2517.9275	976.35	89.3
978.8239	2519.2583	977.8	91.3
978.9513	2520.5884	980.25	91.75
979.0788	2521.9178	977.4	89.6
979.2062	2523.2465	977.1	91.05
979.3335	2524.5745	972.5	84.95
979.4608	2525.9018	976.55	88.75
979.5881	2527.2284	975.4	89.85
979.7154	2528.5543	975.3	88.55
979.8426	2529.8796	975.9	87.3
979.9698	2531.2041	973.55	86.55
980.0969	2532.5279	975.15	88.7
980.224	2533.851	972.85	85.2
980.3511	2535.1735	972.55	86.85
980.4781	2536.4952	974.65	88.7
980.6052	2537.8163	977.25	89.9
980.7321	2539.1366	975.15	88.4
980.8591	2540.4562	972.3	84.35
980.986	2541.7752	973.15	86.25
981.1129	2543.0935	976.25	90.45
981.2397	2544.411	970.6	82.05
981.3665	2545.7279	969.2	83.9
981.4933	2547.0441	973	87
981.62	2548.3596	977.6	87.45
981.7467	2549.6744	973.2	86.95
981.8734	2550.9885	971.5	82.6
982.0001	2552.3019	969.75	84.7
982.1267	2553.6146	967.95	81.5
982.2532	2554.9266	970.1	82.85
982.3798	2556.2379	972.15	84.75
982.5063	2557.5485	967.4	81.55
982.6327	2558.8585	977.95	84.2
982.7592	2560.1677	975.2	85.45
982.8856	2561.4762	975.3	88.5
983.0119	2562.7841	974.1	84.2
983.1383	2564.0913	969	84.2
983.2646	2565.3977	969.45	82.8
983.3908	2566.7035	970.85	85.2
983.517	2568.0086	972.65	83.45
983.6432	2569.313	972	84.45
983.7694	2570.6167	974.25	84.55
983.8955	2571.9197	965.85	79.5
984.0216	2573.222	973.7	82.6
984.1476	2574.5236	969.5	81.7
984.2737	2575.8246	970.25	80.95
984.3996	2577.1248	972.2	82.45
984.5256	2578.4244	963.75	76.8
984.6515	2579.7232	970.3	84.5
984.7774	2581.0214	998.45	80.85
984.9032	2582.3189	968.55	82.2
985.029	2583.6157	974.2	82.4
985.1548	2584.9118	970.15	82.7
985.2806	2586.2072	970.7	84.8
985.4063	2587.5019	969.75	83.5
985.5319	2588.7959	971.55	86.7
985.6576	2590.0893	972.05	85.75
985.7832	2591.3819	968.95	81.1
985.9087	2592.6739	970.3	85.65
986.0343	2593.9652	971.35	83.4
986.1597	2595.2557	969	82.15
986.2852	2596.5456	969.15	82.8
986.4106	2597.8348	968.35	80.45
986.536	2599.1234	967.55	82.2
986.6614	2600.4112	971.8	83.95
986.7867	2601.6983	972.45	81.85
986.912	2602.9848	972	86.35
987.0372	2604.2705	978.25	82.65
987.1624	2605.5556	967.95	81.35
987.2876	2606.84	967.75	82.35
987.4128	2608.1237	968.9	80.6
987.5379	2609.4067	968.75	82.45
987.6629	2610.689	975.95	79.8
987.788	2611.9707	971.4	81.75
987.913	2613.2516	970.15	78.3
988.0379	2614.5319	966.55	78.65
988.1629	2615.8115	966.95	80.7
988.2878	2617.0903	965.85	76.45
988.4126	2618.3685	964.05	77.5
988.5375	2619.6461	965.7	78.2
988.6622	2620.9229	965.5	76.95
988.787	2622.199	968.5	80.15
988.9117	2623.4745	966.05	78.8
989.0364	2624.7493	964.35	77.4
989.161	2626.0234	965.6	79.65
989.2857	2627.2968	963.55	75.7
989.4102	2628.5695	967.1	78.2
989.5348	2629.8415	963.6	78.05
989.6593	2631.1128	964	75.8
989.7837	2632.3835	964.5	80.15
989.9082	2633.6535	962.25	74.55
990.0326	2634.9228	960.95	73.8
990.1569	2636.1914	959.3	74.6
990.2812	2637.4593	969.6	77.75
990.4055	2638.7265	964.05	76.05
990.5298	2639.9931	963.1	77.65
990.654	2641.259	963.45	75.15
990.7782	2642.5242	962.3	74.05
990.9023	2643.7887	961.35	74.5
991.0264	2645.0525	963.7	75.5
991.1505	2646.3156	963.95	76.95
991.2745	2647.5781	961.4	75.1
991.3985	2648.8398	960.35	74
991.5225	2650.1009	996.4	70.45
991.6464	2651.3613	957.95	70.6
991.7703	2652.6211	959.55	71.4
991.8942	2653.8801	960.5	74.9
992.018	2655.1385	961	73
992.1418	2656.3961	957	70.45
992.2655	2657.6531	957.8	70.5
992.3892	2658.9094	959.2	72.5
992.5129	2660.1651	957.1	71.6
992.6366	2661.42	958.75	71.8
992.7602	2662.6743	960.15	71.65
992.8837	2663.9279	955.1	68.2
993.0073	2665.1808	955.95	67.45
993.1307	2666.433	958.85	70.85
993.2542	2667.6846	956.6	70.8
993.3776	2668.9354	965.05	74.8
993.501	2670.1856	960.45	71.25
993.6244	2671.4351	959.55	73.3
993.7477	2672.6839	959.8	72.25
993.8709	2673.9321	957.75	71.1
993.9942	2675.1795	961.4	75.25
994.1174	2676.4263	958.75	72.3
994.2405	2677.6724	958.1	71.75
994.3637	2678.9179	963	75.3
994.4868	2680.1626	960.25	75.85
994.6098	2681.4067	959.9	74.35
994.7328	2682.6501	961.45	74.85
994.8558	2683.8928	960.5	73.6
994.9788	2685.1348	958.55	72.4
995.1017	2686.3761	955.85	71
995.2245	2687.6168	957.3	71.05
995.3474	2688.8568	958.95	72.25
995.4702	2690.0961	957.05	71.95
995.5929	2691.3348	955.95	68.55
995.7156	2692.5727	954.1	68.5
995.8383	2693.81	953.5	67.2
995.961	2695.0466	955.35	71.35
996.0836	2696.2826	957.1	68.65
996.2062	2697.5178	958.45	68.25
996.3287	2698.7524	954.9	68.15
996.4512	2699.9863	956.1	67.3
996.5737	2701.2195	954.15	69.15
996.6961	2702.452	955.3	66.45
996.8185	2703.6839	958.65	69.85
996.9408	2704.9151	958.05	73.7
997.0631	2706.1456	957.45	70.1
997.1854	2707.3755	959.25	69.9
997.3077	2708.6046	959.35	72.4
997.4299	2709.8331	957.05	69.95
997.552	2711.0609	959.5	72.15
997.6742	2712.2881	961.3	73.25
997.7963	2713.5145	958.6	69.35
997.9183	2714.7403	961.75	76.7
998.0403	2715.9654	959.85	72.15
998.1623	2717.1899	977.9	76.55
998.2842	2718.4136	964.8	77
998.4062	2719.6367	965.4	78.7
998.528	2720.8591	970.45	76.6
998.6498	2722.0809	968.85	80.05
998.7716	2723.3019	975.45	84.7
998.8934	2724.5223	966	79.05
999.0151	2725.7421	967.95	79.7
999.1368	2726.9611	969.05	80.8
999.2584	2728.1795	970.75	80.8
999.38	2729.3972	966.95	83.7
999.5016	2730.6142	972.9	76.05
999.6231	2731.8306	964.75	76.75
999.7446	2733.0462	959.45	70.6
999.8661	2734.2612	963.05	70.05
999.9875	2735.4756	959.05	72.25
1000.1089	2736.6892	954.95	67.7
1000.2302	2737.9022	953.8	67.65
1000.3515	2739.1145	950.95	65.2
1000.4728	2740.3262	963.15	67.25
1000.594	2741.5372	952.75	63.6
1000.7152	2742.7475	952.65	64
1000.8363	2743.9571	953.5	65.85
1000.9575	2745.1661	953.55	62.7
1001.0785	2746.3744	948.95	61.2
1001.1996	2747.582	949.75	64
1001.3206	2748.7889	948.3	58.95
1001.4415	2749.9952	946.75	59.05
1001.5625	2751.2008	945.95	56.15
1001.6833	2752.4057	949.05	59.75
1001.8042	2753.61	948.2	61.95
1001.925	2754.8136	945.75	57.05
1002.0458	2756.0165	946.9	59.1
1002.1665	2757.2188	944.5	56.75
1002.2872	2758.4204	945.55	59.65
1002.4078	2759.6213	947.35	56.5
1002.5285	2760.8215	952.05	58.3
1002.649	2762.0211	947.25	57.7
1002.7696	2763.22	949.1	60.45
1002.8901	2764.4182	944.4	56.1
1003.0106	2765.6158	947.15	60
1003.131	2766.8127	942.8	57.15
1003.2514	2768.009	944.5	56.8
1003.3717	2769.2045	945.35	57.2
1003.492	2770.3994	945.95	57.9
1003.6123	2771.5936	942.4	53.9
1003.7325	2772.7872	941.4	54.95
1003.8527	2773.9801	942.5	54.4
1003.9729	2775.1723	955.9	52.6
1004.093	2776.3639	940.25	53.5
1004.2131	2777.5548	944.5	54.5
1004.3331	2778.745	941.8	51.95
1004.4531	2779.9346	940.9	53.6
1004.5731	2781.1235	941.75	52.55
1004.693	2782.3117	942.75	58.25
1004.8129	2783.4992	938.35	50.95
1004.9328	2784.6861	941.15	52.95
1005.0526	2785.8723	940.95	51.5
1005.1723	2787.0579	942.45	55.3
1005.2921	2788.2428	940.3	54.45
1005.4118	2789.427	940.35	54.3
1005.5314	2790.6106	939.8	54.8
1005.651	2791.7935	942.05	52.9
1005.7706	2792.9757	943.2	55.8
1005.8902	2794.1573	943.15	53.65
1006.0097	2795.3382	940.75	52.75
1006.1291	2796.5184	941.35	55.35
1006.2485	2797.698	945.95	56.2
1006.3679	2798.8769	942.2	54.55
1006.4873	2800.0551	945.65	58.25
1006.6066	2801.2327	945.95	55.5
1006.7258	2802.4096	943.5	59.6
1006.8451	2803.5859	942.8	55.1
1006.9642	2804.7615	947	58.1
1007.0834	2805.9364	945.25	61.15
1007.2025	2807.1106	946.3	59.8
1007.3216	2808.2842	946.55	58.35
1007.4406	2809.4572	946.1	57.45
1007.5596	2810.6294	948.25	58.6
1007.6785	2811.801	952.7	66.55
1007.7975	2812.972	950.45	64.95
1007.9163	2814.1423	957.2	71.3
1008.0352	2815.3119	958.65	71.45
1008.154	2816.4808	960.45	75.6
1008.2727	2817.6491	967.4	79.1
1008.3914	2818.8167	967.4	81.7
1008.5101	2819.9837	977.7	86.85
1008.6288	2821.15	980.1	92.8
1008.7474	2822.3157	985.6	98
1008.8659	2823.4807	994	109.4
1008.9844	2824.645	1010.5	121.4
1009.1029	2825.8086	1015.3	129.45
1009.2214	2826.9716	1027.2	141.55
1009.3398	2828.134	1039.25	152.35
1009.4581	2829.2957	1049.9	162.4
1009.5764	2830.4567	1052.6	166.65
1009.6947	2831.617	1059.2	171.5
1009.813	2832.7767	1062	176.85
1009.9312	2833.9358	1059.1	172.25
1010.0493	2835.0941	1061.4	173
1010.1675	2836.2519	1061.25	176.25
1010.2855	2837.4089	1057.9	170.2
1010.4036	2838.5653	1045.9	159.55
1010.5216	2839.7211	1042.45	157.6
1010.6396	2840.8761	1043.35	154.55
1010.7575	2842.0306	1040.4	154.7
1010.8754	2843.1843	1041.35	155.75
1010.9932	2844.3374	1041.5	154
1011.111	2845.4899	1046.05	159
1011.2288	2846.6417	1043	155.85
1011.3465	2847.7928	1045.45	159.85
1011.4642	2848.9433	1044.9	158.5
1011.5818	2850.0931	1047.1	162.05
1011.6995	2851.2422	1048.35	159
1011.817	2852.3907	1055.75	171.2
1011.9345	2853.5385	1053	164.4
1012.052	2854.6857	1078.9	165.2
1012.1695	2855.8323	1058.85	172.15
1012.2869	2856.9781	1057.8	171.45
1012.4042	2858.1233	1065.2	178.25
1012.5216	2859.2679	1065.4	178.3
1012.6389	2860.4118	1066	179.2
1012.7561	2861.555	1083.85	194
1012.8733	2862.6976	1083.85	196
1012.9905	2863.8395	1081.25	195.05
1013.1076	2864.9808	1085.55	197.35
1013.2247	2866.1214	1089	204.3
1013.3417	2867.2614	1089.1	202.1
1013.4587	2868.4007	1096.4	206.2
1013.5757	2869.5393	1102.2	212.9
1013.6926	2870.6773	1104.45	213.9
1013.8095	2871.8146	1102.95	213.95
1013.9263	2872.9513	1110.6	222.7
1014.0431	2874.0874	1106.6	219.6
1014.1599	2875.2227	1105.55	219.5
1014.2766	2876.3574	1113.15	225.6
1014.3933	2877.4915	1117.4	228.5
1014.51	2878.6249	1119.25	232.3
1014.6266	2879.7577	1123.35	235.4
1014.7431	2880.8898	1136.45	238.7
1014.8596	2882.0212	1127.9	241.25
1014.9761	2883.152	1128.9	243.05
1015.0925	2884.2821	1136.4	251.2
1015.2089	2885.4116	1133.05	247.3
1015.3253	2886.5405	1139.65	253.3
1015.4416	2887.6686	1149.95	258.25
1015.5579	2888.7962	1143.1	257.5
1015.6741	2889.923	1141.3	256.4
1015.7903	2891.0493	1140.2	254.3
1015.9065	2892.1748	1145.1	257.1
1016.0226	2893.2997	1141.45	252.15
1016.1387	2894.424	1141.9	256
1016.2547	2895.5476	1141.5	255.85
1016.3707	2896.6706	1138.6	252.9
1016.4866	2897.7929	1140.7	254.5
1016.6025	2898.9145	1141.95	254.65
1016.7184	2900.0355	1139.8	251.85
1016.8342	2901.1559	1141.65	254.15
1016.95	2902.2756	1142.5	256.5
1017.0658	2903.3946	1129.9	244.2
1017.1815	2904.513	1139.25	249.6
1017.2971	2905.6308	1132.9	247.35
1017.4127	2906.7479	1131.9	242.25
1017.5283	2907.8643	1133.9	245.1
1017.6439	2908.9801	1126.5	238.95
1017.7594	2910.0953	1126.85	240.35
1017.8748	2911.2098	1137.45	246.65
1017.9902	2912.3236	1135.15	241.15
1018.1056	2913.4368	1133.35	244.45
1018.2209	2914.5494	1123.85	235.8
1018.3362	2915.6613	1129	236
1018.4515	2916.7725	1125.8	235.6
1018.5667	2917.8831	1128.9	241.4
1018.6819	2918.9931	1117.15	228.9
1018.797	2920.1024	1112.7	224.9
1018.9121	2921.211	1107.25	219.2
1019.0271	2922.319	1102.4	213.25
1019.1421	2923.4264	1104.05	217.75
1019.2571	2924.5331	1099.5	212.75
1019.372	2925.6391	1100.55	212.9
1019.4869	2926.7445	1102.3	217.35
1019.6017	2927.8493	1102.65	215
1019.7165	2928.9534	1106.2	219.45
1019.8313	2930.0569	1111	220.25
1019.946	2931.1597	1106.15	218.45
1020.0606	2932.2619	1113.2	226.65
1020.1753	2933.3634	1109.05	224
1020.2899	2934.4643	1120.05	225.55
1020.4044	2935.5645	1123.95	231.3
1020.5189	2936.6641	1121.2	229.6
1020.6334	2937.763	1113.75	227.6
1020.7478	2938.8613	1116.8	229
1020.8622	2939.959	1119.35	224.3
1020.9765	2941.056	1110.2	224.95
1021.0908	2942.1523	1104.5	215.3
1021.2051	2943.248	1097.4	210.85
1021.3193	2944.3431	1083.85	198.85
1021.4334	2945.4375	1068.55	179.5
1021.5476	2946.5313	1066.6	182.5
1021.6617	2947.6244	1054.25	165.75
1021.7757	2948.7169	1049.45	161.95
1021.8897	2949.8087	1043.2	156
1022.0037	2950.8999	1031.55	144.25
1022.1176	2951.9904	1025.15	137.9
1022.2315	2953.0803	1015.5	127.6
1022.3453	2954.1696	1010.1	123.05
1022.4591	2955.2582	1009.3	122.75
1022.5728	2956.3462	1005.75	118.35
1022.6865	2957.4335	1002.65	114.4
1022.8002	2958.5202	1005.15	115.25
1022.9138	2959.6062	1002.35	114.65
1023.0274	2960.6916	1000.65	115.4
1023.141	2961.7764	1002.6	113.55
1023.2545	2962.8605	998.35	109.55
1023.3679	2963.9439	1002.55	114.25
1023.4813	2965.0267	1001.85	116
1023.5947	2966.1089	1023.25	115.5
1023.708	2967.1905	1001.1	114.8
1023.8213	2968.2714	999.65	112.85
1023.9346	2969.3516	994.9	106.2
1024.0478	2970.4312	1001.4	106.6
1024.1609	2971.5102	993.15	107.65
1024.274	2972.5885	994.4	105.85
1024.3871	2973.6662	1002.2	110
1024.5002	2974.7432	992.6	106.1
1024.6132	2975.8196	995.55	108.85
1024.7261	2976.8954	992.8	108.05
1024.839	2977.9705	995.25	107.9
1024.9519	2979.045	998.85	110.7
1025.0647	2980.1188	993.75	106.9
1025.1775	2981.192	993.25	107.75
1025.2902	2982.2645	993.85	107.15
1025.4029	2983.3364	991.6	104.2
1025.5156	2984.4077	986.9	98.8
1025.6282	2985.4783	990.3	96.7
1025.7407	2986.5483	985.05	97.1
1025.8532	2987.6177	978.95	93.15
1025.9657	2988.6864	976.05	88.25
1026.0782	2989.7545	974.25	86.35
1026.1906	2990.8219	969.65	83.1
1026.3029	2991.8887	970.95	81
1026.4152	2992.9548	965.7	78.65
1026.5275	2994.0204	959.7	75.2
1026.6397	2995.0852	956.35	71.25
1026.7519	2996.1495	952.65	64.8
1026.864	2997.2131	952.7	63.7
1026.9761	2998.276	947.35	61.45
1027.0882	2999.3383	946.7	58.75
1027.2002	3000.4	947.25	58.95
1027.3122	3001.4611	938.35	52.2
1027.4241	3002.5215	939.5	52.15
1027.536	3003.5812	937.45	50.6
1027.6478	3004.6404	935.05	48.65
1027.7596	3005.6989	934.05	47.3
1027.8714	3006.7567	931.5	44.35
1027.9831	3007.8139	961.35	44.75
1028.0947	3008.8705	928.35	40.95
1028.2064	3009.9264	945.9	43.25
1028.3179	3010.9818	926.2	38.5
1028.4295	3012.0364	926.95	40.65
1028.541	3013.0905	924.5	36.6
1028.6524	3014.1439	927.2	40.05
1028.7638	3015.1966	925.2	38.9
1028.8752	3016.2487	923.7	37.15
1028.9865	3017.3002	928.9	38.85
1029.0978	3018.3511	922.65	35.85
1029.209	3019.4013	926.25	40.1
1029.3202	3020.4509	923.05	36.1
1029.4314	3021.4998	921.55	32.85
1029.5425	3022.5481	923.05	36.75
1029.6535	3023.5958	920.75	35
1029.7645	3024.6428	923.85	37
1029.8755	3025.6892	919.2	32.8
1029.9864	3026.735	920.35	31.55
1030.0973	3027.7802	920.3	33
1030.2082	3028.8247	918.45	32.35
1030.319	3029.8685	920.2	33.95
1030.4297	3030.9118	923.8	36.6
1030.5404	3031.9544	918.95	34.1
1030.6511	3032.9963	921.85	34.5
1030.7617	3034.0376	920.15	34.75
1030.8723	3035.0783	926.1	37.65
1030.9829	3036.1184	923.45	35.45
1031.0934	3037.1578	921.1	36.45
1031.2038	3038.1966	922.35	35.25
1031.3142	3039.2348	920.85	34.2
1031.4246	3040.2723	930.3	36.55
1031.5349	3041.3092	923.05	37.3
1031.6452	3042.3455	922.9	35
1031.7554	3043.3811	923.75	38.2
1031.8656	3044.4161	921.55	33.8
1031.9758	3045.4505	920.75	35.05
1032.0859	3046.4842	923.15	35.85
1032.1959	3047.5173	921.95	36.75
1032.3059	3048.5498	921.35	34.6
1032.4159	3049.5816	923.3	38.2
1032.5258	3050.6128	923.75	34.75
1032.6357	3051.6434	925.9	38.4
1032.7455	3052.6734	923.6	34.65
1032.8553	3053.7027	921.85	34.6
1032.9651	3054.7314	920.45	35.35
1033.0748	3055.7594	920.9	34.4
1033.1845	3056.7868	923.5	35.45
1033.2941	3057.8136	921.45	33
1033.4037	3058.8398	924.5	40.75
1033.5132	3059.8653	921.9	36.05
1033.6227	3060.8902	922.35	34.9
1033.7321	3061.9145	923.95	36.3
1033.8415	3062.9381	921.05	35.2
1033.9509	3063.9612	938.45	34.1
1034.0602	3064.9835	926.6	41.15
1034.1694	3066.0053	927.1	38.55
1034.2787	3067.0264	925.95	40.15
1034.3878	3068.0469	926.15	38.15
1034.497	3069.0668	927.5	36
1034.6061	3070.086	925.5	39.85
1034.7151	3071.1046	925.9	36.75
1034.8241	3072.1226	924.35	35.6
1034.9331	3073.1399	922.7	34.8
1035.042	3074.1567	922.25	35.35
1035.1508	3075.1727	923.55	34.5
1035.2597	3076.1882	922	33.55
1035.3684	3077.203	919.05	32.05
1035.4772	3078.2173	923.75	36.8
1035.5859	3079.2308	923.25	32.65
1035.6945	3080.2438	920.3	31.25
1035.8031	3081.2561	915.7	29.2
1035.9117	3082.2678	918.45	32.8
1036.0202	3083.2789	917.15	29.2
1036.1286	3084.2893	913.9	27.85
1036.2371	3085.2991	912.3	23.5
1036.3454	3086.3083	919.05	27.3
1036.4538	3087.3169	915.95	26.7
1036.562	3088.3248	914.45	25.45
1036.6703	3089.3321	916.05	25.25
1036.7785	3090.3388	911.95	26.65
1036.8866	3091.3449	911.1	23.45
1036.9948	3092.3503	914.05	23.75
1037.1028	3093.3551	911.1	25.25
1037.2108	3094.3593	908.1	20.65
1037.3188	3095.3629	911.35	22.85
1037.4267	3096.3658	914.35	24.45
1037.5346	3097.3681	909.15	22.9
1037.6425	3098.3698	912.95	26.35
1037.7503	3099.3708	908.3	19.6
1037.858	3100.3713	909.85	23.65
1037.9657	3101.3711	910.35	20.85
1038.0734	3102.3702	1053.5	25.1
1038.181	3103.3688	912.1	22.65
1038.2886	3104.3667	908.15	20.45
1038.3961	3105.364	907.05	21.4
1038.5036	3106.3607	909.6	20.95
1038.611	3107.3568	908.1	21.3
1038.7184	3108.3522	908.65	22.9
1038.8257	3109.347	907	17.4
1038.933	3110.3412	911.7	21.7
1039.0403	3111.3348	907.65	21.4
1039.1475	3112.3277	906.6	18.35
1039.2547	3113.32	906.15	21.9
1039.3618	3114.3117	906.7	19.4
1039.4689	3115.3028	905.5	20.45
1039.5759	3116.2932	908.65	18.7
1039.6829	3117.2831	912.6	19.6
1039.7898	3118.2723	905.5	17.1
1039.8967	3119.2608	906.05	20.3
1040.0035	3120.2488	905.95	20.1
1040.1103	3121.2361	905.65	18.8
1040.2171	3122.2229	906.9	20.5
1040.3238	3123.209	905.55	17.2
1040.4305	3124.1944	901	14.15
1040.5371	3125.1793	905.45	15.95
1040.6437	3126.1635	901.9	15.7
1040.7502	3127.1471	902.3	13.7
1040.8567	3128.1301	903.1	16.8
1040.9631	3129.1125	901.7	14.5
1041.0695	3130.0942	902.95	16.45
1041.1759	3131.0753	912.05	17.45
1041.2822	3132.0558	905.4	16.7
1041.3884	3133.0357	902.4	13.8
1041.4946	3134.015	903.45	15.1
1041.6008	3134.9936	903.95	15.7
1041.7069	3135.9716	922	14.45
1041.813	3136.949	901.2	13.95
1041.919	3137.9258	920.15	15.35
1042.025	3138.902	905.45	12.35
1042.1309	3139.8775	901.8	14.7
1042.2368	3140.8524	900.15	12.35
1042.3427	3141.8267	902.2	13.45
1042.4485	3142.8004	899.85	12.2
1042.5542	3143.7735	905.95	13.4
1042.6599	3144.7459	903.2	12.5
1042.7656	3145.7178	900.9	13.2
1042.8712	3146.689	900.2	12.75
1042.9768	3147.6596	901.85	14.4
1043.0823	3148.6295	901.05	13.35
1043.1878	3149.5989	900.9	12.3
1043.2932	3150.5676	899.5	14.85
1043.3986	3151.5357	899.35	13.6
1043.5039	3152.5032	903.1	17.5
1043.6092	3153.4701	901.3	14.85
1043.7145	3154.4364	904.55	15.35
1043.8197	3155.402	898.8	14.55
1043.9248	3156.367	903.2	14.5
1044.03	3157.3315	938.4	14.25
1044.135	3158.2952	901.35	14.4
1044.24	3159.2584	900.3	14.15
1044.345	3160.221	900.25	12.5
1044.4499	3161.1829	899.3	13.7
1044.5548	3162.1442	899.3	13.05
1044.6596	3163.105	900.05	13.75
1044.7644	3164.065	899.15	12.55
1044.8692	3165.0245	903.25	14.3
1044.9739	3165.9834	899.05	11.75
1045.0785	3166.9416	899.65	13.6
1045.1831	3167.8993	900.95	12.75
1045.2877	3168.8563	900.95	12.4
1045.3922	3169.8127	896.95	10.25
1045.4966	3170.7684	897.4	9.85
1045.6011	3171.7236	898.2	10.7
1045.7054	3172.6782	898.9	12
1045.8098	3173.6321	900.3	12.75
1045.914	3174.5854	903.5	11.95
1046.0183	3175.5381	900.05	12.6
1046.1224	3176.4902	898.4	12.3
1046.2266	3177.4417	900.25	13.85
1046.3307	3178.3926	897.1	9.25
1046.4347	3179.3428	897.95	14.85
1046.5387	3180.2924	897.1	11.7
1046.6427	3181.2415	899.4	13.75
1046.7466	3182.1899	900.7	12.85
1046.8504	3183.1377	896.8	9.2
1046.9542	3184.0848	899.65	9.3
1047.058	3185.0314	897.35	8.15
1047.1617	3185.9773	895.85	8.1
1047.2654	3186.9227	900.5	12.35
1047.369	3187.8674	898.35	12.4
1047.4726	3188.8115	901.1	11
1047.5761	3189.755	897.75	11.1
1047.6796	3190.6979	898.2	11.3
1047.783	3191.6402	896.1	10.5
1047.8864	3192.5818	896.45	10.1
1047.9898	3193.5229	904.05	11.35
1048.0931	3194.4633	899.2	12.05
1048.1963	3195.4031	897.85	10.15
1048.2995	3196.3423	899.2	13.7
1048.4027	3197.2809	895.8	9.1
1048.5058	3198.2189	896.55	10.9
1048.6089	3199.1563	903.9	10.65
1048.7119	3200.0931	895.2	6.9
1048.8148	3201.0292	895.7	8.85
1048.9178	3201.9648	895.1	7.55
1049.0206	3202.8997	898.65	8.8
1049.1235	3203.834	897.05	10.55
1049.2262	3204.7677	896.45	10.3
1049.329	3205.7008	898.05	10.3
1049.4317	3206.6333	895.7	10.2
1049.5343	3207.5652	897.55	6.45
1049.6369	3208.4964	896.7	10.4
1049.7394	3209.4271	895.35	8.05
1049.8419	3210.3571	894.7	7.95
1049.9444	3211.2865	897.7	9.75
1050.0468	3212.2154	896.3	7.7
1050.1491	3213.1436	900.3	12.4
1050.2514	3214.0712	902.85	8.4
1050.3537	3214.9982	897	11.15
1050.4559	3215.9246	895.3	7.95
1050.5581	3216.8503	893.4	8.2
1050.6602	3217.7755	895.4	9.2
1050.7623	3218.7001	894.8	8.95
1050.8643	3219.624	896.25	9.9
1050.9663	3220.5473	894.5	6.7
1051.0682	3221.4701	897.25	9.05
1051.1701	3222.3922	899.15	8.55
1051.2719	3223.3137	895.6	8.55
1051.3737	3224.2346	896.25	11.75
1051.4754	3225.1549	895.25	8.95
1051.5771	3226.0746	894.5	8.6
1051.6788	3226.9937	895.4	7.95
1051.7804	3227.9121	893.5	6.3
1051.8819	3228.83	894.05	6.6
1051.9834	3229.7473	894.7	6.15
1052.0849	3230.6639	895.9	7.7
1052.1863	3231.5799	895.25	8.4
1052.2876	3232.4954	896.8	6.75
1052.3889	3233.4102	894.8	7.5
1052.4902	3234.3244	895.05	7.75
1052.5914	3235.238	896.2	8.5
1052.6926	3236.151	919.55	8.15
1052.7937	3237.0634	894.6	9.4
1052.8948	3237.9752	895.85	10.4
1052.9958	3238.8864	894.45	8.05
1053.0968	3239.797	895.05	8.45
1053.1977	3240.7069	896.1	7.75
1053.2986	3241.6163	897	7.5
1053.3994	3242.5251	892.85	6.95
1053.5002	3243.4332	892.2	7.15
1053.6009	3244.3408	893.95	6.2
1053.7016	3245.2477	893.65	7.7
1053.8022	3246.154	896.05	7.8
1053.9028	3247.0598	895.95	9.5
1054.0034	3247.9649	895.15	8.25
1054.1039	3248.8694	893.95	7.75
1054.2043	3249.7733	895.3	10.6
1054.3047	3250.6766	894.85	8.7
1054.4051	3251.5793	895.45	7.65
1054.5054	3252.4814	894.9	8.25
1054.6056	3253.3829	894.05	8.25
1054.7058	3254.2838	894.05	5.65
1054.806	3255.1841	895.8	8.4
1054.9061	3256.0838	894.45	8.15
1055.0061	3256.9829	893.95	10.15
1055.1062	3257.8814	894.55	3.35
1055.2061	3258.7792	897.3	8.35
1055.306	3259.6765	895.9	7.7
1055.4059	3260.5731	893.4	7.05
1055.5057	3261.4692	894.05	5.9
1055.6055	3262.3647	895.75	7.45
1055.7052	3263.2595	892.75	6.3
1055.8049	3264.1538	891.65	6.75
1055.9045	3265.0474	894	7.25
1056.0041	3265.9404	892.45	7.5
1056.1036	3266.8329	892.1	5.55
1056.2031	3267.7247	904.35	6.05
1056.3025	3268.616	892.5	5.2
1056.4019	3269.5066	891.9	2.05
1056.5013	3270.3966	894.1	5.1
1056.6005	3271.286	890.5	3.95
