Software Version:	3.9.2.0
Unit SN:	10000200
Spectrometer SN:	6960
Date:	3/14/2024 2:13:19 PM
Data Line Index:	25
Spectral Points:	2048
Integration time (ms):	125
Averages:	20
Delay (ms):	30000
Sequence Number:	1
Processing:	dark subtract
Laser Power (mW):	300
Laser Current (mA):	825
Laser Diode Temp (C):	25
Laser Case Temp (C):	29.1
System Temp (C):	29.1
Spectrometer Temp (C):	26.9
CCD Temp (C):	0.004
Secondary Temp (C):	20.011
Heatsink Temp (C):	24.891
CCDPCB Temp (C):	38.419
SecondaryPCB Temp (C):	35.973

Wavelength	RamanShift	Raw Counts	Dark Subtracted
787.061	30.1047	456.65	45.4
787.2016	32.3739	454.1	45.2
787.3422	34.6426	463.55	52
787.4828	36.9109	469.55	55.35
787.6235	39.1787	477.7	62.2
787.7642	41.4461	487.25	64.8
787.9049	43.7131	495.65	70.55
788.0456	45.9796	504.3	78.05
788.1863	48.2456	513.7	80.1
788.3271	50.5112	524.1	89.4
788.4679	52.7764	531.75	93.25
788.6087	55.0411	542.95	100.65
788.7496	57.3054	553.75	106.35
788.8904	59.5692	563.45	113.1
789.0313	61.8326	576.8	124.65
789.1722	64.0955	589.05	131.3
789.3132	66.3579	607.7	145
789.4541	68.6199	624.4	158.05
789.5951	70.8815	654.65	186.85
789.7361	73.1426	730.5	259.25
789.8771	75.4032	914.85	439.35
790.0181	77.6634	1385.55	905.05
790.1592	79.9231	2474.65	1986
790.3003	82.1824	4883.55	4388.05
790.4414	84.4412	9351.9	8839.7
790.5825	86.6995	15649.95	15117.35
790.7237	88.9574	22049.5	21500.65
790.8648	91.2148	26641.85	26081.15
791.006	93.4717	28890.15	28319.55
791.1472	95.7282	29475.85	28901.65
791.2885	97.9842	29505.25	28926.15
791.4297	100.2398	29035.45	28454.55
791.571	102.4949	28494.7	27912.8
791.7123	104.7495	27751.6	27165.7
791.8536	107.0036	26934.4	26344.7
791.9949	109.2573	26106.8	25518.9
792.1363	111.5105	25335.9	24744.95
792.2777	113.7632	24499.05	23906.2
792.4191	116.0154	23826.6	23222.45
792.5605	118.2672	23298.25	22703
792.7019	120.5185	22742.75	22147.95
792.8434	122.7693	22343	21743.85
792.9849	125.0197	22009.65	21410.65
793.1264	127.2696	21699.1	21094.3
793.2679	129.519	21558.55	20951.7
793.4094	131.7679	21395.9	20788.6
793.551	134.0163	21298.7	20686.35
793.6926	136.2642	21126.75	20508.75
793.8342	138.5117	20937.1	20312.35
793.9758	140.7587	20753.55	20130.1
794.1175	143.0052	20597	19972.05
794.2591	145.2512	20363.15	19737.85
794.4008	147.4967	20180.65	19554.55
794.5425	149.7417	20058.45	19433.05
794.6842	151.9863	19896.85	19267.05
794.826	154.2304	19845.6	19211.7
794.9677	156.4739	19714.25	19071.55
795.1095	158.717	19600.8	18963.3
795.2513	160.9596	19472.8	18830.15
795.3931	163.2017	19211.45	18564.95
795.535	165.4433	18894.45	18249.4
795.6768	167.6844	18511.95	17864.75
795.8187	169.925	18160.45	17506.3
795.9606	172.1651	17758.3	17104.85
796.1025	174.4047	17438.4	16778.8
796.2445	176.6439	17130.15	16471.65
796.3864	178.8825	16901.25	16237.3
796.5284	181.1206	16727.3	16063.4
796.6704	183.3582	16486.55	15815.75
796.8124	185.5954	16355.8	15685.75
796.9544	187.832	16249.85	15575.65
797.0965	190.0681	16202.55	15526.4
797.2386	192.3037	16173.65	15494.5
797.3806	194.5388	16169.7	15486.7
797.5228	196.7734	16179.1	15492
797.6649	199.0075	16276.5	15585.25
797.807	201.2411	16362	15669.85
797.9492	203.4742	16415.3	15727.15
798.0914	205.7068	16562	15872
798.2336	207.9389	16641.7	15948.8
798.3758	210.1704	16808.4	16113
798.518	212.4015	16877.25	16180.6
798.6603	214.632	17074.5	16375.45
798.8025	216.862	17296.35	16605.3
798.9448	219.0915	17438.45	16756.3
799.0871	221.3205	17725.4	17041.4
799.2294	223.549	18052.8	17375.8
799.3718	225.777	18372.35	17694.5
799.5141	228.0044	18843.55	18165.7
799.6565	230.2314	19393.75	18715.2
799.7989	232.4578	19966.15	19286.45
799.9413	234.6837	20387.45	19699.3
800.0837	236.909	20611.1	19923.35
800.2262	239.1339	20542.25	19830.6
800.3687	241.3582	20241.55	19544.9
800.5111	243.582	19756.2	19032.65
800.6536	245.8053	19297.15	18579.6
800.7961	248.0281	18869.45	18155.3
800.9387	250.2503	18534.8	17820
801.0812	252.472	18322.65	17602.3
801.2238	254.6932	18145.85	17421.1
801.3664	256.9139	17989.95	17265.75
801.509	259.134	17877.1	17152
801.6516	261.3536	17771.45	17045.55
801.7942	263.5727	17702.75	16976.5
801.9369	265.7912	17562.3	16834.55
802.0795	268.0092	17512.5	16786.55
802.2222	270.2267	17381.15	16652.55
802.3649	272.4436	17275.3	16542.55
802.5076	274.6601	17268.35	16531
802.6504	276.8759	17164.9	16432.75
802.7931	279.0913	17183.9	16449.75
802.9359	281.3061	17204.35	16470.1
803.0787	283.5204	17297.35	16557.8
803.2215	285.7341	17465.5	16724.95
803.3643	287.9473	17671.35	16918.85
803.5071	290.16	17940.9	17194.7
803.6499	292.3721	18326.45	17585.85
803.7928	294.5837	18792.8	18051.05
803.9357	296.7947	19208.9	18467.8
804.0786	299.0052	19368	18624.5
804.2215	301.2152	19157.5	18411.8
804.3644	303.4246	18765.25	18020.15
804.5074	305.6334	18148.9	17406.9
804.6503	307.8418	17522.5	16774.1
804.7933	310.0495	17087.4	16342.05
804.9363	312.2568	16775.8	16030.65
805.0793	314.4635	16558.75	15809.55
805.2223	316.6696	16517.3	15767.35
805.3653	318.8752	16530	15774.2
805.5084	321.0802	16575.4	15824.5
805.6514	323.2847	16679.6	15929.3
805.7945	325.4887	16735.15	15984.55
805.9376	327.692	16701.2	15950.6
806.0807	329.8949	16529.45	15775.15
806.2238	332.0972	16199.95	15444.5
806.367	334.2989	15887.25	15125.05
806.5101	336.5001	15610.8	14851.2
806.6533	338.7007	15374.05	14614.35
806.7965	340.9008	15243.45	14482.65
806.9397	343.1003	15119.95	14356.85
807.0829	345.2992	15060.85	14294.85
807.2261	347.4976	15008.25	14241.3
807.3693	349.6955	15012.05	14241.5
807.5126	351.8927	15088.55	14315.55
807.6559	354.0895	15062.05	14278.95
807.7991	356.2856	15144.4	14369.75
807.9424	358.4812	15117.3	14347.35
808.0857	360.6763	15133.05	14359.85
808.2291	362.8707	15101.4	14326.4
808.3724	365.0646	15086.3	14310.4
808.5158	367.258	15053.65	14275.9
808.6591	369.4508	15081.8	14302.35
808.8025	371.643	15107.7	14325.3
808.9459	373.8346	15069.9	14285.55
809.0893	376.0257	15030.15	14242.6
809.2327	378.2162	14934.25	14145.35
809.3762	380.4062	14793.05	14002.05
809.5196	382.5956	14630.5	13841.45
809.6631	384.7844	14518.95	13727.85
809.8066	386.9726	14372.95	13580.2
809.9501	389.1603	14279.5	13488.25
810.0936	391.3474	14284.3	13451.05
810.2371	393.5339	14251.05	13460.95
810.3806	395.7199	14193.1	13408.05
810.5241	397.9052	14219.35	13435.25
810.6677	400.09	14185.45	13403.45
810.8113	402.2743	14207.95	13426.3
810.9548	404.4579	14264.25	13482.25
811.0984	406.641	14396.95	13616
811.2421	408.8235	14635.25	13853.7
811.3857	411.0054	15018.65	14238.05
811.5293	413.1868	15520.7	14737.1
811.673	415.3675	15954.95	15167.55
811.8166	417.5477	16191.6	15405.3
811.9603	419.7273	16210.2	15417.8
812.104	421.9064	16076.95	15278.65
812.2477	424.0848	15898.95	15103.7
812.3914	426.2627	15631.85	14834.5
812.5351	428.4399	15285.8	14485.2
812.6788	430.6166	14915.65	14112.9
812.8226	432.7928	14508.8	13705.2
812.9663	434.9683	14182.55	13378.25
813.1101	437.1432	13945.6	13140.35
813.2539	439.3176	13776.7	12970.4
813.3977	441.4914	13612.5	12805.65
813.5415	443.6645	13605.75	12798.1
813.6853	445.8371	13499.05	12692.25
813.8291	448.0091	13435.9	12630.1
813.973	450.1806	13378.9	12574.1
814.1168	452.3514	13298.75	12489.9
814.2607	454.5216	13299.55	12481.4
814.4046	456.6913	13214.2	12401.9
814.5485	458.8603	13237.35	12426.3
814.6924	461.0288	13274.8	12465.2
814.8363	463.1967	13302.15	12491.25
814.9802	465.3639	13439.35	12626.65
815.1241	467.5306	13597.45	12786.1
815.2681	469.6967	13793.8	12981.7
815.412	471.8622	13988.05	13173.45
815.556	474.0271	14139.85	13329
815.7	476.1914	14218.7	13403.75
815.844	478.3551	14162.75	13348.55
815.988	480.5182	14087.05	13269.05
816.132	482.6807	14052.15	13234.85
816.276	484.8426	14090.85	13275.45
816.4201	487.0039	14359.1	13541.9
816.5641	489.1647	14745.95	13928.8
816.7082	491.3248	15233.35	14417.45
816.8522	493.4843	15475.85	14659.95
816.9963	495.6432	15459.3	14644.7
817.1404	497.8015	15387.4	14566.45
817.2845	499.9592	15386.55	14570.25
817.4286	502.1163	15375.55	14556.25
817.5727	504.2728	15143.4	14322.35
817.7168	506.4287	14771.6	13953
817.861	508.5839	14331.65	13511.6
818.0051	510.7386	13946.8	13122.9
818.1493	512.8927	13697	12868.95
818.2935	515.0461	13512.55	12692.25
818.4377	517.199	13396.35	12575
818.5818	519.3512	13317.65	12498.45
818.726	521.5029	13324.05	12492.75
818.8703	523.6539	13292.65	12468
819.0145	525.8043	13315.55	12491.65
819.1587	527.9541	13332	12506.65
819.303	530.1033	13387.2	12560.3
819.4472	532.2519	13464.1	12637.4
819.5915	534.3999	13643.4	12815.85
819.7357	536.5472	14003.2	13173.45
819.88	538.694	14566.75	13739.05
820.0243	540.8401	15242.95	14415.7
820.1686	542.9856	15831.6	15001.7
820.3129	545.1305	16006.85	15177.55
820.4572	547.2748	15806.05	14977.55
820.6016	549.4185	15329.3	14497.65
820.7459	551.5615	14897.9	14067.7
820.8902	553.704	14719.4	13887.9
821.0346	555.8458	14564.75	13735.45
821.1789	557.987	14480.7	13647
821.3233	560.1276	14362.85	13528.85
821.4677	562.2675	14225.7	13394.2
821.6121	564.4069	14074.3	13241.9
821.7565	566.5456	13926.85	13095.3
821.9009	568.6837	13781.05	12947.5
822.0453	570.8212	13500	12668.35
822.1897	572.958	13234.7	12403.05
822.3342	575.0942	13092.05	12258.9
822.4786	577.2299	12954.15	12119.75
822.6231	579.3648	12987.25	12154.3
822.7675	581.4992	13113.75	12281.7
822.912	583.6329	13334.4	12504.55
823.0565	585.766	13622.35	12788.85
823.201	587.8985	13738	12905.2
823.3454	590.0304	13708.6	12864.65
823.4899	592.1616	13659	12821.2
823.6345	594.2922	13552.75	12717.75
823.779	596.4222	13390.5	12554.8
823.9235	598.5515	13211.75	12378.25
824.068	600.6802	13016.9	12181.2
824.2126	602.8083	12803.25	11968.35
824.3571	604.9358	12727.35	11891.95
824.5017	607.0626	12632.9	11794.95
824.6462	609.1888	12508.85	11670.8
824.7908	611.3144	12360.65	11520.35
824.9354	613.4393	12197.75	11359.95
825.08	615.5636	12064.85	11224.05
825.2246	617.6873	11904.3	11064.9
825.3692	619.8103	11813.55	10971.6
825.5138	621.9327	11743.25	10899.05
825.6584	624.0544	11753.6	10914.35
825.803	626.1756	11747.55	10910.25
825.9477	628.2961	11736.65	10895.8
826.0923	630.4159	11647.3	10804.15
826.237	632.5351	11602.5	10758.4
826.3816	634.6537	11531.2	10688.35
826.5263	636.7716	11479.25	10634.3
826.6709	638.8889	11428.4	10585.25
826.8156	641.0056	11443.1	10599.95
826.9603	643.1216	11450.15	10605.45
827.105	645.237	11465.05	10618.2
827.2497	647.3518	11457.45	10612.35
827.3944	649.4659	11491.85	10648.95
827.5391	651.5793	11494.3	10649.4
827.6838	653.6922	11478.75	10632.8
827.8285	655.8043	11415.55	10568.75
827.9733	657.9159	11408.7	10560.3
828.118	660.0268	11310	10461.1
828.2627	662.137	11235.05	10390.25
828.4075	664.2466	11162.85	10314.7
828.5522	666.3556	11118.75	10271.25
828.697	668.4639	11115.2	10263.45
828.8418	670.5716	11174.15	10326.65
828.9865	672.6786	11273.1	10424.35
829.1313	674.785	11339.4	10492.95
829.2761	676.8907	11430.45	10581.25
829.4209	678.9958	11493.05	10647.15
829.5657	681.1002	11466.35	10616.2
829.7105	683.204	11410.75	10561.35
829.8553	685.3072	11357.55	10509.4
830.0001	687.4097	11249.5	10398.4
830.1449	689.5115	11168.95	10316.3
830.2898	691.6127	11096.25	10246.95
830.4346	693.7132	10987.3	10137.6
830.5794	695.8131	10931.5	10058.4
830.7243	697.9123	10841.25	9987.9
830.8691	700.0109	10795.15	9941.4
831.014	702.1089	10757.65	9907.45
831.1588	704.2061	10773.85	9922.75
831.3037	706.3028	10800.4	9946.3
831.4486	708.3987	10816.5	9964.5
831.5935	710.4941	10932.45	10081.8
831.7383	712.5887	11117.85	10263.25
831.8832	714.6827	11479.15	10620.9
832.0281	716.7761	11886.5	11032.5
832.173	718.8688	12283.6	11429.2
832.3179	720.9608	12499.2	11642.8
832.4628	723.0522	12471.3	11615.05
832.6077	725.1429	12162.5	11307
832.7527	727.233	11743.2	10887
832.8976	729.3224	11368.8	10513.1
833.0425	731.4112	11040.2	10183.45
833.1874	733.4993	10787.15	9928.1
833.3324	735.5867	10642	9784.2
833.4773	737.6735	10549.75	9691.85
833.6222	739.7596	10490.6	9633
833.7672	741.845	10458.85	9598.65
833.9122	743.9298	10440.95	9581.6
834.0571	746.014	10449.85	9592.85
834.2021	748.0974	10457.95	9597.75
834.347	750.1802	10438.45	9580.35
834.492	752.2624	10454.5	9596.9
834.637	754.3439	10465.05	9607.55
834.782	756.4247	10526.4	9659.1
834.9269	758.5048	10601.8	9742.35
835.0719	760.5843	10776.45	9918.25
835.2169	762.6631	11062.2	10202
835.3619	764.7413	11469.8	10611.35
835.5069	766.8188	12058.3	11199.35
835.6519	768.8956	12508.35	11646.95
835.7969	770.9718	12795.1	11937.1
835.9419	773.0473	12702.65	11843.65
836.0869	775.1221	12306.95	11448.05
836.232	777.1962	11938.4	11076.6
836.377	779.2697	11727.95	10867.35
836.522	781.3426	11783.8	10913.45
836.667	783.4147	12091.8	11231.45
836.8121	785.4862	12418.95	11560.55
836.9571	787.557	12427.05	11567.1
837.1021	789.6271	12066.4	11205.1
837.2472	791.6966	11469.7	10607.55
837.3922	793.7654	10917.95	10056.7
837.5373	795.8335	10600.65	9741.15
837.6823	797.901	10400.2	9539.15
837.8274	799.9678	10349.5	9486.45
837.9724	802.0339	10350.45	9489.5
838.1175	804.0993	10397.4	9527.2
838.2626	806.1641	10389.75	9525.85
838.4076	808.2282	10319.25	9460.7
838.5527	810.2916	10229.65	9362.6
838.6978	812.3544	10088.25	9228.35
838.8428	814.4164	9981.65	9122.65
838.9879	816.4778	9987.45	9124.85
839.133	818.5385	9948.2	9085.1
839.2781	820.5986	9948.3	9087.65
839.4232	822.658	9999.85	9136.1
839.5682	824.7166	10061.1	9199.1
839.7133	826.7747	10159.35	9297.95
839.8584	828.832	10291.2	9430
840.0035	830.8886	10370.3	9504.8
840.1486	832.9446	10507.9	9646.05
840.2937	834.9999	10613.25	9751.8
840.4388	837.0545	10702.4	9837.4
840.5839	839.1085	10737.4	9874.25
840.729	841.1618	10780.6	9913.2
840.8741	843.2143	10750.35	9887.8
841.0192	845.2662	10666.9	9803.55
841.1643	847.3175	10623.85	9762.9
841.3095	849.368	10478.5	9613.5
841.4546	851.4179	10347.5	9482
841.5997	853.467	10182.6	9318.35
841.7448	855.5155	10062.65	9197.75
841.8899	857.5633	9925.2	9058.95
842.0351	859.6105	9810.65	8945.1
842.1802	861.6569	9730.85	8868.9
842.3253	863.7027	9657.3	8791.55
842.4704	865.7478	9641.15	8777.6
842.6156	867.7922	9645.85	8781.45
842.7607	869.8359	9691.75	8825.3
842.9058	871.8789	9828.6	8964.1
843.0509	873.9212	10029.1	9130.45
843.1961	875.9629	10181.7	9317.6
843.3412	878.0039	10342.85	9475
843.4863	880.0441	10417.9	9554.2
843.6315	882.0837	10396.05	9528.5
843.7766	884.1226	10275.2	9406.85
843.9218	886.1609	10100.1	9235.95
844.0669	888.1984	9937.55	9071.95
844.212	890.2352	9856.8	8993.05
844.3572	892.2714	9796.4	8927.95
844.5023	894.3069	9754.85	8888
844.6475	896.3416	9680.5	8812.1
844.7926	898.3757	9655.5	8789.55
844.9377	900.4091	9642	8775.75
845.0829	902.4418	9643.2	8771.45
845.228	904.4739	9661.8	8792.2
845.3732	906.5052	9626.25	8756.45
845.5183	908.5358	9497.55	8628.6
845.6635	910.5658	9332.25	8460.85
845.8086	912.595	9178.15	8312.2
845.9538	914.6236	9063.7	8194.85
846.0989	916.6515	9005.65	8136.35
846.2441	918.6786	9005.4	8135.75
846.3892	920.7051	9049.05	8179.9
846.5344	922.7309	9210.15	8342.75
846.6795	924.756	9259.4	8390
846.8246	926.7804	9330.75	8460
846.9698	928.8041	9307.05	8436.05
847.1149	930.8272	9298.1	8427.2
847.2601	932.8495	9247.2	8377.6
847.4052	934.8711	9135.3	8264.3
847.5504	936.892	8975	8104.15
847.6955	938.9123	8783.9	7913.75
847.8407	940.9318	8611	7740.25
847.9858	942.9506	8499.2	7627.8
848.131	944.9688	8422.55	7552.7
848.2761	946.9862	8363.85	7495.65
848.4213	949.003	8315.2	7443.4
848.5664	951.019	8333.05	7461.95
848.7115	953.0344	8349.3	7479.05
848.8567	955.0491	8382.25	7511.1
849.0018	957.063	8441.75	7573.25
849.147	959.0763	8568.9	7697.75
849.2921	961.0888	8608.45	7738.35
849.4373	963.1007	8683	7812.2
849.5824	965.1119	8742.5	7872.85
849.7275	967.1223	8738.1	7867.35
849.8727	969.1321	8776.05	7906.5
850.0178	971.1412	8813.45	7940.7
850.1629	973.1495	8809.2	7939.35
850.3081	975.1572	8869.3	7958.1
850.4532	977.1641	8864.7	7993.65
850.5983	979.1704	8847.9	7977.7
850.7435	981.1759	8849.65	7975.05
850.8886	983.1808	8904.95	8033.05
851.0337	985.1849	9034.45	8152
851.1788	987.1884	9199.9	8324.4
851.324	989.1911	9418.9	8543.4
851.4691	991.1932	9546.8	8675
851.6142	993.1945	9590.25	8718.5
851.7593	995.1951	9570.9	8696.95
851.9045	997.1951	9519.8	8641.65
852.0496	999.1943	9417.3	8545.75
852.1947	1001.1928	9367.1	8495.3
852.3398	1003.1906	9345.15	8473.8
852.4849	1005.1877	9375.2	8499.25
852.63	1007.1841	9292	8420.6
852.7751	1009.1798	9190.65	8318.6
852.9202	1011.1748	8992	8121.45
853.0653	1013.1691	8768.9	7895.2
853.2104	1015.1627	8532.9	7660.6
853.3555	1017.1556	8367.15	7492.9
853.5006	1019.1477	8255.3	7382.55
853.6457	1021.1392	8212.4	7339.1
853.7908	1023.1299	8221.5	7350
853.9359	1025.12	8238.7	7365.75
854.081	1027.1093	8275.85	7402.15
854.2261	1029.0979	8375.15	7503.75
854.3712	1031.0859	8433.1	7560
854.5163	1033.0731	8427.25	7552.4
854.6613	1035.0596	8322.95	7450.75
854.8064	1037.0454	8153.8	7281.05
854.9515	1039.0304	8063.7	7189.45
855.0965	1041.0148	7919.4	7045.05
855.2416	1042.9985	7835.25	6961.75
855.3867	1044.9814	7814.6	6940.85
855.5317	1046.9636	7743.45	6868.4
855.6768	1048.9452	7703.75	6832.15
855.8219	1050.926	7690.1	6817.6
855.9669	1052.9061	7714.8	6841.15
856.112	1054.8855	7694.55	6822.35
856.257	1056.8642	7717.35	6842.4
856.4021	1058.8421	7766.6	6887.5
856.5471	1060.8194	7796.4	6922.3
856.6921	1062.7959	7809.9	6934.95
856.8372	1064.7717	7810.95	6933.55
856.9822	1066.7469	7790.55	6915.5
857.1272	1068.7213	7750.05	6873.2
857.2723	1070.695	7709.05	6835.25
857.4173	1072.6679	7626.3	6750.45
857.5623	1074.6402	7598	6724.2
857.7073	1076.6117	7578.6	6699.2
857.8523	1078.5826	7585.95	6713.25
857.9973	1080.5527	7677	6799.5
858.1423	1082.5221	7838	6962.45
858.2873	1084.4908	8082.7	7206.35
858.4323	1086.4587	8290.3	7413.1
858.5773	1088.426	8477.95	7600.15
858.7223	1090.3925	8466.6	7588.05
858.8673	1092.3584	8378.4	7505.6
859.0123	1094.3235	8182.7	7309.9
859.1573	1096.2879	8053.35	7177.85
859.3022	1098.2515	8012.3	7136.35
859.4472	1100.2145	8032.8	7158.55
859.5922	1102.1767	8123.6	7245.6
859.7371	1104.1382	8260.3	7385.45
859.8821	1106.099	8468.75	7588.3
860.027	1108.0591	8671.1	7794.8
860.172	1110.0185	8795.1	7918.25
860.3169	1111.9771	8782.05	7905.75
860.4619	1113.9351	8533.45	7658.45
860.6068	1115.8923	8189.55	7314.8
860.7517	1117.8488	7851.7	6975.05
860.8967	1119.8045	7536.25	6661.5
861.0416	1121.7596	7409.4	6530.95
861.1865	1123.7139	7343.1	6467.15
861.3314	1125.6675	7345.7	6469.7
861.4763	1127.6204	7401.25	6523.95
861.6212	1129.5726	7435.65	6559.7
861.7661	1131.524	7453.55	6578.05
861.911	1133.4748	7488.7	6612.5
862.0559	1135.4248	7541.95	6666.15
862.2008	1137.3741	7581.55	6703.95
862.3457	1139.3226	7555.75	6679.6
862.4905	1141.2705	7501.2	6625.65
862.6354	1143.2176	7470.75	6587.45
862.7803	1145.164	7460.75	6583.1
862.9251	1147.1097	7461.35	6585.5
863.07	1149.0546	7456.75	6578.55
863.2148	1150.9989	7375.15	6495.3
863.3597	1152.9424	7195.55	6319.2
863.5045	1154.8852	6976.25	6098.4
863.6493	1156.8272	6818.9	5943.85
863.7942	1158.7686	6772.7	5889.2
863.939	1160.7092	6710.3	5834.6
864.0838	1162.6491	6712.65	5833.55
864.2286	1164.5883	6767.1	5889.75
864.3734	1166.5267	6838.9	5959.75
864.5182	1168.4644	6979.3	6102.55
864.663	1170.4014	7161.5	6281.05
864.8078	1172.3377	7397.15	6521.5
864.9526	1174.2732	7610.3	6733.35
865.0974	1176.2081	7835.9	6959.9
865.2421	1178.1421	7976.45	7097.95
865.3869	1180.0755	8093.1	7219
865.5317	1182.0082	8087.4	7211.75
865.6764	1183.9401	8000.2	7123.3
865.8212	1185.8713	7788.35	6909.65
865.9659	1187.8017	7523.85	6646.6
866.1106	1189.7315	7271.8	6395.85
866.2554	1191.6605	7074.55	6167.3
866.4001	1193.5888	6840.3	5961.9
866.5448	1195.5163	6731.45	5854.95
866.6895	1197.4432	6606.4	5726.9
866.8342	1199.3693	6537.05	5661.8
866.9789	1201.2947	6493.4	5613.3
867.1236	1203.2193	6470.05	5593.45
867.2683	1205.1432	6502.5	5625.05
867.413	1207.0664	6553.25	5673.95
867.5576	1208.9889	6656.5	5775.4
867.7023	1210.9106	6748.65	5871.9
867.847	1212.8316	6818.9	5942.9
867.9916	1214.7519	6909.1	6023.3
868.1363	1216.6715	6920.95	6044.05
868.2809	1218.5903	6896.4	6018.65
868.4255	1220.5084	6840.4	5961.85
868.5701	1222.4257	6797.35	5918.4
868.7148	1224.3424	6748	5871.8
868.8594	1226.2583	6831.05	5946.05
869.004	1228.1735	6928.95	6048.9
869.1486	1230.0879	7067.5	6190.05
869.2932	1232.0016	7193.55	6315.45
869.4377	1233.9146	7208.45	6327.5
869.5823	1235.8269	7138.6	6260.75
869.7269	1237.7384	6995.75	6119.2
869.8715	1239.6492	6802.85	5925.15
870.016	1241.5592	6699.9	5820.1
870.1606	1243.4686	6590.5	5712.25
870.3051	1245.3772	6526.85	5649.1
870.4496	1247.285	6474.1	5595.65
870.5941	1249.1922	6424.85	5546.7
870.7387	1251.0986	6411.75	5534
870.8832	1253.0042	6424.4	5547.9
871.0277	1254.9092	6496.1	5619.35
871.1722	1256.8134	6598.15	5720.95
871.3167	1258.7169	6756.15	5876.35
871.4611	1260.6196	6918.6	6041.75
871.6056	1262.5216	7072.55	6193.2
871.7501	1264.4229	7214	6338.1
871.8945	1266.3234	7331.05	6454.6
872.039	1268.2232	7343.9	6463.9
872.1834	1270.1223	7334.45	6453.65
872.3278	1272.0207	7301.55	6423
872.4723	1273.9183	7262.65	6377.4
872.6167	1275.8151	7173.3	6294.85
872.7611	1277.7113	7056.65	6175.3
872.9055	1279.6067	6933.75	6056.4
873.0499	1281.5014	6754.05	5871.1
873.1943	1283.3953	6605.5	5726.45
873.3386	1285.2885	6508.25	5630.15
873.483	1287.181	6444.75	5564.55
873.6274	1289.0727	6468.55	5591.5
873.7717	1290.9637	6485.7	5607.05
873.9161	1292.854	6617.5	5739.2
874.0604	1294.7435	6778.05	5899.35
874.2047	1296.6323	6993.5	6112.75
874.349	1298.5204	7248.55	6366.6
874.4933	1300.4077	7532.65	6651.75
874.6376	1302.2943	7731.35	6851.65
874.7819	1304.1802	7788.6	6911.6
874.9262	1306.0653	7724.1	6842.9
875.0705	1307.9497	7610.45	6732.45
875.2147	1309.8333	7535.75	6656.5
875.359	1311.7162	7549.75	6671.05
875.5032	1313.5984	7637.4	6756.85
875.6475	1315.4798	7811.5	6917.9
875.7917	1317.3605	7971.25	7076.35
875.9359	1319.2405	8117.3	7238
876.0801	1321.1197	8167.2	7285.3
876.2243	1322.9982	8120.25	7236.8
876.3685	1324.876	8109.8	7230.95
876.5127	1326.753	8104.05	7224.6
876.6569	1328.6293	8133.4	7253.6
876.801	1330.5048	8119.9	7239.2
876.9452	1332.3796	8093.4	7216.75
877.0893	1334.2537	8092.2	7186.7
877.2335	1336.127	8013.75	7133.55
877.3776	1337.9996	7967.55	7085.05
877.5217	1339.8714	7924.2	7045.55
877.6658	1341.7426	7904.05	6979.05
877.8099	1343.6129	7803.6	6923.35
877.954	1345.4826	7726.35	6846.75
878.0981	1347.3515	7690.2	6809.15
878.2422	1349.2196	7608.45	6728.15
878.3862	1351.087	7619.2	6740.3
878.5303	1352.9537	7676.15	6793.3
878.6743	1354.8197	7785.2	6905.65
878.8184	1356.6849	7924.4	7046.1
878.9624	1358.5493	8005.25	7124.1
879.1064	1360.4131	7995.35	7114
879.2504	1362.276	7883.8	7004.65
879.3944	1364.1383	7749.6	6871.3
879.5384	1365.9998	7520.6	6635.85
879.6823	1367.8606	7250.45	6368
879.8263	1369.7206	7011.95	6132.25
879.9702	1371.5799	6847.1	5964.75
880.1142	1373.4384	6738.85	5857.5
880.2581	1375.2962	6611.6	5733
880.402	1377.1533	6403.3	5522.9
880.5459	1379.0096	6117.25	5236.2
880.6898	1380.8652	5852.8	4971.9
880.8337	1382.7201	5601.95	4721.95
880.9776	1384.5742	5436.6	4556.65
881.1215	1386.4275	5300.7	4417.95
881.2653	1388.2802	5198.05	4318.85
881.4092	1390.132	5097.5	4218.8
881.553	1391.9832	5049.1	4165.95
881.6968	1393.8336	4977.3	4097.55
881.8406	1395.6832	4958.15	4074.3
881.9844	1397.5322	4930.45	4050.3
882.1282	1399.3803	4916.9	4031.6
882.272	1401.2278	4900.4	4020.65
882.4158	1403.0745	4905.25	4024.85
882.5595	1404.9204	4905.85	4026.7
882.7033	1406.7656	4920.05	4037.6
882.847	1408.6101	4918.15	4037.05
882.9908	1410.4538	4959.4	4078.95
883.1345	1412.2968	4985.5	4105.25
883.2782	1414.139	5058.3	4178.05
883.4219	1415.9805	5141.8	4261.35
883.5656	1417.8213	5246.6	4358.8
883.7092	1419.6613	5381.75	4501.95
883.8529	1421.5006	5582.5	4702.05
883.9965	1423.3391	5861.9	4980.05
884.1402	1425.1769	6246.8	5365.15
884.2838	1427.0139	6763	5883.65
884.4274	1428.8502	7390.6	6508.2
884.571	1430.6858	8010.45	7131.1
884.7146	1432.5206	8460.05	7580.85
884.8582	1434.3547	8712.65	7830.05
885.0018	1436.188	8751.65	7873.3
885.1453	1438.0206	8665	7785.4
885.2889	1439.8524	8520.55	7640.2
885.4324	1441.6835	8430.95	7550.8
885.5759	1443.5139	8331.3	7446.1
885.7194	1445.3435	8252.45	7372.85
885.8629	1447.1724	8218.1	7338.85
886.0064	1449.0005	8141.05	7262.35
886.1499	1450.8279	8061.25	7180.3
886.2933	1452.6545	8013.65	7131.05
886.4368	1454.4804	8054.7	7174.8
886.5802	1456.3056	8002.85	7113.85
886.7237	1458.13	7889.05	7010.55
886.8671	1459.9536	7673.55	6792.85
887.0105	1461.7766	7300.85	6418.2
887.1539	1463.5987	6879.8	5995.65
887.2972	1465.4202	6466.45	5585.25
887.4406	1467.2409	6133.15	5252.45
887.584	1469.0608	5843.9	4966.15
887.7273	1470.88	5585	4701.95
887.8706	1472.6984	5354.95	4473.75
888.0139	1474.5161	5172.35	4285.8
888.1572	1476.3331	5014.3	4137.2
888.3005	1478.1493	4905.25	4025.6
888.4438	1479.9648	4795.55	3914.85
888.5871	1481.7795	4709.1	3830.5
888.7303	1483.5935	4624.75	3746.05
888.8736	1485.4067	4584.15	3705.2
889.0168	1487.2192	4533.05	3652.15
889.16	1489.031	4483.3	3598.75
889.3032	1490.842	4453.2	3575.65
889.4464	1492.6522	4425.75	3545.05
889.5896	1494.4618	4395.9	3513
889.7327	1496.2705	4385.4	3506.05
889.8759	1498.0785	4356.95	3474.9
890.019	1499.8858	4340.35	3461.4
890.1622	1501.6924	4306.65	3427.85
890.3053	1503.4981	4296.35	3416.25
890.4484	1505.3032	4272.5	3393.05
890.5914	1507.1075	4250.3	3367.1
890.7345	1508.911	4245.75	3366.7
890.8776	1510.7138	4207.3	3327.05
891.0206	1512.5159	4180.5	3297.3
891.1637	1514.3172	4146.8	3267.25
891.3067	1516.1178	4113.65	3232.15
891.4497	1517.9176	4097.15	3216.25
891.5927	1519.7166	4069.7	3191.15
891.7357	1521.515	4050.55	3161.85
891.8786	1523.3126	4048.55	3166.75
892.0216	1525.1094	4022.6	3140.35
892.1645	1526.9055	3999.5	3119.3
892.3074	1528.7008	3962.1	3081.95
892.4503	1530.4954	3964	3074.3
892.5932	1532.2893	3945.65	3065.1
892.7361	1534.0824	3934.2	3046.85
892.879	1535.8747	3914	3033.35
893.0218	1537.6663	3924.8	3042.55
893.1647	1539.4572	3919.1	3037.45
893.3075	1541.2473	3907.65	3026.4
893.4503	1543.0367	3915.6	3036.3
893.5931	1544.8253	3918.4	3030.4
893.7359	1546.6132	3929.25	3046.4
893.8787	1548.4003	3929.8	3040.05
894.0214	1550.1867	3922.7	3032.05
894.1642	1551.9723	3947.3	3062.15
894.3069	1553.7572	3953.25	3071.15
894.4496	1555.5414	3957.5	3077.45
894.5923	1557.3247	4013.4	3131.45
894.735	1559.1074	4068.05	3188.5
894.8777	1560.8893	4111	3232.85
895.0204	1562.6705	4150.65	3269.45
895.163	1564.4509	4243.65	3362.6
895.3056	1566.2305	4318.35	3437.1
895.4482	1568.0094	4409.5	3529.5
895.5908	1569.7876	4492	3612.65
895.7334	1571.565	4584.75	3703.45
895.876	1573.3417	4628.5	3748.95
896.0186	1575.1176	4638.65	3757.2
896.1611	1576.8928	4612.1	3729.65
896.3036	1578.6672	4523.8	3643
896.4461	1580.4409	4417.4	3538.65
896.5886	1582.2138	4293.35	3410.45
896.7311	1583.986	4165.55	3284.15
896.8736	1585.7575	4058.75	3180.7
897.0161	1587.5282	3986.25	3107.45
897.1585	1589.2981	3940.05	3059.3
897.3009	1591.0673	3902.7	3020.7
897.4433	1592.8358	3882.15	3000.75
897.5857	1594.6035	3880.05	2997.85
897.7281	1596.3704	3869.6	2987.65
897.8705	1598.1366	3886.1	3004.95
898.0128	1599.9021	3916.4	3037.5
898.1551	1601.6668	3931.35	3047.05
898.2975	1603.4308	3986.1	3105.4
898.4398	1605.194	4046.55	3161.95
898.5821	1606.9564	4114.5	3234.15
898.7243	1608.7182	4250.2	3365.4
898.8666	1610.4791	4376.8	3495.7
899.0088	1612.2394	4542.25	3661
899.1511	1613.9988	4717.55	3836.6
899.2933	1615.7576	4937.85	4056.95
899.4355	1617.5156	5192	4305.3
899.5776	1619.2728	5425.1	4546.3
899.7198	1621.0293	5599.3	4719.75
899.862	1622.785	5656.35	4774
900.0041	1624.54	5606.6	4722.6
900.1462	1626.2942	5468	4587.8
900.2883	1628.0477	5223.7	4339.5
900.4304	1629.8005	4985.35	4101.35
900.5725	1631.5525	4772.2	3892.8
900.7145	1633.3037	4547.25	3665.6
900.8566	1635.0542	4396.8	3517.55
900.9986	1636.804	4255.25	3374.2
901.1406	1638.553	4232.1	3279.8
901.2826	1640.3013	4108.75	3230.8
901.4245	1642.0488	4083.75	3201.6
901.5665	1643.7955	4077.95	3199.1
901.7085	1645.5416	4106.55	3225.75
901.8504	1647.2868	4145.5	3265.75
901.9923	1649.0313	4244.15	3365.9
902.1342	1650.7751	4389.05	3505.4
902.2761	1652.5181	4573.65	3693.65
902.4179	1654.2604	4845.55	3964.2
902.5598	1656.0019	5165.35	4284.05
902.7016	1657.7427	5528.85	4648.45
902.8434	1659.4828	5868.35	4988.7
902.9852	1661.222	6085.25	5203.7
903.127	1662.9606	6126.4	5248.8
903.2687	1664.6984	5938.95	5058.2
903.4105	1666.4354	5593.25	4712.55
903.5522	1668.1717	5173.95	4293.2
903.6939	1669.9072	4711.55	3829.6
903.8356	1671.642	4360.8	3478.5
903.9773	1673.3761	4069.95	3191
904.119	1675.1094	3841	2963.55
904.2606	1676.8419	3688.5	2808.1
904.4022	1678.5737	3575.65	2694.85
904.5439	1680.3048	3481.9	2601.95
904.6855	1682.0351	3396.25	2516.05
904.827	1683.7646	3350.95	2468.35
904.9686	1685.4934	3328.65	2449.2
905.1101	1687.2215	3292.65	2413.2
905.2517	1688.9488	3243.25	2363.5
905.3932	1690.6754	3221.5	2341.6
905.5347	1692.4012	3211.05	2332.6
905.6761	1694.1263	3176.55	2297.95
905.8176	1695.8506	3169.05	2289.85
905.9591	1697.5742	3138.7	2261.05
906.1005	1699.297	3128.5	2249.65
906.2419	1701.0191	3109.4	2229.25
906.3833	1702.7404	3086.35	2206.45
906.5246	1704.461	3075.95	2194.45
906.666	1706.1808	3050.9	2168.6
906.8073	1707.8999	3035.55	2154.85
906.9487	1709.6182	3030.2	2150.25
907.09	1711.3358	3011.5	2132.05
907.2313	1713.0527	2995.25	2118.6
907.3725	1714.7688	2998.95	2114.6
907.5138	1716.4841	2978.6	2095.75
907.655	1718.1987	2975.25	2091.55
907.7962	1719.9126	2976.45	2098.15
907.9374	1721.6257	2944.9	2062.9
908.0786	1723.338	2948.95	2068.15
908.2198	1725.0496	2936.55	2055.05
908.3609	1726.7605	2902.3	2023.25
908.502	1728.4706	2908.9	2028.2
908.6431	1730.18	2905.9	2022.05
908.7842	1731.8886	2899.85	2019.1
908.9253	1733.5964	2883.1	1997.45
909.0664	1735.3036	2873.9	1993.8
909.2074	1737.0099	2868.75	1988.25
909.3484	1738.7156	2863.3	1983.4
909.4894	1740.4204	2853	1971.4
909.6304	1742.1246	2849.25	1969.1
909.7714	1743.8279	2829.95	1949.85
909.9123	1745.5306	2832.85	1952.3
910.0532	1747.2325	2820.8	1942.3
910.1941	1748.9336	2823.9	1943.85
910.335	1750.634	2795.1	1914.55
910.4759	1752.3336	2808	1928.05
910.6168	1754.0325	2794.6	1917
910.7576	1755.7307	2791.5	1912.8
910.8984	1757.4281	2786.25	1903.95
911.0392	1759.1247	2785.8	1898
911.18	1760.8206	2779.25	1895.55
911.3208	1762.5158	2768.2	1884.9
911.4615	1764.2102	2777.95	1899.5
911.6022	1765.9039	2741.9	1861.8
911.7429	1767.5968	2745.85	1865.7
911.8836	1769.289	2741.2	1860.05
912.0243	1770.9804	2732.6	1852.35
912.1649	1772.6711	2738.4	1858.45
912.3056	1774.361	2715.05	1835.85
912.4462	1776.0502	2727	1846.8
912.5868	1777.7386	2713.25	1830.65
912.7274	1779.4263	2704.75	1822.25
912.8679	1781.1132	2711.75	1830.75
913.0084	1782.7994	2706.6	1824.5
913.149	1784.4849	2686.9	1807.3
913.2895	1786.1696	2695.25	1794.8
913.4299	1787.8535	2677.6	1799.5
913.5704	1789.5367	2676.55	1796.8
913.7108	1791.2192	2662.85	1782.25
913.8513	1792.9009	2678.35	1775.9
913.9917	1794.5818	2661.95	1780.75
914.132	1796.2621	2653.65	1774.3
914.2724	1797.9415	2651.4	1770.5
914.4128	1799.6202	2640.8	1761.05
914.5531	1801.2982	2642	1762.55
914.6934	1802.9755	2640.8	1760.2
914.8337	1804.6519	2625.95	1748.05
914.9739	1806.3277	2625.35	1747.2
915.1142	1808.0027	2613.1	1734.05
915.2544	1809.6769	2623.85	1743.65
915.3946	1811.3504	2611.15	1729.55
915.5348	1813.0231	2611.55	1731.6
915.675	1814.6951	2600.55	1720.65
915.8151	1816.3664	2609	1727.2
915.9553	1818.0369	2594.2	1712.4
916.0954	1819.7067	2587.35	1707.1
916.2355	1821.3757	2589.75	1707.6
916.3755	1823.044	2593.1	1715.9
916.5156	1824.7115	2582.75	1702.5
916.6556	1826.3783	2585.3	1706.25
916.7956	1828.0443	2578.2	1698.45
916.9356	1829.7096	2566.15	1685.25
917.0756	1831.3741	2575.9	1692.55
917.2155	1833.0379	2562.7	1683.65
917.3555	1834.701	2561	1677.75
917.4954	1836.3633	2536.45	1655.1
917.6353	1838.0248	2557.85	1677.35
917.7751	1839.6856	2546.4	1666.95
917.915	1841.3457	2549.75	1670.4
918.0548	1843.005	2541.7	1664.1
918.1946	1844.6636	2529.55	1649.4
918.3344	1846.3214	2521.05	1642.8
918.4742	1847.9785	2526.5	1647.05
918.6139	1849.6349	2524.4	1643.2
918.7537	1851.2904	2534.65	1647.1
918.8934	1852.9453	2520.7	1640.2
919.0331	1854.5994	2521	1639.3
919.1727	1856.2528	2519.15	1635.1
919.3124	1857.9054	2506.3	1625.45
919.452	1859.5572	2502.75	1624.05
919.5916	1861.2083	2515.25	1634.85
919.7312	1862.8587	2496.7	1617.9
919.8708	1864.5084	2497.05	1618
920.0103	1866.1572	2490.45	1611.9
920.1498	1867.8054	2480.4	1601.45
920.2893	1869.4528	2484.95	1606.9
920.4288	1871.0994	2470.3	1589.8
920.5683	1872.7453	2472.2	1593.4
920.7077	1874.3905	2470.75	1584.75
920.8471	1876.0349	2455.45	1576.55
920.9865	1877.6786	2462.3	1578.85
921.1259	1879.3215	2449.3	1569.4
921.2653	1880.9637	2451.55	1572.9
921.4046	1882.6051	2445.6	1564.35
921.5439	1884.2458	2436.7	1555.7
921.6832	1885.8858	2439.45	1560.05
921.8225	1887.525	2418.2	1538.3
921.9617	1889.1634	2419.5	1543.85
922.101	1890.8011	2406.55	1525.15
922.2402	1892.4381	2402.4	1523.85
922.3794	1894.0743	2392.8	1513.6
922.5185	1895.7098	2409.05	1530.2
922.6577	1897.3446	2398.3	1516.7
922.7968	1898.9786	2395.5	1511.6
922.9359	1900.6118	2389.95	1511.1
923.075	1902.2443	2377.7	1495.3
923.214	1903.8761	2381.1	1502.65
923.3531	1905.5071	2374.15	1490.95
923.4921	1907.1374	2373.75	1494.1
923.6311	1908.7669	2369.85	1489.55
923.77	1910.3957	2371.75	1491.75
923.909	1912.0237	2350.75	1470.1
924.0479	1913.651	2356.6	1475.25
924.1868	1915.2776	2348	1471.15
924.3257	1916.9034	2342.45	1462.55
924.4646	1918.5285	2337.65	1458.7
924.6034	1920.1528	2329.4	1447.9
924.7422	1921.7764	2328.3	1448.3
924.881	1923.3992	2331	1452.3
925.0198	1925.0213	2319.05	1440.35
925.1586	1926.6427	2318.8	1440.2
925.2973	1928.2633	2406.1	1420
925.436	1929.8832	2306.65	1426.95
925.5747	1931.5023	2305.85	1424.5
925.7134	1933.1207	2289.65	1410.9
925.852	1934.7383	2294.4	1414.65
925.9906	1936.3552	2292.5	1412.65
926.1292	1937.9714	2279.4	1398.5
926.2678	1939.5868	2275.65	1394.75
926.4064	1941.2015	2275.6	1392.65
926.5449	1942.8154	2263.4	1383.05
926.6834	1944.4286	2270.7	1392.25
926.8219	1946.041	2276.7	1374.2
926.9604	1947.6528	2246.3	1363
927.0988	1949.2637	2231.8	1353.25
927.2372	1950.8739	2236.6	1357.2
927.3756	1952.4834	2226.8	1347.3
927.514	1954.0921	2227.95	1347.65
927.6523	1955.7001	2227.25	1342.65
927.7907	1957.3074	2216.1	1337.4
927.929	1958.9139	2219.75	1341.3
928.0673	1960.5197	2202.1	1319.35
928.2055	1962.1247	2196.95	1318.2
928.3438	1963.729	2205.6	1326.7
928.482	1965.3325	2215.15	1312.25
928.6202	1966.9353	2185.9	1305.45
928.7584	1968.5374	2188.9	1306.9
928.8965	1970.1387	2169.75	1289.05
929.0346	1971.7393	2171.35	1289.85
929.1727	1973.3392	2177.15	1297.4
929.3108	1974.9383	2155.8	1276.95
929.4489	1976.5366	2154	1273.85
929.5869	1978.1342	2165.15	1283.8
929.7249	1979.7311	2156.9	1276.7
929.8629	1981.3273	2148.7	1267.2
930.0009	1982.9227	2161.75	1281.3
930.1388	1984.5173	2142.65	1262.15
930.2767	1986.1112	2136.85	1256.65
930.4146	1987.7044	2142.25	1264.2
930.5525	1989.2968	2137.05	1254.3
930.6904	1990.8885	2133.2	1249.1
930.8282	1992.4795	2124.4	1241.95
930.966	1994.0697	2113.25	1230.8
931.1038	1995.6592	2117.35	1237.8
931.2415	1997.2479	2107	1225.7
931.3793	1998.8359	2113.95	1234.75
931.517	2000.4232	2109.2	1230.85
931.6547	2002.0097	2097.4	1218.9
931.7923	2003.5955	2100.5	1220.65
931.93	2005.1805	2095.05	1214.5
932.0676	2006.7648	2092	1209.75
932.2052	2008.3484	2084.25	1203.3
932.3427	2009.9312	2091.05	1209.35
932.4803	2011.5133	2083.65	1205
932.6178	2013.0946	2073.3	1192.9
932.7553	2014.6752	2069.15	1189.5
932.8928	2016.2551	2074.45	1194.35
933.0302	2017.8342	2064.75	1183.95
933.1676	2019.4126	2069.05	1190.1
933.305	2020.9902	2055.25	1174.45
933.4424	2022.5672	2047.85	1164.4
933.5798	2024.1433	2057.05	1171.35
933.7171	2025.7188	2045.75	1165.2
933.8544	2027.2935	2053.15	1172.65
933.9917	2028.8674	2037.85	1156.8
934.129	2030.4406	2036.85	1155.5
934.2662	2032.0131	2040.35	1160.9
934.4034	2033.5849	2031.95	1147.25
934.5406	2035.1559	2024.4	1145.7
934.6778	2036.7261	2022.8	1143.05
934.8149	2038.2957	2023.95	1145.7
934.952	2039.8645	2011.5	1131.85
935.0891	2041.4325	2011.7	1129.1
935.2262	2042.9998	2014.35	1134.1
935.3632	2044.5664	2016.9	1135.65
935.5002	2046.1323	2000.85	1120.45
935.6372	2047.6974	2000.4	1119.3
935.7742	2049.2617	2002.1	1123.45
935.9111	2050.8254	2019.05	1116.9
936.048	2052.3883	1997.75	1117
936.1849	2053.9504	2003.05	1122.95
936.3218	2055.5118	1990.6	1110.85
936.4586	2057.0725	1975.1	1091.1
936.5955	2058.6325	1974.35	1095.2
936.7323	2060.1917	1972.6	1091.3
936.869	2061.7502	1978.3	1093.45
937.0058	2063.3079	1975.65	1096.7
937.1425	2064.8649	1966.2	1082
937.2792	2066.4212	1972.9	1090.65
937.4159	2067.9767	1957.55	1078.1
937.5525	2069.5315	1957.7	1077.35
937.6891	2071.0856	1961.4	1082.15
937.8257	2072.6389	1956.9	1075.2
937.9623	2074.1915	1951.7	1072.95
938.0989	2075.7433	1935	1052.45
938.2354	2077.2945	1939.65	1061.45
938.3719	2078.8448	1939.7	1060.2
938.5084	2080.3945	1938.8	1058.45
938.6448	2081.9434	1934.9	1056.35
938.7812	2083.4916	1926.85	1045.1
938.9176	2085.039	1922.45	1040.6
939.054	2086.5857	1924.4	1043.15
939.1903	2088.1317	1921.9	1043.5
939.3267	2089.677	1913.35	1032.6
939.463	2091.2215	1900.9	1021.1
939.5992	2092.7652	1904.25	1019.95
939.7355	2094.3083	1901.5	1023
939.8717	2095.8506	1903.2	1023.05
940.0079	2097.3921	1914.15	1033.45
940.1441	2098.933	1903.6	1023.05
940.2802	2100.4731	1894.35	1014.75
940.4163	2102.0124	1897.4	1009.9
940.5524	2103.5511	1893.65	1015.25
940.6885	2105.089	1892.15	1011.2
940.8245	2106.6261	1893.35	1012.95
940.9606	2108.1626	1893.4	1011.85
941.0965	2109.6983	1913.05	1004.25
941.2325	2111.2332	1879.65	999.2
941.3684	2112.7675	1882.3	1001.15
941.5044	2114.301	1876.45	994.35
941.6403	2115.8337	1878.35	997.5
941.7761	2117.3657	1876.95	997.05
941.912	2118.897	1871.15	988.5
942.0478	2120.4276	1874.05	988.55
942.1835	2121.9575	1864.15	984.2
942.3193	2123.4866	1880.9	984.5
942.455	2125.0149	1858.15	974.55
942.5907	2126.5426	1855.15	974.8
942.7264	2128.0695	1858.75	974
942.8621	2129.5956	1848.5	968.65
942.9977	2131.1211	1839.95	955.55
943.1333	2132.6458	1842.15	962.5
943.2689	2134.1698	1837.45	955.5
943.4044	2135.693	1850.65	968.15
943.54	2137.2155	1839.65	957.85
943.6755	2138.7373	1834.45	952.4
943.8109	2140.2584	1840.9	958.75
943.9464	2141.7787	1831.7	944.35
944.0818	2143.2983	1835	958.2
944.2172	2144.8171	1817.55	940.4
944.3526	2146.3353	1823.65	940.5
944.4879	2147.8527	1821.25	940.35
944.6232	2149.3693	1817.9	937.95
944.7585	2150.8853	1813.65	931.05
944.8938	2152.4005	1805.35	925.15
945.029	2153.9149	1805.05	925.8
945.1642	2155.4287	1807.85	927.3
945.2994	2156.9417	1807.55	926.9
945.4346	2158.454	1803.25	917.8
945.5697	2159.9655	1807.5	926.95
945.7048	2161.4764	1807.3	927.55
945.8399	2162.9865	1797.2	915.4
945.9749	2164.4958	1800.45	920
946.1099	2166.0045	1785.9	900.4
946.2449	2167.5124	1796.4	917.3
946.3799	2169.0195	1787.7	909.85
946.5148	2170.526	1791.9	911.05
946.6498	2172.0317	1784.5	904.1
946.7846	2173.5367	1777.7	896.25
946.9195	2175.0409	1776.35	896.85
947.0543	2176.5445	1783.7	905.45
947.1891	2178.0473	1781.25	901.5
947.3239	2179.5494	1781.05	897.35
947.4587	2181.0507	1768.95	888.05
947.5934	2182.5513	1769.4	888.25
947.7281	2184.0512	1762.3	882.25
947.8628	2185.5504	1760.85	879.2
947.9974	2187.0488	1753.25	872.1
948.132	2188.5465	1759.85	878.2
948.2666	2190.0435	1752.1	872.7
948.4012	2191.5397	1754.55	873.65
948.5357	2193.0353	1752.1	871.05
948.6702	2194.5301	1747.25	864.45
948.8047	2196.0241	1737.9	855.9
948.9392	2197.5175	1748.9	869
949.0736	2199.0101	1738.95	855
949.208	2200.502	1723.7	845.8
949.3424	2201.9931	1726.65	844.4
949.4767	2203.4835	1730.5	847.45
949.611	2204.9733	1729.9	841.95
949.7453	2206.4622	1732.3	849.6
949.8796	2207.9505	1720.6	836.5
950.0138	2209.438	1723.05	842.7
950.148	2210.9248	1712.4	831.05
950.2822	2212.4109	1710.85	831.9
950.4164	2213.8962	1711.9	828.05
950.5505	2215.3809	1703.9	824.05
950.6846	2216.8648	1713.4	832.9
950.8186	2218.3479	1708.55	823.15
950.9527	2219.8304	1702.45	820.65
951.0867	2221.3121	1692.65	809.25
951.2207	2222.7931	1691.15	812
951.3546	2224.2733	1696.7	816.3
951.4886	2225.7529	1695.8	814.45
951.6225	2227.2317	1692	807.85
951.7563	2228.7098	1687.85	806.65
951.8902	2230.1872	1670.6	790.5
952.024	2231.6638	1675.45	795.55
952.1578	2233.1397	1672.6	785.05
952.2916	2234.6149	1672.3	790.3
952.4253	2236.0894	1667	784.55
952.559	2237.5632	1676.75	785.15
952.6927	2239.0362	1661.7	782.4
952.8263	2240.5085	1665.3	783.3
952.9599	2241.9801	1660.9	780.3
953.0935	2243.4509	1651	770.35
953.2271	2244.921	1652.8	771.25
953.3606	2246.3904	1647.6	764.9
953.4941	2247.8591	1644.4	764.05
953.6276	2249.3271	1639.25	759.4
953.7611	2250.7943	1642.7	761.85
953.8945	2252.2608	1645.85	765
954.0279	2253.7266	1629.15	751.9
954.1612	2255.1917	1635	754.2
954.2946	2256.656	1623.35	740.05
954.4279	2258.1197	1629.9	750.65
954.5612	2259.5826	1620.95	737.8
954.6944	2261.0447	1632.3	752.25
954.8276	2262.5062	1625.6	743.4
954.9608	2263.9669	1631.45	751.65
955.094	2265.4269	1627	747.8
955.2271	2266.8862	1620.6	740
955.3602	2268.3448	1621.3	741.75
955.4933	2269.8026	1628.2	747.05
955.6264	2271.2598	1611.55	731.1
955.7594	2272.7162	1609.7	729.15
955.8924	2274.1719	1609.6	729.8
956.0253	2275.6268	1604.95	723.35
956.1583	2277.0811	1609.05	727.65
956.2912	2278.5346	1604.4	723.75
956.4241	2279.9874	1608.95	726.95
956.5569	2281.4395	1603.05	722.95
956.6897	2282.8908	1602.6	717
956.8225	2284.3414	1601.4	719.15
956.9553	2285.7914	1592.5	710.4
957.088	2287.2406	1595.95	713.6
957.2207	2288.689	1601.85	721.5
957.3534	2290.1368	1598.15	717.75
957.486	2291.5838	1596.6	713
957.6186	2293.0302	1595	713.45
957.7512	2294.4758	1585.75	705.35
957.8838	2295.9206	1587.7	704.35
958.0163	2297.3648	1584.95	704.15
958.1488	2298.8082	1584.15	702.65
958.2813	2300.251	1576.4	694.5
958.4137	2301.693	1572.6	688.7
958.5461	2303.1343	1581.65	699.65
958.6785	2304.5748	1569.35	688
958.8108	2306.0147	1570.65	690.9
958.9432	2307.4538	1568.55	683.55
959.0754	2308.8922	1564.65	685
959.2077	2310.3299	1564.95	684.45
959.3399	2311.7669	1561.25	678.15
959.4721	2313.2031	1567.1	687.05
959.6043	2314.6387	1552.95	672.1
959.7365	2316.0735	1549	666.45
959.8686	2317.5076	1553.15	671.25
960.0006	2318.941	1549.9	670.4
960.1327	2320.3737	1547.75	666.5
960.2647	2321.8056	1545.35	665.2
960.3967	2323.2369	1546.8	665.75
960.5287	2324.6674	1550.45	665.2
960.6606	2326.0972	1538.75	656.7
960.7925	2327.5263	1543.75	662.05
960.9244	2328.9547	1535.15	654.7
961.0562	2330.3823	1542	659.6
961.1881	2331.8092	1537.8	654.25
961.3198	2333.2355	1530.3	650.05
961.4516	2334.661	1536.4	654.8
961.5833	2336.0858	1535.65	652.95
961.715	2337.5098	1525.9	646.95
961.8467	2338.9332	1536.3	653.8
961.9783	2340.3558	1527.9	645
962.1099	2341.7778	1523.4	642.3
962.2415	2343.199	1523.6	638.7
962.373	2344.6195	1518.3	640.05
962.5045	2346.0393	1524.35	642.55
962.636	2347.4583	1523.05	641.55
962.7675	2348.8767	1520.55	639.75
962.8989	2350.2943	1527.95	646.1
963.0303	2351.7113	1521.75	642.25
963.1617	2353.1275	1523.45	642.15
963.293	2354.543	1540.1	635.45
963.4243	2355.9578	1517.1	636.3
963.5556	2357.3718	1512.45	633.7
963.6868	2358.7852	1510.1	628.95
963.818	2360.1978	1512.45	630.8
963.9492	2361.6098	1504.3	621.85
964.0803	2363.021	1508	623.55
964.2114	2364.4315	1504.6	625.7
964.3425	2365.8413	1500.75	618.3
964.4736	2367.2504	1498.85	619.4
964.6046	2368.6587	1501	619.25
964.7356	2370.0664	1494.5	614.85
964.8666	2371.4733	1491.95	613.6
964.9975	2372.8795	1494.1	613.2
965.1284	2374.285	1496.2	616.2
965.2593	2375.6899	1482.95	602.95
965.3901	2377.0939	1485.45	607.1
965.5209	2378.4973	1484.4	606.8
965.6517	2379.9	1486.65	606.25
965.7825	2381.3019	1477.2	597.6
965.9132	2382.7032	1478.3	599.8
966.0439	2384.1037	1477.5	600.1
966.1745	2385.5035	1470	588.8
966.3051	2386.9027	1471.7	590.25
966.4357	2388.3011	1482.1	599.35
966.5663	2389.6987	1467.4	589.55
966.6968	2391.0957	1462	583.75
966.8273	2392.492	1461.75	583.25
966.9578	2393.8876	1458.05	578
967.0882	2395.2824	1459.7	579.4
967.2186	2396.6765	1452.75	573.3
967.349	2398.07	1450.1	571.8
967.4793	2399.4627	1453.05	572
967.6097	2400.8547	1453.9	574.35
967.7399	2402.246	1455.2	568.2
967.8702	2403.6366	1446.15	564.95
968.0004	2405.0265	1443.35	564.9
968.1306	2406.4156	1450.45	566.45
968.2607	2407.8041	1450.6	568.35
968.3909	2409.1918	1443.1	564
968.521	2410.5789	1442.15	562.35
968.651	2411.9652	1447.9	565.3
968.781	2413.3508	1440.1	559
968.911	2414.7358	1437.3	555.7
969.041	2416.12	1433.3	553.3
969.1709	2417.5035	1434.6	555.9
969.3008	2418.8863	1434.9	555.35
969.4307	2420.2684	1439	560.4
969.5606	2421.6497	1430.8	551.05
969.6904	2423.0304	1421.95	544.75
969.8201	2424.4104	1427.7	547.2
969.9499	2425.7896	1425.9	542.7
970.0796	2427.1682	1426	546.2
970.2093	2428.546	1423.25	543.2
970.3389	2429.9232	1424.7	545.4
970.4685	2431.2996	1417.25	537.4
970.5981	2432.6753	1419.15	541.4
970.7277	2434.0503	1414.3	533.6
970.8572	2435.4246	1408.4	529.25
970.9867	2436.7982	1412.3	530.6
971.1161	2438.1711	1410.75	531.5
971.2456	2439.5433	1418.95	538.15
971.375	2440.9148	1411.6	526.25
971.5043	2442.2856	1403.3	524.25
971.6336	2443.6557	1401	518.15
971.7629	2445.025	1394.75	516
971.8922	2446.3937	1406.15	527.55
972.0214	2447.7617	1399.45	518
972.1506	2449.1289	1396.65	518.25
972.2798	2450.4955	1397.85	512.75
972.4089	2451.8613	1394.85	515.15
972.538	2453.2265	1400.7	521.05
972.6671	2454.5909	1392.8	511.1
972.7961	2455.9546	1396.3	515.9
972.9251	2457.3177	1394.2	515.45
973.0541	2458.68	1394.2	511.8
973.1831	2460.0416	1394.5	513.7
973.312	2461.4025	1388.8	509.1
973.4408	2462.7627	1395.55	504.55
973.5697	2464.1222	1391.6	511.9
973.6985	2465.4811	1394.25	513.05
973.8273	2466.8392	1389.9	508.35
973.956	2468.1966	1398.5	516.1
974.0847	2469.5533	1393.7	510.85
974.2134	2470.9093	1389.75	506.65
974.3421	2472.2645	1387.1	504.3
974.4707	2473.6191	1387.35	508.7
974.5993	2474.973	1386.05	505.65
974.7278	2476.3262	1383.15	501.4
974.8563	2477.6787	1374.2	493.85
974.9848	2479.0305	1377.65	499.1
975.1132	2480.3816	1382.3	499.65
975.2417	2481.7319	1378.45	496.8
975.37	2483.0816	1380.2	498.55
975.4984	2484.4306	1379.1	497.2
975.6267	2485.7789	1370.2	488.5
975.755	2487.1264	1369.6	485.9
975.8833	2488.4733	1364.4	486.45
976.0115	2489.8195	1387.85	489.85
976.1397	2491.165	1368.95	486.15
976.2678	2492.5097	1370	487.45
976.3959	2493.8538	1367.35	487.2
976.524	2495.1972	1361.25	480.7
976.6521	2496.5398	1359.75	476.95
976.7801	2497.8818	1365.65	483.9
976.9081	2499.2231	1360.3	480.1
977.036	2500.5637	1356.1	474.85
977.164	2501.9035	1357.3	475.25
977.2918	2503.2427	1356.15	472.25
977.4197	2504.5812	1350.5	471.3
977.5475	2505.919	1358.15	473.5
977.6753	2507.256	1353.75	472.95
977.8031	2508.5924	1351.2	471.45
977.9308	2509.9281	1350.75	462.65
978.0585	2511.2631	1351.4	470.2
978.1861	2512.5974	1346.35	466.5
978.3137	2513.9309	1340.75	461.15
978.4413	2515.2638	1378.1	463.25
978.5689	2516.596	1346.6	469.85
978.6964	2517.9275	1343.9	462
978.8239	2519.2583	1341.4	460.55
978.9513	2520.5884	1345.4	461.9
979.0788	2521.9178	1341.15	461.65
979.2062	2523.2465	1337.55	458.2
979.3335	2524.5745	1336.15	454.6
979.4608	2525.9018	1335.7	455.05
979.5881	2527.2284	1337.8	457.55
979.7154	2528.5543	1327.9	449.45
979.8426	2529.8796	1326.95	446.35
979.9698	2531.2041	1332.4	452.05
980.0969	2532.5279	1335.2	457.3
980.224	2533.851	1338.65	456.9
980.3511	2535.1735	1333.4	452.25
980.4781	2536.4952	1327.55	447.7
980.6052	2537.8163	1331.75	450.4
980.7321	2539.1366	1331.4	452.75
980.8591	2540.4562	1329.6	446.75
980.986	2541.7752	1324.95	444.85
981.1129	2543.0935	1324	445.65
981.2397	2544.411	1323.75	443
981.3665	2545.7279	1322.35	441.65
981.4933	2547.0441	1320.6	441.05
981.62	2548.3596	1321.9	437.9
981.7467	2549.6744	1315.4	436.4
981.8734	2550.9885	1317.6	434.55
982.0001	2552.3019	1309.2	429.65
982.1267	2553.6146	1315.15	433.2
982.2532	2554.9266	1317.6	437.35
982.3798	2556.2379	1311.35	429.55
982.5063	2557.5485	1306.7	427.2
982.6327	2558.8585	1319.65	433.45
982.7592	2560.1677	1314.85	431.7
982.8856	2561.4762	1306.5	426.15
983.0119	2562.7841	1313.15	428.15
983.1383	2564.0913	1306.5	426.7
983.2646	2565.3977	1305.9	425.35
983.3908	2566.7035	1306.55	423.6
983.517	2568.0086	1306.7	422.2
983.6432	2569.313	1303.25	422.3
983.7694	2570.6167	1303.85	419.95
983.8955	2571.9197	1301.95	420.95
984.0216	2573.222	1309.55	426.1
984.1476	2574.5236	1299.4	417.2
984.2737	2575.8246	1301.7	417.45
984.3996	2577.1248	1301.5	419.2
984.5256	2578.4244	1304.35	425.3
984.6515	2579.7232	1303.75	423.65
984.7774	2581.0214	1344.15	432.3
984.9032	2582.3189	1307.65	428.15
985.029	2583.6157	1312.2	428.65
985.1548	2584.9118	1307.3	429.05
985.2806	2586.2072	1302.05	422.25
985.4063	2587.5019	1304.45	425.5
985.5319	2588.7959	1308.2	427.6
985.6576	2590.0893	1312.4	430.75
985.7832	2591.3819	1314.6	435.65
985.9087	2592.6739	1319.15	440.25
986.0343	2593.9652	1319.8	435.5
986.1597	2595.2557	1315.3	434.75
986.2852	2596.5456	1319.8	438.2
986.4106	2597.8348	1315.45	436.95
986.536	2599.1234	1320	440.75
986.6614	2600.4112	1325.45	446.1
986.7867	2601.6983	1325.75	441.4
986.912	2602.9848	1323.7	443.5
987.0372	2604.2705	1329.4	441.75
987.1624	2605.5556	1326.35	444.5
987.2876	2606.84	1317.05	437.3
987.4128	2608.1237	1322.6	440.35
987.5379	2609.4067	1328.2	446.3
987.6629	2610.689	1325.35	435.1
987.788	2611.9707	1321.4	437.7
987.913	2613.2516	1321.1	437.2
988.0379	2614.5319	1316.45	436.9
988.1629	2615.8115	1317.55	435.75
988.2878	2617.0903	1313.05	431.45
988.4126	2618.3685	1317.1	436.1
988.5375	2619.6461	1311.55	430.9
988.6622	2620.9229	1311.45	432.1
988.787	2622.199	1312.85	430.75
988.9117	2623.4745	1311.7	431.15
989.0364	2624.7493	1309.7	430.1
989.161	2626.0234	1310.25	429.75
989.2857	2627.2968	1319.7	437.55
989.4102	2628.5695	1312.35	433.3
989.5348	2629.8415	1309.95	431.6
989.6593	2631.1128	1316.35	434.45
989.7837	2632.3835	1311.75	430.05
989.9082	2633.6535	1310.15	429.25
990.0326	2634.9228	1312.2	431.85
990.1569	2636.1914	1311.35	429.95
990.2812	2637.4593	1313	432.05
990.4055	2638.7265	1313.15	429.3
990.5298	2639.9931	1309.35	431.6
990.654	2641.259	1318.35	437.55
990.7782	2642.5242	1304.2	424.9
990.9023	2643.7887	1305.2	425
991.0264	2645.0525	1310.55	430.25
991.1505	2646.3156	1308.7	427.4
991.2745	2647.5781	1302.8	423.2
991.3985	2648.8398	1303.05	421.8
991.5225	2650.1009	1310	420.45
991.6464	2651.3613	1301.2	421.25
991.7703	2652.6211	1305.25	424.95
991.8942	2653.8801	1295.75	414.95
992.018	2655.1385	1305.95	421
992.1418	2656.3961	1295.15	415.9
992.2655	2657.6531	1299.45	418.55
992.3892	2658.9094	1301.5	421.85
992.5129	2660.1651	1298.8	418.95
992.6366	2661.42	1305	422.6
992.7602	2662.6743	1302.95	422.5
992.8837	2663.9279	1303.1	422.55
993.0073	2665.1808	1305.8	424.45
993.1307	2666.433	1313.15	430.35
993.2542	2667.6846	1312.75	430.9
993.3776	2668.9354	1318.5	435.2
993.501	2670.1856	1306.25	423.4
993.6244	2671.4351	1311.55	432.95
993.7477	2672.6839	1322.2	441.4
993.8709	2673.9321	1323.35	443.55
993.9942	2675.1795	1329.15	447.8
994.1174	2676.4263	1332.35	453.15
994.2405	2677.6724	1326.7	446.6
994.3637	2678.9179	1333.4	451.15
994.4868	2680.1626	1336.4	454.65
994.6098	2681.4067	1336.25	456
994.7328	2682.6501	1331.1	450.4
994.8558	2683.8928	1331.9	450.6
994.9788	2685.1348	1328.6	449.5
995.1017	2686.3761	1328.25	449.15
995.2245	2687.6168	1322.5	442.9
995.3474	2688.8568	1321.8	441.25
995.4702	2690.0961	1318.55	438.6
995.5929	2691.3348	1316.75	436.6
995.7156	2692.5727	1311.6	431.2
995.8383	2693.81	1316.25	435.85
995.961	2695.0466	1305.4	425.45
996.0836	2696.2826	1309.4	427.05
996.2062	2697.5178	1314.95	429.8
996.3287	2698.7524	1315.85	435.15
996.4512	2699.9863	1315.9	431.95
996.5737	2701.2195	1312.3	432.6
996.6961	2702.452	1321.1	438.85
996.8185	2703.6839	1321.65	440.65
996.9408	2704.9151	1326.6	445.55
997.0631	2706.1456	1339.7	459.5
997.1854	2707.3755	1335.1	453.8
997.3077	2708.6046	1349.05	465.4
997.4299	2709.8331	1360.95	480.35
997.552	2711.0609	1366.5	486.05
997.6742	2712.2881	1377	496.55
997.7963	2713.5145	1385.5	500.85
997.9183	2714.7403	1393.5	513.6
998.0403	2715.9654	1400.75	520.15
998.1623	2717.1899	1431.85	535.9
998.2842	2718.4136	1421.7	539.7
998.4062	2719.6367	1441.5	561.3
998.528	2720.8591	1450.95	561.65
998.6498	2722.0809	1458.9	577.55
998.7716	2723.3019	1470.85	587
998.8934	2724.5223	1474.6	592.7
999.0151	2725.7421	1482.55	601.55
999.1368	2726.9611	1481.8	598.25
999.2584	2728.1795	1489.8	603.95
999.38	2729.3972	1480.2	598.4
999.5016	2730.6142	1475.75	583.15
999.6231	2731.8306	1450.15	569.8
999.7446	2733.0462	1433.6	551.35
999.8661	2734.2612	1426.85	539.8
999.9875	2735.4756	1405.2	521.6
1000.1089	2736.6892	1391	509.15
1000.2302	2737.9022	1372.3	492.1
1000.3515	2739.1145	1366.8	487.4
1000.4728	2740.3262	1359.85	470.6
1000.594	2741.5372	1345.85	466.3
1000.7152	2742.7475	1340.5	457.25
1000.8363	2743.9571	1322.2	440.15
1000.9575	2745.1661	1317.85	431.95
1001.0785	2746.3744	1311.65	429.65
1001.1996	2747.582	1299.05	418.8
1001.3206	2748.7889	1290.85	408.55
1001.4415	2749.9952	1281.6	400.6
1001.5625	2751.2008	1275.65	391.55
1001.6833	2752.4057	1277.5	394.25
1001.8042	2753.61	1273.7	391.8
1001.925	2754.8136	1276.25	392.8
1002.0458	2756.0165	1268.8	387.4
1002.1665	2757.2188	1273.25	392.35
1002.2872	2758.4204	1272.45	391.15
1002.4078	2759.6213	1271.9	388.9
1002.5285	2760.8215	1276.8	391.6
1002.649	2762.0211	1268.15	386.95
1002.7696	2763.22	1273.5	390.2
1002.8901	2764.4182	1268.4	386.6
1003.0106	2765.6158	1260.5	379.3
1003.131	2766.8127	1261.3	380.5
1003.2514	2768.009	1256.9	376.05
1003.3717	2769.2045	1262.25	383
1003.492	2770.3994	1259.4	375.95
1003.6123	2771.5936	1251.45	369.85
1003.7325	2772.7872	1254.15	373.65
1003.8527	2773.9801	1260	376.8
1003.9729	2775.1723	1266.55	367.25
1004.093	2776.3639	1251.7	371.9
1004.2131	2777.5548	1255.65	371.15
1004.3331	2778.745	1263.95	379.65
1004.4531	2779.9346	1257.6	376.8
1004.5731	2781.1235	1261.2	379.5
1004.693	2782.3117	1261.1	380.9
1004.8129	2783.4992	1276	396.3
1004.9328	2784.6861	1278.55	397.2
1005.0526	2785.8723	1289.45	409
1005.1723	2787.0579	1289.9	409.9
1005.2921	2788.2428	1301.35	419.25
1005.4118	2789.427	1310.2	433.1
1005.5314	2790.6106	1326.95	445.2
1005.651	2791.7935	1330.4	448.55
1005.7706	2792.9757	1341.9	463.85
1005.8902	2794.1573	1355.05	470.5
1006.0097	2795.3382	1378.2	497.45
1006.1291	2796.5184	1386.8	507.3
1006.2485	2797.698	1412.2	529.35
1006.3679	2798.8769	1430.1	550.25
1006.4873	2800.0551	1446.15	563.65
1006.6066	2801.2327	1467.8	584.2
1006.7258	2802.4096	1481.5	602
1006.8451	2803.5859	1509.65	627.75
1006.9642	2804.7615	1542	660.2
1007.0834	2805.9364	1550.9	671.55
1007.2025	2807.1106	1584.6	704.1
1007.3216	2808.2842	1620.6	738.45
1007.4406	2809.4572	1655.05	775
1007.5596	2810.6294	1691.35	810.7
1007.6785	2811.801	1734.6	854.8
1007.7975	2812.972	1778.85	898.6
1007.9163	2814.1423	1821.95	941.55
1008.0352	2815.3119	1870.1	987.8
1008.154	2816.4808	1912.45	1033.35
1008.2727	2817.6491	1965.4	1082.8
1008.3914	2818.8167	2015.95	1136.1
1008.5101	2819.9837	2070.25	1183.65
1008.6288	2821.15	2115.7	1234.2
1008.7474	2822.3157	2160.65	1280.5
1008.8659	2823.4807	2208.45	1324.25
1008.9844	2824.645	2248.85	1367.25
1009.1029	2825.8086	2287.3	1406.3
1009.2214	2826.9716	2327.55	1448.7
1009.3398	2828.134	2367.4	1486.25
1009.4581	2829.2957	2411.4	1530.1
1009.5764	2830.4567	2428.55	1548.45
1009.6947	2831.617	2440.55	1560.35
1009.813	2832.7767	2448.8	1568.25
1009.9312	2833.9358	2460.65	1579.7
1010.0493	2835.0941	2453.1	1569.6
1010.1675	2836.2519	2443.65	1563.35
1010.2855	2837.4089	2433.15	1552.75
1010.4036	2838.5653	2428.6	1548.7
1010.5216	2839.7211	2413.05	1530.1
1010.6396	2840.8761	2432.2	1549.9
1010.7575	2842.0306	2460.95	1580.75
1010.8754	2843.1843	2498.2	1617.15
1010.9932	2844.3374	2554.8	1673.5
1011.111	2845.4899	2618.35	1737
1011.2288	2846.6417	2684.4	1804.3
1011.3465	2847.7928	2763.9	1883.85
1011.4642	2848.9433	2839.5	1958.95
1011.5818	2850.0931	2929.2	2047.9
1011.6995	2851.2422	3016.2	2130.7
1011.817	2852.3907	3094.85	2214.8
1011.9345	2853.5385	3158.4	2278.05
1012.052	2854.6857	3240.05	2333.7
1012.1695	2855.8323	3259.7	2378.35
1012.2869	2856.9781	3319.6	2440.25
1012.4042	2858.1233	3361	2478.1
1012.5216	2859.2679	3412.45	2533.9
1012.6389	2860.4118	3449.55	2568.85
1012.7561	2861.555	3484.45	2599.7
1012.8733	2862.6976	3530.05	2647.9
1012.9905	2863.8395	3565.35	2685.85
1013.1076	2864.9808	3593.4	2710.75
1013.2247	2866.1214	3608.7	2727.2
1013.3417	2867.2614	3617.05	2736.15
1013.4587	2868.4007	3614.35	2732.1
1013.5757	2869.5393	3639.7	2756.9
1013.6926	2870.6773	3654.8	2770.65
1013.8095	2871.8146	3672.7	2790.1
1013.9263	2872.9513	3675.9	2790.95
1014.0431	2874.0874	3659.55	2779.1
1014.1599	2875.2227	3664.45	2781.85
1014.2766	2876.3574	3649.45	2767.5
1014.3933	2877.4915	3616.35	2735.9
1014.51	2878.6249	3598.5	2720.15
1014.6266	2879.7577	3573.1	2690.7
1014.7431	2880.8898	3577.7	2684.05
1014.8596	2882.0212	3552.6	2672.7
1014.9761	2883.152	3537.95	2657.15
1015.0925	2884.2821	3510.75	2631.5
1015.2089	2885.4116	3514.35	2634.35
1015.3253	2886.5405	3526.05	2643.25
1015.4416	2887.6686	3523.9	2638.9
1015.5579	2888.7962	3514.4	2633.35
1015.6741	2889.923	3534.8	2654.65
1015.7903	2891.0493	3546.8	2667
1015.9065	2892.1748	3558.2	2677.25
1016.0226	2893.2997	3569.2	2689.9
1016.1387	2894.424	3598.2	2718.1
1016.2547	2895.5476	3612.4	2733.4
1016.3707	2896.6706	3642.4	2761
1016.4866	2897.7929	3646.6	2765.4
1016.6025	2898.9145	3692.7	2811
1016.7184	2900.0355	3723.9	2844
1016.8342	2901.1559	3763.1	2880.6
1016.95	2902.2756	3800.3	2919.9
1017.0658	2903.3946	3829.1	2949.35
1017.1815	2904.513	3868.05	2983.2
1017.2971	2905.6308	3884.3	3003.4
1017.4127	2906.7479	3905.9	3023.7
1017.5283	2907.8643	3938.6	3056.2
1017.6439	2908.9801	3936.85	3057.05
1017.7594	2910.0953	3954.55	3073.35
1017.8748	2911.2098	3959.35	3073.9
1017.9902	2912.3236	3961.7	3072.8
1018.1056	2913.4368	3938.75	3054.85
1018.2209	2914.5494	3909.35	3029.45
1018.3362	2915.6613	3892.6	3004.85
1018.4515	2916.7725	3862.05	2979.25
1018.5667	2917.8831	3847.15	2965.9
1018.6819	2918.9931	3813.65	2928.6
1018.797	2920.1024	3781.25	2899.75
1018.9121	2921.211	3767.45	2886.7
1019.0271	2922.319	3729.35	2848.05
1019.1421	2923.4264	3738.2	2859.7
1019.2571	2924.5331	3724.6	2843.15
1019.372	2925.6391	3703	2823.25
1019.4869	2926.7445	3688.65	2808.6
1019.6017	2927.8493	3681.3	2800.4
1019.7165	2928.9534	3660.05	2778.4
1019.8313	2930.0569	3676.95	2792.95
1019.946	2931.1597	3661	2778
1020.0606	2932.2619	3653.7	2775.05
1020.1753	2933.3634	3644.3	2761.9
1020.2899	2934.4643	3631.2	2745.55
1020.4044	2935.5645	3594.95	2708.75
1020.5189	2936.6641	3567.35	2683.95
1020.6334	2937.763	3528.65	2649.15
1020.7478	2938.8613	3478.95	2596.95
1020.8622	2939.959	3416.9	2530.55
1020.9765	2941.056	3334.65	2454.9
1021.0908	2942.1523	3256.3	2376.65
1021.2051	2943.248	3159.75	2278.65
1021.3193	2944.3431	3069.65	2189.25
1021.4334	2945.4375	2962.75	2082.55
1021.5476	2946.5313	2852.4	1971.6
1021.6617	2947.6244	2761.1	1878.3
1021.7757	2948.7169	2646.2	1765.15
1021.8897	2949.8087	2560.8	1681.1
1022.0037	2950.8999	2458	1576.85
1022.1176	2951.9904	2373.6	1493.7
1022.2315	2953.0803	2295.8	1414.15
1022.3453	2954.1696	2245.95	1365.65
1022.4591	2955.2582	2187.45	1306.1
1022.5728	2956.3462	2148.3	1267.2
1022.6865	2957.4335	2103.1	1221.6
1022.8002	2958.5202	2075.55	1194.1
1022.9138	2959.6062	2044	1164.5
1023.0274	2960.6916	2016.75	1136.65
1023.141	2961.7764	2006.35	1124.65
1023.2545	2962.8605	1991.25	1110.5
1023.3679	2963.9439	1972.1	1089.4
1023.4813	2965.0267	1965.6	1083.55
1023.5947	2966.1089	1987.1	1081.35
1023.708	2967.1905	1958.1	1080.75
1023.8213	2968.2714	1951.05	1071.55
1023.9346	2969.3516	1962.45	1082.1
1024.0478	2970.4312	1969.45	1083.65
1024.1609	2971.5102	1956.2	1073.85
1024.274	2972.5885	1948.7	1068.2
1024.3871	2973.6662	1952.5	1068.05
1024.5002	2974.7432	1952.7	1071.8
1024.6132	2975.8196	1954.1	1073.85
1024.7261	2976.8954	1929.25	1048.05
1024.839	2977.9705	1928.05	1046.3
1024.9519	2979.045	1904.95	1024.95
1025.0647	2980.1188	1884.1	1001.55
1025.1775	2981.192	1865.25	986.7
1025.2902	2982.2645	1857.35	975.1
1025.4029	2983.3364	1831.75	953.05
1025.5156	2984.4077	1804.35	924.15
1025.6282	2985.4783	1778.15	891.3
1025.7407	2986.5483	1731.5	852.55
1025.8532	2987.6177	1702.85	823.1
1025.9657	2988.6864	1657.1	778.8
1026.0782	2989.7545	1633.1	751.5
1026.1906	2990.8219	1601.75	721.25
1026.3029	2991.8887	1567.7	685.45
1026.4152	2992.9548	1532.4	648.1
1026.5275	2994.0204	1517.95	637.45
1026.6397	2995.0852	1470.5	590.5
1026.7519	2996.1495	1455	572.35
1026.864	2997.2131	1430.05	549.95
1026.9761	2998.276	1406.55	525
1027.0882	2999.3383	1391.7	510.45
1027.2002	3000.4	1372.85	492.8
1027.3122	3001.4611	1357.85	478.15
1027.4241	3002.5215	1352.3	470.2
1027.536	3003.5812	1331.8	448.75
1027.6478	3004.6404	1321.6	442.85
1027.7596	3005.6989	1310.3	425.45
1027.8714	3006.7567	1304	425
1027.9831	3007.8139	1312.4	410.75
1028.0947	3008.8705	1292.45	411.6
1028.2064	3009.9264	1291.6	409.05
1028.3179	3010.9818	1287.55	408.15
1028.4295	3012.0364	1284.4	402.4
1028.541	3013.0905	1279.35	398.85
1028.6524	3014.1439	1274.55	393.4
1028.7638	3015.1966	1281.25	398.1
1028.8752	3016.2487	1277.65	396.05
1028.9865	3017.3002	1278.7	394.15
1029.0978	3018.3511	1281.6	402.8
1029.209	3019.4013	1275.6	394.9
1029.3202	3020.4509	1278	399
1029.4314	3021.4998	1278.8	400.95
1029.5425	3022.5481	1281.45	399.65
1029.6535	3023.5958	1277.8	398.05
1029.7645	3024.6428	1281.55	399
1029.8755	3025.6892	1283.65	404.75
1029.9864	3026.735	1288.5	407.7
1030.0973	3027.7802	1293.9	412.95
1030.2082	3028.8247	1292.7	413
1030.319	3029.8685	1296.65	414.9
1030.4297	3030.9118	1304.75	422.4
1030.5404	3031.9544	1307.75	428.35
1030.6511	3032.9963	1313.25	432.75
1030.7617	3034.0376	1316.05	435.85
1030.8723	3035.0783	1322.1	439.4
1030.9829	3036.1184	1323.8	444.05
1031.0934	3037.1578	1327.75	447.6
1031.2038	3038.1966	1338.15	455.35
1031.3142	3039.2348	1332.15	454.65
1031.4246	3040.2723	1340.5	450.4
1031.5349	3041.3092	1323.95	444.5
1031.6452	3042.3455	1330.3	449.55
1031.7554	3043.3811	1329.5	449.5
1031.8656	3044.4161	1322.95	443.15
1031.9758	3045.4505	1311.65	431.85
1032.0859	3046.4842	1315.55	436
1032.1959	3047.5173	1307.35	426.75
1032.3059	3048.5498	1300	419.35
1032.4159	3049.5816	1291.25	410.25
1032.5258	3050.6128	1291.75	411.9
1032.6357	3051.6434	1277.4	396.1
1032.7455	3052.6734	1272.45	393.25
1032.8553	3053.7027	1265.3	381.85
1032.9651	3054.7314	1253.15	373.85
1033.0748	3055.7594	1256.7	376.45
1033.1845	3056.7868	1252.95	371.3
1033.2941	3057.8136	1244.8	365.45
1033.4037	3058.8398	1237.8	356.8
1033.5132	3059.8653	1230.5	350.75
1033.6227	3060.8902	1229.75	347.8
1033.7321	3061.9145	1222.7	341.1
1033.8415	3062.9381	1215.65	335.1
1033.9509	3063.9612	1228.7	333.95
1034.0602	3064.9835	1201.6	322.05
1034.1694	3066.0053	1198.35	315.75
1034.2787	3067.0264	1191.15	308.55
1034.3878	3068.0469	1186.5	304.55
1034.497	3069.0668	1175.85	291.3
1034.6061	3070.086	1166.2	287.95
1034.7151	3071.1046	1163.55	281.35
1034.8241	3072.1226	1149	267.05
1034.9331	3073.1399	1145.5	266.3
1035.042	3074.1567	1135.85	255.5
1035.1508	3075.1727	1127.2	244.5
1035.2597	3076.1882	1113.9	234.1
1035.3684	3077.203	1111.85	232.3
1035.4772	3078.2173	1104	222.15
1035.5859	3079.2308	1092.9	210.85
1035.6945	3080.2438	1092.35	210.55
1035.8031	3081.2561	1077.9	199.35
1035.9117	3082.2678	1072.95	192.95
1036.0202	3083.2789	1063.3	183.7
1036.1286	3084.2893	1057.1	176.65
1036.2371	3085.2991	1053.25	171.6
1036.3454	3086.3083	1054.15	168.95
1036.4538	3087.3169	1046.65	163.4
1036.562	3088.3248	1041.05	156.75
1036.6703	3089.3321	1030.2	149.6
1036.7785	3090.3388	1029.5	150.9
1036.8866	3091.3449	1023.85	143.55
1036.9948	3092.3503	1024.65	141.05
1037.1028	3093.3551	1019.9	140.4
1037.2108	3094.3593	1014.5	135.15
1037.3188	3095.3629	1012.45	134.45
1037.4267	3096.3658	1011.95	129.6
1037.5346	3097.3681	1009.85	130.45
1037.6425	3098.3698	1010.05	127.95
1037.7503	3099.3708	1007.1	119.55
1037.858	3100.3713	1003.6	123.5
1037.9657	3101.3711	1001.65	121.5
1038.0734	3102.3702	1137	116.6
1038.181	3103.3688	996.1	113.55
1038.2886	3104.3667	994.75	115.35
1038.3961	3105.364	990.6	111.35
1038.5036	3106.3607	996.05	114.75
1038.611	3107.3568	994.15	112.3
1038.7184	3108.3522	989.25	110.8
1038.8257	3109.347	990.35	109.4
1038.933	3110.3412	993.5	111
1039.0403	3111.3348	987.9	108.15
1039.1475	3112.3277	983.8	102.6
1039.2547	3113.32	978.9	98.9
1039.3618	3114.3117	982.25	101.5
1039.4689	3115.3028	983.35	104.15
1039.5759	3116.2932	979.15	98.2
1039.6829	3117.2831	984.55	99.7
1039.7898	3118.2723	979.15	99.05
1039.8967	3119.2608	978.1	98.2
1040.0035	3120.2488	980.3	101.15
1040.1103	3121.2361	975.7	95.35
1040.2171	3122.2229	973.65	93.1
1040.3238	3123.209	976.75	96.45
1040.4305	3124.1944	973.15	95.05
1040.5371	3125.1793	974.95	93.8
1040.6437	3126.1635	967.7	91
1040.7502	3127.1471	971.2	92
1040.8567	3128.1301	968.75	88.65
1040.9631	3129.1125	968.4	88.45
1041.0695	3130.0942	966.25	86.7
1041.1759	3131.0753	975.75	87.55
1041.2822	3132.0558	967.7	84.1
1041.3884	3133.0357	965.65	84.45
1041.4946	3134.015	963.95	84.65
1041.6008	3134.9936	964.55	82.45
1041.7069	3135.9716	985.55	83.5
1041.813	3136.949	964.6	85.6
1041.919	3137.9258	978.75	81
1042.025	3138.902	961.95	75.95
1042.1309	3139.8775	958.15	76.9
1042.2368	3140.8524	955.15	74.7
1042.3427	3141.8267	956.4	74.45
1042.4485	3142.8004	956.55	74.05
1042.5542	3143.7735	961.95	75.6
1042.6599	3144.7459	956.3	74.15
1042.7656	3145.7178	954.15	74.2
1042.8712	3146.689	952.55	74.05
1042.9768	3147.6596	952.15	69.3
1043.0823	3148.6295	950.6	71.35
1043.1878	3149.5989	950.05	70.05
1043.2932	3150.5676	946.65	68.7
1043.3986	3151.5357	948.45	71.4
1043.5039	3152.5032	948.3	67.6
1043.6092	3153.4701	946.9	68.55
1043.7145	3154.4364	949.25	65.6
1043.8197	3155.402	945.45	64.8
1043.9248	3156.367	947.1	66.2
1044.03	3157.3315	988.2	64.2
1044.135	3158.2952	947.2	67.3
1044.24	3159.2584	939.25	60
1044.345	3160.221	944.75	63.3
1044.4499	3161.1829	941.9	62.3
1044.5548	3162.1442	939.75	58.2
1044.6596	3163.105	940.9	61
1044.7644	3164.065	941.4	61
1044.8692	3165.0245	945.05	63.1
1044.9739	3165.9834	938.3	61.55
1045.0785	3166.9416	936.65	57.2
1045.1831	3167.8993	938.85	58.55
1045.2877	3168.8563	938.25	58.55
1045.3922	3169.8127	937.9	56.85
1045.4966	3170.7684	936.8	57.6
1045.6011	3171.7236	937.8	55.95
1045.7054	3172.6782	937.65	57.65
1045.8098	3173.6321	935.4	53.3
1045.914	3174.5854	938.45	53.75
1046.0183	3175.5381	934.1	53.3
1046.1224	3176.4902	935.8	56.55
1046.2266	3177.4417	934.6	54.05
1046.3307	3178.3926	933.35	55.35
1046.4347	3179.3428	934.1	55.5
1046.5387	3180.2924	932.2	53.15
1046.6427	3181.2415	935.05	53.45
1046.7466	3182.1899	934.9	55.7
1046.8504	3183.1377	933.6	54.15
1046.9542	3184.0848	936.15	52.05
1047.058	3185.0314	930.7	51.6
1047.1617	3185.9773	933.6	51.45
1047.2654	3186.9227	931.65	50.8
1047.369	3187.8674	930.85	51.45
1047.4726	3188.8115	935.55	51.15
1047.5761	3189.755	930.15	50.25
1047.6796	3190.6979	929.5	50.65
1047.783	3191.6402	927.45	50.25
1047.8864	3192.5818	930.9	51.4
1047.9898	3193.5229	951.05	49.4
1048.0931	3194.4633	928.85	49.85
1048.1963	3195.4031	926.9	47.05
1048.2995	3196.3423	926.9	48.85
1048.4027	3197.2809	926.3	46.9
1048.5058	3198.2189	930.6	51.8
1048.6089	3199.1563	947	49.65
1048.7119	3200.0931	927.5	49.95
1048.8148	3201.0292	924.95	44.25
1048.9178	3201.9648	928.45	49.8
1049.0206	3202.8997	930.5	50.05
1049.1235	3203.834	923.9	42.8
1049.2262	3204.7677	924.9	43.5
1049.329	3205.7008	925	41.55
1049.4317	3206.6333	924.55	46.65
1049.5343	3207.5652	927.15	44.8
1049.6369	3208.4964	925.4	46.75
1049.7394	3209.4271	923.65	43.15
1049.8419	3210.3571	927.7	47.4
1049.9444	3211.2865	922.75	42.7
1050.0468	3212.2154	922.55	42.8
1050.1491	3213.1436	926.1	41.6
1050.2514	3214.0712	931.2	44.05
1050.3537	3214.9982	923.25	42.55
1050.4559	3215.9246	924.25	44.4
1050.5581	3216.8503	923.05	43.6
1050.6602	3217.7755	920.4	40.3
1050.7623	3218.7001	922.15	43.75
1050.8643	3219.624	922.85	43.25
1050.9663	3220.5473	922.55	42.55
1051.0682	3221.4701	923.5	43.35
1051.1701	3222.3922	923.3	39.65
1051.2719	3223.3137	921.4	41.65
1051.3737	3224.2346	918.8	37.9
1051.4754	3225.1549	918.9	38.95
1051.5771	3226.0746	920.3	41.55
1051.6788	3226.9937	924.1	43.85
1051.7804	3227.9121	921.9	45
1051.8819	3228.83	921.6	43.5
1051.9834	3229.7473	916.5	36.15
1052.0849	3230.6639	920.75	42.3
1052.1863	3231.5799	920.15	41.3
1052.2876	3232.4954	919.15	39.9
1052.3889	3233.4102	915.9	38
1052.4902	3234.3244	918	38.25
1052.5914	3235.238	918.55	41.3
1052.6926	3236.151	942.3	36.95
1052.7937	3237.0634	918.3	40.55
1052.8948	3237.9752	917.25	38.35
1052.9958	3238.8864	920.45	40.25
1053.0968	3239.797	918.35	36.9
1053.1977	3240.7069	916.55	36.65
1053.2986	3241.6163	918.3	38.4
1053.3994	3242.5251	912.95	34.4
1053.5002	3243.4332	915.55	37.45
1053.6009	3244.3408	916.6	37.3
1053.7016	3245.2477	911.95	33.4
1053.8022	3246.154	916.95	35
1053.9028	3247.0598	916.75	34.85
1054.0034	3247.9649	914.2	32.3
1054.1039	3248.8694	913.15	33.6
1054.2043	3249.7733	914.65	35.25
1054.3047	3250.6766	915.35	34.6
1054.4051	3251.5793	915.2	34.6
1054.5054	3252.4814	912.95	32.55
1054.6056	3253.3829	910.85	32.55
1054.7058	3254.2838	912.15	31.55
1054.806	3255.1841	912.55	33
1054.9061	3256.0838	910.6	30.55
1055.0061	3256.9829	909.25	29
1055.1062	3257.8814	916.35	35.55
1055.2061	3258.7792	910.9	29.35
1055.306	3259.6765	909.6	29.45
1055.4059	3260.5731	908.75	28.2
1055.5057	3261.4692	908.05	27.4
1055.6055	3262.3647	909.65	30.6
1055.7052	3263.2595	905.95	29.5
1055.8049	3264.1538	906.25	26
1055.9045	3265.0474	905.85	26.05
1056.0041	3265.9404	905.05	25.25
1056.1036	3266.8329	905.75	26.45
1056.2031	3267.7247	917.4	27.65
1056.3025	3268.616	904.5	26.55
1056.4019	3269.5066	904.25	22.35
1056.5013	3270.3966	906.5	25.05
1056.6005	3271.286	900.65	22.3
