Software Version:	3.9.2.0
Unit SN:	10000200
Spectrometer SN:	6960
Date:	3/14/2024 2:21:58 PM
Data Line Index:	25
Spectral Points:	2048
Integration time (ms):	125
Averages:	20
Delay (ms):	30000
Sequence Number:	1
Processing:	dark subtract
Laser Power (mW):	305
Laser Current (mA):	824
Laser Diode Temp (C):	25
Laser Case Temp (C):	29.2
System Temp (C):	29.2
Spectrometer Temp (C):	26.9
CCD Temp (C):	0.012
Secondary Temp (C):	20.016
Heatsink Temp (C):	25.095
CCDPCB Temp (C):	38.497
SecondaryPCB Temp (C):	36.118

Wavelength	RamanShift	Raw Counts	Dark Subtracted
787.061	30.1047	458.65	50.5
787.2016	32.3739	456.25	50.2
787.3422	34.6426	464.8	57.25
787.4828	36.9109	471.55	63.75
787.6235	39.1787	480.25	67.45
787.7642	41.4461	484.7	65.65
787.9049	43.7131	493.3	70.6
788.0456	45.9796	502.9	76
788.1863	48.2456	512	80.35
788.3271	50.5112	523.5	87.1
788.4679	52.7764	530.6	93.6
788.6087	55.0411	544.75	105.8
788.7496	57.3054	551.65	106.4
788.8904	59.5692	562.55	114.3
789.0313	61.8326	572.45	118.5
789.1722	64.0955	587.5	127.65
789.3132	66.3579	606	143.3
789.4541	68.6199	618.55	153.6
789.5951	70.8815	649.65	181.9
789.7361	73.1426	722.55	250
789.8771	75.4032	917.9	440.8
790.0181	77.6634	1372.95	889.35
790.1592	79.9231	2472.8	1983.7
790.3003	82.1824	4854.85	4357.7
790.4414	84.4412	9266.3	8752.55
790.5825	86.6995	15558.4	15026.9
790.7237	88.9574	21842.85	21289.85
790.8648	91.2148	26383.6	25813.05
791.006	93.4717	28556.05	27978.55
791.1472	95.7282	29150.65	28567.55
791.2885	97.9842	29149.95	28566.25
791.4297	100.2398	28690.65	28105.5
791.571	102.4949	28123	27533.7
791.7123	104.7495	27366.25	26771.25
791.8536	107.0036	26568.85	25974.25
791.9949	109.2573	25755.5	25162.05
792.1363	111.5105	24901.7	24303.75
792.2777	113.7632	24075	23479.25
792.4191	116.0154	23350.35	22743.45
792.5605	118.2672	22850.95	22250
792.7019	120.5185	22228.65	21630.5
792.8434	122.7693	21804.3	21200.95
792.9849	125.0197	21467.55	20859.75
793.1264	127.2696	21166.3	20557.1
793.2679	129.519	20994.35	20381.75
793.4094	131.7679	20785.05	20169
793.551	134.0163	20719.05	20103.35
793.6926	136.2642	20539.25	19916.7
793.8342	138.5117	20363.05	19732.05
793.9758	140.7587	20189.35	19560.05
794.1175	143.0052	20001.75	19372.55
794.2591	145.2512	19790.55	19158.95
794.4008	147.4967	19594.5	18962.8
794.5425	149.7417	19433.5	18800.6
794.6842	151.9863	19317.25	18680.3
794.826	154.2304	19261.4	18620.95
794.9677	156.4739	19097.45	18453.55
795.1095	158.717	19028.55	18386.65
795.2513	160.9596	18887.6	18237.4
795.3931	163.2017	18618.55	17968.35
795.535	165.4433	18321.9	17673.05
795.6768	167.6844	17938.35	17283.85
795.8187	169.925	17593.7	16938.4
795.9606	172.1651	17195.3	16533.6
796.1025	174.4047	16868.45	16204.55
796.2445	176.6439	16564.1	15896.9
796.3864	178.8825	16286.8	15617.85
796.5284	181.1206	16087.6	15413.95
796.6704	183.3582	15858.4	15182.1
796.8124	185.5954	15740.05	15063.85
796.9544	187.832	15630.55	14949.35
797.0965	190.0681	15572.3	14892.55
797.2386	192.3037	15540.7	14856.3
797.3806	194.5388	15518.15	14829.55
797.5228	196.7734	15541.25	14851.05
797.6649	199.0075	15619.45	14927.3
797.807	201.2411	15734.4	15037.85
797.9492	203.4742	15777.3	15081.9
798.0914	205.7068	15902.85	15204.05
798.2336	207.9389	15971.55	15272.45
798.3758	210.1704	16146	15444.45
798.518	212.4015	16268.25	15561.05
798.6603	214.632	16459.55	15753.3
798.8025	216.862	16640	15944.45
798.9448	219.0915	16805.55	16116.05
799.0871	221.3205	17066.2	16379.1
799.2294	223.549	17379.5	16695.65
799.3718	225.777	17739.9	17057.9
799.5141	228.0044	18203.55	17518.1
799.6565	230.2314	18794.3	18110.55
799.7989	232.4578	19303.45	18620.9
799.9413	234.6837	19748.4	19052.3
800.0837	236.909	20045.15	19356.15
800.2262	239.1339	19998.3	19279.95
800.3687	241.3582	19707.2	19006.1
800.5111	243.582	19316.3	18588.2
800.6536	245.8053	18820.95	18098.65
800.7961	248.0281	18326.7	17609.2
800.9387	250.2503	17965.25	17245.15
801.0812	252.472	17727.5	17001.5
801.2238	254.6932	17585.35	16855.65
801.3664	256.9139	17431.05	16701.65
801.509	259.134	17308.3	16576.9
801.6516	261.3536	17175.4	16444.6
801.7942	263.5727	17119	16384.6
801.9369	265.7912	16985.5	16251.85
802.0795	268.0092	16926.9	16195.95
802.2222	270.2267	16806.65	16073.95
802.3649	272.4436	16742.85	16009.2
802.5076	274.6601	16634.25	15889.15
802.6504	276.8759	16565.25	15827.4
802.7931	279.0913	16574	15835.3
802.9359	281.3061	16596.85	15858.5
803.0787	283.5204	16695.3	15955.15
803.2215	285.7341	16831.55	16084
803.3643	287.9473	17032.65	16284.3
803.5071	290.16	17330.7	16577.25
803.6499	292.3721	17725.25	16978.55
803.7928	294.5837	18196.25	17447.35
803.9357	296.7947	18572.9	17826.95
804.0786	299.0052	18851.65	18105.3
804.2215	301.2152	18693.9	17942.65
804.3644	303.4246	18274.45	17529.65
804.5074	305.6334	17592.25	16844.7
804.6503	307.8418	17034.35	16283.7
804.7933	310.0495	16566	15814.6
804.9363	312.2568	16226.3	15474.65
805.0793	314.4635	15990.3	15234.7
805.2223	316.6696	15891.1	15135.65
805.3653	318.8752	15888.4	15127.5
805.5084	321.0802	15961.7	15205.7
805.6514	323.2847	16091.85	15332.85
805.7945	325.4887	16129.2	15371.25
805.9376	327.692	16069	15311.9
806.0807	329.8949	15963.7	15202.5
806.2238	332.0972	15655.6	14890.25
806.367	334.2989	15383.6	14618.05
806.5101	336.5001	15025.05	14258.5
806.6533	338.7007	14778.8	14015.3
806.7965	340.9008	14660.75	13894.7
806.9397	343.1003	14514.55	13745.55
807.0829	345.2992	14449.7	13681.35
807.2261	347.4976	14407.2	13636.35
807.3693	349.6955	14430.2	13654.75
807.5126	351.8927	14452.35	13677.15
807.6559	354.0895	14448.85	13663.3
807.7991	356.2856	14505.5	13728.35
807.9424	358.4812	14489.5	13712.25
808.0857	360.6763	14488.2	13709.9
808.2291	362.8707	14461.35	13683.45
808.3724	365.0646	14489.65	13705
808.5158	367.258	14485.15	13700.55
808.6591	369.4508	14479.75	13694.05
808.8025	371.643	14504.45	13718.05
808.9459	373.8346	14453.8	13660.95
809.0893	376.0257	14433.25	13636.85
809.2327	378.2162	14311.55	13521
809.3762	380.4062	14181.15	13387.05
809.5196	382.5956	14008.45	13212.65
809.6631	384.7844	13925.75	13130.95
809.8066	386.9726	13791.4	12994.9
809.9501	389.1603	13714.85	12921.25
810.0936	391.3474	13678.15	12843
810.2371	393.5339	13679.75	12886.85
810.3806	395.7199	13581.05	12793.85
810.5241	397.9052	13574.85	12787.8
810.6677	400.09	13569.25	12783.15
810.8113	402.2743	13630.05	12842.75
810.9548	404.4579	13621.25	12834.9
811.0984	406.641	13770.15	12986.2
811.2421	408.8235	14010.4	13225.65
811.3857	411.0054	14383.25	13596.05
811.5293	413.1868	14895.65	14103.55
811.673	415.3675	15310.55	14516.2
811.8166	417.5477	15556.2	14765.15
811.9603	419.7273	15625.75	14827.55
812.104	421.9064	15523.25	14719.4
812.2477	424.0848	15357.3	14555.5
812.3914	426.2627	15089.55	14287.2
812.5351	428.4399	14745.9	13941.7
812.6788	430.6166	14354	13546.3
812.8226	432.7928	13943.35	13135.05
812.9663	434.9683	13627.95	12821.2
813.1101	437.1432	13370.65	12562.1
813.2539	439.3176	13191.2	12381
813.3977	441.4914	13049.85	12239.9
813.5415	443.6645	12997	12183.7
813.6853	445.8371	12920.8	12108.3
813.8291	448.0091	12835.15	12027.5
813.973	450.1806	12784.15	11970.8
814.1168	452.3514	12692.45	11874.55
814.2607	454.5216	12683.85	11860.45
814.4046	456.6913	12620.65	11807
814.5485	458.8603	12655.1	11841.1
814.6924	461.0288	12673.85	11862.55
814.8363	463.1967	12729.3	11912.85
814.9802	465.3639	12851.75	12033.9
815.1241	467.5306	12971.25	12154.4
815.2681	469.6967	13164.8	12347.8
815.412	471.8622	13376.2	12558.25
815.556	474.0271	13540.15	12723.95
815.7	476.1914	13625.4	12806.6
815.844	478.3551	13568.15	12752.55
815.988	480.5182	13517.05	12697.55
816.132	482.6807	13455.5	12635.9
816.276	484.8426	13496.4	12678.5
816.4201	487.0039	13741	12919.7
816.5641	489.1647	14141.1	13319.6
816.7082	491.3248	14629.55	13808.75
816.8522	493.4843	14862.2	14042.25
816.9963	495.6432	14865.7	14045.9
817.1404	497.8015	14796	13971.6
817.2845	499.9592	14845.05	14023.55
817.4286	502.1163	14836	14013.95
817.5727	504.2728	14599.75	13772.3
817.7168	506.4287	14270	13444.7
817.861	508.5839	13768.1	12943.7
818.0051	510.7386	13405.25	12581.4
818.1493	512.8927	13141.35	12310.1
818.2935	515.0461	12939.55	12113.8
818.4377	517.199	12811.9	11989.05
818.5818	519.3512	12699.8	11872.1
818.726	521.5029	12693.25	11858.8
818.8703	523.6539	12688.85	11856.9
819.0145	525.8043	12717.6	11889.4
819.1587	527.9541	12739.15	11910.55
819.303	530.1033	12805.15	11973.4
819.4472	532.2519	12854.35	12022.2
819.5915	534.3999	13026.65	12191.8
819.7357	536.5472	13353.45	12518.3
819.88	538.694	13928.1	13096.15
820.0243	540.8401	14611.55	13782.5
820.1686	542.9856	15251.1	14414.7
820.3129	545.1305	15466.2	14628.45
820.4572	547.2748	15266.85	14430.9
820.6016	549.4185	14841.45	14003.7
820.7459	551.5615	14384.4	13549.8
820.8902	553.704	14148.35	13313.1
821.0346	555.8458	13999.95	13163.85
821.1789	557.987	13938.95	13104.2
821.3233	560.1276	13842.4	13005.65
821.4677	562.2675	13682	12847.65
821.6121	564.4069	13519.9	12685.15
821.7565	566.5456	13347.25	12513.1
821.9009	568.6837	13211.6	12378.2
822.0453	570.8212	12971.45	12135.85
822.1897	572.958	12744.6	11906.9
822.3342	575.0942	12573	11738.15
822.4786	577.2299	12416.5	11581.4
822.6231	579.3648	12443.35	11605.9
822.7675	581.4992	12533.4	11693.95
822.912	583.6329	12800.75	11962.45
823.0565	585.766	13059.3	12222.4
823.201	587.8985	13201.95	12366.35
823.3454	590.0304	13176.2	12327.1
823.4899	592.1616	13110.4	12269.1
823.6345	594.2922	13010.15	12168.7
823.779	596.4222	12836.1	11996.35
823.9235	598.5515	12677.9	11838.65
824.068	600.6802	12467.55	11626.7
824.2126	602.8083	12293.7	11452.4
824.3571	604.9358	12174.1	11332.45
824.5017	607.0626	12067.65	11225.65
824.6462	609.1888	11980.3	11136.15
824.7908	611.3144	11858.9	11015.1
824.9354	613.4393	11664.85	10821.45
825.08	615.5636	11476.75	10633.85
825.2246	617.6873	11357.1	10514.3
825.3692	619.8103	11273.75	10429.55
825.5138	621.9327	11198.3	10353.15
825.6584	624.0544	11174.2	10331.8
825.803	626.1756	11168.55	10326.8
825.9477	628.2961	11148.2	10302.15
826.0923	630.4159	11105	10259.75
826.237	632.5351	11038.45	10191
826.3816	634.6537	10947.9	10102.4
826.5263	636.7716	10914.25	10067.6
826.6709	638.8889	10879.7	10033.35
826.8156	641.0056	10907.6	10061.05
826.9603	643.1216	10883.65	10035.8
827.105	645.237	10900.9	10053.25
827.2497	647.3518	10928.85	10079.55
827.3944	649.4659	10924.8	10075.75
827.5391	651.5793	10947.85	10099.35
827.6838	653.6922	10926.5	10078.35
827.8285	655.8043	10876.5	10027.45
827.9733	657.9159	10856.05	10005.65
828.118	660.0268	10759.95	9910.4
828.2627	662.137	10680.15	9830.65
828.4075	664.2466	10626.35	9772.75
828.5522	666.3556	10606.35	9755.6
828.697	668.4639	10574.75	9720.45
828.8418	670.5716	10649.2	9798.6
828.9865	672.6786	10720.65	9868.85
829.1313	674.785	10803.4	9951.8
829.2761	676.8907	10864.95	10013.1
829.4209	678.9958	10949.45	10097.8
829.5657	681.1002	10953.75	10098.55
829.7105	683.204	10911.05	10053.55
829.8553	685.3072	10832.25	9976.45
830.0001	687.4097	10764.95	9910.25
830.1449	689.5115	10667.55	9809.9
830.2898	691.6127	10575.85	9721.8
830.4346	693.7132	10488.85	9633.55
830.5794	695.8131	10409.05	9532.4
830.7243	697.9123	10327	9469.5
830.8691	700.0109	10275.7	9419.15
831.014	702.1089	10247.35	9392.65
831.1588	704.2061	10257.95	9401.85
831.3037	706.3028	10276.25	9420.65
831.4486	708.3987	10315.45	9461.75
831.5935	710.4941	10412	9556.25
831.7383	712.5887	10609.3	9753.6
831.8832	714.6827	10934.9	10074.65
832.0281	716.7761	11354.6	10497.6
832.173	718.8688	11782.95	10925.4
832.3179	720.9608	11983.9	11123.25
832.4628	723.0522	11999.5	11142.15
832.6077	725.1429	11746.8	10889
832.7527	727.233	11340.5	10482.2
832.8976	729.3224	10948	10087.2
833.0425	731.4112	10579.15	9718.1
833.1874	733.4993	10322.4	9460.55
833.3324	735.5867	10182.35	9319.3
833.4773	737.6735	10072.1	9212.05
833.6222	739.7596	10032.85	9171.95
833.7672	741.845	9975.9	9116.2
833.9122	743.9298	9971.85	9108
834.0571	746.014	9964.15	9102.2
834.2021	748.0974	9965	9103.1
834.347	750.1802	9964.95	9103.65
834.492	752.2624	9968.05	9105.85
834.637	754.3439	9999.4	9136.3
834.782	756.4247	10043.1	9174.95
834.9269	758.5048	10119.4	9258.7
835.0719	760.5843	10286.85	9423.8
835.2169	762.6631	10570.15	9709.95
835.3619	764.7413	10969.5	10109.15
835.5069	766.8188	11542.85	10680.35
835.6519	768.8956	12059.5	11195.05
835.7969	770.9718	12377.05	11515
835.9419	773.0473	12268.45	11408.25
836.0869	775.1221	11928.95	11066.35
836.232	777.1962	11532.2	10668.9
836.377	779.2697	11346.6	10484.6
836.522	781.3426	11399.5	10518.15
836.667	783.4147	11689.15	10828
836.8121	785.4862	12014.25	11150.8
836.9571	787.557	12051.8	11188.85
837.1021	789.6271	11710.35	10847.35
837.2472	791.6966	11134.95	10271.3
837.3922	793.7654	10593.65	9729.85
837.5373	795.8335	10249.3	9384.2
837.6823	797.901	10018.35	9157.5
837.8274	799.9678	9968.7	9101.9
837.9724	802.0339	9970.2	9108.05
838.1175	804.0993	10044.45	9169.55
838.2626	806.1641	10010.95	9146.2
838.4076	808.2282	9927.95	9064.4
838.5527	810.2916	9812.3	8945.35
838.6978	812.3544	9722.3	8858.4
838.8428	814.4164	9639.25	8775.65
838.9879	816.4778	9593.65	8726.45
839.133	818.5385	9567.05	8704.65
839.2781	820.5986	9590.35	8725.55
839.4232	822.658	9629.65	8764.85
839.5682	824.7166	9664.85	8798.65
839.7133	826.7747	9780.75	8915
839.8584	828.832	9861.15	8997.15
840.0035	830.8886	9980.1	9113.2
840.1486	832.9446	10112.7	9246.5
840.2937	834.9999	10206.7	9343.15
840.4388	837.0545	10308.95	9437.35
840.5839	839.1085	10372.75	9505.15
840.729	841.1618	10387.3	9514.7
840.8741	843.2143	10376.35	9508.65
841.0192	845.2662	10317.55	9451.5
841.1643	847.3175	10286.8	9421.25
841.3095	849.368	10171.7	9304.75
841.4546	851.4179	10040.55	9174.65
841.5997	853.467	9869.2	9003.25
841.7448	855.5155	9721.9	8855.8
841.8899	857.5633	9615	8746.7
842.0351	859.6105	9477.8	8611.05
842.1802	861.6569	9402.15	8534.8
842.3253	863.7027	9334.4	8465.5
842.4704	865.7478	9295.6	8427.45
842.6156	867.7922	9312.3	8444.9
842.7607	869.8359	9351	8481.25
842.9058	871.8789	9487.7	8619.75
843.0509	873.9212	9681.15	8777.2
843.1961	875.9629	9842.15	8973.6
843.3412	878.0039	10012.65	9142.9
843.4863	880.0441	10121.15	9251.6
843.6315	882.0837	10138.2	9267.95
843.7766	884.1226	10012.6	9142.3
843.9218	886.1609	9798	8929.05
844.0669	888.1984	9633.05	8763.5
844.212	890.2352	9594.8	8728.55
844.3572	892.2714	9511.8	8639.3
844.5023	894.3069	9450.95	8579
844.6475	896.3416	9380.3	8509.1
844.7926	898.3757	9379.2	8509.1
844.9377	900.4091	9367.45	8493.5
845.0829	902.4418	9399.2	8524.25
845.228	904.4739	9379.4	8504.65
845.3732	906.5052	9347.9	8478.05
845.5183	908.5358	9230.6	8359.65
845.6635	910.5658	9071.5	8200.25
845.8086	912.595	8904.85	8035.15
845.9538	914.6236	8782.4	7912.05
846.0989	916.6515	8751.3	7882.75
846.2441	918.6786	8719.7	7847.9
846.3892	920.7051	8811.95	7938.75
846.5344	922.7309	8935.75	8065.7
846.6795	924.756	8981.85	8109.45
846.8246	926.7804	9047.3	8174.7
846.9698	928.8041	9026.45	8156.15
847.1149	930.8272	9063	8190.15
847.2601	932.8495	8961.8	8087.35
847.4052	934.8711	8886.6	8012.9
847.5504	936.892	8736.15	7863.15
847.6955	938.9123	8561.35	7688.65
847.8407	940.9318	8395.65	7523.2
847.9858	942.9506	8238.7	7364.65
848.131	944.9688	8163.75	7291.95
848.2761	946.9862	8128.4	7258
848.4213	949.003	8049.55	7175.75
848.5664	951.019	8067.9	7194.4
848.7115	953.0344	8103.75	7229.05
848.8567	955.0491	8135.7	7259.65
849.0018	957.063	8199.25	7325.75
849.147	959.0763	8302.5	7431.2
849.2921	961.0888	8360.15	7485.15
849.4373	963.1007	8460.9	7587.8
849.5824	965.1119	8500.25	7626.4
849.7275	967.1223	8496.9	7625.3
849.8727	969.1321	8539.05	7668.75
850.0178	971.1412	8582.15	7709.9
850.1629	973.1495	8613.95	7740.25
850.3081	975.1572	8671.55	7757.8
850.4532	977.1641	8659.85	7785.95
850.5983	979.1704	8644.65	7770.6
850.7435	981.1759	8624.85	7746.2
850.8886	983.1808	8716.05	7841.7
851.0337	985.1849	8811.55	7923.45
851.1788	987.1884	8986.2	8110.05
851.324	989.1911	9176.6	8300.05
851.4691	991.1932	9333.5	8457.95
851.6142	993.1945	9413.15	8540.35
851.7593	995.1951	9393.1	8521.5
851.9045	997.1951	9326.25	8448.2
852.0496	999.1943	9242.45	8368.4
852.1947	1001.1928	9209.05	8334.55
852.3398	1003.1906	9164.75	8290.35
852.4849	1005.1877	9196.35	8320
852.63	1007.1841	9159.1	8280.8
852.7751	1009.1798	9050.2	8174.45
852.9202	1011.1748	8840.65	7964.95
853.0653	1013.1691	8623.85	7746.35
853.2104	1015.1627	8410.45	7536
853.3555	1017.1556	8219.7	7345.1
853.5006	1019.1477	8110.2	7235.3
853.6457	1021.1392	8049.45	7178.95
853.7908	1023.1299	8051.5	7175.6
853.9359	1025.12	8065.85	7189.45
854.081	1027.1093	8137.4	7263.3
854.2261	1029.0979	8205.05	7329.05
854.3712	1031.0859	8263.95	7389.95
854.5163	1033.0731	8259.7	7381.25
854.6613	1035.0596	8187.05	7315.5
854.8064	1037.0454	8048.55	7173.15
854.9515	1039.0304	7918.3	7041.7
855.0965	1041.0148	7807.35	6932.7
855.2416	1042.9985	7710.15	6831.45
855.3867	1044.9814	7672.9	6798.5
855.5317	1046.9636	7621.25	6743.5
855.6768	1048.9452	7576.5	6703.55
855.8219	1050.926	7559.2	6681.6
855.9669	1052.9061	7541.55	6667.35
856.112	1054.8855	7543.25	6667.1
856.257	1056.8642	7579.25	6705.35
856.4021	1058.8421	7629.25	6748.9
856.5471	1060.8194	7647.15	6770.3
856.6921	1062.7959	7676	6799.15
856.8372	1064.7717	7668.15	6790.65
856.9822	1066.7469	7666.5	6789.65
857.1272	1068.7213	7635.45	6755.35
857.2723	1070.695	7595.85	6720.5
857.4173	1072.6679	7515.1	6636.95
857.5623	1074.6402	7469.45	6592.9
857.7073	1076.6117	7466.55	6586.95
857.8523	1078.5826	7471.05	6595.6
857.9973	1080.5527	7540.3	6659.2
858.1423	1082.5221	7706.45	6830.5
858.2873	1084.4908	7948.55	7070.2
858.4323	1086.4587	8169.05	7289.5
858.5773	1088.426	8344.25	7465.65
858.7223	1090.3925	8361.6	7480.1
858.8673	1092.3584	8268.65	7392.25
859.0123	1094.3235	8091.8	7216.05
859.1573	1096.2879	7997.6	7120.6
859.3022	1098.2515	7910.35	7033.9
859.4472	1100.2145	7939.7	7063.85
859.5922	1102.1767	7991.35	7111.5
859.7371	1104.1382	8153.1	7273.9
859.8821	1106.099	8352.4	7473.55
860.027	1108.0591	8561.45	7683.55
860.172	1110.0185	8694.95	7816.8
860.3169	1111.9771	8708.6	7832.3
860.4619	1113.9351	8489.05	7609.9
860.6068	1115.8923	8130.45	7253.4
860.7517	1117.8488	7806.85	6929.9
860.8967	1119.8045	7515.1	6637
861.0416	1121.7596	7343.3	6464.55
861.1865	1123.7139	7265.35	6388.8
861.3314	1125.6675	7270.15	6391.3
861.4763	1127.6204	7337.35	6459.4
861.6212	1129.5726	7372.55	6491.25
861.7661	1131.524	7383.3	6507.35
861.911	1133.4748	7442.65	6563.7
862.0559	1135.4248	7467	6586.35
862.2008	1137.3741	7499.9	6621.85
862.3457	1139.3226	7474.5	6593.5
862.4905	1141.2705	7450.5	6573.05
862.6354	1143.2176	7383.2	6502.4
862.7803	1145.164	7394.3	6512.95
862.9251	1147.1097	7433.3	6556.4
863.07	1149.0546	7421.55	6541.45
863.2148	1150.9989	7323.55	6441.9
863.3597	1152.9424	7130.95	6253.6
863.5045	1154.8852	6935.15	6055.45
863.6493	1156.8272	6779.2	5904.2
863.7942	1158.7686	6705.25	5819.05
863.939	1160.7092	6655.45	5777.05
864.0838	1162.6491	6649.55	5768.5
864.2286	1164.5883	6689.75	5812.35
864.3734	1166.5267	6780.35	5899.3
864.5182	1168.4644	6925.1	6045.85
864.663	1170.4014	7107.25	6223.85
864.8078	1172.3377	7315.8	6440.25
864.9526	1174.2732	7538.1	6658.1
865.0974	1176.2081	7737.25	6858.95
865.2421	1178.1421	7932.65	7048.55
865.3869	1180.0755	8044	7166.4
865.5317	1182.0082	8059.95	7179.95
865.6764	1183.9401	7979.75	7098.2
865.8212	1185.8713	7773.95	6895.9
865.9659	1187.8017	7518.1	6640.45
866.1106	1189.7315	7262.65	6382.4
866.2554	1191.6605	7043.95	6136.95
866.4001	1193.5888	6833.3	5954.45
866.5448	1195.5163	6682.8	5802.7
866.6895	1197.4432	6588.9	5707.05
866.8342	1199.3693	6502.65	5622.5
866.9789	1201.2947	6453.95	5571.25
867.1236	1203.2193	6429.75	5549.85
867.2683	1205.1432	6462.75	5582.95
867.413	1207.0664	6530.1	5651.25
867.5576	1208.9889	6610.85	5729.1
867.7023	1210.9106	6700.2	5821.05
867.847	1212.8316	6783.2	5905.05
867.9916	1214.7519	6890.3	6001.65
868.1363	1216.6715	6900.35	6022.2
868.2809	1218.5903	6860.65	5979.9
868.4255	1220.5084	6805.3	5926.2
868.5701	1222.4257	6772.85	5893.35
868.7148	1224.3424	6727.6	5850.4
868.8594	1226.2583	6795.45	5911
869.004	1228.1735	6871.75	5992.55
869.1486	1230.0879	7039.95	6160.25
869.2932	1232.0016	7160.95	6282.2
869.4377	1233.9146	7199.65	6317.1
869.5823	1235.8269	7111.65	6230.1
869.7269	1237.7384	6986	6107.15
869.8715	1239.6492	6789.6	5909.95
870.016	1241.5592	6687.35	5806.8
870.1606	1243.4686	6588.85	5708.4
870.3051	1245.3772	6519.4	5639.25
870.4496	1247.285	6451.1	5570.4
870.5941	1249.1922	6409.2	5530.2
870.7387	1251.0986	6411.3	5532.75
870.8832	1253.0042	6423.75	5543.3
871.0277	1254.9092	6485.8	5605.45
871.1722	1256.8134	6583.35	5703.45
871.3167	1258.7169	6741.1	5859.1
871.4611	1260.6196	6888.4	6009.35
871.6056	1262.5216	7068.65	6185.65
871.7501	1264.4229	7204	6324.95
871.8945	1266.3234	7327.8	6447.3
872.039	1268.2232	7363.5	6480.5
872.1834	1270.1223	7346.95	6464.85
872.3278	1272.0207	7320.8	6441.45
872.4723	1273.9183	7287.05	6401.65
872.6167	1275.8151	7204.75	6325.8
872.7611	1277.7113	7111.05	6229.25
872.9055	1279.6067	6944.5	6063.65
873.0499	1281.5014	6797.45	5913.4
873.1943	1283.3953	6662.05	5779.75
873.3386	1285.2885	6531.2	5651.65
873.483	1287.181	6470.9	5591.1
873.6274	1289.0727	6462.25	5583.35
873.7717	1290.9637	6498.95	5617.7
873.9161	1292.854	6607.25	5728.55
874.0604	1294.7435	6778.8	5899.5
874.2047	1296.6323	6972.05	6090.05
874.349	1298.5204	7235.9	6353.35
874.4933	1300.4077	7494.15	6610.95
874.6376	1302.2943	7708.7	6830.05
874.7819	1304.1802	7794.7	6916.25
874.9262	1306.0653	7756.5	6873.8
875.0705	1307.9497	7652.45	6774.3
875.2147	1309.8333	7572.65	6694.7
875.359	1311.7162	7552.15	6671
875.5032	1313.5984	7659.35	6777.7
875.6475	1315.4798	7811.3	6919.85
875.7917	1317.3605	7983	7087.5
875.9359	1319.2405	8179.8	7297.45
876.0801	1321.1197	8214.05	7331.75
876.2243	1322.9982	8162.35	7278.35
876.3685	1324.876	8177.6	7295.95
876.5127	1326.753	8141.85	7259.4
876.6569	1328.6293	8176.3	7293.85
876.801	1330.5048	8218.9	7333.65
876.9452	1332.3796	8163.85	7284.1
877.0893	1334.2537	8135.9	7228.35
877.2335	1336.127	8099.2	7216.15
877.3776	1337.9996	8045.45	7163.55
877.5217	1339.8714	7990.8	7108.8
877.6658	1341.7426	7961.45	7039
877.8099	1343.6129	7855.65	6975.15
877.954	1345.4826	7789.95	6910.55
878.0981	1347.3515	7758	6872.8
878.2422	1349.2196	7689.85	6807.9
878.3862	1351.087	7651.65	6769.9
878.5303	1352.9537	7740.7	6859.3
878.6743	1354.8197	7820.3	6939.5
878.8184	1356.6849	7991.95	7110.15
878.9624	1358.5493	8045.25	7162.55
879.1064	1360.4131	8069.05	7187.55
879.2504	1362.276	7990.8	7109.45
879.3944	1364.1383	7841.8	6961.1
879.5384	1365.9998	7619	6732.85
879.6823	1367.8606	7331.2	6449.65
879.8263	1369.7206	7101.7	6217.85
879.9702	1371.5799	6936.65	6053.4
880.1142	1373.4384	6820.95	5938.6
880.2581	1375.2962	6689.65	5806.3
880.402	1377.1533	6468.4	5586.8
880.5459	1379.0096	6178.95	5296.55
880.6898	1380.8652	5900.55	5019.8
880.8337	1382.7201	5692.85	4812.5
880.9776	1384.5742	5498.85	4615.65
881.1215	1386.4275	5335.2	4451.9
881.2653	1388.2802	5226.2	4346.85
881.4092	1390.132	5148.35	4266.9
881.553	1391.9832	5068.35	4185.2
881.6968	1393.8336	5015.45	4133.45
881.8406	1395.6832	4977.65	4093.25
881.9844	1397.5322	4958.9	4077.9
882.1282	1399.3803	4927.55	4039.8
882.272	1401.2278	4923.5	4039.9
882.4158	1403.0745	4908.8	4027.05
882.5595	1404.9204	4914.9	4035.75
882.7033	1406.7656	4945.95	4062.55
882.847	1408.6101	4953.85	4071.2
882.9908	1410.4538	4969.95	4087.05
883.1345	1412.2968	5011.55	4128.25
883.2782	1414.139	5065.9	4184.75
883.4219	1415.9805	5161	4278.5
883.5656	1417.8213	5255.65	4365.2
883.7092	1419.6613	5398.05	4516.95
883.8529	1421.5006	5588.75	4706.1
883.9965	1423.3391	5846.8	4963.1
884.1402	1425.1769	6235.85	5354.9
884.2838	1427.0139	6750.45	5868.6
884.4274	1428.8502	7375	6491.5
884.571	1430.6858	7987.4	7104.85
884.7146	1432.5206	8452.25	7571.4
884.8582	1434.3547	8762.6	7879.65
885.0018	1436.188	8812.4	7931.2
885.1453	1438.0206	8751.8	7869.45
885.2889	1439.8524	8639.35	7758.9
885.4324	1441.6835	8529.65	7647
885.5759	1443.5139	8419.1	7533.9
885.7194	1445.3435	8367.45	7484.05
885.8629	1447.1724	8312.2	7431.65
886.0064	1449.0005	8235.65	7355.25
886.1499	1450.8279	8155.75	7272.95
886.2933	1452.6545	8106.5	7225.2
886.4368	1454.4804	8141.6	7260.5
886.5802	1456.3056	8120.95	7231.45
886.7237	1458.13	8013.2	7130.65
886.8671	1459.9536	7795.7	6912.6
887.0105	1461.7766	7423.85	6541.65
887.1539	1463.5987	7003.5	6117.95
887.2972	1465.4202	6593.85	5711.9
887.4406	1467.2409	6251.9	5371.4
887.584	1469.0608	5955.3	5073.45
887.7273	1470.88	5695.2	4814.1
887.8706	1472.6984	5466.3	4585.15
888.0139	1474.5161	5270.6	4387
888.1572	1476.3331	5124.75	4243
888.3005	1478.1493	4966.7	4084.3
888.4438	1479.9648	4876.95	3997.1
888.5871	1481.7795	4758.2	3877.15
888.7303	1483.5935	4700.5	3818.8
888.8736	1485.4067	4630.75	3748.7
889.0168	1487.2192	4587.05	3704.6
889.16	1489.031	4544.95	3661.35
889.3032	1490.842	4503.45	3622.3
889.4464	1492.6522	4480.55	3598.7
889.5896	1494.4618	4462.4	3579.2
889.7327	1496.2705	4428.1	3544
889.8759	1498.0785	4378.9	3495.4
890.019	1499.8858	4383.9	3501.35
890.1622	1501.6924	4374	3493.2
890.3053	1503.4981	4353.7	3472.6
890.4484	1505.3032	4331.8	3449.5
890.5914	1507.1075	4317.55	3436.3
890.7345	1508.911	4284.45	3403.75
890.8776	1510.7138	4268.4	3385.25
891.0206	1512.5159	4222.65	3339.25
891.1637	1514.3172	4188.1	3305.5
891.3067	1516.1178	4145.4	3264.9
891.4497	1517.9176	4142.65	3256.35
891.5927	1519.7166	4115.7	3236.4
891.7357	1521.515	4102.95	3215
891.8786	1523.3126	4086.45	3202.85
892.0216	1525.1094	4062.65	3179.85
892.1645	1526.9055	4035.55	3154.2
892.3074	1528.7008	4016.45	3133.55
892.4503	1530.4954	4015.1	3127.05
892.5932	1532.2893	4000	3118
892.7361	1534.0824	3988.2	3100.65
892.879	1535.8747	3994.55	3114
893.0218	1537.6663	3972.75	3092.25
893.1647	1539.4572	3948.5	3064.05
893.3075	1541.2473	3954.8	3070.75
893.4503	1543.0367	3953.7	3072.8
893.5931	1544.8253	3950.55	3064.1
893.7359	1546.6132	3955.9	3070.9
893.8787	1548.4003	3965.2	3074.6
894.0214	1550.1867	3980.05	3086.5
894.1642	1551.9723	3998.7	3111.45
894.3069	1553.7572	4001.5	3117.65
894.4496	1555.5414	4029.05	3144.75
894.5923	1557.3247	4060.7	3178.2
894.735	1559.1074	4107.35	3226.05
894.8777	1560.8893	4163.9	3283.55
895.0204	1562.6705	4219.2	3336.9
895.163	1564.4509	4281.9	3399.25
895.3056	1566.2305	4367.95	3487.35
895.4482	1568.0094	4481.85	3600.8
895.5908	1569.7876	4552	3667
895.7334	1571.565	4634.95	3751.8
895.876	1573.3417	4673.8	3791.15
896.0186	1575.1176	4703.8	3823.95
896.1611	1576.8928	4669.9	3787.95
896.3036	1578.6672	4607.4	3725.05
896.4461	1580.4409	4483.45	3604.95
896.5886	1582.2138	4360.2	3472.55
896.7311	1583.986	4235.6	3354.05
896.8736	1585.7575	4140.25	3258.1
897.0161	1587.5282	4088.55	3209
897.1585	1589.2981	4011.45	3130.4
897.3009	1591.0673	3945.9	3061.55
897.4433	1592.8358	3943.15	3063.5
897.5857	1594.6035	3929.1	3046.4
897.7281	1596.3704	3925.3	3047
897.8705	1598.1366	3949.9	3068.4
898.0128	1599.9021	3956.35	3074.95
898.1551	1601.6668	3979.4	3094.85
898.2975	1603.4308	4030.15	3148.95
898.4398	1605.194	4092.45	3204.2
898.5821	1606.9564	4177.75	3295.85
898.7243	1608.7182	4293	3407.15
898.8666	1610.4791	4417.3	3536.4
899.0088	1612.2394	4550.55	3667.65
899.1511	1613.9988	4752.1	3871.85
899.2933	1615.7576	4973.55	4091.85
899.4355	1617.5156	5225	4337.85
899.5776	1619.2728	5466.55	4585.4
899.7198	1621.0293	5642.05	4760.4
899.862	1622.785	5730.6	4847.3
900.0041	1624.54	5710.8	4824.5
900.1462	1626.2942	5563.85	4679.85
900.2883	1628.0477	5339.65	4454.85
900.4304	1629.8005	5091.55	4206.5
900.5725	1631.5525	4856.9	3974.4
900.7145	1633.3037	4651.35	3770.6
900.8566	1635.0542	4482.05	3601.55
900.9986	1636.804	4353.65	3470.45
901.1406	1638.553	4325.1	3362.5
901.2826	1640.3013	4191.7	3307.3
901.4245	1642.0488	4151.85	3270.4
901.5665	1643.7955	4129.9	3249
901.7085	1645.5416	4156.9	3274.45
901.8504	1647.2868	4214.2	3334.3
901.9923	1649.0313	4298.3	3416.95
902.1342	1650.7751	4450.1	3564.15
902.2761	1652.5181	4614.5	3734.2
902.4179	1654.2604	4835.6	3953.9
902.5598	1656.0019	5180.35	4300.75
902.7016	1657.7427	5547.25	4664.8
902.8434	1659.4828	5884.9	5003.8
902.9852	1661.222	6134.3	5250.6
903.127	1662.9606	6199.5	5318.65
903.2687	1664.6984	6071.7	5190.55
903.4105	1666.4354	5734	4852.85
903.5522	1668.1717	5293.65	4413.35
903.6939	1669.9072	4857.2	3976.75
903.8356	1671.642	4484.05	3601.15
903.9773	1673.3761	4182.45	3302.35
904.119	1675.1094	3961.9	3084.45
904.2606	1676.8419	3782.95	2902
904.4022	1678.5737	3646.6	2767.3
904.5439	1680.3048	3548.7	2666
904.6855	1682.0351	3466	2584.75
904.827	1683.7646	3422.7	2537
904.9686	1685.4934	3377.55	2494.65
905.1101	1687.2215	3330.85	2448.85
905.2517	1688.9488	3294.05	2412.75
905.3932	1690.6754	3264.9	2385.2
905.5347	1692.4012	3246.05	2366.5
905.6761	1694.1263	3248.2	2366.5
905.8176	1695.8506	3221.05	2341.2
905.9591	1697.5742	3197.05	2315.1
906.1005	1699.297	3174.6	2293.7
906.2419	1701.0191	3157.4	2276.45
906.3833	1702.7404	3136.9	2256.3
906.5246	1704.461	3124.45	2241.85
906.666	1706.1808	3107.35	2222.55
906.8073	1707.8999	3094.45	2213.95
906.9487	1709.6182	3075.45	2194.05
907.09	1711.3358	3061.45	2180.65
907.2313	1713.0527	3045.15	2165.75
907.3725	1714.7688	3043.2	2156.15
907.5138	1716.4841	3024.85	2142.55
907.655	1718.1987	3027.65	2140.75
907.7962	1719.9126	3003.35	2124.2
907.9374	1721.6257	2990.95	2108
908.0786	1723.338	2989.6	2107.65
908.2198	1725.0496	2971.8	2089.4
908.3609	1726.7605	2959.6	2075.55
908.502	1728.4706	2952.9	2070.05
908.6431	1730.18	2943.2	2061.25
908.7842	1731.8886	2937.85	2056.35
908.9253	1733.5964	2931.95	2046.25
909.0664	1735.3036	2930.9	2048.85
909.2074	1737.0099	2914.95	2030.85
909.3484	1738.7156	2902.35	2024.85
909.4894	1740.4204	2891.7	2007.05
909.6304	1742.1246	2891.35	2007.1
909.7714	1743.8279	2885.8	2005.3
909.9123	1745.5306	2888.05	2006.25
910.0532	1747.2325	2876.05	1994.85
910.1941	1748.9336	2860.4	1980.05
910.335	1750.634	2850.8	1967.5
910.4759	1752.3336	2841.65	1962.4
910.6168	1754.0325	2834.1	1953.05
910.7576	1755.7307	2838.75	1959.8
910.8984	1757.4281	2829.75	1948.7
911.0392	1759.1247	2831.2	1941.9
911.18	1760.8206	2833.25	1947.65
911.3208	1762.5158	2813.8	1929.6
911.4615	1764.2102	2806.95	1926.35
911.6022	1765.9039	2794.25	1911.2
911.7429	1767.5968	2792.6	1911.25
911.8836	1769.289	2793.75	1913.1
912.0243	1770.9804	2773.05	1891
912.1649	1772.6711	2766.7	1885.6
912.3056	1774.361	2770.85	1889.85
912.4462	1776.0502	2764.6	1881.95
912.5868	1777.7386	2758	1872.3
912.7274	1779.4263	2761	1880.6
912.8679	1781.1132	2749.35	1869.15
913.0084	1782.7994	2742.95	1859.95
913.149	1784.4849	2736.35	1855.95
913.2895	1786.1696	2748.15	1847.55
913.4299	1787.8535	2731.9	1850.45
913.5704	1789.5367	2727.1	1846.25
913.7108	1791.2192	2722.1	1841.15
913.8513	1792.9009	2738.9	1830.55
913.9917	1794.5818	2719.25	1838.4
914.132	1796.2621	2693.6	1812
914.2724	1797.9415	2684.35	1803.3
914.4128	1799.6202	2692.9	1813.95
914.5531	1801.2982	2690.8	1810.05
914.6934	1802.9755	2694.7	1814.5
914.8337	1804.6519	2687.3	1805
914.9739	1806.3277	2680.6	1800.75
915.1142	1808.0027	2674.2	1794.35
915.2544	1809.6769	2660.55	1781.5
915.3946	1811.3504	2643.95	1763.35
915.5348	1813.0231	2658.9	1776.5
915.675	1814.6951	2655.3	1774.1
915.8151	1816.3664	2656.05	1771.4
915.9553	1818.0369	2644.85	1763.05
916.0954	1819.7067	2639.15	1757.85
916.2355	1821.3757	2638.45	1755.45
916.3755	1823.044	2630.75	1749.5
916.5156	1824.7115	2634.25	1753.35
916.6556	1826.3783	2621.8	1743.5
916.7956	1828.0443	2610.8	1731
916.9356	1829.7096	2612.35	1729.65
917.0756	1831.3741	2612.35	1726.55
917.2155	1833.0379	2608.55	1726.85
917.3555	1834.701	2605.85	1724.9
917.4954	1836.3633	2596.35	1713.8
917.6353	1838.0248	2591.75	1708.7
917.7751	1839.6856	2598.65	1718.35
917.915	1841.3457	2593.55	1713.6
918.0548	1843.005	2588.5	1707.75
918.1946	1844.6636	2580.85	1700.05
918.3344	1846.3214	2575.5	1694.6
918.4742	1847.9785	2581.4	1701.55
918.6139	1849.6349	2577.05	1693.85
918.7537	1851.2904	2588.4	1698.8
918.8934	1852.9453	2568.2	1690
919.0331	1854.5994	2564.45	1680.25
919.1727	1856.2528	2560.75	1677.6
919.3124	1857.9054	2543.35	1662.9
919.452	1859.5572	2559.3	1679.75
919.5916	1861.2083	2551.9	1670.7
919.7312	1862.8587	2550.45	1669.3
919.8708	1864.5084	2544.3	1662.45
920.0103	1866.1572	2527.45	1647.5
920.1498	1867.8054	2521.95	1640.4
920.2893	1869.4528	2521.1	1640.75
920.4288	1871.0994	2501.55	1621.15
920.5683	1872.7453	2508.85	1629.4
920.7077	1874.3905	2516.5	1619.15
920.8471	1876.0349	2497.75	1616.4
920.9865	1877.6786	2498.8	1616.55
921.1259	1879.3215	2496.3	1617.6
921.2653	1880.9637	2491.3	1609.55
921.4046	1882.6051	2483	1603.55
921.5439	1884.2458	2480.05	1597.65
921.6832	1885.8858	2469.3	1587.85
921.8225	1887.525	2470.4	1588.65
921.9617	1889.1634	2455.25	1573.9
922.101	1890.8011	2460.95	1577.3
922.2402	1892.4381	2450.15	1570.6
922.3794	1894.0743	2451.2	1572.45
922.5185	1895.7098	2446.45	1568
922.6577	1897.3446	2434.3	1552.6
922.7968	1898.9786	2450.55	1566
922.9359	1900.6118	2439.05	1560.1
923.075	1902.2443	2426.9	1542.75
923.214	1903.8761	2428	1547.7
923.3531	1905.5071	2410.55	1527.4
923.4921	1907.1374	2410.85	1531.2
923.6311	1908.7669	2420.55	1539.3
923.77	1910.3957	2392.35	1509.65
923.909	1912.0237	2395.7	1515.6
924.0479	1913.651	2397.55	1516.1
924.1868	1915.2776	2392.4	1513.8
924.3257	1916.9034	2387.75	1510.6
924.4646	1918.5285	2376.2	1497.9
924.6034	1920.1528	2370.45	1490.8
924.7422	1921.7764	2382.4	1501.1
924.881	1923.3992	2364.65	1485.1
925.0198	1925.0213	2357.6	1477.65
925.1586	1926.6427	2355.35	1475.05
925.2973	1928.2633	2446.65	1460.1
925.436	1929.8832	2360.8	1477.45
925.5747	1931.5023	2343.15	1460.85
925.7134	1933.1207	2338.45	1459.6
925.852	1934.7383	2331.85	1449.85
925.9906	1936.3552	2328.6	1448.1
926.1292	1937.9714	2331.6	1449.95
926.2678	1939.5868	2328.45	1446.75
926.4064	1941.2015	2306.6	1424
926.5449	1942.8154	2305.65	1425
926.6834	1944.4286	2300.05	1420.3
926.8219	1946.041	2323.4	1418.75
926.9604	1947.6528	2288.4	1403
927.0988	1949.2637	2277.1	1397.15
927.2372	1950.8739	2279.2	1394.25
927.3756	1952.4834	2272.9	1392
927.514	1954.0921	2263.15	1381.95
927.6523	1955.7001	2260.5	1375.35
927.7907	1957.3074	2266.35	1386.2
927.929	1958.9139	2246.95	1364.95
928.0673	1960.5197	2248.15	1368.15
928.2055	1962.1247	2234.35	1355.55
928.3438	1963.729	2232	1351.65
928.482	1965.3325	2256.7	1353.1
928.6202	1966.9353	2235.1	1353.6
928.7584	1968.5374	2225.4	1344.6
928.8965	1970.1387	2221.45	1339.15
929.0346	1971.7393	2214.15	1331.95
929.1727	1973.3392	2214.9	1333.25
929.3108	1974.9383	2199.6	1320.7
929.4489	1976.5366	2192.75	1312.5
929.5869	1978.1342	2193.1	1311.15
929.7249	1979.7311	2191.25	1310.2
929.8629	1981.3273	2185.65	1305.55
930.0009	1982.9227	2187.55	1303.75
930.1388	1984.5173	2174.15	1292.85
930.2767	1986.1112	2178.95	1298
930.4146	1987.7044	2170.8	1292.1
930.5525	1989.2968	2168.4	1286.85
930.6904	1990.8885	2170.15	1284.75
930.8282	1992.4795	2167.2	1284.55
930.966	1994.0697	2163.8	1283.5
931.1038	1995.6592	2160.4	1278.9
931.2415	1997.2479	2148.5	1268.4
931.3793	1998.8359	2151.65	1268.5
931.517	2000.4232	2143.15	1261.75
931.6547	2002.0097	2130.6	1249.65
931.7923	2003.5955	2135.95	1251.9
931.93	2005.1805	2129.9	1248.35
932.0676	2006.7648	2131.95	1251.3
932.2052	2008.3484	2121.35	1238.4
932.3427	2009.9312	2130.8	1246.45
932.4803	2011.5133	2117.4	1238.55
932.6178	2013.0946	2112.6	1232
932.7553	2014.6752	2103.9	1225.1
932.8928	2016.2551	2109.45	1226.2
933.0302	2017.8342	2111.4	1229.75
933.1676	2019.4126	2106.75	1227
933.305	2020.9902	2098	1218.65
933.4424	2022.5672	2096.75	1214
933.5798	2024.1433	2102.45	1215.1
933.7171	2025.7188	2093.15	1214.65
933.8544	2027.2935	2097.35	1215.1
933.9917	2028.8674	2074.7	1194.95
934.129	2030.4406	2076.7	1197.65
934.2662	2032.0131	2068.65	1187
934.4034	2033.5849	2078.05	1190.85
934.5406	2035.1559	2074.45	1193.65
934.6778	2036.7261	2058.05	1177.15
934.8149	2038.2957	2070.2	1189.4
934.952	2039.8645	2060.5	1180.5
935.0891	2041.4325	2070.3	1185.75
935.2262	2042.9998	2060.65	1180.5
935.3632	2044.5664	2055.9	1173.8
935.5002	2046.1323	2057	1176.5
935.6372	2047.6974	2044.4	1163
935.7742	2049.2617	2040.9	1159.6
935.9111	2050.8254	2050.95	1158.65
936.048	2052.3883	2027.55	1146.05
936.1849	2053.9504	2030	1147.3
936.3218	2055.5118	2023.35	1140.45
936.4586	2057.0725	2029.4	1144.7
936.5955	2058.6325	2022.6	1140
936.7323	2060.1917	2010.45	1128.3
936.869	2061.7502	2018.85	1135.25
937.0058	2063.3079	2015.5	1134
937.1425	2064.8649	2011.8	1127.3
937.2792	2066.4212	2011.2	1127.65
937.4159	2067.9767	2001.7	1122.2
937.5525	2069.5315	2003	1122.8
937.6891	2071.0856	1989.75	1107
937.8257	2072.6389	1994.2	1112.15
937.9623	2074.1915	1988.1	1106
938.0989	2075.7433	1978.4	1094
938.2354	2077.2945	1973	1092.65
938.3719	2078.8448	1974.75	1094.1
938.5084	2080.3945	1964.15	1084.6
938.6448	2081.9434	1969.35	1087.45
938.7812	2083.4916	1967.8	1086.3
938.9176	2085.039	1963.1	1081.3
939.054	2086.5857	1959.15	1076.6
939.1903	2088.1317	1962.05	1082
939.3267	2089.677	1957.8	1076.95
939.463	2091.2215	1944	1064.1
939.5992	2092.7652	1945.2	1062.25
939.7355	2094.3083	1935.8	1053.8
939.8717	2095.8506	1943.75	1064.5
940.0079	2097.3921	1940.4	1060.3
940.1441	2098.933	1927.65	1044.75
940.2802	2100.4731	1924.8	1045.65
940.4163	2102.0124	1939.8	1050.1
940.5524	2103.5511	1924.3	1045.45
940.6885	2105.089	1927.4	1045.55
940.8245	2106.6261	1926.85	1046.1
940.9606	2108.1626	1919.85	1037.3
941.0965	2109.6983	1942.4	1029.4
941.2325	2111.2332	1913.85	1033.6
941.3684	2112.7675	1910.95	1028.25
941.5044	2114.301	1907.05	1024.05
941.6403	2115.8337	1912.75	1033.5
941.7761	2117.3657	1907.1	1026.25
941.912	2118.897	1896.45	1015.05
942.0478	2120.4276	1900.15	1013.4
942.1835	2121.9575	1887.75	1005.65
942.3193	2123.4866	1901.55	1006.75
942.455	2125.0149	1885.7	1001.8
942.5907	2126.5426	1880.05	997.15
942.7264	2128.0695	1886.2	1001.55
942.8621	2129.5956	1889	1007.2
942.9977	2131.1211	1887.65	1001.8
943.1333	2132.6458	1880.95	1000.2
943.2689	2134.1698	1876.15	993.65
943.4044	2135.693	1873.15	988.35
943.54	2137.2155	1873.05	990.75
943.6755	2138.7373	1867.8	985.5
943.8109	2140.2584	1861.3	978.95
943.9464	2141.7787	1870.4	983.05
944.0818	2143.2983	1861	979.85
944.2172	2144.8171	1857.7	977.35
944.3526	2146.3353	1860.55	975.95
944.4879	2147.8527	1851.8	969.35
944.6232	2149.3693	1854.05	971
944.7585	2150.8853	1845.35	963.55
944.8938	2152.4005	1837.95	957.4
945.029	2153.9149	1843.5	962.1
945.1642	2155.4287	1840.45	958.35
945.2994	2156.9417	1837.85	954.2
945.4346	2158.454	1841.7	958.25
945.5697	2159.9655	1833.85	950.8
945.7048	2161.4764	1825.4	942.2
945.8399	2162.9865	1825.75	944.5
945.9749	2164.4958	1827.2	943.3
946.1099	2166.0045	1820.3	935.05
946.2449	2167.5124	1828.05	945.4
946.3799	2169.0195	1827.15	946.05
946.5148	2170.526	1824.2	943.4
946.6498	2172.0317	1813.35	929.9
946.7846	2173.5367	1824.55	942.55
946.9195	2175.0409	1810.05	928.75
947.0543	2176.5445	1811.35	931.2
947.1891	2178.0473	1808.6	928.4
947.3239	2179.5494	1801.7	916.25
947.4587	2181.0507	1807.5	925.7
947.5934	2182.5513	1793.5	911.2
947.7281	2184.0512	1793.4	911.3
947.8628	2185.5504	1791.7	911.3
947.9974	2187.0488	1782.3	901
948.132	2188.5465	1791.1	908.45
948.2666	2190.0435	1771.7	888.05
948.4012	2191.5397	1779.35	896.9
948.5357	2193.0353	1776.8	897.3
948.6702	2194.5301	1770.75	888.6
948.8047	2196.0241	1762.7	879.9
948.9392	2197.5175	1767.45	887.45
949.0736	2199.0101	1770.4	884.9
949.208	2200.502	1755.95	876.3
949.3424	2201.9931	1761.15	879.2
949.4767	2203.4835	1754.3	871.75
949.611	2204.9733	1763.4	872.95
949.7453	2206.4622	1752	870.6
949.8796	2207.9505	1757.65	871.5
950.0138	2209.438	1751.95	871.1
950.148	2210.9248	1740.6	856.9
950.2822	2212.4109	1738.2	858.05
950.4164	2213.8962	1734.35	849.3
950.5505	2215.3809	1737.15	854.15
950.6846	2216.8648	1736.9	854.8
950.8186	2218.3479	1738	851.15
950.9527	2219.8304	1730.85	847.45
951.0867	2221.3121	1726.35	844.15
951.2207	2222.7931	1728.1	847.45
951.3546	2224.2733	1722.65	839.85
951.4886	2225.7529	1721.15	839.25
951.6225	2227.2317	1709.1	826.2
951.7563	2228.7098	1709.75	827.45
951.8902	2230.1872	1709.05	827.15
952.024	2231.6638	1712.35	830.8
952.1578	2233.1397	1709.35	822.85
952.2916	2234.6149	1708.75	828.55
952.4253	2236.0894	1699.9	816.1
952.559	2237.5632	1703.45	819.1
952.6927	2239.0362	1693.2	810.95
952.8263	2240.5085	1687.35	805.35
952.9599	2241.9801	1693.75	812.4
953.0935	2243.4509	1694.7	813.35
953.2271	2244.921	1684.6	803.2
953.3606	2246.3904	1677.45	795.3
953.4941	2247.8591	1678.4	797.2
953.6276	2249.3271	1680.3	800.25
953.7611	2250.7943	1676.2	793.2
953.8945	2252.2608	1667.05	785.25
954.0279	2253.7266	1671	788.85
954.1612	2255.1917	1664.2	781
954.2946	2256.656	1671.5	788.4
954.4279	2258.1197	1663.7	782.45
954.5612	2259.5826	1654.35	769.1
954.6944	2261.0447	1660.85	779
954.8276	2262.5062	1652.05	767.9
954.9608	2263.9669	1651.85	769.6
955.094	2265.4269	1653.5	773.6
955.2271	2266.8862	1646.8	764.95
955.3602	2268.3448	1651.2	769
955.4933	2269.8026	1642.5	759.85
955.6264	2271.2598	1643.8	761.85
955.7594	2272.7162	1649.4	768.2
955.8924	2274.1719	1644.2	764.55
956.0253	2275.6268	1637.75	756.2
956.1583	2277.0811	1644.8	761
956.2912	2278.5346	1639.65	759.5
956.4241	2279.9874	1636	756.15
956.5569	2281.4395	1626.4	745.3
956.6897	2282.8908	1632.2	743.3
956.8225	2284.3414	1632.8	750.2
956.9553	2285.7914	1627.85	747.75
957.088	2287.2406	1620.15	734.8
957.2207	2288.689	1615.25	734
957.3534	2290.1368	1615.6	733.25
957.486	2291.5838	1617.75	732.2
957.6186	2293.0302	1612.55	728.7
957.7512	2294.4758	1621.3	740.45
957.8838	2295.9206	1621.7	737.5
958.0163	2297.3648	1608.65	727.5
958.1488	2298.8082	1605.5	722.45
958.2813	2300.251	1602.9	723.45
958.4137	2301.693	1605.9	722.65
958.5461	2303.1343	1609.15	726.3
958.6785	2304.5748	1604.95	723.75
958.8108	2306.0147	1601.05	717.4
958.9432	2307.4538	1605.55	721.35
959.0754	2308.8922	1587.85	709.35
959.2077	2310.3299	1597.5	716.3
959.3399	2311.7669	1587.05	707.25
959.4721	2313.2031	1587	706.35
959.6043	2314.6387	1593.55	710.75
959.7365	2316.0735	1583.95	702.85
959.8686	2317.5076	1584.9	701.2
960.0006	2318.941	1575.1	693.55
960.1327	2320.3737	1568.55	686.5
960.2647	2321.8056	1569.8	685.9
960.3967	2323.2369	1574.65	691.2
960.5287	2324.6674	1570.45	687.2
960.6606	2326.0972	1569.5	686
960.7925	2327.5263	1568.05	688.15
960.9244	2328.9547	1569	687
961.0562	2330.3823	1561.4	679.85
961.1881	2331.8092	1568.55	685.25
961.3198	2333.2355	1568.1	685.95
961.4516	2334.661	1562.1	681.7
961.5833	2336.0858	1562	678.95
961.715	2337.5098	1553.5	672.6
961.8467	2338.9332	1557.1	674.75
961.9783	2340.3558	1556.15	671.5
962.1099	2341.7778	1548.15	665.95
962.2415	2343.199	1552.65	669.45
962.373	2344.6195	1541.45	658.05
962.5045	2346.0393	1548.35	666.85
962.636	2347.4583	1545.5	663.85
962.7675	2348.8767	1551.65	668.75
962.8989	2350.2943	1543.4	659.8
963.0303	2351.7113	1547.85	664.3
963.1617	2353.1275	1539.9	658.5
963.293	2354.543	1558.85	654.9
963.4243	2355.9578	1543.3	662
963.5556	2357.3718	1534.3	652.8
963.6868	2358.7852	1539.65	653.6
963.818	2360.1978	1532.85	647.9
963.9492	2361.6098	1531.2	650.85
964.0803	2363.021	1526.5	641.1
964.2114	2364.4315	1532.45	650.4
964.3425	2365.8413	1522.05	638.05
964.4736	2367.2504	1529.5	649.4
964.6046	2368.6587	1527.35	646.95
964.7356	2370.0664	1521.3	640.9
964.8666	2371.4733	1513.35	632.75
964.9975	2372.8795	1511.3	631.95
965.1284	2374.285	1503.35	620.65
965.2593	2375.6899	1502.9	622.55
965.3901	2377.0939	1502.1	620.5
965.5209	2378.4973	1505.85	624.45
965.6517	2379.9	1503.95	621.25
965.7825	2381.3019	1505.2	625.45
965.9132	2382.7032	1500.3	618.4
966.0439	2384.1037	1499.9	620.5
966.1745	2385.5035	1495.7	613.5
966.3051	2386.9027	1485.1	604.7
966.4357	2388.3011	1492.4	605.7
966.5663	2389.6987	1487.45	607.4
966.6968	2391.0957	1487.3	607.25
966.8273	2392.492	1483.65	603.45
966.9578	2393.8876	1483.85	602.1
967.0882	2395.2824	1475.15	593.45
967.2186	2396.6765	1474.9	596.95
967.349	2398.07	1468.95	589.15
967.4793	2399.4627	1476.25	595.5
967.6097	2400.8547	1471.95	591.95
967.7399	2402.246	1474.8	589.2
967.8702	2403.6366	1476.4	594.85
968.0004	2405.0265	1468.95	587.3
968.1306	2406.4156	1465.75	581.2
968.2607	2407.8041	1461.4	576.8
968.3909	2409.1918	1470.8	589.65
968.521	2410.5789	1458.4	574.8
968.651	2411.9652	1464.95	581.4
968.781	2413.3508	1464.6	582.3
968.911	2414.7358	1460.05	580.8
969.041	2416.12	1460.15	579.2
969.1709	2417.5035	1455.15	575
969.3008	2418.8863	1464.35	582.85
969.4307	2420.2684	1450.75	570.2
969.5606	2421.6497	1456.1	573.4
969.6904	2423.0304	1454.4	574.25
969.8201	2424.4104	1448.75	565.95
969.9499	2425.7896	1452.55	564.9
970.0796	2427.1682	1447.6	565.6
970.2093	2428.546	1441.5	561.1
970.3389	2429.9232	1447.25	564.6
970.4685	2431.2996	1438.3	558.25
970.5981	2432.6753	1442.15	562.3
970.7277	2434.0503	1437.95	557
970.8572	2435.4246	1439.55	559.85
970.9867	2436.7982	1435.05	550.75
971.1161	2438.1711	1430.6	550.9
971.2456	2439.5433	1430.15	546.85
971.375	2440.9148	1428.75	541.75
971.5043	2442.2856	1429.1	549.05
971.6336	2443.6557	1428.65	545.65
971.7629	2445.025	1421.35	539.95
971.8922	2446.3937	1417.25	534.25
972.0214	2447.7617	1414.95	533.55
972.1506	2449.1289	1415.65	533.8
972.2798	2450.4955	1425.6	541.35
972.4089	2451.8613	1419.8	539.55
972.538	2453.2265	1411.6	529.55
972.6671	2454.5909	1409.4	528.35
972.7961	2455.9546	1411.05	530.15
972.9251	2457.3177	1417.05	537.55
973.0541	2458.68	1412.85	530.55
973.1831	2460.0416	1414.1	532.35
973.312	2461.4025	1416.05	534.9
973.4408	2462.7627	1424.85	531.9
973.5697	2464.1222	1411.95	532.05
973.6985	2465.4811	1408.1	524.8
973.8273	2466.8392	1406.6	525.55
973.956	2468.1966	1405.75	523.2
974.0847	2469.5533	1412.6	528.8
974.2134	2470.9093	1406.55	524.55
974.3421	2472.2645	1411.4	527.35
974.4707	2473.6191	1408.1	529.05
974.5993	2474.973	1408.9	528.1
974.7278	2476.3262	1405.25	522.5
974.8563	2477.6787	1410.65	531.45
974.9848	2479.0305	1402.75	520.55
975.1132	2480.3816	1395.35	513.35
975.2417	2481.7319	1398.85	516.15
975.37	2483.0816	1401.35	518.25
975.4984	2484.4306	1399.4	518.45
975.6267	2485.7789	1387.95	507.25
975.755	2487.1264	1390.7	510.4
975.8833	2488.4733	1390.4	508.4
976.0115	2489.8195	1404.45	507
976.1397	2491.165	1391.15	505.5
976.2678	2492.5097	1387.35	504
976.3959	2493.8538	1372	490.25
976.524	2495.1972	1386.25	502.9
976.6521	2496.5398	1383.1	500.7
976.7801	2497.8818	1381.9	497.8
976.9081	2499.2231	1381.1	500.6
977.036	2500.5637	1372.65	488.45
977.164	2501.9035	1372.85	491.75
977.2918	2503.2427	1375.35	490.45
977.4197	2504.5812	1365.3	485.55
977.5475	2505.919	1369.95	487.3
977.6753	2507.256	1370.65	490.1
977.8031	2508.5924	1368.85	489.1
977.9308	2509.9281	1375.55	488.65
978.0585	2511.2631	1374.7	494.15
978.1861	2512.5974	1367.9	487.5
978.3137	2513.9309	1361.25	478.55
978.4413	2515.2638	1392.35	481.45
978.5689	2516.596	1364.25	483.15
978.6964	2517.9275	1359.45	475.6
978.8239	2519.2583	1360.4	478.5
978.9513	2520.5884	1355.1	472.1
979.0788	2521.9178	1360.4	477.05
979.2062	2523.2465	1355.4	473.75
979.3335	2524.5745	1351.65	469.4
979.4608	2525.9018	1356.8	474.7
979.5881	2527.2284	1351.7	471.85
979.7154	2528.5543	1345.95	465.7
979.8426	2529.8796	1351.15	469.15
979.9698	2531.2041	1352.15	469.45
980.0969	2532.5279	1351.15	472.7
980.224	2533.851	1351.2	467.15
980.3511	2535.1735	1347.95	469.9
980.4781	2536.4952	1344.2	461.55
980.6052	2537.8163	1342.75	459.6
980.7321	2539.1366	1342.35	462.8
980.8591	2540.4562	1339.75	455.8
980.986	2541.7752	1341.3	460.6
981.1129	2543.0935	1348.75	467.3
981.2397	2544.411	1338.75	457.25
981.3665	2545.7279	1331.65	451.1
981.4933	2547.0441	1336	454.85
981.62	2548.3596	1342	457.25
981.7467	2549.6744	1335.65	454.35
981.8734	2550.9885	1340	457.25
982.0001	2552.3019	1332.05	451.65
982.1267	2553.6146	1331.4	449.9
982.2532	2554.9266	1333.55	452.9
982.3798	2556.2379	1331.4	448.3
982.5063	2557.5485	1328.7	448.85
982.6327	2558.8585	1330.6	441.9
982.7592	2560.1677	1330.6	443.15
982.8856	2561.4762	1329.65	448.65
983.0119	2562.7841	1330.1	445.7
983.1383	2564.0913	1324.75	446.15
983.2646	2565.3977	1324.85	441.25
983.3908	2566.7035	1318.8	437.05
983.517	2568.0086	1317.3	434.75
983.6432	2569.313	1320	438.15
983.7694	2570.6167	1322.1	436.55
983.8955	2571.9197	1315.95	434.1
984.0216	2573.222	1325.75	441.25
984.1476	2574.5236	1316.35	433.85
984.2737	2575.8246	1322.6	439.05
984.3996	2577.1248	1321.95	438.3
984.5256	2578.4244	1317.75	438.25
984.6515	2579.7232	1323.55	443.6
984.7774	2581.0214	1346.95	434.2
984.9032	2582.3189	1322.35	441
985.029	2583.6157	1320.05	432.95
985.1548	2584.9118	1325.2	442.5
985.2806	2586.2072	1319.3	437.15
985.4063	2587.5019	1324.3	443.85
985.5319	2588.7959	1320.5	439.3
985.6576	2590.0893	1329.45	447.35
985.7832	2591.3819	1329.5	448.5
985.9087	2592.6739	1335.75	455
986.0343	2593.9652	1331.5	448.55
986.1597	2595.2557	1329.2	446.95
986.2852	2596.5456	1336.3	450.75
986.4106	2597.8348	1339.55	459.7
986.536	2599.1234	1328.6	446.7
986.6614	2600.4112	1335.9	452.85
986.7867	2601.6983	1343.55	457.65
986.912	2602.9848	1340.15	458.95
987.0372	2604.2705	1348.9	459.65
987.1624	2605.5556	1340.1	457.2
987.2876	2606.84	1340.1	459.5
987.4128	2608.1237	1333.55	449.65
987.5379	2609.4067	1337.15	455.3
987.6629	2610.689	1346.1	455.35
987.788	2611.9707	1342.2	456.45
987.913	2613.2516	1335	449.1
988.0379	2614.5319	1328.4	445.95
988.1629	2615.8115	1331.15	448.25
988.2878	2617.0903	1333.85	452.15
988.4126	2618.3685	1335.75	453.2
988.5375	2619.6461	1325.5	443.2
988.6622	2620.9229	1322.8	441.55
988.787	2622.199	1331.4	447.8
988.9117	2623.4745	1330.3	448.15
989.0364	2624.7493	1331.2	449.7
989.161	2626.0234	1326.15	445
989.2857	2627.2968	1331.75	448.45
989.4102	2628.5695	1331.45	446.7
989.5348	2629.8415	1326.25	444.1
989.6593	2631.1128	1326.7	442.85
989.7837	2632.3835	1331.85	449.55
989.9082	2633.6535	1331.8	449.7
990.0326	2634.9228	1328.6	448.15
990.1569	2636.1914	1329.8	448
990.2812	2637.4593	1332.45	450.35
990.4055	2638.7265	1327.35	446.05
990.5298	2639.9931	1328.75	447.2
990.654	2641.259	1328.35	445.5
990.7782	2642.5242	1328.35	443.9
990.9023	2643.7887	1318.45	438.3
991.0264	2645.0525	1325.55	443.55
991.1505	2646.3156	1327.9	444.55
991.2745	2647.5781	1319.5	437.6
991.3985	2648.8398	1315.65	434.95
991.5225	2650.1009	1319.35	430.3
991.6464	2651.3613	1318	435.65
991.7703	2652.6211	1319.5	439
991.8942	2653.8801	1312.7	433.6
992.018	2655.1385	1321.25	433.1
992.1418	2656.3961	1311.5	432.05
992.2655	2657.6531	1310.35	428.8
992.3892	2658.9094	1313.05	430
992.5129	2660.1651	1315.7	432.25
992.6366	2661.42	1319.25	436.4
992.7602	2662.6743	1320.25	437.75
992.8837	2663.9279	1314.5	433.4
993.0073	2665.1808	1322.05	437.85
993.1307	2666.433	1327.25	445.15
993.2542	2667.6846	1322.5	441.1
993.3776	2668.9354	1332.8	446.1
993.501	2670.1856	1330.4	448.85
993.6244	2671.4351	1334.4	450.85
993.7477	2672.6839	1333.9	450.3
993.8709	2673.9321	1340.65	460.6
993.9942	2675.1795	1335.8	453.1
994.1174	2676.4263	1344.6	465.1
994.2405	2677.6724	1344.6	464.35
994.3637	2678.9179	1346.35	464.15
994.4868	2680.1626	1350.65	468.75
994.6098	2681.4067	1350.5	468.7
994.7328	2682.6501	1352.3	471.75
994.8558	2683.8928	1344.85	463.55
994.9788	2685.1348	1341.85	459.5
995.1017	2686.3761	1341.65	460.2
995.2245	2687.6168	1340.7	456.75
995.3474	2688.8568	1337.6	457.6
995.4702	2690.0961	1330.2	448.35
995.5929	2691.3348	1326.8	444.4
995.7156	2692.5727	1329.95	447.05
995.8383	2693.81	1331.45	449.05
995.961	2695.0466	1319.55	440.9
996.0836	2696.2826	1327.3	445.9
996.2062	2697.5178	1327.6	442.15
996.3287	2698.7524	1325.7	444.75
996.4512	2699.9863	1327.2	444.65
996.5737	2701.2195	1328.55	447.35
996.6961	2702.452	1326.35	442.95
996.8185	2703.6839	1336.55	453.25
996.9408	2704.9151	1342.1	461.8
997.0631	2706.1456	1346.2	464.4
997.1854	2707.3755	1354.3	472.6
997.3077	2708.6046	1364.15	480.6
997.4299	2709.8331	1380.3	497.2
997.552	2711.0609	1371.05	489.65
997.6742	2712.2881	1380.9	497.6
997.7963	2713.5145	1393.9	509.9
997.9183	2714.7403	1409.35	528.75
998.0403	2715.9654	1406.7	523.35
998.1623	2717.1899	1438.3	543.05
998.2842	2718.4136	1442.15	559.9
998.4062	2719.6367	1448.9	566.8
998.528	2720.8591	1464.9	574.85
998.6498	2722.0809	1472.95	590.15
998.7716	2723.3019	1484.7	600.25
998.8934	2724.5223	1498.55	615.4
999.0151	2725.7421	1503.3	619.9
999.1368	2726.9611	1502.15	619.6
999.2584	2728.1795	1504.15	617.3
999.38	2729.3972	1495.25	615.25
999.5016	2730.6142	1494.55	599.85
999.6231	2731.8306	1475.4	593.1
999.7446	2733.0462	1458.9	575.05
999.8661	2734.2612	1453.15	566.25
999.9875	2735.4756	1426	543.4
1000.1089	2736.6892	1410.85	529.65
1000.2302	2737.9022	1394.5	513.6
1000.3515	2739.1145	1387.5	504.4
1000.4728	2740.3262	1377.75	487.95
1000.594	2741.5372	1361	480.05
1000.7152	2742.7475	1350.25	468.75
1000.8363	2743.9571	1341.65	458.75
1000.9575	2745.1661	1328.6	439.5
1001.0785	2746.3744	1313.7	431.15
1001.1996	2747.582	1311.2	429.55
1001.3206	2748.7889	1299.6	415.3
1001.4415	2749.9952	1295.3	413.1
1001.5625	2751.2008	1294.7	413.6
1001.6833	2752.4057	1294.35	409.55
1001.8042	2753.61	1288.4	406.9
1001.925	2754.8136	1287.2	404.7
1002.0458	2756.0165	1282.9	399.55
1002.1665	2757.2188	1283.1	401.4
1002.2872	2758.4204	1278.25	394.1
1002.4078	2759.6213	1286.25	402.6
1002.5285	2760.8215	1292.05	403.8
1002.649	2762.0211	1280.6	396.3
1002.7696	2763.22	1283.35	398.9
1002.8901	2764.4182	1277.35	392.45
1003.0106	2765.6158	1277.35	393.25
1003.131	2766.8127	1276.9	393.55
1003.2514	2768.009	1268.5	385.65
1003.3717	2769.2045	1276.05	394.2
1003.492	2770.3994	1269.4	385.7
1003.6123	2771.5936	1270.1	388.1
1003.7325	2772.7872	1263.5	383.65
1003.8527	2773.9801	1260.65	374.2
1003.9729	2775.1723	1279.25	382.8
1004.093	2776.3639	1261.6	380.2
1004.2131	2777.5548	1266.25	381.35
1004.3331	2778.745	1269.65	385.85
1004.4531	2779.9346	1266.35	384.55
1004.5731	2781.1235	1277.45	394.25
1004.693	2782.3117	1278.9	396
1004.8129	2783.4992	1286.7	404.15
1004.9328	2784.6861	1288.95	407.25
1005.0526	2785.8723	1300.1	417.7
1005.1723	2787.0579	1309.3	425.55
1005.2921	2788.2428	1307.55	425.95
1005.4118	2789.427	1314.4	433.75
1005.5314	2790.6106	1331.9	450.65
1005.651	2791.7935	1339	455.4
1005.7706	2792.9757	1358.95	479
1005.8902	2794.1573	1376.85	493.8
1006.0097	2795.3382	1380.05	498.1
1006.1291	2796.5184	1397.15	516.4
1006.2485	2797.698	1427.9	545.15
1006.3679	2798.8769	1439.2	557.35
1006.4873	2800.0551	1455.8	574.2
1006.6066	2801.2327	1472.45	589.1
1006.7258	2802.4096	1493.6	611.95
1006.8451	2803.5859	1521.65	640
1006.9642	2804.7615	1537.6	653.55
1007.0834	2805.9364	1572.25	691.3
1007.2025	2807.1106	1592.95	710.3
1007.3216	2808.2842	1627.1	743.05
1007.4406	2809.4572	1661.45	779.2
1007.5596	2810.6294	1707.2	825.6
1007.6785	2811.801	1731.35	851.05
1007.7975	2812.972	1775.85	894
1007.9163	2814.1423	1829.45	948.4
1008.0352	2815.3119	1882.25	998.65
1008.154	2816.4808	1934.35	1054.95
1008.2727	2817.6491	1975.7	1094.1
1008.3914	2818.8167	2034.1	1154.4
1008.5101	2819.9837	2088.8	1202.75
1008.6288	2821.15	2127.1	1246.55
1008.7474	2822.3157	2174.4	1295.2
1008.8659	2823.4807	2226.5	1344.25
1008.9844	2824.645	2262.85	1379.15
1009.1029	2825.8086	2303	1421.3
1009.2214	2826.9716	2340.35	1458.25
1009.3398	2828.134	2385.1	1504.05
1009.4581	2829.2957	2421.2	1537.55
1009.5764	2830.4567	2442.35	1562.05
1009.6947	2831.617	2471.7	1588.4
1009.813	2832.7767	2484.15	1603.55
1009.9312	2833.9358	2497.95	1616.9
1010.0493	2835.0941	2482.55	1599.7
1010.1675	2836.2519	2465.9	1582.85
1010.2855	2837.4089	2457.8	1574.4
1010.4036	2838.5653	2458.55	1575.5
1010.5216	2839.7211	2439.9	1559.4
1010.6396	2840.8761	2465.3	1582.25
1010.7575	2842.0306	2484.05	1603.2
1010.8754	2843.1843	2521.85	1641.05
1010.9932	2844.3374	2556.55	1674.35
1011.111	2845.4899	2623.8	1740.95
1011.2288	2846.6417	2697.55	1814.65
1011.3465	2847.7928	2783.05	1902.6
1011.4642	2848.9433	2866.9	1986.7
1011.5818	2850.0931	2941.25	2059.5
1011.6995	2851.2422	3031.15	2147.3
1011.817	2852.3907	3111.8	2229.05
1011.9345	2853.5385	3172.15	2288
1012.052	2854.6857	3251.5	2341.55
1012.1695	2855.8323	3292.05	2410.3
1012.2869	2856.9781	3328.45	2446.2
1012.4042	2858.1233	3392.3	2511.45
1012.5216	2859.2679	3431.4	2549.45
1012.6389	2860.4118	3483.45	2600.7
1012.7561	2861.555	3534.9	2645.8
1012.8733	2862.6976	3567.15	2684.55
1012.9905	2863.8395	3604.05	2723.95
1013.1076	2864.9808	3615.5	2734.05
1013.2247	2866.1214	3649	2768.55
1013.3417	2867.2614	3657.55	2776.3
1013.4587	2868.4007	3662.1	2777.55
1013.5757	2869.5393	3681.55	2800
1013.6926	2870.6773	3709.8	2825.95
1013.8095	2871.8146	3713.05	2829.7
1013.9263	2872.9513	3723.25	2839.05
1014.0431	2874.0874	3717.5	2835.65
1014.1599	2875.2227	3711.2	2827.05
1014.2766	2876.3574	3699.95	2818.35
1014.3933	2877.4915	3673.05	2792.2
1014.51	2878.6249	3640.1	2759
1014.6266	2879.7577	3629.2	2744.95
1014.7431	2880.8898	3627.05	2733.05
1014.8596	2882.0212	3589.65	2707.85
1014.9761	2883.152	3587.65	2705.8
1015.0925	2884.2821	3567.45	2686.4
1015.2089	2885.4116	3552.2	2671.9
1015.3253	2886.5405	3555.65	2674.6
1015.4416	2887.6686	3562.85	2678.95
1015.5579	2888.7962	3555.35	2675.05
1015.6741	2889.923	3574.15	2695.05
1015.7903	2891.0493	3582.2	2700.75
1015.9065	2892.1748	3598.85	2716.45
1016.0226	2893.2997	3613.05	2730.2
1016.1387	2894.424	3627.45	2746.4
1016.2547	2895.5476	3646.35	2764.4
1016.3707	2896.6706	3666.8	2787.7
1016.4866	2897.7929	3700.3	2818.15
1016.6025	2898.9145	3733.95	2852.35
1016.7184	2900.0355	3768.55	2886.6
1016.8342	2901.1559	3784.85	2902.35
1016.95	2902.2756	3822.8	2941.25
1017.0658	2903.3946	3860.6	2977.65
1017.1815	2904.513	3898.25	3012.95
1017.2971	2905.6308	3917.45	3037.35
1017.4127	2906.7479	3940.7	3058.05
1017.5283	2907.8643	3974.7	3094
1017.6439	2908.9801	3986.15	3106.1
1017.7594	2910.0953	4007.75	3125.7
1017.8748	2911.2098	4012.1	3128.6
1017.9902	2912.3236	4013.95	3121.85
1018.1056	2913.4368	3990.35	3105.25
1018.2209	2914.5494	3970.05	3086.9
1018.3362	2915.6613	3958.45	3072.3
1018.4515	2916.7725	3932.2	3048.25
1018.5667	2917.8831	3906.85	3022.65
1018.6819	2918.9931	3863.2	2978.1
1018.797	2920.1024	3831.55	2948.55
1018.9121	2921.211	3819.35	2937.4
1019.0271	2922.319	3795.45	2912.25
1019.1421	2923.4264	3775.05	2893.5
1019.2571	2924.5331	3762.2	2880.15
1019.372	2925.6391	3750.5	2868.8
1019.4869	2926.7445	3727.4	2845.5
1019.6017	2927.8493	3733.6	2852.4
1019.7165	2928.9534	3723.5	2842.75
1019.8313	2930.0569	3714.6	2830.35
1019.946	2931.1597	3699.45	2814.45
1020.0606	2932.2619	3679.1	2797.7
1020.1753	2933.3634	3691.75	2809.5
1020.2899	2934.4643	3692.25	2804.9
1020.4044	2935.5645	3660.5	2770.7
1020.5189	2936.6641	3625.8	2739.9
1020.6334	2937.763	3587.4	2706.7
1020.7478	2938.8613	3523.45	2641.35
1020.8622	2939.959	3468.95	2580.9
1020.9765	2941.056	3408.9	2526.5
1021.0908	2942.1523	3322.9	2439.3
1021.2051	2943.248	3226.2	2345.3
1021.3193	2944.3431	3124.55	2243
1021.4334	2945.4375	3025.3	2143.75
1021.5476	2946.5313	2917.95	2037.65
1021.6617	2947.6244	2815	1931.5
1021.7757	2948.7169	2713.75	1831.75
1021.8897	2949.8087	2614.85	1733.4
1022.0037	2950.8999	2510.75	1629.2
1022.1176	2951.9904	2434.3	1552.7
1022.2315	2953.0803	2356.2	1473.3
1022.3453	2954.1696	2286.65	1405.1
1022.4591	2955.2582	2229.75	1348.65
1022.5728	2956.3462	2178.6	1297.6
1022.6865	2957.4335	2136.6	1254.95
1022.8002	2958.5202	2102	1218.2
1022.9138	2959.6062	2077	1196.65
1023.0274	2960.6916	2060.95	1181.55
1023.141	2961.7764	2030.7	1147.4
1023.2545	2962.8605	2013.95	1132.65
1023.3679	2963.9439	2003.85	1123.25
1023.4813	2965.0267	1985.05	1101.7
1023.5947	2966.1089	2004.35	1101.75
1023.708	2967.1905	1972.7	1091.85
1023.8213	2968.2714	1981.45	1099.35
1023.9346	2969.3516	1978	1095.8
1024.0478	2970.4312	1982.9	1094.05
1024.1609	2971.5102	1975.2	1094.7
1024.274	2972.5885	1969.5	1089
1024.3871	2973.6662	1983.75	1098.05
1024.5002	2974.7432	1971.25	1091.5
1024.6132	2975.8196	1966.5	1084.3
1024.7261	2976.8954	1947.45	1067.35
1024.839	2977.9705	1944.1	1062.15
1024.9519	2979.045	1934.95	1054.2
1025.0647	2980.1188	1912.25	1031.2
1025.1775	2981.192	1897.1	1016.2
1025.2902	2982.2645	1875.4	992.35
1025.4029	2983.3364	1852.2	971.2
1025.5156	2984.4077	1828.5	945.85
1025.6282	2985.4783	1794.25	907.35
1025.7407	2986.5483	1759.45	878.7
1025.8532	2987.6177	1724.1	842.7
1025.9657	2988.6864	1686.85	806.2
1026.0782	2989.7545	1651.45	768
1026.1906	2990.8219	1621.25	739.45
1026.3029	2991.8887	1593.8	710.1
1026.4152	2992.9548	1556.1	673.85
1026.5275	2994.0204	1526.9	643.85
1026.6397	2995.0852	1500	621.65
1026.7519	2996.1495	1471.8	588.05
1026.864	2997.2131	1453.1	573.5
1026.9761	2998.276	1428.3	547.45
1027.0882	2999.3383	1417.25	535.1
1027.2002	3000.4	1390.55	508.65
1027.3122	3001.4611	1376.25	495.9
1027.4241	3002.5215	1359.1	477.8
1027.536	3003.5812	1346	466.35
1027.6478	3004.6404	1333.6	450.05
1027.7596	3005.6989	1327.95	444.6
1027.8714	3006.7567	1315.2	433.75
1027.9831	3007.8139	1327	424.45
1028.0947	3008.8705	1308.15	426.9
1028.2064	3009.9264	1305.55	421.8
1028.3179	3010.9818	1294.5	415.4
1028.4295	3012.0364	1294.55	413.05
1028.541	3013.0905	1292.75	410.4
1028.6524	3014.1439	1290.05	408
1028.7638	3015.1966	1286.15	405.75
1028.8752	3016.2487	1286.9	403.45
1028.9865	3017.3002	1286.75	401.9
1029.0978	3018.3511	1287.4	409.75
1029.209	3019.4013	1290.8	409.1
1029.3202	3020.4509	1287.2	406.7
1029.4314	3021.4998	1285.15	402.8
1029.5425	3022.5481	1289.35	408.2
1029.6535	3023.5958	1287.6	407.95
1029.7645	3024.6428	1291.2	409.1
1029.8755	3025.6892	1291.65	412.4
1029.9864	3026.735	1295.3	411.6
1030.0973	3027.7802	1301.7	420.8
1030.2082	3028.8247	1301.8	420.45
1030.319	3029.8685	1301.2	419
1030.4297	3030.9118	1308.45	425.2
1030.5404	3031.9544	1319.1	439.35
1030.6511	3032.9963	1320.9	439.25
1030.7617	3034.0376	1328.85	448.5
1030.8723	3035.0783	1331	445.8
1030.9829	3036.1184	1337.45	455.45
1031.0934	3037.1578	1335.55	456.65
1031.2038	3038.1966	1343.1	458.85
1031.3142	3039.2348	1338.4	458.4
1031.4246	3040.2723	1343.6	452.6
1031.5349	3041.3092	1338.05	458.2
1031.6452	3042.3455	1344.75	462.8
1031.7554	3043.3811	1337.4	457.15
1031.8656	3044.4161	1334.45	451.05
1031.9758	3045.4505	1321.65	442.85
1032.0859	3046.4842	1321.7	440.55
1032.1959	3047.5173	1311.7	430.25
1032.3059	3048.5498	1310.75	428.65
1032.4159	3049.5816	1296.75	414.3
1032.5258	3050.6128	1291.1	408.95
1032.6357	3051.6434	1290.05	406.6
1032.7455	3052.6734	1286.9	405.65
1032.8553	3053.7027	1274.2	392.45
1032.9651	3054.7314	1265.05	385.1
1033.0748	3055.7594	1266.1	384.05
1033.1845	3056.7868	1261.1	377.95
1033.2941	3057.8136	1252.15	370.9
1033.4037	3058.8398	1245.3	365.15
1033.5132	3059.8653	1237.8	356.8
1033.6227	3060.8902	1236.3	354.8
1033.7321	3061.9145	1232.35	353.75
1033.8415	3062.9381	1225.85	345.35
1033.9509	3063.9612	1240.95	345.5
1034.0602	3064.9835	1215.95	334.45
1034.1694	3066.0053	1209	324.4
1034.2787	3067.0264	1203.95	321.85
1034.3878	3068.0469	1197.65	314.85
1034.497	3069.0668	1193.35	311.05
1034.6061	3070.086	1177.4	297.2
1034.7151	3071.1046	1172.25	289.75
1034.8241	3072.1226	1161.35	279.05
1034.9331	3073.1399	1153.2	272.2
1035.042	3074.1567	1145.15	261.8
1035.1508	3075.1727	1137.05	253.95
1035.2597	3076.1882	1124.4	242.5
1035.3684	3077.203	1117.4	237.1
1035.4772	3078.2173	1107.1	225
1035.5859	3079.2308	1108.1	223.5
1035.6945	3080.2438	1099.35	215.9
1035.8031	3081.2561	1083.1	201.85
1035.9117	3082.2678	1078.55	198.85
1036.0202	3083.2789	1069.15	186.7
1036.1286	3084.2893	1063.95	183.15
1036.2371	3085.2991	1058.85	175.85
1036.3454	3086.3083	1061.85	175.2
1036.4538	3087.3169	1050.1	166.4
1036.562	3088.3248	1049.4	166.7
1036.6703	3089.3321	1040.1	156.25
1036.7785	3090.3388	1038.85	159.3
1036.8866	3091.3449	1028.8	146.45
1036.9948	3092.3503	1032.8	148.5
1037.1028	3093.3551	1024.65	144.85
1037.2108	3094.3593	1020.5	139.05
1037.3188	3095.3629	1018.3	136.95
1037.4267	3096.3658	1015.05	132.15
1037.5346	3097.3681	1014.35	133.95
1037.6425	3098.3698	1014.35	130.65
1037.7503	3099.3708	1014.65	127.65
1037.858	3100.3713	1004	122.65
1037.9657	3101.3711	1003.55	120.45
1038.0734	3102.3702	1147.05	124.8
1038.181	3103.3688	999	117.25
1038.2886	3104.3667	996.85	116.75
1038.3961	3105.364	996.75	115.85
1038.5036	3106.3607	999.15	115.5
1038.611	3107.3568	996.5	114.3
1038.7184	3108.3522	992.55	112.2
1038.8257	3109.347	992.6	112
1038.933	3110.3412	994.75	108
1039.0403	3111.3348	991.75	109.9
1039.1475	3112.3277	991.25	110.2
1039.2547	3113.32	991	110.25
1039.3618	3114.3117	983.75	104.05
1039.4689	3115.3028	986.25	106.05
1039.5759	3116.2932	984.45	102.55
1039.6829	3117.2831	992.9	105.85
1039.7898	3118.2723	982.25	101.55
1039.8967	3119.2608	980.5	99.55
1040.0035	3120.2488	980.45	98.25
1040.1103	3121.2361	981.15	98
1040.2171	3122.2229	979.4	96.8
1040.3238	3123.209	979.15	96.1
1040.4305	3124.1944	977.55	97.4
1040.5371	3125.1793	978.05	97.3
1040.6437	3126.1635	974.55	94.75
1040.7502	3127.1471	974.1	94
1040.8567	3128.1301	974.2	92.45
1040.9631	3129.1125	972	90.65
1041.0695	3130.0942	970.45	89.05
1041.1759	3131.0753	977.1	87.6
1041.2822	3132.0558	972.55	87.6
1041.3884	3133.0357	967.45	87.45
1041.4946	3134.015	967.9	85.15
1041.6008	3134.9936	969.1	87.6
1041.7069	3135.9716	987.35	81.4
1041.813	3136.949	968.1	85.35
1041.919	3137.9258	980.25	81.1
1042.025	3138.902	969.75	85.3
1042.1309	3139.8775	964.4	86.55
1042.2368	3140.8524	958.7	78.55
1042.3427	3141.8267	961.9	81.1
1042.4485	3142.8004	959.45	79.4
1042.5542	3143.7735	964.75	77.8
1042.6599	3144.7459	959.8	77.2
1042.7656	3145.7178	956.8	75.85
1042.8712	3146.689	955.35	75.65
1042.9768	3147.6596	956.8	72.6
1043.0823	3148.6295	953.2	70.2
1043.1878	3149.5989	952	70.95
1043.2932	3150.5676	950.9	69.4
1043.3986	3151.5357	949.05	68.1
1043.5039	3152.5032	953.85	75.95
1043.6092	3153.4701	952.15	71
1043.7145	3154.4364	956.65	73.05
1043.8197	3155.402	948.55	70.05
1043.9248	3156.367	950.75	68.8
1044.03	3157.3315	991.55	65.6
1044.135	3158.2952	948.2	65.55
1044.24	3159.2584	947.05	66.8
1044.345	3160.221	946	65.35
1044.4499	3161.1829	948.75	68.85
1044.5548	3162.1442	946	66
1044.6596	3163.105	944.15	62.2
1044.7644	3164.065	943.9	63.95
1044.8692	3165.0245	946.8	62.6
1044.9739	3165.9834	939.15	60.5
1045.0785	3166.9416	940.65	59.15
1045.1831	3167.8993	942.1	62.65
1045.2877	3168.8563	945.85	64.1
1045.3922	3169.8127	939.45	59.75
1045.4966	3170.7684	940.85	58.7
1045.6011	3171.7236	944.1	63.25
1045.7054	3172.6782	939.55	56.9
1045.8098	3173.6321	939.5	56.55
1045.914	3174.5854	943.95	58
1046.0183	3175.5381	939.75	59.95
1046.1224	3176.4902	937.15	57.75
1046.2266	3177.4417	936.4	55.5
1046.3307	3178.3926	939	58.85
1046.4347	3179.3428	938.8	59.7
1046.5387	3180.2924	936.95	55.05
1046.6427	3181.2415	935.55	53.85
1046.7466	3182.1899	937.8	57.35
1046.8504	3183.1377	937	56.2
1046.9542	3184.0848	935.4	50.7
1047.058	3185.0314	936.5	56.2
1047.1617	3185.9773	935.3	55.95
1047.2654	3186.9227	935.75	53.3
1047.369	3187.8674	932.15	50.15
1047.4726	3188.8115	938.65	53
1047.5761	3189.755	935.1	55.3
1047.6796	3190.6979	932.45	51.8
1047.783	3191.6402	933.2	55.15
1047.8864	3192.5818	933.45	51.1
1047.9898	3193.5229	949.55	47.85
1048.0931	3194.4633	932.45	53.65
1048.1963	3195.4031	930.45	50.6
1048.2995	3196.3423	931.15	50.3
1048.4027	3197.2809	930.9	48.95
1048.5058	3198.2189	928.8	46.5
1048.6089	3199.1563	947.25	48.85
1048.7119	3200.0931	929.95	51.05
1048.8148	3201.0292	929.15	47.95
1048.9178	3201.9648	927.15	47.45
1049.0206	3202.8997	931.55	45.65
1049.1235	3203.834	927	44.85
1049.2262	3204.7677	930.8	49.35
1049.329	3205.7008	927.2	42.75
1049.4317	3206.6333	926.45	47.5
1049.5343	3207.5652	930.65	46.05
1049.6369	3208.4964	929.65	49.95
1049.7394	3209.4271	925.65	45.9
1049.8419	3210.3571	925.65	44.45
1049.9444	3211.2865	926.3	44.7
1050.0468	3212.2154	929.6	47.85
1050.1491	3213.1436	929.3	46.65
1050.2514	3214.0712	932.55	45.4
1050.3537	3214.9982	924.9	45.85
1050.4559	3215.9246	928.4	45.95
1050.5581	3216.8503	924.3	44.6
1050.6602	3217.7755	924.65	43.15
1050.7623	3218.7001	925.55	44.1
1050.8643	3219.624	922.9	42.85
1050.9663	3220.5473	924.75	44
1051.0682	3221.4701	924.15	42.25
1051.1701	3222.3922	924.4	40.15
1051.2719	3223.3137	923.8	42.9
1051.3737	3224.2346	921.95	41.15
1051.4754	3225.1549	924.35	45.15
1051.5771	3226.0746	920.55	38.95
1051.6788	3226.9937	924	41.25
1051.7804	3227.9121	921.7	42.55
1051.8819	3228.83	922.6	44.2
1051.9834	3229.7473	925.6	43.2
1052.0849	3230.6639	921.95	43.85
1052.1863	3231.5799	920.15	40.55
1052.2876	3232.4954	920.6	39.7
1052.3889	3233.4102	920.85	39.75
1052.4902	3234.3244	922.65	40.75
1052.5914	3235.238	922.65	40.95
1052.6926	3236.151	946.15	43.3
1052.7937	3237.0634	920.25	40.4
1052.8948	3237.9752	918	36.8
1052.9958	3238.8864	919.9	38.8
1053.0968	3239.797	920.2	41.05
1053.1977	3240.7069	921.2	40.8
1053.2986	3241.6163	923.1	41.9
1053.3994	3242.5251	920	40.2
1053.5002	3243.4332	913.05	32.55
1053.6009	3244.3408	920.15	38
1053.7016	3245.2477	916.75	33.95
1053.8022	3246.154	919.2	37.95
1053.9028	3247.0598	919.85	38.05
1054.0034	3247.9649	915.4	35
1054.1039	3248.8694	917.9	37.25
1054.2043	3249.7733	917.3	37.35
1054.3047	3250.6766	917.2	38.3
1054.4051	3251.5793	919.85	37.35
1054.5054	3252.4814	914.05	35
1054.6056	3253.3829	915.25	36.1
1054.7058	3254.2838	914.5	35.5
1054.806	3255.1841	912.7	32.45
1054.9061	3256.0838	915	34
1055.0061	3256.9829	912.15	32.95
1055.1062	3257.8814	914.95	33.25
1055.2061	3258.7792	915	32.9
1055.306	3259.6765	914.9	32.8
1055.4059	3260.5731	914	33.6
1055.5057	3261.4692	910.85	29.3
1055.6055	3262.3647	909.75	30
1055.7052	3263.2595	910.3	30.65
1055.8049	3264.1538	909.15	27.7
1055.9045	3265.0474	910.7	30.8
1056.0041	3265.9404	908.15	28.15
1056.1036	3266.8329	906.1	24.85
1056.2031	3267.7247	916.7	26.5
1056.3025	3268.616	907.45	29.8
1056.4019	3269.5066	906.5	26.1
1056.5013	3270.3966	907.6	24.7
1056.6005	3271.286	905.25	25.3
