Software Version:	3.9.2.0
Unit SN:	10000200
Spectrometer SN:	6960
Date:	3/14/2024 1:20:27 PM
Data Line Index:	25
Spectral Points:	2048
Integration time (ms):	125
Averages:	20
Delay (ms):	30000
Sequence Number:	1
Processing:	dark subtract
Laser Power (mW):	300
Laser Current (mA):	825
Laser Diode Temp (C):	25.1
Laser Case Temp (C):	28.3
System Temp (C):	28.3
Spectrometer Temp (C):	26.1
CCD Temp (C):	0.013
Secondary Temp (C):	20.007
Heatsink Temp (C):	24.256
CCDPCB Temp (C):	37.641
SecondaryPCB Temp (C):	35.507

Wavelength	RamanShift	Raw Counts	Dark Subtracted
787.061	30.1047	421.35	9.45
787.2016	32.3739	421.5	11.95
787.3422	34.6426	425.2	14.9
787.4828	36.9109	425.65	11.45
787.6235	39.1787	433.45	16.95
787.7642	41.4461	436.8	13.95
787.9049	43.7131	441.9	15.45
788.0456	45.9796	444.7	18.6
788.1863	48.2456	450.9	20.25
788.3271	50.5112	454.15	18.35
788.4679	52.7764	459.8	23.1
788.6087	55.0411	464.55	23.25
788.7496	57.3054	469.75	23.7
788.8904	59.5692	472.7	23.9
789.0313	61.8326	477.85	24.5
789.1722	64.0955	486.1	30.25
789.3132	66.3579	495.2	32.2
789.4541	68.6199	500.9	35.8
789.5951	70.8815	510.9	41.35
789.7361	73.1426	532.1	59.55
789.8771	75.4032	586.55	109.9
790.0181	77.6634	701.55	218.35
790.1592	79.9231	977.35	489.8
790.3003	82.1824	1555.25	1058.15
790.4414	84.4412	2539.3	2029.9
790.5825	86.6995	3870.1	3340.45
790.7237	88.9574	5177.6	4630.15
790.8648	91.2148	6121.35	5565.35
791.006	93.4717	6588.6	6022.95
791.1472	95.7282	6723.45	6151.05
791.2885	97.9842	6716	6146.5
791.4297	100.2398	6617	6041.1
791.571	102.4949	6526.85	5948.75
791.7123	104.7495	6401.95	5819.75
791.8536	107.0036	6267.5	5683.8
791.9949	109.2573	6130.05	5547.7
792.1363	111.5105	5992.3	5405.75
792.2777	113.7632	5870.1	5282.35
792.4191	116.0154	5751.2	5152.15
792.5605	118.2672	5653.15	5060.95
792.7019	120.5185	5550.55	4961.4
792.8434	122.7693	5468.9	4874.4
792.9849	125.0197	5405.35	4805.75
793.1264	127.2696	5343.35	4740.15
793.2679	129.519	5328.6	4730.3
793.4094	131.7679	5266.95	4661.65
793.551	134.0163	5233.5	4626.25
793.6926	136.2642	5206.45	4593.75
793.8342	138.5117	5170.7	4553.6
793.9758	140.7587	5091.05	4471.95
794.1175	143.0052	5037.45	4416.85
794.2591	145.2512	4976.15	4355.2
794.4008	147.4967	4908.7	4289.3
794.5425	149.7417	4864.45	4240.8
794.6842	151.9863	4825.05	4199
794.826	154.2304	4799.1	4170.9
794.9677	156.4739	4787.65	4148.1
795.1095	158.717	4787.75	4153.2
795.2513	160.9596	4784.9	4146.35
795.3931	163.2017	4745.5	4105
795.535	165.4433	4735.95	4091.7
795.6768	167.6844	4689.8	4045.5
795.8187	169.925	4647.1	3996.8
795.9606	172.1651	4565.9	3915.35
796.1025	174.4047	4507.85	3852.05
796.2445	176.6439	4462.3	3808.55
796.3864	178.8825	4412.8	3754.95
796.5284	181.1206	4394.35	3733.9
796.6704	183.3582	4386.5	3722.4
796.8124	185.5954	4361.4	3694.65
796.9544	187.832	4367.55	3697.45
797.0965	190.0681	4367.1	3692.95
797.2386	192.3037	4372.4	3696.3
797.3806	194.5388	4364.1	3686.1
797.5228	196.7734	4379.25	3696.2
797.6649	199.0075	4383.2	3696.8
797.807	201.2411	4412.2	3724.4
797.9492	203.4742	4428.45	3741.3
798.0914	205.7068	4451.95	3765.5
798.2336	207.9389	4460.2	3772.15
798.3758	210.1704	4496	3804.5
798.518	212.4015	4496.35	3801.55
798.6603	214.632	4518.4	3821.95
798.8025	216.862	4532.4	3843.45
798.9448	219.0915	4551.25	3871.9
799.0871	221.3205	4544.05	3866
799.2294	223.549	4546.55	3873.55
799.3718	225.777	4556.6	3882.6
799.5141	228.0044	4543.25	3867.05
799.6565	230.2314	4556.7	3882.8
799.7989	232.4578	4539.75	3865.6
799.9413	234.6837	4547.85	3865.15
800.0837	236.909	4545.45	3861.3
800.2262	239.1339	4551.35	3842.15
800.3687	241.3582	4529.3	3836.25
800.5111	243.582	4531.45	3814.85
800.6536	245.8053	4542.85	3827.85
800.7961	248.0281	4513.25	3805.95
800.9387	250.2503	4532.8	3820.85
801.0812	252.472	4538.75	3821.3
801.2238	254.6932	4561.3	3841.65
801.3664	256.9139	4560.3	3840.15
801.509	259.134	4591.35	3867.9
801.6516	261.3536	4615.55	3894.75
801.7942	263.5727	4688.9	3961.5
801.9369	265.7912	4727.9	4004.35
802.0795	268.0092	4791.7	4071.45
802.2222	270.2267	4835.2	4108.5
802.3649	272.4436	4883.45	4156.05
802.5076	274.6601	4895.25	4161.55
802.6504	276.8759	4912.3	4185.75
802.7931	279.0913	4897.95	4170.55
802.9359	281.3061	4906.2	4173.8
803.0787	283.5204	4909.55	4175.05
803.2215	285.7341	4914.9	4176.5
803.3643	287.9473	4932.15	4185.05
803.5071	290.16	4914.05	4169.5
803.6499	292.3721	4915.95	4175.85
803.7928	294.5837	4912.3	4172.25
803.9357	296.7947	4903.35	4165.2
804.0786	299.0052	4924.3	4184.4
804.2215	301.2152	4914.45	4170.15
804.3644	303.4246	4873.6	4130.8
804.5074	305.6334	4820.2	4076.8
804.6503	307.8418	4777.05	4029.65
804.7933	310.0495	4717.95	3973.85
804.9363	312.2568	4643.4	3901.15
805.0793	314.4635	4567.95	3820.35
805.2223	316.6696	4496.2	3748.25
805.3653	318.8752	4442.4	3684.55
805.5084	321.0802	4396.05	3644.95
805.6514	323.2847	4410.75	3658.15
805.7945	325.4887	4420.05	3670.65
805.9376	327.692	4413.1	3662.1
806.0807	329.8949	4411.8	3661.5
806.2238	332.0972	4415	3660.4
806.367	334.2989	4405.1	3645.4
806.5101	336.5001	4368.25	3607.55
806.6533	338.7007	4333.55	3577.55
806.7965	340.9008	4282.7	3525.1
806.9397	343.1003	4252.6	3490.5
807.0829	345.2992	4206.45	3441.95
807.2261	347.4976	4188.1	3425.2
807.3693	349.6955	4154.35	3386.15
807.5126	351.8927	4130	3361.2
807.6559	354.0895	4103.6	3321.65
807.7991	356.2856	4098.6	3328.55
807.9424	358.4812	4075.75	3305.4
808.0857	360.6763	4078.35	3307.4
808.2291	362.8707	4065	3293.1
808.3724	365.0646	4060.9	3287.55
808.5158	367.258	4067.55	3292.65
808.6591	369.4508	4076.2	3295.4
808.8025	371.643	4102.2	3322.7
808.9459	373.8346	4116.4	3334.15
809.0893	376.0257	4136.5	3352.1
809.2327	378.2162	4156.55	3373.85
809.3762	380.4062	4162.55	3378.15
809.5196	382.5956	4121.1	3332.1
809.6631	384.7844	4108.95	3317.7
809.8066	386.9726	4068.1	3277.3
809.9501	389.1603	4033.7	3246.9
810.0936	391.3474	4040.1	3221.2
810.2371	393.5339	4019.55	3229.15
810.3806	395.7199	3997.1	3212.95
810.5241	397.9052	4012.65	3232.7
810.6677	400.09	4046.2	3266
810.8113	402.2743	4063.85	3283
810.9548	404.4579	4098.85	3318.9
811.0984	406.641	4151.45	3370.4
811.2421	408.8235	4181.25	3398.25
811.3857	411.0054	4224.2	3438.1
811.5293	413.1868	4305.75	3518.75
811.673	415.3675	4333.35	3546.75
811.8166	417.5477	4300.95	3515.8
811.9603	419.7273	4244.55	3453.45
812.104	421.9064	4170.15	3373.55
812.2477	424.0848	4130.95	3336.55
812.3914	426.2627	4093.45	3297.65
812.5351	428.4399	4041	3243.15
812.6788	430.6166	3954	3152.3
812.8226	432.7928	3894.85	3089.9
812.9663	434.9683	3832.15	3029.7
813.1101	437.1432	3808.45	3004.6
813.2539	439.3176	3753.35	2949.5
813.3977	441.4914	3751.2	2945.4
813.5415	443.6645	3740.05	2932.9
813.6853	445.8371	3732.15	2924.65
813.8291	448.0091	3713.3	2906.2
813.973	450.1806	3702.8	2898
814.1168	452.3514	3698.95	2888.35
814.2607	454.5216	3703.1	2887.65
814.4046	456.6913	3679.8	2869.95
814.5485	458.8603	3688.45	2878.5
814.6924	461.0288	3683.8	2872.75
814.8363	463.1967	3673.2	2862.25
814.9802	465.3639	3683.5	2871
815.1241	467.5306	3667.6	2851.75
815.2681	469.6967	3649.4	2836.5
815.412	471.8622	3645.9	2835.05
815.556	474.0271	3641.7	2830.5
815.7	476.1914	3648.45	2834.45
815.844	478.3551	3643.65	2827.25
815.988	480.5182	3637.35	2821.9
816.132	482.6807	3670.65	2853.35
816.276	484.8426	3680.8	2862.9
816.4201	487.0039	3730.5	2912.7
816.5641	489.1647	3786.3	2971.75
816.7082	491.3248	3835.45	3019.2
816.8522	493.4843	3864.25	3050.75
816.9963	495.6432	3857.8	3040.1
817.1404	497.8015	3821.7	2998.65
817.2845	499.9592	3777.15	2960.25
817.4286	502.1163	3720.25	2902.9
817.5727	504.2728	3659.8	2839.5
817.7168	506.4287	3625.5	2804.05
817.861	508.5839	3588.45	2768.4
818.0051	510.7386	3542.55	2720.55
818.1493	512.8927	3550.75	2722.9
818.2935	515.0461	3561.15	2739.95
818.4377	517.199	3558.2	2735.4
818.5818	519.3512	3602.1	2779.75
818.726	521.5029	3685.5	2859.3
818.8703	523.6539	3721.6	2895.95
819.0145	525.8043	3736.3	2911.05
819.1587	527.9541	3703.85	2877.55
819.303	530.1033	3641.7	2815.8
819.4472	532.2519	3584.85	2757.55
819.5915	534.3999	3562.5	2733.65
819.7357	536.5472	3552.6	2724.85
819.88	538.694	3558.55	2730
820.0243	540.8401	3588.6	2759.85
820.1686	542.9856	3634.85	2805.65
820.3129	545.1305	3622.85	2793.65
820.4572	547.2748	3629.15	2796.9
820.6016	549.4185	3630.85	2797.7
820.7459	551.5615	3614.25	2780.2
820.8902	553.704	3626.95	2794.35
821.0346	555.8458	3642.25	2808.75
821.1789	557.987	3657.05	2825.3
821.3233	560.1276	3705.35	2871.35
821.4677	562.2675	3768.15	2935.3
821.6121	564.4069	3831.8	3003.8
821.7565	566.5456	3908.95	3077.5
821.9009	568.6837	3917.1	3084.45
822.0453	570.8212	3834.35	3001.75
822.1897	572.958	3739.15	2903.15
822.3342	575.0942	3632.65	2800.15
822.4786	577.2299	3560.5	2725.65
822.6231	579.3648	3507.65	2673.1
822.7675	581.4992	3499.75	2666.6
822.912	583.6329	3521.35	2688.05
823.0565	585.766	3537.6	2704.2
823.201	587.8985	3582.3	2748.3
823.3454	590.0304	3619.4	2761.4
823.4899	592.1616	3620.05	2781.6
823.6345	594.2922	3602.75	2768.8
823.779	596.4222	3551.05	2715.2
823.9235	598.5515	3483.35	2644.3
824.068	600.6802	3434.1	2596.85
824.2126	602.8083	3400.65	2564.2
824.3571	604.9358	3386.95	2546.7
824.5017	607.0626	3389.25	2550.45
824.6462	609.1888	3395	2555
824.7908	611.3144	3450.2	2607.35
824.9354	613.4393	3460.1	2621.65
825.08	615.5636	3488.75	2649.65
825.2246	617.6873	3526.85	2685.5
825.3692	619.8103	3532.75	2689.3
825.5138	621.9327	3500	2655.5
825.6584	624.0544	3458.55	2617.25
825.803	626.1756	3416.75	2578.25
825.9477	628.2961	3359.95	2518.8
826.0923	630.4159	3354.55	2510.55
826.237	632.5351	3361.6	2516.4
826.3816	634.6537	3322	2481.05
826.5263	636.7716	3314.05	2469.85
826.6709	638.8889	3317.2	2474.25
826.8156	641.0056	3319.75	2477.55
826.9603	643.1216	3319.6	2476.1
827.105	645.237	3300.35	2452.6
827.2497	647.3518	3289.7	2442.55
827.3944	649.4659	3278.6	2433.55
827.5391	651.5793	3252.15	2407
827.6838	653.6922	3227.8	2381.8
827.8285	655.8043	3227.95	2382.65
827.9733	657.9159	3220.3	2372.7
828.118	660.0268	3218.1	2367.8
828.2627	662.137	3204.7	2354.8
828.4075	664.2466	3207.1	2356.55
828.5522	666.3556	3210.3	2364.7
828.697	668.4639	3202.8	2352.75
828.8418	670.5716	3182.7	2334.75
828.9865	672.6786	3183.7	2332.9
829.1313	674.785	3146.25	2295.15
829.2761	676.8907	3143.55	2295.9
829.4209	678.9958	3151.2	2303.05
829.5657	681.1002	3140.6	2288.75
829.7105	683.204	3142.45	2292.05
829.8553	685.3072	3135	2284.5
830.0001	687.4097	3123.9	2273.45
830.1449	689.5115	3125.1	2269.25
830.2898	691.6127	3132.05	2280.95
830.4346	693.7132	3119.55	2264.4
830.5794	695.8131	3131.6	2266.8
830.7243	697.9123	3137.75	2283.5
830.8691	700.0109	3141.5	2286.95
831.014	702.1089	3144.85	2291.15
831.1588	704.2061	3154.95	2300.8
831.3037	706.3028	3165.5	2310.9
831.4486	708.3987	3180.15	2327.65
831.5935	710.4941	3190.65	2339.1
831.7383	712.5887	3200.45	2346.55
831.8832	714.6827	3200.85	2342.35
832.0281	716.7761	3193.15	2337.1
832.173	718.8688	3205	2348.55
832.3179	720.9608	3220.85	2361.15
832.4628	723.0522	3250.6	2392.35
832.6077	725.1429	3258.45	2404.9
832.7527	727.233	3301.9	2444.2
832.8976	729.3224	3339.35	2482.35
833.0425	731.4112	3359.65	2500.75
833.1874	733.4993	3346.65	2486.35
833.3324	735.5867	3295.3	2437.3
833.4773	737.6735	3243.95	2386.55
833.6222	739.7596	3178.5	2321.25
833.7672	741.845	3157.3	2299.85
833.9122	743.9298	3125.1	2264.7
834.0571	746.014	3142.8	2284.2
834.2021	748.0974	3128.95	2269
834.347	750.1802	3127.4	2268.3
834.492	752.2624	3114.4	2256.45
834.637	754.3439	3094.1	2232.7
834.782	756.4247	3115.15	2247.35
834.9269	758.5048	3117.05	2258.05
835.0719	760.5843	3150.25	2290.4
835.2169	762.6631	3210.5	2351.1
835.3619	764.7413	3290.05	2429.95
835.5069	766.8188	3402.15	2539.2
835.6519	768.8956	3495.25	2634.05
835.7969	770.9718	3574.4	2714.2
835.9419	773.0473	3566.3	2708.25
836.0869	775.1221	3538.7	2679.15
836.232	777.1962	3510.05	2650
836.377	779.2697	3526.25	2665.55
836.522	781.3426	3585.35	2712.45
836.667	783.4147	3611.8	2750.3
836.8121	785.4862	3600.8	2741.1
836.9571	787.557	3527.25	2666.1
837.1021	789.6271	3410.1	2546.7
837.2472	791.6966	3279.35	2415.55
837.3922	793.7654	3176.85	2314.45
837.5373	795.8335	3098.45	2237.2
837.6823	797.901	3046.2	2183.05
837.8274	799.9678	3013.1	2146.95
837.9724	802.0339	3012.4	2151.35
838.1175	804.0993	3005.95	2132.25
838.2626	806.1641	2986.5	2121.85
838.4076	808.2282	2959	2092.65
838.5527	810.2916	2947.7	2081.05
838.6978	812.3544	2929.1	2066.05
838.8428	814.4164	2909.15	2046.75
838.9879	816.4778	2918.4	2055.75
839.133	818.5385	2931.3	2068.35
839.2781	820.5986	2965.95	2100.95
839.4232	822.658	3006.6	2141.35
839.5682	824.7166	3071.05	2208.9
839.7133	826.7747	3180.4	2316.25
839.8584	828.832	3279.95	2413.1
840.0035	830.8886	3360	2494.8
840.1486	832.9446	3373.75	2507.3
840.2937	834.9999	3336.25	2471.35
840.4388	837.0545	3288.15	2419.05
840.5839	839.1085	3181.45	2315.5
840.729	841.1618	3111.45	2242.65
840.8741	843.2143	3051.45	2186.6
841.0192	845.2662	3002.85	2135.15
841.1643	847.3175	2987.75	2123.65
841.3095	849.368	2948	2082
841.4546	851.4179	2933.6	2066.9
841.5997	853.467	2921.85	2056.55
841.7448	855.5155	2934.5	2067.85
841.8899	857.5633	2918.95	2051.35
842.0351	859.6105	2892.95	2026.15
842.1802	861.6569	2882.1	2016.05
842.3253	863.7027	2867.3	1999.8
842.4704	865.7478	2863.65	1991
842.6156	867.7922	2851.5	1974.75
842.7607	869.8359	2835.8	1964.55
842.9058	871.8789	2841.95	1975.2
843.0509	873.9212	2863.35	1961.85
843.1961	875.9629	2841.25	1974.45
843.3412	878.0039	2854.2	1984.7
843.4863	880.0441	2859.15	1992.6
843.6315	882.0837	2882.8	2013.15
843.7766	884.1226	2898.9	2028.9
843.9218	886.1609	2925.6	2059.8
844.0669	888.1984	2972.15	2106.85
844.212	890.2352	3008.15	2140.35
844.3572	892.2714	2993.3	2122.2
844.5023	894.3069	2984.3	2115.6
844.6475	896.3416	2929.25	2059.65
844.7926	898.3757	2906.3	2035.65
844.9377	900.4091	2884.65	2015.7
845.0829	902.4418	2875.65	2001.6
845.228	904.4739	2873.85	2001.4
845.3732	906.5052	2875.85	2005.6
845.5183	908.5358	2876.05	2006.5
845.6635	910.5658	2856.4	1983.25
845.8086	912.595	2819.65	1948.45
845.9538	914.6236	2765.6	1896.5
846.0989	916.6515	2752.45	1884.4
846.2441	918.6786	2710.4	1840.9
846.3892	920.7051	2706.05	1834.9
846.5344	922.7309	2707.45	1836.7
846.6795	924.756	2718.55	1847.1
846.8246	926.7804	2721.6	1848.35
846.9698	928.8041	2709.9	1836.95
847.1149	930.8272	2723.35	1852.25
847.2601	932.8495	2721.6	1852.35
847.4052	934.8711	2732.7	1862.15
847.5504	936.892	2739	1868.6
847.6955	938.9123	2740.9	1869.15
847.8407	940.9318	2747.6	1875.05
847.9858	942.9506	2748.05	1876.5
848.131	944.9688	2746.55	1877.25
848.2761	946.9862	2726.55	1854.7
848.4213	949.003	2684.95	1813.2
848.5664	951.019	2641.75	1769
848.7115	953.0344	2631.95	1760.35
848.8567	955.0491	2638	1764.15
849.0018	957.063	2642.2	1769.95
849.147	959.0763	2635.75	1763.05
849.2921	961.0888	2634.35	1761.8
849.4373	963.1007	2642.05	1770.05
849.5824	965.1119	2628.9	1756.1
849.7275	967.1223	2619.4	1747.8
849.8727	969.1321	2605.45	1734.5
850.0178	971.1412	2607.85	1733.75
850.1629	973.1495	2597.6	1724.85
850.3081	975.1572	2634.75	1729
850.4532	977.1641	2607.25	1734.25
850.5983	979.1704	2596.15	1723.1
850.7435	981.1759	2597.9	1721.1
850.8886	983.1808	2584.8	1710.9
851.0337	985.1849	2586.95	1704.35
851.1788	987.1884	2591.5	1715.85
851.324	989.1911	2602.15	1726.45
851.4691	991.1932	2589.95	1714.15
851.6142	993.1945	2602.45	1727.75
851.7593	995.1951	2578.75	1706.2
851.9045	997.1951	2590.05	1711.8
852.0496	999.1943	2586	1715.15
852.1947	1001.1928	2568.15	1694.25
852.3398	1003.1906	2588.8	1712.3
852.4849	1005.1877	2602.35	1726.2
852.63	1007.1841	2625.95	1749.75
852.7751	1009.1798	2629.35	1757.45
852.9202	1011.1748	2627.05	1752.35
853.0653	1013.1691	2595.75	1721
853.2104	1015.1627	2560.65	1686.2
853.3555	1017.1556	2519.95	1644.85
853.5006	1019.1477	2497.65	1625.05
853.6457	1021.1392	2484.1	1611.05
853.7908	1023.1299	2460.9	1586.25
853.9359	1025.12	2458.6	1580.15
854.081	1027.1093	2465	1588.1
854.2261	1029.0979	2479.85	1605.5
854.3712	1031.0859	2509.7	1635
854.5163	1033.0731	2509.65	1633.1
854.6613	1035.0596	2510	1635.35
854.8064	1037.0454	2480.05	1603.05
854.9515	1039.0304	2463.35	1587.5
855.0965	1041.0148	2441.25	1567.65
855.2416	1042.9985	2429.6	1552.35
855.3867	1044.9814	2416.25	1542.6
855.5317	1046.9636	2411.8	1533.75
855.6768	1048.9452	2405.25	1531.85
855.8219	1050.926	2417.45	1543.9
855.9669	1052.9061	2419.65	1545.3
856.112	1054.8855	2423.9	1547.95
856.257	1056.8642	2427.95	1550.3
856.4021	1058.8421	2429.15	1548.75
856.5471	1060.8194	2424.3	1549.3
856.6921	1062.7959	2419.8	1544.3
856.8372	1064.7717	2427.65	1551.15
856.9822	1066.7469	2427.05	1550
857.1272	1068.7213	2451.85	1574.25
857.2723	1070.695	2461.55	1586.9
857.4173	1072.6679	2484.1	1609.7
857.5623	1074.6402	2495.3	1619.25
857.7073	1076.6117	2491.15	1611.45
857.8523	1078.5826	2480.55	1604.6
857.9973	1080.5527	2433.3	1554.5
858.1423	1082.5221	2396.3	1519.85
858.2873	1084.4908	2383.8	1506.9
858.4323	1086.4587	2375.9	1500.75
858.5773	1088.426	2367.15	1489
858.7223	1090.3925	2369.2	1490.4
858.8673	1092.3584	2382.4	1503.7
859.0123	1094.3235	2367.1	1490.05
859.1573	1096.2879	2389.15	1511.85
859.3022	1098.2515	2419.7	1544.1
859.4472	1100.2145	2452.5	1576.9
859.5922	1102.1767	2504.05	1626.25
859.7371	1104.1382	2528.15	1650.6
859.8821	1106.099	2580.95	1700.55
860.027	1108.0591	2625.05	1748.1
860.172	1110.0185	2650.15	1773.1
860.3169	1111.9771	2700.1	1824.3
860.4619	1113.9351	2713.4	1835.85
860.6068	1115.8923	2728.35	1851.5
860.7517	1117.8488	2723.3	1844.4
860.8967	1119.8045	2668	1790.8
861.0416	1121.7596	2604.25	1725.7
861.1865	1123.7139	2527.8	1654.3
861.3314	1125.6675	2506.5	1630.4
861.4763	1127.6204	2501.65	1624.35
861.6212	1129.5726	2506.95	1627.5
861.7661	1131.524	2491.85	1616.9
861.911	1133.4748	2456.05	1578.7
862.0559	1135.4248	2407.4	1527.7
862.2008	1137.3741	2364.35	1487.95
862.3457	1139.3226	2337.7	1459
862.4905	1141.2705	2319.8	1442.3
862.6354	1143.2176	2328.6	1445.5
862.7803	1145.164	2318.8	1441.3
862.9251	1147.1097	2307.7	1429
863.07	1149.0546	2290.2	1408.7
863.2148	1150.9989	2265.9	1387
863.3597	1152.9424	2246.35	1365.2
863.5045	1154.8852	2221.85	1343.2
863.6493	1156.8272	2220.45	1342.1
863.7942	1158.7686	2233.3	1349.15
863.939	1160.7092	2234.55	1359.7
864.0838	1162.6491	2235.7	1354.4
864.2286	1164.5883	2241.9	1365.7
864.3734	1166.5267	2278.2	1399.25
864.5182	1168.4644	2296.6	1420.4
864.663	1170.4014	2338.55	1455.8
864.8078	1172.3377	2384.75	1506.9
864.9526	1174.2732	2439.5	1560.75
865.0974	1176.2081	2530.8	1651.45
865.2421	1178.1421	2648.85	1768.7
865.3869	1180.0755	2751.6	1874.25
865.5317	1182.0082	2809.2	1929.05
865.6764	1183.9401	2797.2	1920.35
865.8212	1185.8713	2726.45	1847.35
865.9659	1187.8017	2636.5	1757.3
866.1106	1189.7315	2531.2	1654.05
866.2554	1191.6605	2473.85	1564.7
866.4001	1193.5888	2412.25	1534
866.5448	1195.5163	2368	1489.05
866.6895	1197.4432	2338.85	1457.6
866.8342	1199.3693	2314.5	1435.85
866.9789	1201.2947	2315.05	1430.45
867.1236	1203.2193	2299.45	1421.75
867.2683	1205.1432	2291.5	1412.6
867.413	1207.0664	2294.25	1413.9
867.5576	1208.9889	2298.1	1416.4
867.7023	1210.9106	2286.35	1407
867.847	1212.8316	2285.75	1409.35
867.9916	1214.7519	2302.75	1415.5
868.1363	1216.6715	2314.35	1438.7
868.2809	1218.5903	2326.85	1449.65
868.4255	1220.5084	2344.25	1465.9
868.5701	1222.4257	2363.25	1483.25
868.7148	1224.3424	2372.4	1494.05
868.8594	1226.2583	2411.1	1528.6
869.004	1228.1735	2442.55	1564.15
869.1486	1230.0879	2479.8	1601.4
869.2932	1232.0016	2513.45	1635.15
869.4377	1233.9146	2552.6	1673.95
869.5823	1235.8269	2577.55	1699.8
869.7269	1237.7384	2576.85	1699.45
869.8715	1239.6492	2566.35	1685.75
870.016	1241.5592	2584	1703.8
870.1606	1243.4686	2620.5	1741.5
870.3051	1245.3772	2679.8	1801.95
870.4496	1247.285	2759.5	1880.9
870.5941	1249.1922	2836.25	1958.85
870.7387	1251.0986	2915	2037.25
870.8832	1253.0042	2941.8	2062.2
871.0277	1254.9092	3022.25	2142.3
871.1722	1256.8134	3054.8	2176.8
871.3167	1258.7169	3103.4	2222.55
871.4611	1260.6196	3104.1	2225.8
871.6056	1262.5216	3106.65	2224.15
871.7501	1264.4229	3118.55	2241
871.8945	1266.3234	3115.9	2235.5
872.039	1268.2232	3100.35	2219.15
872.1834	1270.1223	3086.25	2206.5
872.3278	1272.0207	3078.85	2196.95
872.4723	1273.9183	3077.4	2192.2
872.6167	1275.8151	3058.9	2179.35
872.7611	1277.7113	3101.5	2220.7
872.9055	1279.6067	3164.55	2284.25
873.0499	1281.5014	3253.85	2373.85
873.1943	1283.3953	3387.65	2506.35
873.3386	1285.2885	3534.05	2655.8
873.483	1287.181	3657.2	2776.25
873.6274	1289.0727	3728.35	2847.7
873.7717	1290.9637	3748.95	2869.4
873.9161	1292.854	3751.7	2870.95
874.0604	1294.7435	3706.45	2826.85
874.2047	1296.6323	3632	2751.35
874.349	1298.5204	3568.9	2683.15
874.4933	1300.4077	3504.1	2625.35
874.6376	1302.2943	3434.8	2553.45
874.7819	1304.1802	3374	2496.35
874.9262	1306.0653	3312.6	2429.75
875.0705	1307.9497	3239.85	2359.9
875.2147	1309.8333	3159.4	2279.8
875.359	1311.7162	3087.5	2208.2
875.5032	1313.5984	3050.9	2167.9
875.6475	1315.4798	3033.45	2138.75
875.7917	1317.3605	3000.45	2100.75
875.9359	1319.2405	2968.4	2086.55
876.0801	1321.1197	2911.45	2026.45
876.2243	1322.9982	2835.5	1952.25
876.3685	1324.876	2753.35	1872.5
876.5127	1326.753	2675.5	1792.45
876.6569	1328.6293	2605.3	1724
876.801	1330.5048	2544.5	1661.85
876.9452	1332.3796	2484.55	1604.65
877.0893	1334.2537	2465.5	1558.9
877.2335	1336.127	2414.15	1533.2
877.3776	1337.9996	2374.8	1496.35
877.5217	1339.8714	2373	1491.6
877.6658	1341.7426	2400.9	1477.1
877.8099	1343.6129	2367	1486.2
877.954	1345.4826	2349.85	1470.35
878.0981	1347.3515	2336.2	1453.5
878.2422	1349.2196	2333.45	1453.5
878.3862	1351.087	2322.75	1442.3
878.5303	1352.9537	2338.15	1458.25
878.6743	1354.8197	2349.45	1468.7
878.8184	1356.6849	2368	1489.5
878.9624	1358.5493	2397.45	1516.3
879.1064	1360.4131	2421.85	1542.1
879.2504	1362.276	2456.3	1577.4
879.3944	1364.1383	2483.75	1603.75
879.5384	1365.9998	2494.3	1609.5
879.6823	1367.8606	2454.75	1571.8
879.8263	1369.7206	2417.45	1536.4
879.9702	1371.5799	2391.8	1508.05
880.1142	1373.4384	2356.75	1475.8
880.2581	1375.2962	2303.45	1421.45
880.402	1377.1533	2255.3	1374.8
880.5459	1379.0096	2189.35	1308.45
880.6898	1380.8652	2131.15	1251.15
880.8337	1382.7201	2088.5	1209.25
880.9776	1384.5742	2049.05	1169.9
881.1215	1386.4275	2028.7	1145.35
881.2653	1388.2802	1998.25	1116.95
881.4092	1390.132	1971.1	1091.25
881.553	1391.9832	1973.6	1090.6
881.6968	1393.8336	1948.3	1070.1
881.8406	1395.6832	1941.3	1058.5
881.9844	1397.5322	1934	1052.85
882.1282	1399.3803	1930.15	1044.45
882.272	1401.2278	1906.3	1025.25
882.4158	1403.0745	1910	1027.8
882.5595	1404.9204	1895.55	1016.3
882.7033	1406.7656	1894.9	1014.05
882.847	1408.6101	1885.65	1001.95
882.9908	1410.4538	1900.45	1019.15
883.1345	1412.2968	1910.8	1031.6
883.2782	1414.139	1892	1011.15
883.4219	1415.9805	1903.05	1021.8
883.5656	1417.8213	1927.1	1039.65
883.7092	1419.6613	1936.85	1055.4
883.8529	1421.5006	1969.8	1086.3
883.9965	1423.3391	2008.45	1125.55
884.1402	1425.1769	2056.55	1173.85
884.2838	1427.0139	2145.15	1263.05
884.4274	1428.8502	2239.25	1357.95
884.571	1430.6858	2318.5	1437.2
884.7146	1432.5206	2375.75	1495.95
884.8582	1434.3547	2393.6	1512.35
885.0018	1436.188	2381.25	1501.3
885.1453	1438.0206	2365.55	1483.8
885.2889	1439.8524	2338	1455.9
885.4324	1441.6835	2324.45	1442.5
885.5759	1443.5139	2325.5	1439.35
885.7194	1445.3435	2327.65	1446.05
885.8629	1447.1724	2320	1439.25
886.0064	1449.0005	2310.8	1428.6
886.1499	1450.8279	2293.5	1409.85
886.2933	1452.6545	2295.75	1414.75
886.4368	1454.4804	2291.85	1412.2
886.5802	1456.3056	2297.95	1408.2
886.7237	1458.13	2279.25	1399.05
886.8671	1459.9536	2240.25	1359.3
887.0105	1461.7766	2212.05	1330.25
887.1539	1463.5987	2149.9	1266.2
887.2972	1465.4202	2105.55	1223
887.4406	1467.2409	2055.4	1174.45
887.584	1469.0608	2013	1133.25
887.7273	1470.88	1971.6	1088.4
887.8706	1472.6984	1935.85	1056.2
888.0139	1474.5161	1916.15	1029.95
888.1572	1476.3331	1884.55	1001.85
888.3005	1478.1493	1871.45	990.1
888.4438	1479.9648	1864.35	981.8
888.5871	1481.7795	1863.75	982.65
888.7303	1483.5935	1849.15	968.5
888.8736	1485.4067	1840.5	959.35
889.0168	1487.2192	1841.65	959.5
889.16	1489.031	1828.35	944.45
889.3032	1490.842	1828.95	946.05
889.4464	1492.6522	1823.75	942.75
889.5896	1494.4618	1815.15	932.35
889.7327	1496.2705	1805.65	925.95
889.8759	1498.0785	1800.7	918.5
890.019	1499.8858	1793.35	910.3
890.1622	1501.6924	1790.45	909.2
890.3053	1503.4981	1779.9	899.55
890.4484	1505.3032	1772.25	893.3
890.5914	1507.1075	1764.25	883.25
890.7345	1508.911	1752.55	872.35
890.8776	1510.7138	1748.85	867.7
891.0206	1512.5159	1742.35	860.4
891.1637	1514.3172	1737.1	857.05
891.3067	1516.1178	1727.35	846.65
891.4497	1517.9176	1726.35	841.75
891.5927	1519.7166	1723.45	843.8
891.7357	1521.515	1713.1	824.55
891.8786	1523.3126	1711.2	832
892.0216	1525.1094	1706.1	823.7
892.1645	1526.9055	1701.05	819.35
892.3074	1528.7008	1690.55	810.2
892.4503	1530.4954	1684.85	795.2
892.5932	1532.2893	1685.2	807.3
892.7361	1534.0824	1697.15	809.75
892.879	1535.8747	1684.35	805.3
893.0218	1537.6663	1684.9	803.55
893.1647	1539.4572	1683.55	800.9
893.3075	1541.2473	1683.95	802.35
893.4503	1543.0367	1689.25	808.3
893.5931	1544.8253	1692.25	805.4
893.7359	1546.6132	1695.4	811.55
893.8787	1548.4003	1710.6	818.1
894.0214	1550.1867	1717.8	827.9
894.1642	1551.9723	1735.6	851.85
894.3069	1553.7572	1733.35	851.15
894.4496	1555.5414	1762.8	882.65
894.5923	1557.3247	1797.75	916.05
894.735	1559.1074	1830.2	950.2
894.8777	1560.8893	1863.35	982.85
895.0204	1562.6705	1914.1	1032.5
895.163	1564.4509	1946.85	1068.75
895.3056	1566.2305	1958.3	1077.95
895.4482	1568.0094	1958.6	1078.7
895.5908	1569.7876	1956.05	1073.9
895.7334	1571.565	1953.7	1073.1
895.876	1573.3417	1952.35	1074.7
896.0186	1575.1176	1967.45	1085.95
896.1611	1576.8928	1970.9	1087.9
896.3036	1578.6672	1995.6	1112.95
896.4461	1580.4409	2015.8	1136.1
896.5886	1582.2138	2048.15	1167.5
896.7311	1583.986	2079.15	1196.85
896.8736	1585.7575	2102.6	1220.75
897.0161	1587.5282	2141.7	1263.15
897.1585	1589.2981	2181.6	1300.1
897.3009	1591.0673	2202.6	1321.35
897.4433	1592.8358	2214.85	1334.5
897.5857	1594.6035	2240.2	1356.75
897.7281	1596.3704	2236.45	1355.4
897.8705	1598.1366	2238.85	1356.5
898.0128	1599.9021	2222.95	1341.4
898.1551	1601.6668	2236.15	1353.3
898.2975	1603.4308	2231.3	1349.75
898.4398	1605.194	2258	1373
898.5821	1606.9564	2292.2	1412.15
898.7243	1608.7182	2358.85	1472.95
898.8666	1610.4791	2437.8	1556.1
899.0088	1612.2394	2531.45	1648.75
899.1511	1613.9988	2625.75	1743.45
899.2933	1615.7576	2680.4	1797.25
899.4355	1617.5156	2710.45	1825.6
899.5776	1619.2728	2669.15	1789.15
899.7198	1621.0293	2598	1718.1
899.862	1622.785	2513.3	1628.4
900.0041	1624.54	2385.5	1501.55
900.1462	1626.2942	2291.4	1410.1
900.2883	1628.0477	2185.55	1301.35
900.4304	1629.8005	2098.9	1214.1
900.5725	1631.5525	2027.5	1147.1
900.7145	1633.3037	1958.1	1075.25
900.8566	1635.0542	1905.35	1023.75
900.9986	1636.804	1870.8	990.85
901.1406	1638.553	1888.65	955.15
901.2826	1640.3013	1811.7	932.7
901.4245	1642.0488	1797.75	917.9
901.5665	1643.7955	1790.15	910.45
901.7085	1645.5416	1778.95	900.1
901.8504	1647.2868	1774.5	893.2
901.9923	1649.0313	1775.95	893.4
902.1342	1650.7751	1782.95	897.45
902.2761	1652.5181	1793.5	912.25
902.4179	1654.2604	1806.5	928
902.5598	1656.0019	1826.4	946.2
902.7016	1657.7427	1860.2	980.25
902.8434	1659.4828	1903	1022.9
902.9852	1661.222	1941.45	1058.25
903.127	1662.9606	1962.55	1084.4
903.2687	1664.6984	1969.65	1088.5
903.4105	1666.4354	1919.95	1039.8
903.5522	1668.1717	1849.75	970.95
903.6939	1669.9072	1778	895.6
903.8356	1671.642	1709.75	828.8
903.9773	1673.3761	1655.15	776.05
904.119	1675.1094	1610.85	729.85
904.2606	1676.8419	1580.95	700.65
904.4022	1678.5737	1556.65	674.75
904.5439	1680.3048	1526.5	647.7
904.6855	1682.0351	1515.95	635.65
904.827	1683.7646	1502.55	618.35
904.9686	1685.4934	1489.95	611
905.1101	1687.2215	1485.4	603.25
905.2517	1688.9488	1465.9	587.1
905.3932	1690.6754	1467.4	588.45
905.5347	1692.4012	1464.2	584.2
905.6761	1694.1263	1461.8	582.85
905.8176	1695.8506	1451.1	570.3
905.9591	1697.5742	1445.2	564.85
906.1005	1699.297	1441.6	562.95
906.2419	1701.0191	1431.1	550.5
906.3833	1702.7404	1422.95	544.1
906.5246	1704.461	1426.2	543.45
906.666	1706.1808	1425.95	543.1
906.8073	1707.8999	1417.45	535.55
906.9487	1709.6182	1413.35	532.2
907.09	1711.3358	1417.95	537.55
907.2313	1713.0527	1403.3	524.1
907.3725	1714.7688	1414.45	529.5
907.5138	1716.4841	1398.2	516.3
907.655	1718.1987	1406.25	519.95
907.7962	1719.9126	1398.05	519.15
907.9374	1721.6257	1396.4	511.5
908.0786	1723.338	1390.2	512.4
908.2198	1725.0496	1394.75	511.9
908.3609	1726.7605	1388.7	506.6
908.502	1728.4706	1387.25	507.5
908.6431	1730.18	1380.65	499.5
908.7842	1731.8886	1380.75	500.1
908.9253	1733.5964	1379.35	493.15
909.0664	1735.3036	1375.35	491.5
909.2074	1737.0099	1372.2	492.3
909.3484	1738.7156	1370.6	491.5
909.4894	1740.4204	1374.85	492.5
909.6304	1742.1246	1364.5	482.55
909.7714	1743.8279	1359.75	478.5
909.9123	1745.5306	1363.45	483.15
910.0532	1747.2325	1353.2	473.5
910.1941	1748.9336	1355.3	475.45
910.335	1750.634	1365.9	485.5
910.4759	1752.3336	1349.75	469.3
910.6168	1754.0325	1352.9	474.05
910.7576	1755.7307	1349.8	469.2
910.8984	1757.4281	1343.3	460.3
911.0392	1759.1247	1362.05	474.5
911.18	1760.8206	1350.6	466.25
911.3208	1762.5158	1348.5	463.05
911.4615	1764.2102	1339.1	458.55
911.6022	1765.9039	1336.15	455.25
911.7429	1767.5968	1339.5	456.65
911.8836	1769.289	1336.95	455.8
912.0243	1770.9804	1331.7	451.4
912.1649	1772.6711	1339.75	459.95
912.3056	1774.361	1333.2	453.1
912.4462	1776.0502	1329.85	449.55
912.5868	1777.7386	1338.2	455
912.7274	1779.4263	1329.75	447.1
912.8679	1781.1132	1328.2	448
913.0084	1782.7994	1334.55	451.45
913.149	1784.4849	1328.6	448.15
913.2895	1786.1696	1342.85	441.7
913.4299	1787.8535	1325.95	447.4
913.5704	1789.5367	1320	438.95
913.7108	1791.2192	1319.25	439.25
913.8513	1792.9009	1335.8	440.4
913.9917	1794.5818	1312.4	431.15
914.132	1796.2621	1317.1	437.4
914.2724	1797.9415	1319.85	439.75
914.4128	1799.6202	1312.5	432.3
914.5531	1801.2982	1312.15	433.35
914.6934	1802.9755	1318	436.95
914.8337	1804.6519	1301.4	421.1
914.9739	1806.3277	1310.75	431.15
915.1142	1808.0027	1306.3	427.35
915.2544	1809.6769	1311.8	430.15
915.3946	1811.3504	1305.2	422.05
915.5348	1813.0231	1301.65	419.85
915.675	1814.6951	1306.2	424.25
915.8151	1816.3664	1301.45	416.45
915.9553	1818.0369	1304.95	424.25
916.0954	1819.7067	1300.3	420.35
916.2355	1821.3757	1300.7	419.75
916.3755	1823.044	1302.6	422.1
916.5156	1824.7115	1299.15	417.3
916.6556	1826.3783	1291.75	412.2
916.7956	1828.0443	1291.65	413
916.9356	1829.7096	1294.05	411.7
917.0756	1831.3741	1298.85	415.6
917.2155	1833.0379	1299.8	418.1
917.3555	1834.701	1290.8	408.1
917.4954	1836.3633	1290.1	407.65
917.6353	1838.0248	1291.4	410.35
917.7751	1839.6856	1293.35	412.8
917.915	1841.3457	1287.55	409.55
918.0548	1843.005	1288.85	407.05
918.1946	1844.6636	1283.7	402.8
918.3344	1846.3214	1287.4	405.9
918.4742	1847.9785	1278.65	398.65
918.6139	1849.6349	1288.5	406.75
918.7537	1851.2904	1290.15	401.45
918.8934	1852.9453	1281.4	401.5
919.0331	1854.5994	1279.2	395.9
919.1727	1856.2528	1277	391.5
919.3124	1857.9054	1284	404.15
919.452	1859.5572	1279.8	402.35
919.5916	1861.2083	1276.8	395.05
919.7312	1862.8587	1280.75	399.6
919.8708	1864.5084	1280.75	400.45
920.0103	1866.1572	1273.1	394.1
920.1498	1867.8054	1270.6	390.3
920.2893	1869.4528	1275.15	395.5
920.4288	1871.0994	1269.1	389.3
920.5683	1872.7453	1268.15	387.5
920.7077	1874.3905	1287.8	390.65
920.8471	1876.0349	1266.2	383.9
920.9865	1877.6786	1268.55	386.45
921.1259	1879.3215	1266.15	385.7
921.2653	1880.9637	1266.4	384.5
921.4046	1882.6051	1258.2	376.8
921.5439	1884.2458	1264.55	382.45
921.6832	1885.8858	1263.75	382.9
921.8225	1887.525	1262.45	382.4
921.9617	1889.1634	1258.75	379.5
922.101	1890.8011	1258.8	378.2
922.2402	1892.4381	1250.95	368.8
922.3794	1894.0743	1254.05	374.85
922.5185	1895.7098	1248.75	369.1
922.6577	1897.3446	1254.9	375.3
922.7968	1898.9786	1256.9	373.95
922.9359	1900.6118	1251.2	372.1
923.075	1902.2443	1249.45	367.1
923.214	1903.8761	1245.85	364
923.3531	1905.5071	1250.5	368.8
923.4921	1907.1374	1245.3	363.85
923.6311	1908.7669	1247	364.9
923.77	1910.3957	1245.6	365.2
923.909	1912.0237	1241.15	359.75
924.0479	1913.651	1239.8	358
924.1868	1915.2776	1239.25	359.95
924.3257	1916.9034	1240.15	360.75
924.4646	1918.5285	1235.55	354.75
924.6034	1920.1528	1239.1	358.55
924.7422	1921.7764	1241.45	361.7
924.881	1923.3992	1232.55	353.2
925.0198	1925.0213	1232.25	351.45
925.1586	1926.6427	1226.95	349.15
925.2973	1928.2633	1331.95	342.9
925.436	1929.8832	1230.7	346.6
925.5747	1931.5023	1223.5	339.9
925.7134	1933.1207	1226.45	346.85
925.852	1934.7383	1222.6	341.15
925.9906	1936.3552	1222.6	342.35
926.1292	1937.9714	1221.3	340.35
926.2678	1939.5868	1222.8	340.95
926.4064	1941.2015	1221.9	340.15
926.5449	1942.8154	1217.4	337.75
926.6834	1944.4286	1216.5	335.75
926.8219	1946.041	1243.1	339.35
926.9604	1947.6528	1217.45	332.8
927.0988	1949.2637	1220.1	338.3
927.2372	1950.8739	1210.45	328
927.3756	1952.4834	1210.8	329.85
927.514	1954.0921	1210	326.15
927.6523	1955.7001	1217.55	332.2
927.7907	1957.3074	1199.15	320.2
927.929	1958.9139	1207.2	327
928.0673	1960.5197	1204.65	322.25
928.2055	1962.1247	1203	321.65
928.3438	1963.729	1204.2	324.6
928.482	1965.3325	1220.25	316.3
928.6202	1966.9353	1200.25	320.6
928.7584	1968.5374	1192.8	309.6
928.8965	1970.1387	1202.3	322.05
929.0346	1971.7393	1199.15	316.65
929.1727	1973.3392	1198.15	316
929.3108	1974.9383	1193.65	314.6
929.4489	1976.5366	1192.15	310.7
929.5869	1978.1342	1196.25	314
929.7249	1979.7311	1193.05	311.6
929.8629	1981.3273	1192.1	308.45
930.0009	1982.9227	1191.45	307.85
930.1388	1984.5173	1190.85	309.55
930.2767	1986.1112	1183.65	303.95
930.4146	1987.7044	1186.4	309.15
930.5525	1989.2968	1189.15	306.15
930.6904	1990.8885	1188.95	305.45
930.8282	1992.4795	1189.1	306.35
930.966	1994.0697	1189.8	308.55
931.1038	1995.6592	1184.2	303.3
931.2415	1997.2479	1181.95	302.2
931.3793	1998.8359	1182.95	305.5
931.517	2000.4232	1183.5	304.35
931.6547	2002.0097	1177.4	298.35
931.7923	2003.5955	1178.25	298.35
931.93	2005.1805	1184.45	302.05
932.0676	2006.7648	1174.85	293.4
932.2052	2008.3484	1176.1	291.4
932.3427	2009.9312	1179	296.25
932.4803	2011.5133	1178.8	298.6
932.6178	2013.0946	1171.05	289.95
932.7553	2014.6752	1172.15	293
932.8928	2016.2551	1174.65	292.7
933.0302	2017.8342	1167.2	284.6
933.1676	2019.4126	1170.5	291.8
933.305	2020.9902	1166.8	285
933.4424	2022.5672	1174.35	291.15
933.5798	2024.1433	1175.4	286.95
933.7171	2025.7188	1167.3	286.1
933.8544	2027.2935	1171.9	289.65
933.9917	2028.8674	1164.55	283.45
934.129	2030.4406	1158	277.8
934.2662	2032.0131	1159.95	280.2
934.4034	2033.5849	1163.2	273.95
934.5406	2035.1559	1163.4	283.45
934.6778	2036.7261	1164.75	282.65
934.8149	2038.2957	1160.6	280.2
934.952	2039.8645	1158.9	279.7
935.0891	2041.4325	1163.5	279.35
935.2262	2042.9998	1159.8	279.6
935.3632	2044.5664	1162.55	278
935.5002	2046.1323	1155.15	276.4
935.6372	2047.6974	1157	278.15
935.7742	2049.2617	1155.55	274.1
935.9111	2050.8254	1182.9	267.7
936.048	2052.3883	1160.8	279.6
936.1849	2053.9504	1154.7	271.95
936.3218	2055.5118	1150.15	268.25
936.4586	2057.0725	1152.75	265.9
936.5955	2058.6325	1145.4	263.85
936.7323	2060.1917	1146.85	265.6
936.869	2061.7502	1147.9	264.05
937.0058	2063.3079	1147.05	264.3
937.1425	2064.8649	1150.25	263.7
937.2792	2066.4212	1147.05	265.55
937.4159	2067.9767	1144.2	264.75
937.5525	2069.5315	1144.9	263.2
937.6891	2071.0856	1146.05	265.5
937.8257	2072.6389	1143.6	261.5
937.9623	2074.1915	1146.7	266.35
938.0989	2075.7433	1142.45	258.95
938.2354	2077.2945	1141.35	260.55
938.3719	2078.8448	1135.15	255.15
938.5084	2080.3945	1134.25	252.15
938.6448	2081.9434	1135.5	256.7
938.7812	2083.4916	1137.85	255.5
938.9176	2085.039	1138.35	255.15
939.054	2086.5857	1137.8	255.8
939.1903	2088.1317	1135.3	254.65
939.3267	2089.677	1132.4	249.95
939.463	2091.2215	1137.05	256.1
939.5992	2092.7652	1135.55	254.9
939.7355	2094.3083	1135.85	254.75
939.8717	2095.8506	1130.05	250.35
940.0079	2097.3921	1129.9	247.95
940.1441	2098.933	1137.7	257.35
940.2802	2100.4731	1130.5	248.3
940.4163	2102.0124	1147.45	249.1
940.5524	2103.5511	1131.7	253.1
940.6885	2105.089	1130.4	251.1
940.8245	2106.6261	1130.25	248.55
940.9606	2108.1626	1126.95	243.7
941.0965	2109.6983	1156.75	245.65
941.2325	2111.2332	1131.5	249.85
941.3684	2112.7675	1127.6	245.35
941.5044	2114.301	1127.35	244.15
941.6403	2115.8337	1124.75	243.75
941.7761	2117.3657	1123.85	243.65
941.912	2118.897	1130.55	247.2
942.0478	2120.4276	1129.95	243.3
942.1835	2121.9575	1116.65	237.45
942.3193	2123.4866	1135.7	238.5
942.455	2125.0149	1122.85	238.75
942.5907	2126.5426	1120.35	239.3
942.7264	2128.0695	1119.6	234.65
942.8621	2129.5956	1117.5	238.15
942.9977	2131.1211	1122.05	235.65
943.1333	2132.6458	1113.45	232.85
943.2689	2134.1698	1113.6	232.5
943.4044	2135.693	1116.6	233.6
943.54	2137.2155	1117.35	235.5
943.6755	2138.7373	1116.35	235.85
943.8109	2140.2584	1112	230.8
943.9464	2141.7787	1118.05	232.1
944.0818	2143.2983	1110.9	229.25
944.2172	2144.8171	1118.75	238.95
944.3526	2146.3353	1114.55	229.95
944.4879	2147.8527	1110.55	232.75
944.6232	2149.3693	1113.3	231.1
944.7585	2150.8853	1107.65	226
944.8938	2152.4005	1108.95	228.6
945.029	2153.9149	1108.5	228.9
945.1642	2155.4287	1106.3	226.3
945.2994	2156.9417	1107.7	224.45
945.4346	2158.454	1114.2	233
945.5697	2159.9655	1106.7	225.55
945.7048	2161.4764	1110.15	229.35
945.8399	2162.9865	1103.65	220.05
945.9749	2164.4958	1105.45	223.2
946.1099	2166.0045	1106.65	223.65
946.2449	2167.5124	1104.4	225.1
946.3799	2169.0195	1098.65	218.1
946.5148	2170.526	1101.3	222.35
946.6498	2172.0317	1099.9	220.05
946.7846	2173.5367	1100.5	217.95
946.9195	2175.0409	1103.75	223
947.0543	2176.5445	1096.6	214.7
947.1891	2178.0473	1100.7	220.15
947.3239	2179.5494	1108.15	223.7
947.4587	2181.0507	1095.55	214.1
947.5934	2182.5513	1092.8	212.8
947.7281	2184.0512	1095.05	214.25
947.8628	2185.5504	1096.6	215.8
947.9974	2187.0488	1099.1	217.7
948.132	2188.5465	1095.65	215.7
948.2666	2190.0435	1097.05	215.3
948.4012	2191.5397	1096.7	215.25
948.5357	2193.0353	1093.9	213.05
948.6702	2194.5301	1094.65	214.45
948.8047	2196.0241	1095.45	214.1
948.9392	2197.5175	1090	209.9
949.0736	2199.0101	1092.35	208
949.208	2200.502	1086.65	206.95
949.3424	2201.9931	1088.1	206.4
949.4767	2203.4835	1087.15	205
949.611	2204.9733	1094.65	207.8
949.7453	2206.4622	1088.85	209.3
949.8796	2207.9505	1087.05	203.35
950.0138	2209.438	1082	201.8
950.148	2210.9248	1088.2	204.85
950.2822	2212.4109	1077.9	197.1
950.4164	2213.8962	1083.5	200.55
950.5505	2215.3809	1086.95	203.6
950.6846	2216.8648	1081.45	198.9
950.8186	2218.3479	1088.45	204.25
950.9527	2219.8304	1084.05	199.35
951.0867	2221.3121	1080.1	196.55
951.2207	2222.7931	1074.55	194.2
951.3546	2224.2733	1075.35	191.15
951.4886	2225.7529	1077.85	195.35
951.6225	2227.2317	1080.25	195.65
951.7563	2228.7098	1079.45	198.5
951.8902	2230.1872	1079.85	199.4
952.024	2231.6638	1076.25	195.5
952.1578	2233.1397	1084.4	197.5
952.2916	2234.6149	1073.25	193.75
952.4253	2236.0894	1075.35	193
952.559	2237.5632	1080.2	190.3
952.6927	2239.0362	1074.6	193.85
952.8263	2240.5085	1073.5	191.7
952.9599	2241.9801	1073.65	193.4
953.0935	2243.4509	1066.7	186.65
953.2271	2244.921	1071.05	188.9
953.3606	2246.3904	1067.65	184.3
953.4941	2247.8591	1070.5	190.75
953.6276	2249.3271	1064.25	182.8
953.7611	2250.7943	1069.85	188.65
953.8945	2252.2608	1063.9	184.3
954.0279	2253.7266	1062.35	183.8
954.1612	2255.1917	1063.95	184.6
954.2946	2256.656	1064.85	183.05
954.4279	2258.1197	1063.8	182.35
954.5612	2259.5826	1063.85	180.9
954.6944	2261.0447	1062.85	180.85
954.8276	2262.5062	1064.55	183.6
954.9608	2263.9669	1062.4	180
955.094	2265.4269	1060.6	180.5
955.2271	2266.8862	1061.3	180.15
955.3602	2268.3448	1060.5	177.55
955.4933	2269.8026	1057.25	176.3
955.6264	2271.2598	1063.3	180.95
955.7594	2272.7162	1059.9	179.5
955.8924	2274.1719	1058.9	177.45
956.0253	2275.6268	1058.4	178.55
956.1583	2277.0811	1060	176.9
956.2912	2278.5346	1058.3	178
956.4241	2279.9874	1052.65	174.25
956.5569	2281.4395	1059.3	178.65
956.6897	2282.8908	1063.65	176.8
956.8225	2284.3414	1058.35	176.2
956.9553	2285.7914	1057.55	176.75
957.088	2287.2406	1055.4	174.1
957.2207	2288.689	1055	172.6
957.3534	2290.1368	1054.05	172.4
957.486	2291.5838	1055.15	173
957.6186	2293.0302	1055.4	173.45
957.7512	2294.4758	1050.15	170.65
957.8838	2295.9206	1054.25	170.5
958.0163	2297.3648	1061.35	181.15
958.1488	2298.8082	1053.1	169.35
958.2813	2300.251	1050.25	170
958.4137	2301.693	1050.05	166.8
958.5461	2303.1343	1050.5	168.8
958.6785	2304.5748	1050.25	170.8
958.8108	2306.0147	1048.65	166.6
958.9432	2307.4538	1052.25	169.15
959.0754	2308.8922	1048.2	168.95
959.2077	2310.3299	1049.25	168.4
959.3399	2311.7669	1048.85	168.8
959.4721	2313.2031	1044.25	162.8
959.6043	2314.6387	1048.2	164.45
959.7365	2316.0735	1046.3	165.05
959.8686	2317.5076	1048.75	167
960.0006	2318.941	1045.1	164.6
960.1327	2320.3737	1041.75	161.2
960.2647	2321.8056	1047.5	161.85
960.3967	2323.2369	1043.3	162.75
960.5287	2324.6674	1044.75	160.95
960.6606	2326.0972	1048.9	167.05
960.7925	2327.5263	1049.7	169.6
960.9244	2328.9547	1044.55	161.25
961.0562	2330.3823	1049.3	168.45
961.1881	2331.8092	1047.9	163.8
961.3198	2333.2355	1036.85	157.5
961.4516	2334.661	1044.1	163.25
961.5833	2336.0858	1037.7	153.35
961.715	2337.5098	1039	160
961.8467	2338.9332	1039.65	157.3
961.9783	2340.3558	1041.6	159
962.1099	2341.7778	1040	159.2
962.2415	2343.199	1037.1	151.75
962.373	2344.6195	1039.45	159.45
962.5045	2346.0393	1035.95	154.45
962.636	2347.4583	1040.25	158.15
962.7675	2348.8767	1038.95	158.1
962.8989	2350.2943	1039.35	155.3
963.0303	2351.7113	1033.7	151.6
963.1617	2353.1275	1035.05	154.25
963.293	2354.543	1057.85	153.05
963.4243	2355.9578	1033.45	153.4
963.5556	2357.3718	1031.75	150.7
963.6868	2358.7852	1034.1	149.9
963.818	2360.1978	1031	149.1
963.9492	2361.6098	1031.45	150.4
964.0803	2363.021	1034.45	151.05
964.2114	2364.4315	1031.15	149.3
964.3425	2365.8413	1031.05	149.45
964.4736	2367.2504	1032.55	152.25
964.6046	2368.6587	1030.05	148.15
964.7356	2370.0664	1028.25	146.65
964.8666	2371.4733	1029.45	149.15
964.9975	2372.8795	1025.9	145.85
965.1284	2374.285	1025.6	144.85
965.2593	2375.6899	1026.1	145.05
965.3901	2377.0939	1030.95	151.5
965.5209	2378.4973	1028.1	150.4
965.6517	2379.9	1028.7	147.5
965.7825	2381.3019	1024.1	144.8
965.9132	2382.7032	1026.15	146.3
966.0439	2384.1037	1023.85	142.85
966.1745	2385.5035	1024.45	143.55
966.3051	2386.9027	1020.5	138.65
966.4357	2388.3011	1030	146.2
966.5663	2389.6987	1023.75	142.2
966.6968	2391.0957	1021.5	139.75
966.8273	2392.492	1018.1	137.1
966.9578	2393.8876	1021.45	141.55
967.0882	2395.2824	1020.5	140
967.2186	2396.6765	1017.65	139.85
967.349	2398.07	1017.65	139.05
967.4793	2399.4627	1018.25	135.85
967.6097	2400.8547	1018.4	137.3
967.7399	2402.246	1024.65	138.6
967.8702	2403.6366	1016.55	135.7
968.0004	2405.0265	1016.65	136.5
968.1306	2406.4156	1020.75	135.1
968.2607	2407.8041	1019.95	135.05
968.3909	2409.1918	1014.7	131.9
968.521	2410.5789	1011.85	129.5
968.651	2411.9652	1015.15	130.9
968.781	2413.3508	1015.25	134.75
968.911	2414.7358	1011.65	130.55
969.041	2416.12	1010.55	128.65
969.1709	2417.5035	1013.15	133.2
969.3008	2418.8863	1015.7	133.6
969.4307	2420.2684	1013	131.9
969.5606	2421.6497	1016.25	133.3
969.6904	2423.0304	1007.1	128.15
969.8201	2424.4104	1010.35	129.35
969.9499	2425.7896	1018.85	132.15
970.0796	2427.1682	1014.2	134.5
970.2093	2428.546	1011	126.4
970.3389	2429.9232	1008.75	126.1
970.4685	2431.2996	1011.6	131.85
970.5981	2432.6753	1009.4	128.1
970.7277	2434.0503	1008.9	128.7
970.8572	2435.4246	1005.05	125.35
970.9867	2436.7982	1007.6	124.05
971.1161	2438.1711	1004.65	124.9
971.2456	2439.5433	1007.1	125.1
971.375	2440.9148	1013.65	127.25
971.5043	2442.2856	1006.2	124.1
971.6336	2443.6557	1008.95	125.95
971.7629	2445.025	1005.35	124.6
971.8922	2446.3937	1001.85	120.65
972.0214	2447.7617	1005	125.15
972.1506	2449.1289	1001.4	119.9
972.2798	2450.4955	1009.9	127.05
972.4089	2451.8613	1000.3	120.35
972.538	2453.2265	1004.45	122.55
972.6671	2454.5909	1003.05	120.7
972.7961	2455.9546	1002.35	122.25
972.9251	2457.3177	1001.6	121.4
973.0541	2458.68	1005.05	122
973.1831	2460.0416	1001.4	120.25
973.312	2461.4025	1004.85	122.3
973.4408	2462.7627	1014.55	121.15
973.5697	2464.1222	999	119.5
973.6985	2465.4811	1001.3	119.2
973.8273	2466.8392	999.05	117.5
973.956	2468.1966	999.95	116.95
974.0847	2469.5533	1002.1	119.8
974.2134	2470.9093	1000.25	116.8
974.3421	2472.2645	1000.3	117.6
974.4707	2473.6191	996.65	115.35
974.5993	2474.973	999.55	119.2
974.7278	2476.3262	1001.05	119.45
974.8563	2477.6787	1003.7	123.2
974.9848	2479.0305	997.4	117.25
975.1132	2480.3816	1002.3	119.55
975.2417	2481.7319	1001	121.45
975.37	2483.0816	998.1	114.7
975.4984	2484.4306	998.85	115.8
975.6267	2485.7789	1000.6	121.55
975.755	2487.1264	995.95	112.75
975.8833	2488.4733	995.8	115.8
976.0115	2489.8195	1011.6	113.35
976.1397	2491.165	994.45	109.5
976.2678	2492.5097	1000.9	120.05
976.3959	2493.8538	995.85	114.05
976.524	2495.1972	994.25	113.7
976.6521	2496.5398	993.65	111.6
976.7801	2497.8818	995.7	112.35
976.9081	2499.2231	991.4	109.45
977.036	2500.5637	994.4	111.55
977.164	2501.9035	989.95	107.35
977.2918	2503.2427	996.7	114.85
977.4197	2504.5812	989.95	110.25
977.5475	2505.919	991.35	108.5
977.6753	2507.256	994.1	114.65
977.8031	2508.5924	992	111.7
977.9308	2509.9281	998.05	111.85
978.0585	2511.2631	989.35	106.85
978.1861	2512.5974	986.35	105.65
978.3137	2513.9309	987.65	107.6
978.4413	2515.2638	1020.6	107.5
978.5689	2516.596	989.5	110
978.6964	2517.9275	991.2	108.2
978.8239	2519.2583	992.45	109.15
978.9513	2520.5884	991.55	107.6
979.0788	2521.9178	986.65	104.75
979.2062	2523.2465	988.85	107.95
979.3335	2524.5745	987.7	104.45
979.4608	2525.9018	987.15	106.65
979.5881	2527.2284	987.05	106.7
979.7154	2528.5543	985.35	103.65
979.8426	2529.8796	985.35	104.8
979.9698	2531.2041	983.65	102.5
980.0969	2532.5279	986.95	108
980.224	2533.851	984.6	102.7
980.3511	2535.1735	985.5	106.2
980.4781	2536.4952	988.15	107.85
980.6052	2537.8163	986.5	106.05
980.7321	2539.1366	983.75	101.05
980.8591	2540.4562	984.3	105.95
980.986	2541.7752	985.15	105.6
981.1129	2543.0935	983.45	103.1
981.2397	2544.411	985.4	103.65
981.3665	2545.7279	985.3	102.8
981.4933	2547.0441	984.55	103.85
981.62	2548.3596	988.25	103.8
981.7467	2549.6744	982.35	103.5
981.8734	2550.9885	991.7	104.7
982.0001	2552.3019	982.1	102.25
982.1267	2553.6146	986.8	105.7
982.2532	2554.9266	983.55	103.65
982.3798	2556.2379	982.5	99.75
982.5063	2557.5485	983.1	101.45
982.6327	2558.8585	990.5	101.3
982.7592	2560.1677	985.95	101.15
982.8856	2561.4762	987.05	107.55
983.0119	2562.7841	982.35	98.75
983.1383	2564.0913	981.15	100.45
983.2646	2565.3977	981.15	102.55
983.3908	2566.7035	982.55	101.45
983.517	2568.0086	983.35	102
983.6432	2569.313	983.75	102.85
983.7694	2570.6167	982.45	95.3
983.8955	2571.9197	980.15	100.05
984.0216	2573.222	985.8	101.8
984.1476	2574.5236	980.1	97.85
984.2737	2575.8246	984.8	99.1
984.3996	2577.1248	983.15	100.4
984.5256	2578.4244	979.35	100.55
984.6515	2579.7232	979	98.2
984.7774	2581.0214	1006.8	94.25
984.9032	2582.3189	982.2	102.35
985.029	2583.6157	986.6	101.25
985.1548	2584.9118	979.8	98.55
985.2806	2586.2072	980.9	100.2
985.4063	2587.5019	979.85	100.6
985.5319	2588.7959	980.05	98.2
985.6576	2590.0893	983.35	100.6
985.7832	2591.3819	978.6	100
985.9087	2592.6739	976.6	95.55
986.0343	2593.9652	977	95.8
986.1597	2595.2557	977.9	97.3
986.2852	2596.5456	981.7	99.9
986.4106	2597.8348	979.7	98.5
986.536	2599.1234	979.65	100.95
986.6614	2600.4112	979.1	96.7
986.7867	2601.6983	981	97.55
986.912	2602.9848	981.35	99.4
987.0372	2604.2705	988.2	99.45
987.1624	2605.5556	979.3	100.5
987.2876	2606.84	973.05	89.75
987.4128	2608.1237	977.35	95.75
987.5379	2609.4067	978.9	97.95
987.6629	2610.689	983.85	92.9
987.788	2611.9707	982.5	98.95
987.913	2613.2516	980.85	96.1
988.0379	2614.5319	971.9	92.4
988.1629	2615.8115	979.4	97.85
988.2878	2617.0903	975.8	94.1
988.4126	2618.3685	972.95	91.75
988.5375	2619.6461	972.4	93.55
988.6622	2620.9229	975	94.9
988.787	2622.199	976.2	96.25
988.9117	2623.4745	976.5	94.25
989.0364	2624.7493	972.1	92.5
989.161	2626.0234	971.35	91.3
989.2857	2627.2968	974	93.9
989.4102	2628.5695	975.6	94.95
989.5348	2629.8415	972.9	94.15
989.6593	2631.1128	972.75	91.55
989.7837	2632.3835	972.75	91.9
989.9082	2633.6535	973.2	93.5
990.0326	2634.9228	973.3	93.85
990.1569	2636.1914	971.65	91.2
990.2812	2637.4593	972.45	90.65
990.4055	2638.7265	973.35	91.95
990.5298	2639.9931	970.3	88
990.654	2641.259	970.35	90.05
990.7782	2642.5242	973.8	92.2
990.9023	2643.7887	969.2	89.15
991.0264	2645.0525	970.85	89.5
991.1505	2646.3156	968.9	85.6
991.2745	2647.5781	969.1	89.65
991.3985	2648.8398	968.6	87.2
991.5225	2650.1009	1005.45	88.1
991.6464	2651.3613	966.9	86.05
991.7703	2652.6211	968.7	87.95
991.8942	2653.8801	967.35	87.45
992.018	2655.1385	972.25	87.45
992.1418	2656.3961	966.8	87.1
992.2655	2657.6531	969.8	88.95
992.3892	2658.9094	964.9	85.15
992.5129	2660.1651	967.15	87.35
992.6366	2661.42	968.15	85.35
992.7602	2662.6743	967.5	87.45
992.8837	2663.9279	969.65	89.8
993.0073	2665.1808	968.05	89.05
993.1307	2666.433	968.9	86.7
993.2542	2667.6846	970.8	90.1
993.3776	2668.9354	974.65	91.5
993.501	2670.1856	970.95	88.3
993.6244	2671.4351	968.9	89.1
993.7477	2672.6839	971.5	91.15
993.8709	2673.9321	967.1	86.9
993.9942	2675.1795	968.8	88.3
994.1174	2676.4263	970.2	90.2
994.2405	2677.6724	966.65	87.4
994.3637	2678.9179	971.6	91.15
994.4868	2680.1626	967.9	86.7
994.6098	2681.4067	971.5	91.15
994.7328	2682.6501	967.5	87.45
994.8558	2683.8928	971.55	89.5
994.9788	2685.1348	970.35	90.45
995.1017	2686.3761	968.05	86.95
995.2245	2687.6168	967.75	87.95
995.3474	2688.8568	965.6	84.15
995.4702	2690.0961	965.65	85.9
995.5929	2691.3348	967.9	87.15
995.7156	2692.5727	965.8	84.85
995.8383	2693.81	965.9	84.55
995.961	2695.0466	965.8	88.5
996.0836	2696.2826	967.95	84.8
996.2062	2697.5178	968.75	85.45
996.3287	2698.7524	964.35	81.85
996.4512	2699.9863	968.6	85.05
996.5737	2701.2195	964.1	85.8
996.6961	2702.452	965.9	82.9
996.8185	2703.6839	966.2	83.55
996.9408	2704.9151	962.65	83.4
997.0631	2706.1456	965.7	85.1
997.1854	2707.3755	968.25	87.5
997.3077	2708.6046	970.3	86.9
997.4299	2709.8331	970.7	91.35
997.552	2711.0609	969.15	88.15
997.6742	2712.2881	968.6	87.35
997.7963	2713.5145	974.25	91.35
997.9183	2714.7403	973.8	94.25
998.0403	2715.9654	972.7	89
998.1623	2717.1899	992.05	97.4
998.2842	2718.4136	975.4	94.35
998.4062	2719.6367	977.05	95.65
998.528	2720.8591	985.3	97.75
998.6498	2722.0809	983.7	102.3
998.7716	2723.3019	992.5	109.2
998.8934	2724.5223	986.95	105.55
999.0151	2725.7421	987.2	105.1
999.1368	2726.9611	985	101.6
999.2584	2728.1795	986.45	101.6
999.38	2729.3972	980.45	100.65
999.5016	2730.6142	991.35	97.9
999.6231	2731.8306	978.85	97.6
999.7446	2733.0462	979.15	96.7
999.8661	2734.2612	977.45	90.45
999.9875	2735.4756	974	92.55
1000.1089	2736.6892	973.25	92.75
1000.2302	2737.9022	968.6	88.4
1000.3515	2739.1145	970.15	89.75
1000.4728	2740.3262	972.4	84.45
1000.594	2741.5372	966.9	86.45
1000.7152	2742.7475	966.1	84.25
1000.8363	2743.9571	962.5	78.6
1000.9575	2745.1661	965.25	80.65
1001.0785	2746.3744	959.8	78.6
1001.1996	2747.582	956.5	77.9
1001.3206	2748.7889	959.85	78.9
1001.4415	2749.9952	955.95	73.75
1001.5625	2751.2008	957.95	74.95
1001.6833	2752.4057	959.8	77.6
1001.8042	2753.61	958.7	76.75
1001.925	2754.8136	956.25	73.25
1002.0458	2756.0165	953.2	72.75
1002.1665	2757.2188	953.5	73.75
1002.2872	2758.4204	955.25	75.55
1002.4078	2759.6213	956.85	74.4
1002.5285	2760.8215	961.7	72.95
1002.649	2762.0211	959	75.6
1002.7696	2763.22	958.55	76.55
1002.8901	2764.4182	955.95	72.2
1003.0106	2765.6158	954	72.2
1003.131	2766.8127	954.35	74.5
1003.2514	2768.009	951.15	71.4
1003.3717	2769.2045	952.25	71.75
1003.492	2770.3994	954.1	71.15
1003.6123	2771.5936	954.35	73.6
1003.7325	2772.7872	948.35	68.25
1003.8527	2773.9801	954.25	73.5
1003.9729	2775.1723	968.45	69.8
1004.093	2776.3639	949.1	69.4
1004.2131	2777.5548	952.55	70.5
1004.3331	2778.745	952.5	70.15
1004.4531	2779.9346	949.1	69.7
1004.5731	2781.1235	951.4	69.7
1004.693	2782.3117	948.75	68.95
1004.8129	2783.4992	948.1	67.8
1004.9328	2784.6861	952.6	73.85
1005.0526	2785.8723	950.8	68.05
1005.1723	2787.0579	955.25	74
1005.2921	2788.2428	952.3	70.55
1005.4118	2789.427	950.9	70.2
1005.5314	2790.6106	952.15	70.2
1005.651	2791.7935	952.2	71.25
1005.7706	2792.9757	950.25	71.2
1005.8902	2794.1573	956.3	73.8
1006.0097	2795.3382	957.3	76.45
1006.1291	2796.5184	954.25	75.4
1006.2485	2797.698	957.1	73.65
1006.3679	2798.8769	958.25	78.25
1006.4873	2800.0551	957.15	73.75
1006.6066	2801.2327	961.15	80
1006.7258	2802.4096	961.6	82.35
1006.8451	2803.5859	962.05	79.95
1006.9642	2804.7615	964.45	81.8
1007.0834	2805.9364	966.05	85.75
1007.2025	2807.1106	966.7	85.3
1007.3216	2808.2842	971.4	90.05
1007.4406	2809.4572	970.7	88.6
1007.5596	2810.6294	975.9	92.6
1007.6785	2811.801	980.75	102.2
1007.7975	2812.972	980.9	101.25
1007.9163	2814.1423	986.15	105.05
1008.0352	2815.3119	996.35	116.6
1008.154	2816.4808	998.45	118.5
1008.2727	2817.6491	1008.45	127
1008.3914	2818.8167	1011.55	134.25
1008.5101	2819.9837	1026.15	141.95
1008.6288	2821.15	1031.5	150.5
1008.7474	2822.3157	1035.65	153.65
1008.8659	2823.4807	1043.6	161.8
1008.9844	2824.645	1052.45	169.1
1009.1029	2825.8086	1065.3	186.85
1009.2214	2826.9716	1074.65	191.8
1009.3398	2828.134	1088.75	206.45
1009.4581	2829.2957	1097.05	216.7
1009.5764	2830.4567	1104.7	227.55
1009.6947	2831.617	1107.95	228.05
1009.813	2832.7767	1111.05	230.05
1009.9312	2833.9358	1113.1	232.75
1010.0493	2835.0941	1112.4	230
1010.1675	2836.2519	1100.75	220.3
1010.2855	2837.4089	1107.5	226.75
1010.4036	2838.5653	1097.2	216
1010.5216	2839.7211	1095.1	215.15
1010.6396	2840.8761	1096.1	214.6
1010.7575	2842.0306	1090.15	210.05
1010.8754	2843.1843	1088.55	206.7
1010.9932	2844.3374	1093.85	211.25
1011.111	2845.4899	1099	217.8
1011.2288	2846.6417	1098.35	218.1
1011.3465	2847.7928	1106.2	225.2
1011.4642	2848.9433	1120.85	238.05
1011.5818	2850.0931	1123.35	242.15
1011.6995	2851.2422	1130.15	247.25
1011.817	2852.3907	1131.5	251.7
1011.9345	2853.5385	1142.95	261.85
1012.052	2854.6857	1176.35	267.7
1012.1695	2855.8323	1147.25	268.05
1012.2869	2856.9781	1150.3	269.4
1012.4042	2858.1233	1162.25	281.9
1012.5216	2859.2679	1163.15	282.85
1012.6389	2860.4118	1175.1	296.25
1012.7561	2861.555	1184.5	298.35
1012.8733	2862.6976	1189.1	305.5
1012.9905	2863.8395	1190.95	309.35
1013.1076	2864.9808	1195.95	312.6
1013.2247	2866.1214	1195.55	315.15
1013.3417	2867.2614	1197.2	316.95
1013.4587	2868.4007	1200.55	317.5
1013.5757	2869.5393	1203	321.1
1013.6926	2870.6773	1205.7	322.65
1013.8095	2871.8146	1206.15	322.9
1013.9263	2872.9513	1213.85	329.05
1014.0431	2874.0874	1208.8	328.55
1014.1599	2875.2227	1215.9	335.75
1014.2766	2876.3574	1212.35	330.95
1014.3933	2877.4915	1211.5	331.9
1014.51	2878.6249	1204.55	326.55
1014.6266	2879.7577	1212.05	329.3
1014.7431	2880.8898	1221.1	330.85
1014.8596	2882.0212	1209.85	330.5
1014.9761	2883.152	1206.7	325.95
1015.0925	2884.2821	1207.3	327.35
1015.2089	2885.4116	1206.35	324.95
1015.3253	2886.5405	1206.55	324.55
1015.4416	2887.6686	1218.15	333.35
1015.5579	2888.7962	1214.45	334.35
1015.6741	2889.923	1212.8	332.95
1015.7903	2891.0493	1220.5	340.5
1015.9065	2892.1748	1218	336.6
1016.0226	2893.2997	1214.75	333.6
1016.1387	2894.424	1219.45	339.15
1016.2547	2895.5476	1218	340
1016.3707	2896.6706	1222.4	342.05
1016.4866	2897.7929	1227.8	346.85
1016.6025	2898.9145	1229.6	347.5
1016.7184	2900.0355	1230	349.1
1016.8342	2901.1559	1229.85	349
1016.95	2902.2756	1228.7	348.75
1017.0658	2903.3946	1235.45	354
1017.1815	2904.513	1241.3	358.7
1017.2971	2905.6308	1236.2	355.55
1017.4127	2906.7479	1238	358.75
1017.5283	2907.8643	1241.6	357.9
1017.6439	2908.9801	1242.95	361.3
1017.7594	2910.0953	1241.1	360.85
1017.8748	2911.2098	1246.65	362.2
1017.9902	2912.3236	1252.9	364.9
1018.1056	2913.4368	1243.05	358
1018.2209	2914.5494	1233.9	352.6
1018.3362	2915.6613	1237.75	352.15
1018.4515	2916.7725	1230.85	348
1018.5667	2917.8831	1226.25	345.25
1018.6819	2918.9931	1220.8	337.2
1018.797	2920.1024	1218.35	335.9
1018.9121	2921.211	1207.45	326.45
1019.0271	2922.319	1207.1	325.3
1019.1421	2923.4264	1202.55	323.5
1019.2571	2924.5331	1200.95	321.75
1019.372	2925.6391	1194.75	314.65
1019.4869	2926.7445	1204.4	325.05
1019.6017	2927.8493	1211.2	329.7
1019.7165	2928.9534	1207.25	326.8
1019.8313	2930.0569	1214.5	329
1019.946	2931.1597	1211.35	328.35
1020.0606	2932.2619	1209.85	328.05
1020.1753	2933.3634	1216.1	335.8
1020.2899	2934.4643	1219.6	330.7
1020.4044	2935.5645	1221.15	335.45
1020.5189	2936.6641	1219.2	334.3
1020.6334	2937.763	1208.6	328.35
1020.7478	2938.8613	1209.5	328.25
1020.8622	2939.959	1210.65	327.45
1020.9765	2941.056	1193.4	313.5
1021.0908	2942.1523	1181.8	299.6
1021.2051	2943.248	1177.15	296.1
1021.3193	2944.3431	1159.1	277.05
1021.4334	2945.4375	1144.25	262.75
1021.5476	2946.5313	1130.1	250.3
1021.6617	2947.6244	1119.1	235.75
1021.7757	2948.7169	1107.6	225.75
1021.8897	2949.8087	1099	220
1022.0037	2950.8999	1085.05	204.25
1022.1176	2951.9904	1079.45	200.45
1022.2315	2953.0803	1069.6	191.1
1022.3453	2954.1696	1061.35	183.05
1022.4591	2955.2582	1051.75	172
1022.5728	2956.3462	1050.1	167.1
1022.6865	2957.4335	1046.15	164.45
1022.8002	2958.5202	1044	161.15
1022.9138	2959.6062	1036.35	153.95
1023.0274	2960.6916	1035.1	154.35
1023.141	2961.7764	1031.85	152
1023.2545	2962.8605	1030.9	149.8
1023.3679	2963.9439	1026.15	147
1023.4813	2965.0267	1031.45	149.4
1023.5947	2966.1089	1045.05	138.6
1023.708	2967.1905	1025.2	145.4
1023.8213	2968.2714	1026.65	146.8
1023.9346	2969.3516	1021.8	141.9
1024.0478	2970.4312	1035.95	146.8
1024.1609	2971.5102	1026.8	147.3
1024.274	2972.5885	1026.9	147.85
1024.3871	2973.6662	1030.35	145.85
1024.5002	2974.7432	1027.85	148.45
1024.6132	2975.8196	1027.1	143.75
1024.7261	2976.8954	1023.85	145.4
1024.839	2977.9705	1027.5	145.5
1024.9519	2979.045	1027.35	146.25
1025.0647	2980.1188	1023.2	141.5
1025.1775	2981.192	1022.05	142
1025.2902	2982.2645	1025.2	142.9
1025.4029	2983.3364	1020.35	142.2
1025.5156	2984.4077	1016.05	135.85
1025.6282	2985.4783	1016.25	130.2
1025.7407	2986.5483	1006.45	126.75
1025.8532	2987.6177	1006.85	127.15
1025.9657	2988.6864	996.7	115.05
1026.0782	2989.7545	996.1	114.05
1026.1906	2990.8219	988.55	107.9
1026.3029	2991.8887	984.35	101.8
1026.4152	2992.9548	981.7	100.55
1026.5275	2994.0204	973.4	94.25
1026.6397	2995.0852	972.45	93.8
1026.7519	2996.1495	967.25	83.3
1026.864	2997.2131	964.3	83.75
1026.9761	2998.276	962.3	79.95
1027.0882	2999.3383	957.9	76.2
1027.2002	3000.4	957.45	76.95
1027.3122	3001.4611	952.55	71.6
1027.4241	3002.5215	951.55	72.65
1027.536	3003.5812	944.8	65
1027.6478	3004.6404	945.5	64.7
1027.7596	3005.6989	944.85	65.35
1027.8714	3006.7567	939.75	57.4
1027.9831	3007.8139	966.7	58.85
1028.0947	3008.8705	939.25	58.2
1028.2064	3009.9264	956.2	57.4
1028.3179	3010.9818	938.6	58.85
1028.4295	3012.0364	936.05	54.35
1028.541	3013.0905	935.15	54.35
1028.6524	3014.1439	935.05	54.6
1028.7638	3015.1966	934.7	52.35
1028.8752	3016.2487	935.8	54.15
1028.9865	3017.3002	937	48.55
1029.0978	3018.3511	932.4	53
1029.209	3019.4013	931.3	50.6
1029.3202	3020.4509	933.6	55.3
1029.4314	3021.4998	931.8	52.25
1029.5425	3022.5481	930.3	50.65
1029.6535	3023.5958	931.65	52
1029.7645	3024.6428	930.8	46.8
1029.8755	3025.6892	928.25	48.55
1029.9864	3026.735	929.75	48.45
1030.0973	3027.7802	928.25	46.9
1030.2082	3028.8247	928.45	48.25
1030.319	3029.8685	928	47.55
1030.4297	3030.9118	929.85	46.6
1030.5404	3031.9544	927.55	48.65
1030.6511	3032.9963	930.65	50.45
1030.7617	3034.0376	931.35	51.25
1030.8723	3035.0783	934.65	51.7
1030.9829	3036.1184	931.9	49.3
1031.0934	3037.1578	930.05	51.25
1031.2038	3038.1966	928.7	44.45
1031.3142	3039.2348	930.4	51.7
1031.4246	3040.2723	937.05	50.15
1031.5349	3041.3092	929.45	49.05
1031.6452	3042.3455	930.65	50.55
1031.7554	3043.3811	931.75	51.2
1031.8656	3044.4161	932.3	48
1031.9758	3045.4505	929.5	48.55
1032.0859	3046.4842	932.75	50.2
1032.1959	3047.5173	932.25	52.35
1032.3059	3048.5498	926.6	46.3
1032.4159	3049.5816	930.75	49.2
1032.5258	3050.6128	931.25	48.6
1032.6357	3051.6434	930.55	46.05
1032.7455	3052.6734	930.75	49.25
1032.8553	3053.7027	930.7	49.6
1032.9651	3054.7314	928.8	49
1033.0748	3055.7594	927.85	46.1
1033.1845	3056.7868	930	46.65
1033.2941	3057.8136	929.55	50.45
1033.4037	3058.8398	930.2	52.05
1033.5132	3059.8653	930.8	50.45
1033.6227	3060.8902	930.1	50.05
1033.7321	3061.9145	928.65	47.85
1033.8415	3062.9381	930.7	50.4
1033.9509	3063.9612	945.5	47.95
1034.0602	3064.9835	930.75	50.85
1034.1694	3066.0053	932.1	49.35
1034.2787	3067.0264	929.4	48.75
1034.3878	3068.0469	928.3	47
1034.497	3069.0668	930.5	47.3
1034.6061	3070.086	927.2	46.9
1034.7151	3071.1046	928.9	44.9
1034.8241	3072.1226	928.1	45.15
1034.9331	3073.1399	924.65	43
1035.042	3074.1567	925.4	46.1
1035.1508	3075.1727	926.55	44.1
1035.2597	3076.1882	923.7	45.55
1035.3684	3077.203	924.3	43.6
1035.4772	3078.2173	924.05	42.45
1035.5859	3079.2308	923.95	41.85
1035.6945	3080.2438	922.4	39.7
1035.8031	3081.2561	918.9	39.25
1035.9117	3082.2678	915.95	34.4
1036.0202	3083.2789	917.4	34.6
1036.1286	3084.2893	915.85	36.9
1036.2371	3085.2991	915.85	33.55
1036.3454	3086.3083	919.5	33.5
1036.4538	3087.3169	916.8	36.55
1036.562	3088.3248	915.4	32.75
1036.6703	3089.3321	914.2	34.65
1036.7785	3090.3388	911.35	31.2
1036.8866	3091.3449	912.7	30.4
1036.9948	3092.3503	913.15	29.5
1037.1028	3093.3551	912.45	34.95
1037.2108	3094.3593	909	29.05
1037.3188	3095.3629	910.35	31.5
1037.4267	3096.3658	913.1	30.45
1037.5346	3097.3681	911.55	29.7
1037.6425	3098.3698	910.6	27.95
1037.7503	3099.3708	917.1	31.15
1037.858	3100.3713	907.25	26.4
1037.9657	3101.3711	909.1	28.55
1038.0734	3102.3702	1053.55	31.7
1038.181	3103.3688	910.15	27.9
1038.2886	3104.3667	906.35	28.3
1038.3961	3105.364	907.9	28
1038.5036	3106.3607	910.45	29.45
1038.611	3107.3568	909.6	28.55
1038.7184	3108.3522	907.45	28.25
1038.8257	3109.347	908.9	27.65
1038.933	3110.3412	908.4	23.3
1039.0403	3111.3348	904.95	24.25
1039.1475	3112.3277	905.7	26
1039.2547	3113.32	902.1	21
1039.3618	3114.3117	902.95	22.7
1039.4689	3115.3028	902.95	21.6
1039.5759	3116.2932	905.5	23.55
1039.6829	3117.2831	909.85	23.5
1039.7898	3118.2723	904.35	25.7
1039.8967	3119.2608	902.45	20.95
1040.0035	3120.2488	905.1	24.15
1040.1103	3121.2361	902.8	23.35
1040.2171	3122.2229	901.3	20.85
1040.3238	3123.209	902.6	20.15
1040.4305	3124.1944	900.75	19.8
1040.5371	3125.1793	905.65	24.25
1040.6437	3126.1635	901.35	18.85
1040.7502	3127.1471	899.7	20.75
1040.8567	3128.1301	901.6	20.3
1040.9631	3129.1125	902.95	22.05
1041.0695	3130.0942	899.15	16.5
1041.1759	3131.0753	909.1	20.4
1041.2822	3132.0558	901.75	21.05
1041.3884	3133.0357	899.15	16.45
1041.4946	3134.015	900.05	20.3
1041.6008	3134.9936	902.25	19.75
1041.7069	3135.9716	924.2	22.7
1041.813	3136.949	900.25	17.7
1041.919	3137.9258	918.15	19.55
1042.025	3138.902	904.45	17.3
1042.1309	3139.8775	900.05	20.3
1042.2368	3140.8524	900.25	17.95
1042.3427	3141.8267	901.8	20.15
1042.4485	3142.8004	897.35	15.55
1042.5542	3143.7735	906.2	18.55
1042.6599	3144.7459	901.1	20.2
1042.7656	3145.7178	897.95	15.8
1042.8712	3146.689	895.75	17.35
1042.9768	3147.6596	900.15	17.55
1043.0823	3148.6295	898.2	17.2
1043.1878	3149.5989	898.05	17.65
1043.2932	3150.5676	897.35	19
1043.3986	3151.5357	898.5	19.4
1043.5039	3152.5032	896.3	15.9
1043.6092	3153.4701	895.6	14.9
1043.7145	3154.4364	899	16.5
1043.8197	3155.402	896.4	14.8
1043.9248	3156.367	899.05	17.1
1044.03	3157.3315	918.45	17.85
1044.135	3158.2952	899.05	17.85
1044.24	3159.2584	895.15	14.3
1044.345	3160.221	897.8	18.05
1044.4499	3161.1829	895.2	15.55
1044.5548	3162.1442	895.75	15.05
1044.6596	3163.105	895.6	13.8
1044.7644	3164.065	895.75	14.95
1044.8692	3165.0245	898.3	15.1
1044.9739	3165.9834	896.5	16.8
1045.0785	3166.9416	896.5	15.35
1045.1831	3167.8993	896.9	15.35
1045.2877	3168.8563	896.4	15.1
1045.3922	3169.8127	894.8	13.8
1045.4966	3170.7684	896.5	16.1
1045.6011	3171.7236	896.55	14.25
1045.7054	3172.6782	896.5	15.75
1045.8098	3173.6321	896.1	16.9
1045.914	3174.5854	898.45	12.7
1046.0183	3175.5381	896.7	15.95
1046.1224	3176.4902	895.75	17.1
1046.2266	3177.4417	893.95	11.9
1046.3307	3178.3926	894.3	15.65
1046.4347	3179.3428	892.5	13.45
1046.5387	3180.2924	895.15	16
1046.6427	3181.2415	895.5	15.7
1046.7466	3182.1899	895.95	14.05
1046.8504	3183.1377	894.35	15
1046.9542	3184.0848	896.6	12.8
1047.058	3185.0314	894.8	13.25
1047.1617	3185.9773	893.4	12
1047.2654	3186.9227	894.95	13.05
1047.369	3187.8674	893.2	11.1
1047.4726	3188.8115	898.8	14.5
1047.5761	3189.755	894.95	16.9
1047.6796	3190.6979	893.1	14.15
1047.783	3191.6402	892.65	13.25
1047.8864	3192.5818	891.6	11.55
1047.9898	3193.5229	915.3	15.35
1048.0931	3194.4633	894.1	13
1048.1963	3195.4031	893.2	13.65
1048.2995	3196.3423	890.5	7.55
1048.4027	3197.2809	893.15	12.1
1048.5058	3198.2189	891.95	10.45
1048.6089	3199.1563	899.1	11.75
1048.7119	3200.0931	893	14.55
1048.8148	3201.0292	892.35	11.75
1048.9178	3201.9648	889.95	9.05
1049.0206	3202.8997	894.4	10.1
1049.1235	3203.834	895.45	13.05
1049.2262	3204.7677	891.75	12.9
1049.329	3205.7008	894.45	10.35
1049.4317	3206.6333	890.15	9.6
1049.5343	3207.5652	893.75	9.3
1049.6369	3208.4964	892.1	11.25
1049.7394	3209.4271	893.05	11.7
1049.8419	3210.3571	893.9	14.4
1049.9444	3211.2865	893.1	11.15
1050.0468	3212.2154	893.15	12
1050.1491	3213.1436	896.9	14.45
1050.2514	3214.0712	898	10.75
1050.3537	3214.9982	890.95	10.45
1050.4559	3215.9246	892.7	11.05
1050.5581	3216.8503	892.2	13.45
1050.6602	3217.7755	891.55	10.4
1050.7623	3218.7001	891.4	12.4
1050.8643	3219.624	891	11.45
1050.9663	3220.5473	892.3	10.65
1051.0682	3221.4701	892.1	10.1
1051.1701	3222.3922	893.05	11
1051.2719	3223.3137	893.7	14.65
1051.3737	3224.2346	892.35	13.55
1051.4754	3225.1549	889.9	8.55
1051.5771	3226.0746	889.25	8.35
1051.6788	3226.9937	891.4	11.45
1051.7804	3227.9121	890.85	11.9
1051.8819	3228.83	890.6	9.35
1051.9834	3229.7473	890.55	10.15
1052.0849	3230.6639	892.45	12.2
1052.1863	3231.5799	892	11.85
1052.2876	3232.4954	891.65	11.35
1052.3889	3233.4102	891.95	11.9
1052.4902	3234.3244	892.3	11.4
1052.5914	3235.238	891.45	11.3
1052.6926	3236.151	914.4	8.25
1052.7937	3237.0634	890.2	11.45
1052.8948	3237.9752	889	8.2
1052.9958	3238.8864	891.15	11.4
1053.0968	3239.797	888.5	5.35
1053.1977	3240.7069	890.3	8.35
1053.2986	3241.6163	892.3	10.15
1053.3994	3242.5251	888.9	10.6
1053.5002	3243.4332	890.65	10.85
1053.6009	3244.3408	889.75	8.8
1053.7016	3245.2477	888.4	6.4
1053.8022	3246.154	889.9	7.8
1053.9028	3247.0598	889.15	5.55
1054.0034	3247.9649	889.55	8.4
1054.1039	3248.8694	888.45	7.65
1054.2043	3249.7733	890.05	8.8
1054.3047	3250.6766	888.05	5.7
1054.4051	3251.5793	889.8	9.05
1054.5054	3252.4814	888.95	7.1
1054.6056	3253.3829	888.15	6.45
1054.7058	3254.2838	887.75	5.4
1054.806	3255.1841	889.05	9.15
1054.9061	3256.0838	887.95	6.75
1055.0061	3256.9829	888.65	8.5
1055.1062	3257.8814	889	6.55
1055.2061	3258.7792	889.85	8.15
1055.306	3259.6765	891.55	11.65
1055.4059	3260.5731	889.2	9.35
1055.5057	3261.4692	890.05	8.7
1055.6055	3262.3647	889.5	9.5
1055.7052	3263.2595	888.25	6.65
1055.8049	3264.1538	887.75	6.95
1055.9045	3265.0474	886.65	4.6
1056.0041	3265.9404	887.9	9.25
1056.1036	3266.8329	887.3	7.55
1056.2031	3267.7247	898.15	7.45
1056.3025	3268.616	886	5.05
1056.4019	3269.5066	887.8	7.35
1056.5013	3270.3966	889.45	5.45
1056.6005	3271.286	885.95	6.7
