Software Version:	3.9.2.0
Unit SN:	10000200
Spectrometer SN:	6960
Date:	3/14/2024 12:41:36 PM
Data Line Index:	25
Spectral Points:	2048
Integration time (ms):	125
Averages:	20
Delay (ms):	30000
Sequence Number:	1
Processing:	dark subtract
Laser Power (mW):	305
Laser Current (mA):	822
Laser Diode Temp (C):	25
Laser Case Temp (C):	27.1
System Temp (C):	27.1
Spectrometer Temp (C):	24.6
CCD Temp (C):	0.012
Secondary Temp (C):	20.006
Heatsink Temp (C):	23.132
CCDPCB Temp (C):	36.763
SecondaryPCB Temp (C):	34.428

Wavelength	RamanShift	Raw Counts	Dark Subtracted
787.061	30.1047	418	7.7
787.2016	32.3739	416.2	8
787.3422	34.6426	417.65	6.6
787.4828	36.9109	419.45	7.1
787.6235	39.1787	426.2	9.15
787.7642	41.4461	430.95	9.05
787.9049	43.7131	434.8	9.85
788.0456	45.9796	438.8	10.45
788.1863	48.2456	442.1	9.05
788.3271	50.5112	447.1	9.8
788.4679	52.7764	450.25	12.55
788.6087	55.0411	452.9	11.35
788.7496	57.3054	459.05	11.35
788.8904	59.5692	459.85	9.85
789.0313	61.8326	464.85	11.4
789.1722	64.0955	472.7	15.8
789.3132	66.3579	478	15.95
789.4541	68.6199	483.7	18.55
789.5951	70.8815	493.05	25.3
789.7361	73.1426	510.35	38.95
789.8771	75.4032	534.1	56.95
790.0181	77.6634	599.25	119.55
790.1592	79.9231	738.8	254.45
790.3003	82.1824	1029.2	540.25
790.4414	84.4412	1535.9	1040.8
790.5825	86.6995	2182.45	1677.5
790.7237	88.9574	2819.95	2307.9
790.8648	91.2148	3279.85	2762.45
791.006	93.4717	3489.1	2966.55
791.1472	95.7282	3560.25	3034.4
791.2885	97.9842	3577.5	3049.25
791.4297	100.2398	3542.6	3010.15
791.571	102.4949	3520.45	2986.45
791.7123	104.7495	3520.1	2980.55
791.8536	107.0036	3475.1	2937.2
791.9949	109.2573	3432.4	2892.65
792.1363	111.5105	3389.35	2848.8
792.2777	113.7632	3324.8	2784.2
792.4191	116.0154	3283.6	2729.8
792.5605	118.2672	3210.25	2664.55
792.7019	120.5185	3148.4	2600.5
792.8434	122.7693	3098.75	2545.35
792.9849	125.0197	3037.9	2486
793.1264	127.2696	2979.1	2424.1
793.2679	129.519	2968.55	2411.7
793.4094	131.7679	2945	2384.05
793.551	134.0163	2929.85	2365.2
793.6926	136.2642	2925	2356.45
793.8342	138.5117	2934.7	2359.65
793.9758	140.7587	2910.55	2336.5
794.1175	143.0052	2887.5	2309.55
794.2591	145.2512	2844.55	2266.8
794.4008	147.4967	2806.25	2229.4
794.5425	149.7417	2792.3	2214.8
794.6842	151.9863	2760.3	2177.75
794.826	154.2304	2766.6	2179.1
794.9677	156.4739	2753.9	2162.4
795.1095	158.717	2757.7	2167.1
795.2513	160.9596	2766.7	2169.05
795.3931	163.2017	2783.45	2182.15
795.535	165.4433	2791.15	2190.9
795.6768	167.6844	2791.65	2188.9
795.8187	169.925	2771.1	2164.35
795.9606	172.1651	2726.15	2116.8
796.1025	174.4047	2712.4	2098.7
796.2445	176.6439	2685.2	2069.45
796.3864	178.8825	2656.6	2038.45
796.5284	181.1206	2652.25	2031.6
796.6704	183.3582	2638.65	2015.3
796.8124	185.5954	2630.4	2004.8
796.9544	187.832	2638.25	2008.5
797.0965	190.0681	2640.1	2006.75
797.2386	192.3037	2618.6	1983
797.3806	194.5388	2632	1994.7
797.5228	196.7734	2648.1	2006.85
797.6649	199.0075	2646.8	2003
797.807	201.2411	2666.15	2017.85
797.9492	203.4742	2676.75	2029.9
798.0914	205.7068	2686.35	2040.2
798.2336	207.9389	2700.25	2053.65
798.3758	210.1704	2717.7	2066.65
798.518	212.4015	2716.05	2061.9
798.6603	214.632	2717.95	2063
798.8025	216.862	2708.6	2057.15
798.9448	219.0915	2699.65	2054.7
799.0871	221.3205	2696.95	2056.3
799.2294	223.549	2687.8	2052.5
799.3718	225.777	2703.5	2070.4
799.5141	228.0044	2703.3	2063.85
799.6565	230.2314	2691	2054.25
799.7989	232.4578	2678.9	2041.05
799.9413	234.6837	2662.3	2015.15
800.0837	236.909	2662.8	2017.15
800.2262	239.1339	2662.15	1991.6
800.3687	241.3582	2640.55	1986.5
800.5111	243.582	2662.55	1981.3
800.6536	245.8053	2679.95	2005.3
800.7961	248.0281	2677.4	2005.4
800.9387	250.2503	2673	1996.85
801.0812	252.472	2679.95	1997.95
801.2238	254.6932	2678.6	1994.55
801.3664	256.9139	2663.35	1976.85
801.509	259.134	2681.55	1993.95
801.6516	261.3536	2693.5	2008.75
801.7942	263.5727	2719.45	2031.05
801.9369	265.7912	2743.15	2057.1
802.0795	268.0092	2761.95	2074.65
802.2222	270.2267	2811.15	2119.9
802.3649	272.4436	2823.05	2131.25
802.5076	274.6601	2846.95	2146.4
802.6504	276.8759	2854.4	2159.65
802.7931	279.0913	2875.9	2182.75
802.9359	281.3061	2873.7	2176.95
803.0787	283.5204	2902.95	2204.1
803.2215	285.7341	2894.5	2190.85
803.3643	287.9473	2917.4	2212.2
803.5071	290.16	2909.35	2198.65
803.6499	292.3721	2875.8	2172.95
803.7928	294.5837	2848	2141.8
803.9357	296.7947	2833.15	2126.85
804.0786	299.0052	2819.8	2110.65
804.2215	301.2152	2805.7	2097.65
804.3644	303.4246	2796.1	2088.45
804.5074	305.6334	2764.15	2054.95
804.6503	307.8418	2767.75	2057
804.7933	310.0495	2754.65	2043.8
804.9363	312.2568	2740.4	2032.8
805.0793	314.4635	2695.25	1982.35
805.2223	316.6696	2669.15	1955.05
805.3653	318.8752	2641.05	1918.5
805.5084	321.0802	2616	1901.45
805.6514	323.2847	2608.15	1893.25
805.7945	325.4887	2598.4	1881.65
805.9376	327.692	2611.2	1893.9
806.0807	329.8949	2632.8	1913.2
806.2238	332.0972	2655.8	1934.4
806.367	334.2989	2676	1949.65
806.5101	336.5001	2673.2	1948.5
806.6533	338.7007	2659.7	1935.3
806.7965	340.9008	2631.35	1905.1
806.9397	343.1003	2589.95	1857.85
807.0829	345.2992	2555.75	1825.15
807.2261	347.4976	2526.95	1793.55
807.3693	349.6955	2502.6	1765
807.5126	351.8927	2488.15	1749.35
807.6559	354.0895	2485.5	1738.6
807.7991	356.2856	2476.25	1733.15
807.9424	358.4812	2456.6	1717.95
808.0857	360.6763	2448.75	1708.85
808.2291	362.8707	2442.5	1700.1
808.3724	365.0646	2446.2	1703.4
808.5158	367.258	2449.75	1705.7
808.6591	369.4508	2454.9	1705.55
808.8025	371.643	2468.5	1719
808.9459	373.8346	2491.75	1740.45
809.0893	376.0257	2520.85	1765.15
809.2327	378.2162	2539.1	1785.15
809.3762	380.4062	2543.95	1785.55
809.5196	382.5956	2525.05	1765.8
809.6631	384.7844	2492.45	1734.3
809.8066	386.9726	2468.2	1708.15
809.9501	389.1603	2444.05	1686.5
810.0936	391.3474	2452.65	1658
810.2371	393.5339	2423.45	1662.1
810.3806	395.7199	2414.85	1657.95
810.5241	397.9052	2435.25	1682.7
810.6677	400.09	2452.8	1699.9
810.8113	402.2743	2487.55	1736.4
810.9548	404.4579	2508.45	1756.3
811.0984	406.641	2521.9	1770.35
811.2421	408.8235	2547.75	1790.55
811.3857	411.0054	2590.1	1836.55
811.5293	413.1868	2654.7	1898.25
811.673	415.3675	2718.4	1959.05
811.8166	417.5477	2734.9	1973.7
811.9603	419.7273	2674.7	1908.65
812.104	421.9064	2583.15	1813.05
812.2477	424.0848	2533.15	1766.4
812.3914	426.2627	2483.1	1712.85
812.5351	428.4399	2438.35	1667.3
812.6788	430.6166	2404.75	1627.7
812.8226	432.7928	2365.6	1589.6
812.9663	434.9683	2337.5	1563.15
813.1101	437.1432	2318.05	1539.85
813.2539	439.3176	2312.05	1536.05
813.3977	441.4914	2293.75	1515.15
813.5415	443.6645	2293.15	1511.2
813.6853	445.8371	2294.85	1514.1
813.8291	448.0091	2290.5	1510.85
813.973	450.1806	2289.85	1508.45
814.1168	452.3514	2280.2	1495.85
814.2607	454.5216	2279.65	1488.3
814.4046	456.6913	2265.7	1479.8
814.5485	458.8603	2264.95	1479.65
814.6924	461.0288	2278.85	1493.85
814.8363	463.1967	2256.95	1470.2
814.9802	465.3639	2264.65	1475.75
815.1241	467.5306	2251.95	1463.65
815.2681	469.6967	2241.05	1452
815.412	471.8622	2240.3	1451.1
815.556	474.0271	2238.3	1451.15
815.7	476.1914	2236.55	1445.2
815.844	478.3551	2223.8	1433.2
815.988	480.5182	2228.15	1436.95
816.132	482.6807	2225.6	1434
816.276	484.8426	2249.65	1458.5
816.4201	487.0039	2270.4	1477.55
816.5641	489.1647	2298.85	1506.35
816.7082	491.3248	2330.1	1538.45
816.8522	493.4843	2332.85	1538.15
816.9963	495.6432	2329.05	1533.85
817.1404	497.8015	2315	1518.6
817.2845	499.9592	2290.15	1495.85
817.4286	502.1163	2252.5	1455.65
817.5727	504.2728	2224.85	1426.65
817.7168	506.4287	2206.25	1407.75
817.861	508.5839	2191	1392.4
818.0051	510.7386	2187.55	1387.55
818.1493	512.8927	2201.1	1394.4
818.2935	515.0461	2197.55	1395.8
818.4377	517.199	2193.8	1394.8
818.5818	519.3512	2215.6	1414.15
818.726	521.5029	2263	1454.35
818.8703	523.6539	2302	1499.5
819.0145	525.8043	2313.65	1508.55
819.1587	527.9541	2273.3	1468.2
819.303	530.1033	2228.2	1424.45
819.4472	532.2519	2190.25	1384.15
819.5915	534.3999	2174.6	1366.6
819.7357	536.5472	2172.6	1366.25
819.88	538.694	2175.8	1367.15
820.0243	540.8401	2168.4	1359.65
820.1686	542.9856	2184.6	1374.6
820.3129	545.1305	2203.1	1393.2
820.4572	547.2748	2206.8	1397
820.6016	549.4185	2205.15	1393.2
820.7459	551.5615	2205.9	1394.3
820.8902	553.704	2222.65	1409.95
821.0346	555.8458	2226.9	1416
821.1789	557.987	2253.2	1441.35
821.3233	560.1276	2261.6	1450.4
821.4677	562.2675	2286.45	1475.1
821.6121	564.4069	2342.75	1530.65
821.7565	566.5456	2358.35	1546.2
821.9009	568.6837	2348.4	1535.45
822.0453	570.8212	2292.6	1479.6
822.1897	572.958	2246	1429.95
822.3342	575.0942	2236	1424.9
822.4786	577.2299	2209.05	1393.95
822.6231	579.3648	2176	1362.15
822.7675	581.4992	2150.15	1331.8
822.912	583.6329	2149.95	1334.6
823.0565	585.766	2159.85	1343.7
823.201	587.8985	2196	1380.95
823.3454	590.0304	2232.1	1405.65
823.4899	592.1616	2238.45	1419.6
823.6345	594.2922	2245.85	1430.15
823.779	596.4222	2223.9	1406.3
823.9235	598.5515	2178	1358.65
824.068	600.6802	2138.4	1320.45
824.2126	602.8083	2111.95	1292.35
824.3571	604.9358	2113.25	1291.1
824.5017	607.0626	2105.7	1284.85
824.6462	609.1888	2106.25	1282.5
824.7908	611.3144	2122.4	1298.2
824.9354	613.4393	2139.85	1317.75
825.08	615.5636	2176.6	1355.2
825.2246	617.6873	2198.85	1374.6
825.3692	619.8103	2213.4	1386.95
825.5138	621.9327	2226.7	1400.8
825.6584	624.0544	2200.3	1376.95
825.803	626.1756	2163.65	1339.5
825.9477	628.2961	2132.25	1306.3
826.0923	630.4159	2116.35	1291.6
826.237	632.5351	2110.65	1285.35
826.3816	634.6537	2110.25	1284.9
826.5263	636.7716	2093.95	1265.9
826.6709	638.8889	2087.15	1258.4
826.8156	641.0056	2088.45	1259
826.9603	643.1216	2102.95	1274
827.105	645.237	2109.4	1277.8
827.2497	647.3518	2097.45	1267.35
827.3944	649.4659	2068.5	1240.7
827.5391	651.5793	2059.8	1229.15
827.6838	653.6922	2044.35	1214.35
827.8285	655.8043	2040.7	1210.6
827.9733	657.9159	2043.6	1211.85
828.118	660.0268	2027.9	1194.95
828.2627	662.137	2030.55	1197.85
828.4075	664.2466	2027.9	1193.15
828.5522	666.3556	2027.9	1195.85
828.697	668.4639	2018.65	1182.4
828.8418	670.5716	2024.95	1192.2
828.9865	672.6786	2009.2	1174.55
829.1313	674.785	1998.25	1162.65
829.2761	676.8907	1993.6	1158
829.4209	678.9958	2002.95	1169.15
829.5657	681.1002	2000.7	1165.55
829.7105	683.204	2010.2	1173.05
829.8553	685.3072	1996.6	1157.8
830.0001	687.4097	1997.25	1161.05
830.1449	689.5115	2002.15	1163.2
830.2898	691.6127	1994.45	1156.55
830.4346	693.7132	1983.55	1143.7
830.5794	695.8131	1989.45	1142.7
830.7243	697.9123	1995.6	1154.85
830.8691	700.0109	1993.95	1154.4
831.014	702.1089	1996.7	1159.6
831.1588	704.2061	2009.2	1169.25
831.3037	706.3028	2017.6	1175.5
831.4486	708.3987	2025.05	1182.75
831.5935	710.4941	2046.15	1205.5
831.7383	712.5887	2045.15	1202.65
831.8832	714.6827	2044.65	1199.35
832.0281	716.7761	2035.4	1195.15
832.173	718.8688	2037	1196.4
832.3179	720.9608	2035.35	1190.55
832.4628	723.0522	2044.55	1199.55
832.6077	725.1429	2047.05	1204.85
832.7527	727.233	2068	1225.45
832.8976	729.3224	2105.45	1263.4
833.0425	731.4112	2145.45	1300.35
833.1874	733.4993	2163.45	1317.65
833.3324	735.5867	2133.15	1288.05
833.4773	737.6735	2091.5	1243.1
833.6222	739.7596	2046.35	1199.65
833.7672	741.845	2042.8	1197.45
833.9122	743.9298	2033.4	1184.3
834.0571	746.014	2051.65	1206.4
834.2021	748.0974	2061.65	1213.65
834.347	750.1802	2059.75	1213.3
834.492	752.2624	2048.45	1200.3
834.637	754.3439	2034.9	1185.95
834.782	756.4247	2031.45	1176
834.9269	758.5048	2007.85	1159.85
835.0719	760.5843	2018.9	1170.2
835.2169	762.6631	2026.5	1178.05
835.3619	764.7413	2067.55	1220.1
835.5069	766.8188	2107.4	1257.95
835.6519	768.8956	2177.15	1326.4
835.7969	770.9718	2196.55	1347.05
835.9419	773.0473	2193.65	1345.2
836.0869	775.1221	2171.9	1322.2
836.232	777.1962	2164.8	1313.05
836.377	779.2697	2192.5	1341.6
836.522	781.3426	2259.45	1398.8
836.667	783.4147	2302.6	1450.15
836.8121	785.4862	2306.7	1458.1
836.9571	787.557	2242.8	1392.7
837.1021	789.6271	2159.8	1307.6
837.2472	791.6966	2075.65	1223.4
837.3922	793.7654	2010.55	1157.35
837.5373	795.8335	1974.9	1122.2
837.6823	797.901	1949.8	1099.75
837.8274	799.9678	1955.45	1102.7
837.9724	802.0339	1939.9	1087.2
838.1175	804.0993	1960.2	1099.5
838.2626	806.1641	1941.45	1087.75
838.4076	808.2282	1940.15	1086.95
838.5527	810.2916	1921.65	1065.15
838.6978	812.3544	1912.1	1060.4
838.8428	814.4164	1901.3	1049.55
838.9879	816.4778	1913.15	1060.95
839.133	818.5385	1902.35	1049.05
839.2781	820.5986	1936.8	1083.4
839.4232	822.658	1972.95	1117
839.5682	824.7166	2004.6	1150.3
839.7133	826.7747	2063.2	1210.5
839.8584	828.832	2113.95	1259.1
840.0035	830.8886	2136.15	1277.05
840.1486	832.9446	2158.7	1300.95
840.2937	834.9999	2135.75	1281.3
840.4388	837.0545	2111.9	1251.7
840.5839	839.1085	2039.3	1182.35
840.729	841.1618	1994.7	1134.25
840.8741	843.2143	1949.55	1093.15
841.0192	845.2662	1924.15	1069.55
841.1643	847.3175	1918.6	1061.75
841.3095	849.368	1900.2	1044.9
841.4546	851.4179	1905.7	1050.2
841.5997	853.467	1892.25	1034.15
841.7448	855.5155	1906.65	1048.6
841.8899	857.5633	1905.95	1047.5
842.0351	859.6105	1905.7	1047.55
842.1802	861.6569	1893.2	1035.8
842.3253	863.7027	1885.25	1025.05
842.4704	865.7478	1873.35	1013.95
842.6156	867.7922	1867.15	1008.65
842.7607	869.8359	1863.3	1004.9
842.9058	871.8789	1853.8	993.3
843.0509	873.9212	1892.35	998
843.1961	875.9629	1853.6	995.8
843.3412	878.0039	1864.4	1004.6
843.4863	880.0441	1873.5	1014.35
843.6315	882.0837	1885.1	1024.45
843.7766	884.1226	1898.8	1038.5
843.9218	886.1609	1922.2	1062.75
844.0669	888.1984	1949.3	1092.4
844.212	890.2352	1987.1	1127.35
844.3572	892.2714	1993.55	1131.1
844.5023	894.3069	1977.85	1117.3
844.6475	896.3416	1930.8	1068
844.7926	898.3757	1902.7	1040.85
844.9377	900.4091	1894.65	1031.05
845.0829	902.4418	1900.45	1034.85
845.228	904.4739	1901.9	1039.05
845.3732	906.5052	1914.7	1050.5
845.5183	908.5358	1904.35	1044.25
845.6635	910.5658	1903.1	1038.7
845.8086	912.595	1879.45	1016.65
845.9538	914.6236	1841.7	981.55
846.0989	916.6515	1832.3	969.95
846.2441	918.6786	1814.35	949
846.3892	920.7051	1821.9	957.65
846.5344	922.7309	1809.65	946.4
846.6795	924.756	1808.2	943
846.8246	926.7804	1808.55	943.3
846.9698	928.8041	1817.6	952.85
847.1149	930.8272	1824.6	960.55
847.2601	932.8495	1827.4	961
847.4052	934.8711	1836.2	972
847.5504	936.892	1840.25	973.2
847.6955	938.9123	1849.15	984.65
847.8407	940.9318	1863.5	999.9
847.9858	942.9506	1870.3	1003.8
848.131	944.9688	1865.4	1000.6
848.2761	946.9862	1847	979.85
848.4213	949.003	1827.05	961
848.5664	951.019	1809.75	943.5
848.7115	953.0344	1797.95	934.45
848.8567	955.0491	1783.3	916.55
849.0018	957.063	1773.2	907.5
849.147	959.0763	1776.15	911.95
849.2921	961.0888	1782.65	914.45
849.4373	963.1007	1780.75	913.65
849.5824	965.1119	1768	901.2
849.7275	967.1223	1761.6	893.7
849.8727	969.1321	1755.95	889.2
850.0178	971.1412	1750.25	882.25
850.1629	973.1495	1749.1	884.15
850.3081	975.1572	1792.4	873.3
850.4532	977.1641	1753.5	887.1
850.5983	979.1704	1748.3	881.75
850.7435	981.1759	1752.25	881.9
850.8886	983.1808	1735.75	867.7
851.0337	985.1849	1743.15	864.35
851.1788	987.1884	1728.5	857.6
851.324	989.1911	1734.75	862.9
851.4691	991.1932	1742.85	873.85
851.6142	993.1945	1746.65	876.95
851.7593	995.1951	1732.85	864.4
851.9045	997.1951	1729.3	854.15
852.0496	999.1943	1726.65	859.95
852.1947	1001.1928	1730.1	860.45
852.3398	1003.1906	1723.85	856.95
852.4849	1005.1877	1742.65	873
852.63	1007.1841	1753.75	882.45
852.7751	1009.1798	1757.05	887.85
852.9202	1011.1748	1756.85	886.9
853.0653	1013.1691	1741	871.95
853.2104	1015.1627	1716.5	845.85
853.3555	1017.1556	1689.05	819.05
853.5006	1019.1477	1678.55	807.7
853.6457	1021.1392	1665.5	798.05
853.7908	1023.1299	1655.95	786
853.9359	1025.12	1662.85	789.85
854.081	1027.1093	1663.7	792.8
854.2261	1029.0979	1681.85	812.9
854.3712	1031.0859	1684.2	814.95
854.5163	1033.0731	1700.25	828.8
854.6613	1035.0596	1688.2	816.5
854.8064	1037.0454	1682.1	810.35
854.9515	1039.0304	1675	803.35
855.0965	1041.0148	1650.4	777.8
855.2416	1042.9985	1646.1	772.75
855.3867	1044.9814	1634.65	764.3
855.5317	1046.9636	1639.95	766.1
855.6768	1048.9452	1631.05	761
855.8219	1050.926	1635.7	764.8
855.9669	1052.9061	1662	791.35
856.112	1054.8855	1651.5	778.2
856.257	1056.8642	1649.5	777.9
856.4021	1058.8421	1659.85	782.85
856.5471	1060.8194	1639.2	765.45
856.6921	1062.7959	1642.25	770.65
856.8372	1064.7717	1639.85	767.25
856.9822	1066.7469	1647.25	774.65
857.1272	1068.7213	1638.65	762.6
857.2723	1070.695	1639.05	765.65
857.4173	1072.6679	1666.65	792.3
857.5623	1074.6402	1674.95	801.4
857.7073	1076.6117	1688.05	809.95
857.8523	1078.5826	1671.7	798.7
857.9973	1080.5527	1643.3	766.55
858.1423	1082.5221	1630.25	756.85
858.2873	1084.4908	1601.1	728.6
858.4323	1086.4587	1594.75	719.8
858.5773	1088.426	1587.95	714.15
858.7223	1090.3925	1586.35	707.4
858.8673	1092.3584	1582.35	710.4
859.0123	1094.3235	1588.65	716.35
859.1573	1096.2879	1586.25	711.75
859.3022	1098.2515	1596.45	721.55
859.4472	1100.2145	1624.25	750.6
859.5922	1102.1767	1647.05	769.2
859.7371	1104.1382	1661.6	786.7
859.8821	1106.099	1696.6	822.8
860.027	1108.0591	1728.65	855.3
860.172	1110.0185	1747.9	873.6
860.3169	1111.9771	1779.7	906.7
860.4619	1113.9351	1797.85	923.5
860.6068	1115.8923	1836	962.1
860.7517	1117.8488	1869.45	993.1
860.8967	1119.8045	1834.85	959.4
861.0416	1121.7596	1778.95	903.85
861.1865	1123.7139	1706.75	833.1
861.3314	1125.6675	1670.35	795.15
861.4763	1127.6204	1663.45	788.35
861.6212	1129.5726	1675.35	798.45
861.7661	1131.524	1666.35	793.25
861.911	1133.4748	1655.25	781.75
862.0559	1135.4248	1615.05	739.3
862.2008	1137.3741	1576.55	701.1
862.3457	1139.3226	1558.85	681.5
862.4905	1141.2705	1552.9	677.6
862.6354	1143.2176	1566.3	686.6
862.7803	1145.164	1571.4	693
862.9251	1147.1097	1562.55	687.35
863.07	1149.0546	1553.35	675.8
863.2148	1150.9989	1539.2	662.3
863.3597	1152.9424	1528.5	651.5
863.5045	1154.8852	1517.4	639.3
863.6493	1156.8272	1507.5	633.25
863.7942	1158.7686	1510.85	626.2
863.939	1160.7092	1509.45	632.05
864.0838	1162.6491	1512.9	634.05
864.2286	1164.5883	1511.05	635.55
864.3734	1166.5267	1522.9	644
864.5182	1168.4644	1530.65	654.05
864.663	1170.4014	1555.35	675.2
864.8078	1172.3377	1575.85	701.15
864.9526	1174.2732	1601.75	726.5
865.0974	1176.2081	1656.5	779.75
865.2421	1178.1421	1730.75	850.15
865.3869	1180.0755	1799.05	922.8
865.5317	1182.0082	1840.55	963.3
865.6764	1183.9401	1844.35	963.35
865.8212	1185.8713	1782.15	903.5
865.9659	1187.8017	1697.65	823.25
866.1106	1189.7315	1627.4	750.7
866.2554	1191.6605	1609.25	703.75
866.4001	1193.5888	1547.95	670.2
866.5448	1195.5163	1531.15	652.15
866.6895	1197.4432	1519.45	641.4
866.8342	1199.3693	1502.55	625.8
866.9789	1201.2947	1495.65	609.3
867.1236	1203.2193	1488.8	612.5
867.2683	1205.1432	1475.1	596.15
867.413	1207.0664	1480.25	603.1
867.5576	1208.9889	1473.35	591.35
867.7023	1210.9106	1474.95	598.7
867.847	1212.8316	1477.85	601.3
867.9916	1214.7519	1488.75	600.2
868.1363	1216.6715	1484.9	607.2
868.2809	1218.5903	1498.6	618.85
868.4255	1220.5084	1501.45	624.5
868.5701	1222.4257	1510.85	632.3
868.7148	1224.3424	1507.9	630.05
868.8594	1226.2583	1533.4	649.4
869.004	1228.1735	1540.8	660.5
869.1486	1230.0879	1556.2	677.05
869.2932	1232.0016	1582.6	703.35
869.4377	1233.9146	1603.65	723.6
869.5823	1235.8269	1614.25	735.6
869.7269	1237.7384	1613.4	733.55
869.8715	1239.6492	1609.45	731.95
870.016	1241.5592	1616.2	736.05
870.1606	1243.4686	1638.85	758.35
870.3051	1245.3772	1676.9	797.5
870.4496	1247.285	1731.6	849.65
870.5941	1249.1922	1795.75	915.9
870.7387	1251.0986	1819.45	940.1
870.8832	1253.0042	1869.55	991.4
871.0277	1254.9092	1915.15	1036.2
871.1722	1256.8134	1964.6	1085.5
871.3167	1258.7169	2011.05	1129.8
871.4611	1260.6196	2056.7	1179.45
871.6056	1262.5216	2079.15	1197
871.7501	1264.4229	2071.75	1192.8
871.8945	1266.3234	2044.15	1164.2
872.039	1268.2232	2010.9	1129.95
872.1834	1270.1223	1968.3	1086.4
872.3278	1272.0207	1951.05	1070.9
872.4723	1273.9183	1941.3	1053.35
872.6167	1275.8151	1925.05	1046.1
872.7611	1277.7113	1956.25	1073.15
872.9055	1279.6067	2002.95	1124.45
873.0499	1281.5014	2089.5	1207.95
873.1943	1283.3953	2195.45	1313.15
873.3386	1285.2885	2308.05	1430.3
873.483	1287.181	2407.55	1525.25
873.6274	1289.0727	2446.1	1568.2
873.7717	1290.9637	2417.65	1535.45
873.9161	1292.854	2350.55	1468.55
874.0604	1294.7435	2273.7	1391.65
874.2047	1296.6323	2191.1	1311.2
874.349	1298.5204	2129.3	1243.45
874.4933	1300.4077	2074.85	1191.9
874.6376	1302.2943	2039.95	1161.25
874.7819	1304.1802	2022.95	1143.25
874.9262	1306.0653	1995.55	1112.05
875.0705	1307.9497	1983.2	1102.05
875.2147	1309.8333	1966.5	1085.9
875.359	1311.7162	1947.7	1065.95
875.5032	1313.5984	1935.55	1052.5
875.6475	1315.4798	1931.55	1039.4
875.7917	1317.3605	1936.25	1039.8
875.9359	1319.2405	1929.95	1049.95
876.0801	1321.1197	1917.7	1033.9
876.2243	1322.9982	1899.95	1015.6
876.3685	1324.876	1862.4	981.25
876.5127	1326.753	1796	915.9
876.6569	1328.6293	1754.2	871.65
876.801	1330.5048	1697.6	813.85
876.9452	1332.3796	1636.8	756.35
877.0893	1334.2537	1625	716.45
877.2335	1336.127	1579.2	698.85
877.3776	1337.9996	1563.55	680.35
877.5217	1339.8714	1552.4	671.2
877.6658	1341.7426	1586.55	661.8
877.8099	1343.6129	1524.2	643.55
877.954	1345.4826	1516.65	637.05
878.0981	1347.3515	1507.95	622.25
878.2422	1349.2196	1490.95	609
878.3862	1351.087	1490.95	607.8
878.5303	1352.9537	1481.3	596.7
878.6743	1354.8197	1486.25	606.95
878.8184	1356.6849	1491.5	609.6
878.9624	1358.5493	1497	614.7
879.1064	1360.4131	1524.75	644.4
879.2504	1362.276	1537.7	657.45
879.3944	1364.1383	1568.45	685.65
879.5384	1365.9998	1575.55	687.55
879.6823	1367.8606	1560.9	679.8
879.8263	1369.7206	1560.15	677.8
879.9702	1371.5799	1548.45	665.8
880.1142	1373.4384	1549.1	668.7
880.2581	1375.2962	1529.9	649.3
880.402	1377.1533	1500.2	619.5
880.5459	1379.0096	1467.2	583.9
880.6898	1380.8652	1454.6	574.4
880.8337	1382.7201	1437.3	555.35
880.9776	1384.5742	1420.5	538.25
881.1215	1386.4275	1413	529.1
881.2653	1388.2802	1394.55	513.3
881.4092	1390.132	1391.1	508.8
881.553	1391.9832	1378.5	493.7
881.6968	1393.8336	1369.9	487.25
881.8406	1395.6832	1377.15	493.45
881.9844	1397.5322	1363.1	481.65
882.1282	1399.3803	1367.85	482.05
882.272	1401.2278	1354.7	473.6
882.4158	1403.0745	1347.9	467.15
882.5595	1404.9204	1340.65	459.9
882.7033	1406.7656	1338.5	454.35
882.847	1408.6101	1337.4	453.5
882.9908	1410.4538	1333.75	448.6
883.1345	1412.2968	1338.55	457.75
883.2782	1414.139	1335.2	453.9
883.4219	1415.9805	1343.05	461.6
883.5656	1417.8213	1355.55	466.55
883.7092	1419.6613	1356.7	475.25
883.8529	1421.5006	1367.7	483.4
883.9965	1423.3391	1389.2	504.75
884.1402	1425.1769	1428.7	545.3
884.2838	1427.0139	1451.75	568.25
884.4274	1428.8502	1509.8	624.8
884.571	1430.6858	1550.4	669.9
884.7146	1432.5206	1566.3	682.9
884.8582	1434.3547	1566.3	683.95
885.0018	1436.188	1552.3	669.2
885.1453	1438.0206	1547.35	662.75
885.2889	1439.8524	1536	652.5
885.4324	1441.6835	1529.2	646.55
885.5759	1443.5139	1527.4	639.45
885.7194	1445.3435	1534.55	651.25
885.8629	1447.1724	1535.9	652.7
886.0064	1449.0005	1531.35	647.8
886.1499	1450.8279	1531.4	644.6
886.2933	1452.6545	1530	645.35
886.4368	1454.4804	1527.55	644.9
886.5802	1456.3056	1520.1	629.35
886.7237	1458.13	1509.95	626.3
886.8671	1459.9536	1490.4	608.5
887.0105	1461.7766	1470.15	587.7
887.1539	1463.5987	1445.1	561.7
887.2972	1465.4202	1422.6	537.85
887.4406	1467.2409	1403.65	518.65
887.584	1469.0608	1387	503.75
887.7273	1470.88	1367.35	482.5
887.8706	1472.6984	1353.15	470.95
888.0139	1474.5161	1331.95	445.6
888.1572	1476.3331	1332.3	450.4
888.3005	1478.1493	1322.9	439.7
888.4438	1479.9648	1314.65	430.3
888.5871	1481.7795	1318.55	435
888.7303	1483.5935	1315.7	433.15
888.8736	1485.4067	1318.5	434.45
889.0168	1487.2192	1313.2	428.7
889.16	1489.031	1316.9	429.45
889.3032	1490.842	1311.05	426.25
889.4464	1492.6522	1311.65	429.75
889.5896	1494.4618	1311.4	427.35
889.7327	1496.2705	1306.5	423.1
889.8759	1498.0785	1312.4	428.45
890.019	1499.8858	1304.5	419.15
890.1622	1501.6924	1293.9	411.3
890.3053	1503.4981	1292.15	409.1
890.4484	1505.3032	1291.25	407.9
890.5914	1507.1075	1290.75	405.9
890.7345	1508.911	1279.7	396.85
890.8776	1510.7138	1284.2	400.3
891.0206	1512.5159	1277.2	393.5
891.1637	1514.3172	1273.5	389.3
891.3067	1516.1178	1267.55	384.2
891.4497	1517.9176	1273.35	387.3
891.5927	1519.7166	1253.3	372
891.7357	1521.515	1263.35	372.85
891.8786	1523.3126	1256.2	371.85
892.0216	1525.1094	1248.9	362.6
892.1645	1526.9055	1242.05	358.65
892.3074	1528.7008	1241.9	357
892.4503	1530.4954	1239	349
892.5932	1532.2893	1238.05	356.75
892.7361	1534.0824	1242.25	354.35
892.879	1535.8747	1239.5	354.5
893.0218	1537.6663	1238.2	353.95
893.1647	1539.4572	1232.3	346
893.3075	1541.2473	1237.35	352.05
893.4503	1543.0367	1226.25	342.15
893.5931	1544.8253	1231.9	342.75
893.7359	1546.6132	1229.9	342.55
893.8787	1548.4003	1240.3	345
894.0214	1550.1867	1242.5	349.05
894.1642	1551.9723	1241.9	353.5
894.3069	1553.7572	1248.45	363.4
894.4496	1555.5414	1256.95	371.75
894.5923	1557.3247	1271.2	385.65
894.735	1559.1074	1290.85	409.2
894.8777	1560.8893	1310.6	426.7
895.0204	1562.6705	1329.85	444.6
895.163	1564.4509	1348.45	465.05
895.3056	1566.2305	1351	467.2
895.4482	1568.0094	1357.15	473.85
895.5908	1569.7876	1354.45	470.1
895.7334	1571.565	1351.7	465.55
895.876	1573.3417	1347.9	464.1
896.0186	1575.1176	1353.6	470.5
896.1611	1576.8928	1353.2	468.5
896.3036	1578.6672	1371.85	487.75
896.4461	1580.4409	1376.75	493.5
896.5886	1582.2138	1400	513.35
896.7311	1583.986	1432.35	545.3
896.8736	1585.7575	1445.15	559.9
897.0161	1587.5282	1463.8	579.95
897.1585	1589.2981	1478.25	594.5
897.3009	1591.0673	1472.6	586.3
897.4433	1592.8358	1487.25	602.9
897.5857	1594.6035	1487.1	599.5
897.7281	1596.3704	1475.9	591.45
897.8705	1598.1366	1470.4	587.4
898.0128	1599.9021	1452.75	568.7
898.1551	1601.6668	1439.7	553.85
898.2975	1603.4308	1426.05	541.35
898.4398	1605.194	1435.6	545.05
898.5821	1606.9564	1436.55	551.3
898.7243	1608.7182	1467.85	577.45
898.8666	1610.4791	1502.15	616.7
899.0088	1612.2394	1556.65	671.15
899.1511	1613.9988	1621.35	734.3
899.2933	1615.7576	1670.25	784.9
899.4355	1617.5156	1689.1	798.8
899.5776	1619.2728	1666.6	781.45
899.7198	1621.0293	1624.65	740.2
899.862	1622.785	1561.2	672.1
900.0041	1624.54	1500.65	611.65
900.1462	1626.2942	1427.3	540.75
900.2883	1628.0477	1376.25	488.55
900.4304	1629.8005	1329.55	439.25
900.5725	1631.5525	1295.6	411.95
900.7145	1633.3037	1267.95	381.1
900.8566	1635.0542	1243.35	359.6
900.9986	1636.804	1221.85	337.65
901.1406	1638.553	1267.9	317.45
901.2826	1640.3013	1199.85	314.85
901.4245	1642.0488	1192.9	307.3
901.5665	1643.7955	1175.15	292.55
901.7085	1645.5416	1172.2	284.7
901.8504	1647.2868	1167.25	281.7
901.9923	1649.0313	1156.9	272.6
902.1342	1650.7751	1158.35	270.85
902.2761	1652.5181	1156.9	270.7
902.4179	1654.2604	1157.8	270.55
902.5598	1656.0019	1158.55	272.95
902.7016	1657.7427	1157.45	272
902.8434	1659.4828	1170.75	288
902.9852	1661.222	1186.35	298.4
903.127	1662.9606	1202.35	317.3
903.2687	1664.6984	1221.4	337.7
903.4105	1666.4354	1237.5	351.8
903.5522	1668.1717	1218.75	332.55
903.6939	1669.9072	1201.95	316.4
903.8356	1671.642	1181.1	293.65
903.9773	1673.3761	1156.75	274.25
904.119	1675.1094	1137.7	254.55
904.2606	1676.8419	1124.45	239.75
904.4022	1678.5737	1118.1	233.3
904.5439	1680.3048	1116.5	230.3
904.6855	1682.0351	1107.5	222.2
904.827	1683.7646	1104.75	216.65
904.9686	1685.4934	1098.65	214.6
905.1101	1687.2215	1095.7	209.15
905.2517	1688.9488	1097.5	211.65
905.3932	1690.6754	1092.75	207.3
905.5347	1692.4012	1093.55	208.4
905.6761	1694.1263	1089.35	205
905.8176	1695.8506	1091.5	205.85
905.9591	1697.5742	1084.05	199.75
906.1005	1699.297	1088.2	202.7
906.2419	1701.0191	1086.8	200.55
906.3833	1702.7404	1086.55	204.9
906.5246	1704.461	1077.85	191.45
906.666	1706.1808	1079.25	192.05
906.8073	1707.8999	1086.35	198.9
906.9487	1709.6182	1083.2	198.1
907.09	1711.3358	1078.8	192.35
907.2313	1713.0527	1075.05	191.45
907.3725	1714.7688	1076.15	183.7
907.5138	1716.4841	1080.3	193.9
907.655	1718.1987	1076.2	185.2
907.7962	1719.9126	1069.35	183.95
907.9374	1721.6257	1075.5	186.35
908.0786	1723.338	1069.25	182.25
908.2198	1725.0496	1072.2	184.05
908.3609	1726.7605	1070.9	184.9
908.502	1728.4706	1068.1	182.1
908.6431	1730.18	1070.95	182.6
908.7842	1731.8886	1064.4	177.25
908.9253	1733.5964	1091.5	186.05
909.0664	1735.3036	1065.9	176.75
909.2074	1737.0099	1062.7	178.3
909.3484	1738.7156	1064.95	178.8
909.4894	1740.4204	1073.35	185
909.6304	1742.1246	1065.4	178.45
909.7714	1743.8279	1063.05	177.4
909.9123	1745.5306	1067.2	181.15
910.0532	1747.2325	1061.95	177.25
910.1941	1748.9336	1056.6	169.75
910.335	1750.634	1063.3	177.95
910.4759	1752.3336	1065.6	180.5
910.6168	1754.0325	1059.2	175.15
910.7576	1755.7307	1061.8	174.15
910.8984	1757.4281	1058.4	171.85
911.0392	1759.1247	1068.35	175.05
911.18	1760.8206	1065.1	175.65
911.3208	1762.5158	1062.35	172.7
911.4615	1764.2102	1053.45	169.9
911.6022	1765.9039	1060.55	174.15
911.7429	1767.5968	1054.05	169.15
911.8836	1769.289	1054.2	169.15
912.0243	1770.9804	1055.1	167.3
912.1649	1772.6711	1058.75	172.5
912.3056	1774.361	1058.8	172.8
912.4462	1776.0502	1054.9	169.4
912.5868	1777.7386	1061.9	173.6
912.7274	1779.4263	1053.65	165.95
912.8679	1781.1132	1055.15	169.8
913.0084	1782.7994	1055.95	168.4
913.149	1784.4849	1053	168.45
913.2895	1786.1696	1074.1	168.1
913.4299	1787.8535	1052.9	167.35
913.5704	1789.5367	1054.8	168.15
913.7108	1791.2192	1050.9	163.85
913.8513	1792.9009	1064.8	163.7
913.9917	1794.5818	1047.2	159.7
914.132	1796.2621	1047.2	162.45
914.2724	1797.9415	1044.2	158.25
914.4128	1799.6202	1049.5	163.45
914.5531	1801.2982	1045.75	158.9
914.6934	1802.9755	1052.35	165.4
914.8337	1804.6519	1048.7	162.95
914.9739	1806.3277	1045	160.65
915.1142	1808.0027	1045.1	161.25
915.2544	1809.6769	1045.2	159.35
915.3946	1811.3504	1044.3	155.45
915.5348	1813.0231	1046.05	159.8
915.675	1814.6951	1039.4	154.75
915.8151	1816.3664	1044.25	154.15
915.9553	1818.0369	1049.05	161.75
916.0954	1819.7067	1042.4	156.2
916.2355	1821.3757	1043.05	154.65
916.3755	1823.044	1043.9	158.65
916.5156	1824.7115	1043.5	160.15
916.6556	1826.3783	1040.4	155.3
916.7956	1828.0443	1040.65	156.7
916.9356	1829.7096	1037.25	149.1
917.0756	1831.3741	1039	149.3
917.2155	1833.0379	1041.15	155.95
917.3555	1834.701	1041.2	151.8
917.4954	1836.3633	1038.35	150.8
917.6353	1838.0248	1038.6	149.85
917.7751	1839.6856	1037.05	151.55
917.915	1841.3457	1032.8	146.95
918.0548	1843.005	1036.4	151.15
918.1946	1844.6636	1039.25	155
918.3344	1846.3214	1034	145.6
918.4742	1847.9785	1038.2	151.75
918.6139	1849.6349	1038.35	150.95
918.7537	1851.2904	1042.7	147.05
918.8934	1852.9453	1037.45	149.3
919.0331	1854.5994	1035.05	147.05
919.1727	1856.2528	1036.75	144.9
919.3124	1857.9054	1033.75	146.5
919.452	1859.5572	1029.8	144.5
919.5916	1861.2083	1035.25	149.1
919.7312	1862.8587	1033.25	146.15
919.8708	1864.5084	1031.5	143.25
920.0103	1866.1572	1029.35	144.65
920.1498	1867.8054	1031.2	144.5
920.2893	1869.4528	1028.1	142.85
920.4288	1871.0994	1029.1	142.2
920.5683	1872.7453	1031.05	144.55
920.7077	1874.3905	1035.35	141.3
920.8471	1876.0349	1033.1	145.75
920.9865	1877.6786	1031.4	142.8
921.1259	1879.3215	1031.1	146.1
921.2653	1880.9637	1025.6	139.5
921.4046	1882.6051	1030.8	144.95
921.5439	1884.2458	1032.25	144.65
921.6832	1885.8858	1027.1	139.8
921.8225	1887.525	1029.9	142.55
921.9617	1889.1634	1026.35	139.45
922.101	1890.8011	1027.4	141
922.2402	1892.4381	1026.6	139.5
922.3794	1894.0743	1025.2	140.35
922.5185	1895.7098	1026.15	139.95
922.6577	1897.3446	1026.45	139.6
922.7968	1898.9786	1029.2	138.8
922.9359	1900.6118	1023.4	138.85
923.075	1902.2443	1028.8	140.6
923.214	1903.8761	1025.3	140.75
923.3531	1905.5071	1021.1	134
923.4921	1907.1374	1024.85	139.15
923.6311	1908.7669	1025.75	140.4
923.77	1910.3957	1025.35	139.5
923.909	1912.0237	1022.1	135.35
924.0479	1913.651	1023.95	136.8
924.1868	1915.2776	1021	136.7
924.3257	1916.9034	1017	130.95
924.4646	1918.5285	1017	129.4
924.6034	1920.1528	1017.4	129.75
924.7422	1921.7764	1019.4	132.85
924.881	1923.3992	1018.7	133.95
925.0198	1925.0213	1014.85	128
925.1586	1926.6427	1013.55	128.85
925.2973	1928.2633	1123.05	130.55
925.436	1929.8832	1019.45	131.25
925.5747	1931.5023	1016.9	129.35
925.7134	1933.1207	1019.15	134.8
925.852	1934.7383	1015.75	129.05
925.9906	1936.3552	1014.7	128.6
926.1292	1937.9714	1014.7	126.65
926.2678	1939.5868	1014.75	126.65
926.4064	1941.2015	1014.25	127.65
926.5449	1942.8154	1013.3	125.2
926.6834	1944.4286	1014	127.05
926.8219	1946.041	1038.25	128.65
926.9604	1947.6528	1019.7	127.45
927.0988	1949.2637	1006.4	120.85
927.2372	1950.8739	1009.05	121.35
927.3756	1952.4834	1009.85	121.3
927.514	1954.0921	1013.45	125.55
927.6523	1955.7001	1015.2	124.7
927.7907	1957.3074	1013.5	129.7
927.929	1958.9139	1011.1	124.85
928.0673	1960.5197	1011.8	122.65
928.2055	1962.1247	1007.8	124.35
928.3438	1963.729	1006.7	121
928.482	1965.3325	1030.15	117.25
928.6202	1966.9353	1009.35	124.3
928.7584	1968.5374	1005.15	118.7
928.8965	1970.1387	1011.5	126.4
929.0346	1971.7393	1007.6	120.75
929.1727	1973.3392	1008.4	123.4
929.3108	1974.9383	1006.05	120.4
929.4489	1976.5366	1007.5	121.25
929.5869	1978.1342	1006.9	117.05
929.7249	1979.7311	1005.4	117.7
929.8629	1981.3273	1011.35	123.95
930.0009	1982.9227	1005.9	118.1
930.1388	1984.5173	1004.95	119.9
930.2767	1986.1112	1004.05	115
930.4146	1987.7044	1004.6	118.45
930.5525	1989.2968	1006.8	118.3
930.6904	1990.8885	1007.8	118.6
930.8282	1992.4795	1003.25	113.8
930.966	1994.0697	1010.35	123.2
931.1038	1995.6592	1001.6	116.3
931.2415	1997.2479	1002.6	116.6
931.3793	1998.8359	1001.9	115.65
931.517	2000.4232	1005.5	120.55
931.6547	2002.0097	1002.35	117.95
931.7923	2003.5955	1002.4	115
931.93	2005.1805	1005.9	116.15
932.0676	2006.7648	1003.5	117.3
932.2052	2008.3484	1001.4	112.4
932.3427	2009.9312	1003.5	114.7
932.4803	2011.5133	1004.75	119.45
932.6178	2013.0946	1001.5	115.2
932.7553	2014.6752	1001.85	116.85
932.8928	2016.2551	998.35	111.4
933.0302	2017.8342	1004.35	117.75
933.1676	2019.4126	1001.3	115.05
933.305	2020.9902	996.6	111.85
933.4424	2022.5672	1004.25	113.85
933.5798	2024.1433	1003.7	111.35
933.7171	2025.7188	997.85	112.9
933.8544	2027.2935	1002.2	114.7
933.9917	2028.8674	998.85	113.5
934.129	2030.4406	999.3	114.25
934.2662	2032.0131	997.85	112.9
934.4034	2033.5849	1001.3	110.15
934.5406	2035.1559	997.65	110.9
934.6778	2036.7261	994.45	107.85
934.8149	2038.2957	997.85	112.55
934.952	2039.8645	998.95	113.6
935.0891	2041.4325	1002.4	113.15
935.2262	2042.9998	995.95	109.95
935.3632	2044.5664	1004	116.2
935.5002	2046.1323	999.75	112.45
935.6372	2047.6974	998.75	114.05
935.7742	2049.2617	999.35	112.7
935.9111	2050.8254	1030.4	112.35
936.048	2052.3883	999.25	110.05
936.1849	2053.9504	999.75	113.9
936.3218	2055.5118	997	111.4
936.4586	2057.0725	1000.8	109.35
936.5955	2058.6325	996.7	110
936.7323	2060.1917	996	110.65
936.869	2061.7502	1000.15	109.55
937.0058	2063.3079	996.85	111.05
937.1425	2064.8649	997.95	109.55
937.2792	2066.4212	995.6	106.75
937.4159	2067.9767	995.85	109.85
937.5525	2069.5315	995.75	109.3
937.6891	2071.0856	999.4	114
937.8257	2072.6389	994.4	106.75
937.9623	2074.1915	991.75	105.15
938.0989	2075.7433	995.7	107.9
938.2354	2077.2945	992.65	109
938.3719	2078.8448	995.35	109.05
938.5084	2080.3945	996.75	111.3
938.6448	2081.9434	992	106.15
938.7812	2083.4916	992.9	108.7
938.9176	2085.039	992.25	105.6
939.054	2086.5857	996.6	108.75
939.1903	2088.1317	993	107.45
939.3267	2089.677	990.7	104.1
939.463	2091.2215	995.95	110.65
939.5992	2092.7652	996.75	107.4
939.7355	2094.3083	998.2	111.9
939.8717	2095.8506	997	111.5
940.0079	2097.3921	993.05	105.55
940.1441	2098.933	996.5	110.25
940.2802	2100.4731	990.75	106.35
940.4163	2102.0124	999.25	103.6
940.5524	2103.5511	995.2	108.8
940.6885	2105.089	993.5	107.65
940.8245	2106.6261	992.75	107.75
940.9606	2108.1626	991.8	105.2
941.0965	2109.6983	1018.9	105.7
941.2325	2111.2332	991.55	102.15
941.3684	2112.7675	996.7	110.55
941.5044	2114.301	995.65	110.65
941.6403	2115.8337	996.55	111.45
941.7761	2117.3657	992.2	106.7
941.912	2118.897	995.8	109.75
942.0478	2120.4276	998.1	104.6
942.1835	2121.9575	993.25	106.5
942.3193	2123.4866	1001.55	101.5
942.455	2125.0149	990.45	101.7
942.5907	2126.5426	990.55	103.5
942.7264	2128.0695	994.75	104.15
942.8621	2129.5956	990.85	104.2
942.9977	2131.1211	993.8	103.6
943.1333	2132.6458	991.35	105.85
943.2689	2134.1698	992.1	105.25
943.4044	2135.693	993.2	101.5
943.54	2137.2155	989.4	99.55
943.6755	2138.7373	992.45	104.85
943.8109	2140.2584	988.3	101.45
943.9464	2141.7787	995.7	103.3
944.0818	2143.2983	989.65	105.2
944.2172	2144.8171	987.9	101.55
944.3526	2146.3353	994.85	106.3
944.4879	2147.8527	987.2	102.95
944.6232	2149.3693	988.55	101.45
944.7585	2150.8853	991.8	105.35
944.8938	2152.4005	990.45	104.65
945.029	2153.9149	991.7	105.85
945.1642	2155.4287	990.5	106.65
945.2994	2156.9417	988.15	99.1
945.4346	2158.454	989.8	100.15
945.5697	2159.9655	989.1	101.7
945.7048	2161.4764	986.35	99.8
945.8399	2162.9865	988.25	101.5
945.9749	2164.4958	989.7	101.2
946.1099	2166.0045	989.25	97.85
946.2449	2167.5124	985.2	99.5
946.3799	2169.0195	987.4	101.55
946.5148	2170.526	989.15	102.55
946.6498	2172.0317	989.1	103.8
946.7846	2173.5367	987.55	99.3
946.9195	2175.0409	987.05	101.1
947.0543	2176.5445	985.45	100.55
947.1891	2178.0473	985.55	98.75
947.3239	2179.5494	989.7	98.95
947.4587	2181.0507	984.65	98.1
947.5934	2182.5513	989.4	103.65
947.7281	2184.0512	986.05	99.1
947.8628	2185.5504	984.6	97.35
947.9974	2187.0488	985.4	99.45
948.132	2188.5465	986.3	98.5
948.2666	2190.0435	983.35	96
948.4012	2191.5397	987.9	102.75
948.5357	2193.0353	981.65	95.45
948.6702	2194.5301	982.1	95.8
948.8047	2196.0241	987	101.55
948.9392	2197.5175	984.2	99.25
949.0736	2199.0101	990.2	100.65
949.208	2200.502	981.05	95.3
949.3424	2201.9931	983.6	96.75
949.4767	2203.4835	981.4	94.25
949.611	2204.9733	991.85	99.65
949.7453	2206.4622	982.25	95.25
949.8796	2207.9505	987.4	98.9
950.0138	2209.438	979.15	94.55
950.148	2210.9248	984.75	97.5
950.2822	2212.4109	980.5	96.3
950.4164	2213.8962	982.1	95.2
950.5505	2215.3809	980.15	93.15
950.6846	2216.8648	978.95	92.05
950.8186	2218.3479	985.25	94.75
950.9527	2219.8304	978.8	89.1
951.0867	2221.3121	978.7	90.95
951.2207	2222.7931	976.7	91.35
951.3546	2224.2733	977.35	90.1
951.4886	2225.7529	978.8	92.3
951.6225	2227.2317	982.65	92.25
951.7563	2228.7098	976.4	90.5
951.8902	2230.1872	980.55	94.7
952.024	2231.6638	977.75	90.6
952.1578	2233.1397	979.2	89.15
952.2916	2234.6149	976.9	91
952.4253	2236.0894	979.25	91.95
952.559	2237.5632	988.7	91.95
952.6927	2239.0362	979.05	92.25
952.8263	2240.5085	978.5	92.55
952.9599	2241.9801	975.25	90.7
953.0935	2243.4509	975.35	89.5
953.2271	2244.921	976.55	90.5
953.3606	2246.3904	976.35	87.65
953.4941	2247.8591	975.1	89.6
953.6276	2249.3271	976.05	90.75
953.7611	2250.7943	976.65	89.3
953.8945	2252.2608	971.85	85.55
954.0279	2253.7266	973.95	87.8
954.1612	2255.1917	972.65	87.45
954.2946	2256.656	971.45	82.25
954.4279	2258.1197	969.1	82.8
954.5612	2259.5826	974.85	88.1
954.6944	2261.0447	975.5	87.7
954.8276	2262.5062	976.15	89
954.9608	2263.9669	974.45	85.75
955.094	2265.4269	972.05	86.35
955.2271	2266.8862	972.15	87.65
955.3602	2268.3448	971.5	83.75
955.4933	2269.8026	972.5	86.25
955.6264	2271.2598	971.45	83.4
955.7594	2272.7162	970	83.6
955.8924	2274.1719	970.05	84.5
956.0253	2275.6268	972.6	87.3
956.1583	2277.0811	972.55	85.6
956.2912	2278.5346	971.2	86.8
956.4241	2279.9874	965.9	79.2
956.5569	2281.4395	969.05	83.2
956.6897	2282.8908	972.05	80.3
956.8225	2284.3414	970.2	82.2
956.9553	2285.7914	966	81.55
957.088	2287.2406	972.45	83.4
957.2207	2288.689	968.65	82.05
957.3534	2290.1368	967.8	81.3
957.486	2291.5838	969.75	83.15
957.6186	2293.0302	969.5	80.05
957.7512	2294.4758	969	83.3
957.8838	2295.9206	972.9	84
958.0163	2297.3648	969.15	80.5
958.1488	2298.8082	968.1	81.25
958.2813	2300.251	971.2	85.45
958.4137	2301.693	969.15	78.7
958.5461	2303.1343	966.3	79.85
958.6785	2304.5748	967	79.1
958.8108	2306.0147	968.95	82.9
958.9432	2307.4538	967.75	79
959.0754	2308.8922	966.65	80.85
959.2077	2310.3299	966.1	79.3
959.3399	2311.7669	965.05	78.15
959.4721	2313.2031	967.5	81.2
959.6043	2314.6387	967.55	81.55
959.7365	2316.0735	963.3	75.9
959.8686	2317.5076	965.75	79.45
960.0006	2318.941	964.75	78.15
960.1327	2320.3737	964.9	77.15
960.2647	2321.8056	966.1	77.7
960.3967	2323.2369	966.55	80.9
960.5287	2324.6674	974.6	88.3
960.6606	2326.0972	972.9	86.25
960.7925	2327.5263	972.95	86.55
960.9244	2328.9547	974.7	88.3
961.0562	2330.3823	973.35	86.2
961.1881	2331.8092	971.85	82.45
961.3198	2333.2355	966.5	79.2
961.4516	2334.661	964.8	78.6
961.5833	2336.0858	967.55	79.25
961.715	2337.5098	962.6	75.35
961.8467	2338.9332	962.5	75.75
961.9783	2340.3558	966.65	79.15
962.1099	2341.7778	965	76.95
962.2415	2343.199	966.3	76.65
962.373	2344.6195	963	75
962.5045	2346.0393	960.25	73.35
962.636	2347.4583	964.35	77.05
962.7675	2348.8767	963.6	76.75
962.8989	2350.2943	961.9	74.85
963.0303	2351.7113	963.35	75.05
963.1617	2353.1275	960.15	74.45
963.293	2354.543	971.7	78.85
963.4243	2355.9578	962.05	73.85
963.5556	2357.3718	957.55	71.2
963.6868	2358.7852	962.4	72.6
963.818	2360.1978	962.9	75.7
963.9492	2361.6098	959.8	73.65
964.0803	2363.021	963.5	71.55
964.2114	2364.4315	959.9	72.35
964.3425	2365.8413	959.25	70.95
964.4736	2367.2504	958.4	74.7
964.6046	2368.6587	959.25	74.7
964.7356	2370.0664	958.8	71.95
964.8666	2371.4733	959.3	71.85
964.9975	2372.8795	961.55	75.8
965.1284	2374.285	960.8	75.85
965.2593	2375.6899	958.3	74.35
965.3901	2377.0939	957.8	70.45
965.5209	2378.4973	955.9	70.2
965.6517	2379.9	956.3	69
965.7825	2381.3019	958.05	70.6
965.9132	2382.7032	956.6	71.95
966.0439	2384.1037	955.9	69.2
966.1745	2385.5035	957.75	69.55
966.3051	2386.9027	956.1	69.05
966.4357	2388.3011	960.2	70.55
966.5663	2389.6987	954.3	67.5
966.6968	2391.0957	952.8	67.4
966.8273	2392.492	953.05	67.9
966.9578	2393.8876	953.9	66.2
967.0882	2395.2824	952.25	65.85
967.2186	2396.6765	953.9	68.8
967.349	2398.07	953	67
967.4793	2399.4627	952.9	67.15
967.6097	2400.8547	954.45	68.55
967.7399	2402.246	959.25	69.25
967.8702	2403.6366	954.05	67.9
968.0004	2405.0265	954.65	68
968.1306	2406.4156	957.95	66.25
968.2607	2407.8041	955.65	66.75
968.3909	2409.1918	954.15	65.1
968.521	2410.5789	953.75	66.7
968.651	2411.9652	949.35	59.15
968.781	2413.3508	949.8	64.55
968.911	2414.7358	951.4	65.05
969.041	2416.12	950.45	65.3
969.1709	2417.5035	951.2	65.4
969.3008	2418.8863	954.2	66
969.4307	2420.2684	952.65	67.05
969.5606	2421.6497	949.75	63.4
969.6904	2423.0304	949.65	63
969.8201	2424.4104	951.75	64.8
969.9499	2425.7896	958.65	66.75
970.0796	2427.1682	950.35	63.65
970.2093	2428.546	949.8	62.4
970.3389	2429.9232	950.65	61.9
970.4685	2431.2996	946.05	59.45
970.5981	2432.6753	948.25	62.7
970.7277	2434.0503	948.8	63.4
970.8572	2435.4246	945.85	59.4
970.9867	2436.7982	947.65	58.65
971.1161	2438.1711	944.4	57.4
971.2456	2439.5433	947.4	59.4
971.375	2440.9148	950.75	58.15
971.5043	2442.2856	946.75	60.35
971.6336	2443.6557	949.15	63.15
971.7629	2445.025	948.9	62.95
971.8922	2446.3937	944.7	56.25
972.0214	2447.7617	948.85	60.9
972.1506	2449.1289	943.6	56.6
972.2798	2450.4955	952.7	63.45
972.4089	2451.8613	947.9	62.45
972.538	2453.2265	946.55	59.95
972.6671	2454.5909	948	59.95
972.7961	2455.9546	944.95	59.45
972.9251	2457.3177	943.5	56.4
973.0541	2458.68	946.25	57.95
973.1831	2460.0416	943.8	55.6
973.312	2461.4025	947.2	56.65
973.4408	2462.7627	956.75	61.35
973.5697	2464.1222	943.55	57.9
973.6985	2465.4811	946.05	58.8
973.8273	2466.8392	944.25	58.3
973.956	2468.1966	949.6	59
974.0847	2469.5533	946.9	58.15
974.2134	2470.9093	946.45	59.5
974.3421	2472.2645	946.75	59.8
974.4707	2473.6191	945.5	60.2
974.5993	2474.973	946.25	58.65
974.7278	2476.3262	945.2	56.5
974.8563	2477.6787	943.25	57.5
974.9848	2479.0305	945.7	60.4
975.1132	2480.3816	950	60.2
975.2417	2481.7319	945	57.4
975.37	2483.0816	942.95	54.65
975.4984	2484.4306	942.9	56.05
975.6267	2485.7789	941	54.95
975.755	2487.1264	943.3	57.35
975.8833	2488.4733	941.65	55.1
976.0115	2489.8195	959	56.15
976.1397	2491.165	945.7	54.95
976.2678	2492.5097	943.1	54.05
976.3959	2493.8538	942.3	56.25
976.524	2495.1972	940.65	51.35
976.6521	2496.5398	941.6	53.5
976.7801	2497.8818	945.15	55.85
976.9081	2499.2231	941.65	54.6
977.036	2500.5637	944.3	56
977.164	2501.9035	940.05	52.7
977.2918	2503.2427	946.35	57.05
977.4197	2504.5812	940.5	53.3
977.5475	2505.919	942.1	55.6
977.6753	2507.256	941.45	54.8
977.8031	2508.5924	938.65	53.25
977.9308	2509.9281	945.4	51.2
978.0585	2511.2631	938.7	52.6
978.1861	2512.5974	939.05	54.7
978.3137	2513.9309	940.1	52.35
978.4413	2515.2638	972	53.5
978.5689	2516.596	939.35	54.05
978.6964	2517.9275	938.85	49.25
978.8239	2519.2583	938.7	50.4
978.9513	2520.5884	938.3	50.25
979.0788	2521.9178	936.6	48.9
979.2062	2523.2465	939	53
979.3335	2524.5745	939.65	53.9
979.4608	2525.9018	940.75	53.95
979.5881	2527.2284	936.55	50.6
979.7154	2528.5543	936.3	50.05
979.8426	2529.8796	936.2	48.55
979.9698	2531.2041	934.9	46.95
980.0969	2532.5279	937	50.6
980.224	2533.851	937	51.1
980.3511	2535.1735	935.4	48.65
980.4781	2536.4952	939.6	52.95
980.6052	2537.8163	938.05	50.65
980.7321	2539.1366	936.65	50.4
980.8591	2540.4562	939.3	51.5
980.986	2541.7752	936.65	49.4
981.1129	2543.0935	938.8	51.4
981.2397	2544.411	937.25	50.2
981.3665	2545.7279	933.8	47.35
981.4933	2547.0441	934.2	49.35
981.62	2548.3596	942.05	53.15
981.7467	2549.6744	935.45	49.95
981.8734	2550.9885	936.75	46.55
982.0001	2552.3019	933.7	48.2
982.1267	2553.6146	935.2	48.6
982.2532	2554.9266	938.55	52.3
982.3798	2556.2379	935.75	48.45
982.5063	2557.5485	932.5	47.3
982.6327	2558.8585	941.2	48.95
982.7592	2560.1677	940.4	50.85
982.8856	2561.4762	932.8	45.65
983.0119	2562.7841	935.8	47.35
983.1383	2564.0913	930.15	43.2
983.2646	2565.3977	931.75	45.85
983.3908	2566.7035	936.85	49.6
983.517	2568.0086	937.05	47.45
983.6432	2569.313	936.5	49.85
983.7694	2570.6167	937	46.25
983.8955	2571.9197	932.25	46.95
984.0216	2573.222	934.85	46.35
984.1476	2574.5236	936.55	50.25
984.2737	2575.8246	934.4	45.9
984.3996	2577.1248	937.75	48.65
984.5256	2578.4244	930.65	44.55
984.6515	2579.7232	933.3	46.1
984.7774	2581.0214	961.7	43.35
984.9032	2582.3189	933.5	48.05
985.029	2583.6157	938.65	45.55
985.1548	2584.9118	933.05	46.55
985.2806	2586.2072	929.95	45.25
985.4063	2587.5019	933.3	48.55
985.5319	2588.7959	932.35	45.2
985.6576	2590.0893	935.45	46.5
985.7832	2591.3819	933.05	47.45
985.9087	2592.6739	929.6	44.25
986.0343	2593.9652	934.35	47.9
986.1597	2595.2557	931.1	43.5
986.2852	2596.5456	934.4	46.6
986.4106	2597.8348	930.3	45
986.536	2599.1234	932.95	47.7
986.6614	2600.4112	932.4	45.75
986.7867	2601.6983	933.95	42.8
986.912	2602.9848	933.45	47.55
987.0372	2604.2705	937.1	44.55
987.1624	2605.5556	930.35	44.3
987.2876	2606.84	931.95	45.85
987.4128	2608.1237	929.75	40.8
987.5379	2609.4067	932.35	45.1
987.6629	2610.689	939	42.2
987.788	2611.9707	935.8	44.35
987.913	2613.2516	933.8	42.05
988.0379	2614.5319	929.05	41.1
988.1629	2615.8115	929.25	42.7
988.2878	2617.0903	930.25	42.55
988.4126	2618.3685	929.45	42.9
988.5375	2619.6461	931.6	44.7
988.6622	2620.9229	930.5	43.85
988.787	2622.199	930.35	41.85
988.9117	2623.4745	930.1	42.3
989.0364	2624.7493	928.05	39.75
989.161	2626.0234	928.6	44.4
989.2857	2627.2968	929.75	42.55
989.4102	2628.5695	928.15	41.25
989.5348	2629.8415	927.95	40.65
989.6593	2631.1128	925.85	36.7
989.7837	2632.3835	930.95	44.6
989.9082	2633.6535	927.8	43.2
990.0326	2634.9228	927.3	43.05
990.1569	2636.1914	928.9	44.65
990.2812	2637.4593	934.15	41.5
990.4055	2638.7265	929.3	40.95
990.5298	2639.9931	926.1	37.85
990.654	2641.259	927.8	39.2
990.7782	2642.5242	927.05	40.75
990.9023	2643.7887	926.85	40.65
991.0264	2645.0525	924.4	39.9
991.1505	2646.3156	927.15	40.4
991.2745	2647.5781	925.25	39.35
991.3985	2648.8398	924.4	39.55
991.5225	2650.1009	961.45	37.55
991.6464	2651.3613	926.9	39.6
991.7703	2652.6211	925.85	38.7
991.8942	2653.8801	924.35	39.6
992.018	2655.1385	925.35	35.7
992.1418	2656.3961	925.95	38
992.2655	2657.6531	926.25	39.35
992.3892	2658.9094	923.75	36.9
992.5129	2660.1651	922.65	35.85
992.6366	2661.42	924.45	39.9
992.7602	2662.6743	925.9	35.85
992.8837	2663.9279	925.35	39.35
993.0073	2665.1808	923.55	36
993.1307	2666.433	925.5	38.3
993.2542	2667.6846	923.65	37.95
993.3776	2668.9354	929.25	38.85
993.501	2670.1856	924.6	38.6
993.6244	2671.4351	926.2	41.55
993.7477	2672.6839	928.55	38.75
993.8709	2673.9321	925.65	40.85
993.9942	2675.1795	925.9	38
994.1174	2676.4263	925.5	39.55
994.2405	2677.6724	924.6	38.6
994.3637	2678.9179	925.95	38.55
994.4868	2680.1626	925.15	40.45
994.6098	2681.4067	926	40.45
994.7328	2682.6501	924.7	39.15
994.8558	2683.8928	927.3	41.3
994.9788	2685.1348	924.35	38.9
995.1017	2686.3761	924.25	39.55
995.2245	2687.6168	922.1	33.9
995.3474	2688.8568	925.55	39.6
995.4702	2690.0961	920.05	34.2
995.5929	2691.3348	922	32.7
995.7156	2692.5727	922	35.9
995.8383	2693.81	922.6	35.65
995.961	2695.0466	920.75	34.3
996.0836	2696.2826	919.95	34.25
996.2062	2697.5178	923.65	34.55
996.3287	2698.7524	920.15	33.45
996.4512	2699.9863	923.9	34.85
996.5737	2701.2195	921.65	35.85
996.6961	2702.452	924.25	37.8
996.8185	2703.6839	925	37.3
996.9408	2704.9151	922.8	36.75
997.0631	2706.1456	921.2	32.75
997.1854	2707.3755	923.3	37.7
997.3077	2708.6046	924.3	35.15
997.4299	2709.8331	925.3	37.65
997.552	2711.0609	923.4	37.65
997.6742	2712.2881	922.95	37.4
997.7963	2713.5145	926.7	38
997.9183	2714.7403	924.25	40.4
998.0403	2715.9654	925.35	38
998.1623	2717.1899	928.4	41.5
998.2842	2718.4136	924.35	38.45
998.4062	2719.6367	925.75	37
998.528	2720.8591	931.75	37.4
998.6498	2722.0809	926.5	39.25
998.7716	2723.3019	933.45	44.2
998.8934	2724.5223	927.55	40.25
999.0151	2725.7421	929.55	40.8
999.1368	2726.9611	928.45	38.85
999.2584	2728.1795	931.5	41.1
999.38	2729.3972	923.5	37.35
999.5016	2730.6142	938.3	38.05
999.6231	2731.8306	923.15	35.6
999.7446	2733.0462	924.3	36.1
999.8661	2734.2612	926.65	33.75
999.9875	2735.4756	923.2	35.8
1000.1089	2736.6892	922	34
1000.2302	2737.9022	919.75	34.45
1000.3515	2739.1145	924	38.35
1000.4728	2740.3262	927.4	32.55
1000.594	2741.5372	920	33.9
1000.7152	2742.7475	920.5	34.7
1000.8363	2743.9571	922.05	34.95
1000.9575	2745.1661	923.7	32.25
1001.0785	2746.3744	918.1	30.95
1001.1996	2747.582	919.2	30.9
1001.3206	2748.7889	921.3	33.2
1001.4415	2749.9952	917.55	31.15
1001.5625	2751.2008	918	29.15
1001.6833	2752.4057	921.95	32.3
1001.8042	2753.61	916.75	30.8
1001.925	2754.8136	918.1	30.3
1002.0458	2756.0165	917.55	29.65
1002.1665	2757.2188	914.5	29.45
1002.2872	2758.4204	915.65	30.75
1002.4078	2759.6213	918.95	30.3
1002.5285	2760.8215	921.5	27.85
1002.649	2762.0211	916	26.5
1002.7696	2763.22	920.7	34.35
1002.8901	2764.4182	918.65	30.65
1003.0106	2765.6158	917.8	29.5
1003.131	2766.8127	916.5	29.4
1003.2514	2768.009	917.8	31
1003.3717	2769.2045	917.2	29.25
1003.492	2770.3994	918	27.15
1003.6123	2771.5936	915.95	29.15
1003.7325	2772.7872	912.9	27.55
1003.8527	2773.9801	914.65	26.45
1003.9729	2775.1723	931.45	28
1004.093	2776.3639	915.85	30.6
1004.2131	2777.5548	916.85	26.2
1004.3331	2778.745	916.5	28.45
1004.4531	2779.9346	913.35	26.2
1004.5731	2781.1235	915	26.7
1004.693	2782.3117	912.5	27.6
1004.8129	2783.4992	915.1	26.65
1004.9328	2784.6861	915.5	28.55
1005.0526	2785.8723	917.4	29.6
1005.1723	2787.0579	914.85	28.5
1005.2921	2788.2428	914.45	28.05
1005.4118	2789.427	915.4	29.55
1005.5314	2790.6106	914.6	28
1005.651	2791.7935	914.35	25.8
1005.7706	2792.9757	912.4	26.25
1005.8902	2794.1573	915.15	25.4
1006.0097	2795.3382	913.1	25.65
1006.1291	2796.5184	912.8	29.45
1006.2485	2797.698	913.1	25.75
1006.3679	2798.8769	914.25	27.95
1006.4873	2800.0551	915.75	28.05
1006.6066	2801.2327	916.45	24.85
1006.7258	2802.4096	914.8	28.65
1006.8451	2803.5859	914.35	26.35
1006.9642	2804.7615	916.55	27.3
1007.0834	2805.9364	913.1	27.65
1007.2025	2807.1106	915.65	30.65
1007.3216	2808.2842	917.7	29.5
1007.4406	2809.4572	918.3	32.8
1007.5596	2810.6294	920.4	32.85
1007.6785	2811.801	916.25	29.65
1007.7975	2812.972	915.7	30.2
1007.9163	2814.1423	919.25	32.2
1008.0352	2815.3119	920.9	34.1
1008.154	2816.4808	921.5	34.75
1008.2727	2817.6491	925.4	38.3
1008.3914	2818.8167	924.5	36.5
1008.5101	2819.9837	929.15	39.4
1008.6288	2821.15	929.95	43.4
1008.7474	2822.3157	933.05	47.15
1008.8659	2823.4807	940	54.65
1008.9844	2824.645	944.2	55.2
1009.1029	2825.8086	944.8	59.15
1009.2214	2826.9716	946.35	62.2
1009.3398	2828.134	952.4	68.35
1009.4581	2829.2957	955.3	68.8
1009.5764	2830.4567	956.65	70.25
1009.6947	2831.617	962.45	76.25
1009.813	2832.7767	964.35	78.95
1009.9312	2833.9358	961.65	75.2
1010.0493	2835.0941	964.25	75
1010.1675	2836.2519	960.1	75.9
1010.2855	2837.4089	960.85	73.6
1010.4036	2838.5653	955.15	69.3
1010.5216	2839.7211	954.8	69.95
1010.6396	2840.8761	954.95	67.65
1010.7575	2842.0306	948.75	62.9
1010.8754	2843.1843	948.6	61.25
1010.9932	2844.3374	953.05	67.45
1011.111	2845.4899	953.85	65.45
1011.2288	2846.6417	953.55	65.9
1011.3465	2847.7928	952.8	66.75
1011.4642	2848.9433	955.65	68.6
1011.5818	2850.0931	955.6	68.85
1011.6995	2851.2422	956.25	67.95
1011.817	2852.3907	959.35	71.7
1011.9345	2853.5385	959.65	71.75
1012.052	2854.6857	983.9	71.65
1012.1695	2855.8323	958.45	72.4
1012.2869	2856.9781	959.85	74
1012.4042	2858.1233	960.3	74.55
1012.5216	2859.2679	963.65	77.6
1012.6389	2860.4118	963.35	75.6
1012.7561	2861.555	969.9	78.2
1012.8733	2862.6976	969	78.6
1012.9905	2863.8395	970.25	84.75
1013.1076	2864.9808	971.7	84.9
1013.2247	2866.1214	970.05	83.3
1013.3417	2867.2614	972.2	85.6
1013.4587	2868.4007	974.3	86.15
1013.5757	2869.5393	974.85	86.05
1013.6926	2870.6773	976.1	87.6
1013.8095	2871.8146	980.95	92
1013.9263	2872.9513	979.1	90.65
1014.0431	2874.0874	981.65	97.95
1014.1599	2875.2227	980.15	92.35
1014.2766	2876.3574	978.2	90.8
1014.3933	2877.4915	981.6	94.2
1014.51	2878.6249	982.1	97.8
1014.6266	2879.7577	987.05	97.9
1014.7431	2880.8898	997.7	99.25
1014.8596	2882.0212	986.35	100.15
1014.9761	2883.152	988.35	102.3
1015.0925	2884.2821	983.7	96.9
1015.2089	2885.4116	989.7	102.55
1015.3253	2886.5405	988.4	102.7
1015.4416	2887.6686	993.65	104.6
1015.5579	2888.7962	988.35	102.4
1015.6741	2889.923	991.8	107.45
1015.7903	2891.0493	988.75	103.25
1015.9065	2892.1748	991.45	103.3
1016.0226	2893.2997	993.3	105.5
1016.1387	2894.424	991.3	104.6
1016.2547	2895.5476	990.45	102.7
1016.3707	2896.6706	990.6	106
1016.4866	2897.7929	992	105.75
1016.6025	2898.9145	992.25	106.1
1016.7184	2900.0355	990	101.2
1016.8342	2901.1559	993.4	107.8
1016.95	2902.2756	996.6	107
1017.0658	2903.3946	989.4	104.2
1017.1815	2904.513	991.9	104.5
1017.2971	2905.6308	988.6	101.1
1017.4127	2906.7479	989.8	102.05
1017.5283	2907.8643	988.25	101.7
1017.6439	2908.9801	989.6	102.95
1017.7594	2910.0953	988.5	102.2
1017.8748	2911.2098	993.8	103.65
1017.9902	2912.3236	997.8	103.05
1018.1056	2913.4368	990	100.6
1018.2209	2914.5494	986.3	100.4
1018.3362	2915.6613	994.45	101.85
1018.4515	2916.7725	989	99.35
1018.5667	2917.8831	984.5	97.75
1018.6819	2918.9931	985.05	95.8
1018.797	2920.1024	979.25	90.95
1018.9121	2921.211	980.6	93.75
1019.0271	2922.319	979.7	90.85
1019.1421	2923.4264	973	88.1
1019.2571	2924.5331	973.5	87.4
1019.372	2925.6391	975.4	90.5
1019.4869	2926.7445	972.7	87.05
1019.6017	2927.8493	978	90.05
1019.7165	2928.9534	977.45	91.5
1019.8313	2930.0569	981.45	93.4
1019.946	2931.1597	980.25	93.25
1020.0606	2932.2619	977.35	93
1020.1753	2933.3634	979.45	93
1020.2899	2934.4643	990.55	97.25
1020.4044	2935.5645	984.3	91.9
1020.5189	2936.6641	982.35	91.15
1020.6334	2937.763	977.85	92.85
1020.7478	2938.8613	982.4	95.8
1020.8622	2939.959	986.2	93.6
1020.9765	2941.056	980.35	93.75
1021.0908	2942.1523	976.85	86.5
1021.2051	2943.248	974.15	88.85
1021.3193	2944.3431	967.65	80.2
1021.4334	2945.4375	964.4	78.05
1021.5476	2946.5313	958.85	73.2
1021.6617	2947.6244	955.55	69.5
1021.7757	2948.7169	955.75	68.65
1021.8897	2949.8087	951.65	66.3
1022.0037	2950.8999	947.95	61.3
1022.1176	2951.9904	943.15	57.15
1022.2315	2953.0803	937.85	49.9
1022.3453	2954.1696	939.25	53.9
1022.4591	2955.2582	934.8	47.95
1022.5728	2956.3462	936.25	49.15
1022.6865	2957.4335	934.65	46.75
1022.8002	2958.5202	936	47.35
1022.9138	2959.6062	936.15	49.25
1023.0274	2960.6916	934.15	48.4
1023.141	2961.7764	937.65	50.7
1023.2545	2962.8605	936.25	49.5
1023.3679	2963.9439	933.05	47.1
1023.4813	2965.0267	934.5	45.45
1023.5947	2966.1089	957.4	48.05
1023.708	2967.1905	933.7	45.85
1023.8213	2968.2714	933.6	48.75
1023.9346	2969.3516	934.55	47.1
1024.0478	2970.4312	938.7	44.65
1024.1609	2971.5102	931.2	45.65
1024.274	2972.5885	932.15	46.25
1024.3871	2973.6662	940.8	50.8
1024.5002	2974.7432	933.1	47.2
1024.6132	2975.8196	932.05	44.8
1024.7261	2976.8954	931.1	43.1
1024.839	2977.9705	934.6	47.85
1024.9519	2979.045	931.4	46.35
1025.0647	2980.1188	932.35	46.3
1025.1775	2981.192	932.55	47.15
1025.2902	2982.2645	933.15	45.5
1025.4029	2983.3364	929.2	42.65
1025.5156	2984.4077	929.85	43.6
1025.6282	2985.4783	932.45	40.85
1025.7407	2986.5483	926.25	41.25
1025.8532	2987.6177	925.15	38.65
1025.9657	2988.6864	923.8	36.25
1026.0782	2989.7545	925.7	37.2
1026.1906	2990.8219	923	37.15
1026.3029	2991.8887	922.95	34.85
1026.4152	2992.9548	923.35	36.6
1026.5275	2994.0204	916	30.1
1026.6397	2995.0852	916.1	32.25
1026.7519	2996.1495	918.1	28.85
1026.864	2997.2131	913.65	28.7
1026.9761	2998.276	910.35	24.55
1027.0882	2999.3383	913.05	25.35
1027.2002	3000.4	913.9	27.5
1027.3122	3001.4611	910.95	23.95
1027.4241	3002.5215	910.25	22.15
1027.536	3003.5812	908.45	22.15
1027.6478	3004.6404	907.2	19.05
1027.7596	3005.6989	907.95	18.65
1027.8714	3006.7567	904.4	18.7
1027.9831	3007.8139	937.05	19.75
1028.0947	3008.8705	907	21.4
1028.2064	3009.9264	922.95	20.3
1028.3179	3010.9818	904.45	17.25
1028.4295	3012.0364	906.25	19.55
1028.541	3013.0905	906.3	19.65
1028.6524	3014.1439	905	16.7
1028.7638	3015.1966	904.25	18.65
1028.8752	3016.2487	904.6	19.1
1028.9865	3017.3002	911.2	19.05
1029.0978	3018.3511	901.95	14.85
1029.209	3019.4013	903.8	17.75
1029.3202	3020.4509	901.15	14.05
1029.4314	3021.4998	903.85	17.65
1029.5425	3022.5481	903.05	16.1
1029.6535	3023.5958	903.7	17.65
1029.7645	3024.6428	902.55	15.15
1029.8755	3025.6892	903.9	16.7
1029.9864	3026.735	902.45	16.5
1030.0973	3027.7802	902.8	17.55
1030.2082	3028.8247	901.65	14.6
1030.319	3029.8685	903.4	16.9
1030.4297	3030.9118	902.05	13.5
1030.5404	3031.9544	901.15	14.8
1030.6511	3032.9963	904.3	15.7
1030.7617	3034.0376	899.85	13.95
1030.8723	3035.0783	904.55	15.25
1030.9829	3036.1184	906.1	19.3
1031.0934	3037.1578	902	14.5
1031.2038	3038.1966	905.25	16.8
1031.3142	3039.2348	899.6	14.25
1031.4246	3040.2723	909.05	13.55
1031.5349	3041.3092	901.25	16
1031.6452	3042.3455	901.3	13.55
1031.7554	3043.3811	903.85	15.65
1031.8656	3044.4161	904.7	18.7
1031.9758	3045.4505	902	18.1
1032.0859	3046.4842	903.7	16.3
1032.1959	3047.5173	902	18.4
1032.3059	3048.5498	902.6	17.65
1032.4159	3049.5816	904.75	18.1
1032.5258	3050.6128	902.65	14.6
1032.6357	3051.6434	905.6	16.85
1032.7455	3052.6734	904.15	16.85
1032.8553	3053.7027	901.45	14.8
1032.9651	3054.7314	903.1	15.85
1033.0748	3055.7594	900.85	15.3
1033.1845	3056.7868	904.4	17.1
1033.2941	3057.8136	902.05	14.35
1033.4037	3058.8398	901.2	14.05
1033.5132	3059.8653	902.75	15.2
1033.6227	3060.8902	904.25	18.7
1033.7321	3061.9145	905.05	17.7
1033.8415	3062.9381	904.95	16.35
1033.9509	3063.9612	919.05	16.5
1034.0602	3064.9835	901.9	14.75
1034.1694	3066.0053	905.35	16
1034.2787	3067.0264	904.35	19.25
1034.3878	3068.0469	904.1	16.05
1034.497	3069.0668	908.85	20.85
1034.6061	3070.086	904.75	20.3
1034.7151	3071.1046	905.8	16.85
1034.8241	3072.1226	904.5	16.65
1034.9331	3073.1399	902.75	14.4
1035.042	3074.1567	902.65	16
1035.1508	3075.1727	904.9	16.6
1035.2597	3076.1882	900.8	13.25
1035.3684	3077.203	903.35	17.2
1035.4772	3078.2173	904.8	16.25
1035.5859	3079.2308	905.1	14.8
1035.6945	3080.2438	902.8	13.65
1035.8031	3081.2561	899.7	13.45
1035.9117	3082.2678	900.05	14.65
1036.0202	3083.2789	899.45	14.75
1036.1286	3084.2893	899.05	10.55
1036.2371	3085.2991	900.85	14.45
1036.3454	3086.3083	903.5	11.8
1036.4538	3087.3169	900.45	11.65
1036.562	3088.3248	902.5	16
1036.6703	3089.3321	901.1	12.15
1036.7785	3090.3388	897.4	11.75
1036.8866	3091.3449	899.1	10.05
1036.9948	3092.3503	902.15	13.25
1037.1028	3093.3551	895.15	10.25
1037.2108	3094.3593	897.45	12.25
1037.3188	3095.3629	899.15	13.3
1037.4267	3096.3658	898.55	9.6
1037.5346	3097.3681	898.85	12.45
1037.6425	3098.3698	901.85	13.8
1037.7503	3099.3708	897.5	10.4
1037.858	3100.3713	896.95	10.75
1037.9657	3101.3711	898.95	9
1038.0734	3102.3702	1034.9	10.45
1038.181	3103.3688	898.9	9.35
1038.2886	3104.3667	897.7	12.35
1038.3961	3105.364	898.6	12.3
1038.5036	3106.3607	897.5	9.05
1038.611	3107.3568	896.15	8.15
1038.7184	3108.3522	894.25	9.85
1038.8257	3109.347	897.65	8.8
1038.933	3110.3412	900.85	10.75
1039.0403	3111.3348	897.4	10.7
1039.1475	3112.3277	896.45	9.5
1039.2547	3113.32	895.6	10.15
1039.3618	3114.3117	896.8	11.05
1039.4689	3115.3028	894.5	8.5
1039.5759	3116.2932	897.8	9.95
1039.6829	3117.2831	901.55	9.95
1039.7898	3118.2723	895.3	7.45
1039.8967	3119.2608	896.6	10.75
1040.0035	3120.2488	896.95	10.5
1040.1103	3121.2361	895.8	9.05
1040.2171	3122.2229	895	8.7
1040.3238	3123.209	896.8	9.6
1040.4305	3124.1944	895.25	8.25
1040.5371	3125.1793	896.65	11.15
1040.6437	3126.1635	893.2	5.5
1040.7502	3127.1471	896.35	10.15
1040.8567	3128.1301	896	8
1040.9631	3129.1125	895.95	9.25
1041.0695	3130.0942	895.55	8.4
1041.1759	3131.0753	904.6	9.55
1041.2822	3132.0558	896.65	7.4
1041.3884	3133.0357	895.25	7.65
1041.4946	3134.015	894.6	6.85
1041.6008	3134.9936	897.05	10.05
1041.7069	3135.9716	915.15	8.05
1041.813	3136.949	895.65	6.8
1041.919	3137.9258	911.55	6.4
1042.025	3138.902	900.1	8.1
1042.1309	3139.8775	895.1	9.7
1042.2368	3140.8524	893.65	7.05
1042.3427	3141.8267	895.2	8.3
1042.4485	3142.8004	894.5	9.05
1042.5542	3143.7735	899.5	6.55
1042.6599	3144.7459	895.4	6.45
1042.7656	3145.7178	895.1	8.3
1042.8712	3146.689	894.55	9.6
1042.9768	3147.6596	894.75	6.5
1043.0823	3148.6295	892.8	4.3
1043.1878	3149.5989	895.1	7.45
1043.2932	3150.5676	892.75	6.3
1043.3986	3151.5357	893.2	8.15
1043.5039	3152.5032	893.8	7.9
1043.6092	3153.4701	893.35	8.4
1043.7145	3154.4364	895.55	5.15
1043.8197	3155.402	894.4	8.75
1043.9248	3156.367	895.7	7.35
1044.03	3157.3315	923.3	7
1044.135	3158.2952	892.55	3.7
1044.24	3159.2584	893.85	6.45
1044.345	3160.221	892.5	5.9
1044.4499	3161.1829	894.2	5.3
1044.5548	3162.1442	892.35	6.25
1044.6596	3163.105	893	6.05
1044.7644	3164.065	892.2	4.4
1044.8692	3165.0245	896.85	9.65
1044.9739	3165.9834	892.1	7.6
1045.0785	3166.9416	892.2	7.05
1045.1831	3167.8993	892.25	5.35
1045.2877	3168.8563	893.7	6.4
1045.3922	3169.8127	893.95	7.6
1045.4966	3170.7684	892.6	6.8
1045.6011	3171.7236	892.65	4.75
1045.7054	3172.6782	894.35	7.45
1045.8098	3173.6321	892.65	5.2
1045.914	3174.5854	897.3	5.65
1046.0183	3175.5381	891.9	6.8
1046.1224	3176.4902	890.75	4.8
1046.2266	3177.4417	890.65	5.1
1046.3307	3178.3926	891.6	5.6
1046.4347	3179.3428	891.45	5.15
1046.5387	3180.2924	893.15	5.75
1046.6427	3181.2415	893.6	5.8
1046.7466	3182.1899	894.3	7.2
1046.8504	3183.1377	893.4	7.55
1046.9542	3184.0848	894.05	4.65
1047.058	3185.0314	892.8	4.7
1047.1617	3185.9773	893.1	5.25
1047.2654	3186.9227	896.05	7.8
1047.369	3187.8674	892.15	5.3
1047.4726	3188.8115	895.85	6.2
1047.5761	3189.755	891.65	4.8
1047.6796	3190.6979	890.75	5.9
1047.783	3191.6402	890.9	6.55
1047.8864	3192.5818	893.1	7.4
1047.9898	3193.5229	899.45	6.1
1048.0931	3194.4633	893.55	8.2
1048.1963	3195.4031	892.05	4.85
1048.2995	3196.3423	892.15	7.25
1048.4027	3197.2809	890.75	3.5
1048.5058	3198.2189	892.6	4.9
1048.6089	3199.1563	898.35	4.4
1048.7119	3200.0931	891.35	4.6
1048.8148	3201.0292	891.75	5.55
1048.9178	3201.9648	890.95	3.45
1049.0206	3202.8997	893	4.75
1049.1235	3203.834	892.25	6.8
1049.2262	3204.7677	892.4	6.9
1049.329	3205.7008	893.5	5.25
1049.4317	3206.6333	889.7	4.95
1049.5343	3207.5652	895.75	8
1049.6369	3208.4964	892.25	5.1
1049.7394	3209.4271	892.75	5.8
1049.8419	3210.3571	891.3	5.6
1049.9444	3211.2865	892.05	4.25
1050.0468	3212.2154	892.1	3.45
1050.1491	3213.1436	894.75	2.55
1050.2514	3214.0712	898.8	5.9
1050.3537	3214.9982	891.6	5.9
1050.4559	3215.9246	890.8	1.35
1050.5581	3216.8503	890.4	5.3
1050.6602	3217.7755	890.8	3.9
1050.7623	3218.7001	892.2	5.85
1050.8643	3219.624	894.45	7.6
1050.9663	3220.5473	891.7	1.25
1051.0682	3221.4701	893.35	3.5
1051.1701	3222.3922	894.35	6.9
1051.2719	3223.3137	893	8.35
1051.3737	3224.2346	890.75	3.75
1051.4754	3225.1549	890.1	2.95
1051.5771	3226.0746	889.95	4.7
1051.6788	3226.9937	893.75	6.45
1051.7804	3227.9121	889.9	3.9
1051.8819	3228.83	891.05	4.65
1051.9834	3229.7473	890.9	3
1052.0849	3230.6639	894.05	6.25
1052.1863	3231.5799	891.2	4.65
1052.2876	3232.4954	891.7	3.15
1052.3889	3233.4102	889.5	4.5
1052.4902	3234.3244	892.35	5.45
1052.5914	3235.238	892.35	6.15
1052.6926	3236.151	916.1	5.85
1052.7937	3237.0634	889.75	2.35
1052.8948	3237.9752	889.65	3.3
1052.9958	3238.8864	890.95	3
1053.0968	3239.797	889.95	5.7
1053.1977	3240.7069	891.15	3.55
1053.2986	3241.6163	892.45	3.2
1053.3994	3242.5251	891.2	6.35
1053.5002	3243.4332	891.45	5.45
1053.6009	3244.3408	891.8	6.9
1053.7016	3245.2477	890	3.65
1053.8022	3246.154	890.5	2.25
1053.9028	3247.0598	890.8	2.6
1054.0034	3247.9649	889.9	2.2
1054.1039	3248.8694	890.95	5
1054.2043	3249.7733	891.2	2.35
1054.3047	3250.6766	890.85	3.6
1054.4051	3251.5793	892.55	5.05
1054.5054	3252.4814	889.55	3.1
1054.6056	3253.3829	890.45	4.45
1054.7058	3254.2838	890.3	2.7
1054.806	3255.1841	892.1	4.85
1054.9061	3256.0838	891.8	4.25
1055.0061	3256.9829	891.25	4.35
1055.1062	3257.8814	893.55	6.25
1055.2061	3258.7792	892.95	5.75
1055.306	3259.6765	892	4.85
1055.4059	3260.5731	889.4	4.3
1055.5057	3261.4692	890.9	5.25
1055.6055	3262.3647	891.3	5.7
1055.7052	3263.2595	890.1	1.8
1055.8049	3264.1538	889.45	2.4
1055.9045	3265.0474	891.3	4.6
1056.0041	3265.9404	889.55	3.15
1056.1036	3266.8329	887.65	1.5
1056.2031	3267.7247	901.4	5.2
1056.3025	3268.616	888.4	4.1
1056.4019	3269.5066	891.15	4.2
1056.5013	3270.3966	890.75	1.95
1056.6005	3271.286	888.8	3.05
