Software Version:	3.9.2.0
Unit SN:	10000200
Spectrometer SN:	6960
Date:	3/14/2024 2:22:45 PM
Data Line Index:	25
Spectral Points:	2048
Integration time (ms):	125
Averages:	20
Delay (ms):	30000
Sequence Number:	1
Processing:	dark subtract
Laser Power (mW):	300
Laser Current (mA):	825
Laser Diode Temp (C):	25
Laser Case Temp (C):	29.2
System Temp (C):	29.2
Spectrometer Temp (C):	27
CCD Temp (C):	0.009
Secondary Temp (C):	20.008
Heatsink Temp (C):	25.175
CCDPCB Temp (C):	38.174
SecondaryPCB Temp (C):	36.174

Wavelength	RamanShift	Raw Counts	Dark Subtracted
787.061	30.1047	455.1	46.7
787.2016	32.3739	455.05	47.2
787.3422	34.6426	460.5	49.7
787.4828	36.9109	468.1	57.25
787.6235	39.1787	477.05	59.85
787.7642	41.4461	484.8	64
787.9049	43.7131	493.75	69.65
788.0456	45.9796	502.75	76.7
788.1863	48.2456	517.15	86.8
788.3271	50.5112	523.6	89.4
788.4679	52.7764	529.85	93.9
788.6087	55.0411	538.2	97.75
788.7496	57.3054	553.7	108.8
788.8904	59.5692	562.45	110.9
789.0313	61.8326	572.5	119.7
789.1722	64.0955	588.1	129
789.3132	66.3579	603.4	141.1
789.4541	68.6199	621.65	157.2
789.5951	70.8815	656.95	187.8
789.7361	73.1426	727.45	256.1
789.8771	75.4032	912.4	433.6
790.0181	77.6634	1374.5	891.5
790.1592	79.9231	2466.35	1978.6
790.3003	82.1824	4868.95	4371.8
790.4414	84.4412	9274.35	8761.25
790.5825	86.6995	15572.3	15038.8
790.7237	88.9574	21879.9	21325.7
790.8648	91.2148	26408.4	25842.4
791.006	93.4717	28638.1	28061.7
791.1472	95.7282	29211.35	28632.65
791.2885	97.9842	29230.45	28646.7
791.4297	100.2398	28745.5	28161
791.571	102.4949	28182.15	27593.85
791.7123	104.7495	27412.15	26819.1
791.8536	107.0036	26620.05	26026.9
791.9949	109.2573	25779.95	25187.85
792.1363	111.5105	24929.8	24334.15
792.2777	113.7632	24116.25	23520.65
792.4191	116.0154	23406.6	22800.95
792.5605	118.2672	22824.75	22227.2
792.7019	120.5185	22248.55	21649.8
792.8434	122.7693	21847.95	21244.2
792.9849	125.0197	21500.3	20894.75
793.1264	127.2696	21174.5	20565.85
793.2679	129.519	21084.05	20472.65
793.4094	131.7679	20862.9	20249.05
793.551	134.0163	20730.2	20114.35
793.6926	136.2642	20576.75	19954.65
793.8342	138.5117	20386.65	19755.7
793.9758	140.7587	20190.9	19562.8
794.1175	143.0052	20060.35	19432.35
794.2591	145.2512	19858.95	19229.7
794.4008	147.4967	19669.45	19040.5
794.5425	149.7417	19502.7	18869.6
794.6842	151.9863	19366.85	18732.05
794.826	154.2304	19278.3	18639.75
794.9677	156.4739	19151.95	18505.2
795.1095	158.717	19070.5	18426.85
795.2513	160.9596	18948.1	18298.05
795.3931	163.2017	18672.15	18019.95
795.535	165.4433	18351.35	17701.85
795.6768	167.6844	17966.2	17314
795.8187	169.925	17619.15	16964.1
795.9606	172.1651	17218.8	16556.6
796.1025	174.4047	16897	16231.05
796.2445	176.6439	16608.85	15942.8
796.3864	178.8825	16325.2	15656.35
796.5284	181.1206	16131.3	15460.6
796.6704	183.3582	15918.8	15244.45
796.8124	185.5954	15776.8	15100.55
796.9544	187.832	15679.6	15000.85
797.0965	190.0681	15597.05	14915.6
797.2386	192.3037	15585.25	14900.95
797.3806	194.5388	15542.35	14854.9
797.5228	196.7734	15589.6	14898.3
797.6649	199.0075	15627.4	14933.65
797.807	201.2411	15776.1	15079.8
797.9492	203.4742	15817.75	15124.2
798.0914	205.7068	15930.55	15229.6
798.2336	207.9389	16052.3	15354.7
798.3758	210.1704	16191.35	15490.15
798.518	212.4015	16309.55	15604.9
798.6603	214.632	16495.6	15792.05
798.8025	216.862	16693.35	15996.45
798.9448	219.0915	16910.75	16221.75
799.0871	221.3205	17131.25	16442.15
799.2294	223.549	17427.6	16744.25
799.3718	225.777	17809.8	17128.2
799.5141	228.0044	18278.35	17593.85
799.6565	230.2314	18868.7	18183.7
799.7989	232.4578	19429.45	18743.9
799.9413	234.6837	19857.9	19165.2
800.0837	236.909	20107.55	19413.05
800.2262	239.1339	20043.45	19327.5
800.3687	241.3582	19736.45	19036.7
800.5111	243.582	19309.05	18581.95
800.6536	245.8053	18865.9	18143.85
800.7961	248.0281	18410.7	17695.15
800.9387	250.2503	18038.9	17318.2
801.0812	252.472	17803.65	17077.4
801.2238	254.6932	17639.25	16910.1
801.3664	256.9139	17502	16771.2
801.509	259.134	17360.75	16626.25
801.6516	261.3536	17251.35	16521.4
801.7942	263.5727	17187.85	16458.55
801.9369	265.7912	17022.3	16291.15
802.0795	268.0092	16968.5	16236.15
802.2222	270.2267	16831.4	16096.3
802.3649	272.4436	16735.7	16001.95
802.5076	274.6601	16702.85	15961
802.6504	276.8759	16635	15899.9
802.7931	279.0913	16628.25	15889.55
802.9359	281.3061	16643.2	15902.7
803.0787	283.5204	16761.55	16018.75
803.2215	285.7341	16893.8	16148
803.3643	287.9473	17097.75	16349.8
803.5071	290.16	17388.25	16634.3
803.6499	292.3721	17738.25	16990.95
803.7928	294.5837	18271.7	17525.95
803.9357	296.7947	18656.35	17907.3
804.0786	299.0052	18889.8	18142.2
804.2215	301.2152	18736.4	17984.15
804.3644	303.4246	18298.85	17550.4
804.5074	305.6334	17635.9	16887.15
804.6503	307.8418	17062.85	16309.9
804.7933	310.0495	16590.45	15836.7
804.9363	312.2568	16256.05	15504.6
805.0793	314.4635	16015.8	15263.4
805.2223	316.6696	15958.75	15205.05
805.3653	318.8752	15922.5	15156.4
805.5084	321.0802	16023.65	15265.8
805.6514	323.2847	16150.8	15394.4
805.7945	325.4887	16196.25	15439.25
805.9376	327.692	16139.6	15384.25
806.0807	329.8949	15997.4	15237.4
806.2238	332.0972	15683.6	14923.7
806.367	334.2989	15411.25	14646.7
806.5101	336.5001	15080.9	14316.95
806.6533	338.7007	14858.2	14095.4
806.7965	340.9008	14695.65	13928.85
806.9397	343.1003	14555.9	13786
807.0829	345.2992	14494.4	13725.6
807.2261	347.4976	14482.35	13712.45
807.3693	349.6955	14444.15	13669.3
807.5126	351.8927	14490.4	13715.9
807.6559	354.0895	14517.9	13733.55
807.7991	356.2856	14554	13774.65
807.9424	358.4812	14526.45	13751.8
808.0857	360.6763	14550.95	13776.65
808.2291	362.8707	14494.4	13714.6
808.3724	365.0646	14509.1	13727
808.5158	367.258	14512.5	13730.35
808.6591	369.4508	14524.45	13737.55
808.8025	371.643	14577.65	13792
808.9459	373.8346	14508.85	13722.15
809.0893	376.0257	14482.1	13691.45
809.2327	378.2162	14336.1	13542.35
809.3762	380.4062	14238.9	13444.25
809.5196	382.5956	14050.85	13254.9
809.6631	384.7844	13938.55	13144.9
809.8066	386.9726	13838.35	13040.35
809.9501	389.1603	13795.15	13001.65
810.0936	391.3474	13746	12912.65
810.2371	393.5339	13690.1	12890.7
810.3806	395.7199	13637.95	12848.05
810.5241	397.9052	13619.65	12831.6
810.6677	400.09	13594.5	12806.75
810.8113	402.2743	13631.9	12846.95
810.9548	404.4579	13666.3	12880.75
811.0984	406.641	13816.9	13030.3
811.2421	408.8235	14081.2	13292.3
811.3857	411.0054	14425.7	13637.8
811.5293	413.1868	14910.8	14120.5
811.673	415.3675	15335.4	14545.15
811.8166	417.5477	15595.4	14799.75
811.9603	419.7273	15675.8	14882.7
812.104	421.9064	15547.55	14742.85
812.2477	424.0848	15399.85	14600.55
812.3914	426.2627	15122	14319.4
812.5351	428.4399	14816.9	14014.65
812.6788	430.6166	14429.55	13622.7
812.8226	432.7928	13997.9	13189.85
812.9663	434.9683	13663.25	12854.45
813.1101	437.1432	13407.35	12595.4
813.2539	439.3176	13195.15	12386.45
813.3977	441.4914	13081.6	12269.65
813.5415	443.6645	13050.05	12235.05
813.6853	445.8371	12965.15	12152.3
813.8291	448.0091	12885.6	12074.7
813.973	450.1806	12819.55	12006.95
814.1168	452.3514	12774.4	11962.35
814.2607	454.5216	12749.45	11925.5
814.4046	456.6913	12651.45	11836.65
814.5485	458.8603	12649.5	11835.55
814.6924	461.0288	12721.3	11904.25
814.8363	463.1967	12753.65	11939.3
814.9802	465.3639	12873.75	12054.55
815.1241	467.5306	13047	12228.95
815.2681	469.6967	13222.95	12405.4
815.412	471.8622	13412.2	12596.65
815.556	474.0271	13563.2	12750.05
815.7	476.1914	13663.05	12843.3
815.844	478.3551	13630.5	12813.6
815.988	480.5182	13567.65	12751.55
816.132	482.6807	13498.4	12678.95
816.276	484.8426	13532	12717.05
816.4201	487.0039	13763.75	12946.15
816.5641	489.1647	14204.65	13381.15
816.7082	491.3248	14665.8	13843.05
816.8522	493.4843	14914.15	14095.8
816.9963	495.6432	14949.5	14126.8
817.1404	497.8015	14862.15	14035.95
817.2845	499.9592	14875.55	14052.3
817.4286	502.1163	14842.3	14018.45
817.5727	504.2728	14658.1	13833.8
817.7168	506.4287	14346.7	13521.1
817.861	508.5839	13850.9	13027.2
818.0051	510.7386	13439.2	12617.05
818.1493	512.8927	13188.5	12361
818.2935	515.0461	12968.1	12142.25
818.4377	517.199	12844.3	12016.55
818.5818	519.3512	12751.3	11926.9
818.726	521.5029	12745.85	11913.4
818.8703	523.6539	12724.95	11895.1
819.0145	525.8043	12758.35	11932.1
819.1587	527.9541	12794.75	11961.65
819.303	530.1033	12829.9	12001.15
819.4472	532.2519	12904.5	12073.85
819.5915	534.3999	13092.7	12258.15
819.7357	536.5472	13424.2	12590.85
819.88	538.694	13961.75	13131.65
820.0243	540.8401	14650.9	13819.2
820.1686	542.9856	15254.65	14419.55
820.3129	545.1305	15503.55	14668.85
820.4572	547.2748	15341.95	14507.6
820.6016	549.4185	14868.1	14031.1
820.7459	551.5615	14429	13595.8
820.8902	553.704	14187.45	13349.8
821.0346	555.8458	14045.2	13209.05
821.1789	557.987	13985.45	13149.8
821.3233	560.1276	13838.7	13002.3
821.4677	562.2675	13712.2	12878.4
821.6121	564.4069	13551.7	12717.15
821.7565	566.5456	13383.05	12552.4
821.9009	568.6837	13244.55	12411.35
822.0453	570.8212	12991.1	12158.5
822.1897	572.958	12743	11907.7
822.3342	575.0942	12540.85	11705.4
822.4786	577.2299	12422.25	11585.35
822.6231	579.3648	12449.05	11611.45
822.7675	581.4992	12573.05	11738.25
822.912	583.6329	12792.95	11956.85
823.0565	585.766	13090.7	12253.6
823.201	587.8985	13215.6	12378.45
823.3454	590.0304	13253.85	12406.85
823.4899	592.1616	13145.85	12304.7
823.6345	594.2922	13033.2	12196
823.779	596.4222	12912.6	12069.55
823.9235	598.5515	12703.1	11864.15
824.068	600.6802	12509.9	11668.5
824.2126	602.8083	12296.65	11457.95
824.3571	604.9358	12221	11380.95
824.5017	607.0626	12094.1	11248.95
824.6462	609.1888	12016.1	11174.4
824.7908	611.3144	11896.7	11054.35
824.9354	613.4393	11697.25	10856.25
825.08	615.5636	11517.15	10677.95
825.2246	617.6873	11381.5	10538.45
825.3692	619.8103	11314.6	10471.65
825.5138	621.9327	11233.55	10387.75
825.6584	624.0544	11214.15	10371.7
825.803	626.1756	11186	10345
825.9477	628.2961	11163.65	10321.45
826.0923	630.4159	11124.6	10278.9
826.237	632.5351	11073.1	10228.75
826.3816	634.6537	11003.15	10157.8
826.5263	636.7716	10973.3	10124.75
826.6709	638.8889	10943.45	10098.6
826.8156	641.0056	10963.3	10116.35
826.9603	643.1216	10937.55	10091.8
827.105	645.237	10948.05	10098.45
827.2497	647.3518	10966.4	10117.5
827.3944	649.4659	10976.85	10128.5
827.5391	651.5793	10973.3	10125.7
827.6838	653.6922	10957.65	10110
827.8285	655.8043	10932.8	10084.8
827.9733	657.9159	10904.75	10056.8
828.118	660.0268	10801.05	9951.75
828.2627	662.137	10731.6	9882.6
828.4075	664.2466	10686.95	9836.45
828.5522	666.3556	10623.6	9773.15
828.697	668.4639	10620	9764.3
828.8418	670.5716	10667.85	9814.7
828.9865	672.6786	10760.95	9909.2
829.1313	674.785	10861.55	10008.15
829.2761	676.8907	10930.55	10077.05
829.4209	678.9958	11000.4	10149.25
829.5657	681.1002	10992.4	10140.7
829.7105	683.204	10957.7	10103.55
829.8553	685.3072	10882.25	10027.7
830.0001	687.4097	10754	9901.55
830.1449	689.5115	10689.1	9834
830.2898	691.6127	10610.35	9759.05
830.4346	693.7132	10514.5	9657.75
830.5794	695.8131	10439.25	9560.65
830.7243	697.9123	10358.95	9504.9
830.8691	700.0109	10311.15	9455.9
831.014	702.1089	10290.75	9437.65
831.1588	704.2061	10301.8	9446.9
831.3037	706.3028	10287.6	9428.45
831.4486	708.3987	10339.25	9483.8
831.5935	710.4941	10449.85	9594.85
831.7383	712.5887	10652.75	9794.95
831.8832	714.6827	10976.95	10117.3
832.0281	716.7761	11362.4	10504.75
832.173	718.8688	11799.05	10942.05
832.3179	720.9608	12044.1	11180.65
832.4628	723.0522	12028.75	11169.7
832.6077	725.1429	11771.45	10912.8
832.7527	727.233	11343.65	10484.95
832.8976	729.3224	10974.7	10115.3
833.0425	731.4112	10609.6	9749.75
833.1874	733.4993	10370.95	9508.8
833.3324	735.5867	10192.2	9330.2
833.4773	737.6735	10079.4	9218.75
833.6222	739.7596	10025.55	9166.25
833.7672	741.845	10019.2	9161.8
833.9122	743.9298	10026.6	9162.55
834.0571	746.014	9991.15	9132.85
834.2021	748.0974	9994	9130.5
834.347	750.1802	9998.95	9137.7
834.492	752.2624	10011.6	9151.55
834.637	754.3439	10010.35	9146.3
834.782	756.4247	10063.9	9194.75
834.9269	758.5048	10162.1	9300.75
835.0719	760.5843	10330.65	9470.75
835.2169	762.6631	10593.2	9730.25
835.3619	764.7413	11011.85	10152.2
835.5069	766.8188	11591.4	10727.05
835.6519	768.8956	12068.95	11206.15
835.7969	770.9718	12410.8	11549.2
835.9419	773.0473	12324.7	11464.35
836.0869	775.1221	11985.8	11123.1
836.232	777.1962	11572.75	10707.3
836.377	779.2697	11369.1	10502.5
836.522	781.3426	11430.65	10549.85
836.667	783.4147	11733.75	10869.5
836.8121	785.4862	12066.75	11205.55
836.9571	787.557	12108.9	11245.4
837.1021	789.6271	11723.85	10861.45
837.2472	791.6966	11131.6	10267.05
837.3922	793.7654	10621.7	9756.2
837.5373	795.8335	10280.75	9415.4
837.6823	797.901	10062.35	9199.7
837.8274	799.9678	9994.05	9128.05
837.9724	802.0339	9979.35	9114.3
838.1175	804.0993	10053.85	9180.35
838.2626	806.1641	10021.3	9155.3
838.4076	808.2282	9976.85	9110.25
838.5527	810.2916	9866.25	8998.6
838.6978	812.3544	9749.6	8887.3
838.8428	814.4164	9648.3	8782.5
838.9879	816.4778	9622.6	8756.8
839.133	818.5385	9598.55	8732.45
839.2781	820.5986	9615.7	8748.1
839.4232	822.658	9653.95	8787.4
839.5682	824.7166	9691.35	8826.95
839.7133	826.7747	9811	8946.4
839.8584	828.832	9897.65	9030.95
840.0035	830.8886	10013.85	9145.45
840.1486	832.9446	10162.05	9292.15
840.2937	834.9999	10261.95	9396.7
840.4388	837.0545	10340.75	9469.75
840.5839	839.1085	10437.25	9570.3
840.729	841.1618	10435.3	9565.25
840.8741	843.2143	10428.45	9562.45
841.0192	845.2662	10368.15	9500.75
841.1643	847.3175	10292.5	9426.5
841.3095	849.368	10200.6	9331.95
841.4546	851.4179	10044.45	9179
841.5997	853.467	9859.45	8992.5
841.7448	855.5155	9767.2	8900.7
841.8899	857.5633	9635.1	8766.95
842.0351	859.6105	9510.45	8641.4
842.1802	861.6569	9388.15	8520.7
842.3253	863.7027	9373.1	8502.6
842.4704	865.7478	9328.55	8459.95
842.6156	867.7922	9308.6	8441.8
842.7607	869.8359	9389.65	8520.8
842.9058	871.8789	9511.35	8641.6
843.0509	873.9212	9721.05	8816.45
843.1961	875.9629	9873.5	9004.85
843.3412	878.0039	10045.75	9174.75
843.4863	880.0441	10154.05	9284.05
843.6315	882.0837	10159.55	9289.1
843.7766	884.1226	10001.95	9132.65
843.9218	886.1609	9827.5	8959.7
844.0669	888.1984	9690	8821.65
844.212	890.2352	9597.8	8733
844.3572	892.2714	9537.8	8665.7
844.5023	894.3069	9467.6	8599.15
844.6475	896.3416	9413.35	8543.4
844.7926	898.3757	9389.4	8519.85
844.9377	900.4091	9384.8	8514.25
845.0829	902.4418	9394.5	8522.45
845.228	904.4739	9394.85	8522.75
845.3732	906.5052	9353.4	8485.45
845.5183	908.5358	9245.15	8373.95
845.6635	910.5658	9091	8219.85
845.8086	912.595	8941	8070.6
845.9538	914.6236	8786.95	7919.3
846.0989	916.6515	8754.55	7882.95
846.2441	918.6786	8734.2	7860.6
846.3892	920.7051	8818.4	7944.6
846.5344	922.7309	8914.45	8043.75
846.6795	924.756	8982.5	8109.55
846.8246	926.7804	9074.95	8201.1
846.9698	928.8041	9054.8	8179.75
847.1149	930.8272	9072.55	8200
847.2601	932.8495	9014.75	8141.65
847.4052	934.8711	8924.45	8051.8
847.5504	936.892	8753.85	7882.4
847.6955	938.9123	8549.75	7677
847.8407	940.9318	8401.35	7528.3
847.9858	942.9506	8254.15	7382.65
848.131	944.9688	8154.45	7283
848.2761	946.9862	8143.55	7269.2
848.4213	949.003	8078.75	7206.6
848.5664	951.019	8089.7	7216.95
848.7115	953.0344	8105.7	7231.35
848.8567	955.0491	8151.2	7276
849.0018	957.063	8231.8	7360.05
849.147	959.0763	8318.55	7444.9
849.2921	961.0888	8383.05	7508.25
849.4373	963.1007	8471.6	7598.85
849.5824	965.1119	8529.55	7655.7
849.7275	967.1223	8541.5	7666.05
849.8727	969.1321	8559.6	7687.6
850.0178	971.1412	8600.4	7726.65
850.1629	973.1495	8622.3	7746.25
850.3081	975.1572	8704.9	7799.45
850.4532	977.1641	8682.25	7810.4
850.5983	979.1704	8667.5	7793.3
850.7435	981.1759	8662.5	7787.25
850.8886	983.1808	8701.65	7825.3
851.0337	985.1849	8836.65	7953.35
851.1788	987.1884	9015.85	8139.05
851.324	989.1911	9207.2	8326.65
851.4691	991.1932	9353.95	8475.6
851.6142	993.1945	9401.3	8526.6
851.7593	995.1951	9383.25	8508.85
851.9045	997.1951	9367.85	8486.3
852.0496	999.1943	9284.25	8410.35
852.1947	1001.1928	9212	8336.9
852.3398	1003.1906	9176.3	8302.3
852.4849	1005.1877	9220.05	8345.2
852.63	1007.1841	9185.55	8311.7
852.7751	1009.1798	9046.6	8171.45
852.9202	1011.1748	8867.25	7991.8
853.0653	1013.1691	8654.7	7778.8
853.2104	1015.1627	8430.3	7552.7
853.3555	1017.1556	8233.15	7359.5
853.5006	1019.1477	8119.25	7243.1
853.6457	1021.1392	8040.2	7168.25
853.7908	1023.1299	8055.85	7181.3
853.9359	1025.12	8107.1	7231
854.081	1027.1093	8141.4	7267.2
854.2261	1029.0979	8228.85	7353.15
854.3712	1031.0859	8278	7402.5
854.5163	1033.0731	8300	7424.65
854.6613	1035.0596	8190.85	7315.6
854.8064	1037.0454	8034	7154.55
854.9515	1039.0304	7931.95	7056
855.0965	1041.0148	7805.35	6931.85
855.2416	1042.9985	7708.4	6829.9
855.3867	1044.9814	7667.5	6792.95
855.5317	1046.9636	7614.2	6736.9
855.6768	1048.9452	7586.4	6711.8
855.8219	1050.926	7562.45	6687.2
855.9669	1052.9061	7553.55	6677.5
856.112	1054.8855	7561.15	6684.5
856.257	1056.8642	7607.55	6730.25
856.4021	1058.8421	7638.8	6758.25
856.5471	1060.8194	7659.75	6785
856.6921	1062.7959	7690.95	6815.4
856.8372	1064.7717	7663.05	6788.45
856.9822	1066.7469	7687.2	6812.2
857.1272	1068.7213	7656.3	6777.65
857.2723	1070.695	7634.75	6759.1
857.4173	1072.6679	7539.25	6661.45
857.5623	1074.6402	7499.4	6621.35
857.7073	1076.6117	7473.75	6591.25
857.8523	1078.5826	7490.2	6612.95
857.9973	1080.5527	7552.85	6672.5
858.1423	1082.5221	7705.6	6828.5
858.2873	1084.4908	7967.75	7089.75
858.4323	1086.4587	8190.95	7313.2
858.5773	1088.426	8364.25	7483.8
858.7223	1090.3925	8360.6	7482.05
858.8673	1092.3584	8294.95	7419.3
859.0123	1094.3235	8127.95	7251.25
859.1573	1096.2879	8004.3	7127.15
859.3022	1098.2515	7952.8	7073.95
859.4472	1100.2145	7966.6	7087.5
859.5922	1102.1767	8017.45	7138.1
859.7371	1104.1382	8174.05	7296
859.8821	1106.099	8347.15	7466.05
860.027	1108.0591	8578.6	7702.25
860.172	1110.0185	8727.9	7850.9
860.3169	1111.9771	8740.15	7866.1
860.4619	1113.9351	8511.35	7634.8
860.6068	1115.8923	8165.45	7288.7
860.7517	1117.8488	7810.45	6930.65
860.8967	1119.8045	7513.15	6636.8
861.0416	1121.7596	7322.8	6444.75
861.1865	1123.7139	7264	6386.45
861.3314	1125.6675	7259.75	6381.15
861.4763	1127.6204	7312.2	6435.15
861.6212	1129.5726	7334.95	6453.1
861.7661	1131.524	7377.35	6500.8
861.911	1133.4748	7454.35	6577.25
862.0559	1135.4248	7481.2	6602.2
862.2008	1137.3741	7512.25	6633.75
862.3457	1139.3226	7516.1	6636.15
862.4905	1141.2705	7443.8	6564.05
862.6354	1143.2176	7374.2	6490.2
862.7803	1145.164	7408.45	6527.25
862.9251	1147.1097	7429.55	6548.7
863.07	1149.0546	7430.5	6548.4
863.2148	1150.9989	7323.25	6444.35
863.3597	1152.9424	7147.9	6269.95
863.5045	1154.8852	6952.05	6072.85
863.6493	1156.8272	6795.45	5918.35
863.7942	1158.7686	6711.25	5824.15
863.939	1160.7092	6655.65	5778.3
864.0838	1162.6491	6642.85	5761.15
864.2286	1164.5883	6692.4	5815.65
864.3734	1166.5267	6794.45	5913.75
864.5182	1168.4644	6941.05	6062.95
864.663	1170.4014	7122.75	6241.35
864.8078	1172.3377	7345.9	6466.5
864.9526	1174.2732	7558.5	6681.8
865.0974	1176.2081	7755.2	6876.95
865.2421	1178.1421	7951.9	7069.65
865.3869	1180.0755	8079.15	7200.05
865.5317	1182.0082	8064.15	7183.95
865.6764	1183.9401	7989	7109.95
865.8212	1185.8713	7789.45	6908.9
865.9659	1187.8017	7563.3	6683.9
866.1106	1189.7315	7289.3	6411.1
866.2554	1191.6605	7024.65	6117.05
866.4001	1193.5888	6824.3	5944.05
866.5448	1195.5163	6692.35	5815.65
866.6895	1197.4432	6599.3	5718.55
866.8342	1199.3693	6527.55	5650
866.9789	1201.2947	6464.2	5582.95
867.1236	1203.2193	6437.3	5559.3
867.2683	1205.1432	6470.55	5589.6
867.413	1207.0664	6543.6	5663.85
867.5576	1208.9889	6605.45	5722.2
867.7023	1210.9106	6692.9	5812.5
867.847	1212.8316	6788.5	5910.75
867.9916	1214.7519	6883.15	5994.6
868.1363	1216.6715	6913.55	6036.25
868.2809	1218.5903	6882.6	6005.25
868.4255	1220.5084	6821.1	5942.7
868.5701	1222.4257	6792.05	5913.35
868.7148	1224.3424	6739.2	5862.4
868.8594	1226.2583	6779	5892.35
869.004	1228.1735	6891.25	6011.55
869.1486	1230.0879	7057.2	6178.4
869.2932	1232.0016	7176.85	6297.55
869.4377	1233.9146	7220.05	6338.85
869.5823	1235.8269	7147.3	6269.55
869.7269	1237.7384	6989.4	6110.8
869.8715	1239.6492	6836.35	5956.6
870.016	1241.5592	6710.85	5828.55
870.1606	1243.4686	6595.25	5716.15
870.3051	1245.3772	6535.75	5655.25
870.4496	1247.285	6448.05	5568.8
870.5941	1249.1922	6426.45	5546.95
870.7387	1251.0986	6408.15	5529.15
870.8832	1253.0042	6432.5	5554.4
871.0277	1254.9092	6495.45	5614.9
871.1722	1256.8134	6573.95	5696
871.3167	1258.7169	6756.7	5874.1
871.4611	1260.6196	6881.55	6003
871.6056	1262.5216	7085.35	6202.4
871.7501	1264.4229	7210.35	6331.4
871.8945	1266.3234	7324.5	6444.75
872.039	1268.2232	7352.7	6473
872.1834	1270.1223	7359.2	6478.05
872.3278	1272.0207	7326.2	6445
872.4723	1273.9183	7310.35	6424.95
872.6167	1275.8151	7217.25	6337.15
872.7611	1277.7113	7119.7	6239.05
872.9055	1279.6067	6969.55	6089
873.0499	1281.5014	6791.2	5907.55
873.1943	1283.3953	6663.6	5782.15
873.3386	1285.2885	6531.2	5649.3
873.483	1287.181	6475.15	5593.7
873.6274	1289.0727	6464.7	5584.9
873.7717	1290.9637	6509.15	5628.6
873.9161	1292.854	6619.6	5739.25
874.0604	1294.7435	6775.1	5893.4
874.2047	1296.6323	6997.7	6117.05
874.349	1298.5204	7259.8	6375.95
874.4933	1300.4077	7502.75	6621.85
874.6376	1302.2943	7720.65	6840.65
874.7819	1304.1802	7827.7	6949.15
874.9262	1306.0653	7791.4	6908.85
875.0705	1307.9497	7689.5	6808.75
875.2147	1309.8333	7595.2	6714.5
875.359	1311.7162	7584.1	6703.55
875.5032	1313.5984	7678.6	6793.9
875.6475	1315.4798	7867.55	6976.6
875.7917	1317.3605	8032.8	7137.4
875.9359	1319.2405	8173.55	7291.65
876.0801	1321.1197	8228.55	7345.65
876.2243	1322.9982	8197	7311.55
876.3685	1324.876	8185.7	7306.45
876.5127	1326.753	8178.7	7296.3
876.6569	1328.6293	8180.7	7299.8
876.801	1330.5048	8206.7	7322.8
876.9452	1332.3796	8192.15	7311.95
877.0893	1334.2537	8179.9	7271.35
877.2335	1336.127	8114.65	7233.5
877.3776	1337.9996	8060.8	7179.45
877.5217	1339.8714	7999.7	7119.3
877.6658	1341.7426	7965.05	7037.05
877.8099	1343.6129	7882.8	7002.7
877.954	1345.4826	7804.95	6926.15
878.0981	1347.3515	7770.75	6886.8
878.2422	1349.2196	7677.65	6792.9
878.3862	1351.087	7682.9	6800
878.5303	1352.9537	7718.8	6837.15
878.6743	1354.8197	7828.3	6945.1
878.8184	1356.6849	7969.9	7088.65
878.9624	1358.5493	8062	7180.8
879.1064	1360.4131	8065.5	7185.15
879.2504	1362.276	8016.15	7134.95
879.3944	1364.1383	7851	6968.9
879.5384	1365.9998	7637.55	6750.35
879.6823	1367.8606	7334.15	6454.25
879.8263	1369.7206	7105.6	6223.7
879.9702	1371.5799	6943.95	6060.85
880.1142	1373.4384	6824.9	5943.15
880.2581	1375.2962	6705.6	5823.25
880.402	1377.1533	6476.4	5595.5
880.5459	1379.0096	6194.1	5314.25
880.6898	1380.8652	5922.9	5039.3
880.8337	1382.7201	5679.8	4797.05
880.9776	1384.5742	5491.75	4609.7
881.1215	1386.4275	5348.95	4465.05
881.2653	1388.2802	5238.3	4358.4
881.4092	1390.132	5151.85	4269.8
881.553	1391.9832	5082.55	4197.45
881.6968	1393.8336	5035.55	4153.05
881.8406	1395.6832	4992.55	4107.5
881.9844	1397.5322	4961.4	4080.7
882.1282	1399.3803	4954.7	4068.25
882.272	1401.2278	4924	4041.45
882.4158	1403.0745	4938.7	4057.9
882.5595	1404.9204	4931.3	4051.4
882.7033	1406.7656	4945.25	4062.55
882.847	1408.6101	4956.6	4073.65
882.9908	1410.4538	4995.8	4114.35
883.1345	1412.2968	5016	4133.65
883.2782	1414.139	5071.35	4190.25
883.4219	1415.9805	5173.25	4292.3
883.5656	1417.8213	5259.55	4370.4
883.7092	1419.6613	5391	4508.95
883.8529	1421.5006	5622.4	4739.8
883.9965	1423.3391	5871.7	4990.1
884.1402	1425.1769	6251.05	5368.25
884.2838	1427.0139	6755.7	5872.3
884.4274	1428.8502	7401.1	6517.8
884.571	1430.6858	8035.7	7155.25
884.7146	1432.5206	8502.35	7620.05
884.8582	1434.3547	8780.5	7895.95
885.0018	1436.188	8812.5	7930.45
885.1453	1438.0206	8776.75	7894
885.2889	1439.8524	8624.25	7740.05
885.4324	1441.6835	8550.85	7669.95
885.5759	1443.5139	8447.1	7560.95
885.7194	1445.3435	8396.25	7514.95
885.8629	1447.1724	8331.05	7449.75
886.0064	1449.0005	8245	7362.95
886.1499	1450.8279	8176.95	7292.65
886.2933	1452.6545	8135.95	7254.4
886.4368	1454.4804	8144.5	7262.7
886.5802	1456.3056	8152.05	7264.1
886.7237	1458.13	8034.45	7152.7
886.8671	1459.9536	7824.35	6942.95
887.0105	1461.7766	7460.9	6578
887.1539	1463.5987	7032.7	6151.45
887.2972	1465.4202	6612.15	5731.3
887.4406	1467.2409	6253.2	5370.95
887.584	1469.0608	5969.35	5088.95
887.7273	1470.88	5681.7	4797.8
887.8706	1472.6984	5470.95	4589
888.0139	1474.5161	5262.25	4378.15
888.1572	1476.3331	5096.7	4216
888.3005	1478.1493	4969.2	4085.45
888.4438	1479.9648	4868.3	3986.25
888.5871	1481.7795	4789.25	3906.85
888.7303	1483.5935	4712.75	3830.05
888.8736	1485.4067	4650.2	3767.3
889.0168	1487.2192	4589.6	3705
889.16	1489.031	4557.4	3675.75
889.3032	1490.842	4520.25	3638.05
889.4464	1492.6522	4483.75	3602.9
889.5896	1494.4618	4448.95	3566.25
889.7327	1496.2705	4426.95	3545.55
889.8759	1498.0785	4414.15	3531.1
890.019	1499.8858	4377.9	3494.5
890.1622	1501.6924	4375.45	3494.55
890.3053	1503.4981	4355.85	3474.65
890.4484	1505.3032	4340.7	3456.95
890.5914	1507.1075	4315.5	3434.4
890.7345	1508.911	4273.75	3392.6
890.8776	1510.7138	4265.1	3382.05
891.0206	1512.5159	4221.45	3341.2
891.1637	1514.3172	4199.1	3316.1
891.3067	1516.1178	4162.05	3281.2
891.4497	1517.9176	4150.45	3264.9
891.5927	1519.7166	4132.85	3251.7
891.7357	1521.515	4104.85	3213
891.8786	1523.3126	4084.25	3202.8
892.0216	1525.1094	4069.45	3186.2
892.1645	1526.9055	4043.25	3163.3
892.3074	1528.7008	4033.75	3153.75
892.4503	1530.4954	4006.3	3118.2
892.5932	1532.2893	3996.65	3117.45
892.7361	1534.0824	3987.4	3101.2
892.879	1535.8747	3987.85	3104.95
893.0218	1537.6663	3983.3	3098.8
893.1647	1539.4572	3968.9	3085.25
893.3075	1541.2473	3971.55	3087.35
893.4503	1543.0367	3951.4	3070.1
893.5931	1544.8253	3964.65	3077.65
893.7359	1546.6132	3984.1	3099.8
893.8787	1548.4003	3962.05	3069.5
894.0214	1550.1867	3976.25	3084.3
894.1642	1551.9723	3981.3	3095.3
894.3069	1553.7572	4023.75	3139.8
894.4496	1555.5414	4031.4	3150.25
894.5923	1557.3247	4050.7	3167.5
894.735	1559.1074	4120.8	3239.6
894.8777	1560.8893	4151.7	3271.65
895.0204	1562.6705	4225.55	3342.6
895.163	1564.4509	4300.55	3417.8
895.3056	1566.2305	4368.2	3488.9
895.4482	1568.0094	4466.5	3583.25
895.5908	1569.7876	4571.05	3690
895.7334	1571.565	4640.05	3757.3
895.876	1573.3417	4694.7	3814.45
896.0186	1575.1176	4704.05	3823.55
896.1611	1576.8928	4676.5	3793.65
896.3036	1578.6672	4606.65	3724.2
896.4461	1580.4409	4497.65	3614.9
896.5886	1582.2138	4358.25	3473.6
896.7311	1583.986	4254.75	3373.55
896.8736	1585.7575	4144.75	3263.7
897.0161	1587.5282	4060.05	3179.95
897.1585	1589.2981	4013.15	3132.45
897.3009	1591.0673	3965.9	3084.6
897.4433	1592.8358	3942.5	3062.25
897.5857	1594.6035	3926.55	3042.95
897.7281	1596.3704	3932	3050.6
897.8705	1598.1366	3933.65	3052.05
898.0128	1599.9021	3969.4	3088
898.1551	1601.6668	3991.15	3107
898.2975	1603.4308	4039.2	3156.65
898.4398	1605.194	4106.1	3216.95
898.5821	1606.9564	4191.9	3309.7
898.7243	1608.7182	4292	3406.4
898.8666	1610.4791	4423.85	3540.05
899.0088	1612.2394	4573.5	3692.4
899.1511	1613.9988	4770.5	3887.1
899.2933	1615.7576	4986.8	4106.05
899.4355	1617.5156	5248.8	4363.75
899.5776	1619.2728	5482.85	4602.05
899.7198	1621.0293	5683.15	4802.6
899.862	1622.785	5744.35	4861.5
900.0041	1624.54	5730.8	4845.85
900.1462	1626.2942	5573.55	4691.75
900.2883	1628.0477	5353.8	4469.85
900.4304	1629.8005	5099.6	4214.55
900.5725	1631.5525	4869	3988.65
900.7145	1633.3037	4667.2	3786.4
900.8566	1635.0542	4492	3610.5
900.9986	1636.804	4367.95	3484.25
901.1406	1638.553	4318.8	3358.65
901.2826	1640.3013	4211	3329.9
901.4245	1642.0488	4168.8	3285.7
901.5665	1643.7955	4162.55	3281.95
901.7085	1645.5416	4164.75	3283.75
901.8504	1647.2868	4229.95	3350.95
901.9923	1649.0313	4290.55	3411.55
902.1342	1650.7751	4437.4	3551.7
902.2761	1652.5181	4623.55	3742.4
902.4179	1654.2604	4885.85	4004.7
902.5598	1656.0019	5186.75	4304.7
902.7016	1657.7427	5560.9	4679.8
902.8434	1659.4828	5909.85	5029.55
902.9852	1661.222	6162.6	5278.9
903.127	1662.9606	6213.05	5332.05
903.2687	1664.6984	6067.85	5186.8
903.4105	1666.4354	5741.55	4860
903.5522	1668.1717	5297.7	4416.15
903.6939	1669.9072	4846.6	3964.9
903.8356	1671.642	4479.5	3597
903.9773	1673.3761	4170	3289.85
904.119	1675.1094	3943.2	3062.7
904.2606	1676.8419	3772.1	2892.2
904.4022	1678.5737	3664.55	2784.9
904.5439	1680.3048	3543.9	2662.65
904.6855	1682.0351	3483.5	2602.3
904.827	1683.7646	3440.7	2556.35
904.9686	1685.4934	3368.95	2490.1
905.1101	1687.2215	3343.25	2462.45
905.2517	1688.9488	3300.45	2419.75
905.3932	1690.6754	3272.35	2390.3
905.5347	1692.4012	3262.85	2381.65
905.6761	1694.1263	3238.85	2358.3
905.8176	1695.8506	3231.4	2350.1
905.9591	1697.5742	3207.7	2328.7
906.1005	1699.297	3179.85	2298.15
906.2419	1701.0191	3155.3	2272.6
906.3833	1702.7404	3137.3	2257.95
906.5246	1704.461	3115.95	2233.65
906.666	1706.1808	3106.25	2223.4
906.8073	1707.8999	3097.4	2215.35
906.9487	1709.6182	3083.75	2203.45
907.09	1711.3358	3064.15	2184.6
907.2313	1713.0527	3054.45	2173.05
907.3725	1714.7688	3037.8	2151.15
907.5138	1716.4841	3019.85	2139.35
907.655	1718.1987	3027.4	2142.1
907.7962	1719.9126	3013.3	2132.75
907.9374	1721.6257	3009	2124
908.0786	1723.338	2994	2113
908.2198	1725.0496	2965.95	2083.95
908.3609	1726.7605	2968.95	2086.7
908.502	1728.4706	2957.7	2078.05
908.6431	1730.18	2951.2	2067.75
908.7842	1731.8886	2947	2065.65
908.9253	1733.5964	2941.1	2056.55
909.0664	1735.3036	2915.15	2032.85
909.2074	1737.0099	2923.05	2041.15
909.3484	1738.7156	2908.95	2028.75
909.4894	1740.4204	2895.65	2013.2
909.6304	1742.1246	2884.4	2002.4
909.7714	1743.8279	2889.8	2007.9
909.9123	1745.5306	2875.7	1993.35
910.0532	1747.2325	2868.65	1986.75
910.1941	1748.9336	2858.4	1977.5
910.335	1750.634	2842.2	1959.95
910.4759	1752.3336	2849.95	1968.95
910.6168	1754.0325	2838.3	1958.6
910.7576	1755.7307	2846.55	1964.9
910.8984	1757.4281	2830.8	1948.8
911.0392	1759.1247	2849.7	1961.75
911.18	1760.8206	2835.65	1951
911.3208	1762.5158	2824.25	1938.95
911.4615	1764.2102	2809.15	1929.05
911.6022	1765.9039	2802.55	1920.15
911.7429	1767.5968	2797.65	1916.25
911.8836	1769.289	2798.2	1915
912.0243	1770.9804	2791.9	1909.5
912.1649	1772.6711	2783.3	1900.9
912.3056	1774.361	2788	1905.85
912.4462	1776.0502	2782.3	1900.85
912.5868	1777.7386	2766.95	1881.8
912.7274	1779.4263	2749	1866.6
912.8679	1781.1132	2755.8	1874.1
913.0084	1782.7994	2747.75	1862.9
913.149	1784.4849	2745.95	1865.25
913.2895	1786.1696	2742.2	1840.95
913.4299	1787.8535	2729.85	1850.45
913.5704	1789.5367	2723.3	1842.75
913.7108	1791.2192	2725.35	1844.6
913.8513	1792.9009	2730	1821.65
913.9917	1794.5818	2707.35	1824.4
914.132	1796.2621	2715.85	1837.65
914.2724	1797.9415	2696.8	1816.6
914.4128	1799.6202	2692.75	1811.7
914.5531	1801.2982	2697.75	1816.7
914.6934	1802.9755	2690.75	1809.5
914.8337	1804.6519	2682.65	1801.25
914.9739	1806.3277	2678.5	1797.5
915.1142	1808.0027	2673.45	1793.6
915.2544	1809.6769	2677.65	1797.45
915.3946	1811.3504	2656.6	1776.1
915.5348	1813.0231	2670.7	1786.15
915.675	1814.6951	2661.6	1781
915.8151	1816.3664	2658.15	1773.3
915.9553	1818.0369	2639.8	1758.55
916.0954	1819.7067	2648.65	1769
916.2355	1821.3757	2647.8	1764.8
916.3755	1823.044	2633.6	1753.9
916.5156	1824.7115	2627.9	1745.1
916.6556	1826.3783	2627.35	1748.6
916.7956	1828.0443	2620.3	1743.2
916.9356	1829.7096	2611.15	1730.55
917.0756	1831.3741	2605.85	1721.55
917.2155	1833.0379	2614.85	1733.7
917.3555	1834.701	2610.05	1727.7
917.4954	1836.3633	2604.4	1721.25
917.6353	1838.0248	2596.25	1714.55
917.7751	1839.6856	2595.05	1713.8
917.915	1841.3457	2585.75	1704.4
918.0548	1843.005	2583.1	1703.75
918.1946	1844.6636	2574.1	1693.95
918.3344	1846.3214	2579.9	1698.25
918.4742	1847.9785	2573.6	1695.3
918.6139	1849.6349	2585.65	1704.2
918.7537	1851.2904	2576.55	1686.6
918.8934	1852.9453	2568.15	1689.7
919.0331	1854.5994	2563.85	1679.85
919.1727	1856.2528	2564.55	1678.5
919.3124	1857.9054	2559.4	1679.5
919.452	1859.5572	2556.25	1676.55
919.5916	1861.2083	2556.75	1675.4
919.7312	1862.8587	2549.55	1668.05
919.8708	1864.5084	2538.05	1657.35
920.0103	1866.1572	2532.7	1653.25
920.1498	1867.8054	2517.45	1637.9
920.2893	1869.4528	2526.8	1645.35
920.4288	1871.0994	2516.15	1635.75
920.5683	1872.7453	2512	1631.05
920.7077	1874.3905	2528.6	1628.65
920.8471	1876.0349	2498.85	1617.55
920.9865	1877.6786	2502.6	1619.95
921.1259	1879.3215	2488.8	1607.5
921.2653	1880.9637	2502	1619.55
921.4046	1882.6051	2481.8	1601.5
921.5439	1884.2458	2480.55	1596.5
921.6832	1885.8858	2473.65	1594.45
921.8225	1887.525	2474.25	1592.75
921.9617	1889.1634	2463.75	1584.55
922.101	1890.8011	2464.15	1582.4
922.2402	1892.4381	2440.75	1559.4
922.3794	1894.0743	2450.55	1572.2
922.5185	1895.7098	2448.7	1568.15
922.6577	1897.3446	2439	1558.5
922.7968	1898.9786	2446.05	1560.7
922.9359	1900.6118	2446.8	1567.45
923.075	1902.2443	2433.9	1550.35
923.214	1903.8761	2442.55	1562.8
923.3531	1905.5071	2418.5	1536.75
923.4921	1907.1374	2418.35	1537.35
923.6311	1908.7669	2413.25	1532.1
923.77	1910.3957	2416.95	1536.55
923.909	1912.0237	2404.15	1522.45
924.0479	1913.651	2410.75	1529.2
924.1868	1915.2776	2388.35	1509.6
924.3257	1916.9034	2390.5	1509.3
924.4646	1918.5285	2392.5	1512.7
924.6034	1920.1528	2386.25	1504.1
924.7422	1921.7764	2377.55	1496.95
924.881	1923.3992	2380.25	1501.2
925.0198	1925.0213	2370.15	1488.45
925.1586	1926.6427	2357.75	1478.75
925.2973	1928.2633	2444.75	1459.35
925.436	1929.8832	2366.3	1485.15
925.5747	1931.5023	2336.85	1455.9
925.7134	1933.1207	2336.05	1457.35
925.852	1934.7383	2337.8	1456.55
925.9906	1936.3552	2341.7	1462.65
926.1292	1937.9714	2329.05	1447.7
926.2678	1939.5868	2326.6	1444.2
926.4064	1941.2015	2311.55	1430.1
926.5449	1942.8154	2308.35	1427.15
926.6834	1944.4286	2307.45	1427.8
926.8219	1946.041	2318.7	1413.75
926.9604	1947.6528	2294.25	1407.6
927.0988	1949.2637	2279.5	1400.05
927.2372	1950.8739	2275.7	1394.15
927.3756	1952.4834	2280.8	1400.9
927.514	1954.0921	2273.5	1392.5
927.6523	1955.7001	2269.2	1383.6
927.7907	1957.3074	2267.35	1386.95
927.929	1958.9139	2250.65	1370.55
928.0673	1960.5197	2243.75	1360.8
928.2055	1962.1247	2242.9	1363.55
928.3438	1963.729	2228.35	1349.55
928.482	1965.3325	2260.7	1356.55
928.6202	1966.9353	2229.55	1349.9
928.7584	1968.5374	2222.35	1341.2
928.8965	1970.1387	2217.1	1335.35
929.0346	1971.7393	2205.35	1323.9
929.1727	1973.3392	2216.75	1334.85
929.3108	1974.9383	2191.85	1309.8
929.4489	1976.5366	2202.35	1320.75
929.5869	1978.1342	2188.2	1305.6
929.7249	1979.7311	2205.5	1322.35
929.8629	1981.3273	2199.35	1318.1
930.0009	1982.9227	2193.6	1310.45
930.1388	1984.5173	2176.9	1297.5
930.2767	1986.1112	2183.45	1300.3
930.4146	1987.7044	2172.1	1293.75
930.5525	1989.2968	2171.1	1286.6
930.6904	1990.8885	2171.65	1290.5
930.8282	1992.4795	2170.5	1288.95
930.966	1994.0697	2164.2	1282.6
931.1038	1995.6592	2147.85	1268.35
931.2415	1997.2479	2162.45	1281.35
931.3793	1998.8359	2147.4	1268.95
931.517	2000.4232	2151.35	1270.7
931.6547	2002.0097	2133.25	1252.6
931.7923	2003.5955	2137.1	1256.8
931.93	2005.1805	2142.6	1259.05
932.0676	2006.7648	2132.05	1250.7
932.2052	2008.3484	2127.55	1246
932.3427	2009.9312	2133.25	1251.75
932.4803	2011.5133	2115.85	1234.85
932.6178	2013.0946	2115.35	1234.9
932.7553	2014.6752	2116.45	1236.55
932.8928	2016.2551	2109.15	1229.3
933.0302	2017.8342	2114	1233.9
933.1676	2019.4126	2104.8	1225.45
933.305	2020.9902	2099.1	1219.45
933.4424	2022.5672	2104.35	1221.6
933.5798	2024.1433	2089.3	1202.6
933.7171	2025.7188	2085.15	1204.1
933.8544	2027.2935	2088.2	1205.5
933.9917	2028.8674	2078	1196.65
934.129	2030.4406	2075.05	1194.2
934.2662	2032.0131	2069.8	1190.75
934.4034	2033.5849	2071.5	1186.9
934.5406	2035.1559	2065.95	1185.65
934.6778	2036.7261	2052.85	1170.8
934.8149	2038.2957	2056.8	1175.9
934.952	2039.8645	2060.85	1180.6
935.0891	2041.4325	2056.9	1172.65
935.2262	2042.9998	2045.8	1163.3
935.3632	2044.5664	2051.8	1168.75
935.5002	2046.1323	2051.85	1170.8
935.6372	2047.6974	2051.95	1170.8
935.7742	2049.2617	2042.65	1160.55
935.9111	2050.8254	2045.75	1161.45
936.048	2052.3883	2042	1160.75
936.1849	2053.9504	2036.75	1154.75
936.3218	2055.5118	2034.8	1152.8
936.4586	2057.0725	2026.7	1141.1
936.5955	2058.6325	2018.05	1137.8
936.7323	2060.1917	2022.8	1141.1
936.869	2061.7502	2023.8	1138.15
937.0058	2063.3079	2019.3	1138.35
937.1425	2064.8649	2009.9	1123.8
937.2792	2066.4212	2006.45	1126
937.4159	2067.9767	1994.65	1112.25
937.5525	2069.5315	1996.4	1114.7
937.6891	2071.0856	1990.9	1110.5
937.8257	2072.6389	1987.7	1103.75
937.9623	2074.1915	1979.25	1099.8
938.0989	2075.7433	1981.25	1096.55
938.2354	2077.2945	1976.65	1096.8
938.3719	2078.8448	1964.45	1083.3
938.5084	2080.3945	1970.05	1089.2
938.6448	2081.9434	1975.95	1094.8
938.7812	2083.4916	1962.7	1081.2
938.9176	2085.039	1958.05	1076.35
939.054	2086.5857	1963.15	1081.15
939.1903	2088.1317	1953.1	1073.8
939.3267	2089.677	1953.25	1070.5
939.463	2091.2215	1947.15	1066.5
939.5992	2092.7652	1939.15	1057.45
939.7355	2094.3083	1929.7	1048.75
939.8717	2095.8506	1927.1	1047.65
940.0079	2097.3921	1942.2	1061.85
940.1441	2098.933	1932	1051
940.2802	2100.4731	1936.05	1054.9
940.4163	2102.0124	1937.85	1051.05
940.5524	2103.5511	1928.3	1047.7
940.6885	2105.089	1929.45	1049.5
940.8245	2106.6261	1926.85	1046.05
940.9606	2108.1626	1928.5	1045.95
941.0965	2109.6983	1949.3	1037.25
941.2325	2111.2332	1923.05	1041.9
941.3684	2112.7675	1921.75	1040.35
941.5044	2114.301	1906	1024.45
941.6403	2115.8337	1908.25	1027.6
941.7761	2117.3657	1906.45	1024.95
941.912	2118.897	1909.9	1028
942.0478	2120.4276	1897.85	1010.85
942.1835	2121.9575	1885.5	1003.8
942.3193	2123.4866	1910	1012.95
942.455	2125.0149	1886.25	1001.45
942.5907	2126.5426	1881.9	1001.7
942.7264	2128.0695	1878.95	991.45
942.8621	2129.5956	1887.3	1007.1
942.9977	2131.1211	1889.15	1002.35
943.1333	2132.6458	1879.3	999.4
943.2689	2134.1698	1879.2	996.75
943.4044	2135.693	1869.6	985.15
943.54	2137.2155	1875.15	990.05
943.6755	2138.7373	1870.55	988.7
943.8109	2140.2584	1877.65	996.75
943.9464	2141.7787	1872.05	986.6
944.0818	2143.2983	1864.55	983.2
944.2172	2144.8171	1854.65	972.85
944.3526	2146.3353	1858.95	975.9
944.4879	2147.8527	1849.75	969.75
944.6232	2149.3693	1851.7	971
944.7585	2150.8853	1848.8	967.8
944.8938	2152.4005	1842.05	959.85
945.029	2153.9149	1847.15	963.6
945.1642	2155.4287	1837.35	955.25
945.2994	2156.9417	1836	951.85
945.4346	2158.454	1839.15	954.35
945.5697	2159.9655	1839.85	957.75
945.7048	2161.4764	1829	947.25
945.8399	2162.9865	1830.8	947.85
945.9749	2164.4958	1827.2	944.45
946.1099	2166.0045	1821.4	936.55
946.2449	2167.5124	1831.5	950.35
946.3799	2169.0195	1822.4	941.95
946.5148	2170.526	1820.65	936.95
946.6498	2172.0317	1817.05	938
946.7846	2173.5367	1823	939.7
946.9195	2175.0409	1806.4	926.95
947.0543	2176.5445	1817.75	937.85
947.1891	2178.0473	1811.45	931.95
947.3239	2179.5494	1806.95	921.5
947.4587	2181.0507	1802	918.75
947.5934	2182.5513	1798.7	919.05
947.7281	2184.0512	1799.6	917.7
947.8628	2185.5504	1792.05	909.75
947.9974	2187.0488	1792.8	911.8
948.132	2188.5465	1787.65	906.1
948.2666	2190.0435	1774.65	892.4
948.4012	2191.5397	1771.95	890.15
948.5357	2193.0353	1781.85	900.85
948.6702	2194.5301	1778.15	895.6
948.8047	2196.0241	1773	892.9
948.9392	2197.5175	1769.85	888.3
949.0736	2199.0101	1772.55	888.25
949.208	2200.502	1758.75	877.75
949.3424	2201.9931	1765.75	884.65
949.4767	2203.4835	1758.5	875.6
949.611	2204.9733	1758.05	869.55
949.7453	2206.4622	1757.8	878.05
949.8796	2207.9505	1758.55	872.9
950.0138	2209.438	1742.85	863.1
950.148	2210.9248	1733.75	848.25
950.2822	2212.4109	1740.85	860.05
950.4164	2213.8962	1742.3	858.8
950.5505	2215.3809	1737.65	855.6
950.6846	2216.8648	1735.8	854.2
950.8186	2218.3479	1742.25	855.05
950.9527	2219.8304	1737.1	855.45
951.0867	2221.3121	1726.85	842.25
951.2207	2222.7931	1725.2	846.3
951.3546	2224.2733	1723.25	842.45
951.4886	2225.7529	1714.7	831.85
951.6225	2227.2317	1714.3	828.8
951.7563	2228.7098	1714.45	835.15
951.8902	2230.1872	1715.55	834.55
952.024	2231.6638	1709	826.9
952.1578	2233.1397	1721.2	836
952.2916	2234.6149	1705.45	823.35
952.4253	2236.0894	1707.85	825.1
952.559	2237.5632	1704.5	821
952.6927	2239.0362	1688.3	806.25
952.8263	2240.5085	1687.4	805.65
952.9599	2241.9801	1678.85	793.95
953.0935	2243.4509	1683.75	803.1
953.2271	2244.921	1682.6	801.5
953.3606	2246.3904	1673.35	791.55
953.4941	2247.8591	1665.6	787
953.6276	2249.3271	1679.5	798.35
953.7611	2250.7943	1668.45	786.4
953.8945	2252.2608	1662.35	783.65
954.0279	2253.7266	1666.35	785
954.1612	2255.1917	1664.3	782.95
954.2946	2256.656	1665.45	782.45
954.4279	2258.1197	1652.55	771.7
954.5612	2259.5826	1659.4	775.2
954.6944	2261.0447	1664.75	782.35
954.8276	2262.5062	1654.05	771.85
954.9608	2263.9669	1653.8	773
955.094	2265.4269	1650.55	770.35
955.2271	2266.8862	1649.55	767.65
955.3602	2268.3448	1647.4	764.1
955.4933	2269.8026	1645.75	765.1
955.6264	2271.2598	1644.45	760.7
955.7594	2272.7162	1642.05	760.9
955.8924	2274.1719	1645.6	764.4
956.0253	2275.6268	1637.3	756.35
956.1583	2277.0811	1640.45	758.85
956.2912	2278.5346	1639.85	760.05
956.4241	2279.9874	1625.1	742.1
956.5569	2281.4395	1632.7	752.05
956.6897	2282.8908	1638.7	749.85
956.8225	2284.3414	1631.4	749.35
956.9553	2285.7914	1623	740.55
957.088	2287.2406	1629.9	744.8
957.2207	2288.689	1621.25	739.4
957.3534	2290.1368	1624.05	741.9
957.486	2291.5838	1623.75	739.9
957.6186	2293.0302	1619.75	736.5
957.7512	2294.4758	1612.45	732
957.8838	2295.9206	1616.7	734.9
958.0163	2297.3648	1604.25	723.3
958.1488	2298.8082	1618.8	736.4
958.2813	2300.251	1607.05	724.35
958.4137	2301.693	1605.3	722.55
958.5461	2303.1343	1604.2	722.25
958.6785	2304.5748	1605.2	723.15
958.8108	2306.0147	1594.95	711.6
958.9432	2307.4538	1599.85	716.75
959.0754	2308.8922	1594.35	716.05
959.2077	2310.3299	1593.5	712.15
959.3399	2311.7669	1584.8	702.7
959.4721	2313.2031	1578.65	697.4
959.6043	2314.6387	1590.9	708.65
959.7365	2316.0735	1578.1	696.75
959.8686	2317.5076	1580.45	698.05
960.0006	2318.941	1577.85	696.95
960.1327	2320.3737	1575.95	691.9
960.2647	2321.8056	1575.15	691.2
960.3967	2323.2369	1578	696.9
960.5287	2324.6674	1568.55	684.9
960.6606	2326.0972	1573.05	687.15
960.7925	2327.5263	1562.95	681.2
960.9244	2328.9547	1570.05	687.35
961.0562	2330.3823	1566.3	684.9
961.1881	2331.8092	1563.4	679.7
961.3198	2333.2355	1561.7	680.9
961.4516	2334.661	1557.5	676.05
961.5833	2336.0858	1554.35	671.6
961.715	2337.5098	1552.3	670.7
961.8467	2338.9332	1552.3	671.3
961.9783	2340.3558	1557.75	673.3
962.1099	2341.7778	1548.7	668.4
962.2415	2343.199	1550.25	667.85
962.373	2344.6195	1547.95	666.4
962.5045	2346.0393	1550.05	669.75
962.636	2347.4583	1542.1	659.95
962.7675	2348.8767	1547.55	666.85
962.8989	2350.2943	1546.95	665
963.0303	2351.7113	1544.75	660.65
963.1617	2353.1275	1541.05	660.6
963.293	2354.543	1565.7	657.65
963.4243	2355.9578	1542.55	660.85
963.5556	2357.3718	1540.3	659.4
963.6868	2358.7852	1536.5	651.2
963.818	2360.1978	1538.65	658.05
963.9492	2361.6098	1529.95	648.2
964.0803	2363.021	1538.65	654.95
964.2114	2364.4315	1534	653.45
964.3425	2365.8413	1530.85	646.15
964.4736	2367.2504	1524.2	645.15
964.6046	2368.6587	1522.3	641.05
964.7356	2370.0664	1518.05	637.5
964.8666	2371.4733	1523.05	640.55
964.9975	2372.8795	1519.55	637.7
965.1284	2374.285	1517.45	636.35
965.2593	2375.6899	1509.45	630.45
965.3901	2377.0939	1505.95	624.75
965.5209	2378.4973	1503	623.05
965.6517	2379.9	1505.6	623.75
965.7825	2381.3019	1506.4	625.8
965.9132	2382.7032	1501.15	618.7
966.0439	2384.1037	1500.25	619.6
966.1745	2385.5035	1501.35	619.7
966.3051	2386.9027	1498.35	616.5
966.4357	2388.3011	1499.15	615.1
966.5663	2389.6987	1487.65	606.2
966.6968	2391.0957	1482.9	603.25
966.8273	2392.492	1485.05	604.9
966.9578	2393.8876	1483.15	602.6
967.0882	2395.2824	1482.2	601.95
967.2186	2396.6765	1471.45	591.75
967.349	2398.07	1473.6	592.55
967.4793	2399.4627	1479.5	598.55
967.6097	2400.8547	1470.7	589.4
967.7399	2402.246	1479.85	593.5
967.8702	2403.6366	1465.95	586.2
968.0004	2405.0265	1472.45	591.45
968.1306	2406.4156	1472.15	588.75
968.2607	2407.8041	1465.6	580.2
968.3909	2409.1918	1465.1	583.75
968.521	2410.5789	1459.5	579.65
968.651	2411.9652	1469.05	585.3
968.781	2413.3508	1468.2	587.55
968.911	2414.7358	1457.35	574.45
969.041	2416.12	1460.6	581.2
969.1709	2417.5035	1454.75	574.75
969.3008	2418.8863	1452.35	571.1
969.4307	2420.2684	1461.8	583.05
969.5606	2421.6497	1455.6	574.95
969.6904	2423.0304	1450.9	571.2
969.8201	2424.4104	1451.15	570.55
969.9499	2425.7896	1455.1	566
970.0796	2427.1682	1446.05	565.35
970.2093	2428.546	1438.1	555.35
970.3389	2429.9232	1443.55	562.2
970.4685	2431.2996	1442.1	561
970.5981	2432.6753	1437.7	557.55
970.7277	2434.0503	1436.05	556.7
970.8572	2435.4246	1439.6	557.3
970.9867	2436.7982	1435.05	552.75
971.1161	2438.1711	1427.65	549.25
971.2456	2439.5433	1430.75	548.75
971.375	2440.9148	1422.85	537.05
971.5043	2442.2856	1424.6	543.85
971.6336	2443.6557	1428.6	548.1
971.7629	2445.025	1422	541.85
971.8922	2446.3937	1430	548.45
972.0214	2447.7617	1421.25	541.05
972.1506	2449.1289	1421.65	539.8
972.2798	2450.4955	1418.85	534.35
972.4089	2451.8613	1418.05	538.55
972.538	2453.2265	1418.45	537.9
972.6671	2454.5909	1414.65	531.75
972.7961	2455.9546	1419.3	539.35
972.9251	2457.3177	1417	535.65
973.0541	2458.68	1417.65	535.05
973.1831	2460.0416	1412.3	530.1
973.312	2461.4025	1412.25	531.95
973.4408	2462.7627	1422.1	529.45
973.5697	2464.1222	1410.15	530
973.6985	2465.4811	1409.35	526.9
973.8273	2466.8392	1408.6	526.55
973.956	2468.1966	1411.6	528.2
974.0847	2469.5533	1410.4	527.75
974.2134	2470.9093	1412.4	528.8
974.3421	2472.2645	1402.95	519.65
974.4707	2473.6191	1409.05	527.4
974.5993	2474.973	1399.45	519.05
974.7278	2476.3262	1406.9	524.2
974.8563	2477.6787	1398.4	517.35
974.9848	2479.0305	1392.05	511.35
975.1132	2480.3816	1403.55	520.35
975.2417	2481.7319	1392.45	512.15
975.37	2483.0816	1403.85	519.5
975.4984	2484.4306	1403.75	521.9
975.6267	2485.7789	1386.4	505
975.755	2487.1264	1392.5	508
975.8833	2488.4733	1390.4	509.5
976.0115	2489.8195	1405.45	506.65
976.1397	2491.165	1395.15	510.45
976.2678	2492.5097	1385.15	503.8
976.3959	2493.8538	1377.55	497.45
976.524	2495.1972	1384.5	501.65
976.6521	2496.5398	1379.55	496.7
976.7801	2497.8818	1381.95	498.5
976.9081	2499.2231	1375.95	494.75
977.036	2500.5637	1381	499.25
977.164	2501.9035	1372.8	490.5
977.2918	2503.2427	1377.65	494.3
977.4197	2504.5812	1371.8	490.9
977.5475	2505.919	1375.95	491.45
977.6753	2507.256	1368.6	488.45
977.8031	2508.5924	1372.7	490.1
977.9308	2509.9281	1376.65	488.1
978.0585	2511.2631	1366.9	485.1
978.1861	2512.5974	1369.25	489.25
978.3137	2513.9309	1361.55	479.1
978.4413	2515.2638	1388.15	477.65
978.5689	2516.596	1361.55	481.85
978.6964	2517.9275	1367.7	487
978.8239	2519.2583	1362.1	480.15
978.9513	2520.5884	1359.05	478.55
979.0788	2521.9178	1355.35	472.75
979.2062	2523.2465	1357.95	477.95
979.3335	2524.5745	1353.6	469.75
979.4608	2525.9018	1356.25	474
979.5881	2527.2284	1351.2	471.2
979.7154	2528.5543	1351.1	472.1
979.8426	2529.8796	1348.7	467.9
979.9698	2531.2041	1352.7	470.55
980.0969	2532.5279	1348	465.95
980.224	2533.851	1349.95	468.9
980.3511	2535.1735	1355.2	475
980.4781	2536.4952	1348.15	465.3
980.6052	2537.8163	1344.45	461.45
980.7321	2539.1366	1344.05	462.95
980.8591	2540.4562	1346.15	465.7
980.986	2541.7752	1341.1	460.55
981.1129	2543.0935	1348.8	468.7
981.2397	2544.411	1340.3	456.1
981.3665	2545.7279	1335.25	454.45
981.4933	2547.0441	1335.95	455
981.62	2548.3596	1339.7	453.95
981.7467	2549.6744	1327.9	447.65
981.8734	2550.9885	1345.15	460.7
982.0001	2552.3019	1333.1	453.1
982.1267	2553.6146	1331.1	447.5
982.2532	2554.9266	1335.25	452.7
982.3798	2556.2379	1335.05	453.7
982.5063	2557.5485	1331.45	448.8
982.6327	2558.8585	1335.95	447.95
982.7592	2560.1677	1334.85	450.6
982.8856	2561.4762	1330.15	448.1
983.0119	2562.7841	1326	441.55
983.1383	2564.0913	1324.75	444.3
983.2646	2565.3977	1318.65	436.55
983.3908	2566.7035	1327.75	445.85
983.517	2568.0086	1316.1	432.1
983.6432	2569.313	1320.35	438.15
983.7694	2570.6167	1321.8	438.15
983.8955	2571.9197	1318.05	436
984.0216	2573.222	1317.5	432.4
984.1476	2574.5236	1318.5	437.05
984.2737	2575.8246	1325.85	441.6
984.3996	2577.1248	1320.9	437.55
984.5256	2578.4244	1319.35	436.85
984.6515	2579.7232	1322.85	441.7
984.7774	2581.0214	1352.25	439.75
984.9032	2582.3189	1318.1	436.45
985.029	2583.6157	1321.4	435.5
985.1548	2584.9118	1322.9	442.45
985.2806	2586.2072	1329.55	447.6
985.4063	2587.5019	1322	440.5
985.5319	2588.7959	1326	442.35
985.6576	2590.0893	1330.8	447.35
985.7832	2591.3819	1324.3	444.8
985.9087	2592.6739	1328.85	447.75
986.0343	2593.9652	1335.55	452.25
986.1597	2595.2557	1334.2	455.1
986.2852	2596.5456	1334.25	448.15
986.4106	2597.8348	1335.45	456.05
986.536	2599.1234	1340.75	458.8
986.6614	2600.4112	1339.7	458.25
986.7867	2601.6983	1346.9	462.5
986.912	2602.9848	1339.8	456.85
987.0372	2604.2705	1347.05	456.65
987.1624	2605.5556	1341.45	460.25
987.2876	2606.84	1342.05	461.55
987.4128	2608.1237	1338.6	454.8
987.5379	2609.4067	1332.2	450.85
987.6629	2610.689	1341.1	451.2
987.788	2611.9707	1335.9	451.9
987.913	2613.2516	1337.1	448.8
988.0379	2614.5319	1327.55	446.85
988.1629	2615.8115	1329.35	447.35
988.2878	2617.0903	1331.8	448.35
988.4126	2618.3685	1332.1	449.6
988.5375	2619.6461	1328.95	447.7
988.6622	2620.9229	1327.9	447.1
988.787	2622.199	1329.3	446.2
988.9117	2623.4745	1330.95	448.95
989.0364	2624.7493	1328.9	448.4
989.161	2626.0234	1333.3	451.6
989.2857	2627.2968	1328.55	447.45
989.4102	2628.5695	1325.6	442.45
989.5348	2629.8415	1329.4	448.3
989.6593	2631.1128	1336.7	453.1
989.7837	2632.3835	1328.15	444.8
989.9082	2633.6535	1331.7	450.2
990.0326	2634.9228	1325	445
990.1569	2636.1914	1330.7	449.25
990.2812	2637.4593	1335.15	452.5
990.4055	2638.7265	1327.75	446.95
990.5298	2639.9931	1329.2	449.8
990.654	2641.259	1324.1	440.85
990.7782	2642.5242	1325.2	442.5
990.9023	2643.7887	1322.1	440.75
991.0264	2645.0525	1323.8	439.7
991.1505	2646.3156	1324.7	442.05
991.2745	2647.5781	1321.75	440.8
991.3985	2648.8398	1313.65	431.55
991.5225	2650.1009	1324.55	434.5
991.6464	2651.3613	1319.85	438.15
991.7703	2652.6211	1313.55	431.25
991.8942	2653.8801	1313.3	432.8
992.018	2655.1385	1318.4	434.05
992.1418	2656.3961	1317.35	435
992.2655	2657.6531	1321.8	441.6
992.3892	2658.9094	1319.05	436
992.5129	2660.1651	1318.9	438.3
992.6366	2661.42	1318.2	434.1
992.7602	2662.6743	1318.6	434.9
992.8837	2663.9279	1327.85	447
993.0073	2665.1808	1324.85	443.05
993.1307	2666.433	1328.7	446.6
993.2542	2667.6846	1328.75	447.05
993.3776	2668.9354	1325.7	439.6
993.501	2670.1856	1331.55	448.85
993.6244	2671.4351	1333.8	449.95
993.7477	2672.6839	1335.9	454.15
993.8709	2673.9321	1341.2	460.65
993.9942	2675.1795	1343.95	459.8
994.1174	2676.4263	1344.7	463.9
994.2405	2677.6724	1347.6	465.75
994.3637	2678.9179	1346.3	465.2
994.4868	2680.1626	1348.15	468.55
994.6098	2681.4067	1347.15	465.75
994.7328	2682.6501	1346.3	464.25
994.8558	2683.8928	1354.2	471
994.9788	2685.1348	1343.9	466.25
995.1017	2686.3761	1335.1	453.6
995.2245	2687.6168	1340.1	457.7
995.3474	2688.8568	1339.35	459.2
995.4702	2690.0961	1333.3	451.7
995.5929	2691.3348	1330.25	447.7
995.7156	2692.5727	1328.95	448.05
995.8383	2693.81	1320.2	438.5
995.961	2695.0466	1325.9	446.75
996.0836	2696.2826	1325.85	442.2
996.2062	2697.5178	1319.25	432.1
996.3287	2698.7524	1321.2	441.3
996.4512	2699.9863	1331.05	446.9
996.5737	2701.2195	1327.4	447.7
996.6961	2702.452	1333.4	450
996.8185	2703.6839	1338	455.75
996.9408	2704.9151	1347.25	465.3
997.0631	2706.1456	1348.4	466.6
997.1854	2707.3755	1354	470.9
997.3077	2708.6046	1368.1	483.3
997.4299	2709.8331	1366.1	486.6
997.552	2711.0609	1375.45	492.65
997.6742	2712.2881	1385.05	503.85
997.7963	2713.5145	1407.45	523.95
997.9183	2714.7403	1404.15	522.85
998.0403	2715.9654	1411.65	527.6
998.1623	2717.1899	1448.65	552.05
998.2842	2718.4136	1440.9	559.35
998.4062	2719.6367	1457.65	576.2
998.528	2720.8591	1472	583.95
998.6498	2722.0809	1476.45	596.65
998.7716	2723.3019	1487.35	603.15
998.8934	2724.5223	1493.6	612.55
999.0151	2725.7421	1502.05	620.1
999.1368	2726.9611	1506.1	622.8
999.2584	2728.1795	1512.55	624.95
999.38	2729.3972	1495.4	613.45
999.5016	2730.6142	1495.9	600.15
999.6231	2731.8306	1474.1	592.15
999.7446	2733.0462	1455.65	573.2
999.8661	2734.2612	1451.8	563.7
999.9875	2735.4756	1426.65	543.3
1000.1089	2736.6892	1409.7	527.2
1000.2302	2737.9022	1397.7	518.25
1000.3515	2739.1145	1384.9	502.4
1000.4728	2740.3262	1379	487.85
1000.594	2741.5372	1352.6	471.2
1000.7152	2742.7475	1342	459.4
1000.8363	2743.9571	1336.5	453.7
1000.9575	2745.1661	1330.2	444.3
1001.0785	2746.3744	1319.3	437.25
1001.1996	2747.582	1313.5	433.45
1001.3206	2748.7889	1304.85	420.7
1001.4415	2749.9952	1295.9	413.3
1001.5625	2751.2008	1291.25	408.7
1001.6833	2752.4057	1290.3	405.45
1001.8042	2753.61	1284.9	402.45
1001.925	2754.8136	1289.1	405.3
1002.0458	2756.0165	1286.05	405.95
1002.1665	2757.2188	1274.7	392.35
1002.2872	2758.4204	1281.75	398.65
1002.4078	2759.6213	1285.75	401.45
1002.5285	2760.8215	1294.7	405.75
1002.649	2762.0211	1283.45	399.95
1002.7696	2763.22	1283.1	397.25
1002.8901	2764.4182	1276.1	393
1003.0106	2765.6158	1280.9	400.55
1003.131	2766.8127	1275.9	393.45
1003.2514	2768.009	1264.05	383.6
1003.3717	2769.2045	1272.2	389.1
1003.492	2770.3994	1272.25	387.95
1003.6123	2771.5936	1268.55	386.3
1003.7325	2772.7872	1263.15	380.9
1003.8527	2773.9801	1268.2	384.4
1003.9729	2775.1723	1278.6	380.6
1004.093	2776.3639	1263.75	384.6
1004.2131	2777.5548	1268.85	385
1004.3331	2778.745	1273.25	388.7
1004.4531	2779.9346	1270.15	390.2
1004.5731	2781.1235	1277.25	394.8
1004.693	2782.3117	1277.25	396.95
1004.8129	2783.4992	1280.5	397.85
1004.9328	2784.6861	1289.9	406.2
1005.0526	2785.8723	1298.4	413.3
1005.1723	2787.0579	1303.35	419.7
1005.2921	2788.2428	1314.1	433.25
1005.4118	2789.427	1323.65	439.35
1005.5314	2790.6106	1330.2	446.4
1005.651	2791.7935	1346.9	463.95
1005.7706	2792.9757	1359.95	479.6
1005.8902	2794.1573	1367.15	483.15
1006.0097	2795.3382	1384.95	503.2
1006.1291	2796.5184	1402.15	521.6
1006.2485	2797.698	1418.25	534.4
1006.3679	2798.8769	1441.25	560.05
1006.4873	2800.0551	1463.25	577.7
1006.6066	2801.2327	1481.5	597.7
1006.7258	2802.4096	1498.3	616.1
1006.8451	2803.5859	1520.35	637.5
1006.9642	2804.7615	1545.75	664.25
1007.0834	2805.9364	1571.75	690.55
1007.2025	2807.1106	1597.5	714.15
1007.3216	2808.2842	1642.55	759.35
1007.4406	2809.4572	1663.5	780.35
1007.5596	2810.6294	1699	817.55
1007.6785	2811.801	1744.8	863.8
1007.7975	2812.972	1782.9	901.25
1007.9163	2814.1423	1836.15	953.5
1008.0352	2815.3119	1882.9	1001.2
1008.154	2816.4808	1925.1	1044.25
1008.2727	2817.6491	1986.35	1103.75
1008.3914	2818.8167	2025.3	1145.3
1008.5101	2819.9837	2094.3	1207.3
1008.6288	2821.15	2131.7	1251.05
1008.7474	2822.3157	2163.3	1283.75
1008.8659	2823.4807	2223.3	1340.6
1008.9844	2824.645	2269.65	1386.75
1009.1029	2825.8086	2306.95	1425.25
1009.2214	2826.9716	2349.8	1469.05
1009.3398	2828.134	2393.75	1511.35
1009.4581	2829.2957	2424.7	1542.85
1009.5764	2830.4567	2455.3	1576.5
1009.6947	2831.617	2476.25	1594.15
1009.813	2832.7767	2481.3	1600.6
1009.9312	2833.9358	2484.9	1602.75
1010.0493	2835.0941	2500.95	1617.2
1010.1675	2836.2519	2466	1585.9
1010.2855	2837.4089	2459.95	1574.6
1010.4036	2838.5653	2457.3	1573.85
1010.5216	2839.7211	2457.1	1576.6
1010.6396	2840.8761	2469.2	1585.5
1010.7575	2842.0306	2484.5	1604.7
1010.8754	2843.1843	2512.7	1629.85
1010.9932	2844.3374	2565.7	1684.4
1011.111	2845.4899	2638.3	1754.3
1011.2288	2846.6417	2709.9	1828.55
1011.3465	2847.7928	2773.2	1890.9
1011.4642	2848.9433	2864.1	1984.1
1011.5818	2850.0931	2940.7	2057.75
1011.6995	2851.2422	3034.5	2152.35
1011.817	2852.3907	3103.05	2220.9
1011.9345	2853.5385	3185.55	2301.45
1012.052	2854.6857	3260.2	2348.75
1012.1695	2855.8323	3294.95	2413.4
1012.2869	2856.9781	3338.4	2454.4
1012.4042	2858.1233	3404.7	2523.9
1012.5216	2859.2679	3454.7	2572.95
1012.6389	2860.4118	3515.5	2633.8
1012.7561	2861.555	3553.8	2667.6
1012.8733	2862.6976	3594.65	2710.7
1012.9905	2863.8395	3601.1	2719.75
1013.1076	2864.9808	3627.4	2747.1
1013.2247	2866.1214	3650.5	2767.8
1013.3417	2867.2614	3661.3	2777
1013.4587	2868.4007	3674	2790.5
1013.5757	2869.5393	3686.7	2802.05
1013.6926	2870.6773	3694.25	2807.85
1013.8095	2871.8146	3728.35	2845.4
1013.9263	2872.9513	3723.45	2836.6
1014.0431	2874.0874	3727.85	2847.45
1014.1599	2875.2227	3718.95	2835.65
1014.2766	2876.3574	3705.15	2822.55
1014.3933	2877.4915	3678.85	2795.7
1014.51	2878.6249	3648.95	2766.6
1014.6266	2879.7577	3630.1	2748.55
1014.7431	2880.8898	3609.6	2719.15
1014.8596	2882.0212	3590.1	2707.85
1014.9761	2883.152	3589.35	2706.2
1015.0925	2884.2821	3573.9	2693.65
1015.2089	2885.4116	3568.3	2686.55
1015.3253	2886.5405	3566.5	2684.8
1015.4416	2887.6686	3582.35	2696.45
1015.5579	2888.7962	3575.8	2694
1015.6741	2889.923	3584.1	2703.9
1015.7903	2891.0493	3604.7	2723.1
1015.9065	2892.1748	3604.25	2721.95
1016.0226	2893.2997	3610.4	2728.7
1016.1387	2894.424	3645.4	2765.75
1016.2547	2895.5476	3649.65	2767.6
1016.3707	2896.6706	3677.7	2798.5
1016.4866	2897.7929	3709.7	2825.8
1016.6025	2898.9145	3747.55	2866.75
1016.7184	2900.0355	3777.25	2893.8
1016.8342	2901.1559	3811.1	2929.95
1016.95	2902.2756	3842.15	2960.35
1017.0658	2903.3946	3878.25	2996.75
1017.1815	2904.513	3908.35	3023.55
1017.2971	2905.6308	3926.65	3046.95
1017.4127	2906.7479	3942.25	3059.85
1017.5283	2907.8643	3982.65	3101.95
1017.6439	2908.9801	3996.1	3114.3
1017.7594	2910.0953	4013.9	3133.5
1017.8748	2911.2098	4010.6	3124.9
1017.9902	2912.3236	4021.75	3132.35
1018.1056	2913.4368	4005.15	3121.85
1018.2209	2914.5494	3991.3	3110.45
1018.3362	2915.6613	3963.2	3074.65
1018.4515	2916.7725	3923.65	3037.5
1018.5667	2917.8831	3908.45	3025.6
1018.6819	2918.9931	3888.75	3003.65
1018.797	2920.1024	3847.3	2964.2
1018.9121	2921.211	3828.25	2947.05
1019.0271	2922.319	3797.55	2916.25
1019.1421	2923.4264	3789.65	2909.9
1019.2571	2924.5331	3788.65	2908.4
1019.372	2925.6391	3763.2	2881
1019.4869	2926.7445	3750.45	2868.05
1019.6017	2927.8493	3744.5	2862.6
1019.7165	2928.9534	3741.9	2860.55
1019.8313	2930.0569	3710.9	2825.9
1019.946	2931.1597	3697.1	2813.6
1020.0606	2932.2619	3689.95	2808.15
1020.1753	2933.3634	3704.8	2820.75
1020.2899	2934.4643	3695	2806.9
1020.4044	2935.5645	3671.45	2781.65
1020.5189	2936.6641	3641.4	2756
1020.6334	2937.763	3585.4	2704.35
1020.7478	2938.8613	3543.6	2662
1020.8622	2939.959	3476.4	2589.45
1020.9765	2941.056	3405.35	2526.55
1021.0908	2942.1523	3338.1	2454.6
1021.2051	2943.248	3226.8	2345.5
1021.3193	2944.3431	3130.6	2248.05
1021.4334	2945.4375	3035.65	2154.05
1021.5476	2946.5313	2914.3	2034.5
1021.6617	2947.6244	2807.8	1926.75
1021.7757	2948.7169	2712.15	1829.2
1021.8897	2949.8087	2609.9	1729
1022.0037	2950.8999	2519.9	1638.3
1022.1176	2951.9904	2437.05	1555.05
1022.2315	2953.0803	2356.65	1472.8
1022.3453	2954.1696	2296.85	1416.8
1022.4591	2955.2582	2237.2	1355.75
1022.5728	2956.3462	2185.05	1302.5
1022.6865	2957.4335	2140.75	1259.05
1022.8002	2958.5202	2115.55	1232.65
1022.9138	2959.6062	2079.35	1194.7
1023.0274	2960.6916	2054.05	1173.6
1023.141	2961.7764	2041.95	1161.2
1023.2545	2962.8605	2021.95	1139.4
1023.3679	2963.9439	2003.45	1122.2
1023.4813	2965.0267	1987.65	1105.85
1023.5947	2966.1089	2014.95	1111.85
1023.708	2967.1905	1980	1098.2
1023.8213	2968.2714	1972.2	1089.1
1023.9346	2969.3516	1972.6	1090.35
1024.0478	2970.4312	1980.6	1092.85
1024.1609	2971.5102	1979.3	1098.8
1024.274	2972.5885	1989.5	1107.6
1024.3871	2973.6662	1980.35	1092.85
1024.5002	2974.7432	1977.15	1096.65
1024.6132	2975.8196	1968.9	1089.8
1024.7261	2976.8954	1953.9	1072.2
1024.839	2977.9705	1941.9	1061.05
1024.9519	2979.045	1929.4	1049
1025.0647	2980.1188	1916.9	1035.5
1025.1775	2981.192	1890.85	1009.75
1025.2902	2982.2645	1876.65	993.2
1025.4029	2983.3364	1845.9	965.5
1025.5156	2984.4077	1822.7	941.9
1025.6282	2985.4783	1805.2	917.15
1025.7407	2986.5483	1758.3	878.15
1025.8532	2987.6177	1721.45	842.3
1025.9657	2988.6864	1689.35	806.7
1026.0782	2989.7545	1649.5	765.35
1026.1906	2990.8219	1621.95	740.4
1026.3029	2991.8887	1592	708
1026.4152	2992.9548	1556	672.2
1026.5275	2994.0204	1529.9	648.9
1026.6397	2995.0852	1494.45	614.25
1026.7519	2996.1495	1476.8	593.15
1026.864	2997.2131	1452	570.45
1026.9761	2998.276	1429.35	548.95
1027.0882	2999.3383	1413.3	531.25
1027.2002	3000.4	1392.5	510.9
1027.3122	3001.4611	1376.55	494.35
1027.4241	3002.5215	1362.05	479.5
1027.536	3003.5812	1347	464.5
1027.6478	3004.6404	1336.45	455.15
1027.7596	3005.6989	1323.9	440.3
1027.8714	3006.7567	1318.45	436.85
1027.9831	3007.8139	1328.7	428.35
1028.0947	3008.8705	1307.2	427
1028.2064	3009.9264	1305	420.6
1028.3179	3010.9818	1293.5	411.1
1028.4295	3012.0364	1293.75	411.3
1028.541	3013.0905	1291.05	410.05
1028.6524	3014.1439	1287	405.1
1028.7638	3015.1966	1288.4	406.9
1028.8752	3016.2487	1284.7	400.15
1028.9865	3017.3002	1289.45	404.55
1029.0978	3018.3511	1281.15	401.65
1029.209	3019.4013	1286.3	405.7
1029.3202	3020.4509	1289.8	406.4
1029.4314	3021.4998	1293.65	412.85
1029.5425	3022.5481	1289.1	409.5
1029.6535	3023.5958	1291.35	408.95
1029.7645	3024.6428	1293.25	409.1
1029.8755	3025.6892	1291.9	410.25
1029.9864	3026.735	1298.85	417.9
1030.0973	3027.7802	1299.8	417.65
1030.2082	3028.8247	1303	420.6
1030.319	3029.8685	1299	417.8
1030.4297	3030.9118	1312.1	429
1030.5404	3031.9544	1311.85	431.2
1030.6511	3032.9963	1320.75	438.7
1030.7617	3034.0376	1332.5	452.5
1030.8723	3035.0783	1338.75	455.75
1030.9829	3036.1184	1338.05	455.05
1031.0934	3037.1578	1342.95	463.4
1031.2038	3038.1966	1344.45	461.35
1031.3142	3039.2348	1343.25	461.3
1031.4246	3040.2723	1348.75	460.6
1031.5349	3041.3092	1333.8	451.9
1031.6452	3042.3455	1339	457.05
1031.7554	3043.3811	1335.1	452.65
1031.8656	3044.4161	1330.65	447.85
1031.9758	3045.4505	1331.35	452.35
1032.0859	3046.4842	1325.05	444.1
1032.1959	3047.5173	1308.9	430.35
1032.3059	3048.5498	1312.75	429.95
1032.4159	3049.5816	1303.5	423.5
1032.5258	3050.6128	1295.25	412.7
1032.6357	3051.6434	1287.7	406.6
1032.7455	3052.6734	1288.65	406.75
1032.8553	3053.7027	1275	396.9
1032.9651	3054.7314	1266.6	385.65
1033.0748	3055.7594	1267.65	388.35
1033.1845	3056.7868	1256.95	373.65
1033.2941	3057.8136	1257.65	378.15
1033.4037	3058.8398	1247.65	367.7
1033.5132	3059.8653	1245.15	364.4
1033.6227	3060.8902	1234.85	351.65
1033.7321	3061.9145	1235.05	355.65
1033.8415	3062.9381	1229.65	349.6
1033.9509	3063.9612	1240.8	346.3
1034.0602	3064.9835	1218.3	338.25
1034.1694	3066.0053	1210.4	327.9
1034.2787	3067.0264	1202.4	321.45
1034.3878	3068.0469	1194.85	309.5
1034.497	3069.0668	1190.65	306.65
1034.6061	3070.086	1176.2	295.6
1034.7151	3071.1046	1174.95	291.65
1034.8241	3072.1226	1161.8	279.7
1034.9331	3073.1399	1151.85	272.25
1035.042	3074.1567	1141.55	260.35
1035.1508	3075.1727	1136.35	253.3
1035.2597	3076.1882	1124.55	243.3
1035.3684	3077.203	1116.7	235.75
1035.4772	3078.2173	1107.95	224.1
1035.5859	3079.2308	1104.65	220.95
1035.6945	3080.2438	1092.35	209.05
1035.8031	3081.2561	1083.05	202.25
1035.9117	3082.2678	1075.75	194.2
1036.0202	3083.2789	1074.6	194.4
1036.1286	3084.2893	1068.4	188.6
1036.2371	3085.2991	1062.45	181.3
1036.3454	3086.3083	1061	175.45
1036.4538	3087.3169	1054.15	170.6
1036.562	3088.3248	1045.5	164.4
1036.6703	3089.3321	1046.15	160.6
1036.7785	3090.3388	1035.1	154.25
1036.8866	3091.3449	1030.9	149.2
1036.9948	3092.3503	1029.85	146.45
1037.1028	3093.3551	1022.2	142.65
1037.2108	3094.3593	1022.6	142.05
1037.3188	3095.3629	1019.9	139.3
1037.4267	3096.3658	1021.2	136.75
1037.5346	3097.3681	1012.3	130.8
1037.6425	3098.3698	1016.35	134.4
1037.7503	3099.3708	1018.4	130.8
1037.858	3100.3713	1006.05	125.4
1037.9657	3101.3711	1006.05	123.8
1038.0734	3102.3702	1142.6	119.6
1038.181	3103.3688	1005.2	121.35
1038.2886	3104.3667	997.45	118.45
1038.3961	3105.364	999.8	117.35
1038.5036	3106.3607	999.5	116.8
1038.611	3107.3568	999.6	117
1038.7184	3108.3522	991.75	112.3
1038.8257	3109.347	996.3	113.75
1038.933	3110.3412	997.7	112.1
1039.0403	3111.3348	991.95	111.4
1039.1475	3112.3277	990.5	109.35
1039.2547	3113.32	987.25	108.6
1039.3618	3114.3117	987.65	102.45
1039.4689	3115.3028	986.2	104.8
1039.5759	3116.2932	984.35	101.45
1039.6829	3117.2831	988.15	100.8
1039.7898	3118.2723	983.9	103.1
1039.8967	3119.2608	984	102.9
1040.0035	3120.2488	983.7	101.45
1040.1103	3121.2361	977.4	97.15
1040.2171	3122.2229	980.4	100.8
1040.3238	3123.209	979.1	96.8
1040.4305	3124.1944	976.25	95.55
1040.5371	3125.1793	978.45	94.1
1040.6437	3126.1635	975.55	93.9
1040.7502	3127.1471	973.25	93.9
1040.8567	3128.1301	969.3	88.15
1040.9631	3129.1125	970.25	90.35
1041.0695	3130.0942	972.4	92.8
1041.1759	3131.0753	980.25	91.4
1041.2822	3132.0558	971.25	87.9
1041.3884	3133.0357	971.65	90.95
1041.4946	3134.015	969.8	89.2
1041.6008	3134.9936	967.8	84.2
1041.7069	3135.9716	985.65	86
1041.813	3136.949	964.25	84.3
1041.919	3137.9258	979.7	79.85
1042.025	3138.902	968.85	81.55
1042.1309	3139.8775	964.15	85
1042.2368	3140.8524	959.35	79
1042.3427	3141.8267	963.35	82.4
1042.4485	3142.8004	963.45	84.05
1042.5542	3143.7735	966.9	81.15
1042.6599	3144.7459	964.75	82.3
1042.7656	3145.7178	959.6	77.5
1042.8712	3146.689	951.6	72.45
1042.9768	3147.6596	955.6	73.25
1043.0823	3148.6295	955.7	73.2
1043.1878	3149.5989	952.7	71.5
1043.2932	3150.5676	951.7	71.1
1043.3986	3151.5357	951.85	71.9
1043.5039	3152.5032	951.45	71.95
1043.6092	3153.4701	952.1	72.15
1043.7145	3154.4364	954.05	70.55
1043.8197	3155.402	948.95	69.5
1043.9248	3156.367	949.75	65.65
1044.03	3157.3315	993.45	68.65
1044.135	3158.2952	946.4	63.6
1044.24	3159.2584	945.65	63.55
1044.345	3160.221	944.2	62.85
1044.4499	3161.1829	945.35	65.15
1044.5548	3162.1442	942.95	63
1044.6596	3163.105	942.15	62.3
1044.7644	3164.065	945.85	63.25
1044.8692	3165.0245	947.65	64.1
1044.9739	3165.9834	941.3	62.3
1045.0785	3166.9416	941.75	61.5
1045.1831	3167.8993	945.25	62.9
1045.2877	3168.8563	940.95	59.3
1045.3922	3169.8127	942.9	62.8
1045.4966	3170.7684	942.1	60.45
1045.6011	3171.7236	942.75	60.8
1045.7054	3172.6782	937.45	55.7
1045.8098	3173.6321	939.9	57.45
1045.914	3174.5854	943.5	58.4
1046.0183	3175.5381	938.85	56.9
1046.1224	3176.4902	939.3	60.1
1046.2266	3177.4417	935.5	54.25
1046.3307	3178.3926	935.55	55.4
1046.4347	3179.3428	935.3	54.6
1046.5387	3180.2924	936	57.9
1046.6427	3181.2415	935.5	52.2
1046.7466	3182.1899	937.85	56.4
1046.8504	3183.1377	935.85	55.5
1046.9542	3184.0848	935.2	51.2
1047.058	3185.0314	934.7	52.55
1047.1617	3185.9773	934.65	52.6
1047.2654	3186.9227	932.4	50.7
1047.369	3187.8674	931.8	52.1
1047.4726	3188.8115	937.85	51.3
1047.5761	3189.755	934.7	54.75
1047.6796	3190.6979	933.35	53
1047.783	3191.6402	929.8	52.6
1047.8864	3192.5818	933.55	52.4
1047.9898	3193.5229	953.3	51.45
1048.0931	3194.4633	930.8	51.05
1048.1963	3195.4031	932.4	50.55
1048.2995	3196.3423	931.65	52.75
1048.4027	3197.2809	928.55	45.8
1048.5058	3198.2189	929.15	48
1048.6089	3199.1563	946.7	49.5
1048.7119	3200.0931	927.95	49.65
1048.8148	3201.0292	929.25	48.7
1048.9178	3201.9648	925.35	44.55
1049.0206	3202.8997	933.75	50.35
1049.1235	3203.834	927.1	45.6
1049.2262	3204.7677	930.1	48.05
1049.329	3205.7008	929.05	45.05
1049.4317	3206.6333	925.9	46.2
1049.5343	3207.5652	927.7	44.15
1049.6369	3208.4964	927.45	47.6
1049.7394	3209.4271	927.3	47
1049.8419	3210.3571	928.1	47.35
1049.9444	3211.2865	925.75	43.7
1050.0468	3212.2154	927.75	47.05
1050.1491	3213.1436	929.75	47
1050.2514	3214.0712	932.6	45.5
1050.3537	3214.9982	922.05	41.25
1050.4559	3215.9246	928.55	45.65
1050.5581	3216.8503	925.35	45.35
1050.6602	3217.7755	927.05	46.85
1050.7623	3218.7001	925	43.4
1050.8643	3219.624	924.25	44.8
1050.9663	3220.5473	924.25	42.75
1051.0682	3221.4701	923.7	40.05
1051.1701	3222.3922	924.5	43.75
1051.2719	3223.3137	924.05	43.2
1051.3737	3224.2346	924.65	43.75
1051.4754	3225.1549	924.3	42.95
1051.5771	3226.0746	922.75	41.3
1051.6788	3226.9937	920.15	38.3
1051.7804	3227.9121	924.05	45.6
1051.8819	3228.83	923.6	43.35
1051.9834	3229.7473	925.95	45.85
1052.0849	3230.6639	923.55	43.7
1052.1863	3231.5799	919.45	39.8
1052.2876	3232.4954	923.1	41.2
1052.3889	3233.4102	919.65	37.4
1052.4902	3234.3244	920.75	40.05
1052.5914	3235.238	919.3	38.35
1052.6926	3236.151	946.5	41.5
1052.7937	3237.0634	920.15	40.45
1052.8948	3237.9752	921.4	40.3
1052.9958	3238.8864	921.8	42.1
1053.0968	3239.797	920.75	40.05
1053.1977	3240.7069	918.85	37.95
1053.2986	3241.6163	919.65	38.6
1053.3994	3242.5251	919.75	37.75
1053.5002	3243.4332	920.35	41
1053.6009	3244.3408	917.35	36.3
1053.7016	3245.2477	916.85	37.25
1053.8022	3246.154	920.4	39.3
1053.9028	3247.0598	917.25	35.35
1054.0034	3247.9649	918.2	36.55
1054.1039	3248.8694	916.4	36.75
1054.2043	3249.7733	916.3	35.4
1054.3047	3250.6766	914.4	35.5
1054.4051	3251.5793	916.9	36.15
1054.5054	3252.4814	916.5	37.6
1054.6056	3253.3829	914.85	34.95
1054.7058	3254.2838	913.8	32.85
1054.806	3255.1841	912.8	33.95
1054.9061	3256.0838	913.8	32.95
1055.0061	3256.9829	912.6	33.85
1055.1062	3257.8814	915.85	31.65
1055.2061	3258.7792	915.05	32.4
1055.306	3259.6765	912.3	30
1055.4059	3260.5731	910.55	30.2
1055.5057	3261.4692	913.1	33.3
1055.6055	3262.3647	912.75	31.95
1055.7052	3263.2595	909.25	29
1055.8049	3264.1538	910.4	30.95
1055.9045	3265.0474	912.05	32.45
1056.0041	3265.9404	906	25.45
1056.1036	3266.8329	906.65	28.65
1056.2031	3267.7247	918.05	26.8
1056.3025	3268.616	906.1	28.5
1056.4019	3269.5066	906.5	25.6
1056.5013	3270.3966	907.35	26.7
1056.6005	3271.286	904.65	24.9
