Software Version:	3.9.2.0
Unit SN:	10000200
Spectrometer SN:	6960
Date:	3/14/2024 2:10:10 PM
Data Line Index:	25
Spectral Points:	2048
Integration time (ms):	125
Averages:	20
Delay (ms):	30000
Sequence Number:	1
Processing:	dark subtract
Laser Power (mW):	300
Laser Current (mA):	824
Laser Diode Temp (C):	25.1
Laser Case Temp (C):	29
System Temp (C):	29.1
Spectrometer Temp (C):	26.9
CCD Temp (C):	0.009
Secondary Temp (C):	20.004
Heatsink Temp (C):	24.897
CCDPCB Temp (C):	38.063
SecondaryPCB Temp (C):	35.84

Wavelength	RamanShift	Raw Counts	Dark Subtracted
787.061	30.1047	451.85	42.9
787.2016	32.3739	450.3	43.3
787.3422	34.6426	453.9	43.15
787.4828	36.9109	459.1	47
787.6235	39.1787	468	50.85
787.7642	41.4461	476.5	56.6
787.9049	43.7131	487.35	63.6
788.0456	45.9796	493.3	65
788.1863	48.2456	501.4	69.1
788.3271	50.5112	509.45	74.05
788.4679	52.7764	518.55	79.85
788.6087	55.0411	529.35	85.05
788.7496	57.3054	538.7	90
788.8904	59.5692	550.9	102.75
789.0313	61.8326	558.8	106.95
789.1722	64.0955	570.9	114.4
789.3132	66.3579	586.35	123.05
789.4541	68.6199	600.85	135.1
789.5951	70.8815	630.3	164.55
789.7361	73.1426	697.3	226.85
789.8771	75.4032	859.65	383.2
790.0181	77.6634	1262.65	782.15
790.1592	79.9231	2232	1746.3
790.3003	82.1824	4323.8	3826.3
790.4414	84.4412	8179.25	7662.85
790.5825	86.6995	13647.75	13111.05
790.7237	88.9574	19188.55	18631.9
790.8648	91.2148	23209.45	22640.45
791.006	93.4717	25201.5	24622.35
791.1472	95.7282	25760.95	25176.3
791.2885	97.9842	25761.1	25172.4
791.4297	100.2398	25408.1	24815.95
791.571	102.4949	24885.25	24290.9
791.7123	104.7495	24230.9	23634.05
791.8536	107.0036	23514.75	22915.35
791.9949	109.2573	22801.15	22201.95
792.1363	111.5105	22102.45	21498.9
792.2777	113.7632	21357.85	20757.45
792.4191	116.0154	20764.25	20150.3
792.5605	118.2672	20312.5	19706.95
792.7019	120.5185	19813.95	19203.6
792.8434	122.7693	19400.45	18789.05
792.9849	125.0197	19116.35	18504.45
793.1264	127.2696	18864.75	18252.15
793.2679	129.519	18755.55	18137
793.4094	131.7679	18585.35	17969.1
793.551	134.0163	18450.5	17824
793.6926	136.2642	18312.05	17681.7
793.8342	138.5117	18198.1	17559.7
793.9758	140.7587	18054.6	17422.95
794.1175	143.0052	17876.55	17240.8
794.2591	145.2512	17689.65	17053.55
794.4008	147.4967	17513.8	16877
794.5425	149.7417	17412.8	16777.6
794.6842	151.9863	17310.85	16670.4
794.826	154.2304	17240.75	16596.9
794.9677	156.4739	17096.85	16447.1
795.1095	158.717	17030.4	16381.2
795.2513	160.9596	16910.45	16257.1
795.3931	163.2017	16670.3	16014.35
795.535	165.4433	16398.4	15742.05
795.6768	167.6844	16070.35	15412.9
795.8187	169.925	15772.9	15110.55
795.9606	172.1651	15404.3	14739.05
796.1025	174.4047	15138.75	14468.8
796.2445	176.6439	14855	14187.25
796.3864	178.8825	14630.4	13955.15
796.5284	181.1206	14476.05	13797.6
796.6704	183.3582	14317.5	13638.2
796.8124	185.5954	14171.2	13488.2
796.9544	187.832	14063.75	13379.85
797.0965	190.0681	14035.65	13350.65
797.2386	192.3037	14023.35	13333.2
797.3806	194.5388	13994.6	13303.15
797.5228	196.7734	14024.7	13329.4
797.6649	199.0075	14056.15	13358.6
797.807	201.2411	14138.45	13435.8
797.9492	203.4742	14205.4	13505.2
798.0914	205.7068	14290	13588.15
798.2336	207.9389	14386.6	13681.6
798.3758	210.1704	14536.75	13828.85
798.518	212.4015	14629.15	13917.5
798.6603	214.632	14790.7	14081.25
798.8025	216.862	14936.7	14237.35
798.9448	219.0915	15093.35	14397.25
799.0871	221.3205	15305.4	14612.55
799.2294	223.549	15534.7	14847
799.3718	225.777	15876.4	15188.65
799.5141	228.0044	16302.3	15612.6
799.6565	230.2314	16819.95	16134.15
799.7989	232.4578	17294.35	16604.15
799.9413	234.6837	17636.75	16938.15
800.0837	236.909	17877	17176.85
800.2262	239.1339	17829.3	17109.9
800.3687	241.3582	17529.55	16821
800.5111	243.582	17131.15	16396.65
800.6536	245.8053	16742.55	16017.6
800.7961	248.0281	16353.15	15630.75
800.9387	250.2503	16067	15339.65
801.0812	252.472	15847.25	15113.9
801.2238	254.6932	15719.2	14987.45
801.3664	256.9139	15568.15	14833.95
801.509	259.134	15472.2	14733.6
801.6516	261.3536	15385.6	14652.3
801.7942	263.5727	15318.65	14578.8
801.9369	265.7912	15188	14450.9
802.0795	268.0092	15137.8	14401.1
802.2222	270.2267	15024.55	14286.1
802.3649	272.4436	14944.4	14204.8
802.5076	274.6601	14898.35	14151.1
802.6504	276.8759	14874.9	14131.1
802.7931	279.0913	14846.45	14103.4
802.9359	281.3061	14877.75	14130.6
803.0787	283.5204	14956.75	14207.75
803.2215	285.7341	15069.65	14321.7
803.3643	287.9473	15248.45	14485.75
803.5071	290.16	15521.2	14765.3
803.6499	292.3721	15841.4	15090.25
803.7928	294.5837	16252.2	15499.15
803.9357	296.7947	16609.1	15857.1
804.0786	299.0052	16782.9	16027.1
804.2215	301.2152	16618.5	15862.4
804.3644	303.4246	16201.4	15448.75
804.5074	305.6334	15681.3	14931.25
804.6503	307.8418	15131.55	14377.15
804.7933	310.0495	14758.7	14001.1
804.9363	312.2568	14482.4	13729.25
805.0793	314.4635	14310.25	13552.05
805.2223	316.6696	14245.45	13485.05
805.3653	318.8752	14227.5	13460.2
805.5084	321.0802	14325.3	13566
805.6514	323.2847	14412.4	13655.85
805.7945	325.4887	14469.5	13709.1
805.9376	327.692	14411.4	13646.6
806.0807	329.8949	14259.15	13494.2
806.2238	332.0972	14004.35	13240.35
806.367	334.2989	13725.95	12957
806.5101	336.5001	13465.3	12695.15
806.6533	338.7007	13270	12500.65
806.7965	340.9008	13139.95	12372.2
806.9397	343.1003	13036.85	12264.45
807.0829	345.2992	12992.05	12214
807.2261	347.4976	12949.35	12172.2
807.3693	349.6955	12963.15	12185.05
807.5126	351.8927	13011.6	12230.55
807.6559	354.0895	13011.2	12219.75
807.7991	356.2856	13079	12297.85
807.9424	358.4812	13031.7	12249.35
808.0857	360.6763	13054.95	12272.2
808.2291	362.8707	12998.25	12216.45
808.3724	365.0646	13003.5	12213.15
808.5158	367.258	12995.05	12209.95
808.6591	369.4508	12986.8	12196.9
808.8025	371.643	13028.4	12239.9
808.9459	373.8346	13001.5	12207.65
809.0893	376.0257	12939.85	12148.15
809.2327	378.2162	12879.95	12085.3
809.3762	380.4062	12755.45	11955.4
809.5196	382.5956	12605.1	11806.15
809.6631	384.7844	12500.8	11703.35
809.8066	386.9726	12402.5	11601.65
809.9501	389.1603	12323.3	11525.9
810.0936	391.3474	12313.85	11477
810.2371	393.5339	12287.55	11491.65
810.3806	395.7199	12212.5	11418.55
810.5241	397.9052	12223.55	11433.5
810.6677	400.09	12208.1	11418.9
810.8113	402.2743	12246.55	11459
810.9548	404.4579	12286.8	11498.4
811.0984	406.641	12412.25	11619.6
811.2421	408.8235	12634.55	11843.5
811.3857	411.0054	12952.25	12159.8
811.5293	413.1868	13420.2	12624
811.673	415.3675	13777.2	12980.7
811.8166	417.5477	13941.85	13142.85
811.9603	419.7273	13987.05	13188.65
812.104	421.9064	13853.55	13044.7
812.2477	424.0848	13718.1	12913.25
812.3914	426.2627	13510.5	12705.15
812.5351	428.4399	13248.25	12442.6
812.6788	430.6166	12908.2	12098.15
812.8226	432.7928	12513.55	11706.65
812.9663	434.9683	12241.65	11433.75
813.1101	437.1432	12002.95	11188.95
813.2539	439.3176	11825.9	11014.2
813.3977	441.4914	11783.75	10966.85
813.5415	443.6645	11714.8	10900.35
813.6853	445.8371	11675.45	10861.7
813.8291	448.0091	11596.1	10784.75
813.973	450.1806	11534.7	10719.55
814.1168	452.3514	11483.8	10668.5
814.2607	454.5216	11469.5	10647.7
814.4046	456.6913	11406.35	10588.15
814.5485	458.8603	11413.25	10600
814.6924	461.0288	11439.9	10624.1
814.8363	463.1967	11476.75	10659.05
814.9802	465.3639	11608.45	10789.8
815.1241	467.5306	11716.7	10894
815.2681	469.6967	11855.8	11035.65
815.412	471.8622	12041.65	11225.65
815.556	474.0271	12195.4	11376
815.7	476.1914	12241.25	11419.85
815.844	478.3551	12198.2	11378.7
815.988	480.5182	12179.2	11356
816.132	482.6807	12112.7	11292.15
816.276	484.8426	12160.85	11337.05
816.4201	487.0039	12359.8	11536.95
816.5641	489.1647	12740.15	11918.55
816.7082	491.3248	13119.6	12297.4
816.8522	493.4843	13297.9	12476.85
816.9963	495.6432	13315.1	12490.75
817.1404	497.8015	13252.15	12423.35
817.2845	499.9592	13264.25	12441.55
817.4286	502.1163	13210.85	12385.1
817.5727	504.2728	13014.75	12185.3
817.7168	506.4287	12752.15	11926.2
817.861	508.5839	12364.85	11537.45
818.0051	510.7386	11998	11169.45
818.1493	512.8927	11796.4	10957.7
818.2935	515.0461	11635.7	10807.05
818.4377	517.199	11530.9	10699.95
818.5818	519.3512	11458.2	10629.05
818.726	521.5029	11449.5	10613.7
818.8703	523.6539	11420.95	10590.9
819.0145	525.8043	11447.85	10615.75
819.1587	527.9541	11487.75	10655.05
819.303	530.1033	11515.05	10682.35
819.4472	532.2519	11559.35	10728.25
819.5915	534.3999	11760.35	10924.4
819.7357	536.5472	12052.1	11218.9
819.88	538.694	12548.3	11712.15
820.0243	540.8401	13119.8	12283.75
820.1686	542.9856	13654.55	12818.85
820.3129	545.1305	13834.6	12996.4
820.4572	547.2748	13623.95	12787.1
820.6016	549.4185	13222.65	12384.75
820.7459	551.5615	12862.7	12024
820.8902	553.704	12650.45	11812.95
821.0346	555.8458	12562.85	11725.05
821.1789	557.987	12455.1	11617.25
821.3233	560.1276	12383.3	11546.1
821.4677	562.2675	12264.5	11429
821.6121	564.4069	12146.35	11309.45
821.7565	566.5456	11996.7	11160.55
821.9009	568.6837	11834.5	10994.9
822.0453	570.8212	11646.65	10809.9
822.1897	572.958	11430	10592.6
822.3342	575.0942	11267.75	10431.05
822.4786	577.2299	11189.15	10351.85
822.6231	579.3648	11186.35	10347.55
822.7675	581.4992	11294.9	10456.3
822.912	583.6329	11533.1	10691.7
823.0565	585.766	11724.15	10882.7
823.201	587.8985	11829.55	10989.7
823.3454	590.0304	11856.2	11004.3
823.4899	592.1616	11773.7	10929.65
823.6345	594.2922	11657.3	10814.5
823.779	596.4222	11537.35	10693.55
823.9235	598.5515	11378.75	10537.4
824.068	600.6802	11225.5	10386.3
824.2126	602.8083	11035.95	10192.2
824.3571	604.9358	10965.7	10120.65
824.5017	607.0626	10868.25	10026.2
824.6462	609.1888	10776.8	9930
824.7908	611.3144	10675.8	9830.85
824.9354	613.4393	10522.65	9677.15
825.08	615.5636	10341.65	9498.35
825.2246	617.6873	10225.9	9382.7
825.3692	619.8103	10180.55	9334.8
825.5138	621.9327	10114.05	9264.55
825.6584	624.0544	10118.65	9272.6
825.803	626.1756	10118.25	9272.5
825.9477	628.2961	10085.8	9239.05
826.0923	630.4159	10020.3	9173.15
826.237	632.5351	9975.7	9130.15
826.3816	634.6537	9912.7	9065.25
826.5263	636.7716	9886.7	9035.7
826.6709	638.8889	9860.9	9011.4
826.8156	641.0056	9861.6	9015.05
826.9603	643.1216	9836.65	8988.5
827.105	645.237	9886.25	9036.1
827.2497	647.3518	9907.1	9057.4
827.3944	649.4659	9889.15	9043.5
827.5391	651.5793	9905.8	9055.9
827.6838	653.6922	9877.05	9026.75
827.8285	655.8043	9860.6	9009.95
827.9733	657.9159	9833.05	8978.7
828.118	660.0268	9752.05	8899.8
828.2627	662.137	9680.8	8829
828.4075	664.2466	9615.1	8763.6
828.5522	666.3556	9599.85	8747.7
828.697	668.4639	9583.65	8728.35
828.8418	670.5716	9629.95	8778.2
828.9865	672.6786	9713.6	8858.25
829.1313	674.785	9777.65	8922.85
829.2761	676.8907	9846.9	8993.3
829.4209	678.9958	9929.9	9076.25
829.5657	681.1002	9887.15	9034.35
829.7105	683.204	9839.15	8980.4
829.8553	685.3072	9779.3	8924.45
830.0001	687.4097	9686.05	8831.25
830.1449	689.5115	9628.5	8770.75
830.2898	691.6127	9578.95	8724.9
830.4346	693.7132	9493.5	8637.15
830.5794	695.8131	9426.4	8549.55
830.7243	697.9123	9379.8	8521.8
830.8691	700.0109	9312.45	8456.7
831.014	702.1089	9285	8428.4
831.1588	704.2061	9278.95	8420.8
831.3037	706.3028	9303.2	8444.1
831.4486	708.3987	9336.8	8479.35
831.5935	710.4941	9435.85	8579.55
831.7383	712.5887	9588.5	8732.5
831.8832	714.6827	9888.75	9029.15
832.0281	716.7761	10254.6	9397.35
832.173	718.8688	10595.4	9735.4
832.3179	720.9608	10786.05	9923.5
832.4628	723.0522	10776.65	9913.45
832.6077	725.1429	10511.45	9649.05
832.7527	727.233	10130.25	9269.85
832.8976	729.3224	9798.95	8940.3
833.0425	731.4112	9489.3	8627.3
833.1874	733.4993	9303.75	8439.2
833.3324	735.5867	9167.05	8303.75
833.4773	737.6735	9114.2	8250.2
833.6222	739.7596	9055.35	8192.15
833.7672	741.845	9026.7	8163.4
833.9122	743.9298	9003.4	8140.2
834.0571	746.014	9018.1	8158.5
834.2021	748.0974	9032.55	8168.05
834.347	750.1802	9033.35	8173.5
834.492	752.2624	9008	8147.4
834.637	754.3439	9050.4	8187.4
834.782	756.4247	9068.85	8194.6
834.9269	758.5048	9134.75	8274.65
835.0719	760.5843	9284.2	8422.9
835.2169	762.6631	9532.05	8668.3
835.3619	764.7413	9886.25	9024.55
835.5069	766.8188	10369.1	9505.2
835.6519	768.8956	10803.8	9940
835.7969	770.9718	11092.3	10228.95
835.9419	773.0473	10952.75	10088
836.0869	775.1221	10663.8	9800.05
836.232	777.1962	10299.25	9436.1
836.377	779.2697	10103.15	9239.25
836.522	781.3426	10190.35	9316.35
836.667	783.4147	10450.9	9587.4
836.8121	785.4862	10757.45	9894.95
836.9571	787.557	10777.15	9914.2
837.1021	789.6271	10451.6	9588.55
837.2472	791.6966	9916.35	9052.55
837.3922	793.7654	9440.1	8575.65
837.5373	795.8335	9148.25	8283.35
837.6823	797.901	8995.85	8133.25
837.8274	799.9678	8931.85	8063.5
837.9724	802.0339	8940.45	8077.85
838.1175	804.0993	8991.75	8118.2
838.2626	806.1641	8977.85	8110.15
838.4076	808.2282	8928.4	8061.9
838.5527	810.2916	8830.95	7962.1
838.6978	812.3544	8735.9	7871.15
838.8428	814.4164	8656.85	7791.85
838.9879	816.4778	8635.35	7764.75
839.133	818.5385	8604.45	7738.15
839.2781	820.5986	8605.55	7740.15
839.4232	822.658	8676.15	7810.85
839.5682	824.7166	8678.5	7813.25
839.7133	826.7747	8786.4	7919.65
839.8584	828.832	8887.4	8020.75
840.0035	830.8886	8978.5	8112
840.1486	832.9446	9088.8	8219.95
840.2937	834.9999	9177.95	8311.95
840.4388	837.0545	9252.7	8383.45
840.5839	839.1085	9280.95	8414.75
840.729	841.1618	9284.65	8414.2
840.8741	843.2143	9295.8	8429.7
841.0192	845.2662	9257.8	8389.75
841.1643	847.3175	9189.4	8321.85
841.3095	849.368	9087.25	8219.6
841.4546	851.4179	8961.9	8093.85
841.5997	853.467	8831	7964.25
841.7448	855.5155	8708.3	7841.2
841.8899	857.5633	8592.85	7726.85
842.0351	859.6105	8503	7637.5
842.1802	861.6569	8419	7550.8
842.3253	863.7027	8331.75	7461.85
842.4704	865.7478	8319.95	7450.9
842.6156	867.7922	8314.15	7443.75
842.7607	869.8359	8392	7520.75
842.9058	871.8789	8497.95	7629.65
843.0509	873.9212	8671.95	7766.4
843.1961	875.9629	8805.7	7936.55
843.3412	878.0039	8987.8	8118.95
843.4863	880.0441	9056.5	8186.25
843.6315	882.0837	9022.7	8151.45
843.7766	884.1226	8897.65	8028.25
843.9218	886.1609	8747.05	7878.2
844.0669	888.1984	8615.15	7748.05
844.212	890.2352	8554.35	7686.2
844.3572	892.2714	8484.35	7611.25
844.5023	894.3069	8448.8	7576.45
844.6475	896.3416	8399	7529.4
844.7926	898.3757	8375.1	7504.4
844.9377	900.4091	8353.85	7481.9
845.0829	902.4418	8372	7495
845.228	904.4739	8360.55	7488.8
845.3732	906.5052	8362.55	7490.95
845.5183	908.5358	8244.9	7374.2
845.6635	910.5658	8115.55	7243.15
845.8086	912.595	7956.1	7085.75
845.9538	914.6236	7844.25	6973.5
846.0989	916.6515	7804.3	6932.25
846.2441	918.6786	7811.55	6938.35
846.3892	920.7051	7876.1	7004.85
846.5344	922.7309	7989.25	7117
846.6795	924.756	8037	7167.4
846.8246	926.7804	8116.75	7242.65
846.9698	928.8041	8072.05	7196.7
847.1149	930.8272	8065.6	7193.85
847.2601	932.8495	8020.6	7147.9
847.4052	934.8711	7925.4	7050.35
847.5504	936.892	7786.95	6914.65
847.6955	938.9123	7646.05	6770.7
847.8407	940.9318	7489.25	6617.35
847.9858	942.9506	7391	6517.55
848.131	944.9688	7301.25	6429.45
848.2761	946.9862	7291.15	6418.25
848.4213	949.003	7220.45	6348.15
848.5664	951.019	7226.9	6351.5
848.7115	953.0344	7254.55	6381.6
848.8567	955.0491	7288.3	6414.2
849.0018	957.063	7340.8	6468.9
849.147	959.0763	7418.6	6546.9
849.2921	961.0888	7465.35	6588.4
849.4373	963.1007	7518.45	6644.45
849.5824	965.1119	7550.9	6678.2
849.7275	967.1223	7599.55	6727.95
849.8727	969.1321	7598.05	6724.55
850.0178	971.1412	7629.35	6754.55
850.1629	973.1495	7643.65	6769.6
850.3081	975.1572	7703.7	6796.7
850.4532	977.1641	7700.6	6828
850.5983	979.1704	7697.15	6822.25
850.7435	981.1759	7693.2	6813.75
850.8886	983.1808	7735.25	6859.9
851.0337	985.1849	7846.05	6960.9
851.1788	987.1884	7981.95	7104.6
851.324	989.1911	8143.15	7264.75
851.4691	991.1932	8271.9	7396
851.6142	993.1945	8330.3	7455.2
851.7593	995.1951	8295.45	7422.4
851.9045	997.1951	8255.55	7373.85
852.0496	999.1943	8189.65	7317.25
852.1947	1001.1928	8123.7	7248.75
852.3398	1003.1906	8118.15	7243.35
852.4849	1005.1877	8144.25	7266.85
852.63	1007.1841	8103.7	7230.9
852.7751	1009.1798	7987.4	7111.9
852.9202	1011.1748	7813.5	6938.75
853.0653	1013.1691	7651.3	6775.95
853.2104	1015.1627	7458.6	6582.1
853.3555	1017.1556	7269.85	6395.35
853.5006	1019.1477	7187.35	6310.25
853.6457	1021.1392	7144.1	6272.1
853.7908	1023.1299	7132.6	6258
853.9359	1025.12	7169.2	6290.45
854.081	1027.1093	7209.4	6334.5
854.2261	1029.0979	7290.65	6416.15
854.3712	1031.0859	7341.45	6468.55
854.5163	1033.0731	7310.95	6435.85
854.6613	1035.0596	7254.9	6382.4
854.8064	1037.0454	7122.05	6244.55
854.9515	1039.0304	6998.55	6123.65
855.0965	1041.0148	6890	6014.75
855.2416	1042.9985	6815.8	5941.75
855.3867	1044.9814	6787	5910.5
855.5317	1046.9636	6744.7	5867.4
855.6768	1048.9452	6705.75	5832
855.8219	1050.926	6741	5867.25
855.9669	1052.9061	6705.15	5832.35
856.112	1054.8855	6690.9	5814.9
856.257	1056.8642	6729.25	5852.75
856.4021	1058.8421	6763.6	5883.7
856.5471	1060.8194	6778.2	5904.05
856.6921	1062.7959	6797.15	5921.9
856.8372	1064.7717	6799.15	5921.25
856.9822	1066.7469	6813	5934.55
857.1272	1068.7213	6767.35	5886.45
857.2723	1070.695	6711.15	5836.85
857.4173	1072.6679	6654.2	5775.4
857.5623	1074.6402	6612.2	5737.95
857.7073	1076.6117	6606.9	5726.2
857.8523	1078.5826	6640.05	5762.9
857.9973	1080.5527	6697.1	5819
858.1423	1082.5221	6821.5	5943.35
858.2873	1084.4908	7013.15	6135.85
858.4323	1086.4587	7218.75	6341.05
858.5773	1088.426	7352.65	6474.7
858.7223	1090.3925	7337.3	6456.25
858.8673	1092.3584	7288.65	6411.8
859.0123	1094.3235	7131.9	6256.35
859.1573	1096.2879	7022.5	6144.4
859.3022	1098.2515	6980.45	6103.9
859.4472	1100.2145	6998.7	6122.5
859.5922	1102.1767	7051.4	6170.45
859.7371	1104.1382	7172.95	6298.35
859.8821	1106.099	7341.65	6462.4
860.027	1108.0591	7505.15	6627.9
860.172	1110.0185	7673.4	6796.45
860.3169	1111.9771	7654.8	6778
860.4619	1113.9351	7438.9	6560.3
860.6068	1115.8923	7152.95	6274.75
860.7517	1117.8488	6840.85	5961.2
860.8967	1119.8045	6568.2	5692.9
861.0416	1121.7596	6447.55	5569.25
861.1865	1123.7139	6402.5	5526.55
861.3314	1125.6675	6391.3	5513.6
861.4763	1127.6204	6449.75	5571.6
861.6212	1129.5726	6487.4	5608.65
861.7661	1131.524	6512.9	5635.7
861.911	1133.4748	6554.45	5677.1
862.0559	1135.4248	6587	5708.55
862.2008	1137.3741	6585.5	5709.5
862.3457	1139.3226	6579.65	5701.95
862.4905	1141.2705	6525.8	5646.95
862.6354	1143.2176	6479.35	5594.85
862.7803	1145.164	6506.35	5628.75
862.9251	1147.1097	6529.45	5650.3
863.07	1149.0546	6505.4	5626.75
863.2148	1150.9989	6437.7	5556.35
863.3597	1152.9424	6279.25	5400.7
863.5045	1154.8852	6071.3	5193.1
863.6493	1156.8272	5954.8	5078.4
863.7942	1158.7686	5885.3	4999
863.939	1160.7092	5853.15	4973.9
864.0838	1162.6491	5849.85	4970.3
864.2286	1164.5883	5885.05	5008.5
864.3734	1166.5267	5963.65	5083.55
864.5182	1168.4644	6092.8	5212.9
864.663	1170.4014	6256.5	5376.2
864.8078	1172.3377	6454.6	5576.1
864.9526	1174.2732	6629.05	5753.6
865.0974	1176.2081	6800.2	5919.8
865.2421	1178.1421	6921.8	6040.5
865.3869	1180.0755	7048.35	6169.25
865.5317	1182.0082	7052.05	6174.2
865.6764	1183.9401	6997.6	6118.15
865.8212	1185.8713	6798.15	5919.6
865.9659	1187.8017	6565.7	5688.4
866.1106	1189.7315	6352.55	5476.2
866.2554	1191.6605	6141.9	5236.45
866.4001	1193.5888	5992.15	5115.8
866.5448	1195.5163	5887.25	5009.15
866.6895	1197.4432	5777.2	4896.9
866.8342	1199.3693	5702.9	4823.55
866.9789	1201.2947	5674.1	4793.85
867.1236	1203.2193	5670.65	4792.1
867.2683	1205.1432	5691.35	4810.45
867.413	1207.0664	5731.95	4854.05
867.5576	1208.9889	5809.7	4928.95
867.7023	1210.9106	5867.65	4989.15
867.847	1212.8316	5955.2	5076.2
867.9916	1214.7519	6032.9	5145.65
868.1363	1216.6715	6042.1	5166.45
868.2809	1218.5903	6021.55	5141.6
868.4255	1220.5084	5969.5	5091.05
868.5701	1222.4257	5938.1	5057.9
868.7148	1224.3424	5910.75	5032
868.8594	1226.2583	5940.85	5056.3
869.004	1228.1735	6049.65	5170.75
869.1486	1230.0879	6166.75	5286.6
869.2932	1232.0016	6267.95	5390.35
869.4377	1233.9146	6294.95	5413.95
869.5823	1235.8269	6228.6	5349.65
869.7269	1237.7384	6110.15	5230.95
869.8715	1239.6492	5963.45	5085.05
870.016	1241.5592	5851.8	4971.4
870.1606	1243.4686	5762.85	4883.35
870.3051	1245.3772	5703.3	4823.8
870.4496	1247.285	5646.15	4767.1
870.5941	1249.1922	5610.95	4731.1
870.7387	1251.0986	5608.2	4731
870.8832	1253.0042	5624.55	4745.4
871.0277	1254.9092	5672.55	4792.5
871.1722	1256.8134	5765.55	4887.95
871.3167	1258.7169	5893.8	5013.4
871.4611	1260.6196	6027.1	5149.65
871.6056	1262.5216	6176.45	5296.6
871.7501	1264.4229	6310.75	5431.35
871.8945	1266.3234	6392.55	5511.7
872.039	1268.2232	6419.95	5540.4
872.1834	1270.1223	6420.1	5539.15
872.3278	1272.0207	6347.3	5466.35
872.4723	1273.9183	6343.4	5458.7
872.6167	1275.8151	6285.65	5406.65
872.7611	1277.7113	6169.45	5288.35
872.9055	1279.6067	6036.25	5158.25
873.0499	1281.5014	5909.8	5027.7
873.1943	1283.3953	5781.25	4899.5
873.3386	1285.2885	5681.65	4803.8
873.483	1287.181	5638.9	4756.8
873.6274	1289.0727	5647.1	4768.6
873.7717	1290.9637	5680.2	4796.5
873.9161	1292.854	5744.1	4863.75
874.0604	1294.7435	5903.65	5023.75
874.2047	1296.6323	6107.85	5226.45
874.349	1298.5204	6335.7	5452.1
874.4933	1300.4077	6566.2	5685.85
874.6376	1302.2943	6708.45	5829.9
874.7819	1304.1802	6798.5	5919
874.9262	1306.0653	6740.75	5860.3
875.0705	1307.9497	6640.6	5760.75
875.2147	1309.8333	6590.9	5711.7
875.359	1311.7162	6570.7	5689.7
875.5032	1313.5984	6656.35	5772.9
875.6475	1315.4798	6829.95	5939.75
875.7917	1317.3605	6975.9	6079.85
875.9359	1319.2405	7085.05	6203.6
876.0801	1321.1197	7104.4	6222.7
876.2243	1322.9982	7098.1	6211.8
876.3685	1324.876	7081.55	6199.1
876.5127	1326.753	7061.25	6180.85
876.6569	1328.6293	7078.45	6196.85
876.801	1330.5048	7104.45	6221.5
876.9452	1332.3796	7074.7	6196.3
877.0893	1334.2537	7039.5	6130.95
877.2335	1336.127	6971.85	6091.2
877.3776	1337.9996	6954.95	6075.8
877.5217	1339.8714	6896.55	6015.6
877.6658	1341.7426	6885.5	5960.3
877.8099	1343.6129	6795.35	5917.05
877.954	1345.4826	6711.2	5829.1
878.0981	1347.3515	6687.05	5804.9
878.2422	1349.2196	6647.65	5766.1
878.3862	1351.087	6631.45	5750.15
878.5303	1352.9537	6666.2	5784.35
878.6743	1354.8197	6775.4	5895.25
878.8184	1356.6849	6917.95	6037.75
878.9624	1358.5493	6992.65	6112.05
879.1064	1360.4131	6982.95	6102.35
879.2504	1362.276	6903.1	6022.6
879.3944	1364.1383	6766.5	5887.3
879.5384	1365.9998	6568.65	5681.1
879.6823	1367.8606	6316.4	5434.25
879.8263	1369.7206	6107.15	5224.75
879.9702	1371.5799	5986.75	5102
880.1142	1373.4384	5892.2	5012
880.2581	1375.2962	5797.35	4914.6
880.402	1377.1533	5592.7	4711.45
880.5459	1379.0096	5359.75	4479.15
880.6898	1380.8652	5110.1	4228.4
880.8337	1382.7201	4914	4033.05
880.9776	1384.5742	4764.05	3881.25
881.1215	1386.4275	4656.85	3775.6
881.2653	1388.2802	4562.95	3684.3
881.4092	1390.132	4468.25	3588.35
881.553	1391.9832	4415.5	3533.65
881.6968	1393.8336	4364.8	3484.4
881.8406	1395.6832	4354.6	3471.45
881.9844	1397.5322	4322.75	3442.2
882.1282	1399.3803	4330.05	3444.1
882.272	1401.2278	4289.7	3408.4
882.4158	1403.0745	4311.15	3430.65
882.5595	1404.9204	4298	3416.95
882.7033	1406.7656	4301.2	3417.75
882.847	1408.6101	4317.3	3435.45
882.9908	1410.4538	4344.75	3463.4
883.1345	1412.2968	4385.6	3503.75
883.2782	1414.139	4427	3547.65
883.4219	1415.9805	4495.55	3615.45
883.5656	1417.8213	4570.9	3685.4
883.7092	1419.6613	4712.15	3831.7
883.8529	1421.5006	4885.8	4003.3
883.9965	1423.3391	5128.25	4246.05
884.1402	1425.1769	5446.25	4561.8
884.2838	1427.0139	5894.5	5013.1
884.4274	1428.8502	6464.65	5583.3
884.571	1430.6858	6978.85	6098.3
884.7146	1432.5206	7403.85	6521.6
884.8582	1434.3547	7581	6698.6
885.0018	1436.188	7619.4	6737.65
885.1453	1438.0206	7563.5	6680.7
885.2889	1439.8524	7457.45	6575.85
885.4324	1441.6835	7368.95	6487.75
885.5759	1443.5139	7299.95	6415.65
885.7194	1445.3435	7216.2	6336.05
885.8629	1447.1724	7180.55	6298.85
886.0064	1449.0005	7105.6	6224.05
886.1499	1450.8279	7029.8	6147.85
886.2933	1452.6545	6985.75	6103.8
886.4368	1454.4804	7010.35	6130.05
886.5802	1456.3056	7024.4	6133.2
886.7237	1458.13	6935.7	6055.45
886.8671	1459.9536	6728.7	5845.6
887.0105	1461.7766	6414.25	5532.65
887.1539	1463.5987	6024.1	5141.6
887.2972	1465.4202	5679.1	4798.4
887.4406	1467.2409	5393.35	4510.1
887.584	1469.0608	5134.6	4253.15
887.7273	1470.88	4907.9	4024.8
887.8706	1472.6984	4718.45	3836.6
888.0139	1474.5161	4549.5	3665.95
888.1572	1476.3331	4413.4	3533.8
888.3005	1478.1493	4323.2	3439.35
888.4438	1479.9648	4234.8	3353.75
888.5871	1481.7795	4142.4	3261.3
888.7303	1483.5935	4084.75	3203.9
888.8736	1485.4067	4029.25	3146.05
889.0168	1487.2192	3992.9	3111.3
889.16	1489.031	3946.45	3063.7
889.3032	1490.842	3926.8	3046
889.4464	1492.6522	3894.45	3012.7
889.5896	1494.4618	3870.6	2989
889.7327	1496.2705	3846	2965.2
889.8759	1498.0785	3834.8	2952.6
890.019	1499.8858	3809.95	2929.6
890.1622	1501.6924	3795.5	2915
890.3053	1503.4981	3790.4	2909.4
890.4484	1505.3032	3766.65	2884.8
890.5914	1507.1075	3756.45	2875.3
890.7345	1508.911	3742.85	2862.6
890.8776	1510.7138	3714.35	2832.25
891.0206	1512.5159	3691.3	2809.3
891.1637	1514.3172	3650.55	2772.4
891.3067	1516.1178	3629.15	2747.7
891.4497	1517.9176	3611.3	2725.65
891.5927	1519.7166	3593.85	2713.3
891.7357	1521.515	3578.35	2689.6
891.8786	1523.3126	3564.5	2683.65
892.0216	1525.1094	3546.1	2661.05
892.1645	1526.9055	3526.2	2646.3
892.3074	1528.7008	3518.8	2636.6
892.4503	1530.4954	3494.5	2606.45
892.5932	1532.2893	3478.95	2600.1
892.7361	1534.0824	3489.6	2602.15
892.879	1535.8747	3477.85	2596
893.0218	1537.6663	3469.5	2588
893.1647	1539.4572	3454.6	2572.5
893.3075	1541.2473	3460.45	2576.15
893.4503	1543.0367	3463.95	2583.45
893.5931	1544.8253	3454.3	2566.9
893.7359	1546.6132	3445.95	2562.15
893.8787	1548.4003	3464.35	2572.3
894.0214	1550.1867	3469.15	2580.1
894.1642	1551.9723	3485.75	2601.05
894.3069	1553.7572	3497.1	2614.55
894.4496	1555.5414	3512.2	2630.25
894.5923	1557.3247	3544.55	2661.05
894.735	1559.1074	3570.9	2690.8
894.8777	1560.8893	3619.35	2737.4
895.0204	1562.6705	3675.65	2794.5
895.163	1564.4509	3749.15	2868.7
895.3056	1566.2305	3816.35	2934.5
895.4482	1568.0094	3906.85	3026.6
895.5908	1569.7876	3978.4	3096.65
895.7334	1571.565	4033.85	3152.3
895.876	1573.3417	4069.25	3191.4
896.0186	1575.1176	4084.4	3203.35
896.1611	1576.8928	4066.85	3184.05
896.3036	1578.6672	3987	3106.8
896.4461	1580.4409	3893.05	3012.3
896.5886	1582.2138	3792.7	2908.8
896.7311	1583.986	3668.6	2787.6
896.8736	1585.7575	3588.45	2708
897.0161	1587.5282	3517.35	2636.9
897.1585	1589.2981	3488.35	2607.75
897.3009	1591.0673	3445.35	2563.6
897.4433	1592.8358	3429.9	2547.65
897.5857	1594.6035	3429.05	2545.95
897.7281	1596.3704	3420.65	2539.75
897.8705	1598.1366	3428.8	2548.85
898.0128	1599.9021	3451.4	2572.65
898.1551	1601.6668	3494.15	2611.15
898.2975	1603.4308	3521.55	2642.2
898.4398	1605.194	3591.05	2704.8
898.5821	1606.9564	3656.45	2775.25
898.7243	1608.7182	3741.6	2855.65
898.8666	1610.4791	3851.6	2969.4
899.0088	1612.2394	4000.35	3117.2
899.1511	1613.9988	4150.3	3270.6
899.2933	1615.7576	4348.35	3467.4
899.4355	1617.5156	4552	3666.4
899.5776	1619.2728	4764.45	3883.5
899.7198	1621.0293	4909.7	4030.75
899.862	1622.785	4976.45	4091.1
900.0041	1624.54	4943.7	4060
900.1462	1626.2942	4821.2	3938.85
900.2883	1628.0477	4602.1	3719.9
900.4304	1629.8005	4396.5	3508.25
900.5725	1631.5525	4211.9	3332.15
900.7145	1633.3037	4025.85	3143.7
900.8566	1635.0542	3875.35	2995.25
900.9986	1636.804	3766.95	2886.05
901.1406	1638.553	3750.25	2796.85
901.2826	1640.3013	3645.55	2766.3
901.4245	1642.0488	3609.65	2726.25
901.5665	1643.7955	3605.65	2725.8
901.7085	1645.5416	3633.3	2751.7
901.8504	1647.2868	3683.4	2802.45
901.9923	1649.0313	3740.15	2859.05
902.1342	1650.7751	3866.4	2983.1
902.2761	1652.5181	4033.65	3154.2
902.4179	1654.2604	4224	3341.8
902.5598	1656.0019	4519.45	3640.75
902.7016	1657.7427	4854.4	3974.4
902.8434	1659.4828	5132.3	4252.15
902.9852	1661.222	5337.55	4455.9
903.127	1662.9606	5375	4494.55
903.2687	1664.6984	5227	4346.9
903.4105	1666.4354	4935.9	4056.25
903.5522	1668.1717	4539.4	3660.3
903.6939	1669.9072	4168.4	3288.45
903.8356	1671.642	3849.15	2967.8
903.9773	1673.3761	3602.3	2722.75
904.119	1675.1094	3415.05	2535.4
904.2606	1676.8419	3263.9	2385.3
904.4022	1678.5737	3169.3	2288.9
904.5439	1680.3048	3095.9	2215.8
904.6855	1682.0351	3035.95	2157.15
904.827	1683.7646	2990.8	2107.65
904.9686	1685.4934	2948.95	2072.1
905.1101	1687.2215	2919.05	2038.95
905.2517	1688.9488	2889.75	2008.9
905.3932	1690.6754	2859.5	1979.7
905.5347	1692.4012	2855.75	1975.25
905.6761	1694.1263	2834.8	1956.75
905.8176	1695.8506	2821.45	1941.4
905.9591	1697.5742	2803.9	1924.55
906.1005	1699.297	2781.1	1900.4
906.2419	1701.0191	2763.65	1883.4
906.3833	1702.7404	2752.95	1875.15
906.5246	1704.461	2743.7	1860.4
906.666	1706.1808	2725.6	1843.15
906.8073	1707.8999	2713.1	1832.7
906.9487	1709.6182	2709.15	1830.45
907.09	1711.3358	2688.1	1807.25
907.2313	1713.0527	2670.95	1791.85
907.3725	1714.7688	2689.4	1805.1
907.5138	1716.4841	2661.1	1781.15
907.655	1718.1987	2652.3	1767.1
907.7962	1719.9126	2646.65	1766.6
907.9374	1721.6257	2631.1	1746.45
908.0786	1723.338	2627.2	1745.65
908.2198	1725.0496	2616.15	1735.4
908.3609	1726.7605	2612	1731.25
908.502	1728.4706	2600.45	1719.7
908.6431	1730.18	2594.8	1712.45
908.7842	1731.8886	2595.6	1716.05
908.9253	1733.5964	2586.1	1702.6
909.0664	1735.3036	2569.6	1689.8
909.2074	1737.0099	2561.4	1682.45
909.3484	1738.7156	2559.2	1680.2
909.4894	1740.4204	2549.4	1665.45
909.6304	1742.1246	2542.6	1661.2
909.7714	1743.8279	2540.25	1659.55
909.9123	1745.5306	2540.35	1660.65
910.0532	1747.2325	2528.4	1649.35
910.1941	1748.9336	2515	1635.95
910.335	1750.634	2524.2	1643.75
910.4759	1752.3336	2515.65	1635.9
910.6168	1754.0325	2499.05	1620.95
910.7576	1755.7307	2483.65	1604.8
910.8984	1757.4281	2493.4	1614.65
911.0392	1759.1247	2501.75	1614.25
911.18	1760.8206	2501.5	1616.65
911.3208	1762.5158	2488.8	1606.6
911.4615	1764.2102	2465.4	1585.8
911.6022	1765.9039	2463.85	1583.75
911.7429	1767.5968	2464.7	1584.1
911.8836	1769.289	2453.2	1572.7
912.0243	1770.9804	2460.7	1579
912.1649	1772.6711	2464.3	1584.3
912.3056	1774.361	2445.1	1562.2
912.4462	1776.0502	2446.55	1568.6
912.5868	1777.7386	2433.45	1549.95
912.7274	1779.4263	2426.25	1547.05
912.8679	1781.1132	2424.85	1542.35
913.0084	1782.7994	2423.6	1543.85
913.149	1784.4849	2414.95	1534.6
913.2895	1786.1696	2434.85	1536.75
913.4299	1787.8535	2405.45	1523.4
913.5704	1789.5367	2403.1	1521.3
913.7108	1791.2192	2405.3	1525.65
913.8513	1792.9009	2413.7	1506.05
913.9917	1794.5818	2393.15	1510.3
914.132	1796.2621	2384	1504.2
914.2724	1797.9415	2372.85	1493.55
914.4128	1799.6202	2380.3	1499.55
914.5531	1801.2982	2370.9	1490.4
914.6934	1802.9755	2377.95	1496.7
914.8337	1804.6519	2369.25	1487.5
914.9739	1806.3277	2346.85	1469.1
915.1142	1808.0027	2348.75	1470.05
915.2544	1809.6769	2354.4	1473.35
915.3946	1811.3504	2339.9	1456
915.5348	1813.0231	2349.25	1470.1
915.675	1814.6951	2342.05	1461.4
915.8151	1816.3664	2337.8	1457
915.9553	1818.0369	2328.45	1447.3
916.0954	1819.7067	2326.3	1447.3
916.2355	1821.3757	2344.25	1462.1
916.3755	1823.044	2322.2	1443.1
916.5156	1824.7115	2324.45	1444.05
916.6556	1826.3783	2307.05	1428.15
916.7956	1828.0443	2309.95	1431.2
916.9356	1829.7096	2315.35	1432.6
917.0756	1831.3741	2308.65	1425.1
917.2155	1833.0379	2307.1	1426.85
917.3555	1834.701	2311.55	1429.3
917.4954	1836.3633	2301.5	1419.7
917.6353	1838.0248	2281.85	1399.65
917.7751	1839.6856	2287.5	1408.6
917.915	1841.3457	2280.65	1403.25
918.0548	1843.005	2276.45	1397
918.1946	1844.6636	2287.55	1410.1
918.3344	1846.3214	2277.55	1396.55
918.4742	1847.9785	2277.4	1397.7
918.6139	1849.6349	2283.4	1402.5
918.7537	1851.2904	2279.95	1390
918.8934	1852.9453	2277.55	1396.45
919.0331	1854.5994	2269.45	1386.65
919.1727	1856.2528	2269.4	1383.85
919.3124	1857.9054	2264.15	1384.6
919.452	1859.5572	2265.25	1387.1
919.5916	1861.2083	2249	1369.15
919.7312	1862.8587	2253.1	1373.15
919.8708	1864.5084	2251.65	1370.35
920.0103	1866.1572	2242.7	1365.1
920.1498	1867.8054	2230.2	1349.55
920.2893	1869.4528	2231.2	1352
920.4288	1871.0994	2233.5	1352.9
920.5683	1872.7453	2220.2	1338.95
920.7077	1874.3905	2220.15	1332.4
920.8471	1876.0349	2208.8	1330.65
920.9865	1877.6786	2216.75	1335.7
921.1259	1879.3215	2211.25	1333.4
921.2653	1880.9637	2210.7	1330.05
921.4046	1882.6051	2199.1	1319.55
921.5439	1884.2458	2208.5	1324.5
921.6832	1885.8858	2193.2	1313
921.8225	1887.525	2187.3	1306
921.9617	1889.1634	2183.65	1305.6
922.101	1890.8011	2174.1	1292.85
922.2402	1892.4381	2178.9	1298.15
922.3794	1894.0743	2181.9	1303.85
922.5185	1895.7098	2174.15	1295.05
922.6577	1897.3446	2174.45	1294.75
922.7968	1898.9786	2172.85	1291.85
922.9359	1900.6118	2161.45	1282.7
923.075	1902.2443	2154.5	1271.35
923.214	1903.8761	2153.95	1274.45
923.3531	1905.5071	2137.3	1255.3
923.4921	1907.1374	2140.95	1259.8
923.6311	1908.7669	2143.65	1263.9
923.77	1910.3957	2140.2	1260.7
923.909	1912.0237	2127.2	1249.45
924.0479	1913.651	2127.6	1246.4
924.1868	1915.2776	2124.65	1248.25
924.3257	1916.9034	2110.35	1232.5
924.4646	1918.5285	2116.2	1237.8
924.6034	1920.1528	2111.5	1228.35
924.7422	1921.7764	2103.75	1224
924.881	1923.3992	2109.95	1230.8
925.0198	1925.0213	2105.45	1227.1
925.1586	1926.6427	2089.3	1211.4
925.2973	1928.2633	2173.8	1187.4
925.436	1929.8832	2102.7	1219.5
925.5747	1931.5023	2083.6	1204.7
925.7134	1933.1207	2088.05	1208.3
925.852	1934.7383	2072.4	1190.3
925.9906	1936.3552	2072.8	1191.85
926.1292	1937.9714	2069.75	1189.55
926.2678	1939.5868	2068.15	1185.95
926.4064	1941.2015	2056.1	1176.9
926.5449	1942.8154	2065.3	1187.45
926.6834	1944.4286	2039.5	1159.2
926.8219	1946.041	2064.2	1161.55
926.9604	1947.6528	2052.7	1168.95
927.0988	1949.2637	2035.35	1157.25
927.2372	1950.8739	2025.85	1143.65
927.3756	1952.4834	2017.75	1137.35
927.514	1954.0921	2021.9	1142
927.6523	1955.7001	2029.65	1148.45
927.7907	1957.3074	2007.25	1128.45
927.929	1958.9139	2009.95	1130.85
928.0673	1960.5197	2002.55	1122.2
928.2055	1962.1247	1990.5	1110.7
928.3438	1963.729	1995.55	1116.65
928.482	1965.3325	2002.85	1099.45
928.6202	1966.9353	1996	1116.3
928.7584	1968.5374	1983.7	1103.5
928.8965	1970.1387	1974.2	1095.05
929.0346	1971.7393	1978.05	1097.25
929.1727	1973.3392	1971.3	1094.2
929.3108	1974.9383	1968.4	1089.25
929.4489	1976.5366	1952.95	1074.1
929.5869	1978.1342	1958.55	1077.85
929.7249	1979.7311	1959.3	1078.25
929.8629	1981.3273	1954.35	1073.35
930.0009	1982.9227	1950.65	1068.5
930.1388	1984.5173	1934.45	1055.55
930.2767	1986.1112	1936.1	1055.35
930.4146	1987.7044	1944.05	1066.05
930.5525	1989.2968	1940.9	1060.1
930.6904	1990.8885	1942.8	1058.6
930.8282	1992.4795	1932.55	1050.1
930.966	1994.0697	1928.95	1048.6
931.1038	1995.6592	1925.6	1044.25
931.2415	1997.2479	1915.55	1036.8
931.3793	1998.8359	1922.25	1043.1
931.517	2000.4232	1919.35	1041.35
931.6547	2002.0097	1901.95	1023.85
931.7923	2003.5955	1913.9	1032.25
931.93	2005.1805	1907.65	1025.75
932.0676	2006.7648	1907.3	1028
932.2052	2008.3484	1908.2	1028.05
932.3427	2009.9312	1909.55	1027.85
932.4803	2011.5133	1904.1	1024.75
932.6178	2013.0946	1895.75	1016.05
932.7553	2014.6752	1889.6	1009.9
932.8928	2016.2551	1890.55	1009.2
933.0302	2017.8342	1875.45	996.75
933.1676	2019.4126	1878.7	997.4
933.305	2020.9902	1884.2	1003.9
933.4424	2022.5672	1871.45	988.15
933.5798	2024.1433	1875.8	990.75
933.7171	2025.7188	1881.2	1003.7
933.8544	2027.2935	1863.55	982.85
933.9917	2028.8674	1865.9	985.8
934.129	2030.4406	1859.15	980.45
934.2662	2032.0131	1855.6	977.2
934.4034	2033.5849	1861.35	978.55
934.5406	2035.1559	1846.65	966.3
934.6778	2036.7261	1848.5	970.8
934.8149	2038.2957	1844.2	962.7
934.952	2039.8645	1842.75	964.4
935.0891	2041.4325	1856.4	973.3
935.2262	2042.9998	1844.9	963.55
935.3632	2044.5664	1845.2	962.9
935.5002	2046.1323	1826.3	945.85
935.6372	2047.6974	1845.65	967.1
935.7742	2049.2617	1832.15	951.9
935.9111	2050.8254	1846.1	944.4
936.048	2052.3883	1828.5	949.35
936.1849	2053.9504	1814	933.15
936.3218	2055.5118	1821.55	939.35
936.4586	2057.0725	1823.4	939.1
936.5955	2058.6325	1821.1	943.25
936.7323	2060.1917	1811.75	931.8
936.869	2061.7502	1819.15	935.35
937.0058	2063.3079	1800.3	919.1
937.1425	2064.8649	1806.95	924.8
937.2792	2066.4212	1803.95	922.05
937.4159	2067.9767	1795.85	914.65
937.5525	2069.5315	1798.7	918.6
937.6891	2071.0856	1797.55	916.85
937.8257	2072.6389	1789.95	909
937.9623	2074.1915	1786.6	906.8
938.0989	2075.7433	1780.8	901.15
938.2354	2077.2945	1776.95	898.5
938.3719	2078.8448	1778.2	897.5
938.5084	2080.3945	1767.35	885.1
938.6448	2081.9434	1768.25	890.4
938.7812	2083.4916	1770.7	891.15
938.9176	2085.039	1762.55	880.25
939.054	2086.5857	1756.9	874.9
939.1903	2088.1317	1762.4	883.05
939.3267	2089.677	1751.7	871
939.463	2091.2215	1756.55	877.55
939.5992	2092.7652	1752.9	871.95
939.7355	2094.3083	1746.9	867.55
939.8717	2095.8506	1746.25	866.35
940.0079	2097.3921	1745.4	867.3
940.1441	2098.933	1745.1	864.85
940.2802	2100.4731	1752.55	874.55
940.4163	2102.0124	1746.5	857.75
940.5524	2103.5511	1735.7	857.1
940.6885	2105.089	1739.7	857.75
940.8245	2106.6261	1734	853.6
940.9606	2108.1626	1725.55	842.05
941.0965	2109.6983	1759.15	850.95
941.2325	2111.2332	1731.25	851.1
941.3684	2112.7675	1728	848.8
941.5044	2114.301	1724	841.35
941.6403	2115.8337	1721.5	840.6
941.7761	2117.3657	1721.55	840.85
941.912	2118.897	1722.4	841.3
942.0478	2120.4276	1717.05	830.35
942.1835	2121.9575	1712.6	832.8
942.3193	2123.4866	1731.8	838.4
942.455	2125.0149	1720.5	836.55
942.5907	2126.5426	1706.65	826.35
942.7264	2128.0695	1705.6	820.4
942.8621	2129.5956	1703.55	822.75
942.9977	2131.1211	1703.05	819.05
943.1333	2132.6458	1694.75	816.5
943.2689	2134.1698	1697.2	817.4
943.4044	2135.693	1700.85	819.2
943.54	2137.2155	1689.35	807.4
943.6755	2138.7373	1688.5	808.95
943.8109	2140.2584	1693.6	811.75
943.9464	2141.7787	1687.9	802.45
944.0818	2143.2983	1675.15	794.8
944.2172	2144.8171	1673.6	794.95
944.3526	2146.3353	1678.5	795.05
944.4879	2147.8527	1682.3	804.75
944.6232	2149.3693	1681.05	799
944.7585	2150.8853	1674.5	795.1
944.8938	2152.4005	1658.25	778.4
945.029	2153.9149	1667.5	786.7
945.1642	2155.4287	1659.95	779.9
945.2994	2156.9417	1665.7	784.15
945.4346	2158.454	1662.5	780.85
945.5697	2159.9655	1656.9	776.3
945.7048	2161.4764	1659.75	780.55
945.8399	2162.9865	1652.6	773.45
945.9749	2164.4958	1650.3	770.05
946.1099	2166.0045	1653.65	771
946.2449	2167.5124	1654.2	774.8
946.3799	2169.0195	1648.4	768.65
946.5148	2170.526	1652.25	771.5
946.6498	2172.0317	1647.7	767.4
946.7846	2173.5367	1637.2	755
946.9195	2175.0409	1634.45	754.15
947.0543	2176.5445	1639.5	760.65
947.1891	2178.0473	1636.6	758.55
947.3239	2179.5494	1637.5	752.8
947.4587	2181.0507	1625.35	744.6
947.5934	2182.5513	1630.35	750.6
947.7281	2184.0512	1621.05	741.15
947.8628	2185.5504	1630.5	749.25
947.9974	2187.0488	1619.1	738.1
948.132	2188.5465	1620.4	739.7
948.2666	2190.0435	1614.9	733.45
948.4012	2191.5397	1614.55	734.3
948.5357	2193.0353	1617.6	736.5
948.6702	2194.5301	1603.6	721.45
948.8047	2196.0241	1598.05	715.55
948.9392	2197.5175	1612.8	734.1
949.0736	2199.0101	1603.6	717.45
949.208	2200.502	1603.5	724.4
949.3424	2201.9931	1598.55	717.95
949.4767	2203.4835	1598	716.65
949.611	2204.9733	1592.25	703.85
949.7453	2206.4622	1583.75	703.4
949.8796	2207.9505	1589.85	706.65
950.0138	2209.438	1589.85	708.7
950.148	2210.9248	1581.85	699.45
950.2822	2212.4109	1581.8	701.4
950.4164	2213.8962	1592.8	708.55
950.5505	2215.3809	1575.45	695.05
950.6846	2216.8648	1576.1	695.5
950.8186	2218.3479	1576.15	691.4
950.9527	2219.8304	1572.5	689.95
951.0867	2221.3121	1573.05	690.4
951.2207	2222.7931	1565.85	684.65
951.3546	2224.2733	1568.7	689.4
951.4886	2225.7529	1563.4	683.75
951.6225	2227.2317	1574.6	689.65
951.7563	2228.7098	1567.25	687.65
951.8902	2230.1872	1562.45	683.35
952.024	2231.6638	1555.6	675
952.1578	2233.1397	1561.9	676.3
952.2916	2234.6149	1551.95	671.2
952.4253	2236.0894	1552.9	672.9
952.559	2237.5632	1556.8	665.95
952.6927	2239.0362	1543.3	663.5
952.8263	2240.5085	1544.3	663.9
952.9599	2241.9801	1543.6	662.2
953.0935	2243.4509	1529.5	649.6
953.2271	2244.921	1533.3	653.4
953.3606	2246.3904	1529.85	647.1
953.4941	2247.8591	1530.25	651.55
953.6276	2249.3271	1526.65	646.85
953.7611	2250.7943	1528.4	648.05
953.8945	2252.2608	1521.35	642.75
954.0279	2253.7266	1516.75	636.55
954.1612	2255.1917	1509.2	629.4
954.2946	2256.656	1520.25	637.9
954.4279	2258.1197	1511.05	631.1
954.5612	2259.5826	1522.2	639.6
954.6944	2261.0447	1517.05	635.3
954.8276	2262.5062	1510.6	628.35
954.9608	2263.9669	1512.5	632.05
955.094	2265.4269	1511.6	631.9
955.2271	2266.8862	1508.45	628.75
955.3602	2268.3448	1503	620.25
955.4933	2269.8026	1505.05	623.05
955.6264	2271.2598	1498.4	618.15
955.7594	2272.7162	1493.7	613.35
955.8924	2274.1719	1498.05	617.4
956.0253	2275.6268	1498.55	617.65
956.1583	2277.0811	1497.65	618.65
956.2912	2278.5346	1492.55	614.5
956.4241	2279.9874	1486.75	606.3
956.5569	2281.4395	1495.15	614.6
956.6897	2282.8908	1492.05	607.6
956.8225	2284.3414	1491.45	609.6
956.9553	2285.7914	1495.55	616.15
957.088	2287.2406	1491	607.85
957.2207	2288.689	1480.75	601.35
957.3534	2290.1368	1485.55	603.55
957.486	2291.5838	1477.4	595.85
957.6186	2293.0302	1483.4	600.5
957.7512	2294.4758	1474.45	596.2
957.8838	2295.9206	1481.15	598.6
958.0163	2297.3648	1470.35	590.75
958.1488	2298.8082	1474.95	591.55
958.2813	2300.251	1473.75	594.45
958.4137	2301.693	1468.1	586.35
958.5461	2303.1343	1468.75	587.6
958.6785	2304.5748	1471.35	590.45
958.8108	2306.0147	1473.85	593.95
958.9432	2307.4538	1461.2	577.25
959.0754	2308.8922	1462.1	582.7
959.2077	2310.3299	1456.3	575.65
959.3399	2311.7669	1464.1	583.35
959.4721	2313.2031	1450.45	571.5
959.6043	2314.6387	1453.25	573.1
959.7365	2316.0735	1449.8	570.05
959.8686	2317.5076	1446.75	565.7
960.0006	2318.941	1442.55	562.35
960.1327	2320.3737	1443.4	561.75
960.2647	2321.8056	1442.25	560.1
960.3967	2323.2369	1438	557.05
960.5287	2324.6674	1439.4	558.8
960.6606	2326.0972	1440.45	557.95
960.7925	2327.5263	1440.15	559.4
960.9244	2328.9547	1444.85	565.35
961.0562	2330.3823	1433.1	551.5
961.1881	2331.8092	1441.7	558
961.3198	2333.2355	1434.85	554.95
961.4516	2334.661	1429.2	546.95
961.5833	2336.0858	1429.65	545.7
961.715	2337.5098	1422.65	539.1
961.8467	2338.9332	1427.55	548.65
961.9783	2340.3558	1430.1	546
962.1099	2341.7778	1431.05	551.1
962.2415	2343.199	1429.35	547.15
962.373	2344.6195	1425.75	547.8
962.5045	2346.0393	1420.3	538.55
962.636	2347.4583	1419.95	535.45
962.7675	2348.8767	1422.45	540.05
962.8989	2350.2943	1419.1	537.9
963.0303	2351.7113	1421.4	541.1
963.1617	2353.1275	1423.45	540.65
963.293	2354.543	1438.7	533.85
963.4243	2355.9578	1421.35	538.85
963.5556	2357.3718	1413.75	535.4
963.6868	2358.7852	1415.8	533.2
963.818	2360.1978	1413.2	531.85
963.9492	2361.6098	1414.25	533.7
964.0803	2363.021	1415.65	532.25
964.2114	2364.4315	1408.4	528.3
964.3425	2365.8413	1405.05	524.3
964.4736	2367.2504	1410.15	529.2
964.6046	2368.6587	1404.6	524.9
964.7356	2370.0664	1404.7	523.9
964.8666	2371.4733	1401.85	520.45
964.9975	2372.8795	1397.55	518.45
965.1284	2374.285	1398	517.65
965.2593	2375.6899	1393.75	514.45
965.3901	2377.0939	1391.75	512.7
965.5209	2378.4973	1397.95	517.45
965.6517	2379.9	1396.7	517.55
965.7825	2381.3019	1384.65	505
965.9132	2382.7032	1395.7	518.45
966.0439	2384.1037	1380.55	501.5
966.1745	2385.5035	1384	503.25
966.3051	2386.9027	1378	498.25
966.4357	2388.3011	1382	498.65
966.5663	2389.6987	1376.7	498.4
966.6968	2391.0957	1375.3	495.35
966.8273	2392.492	1367.85	488.8
966.9578	2393.8876	1370.8	491.4
967.0882	2395.2824	1369.85	488.05
967.2186	2396.6765	1367.7	490.95
967.349	2398.07	1365.85	486.25
967.4793	2399.4627	1364.85	484.45
967.6097	2400.8547	1364.05	484.35
967.7399	2402.246	1367.95	483.5
967.8702	2403.6366	1359.2	480.75
968.0004	2405.0265	1359.7	477.65
968.1306	2406.4156	1365.2	481.7
968.2607	2407.8041	1364.1	481.2
968.3909	2409.1918	1358.55	475.25
968.521	2410.5789	1362.4	484.35
968.651	2411.9652	1361.25	476
968.781	2413.3508	1349.95	471.6
968.911	2414.7358	1350.65	470.6
969.041	2416.12	1351.95	472.5
969.1709	2417.5035	1355	474.65
969.3008	2418.8863	1352.65	471.05
969.4307	2420.2684	1346.25	464.7
969.5606	2421.6497	1340	460.1
969.6904	2423.0304	1340.9	461.15
969.8201	2424.4104	1342.85	462.1
969.9499	2425.7896	1342.8	461.4
970.0796	2427.1682	1341.65	463.25
970.2093	2428.546	1338	456.35
970.3389	2429.9232	1342.35	463.1
970.4685	2431.2996	1334.55	454
970.5981	2432.6753	1342.8	463.65
970.7277	2434.0503	1327.05	447.15
970.8572	2435.4246	1331.9	453.1
970.9867	2436.7982	1335.4	453.2
971.1161	2438.1711	1329.2	449.4
971.2456	2439.5433	1328.2	445.55
971.375	2440.9148	1325.9	441.15
971.5043	2442.2856	1327.95	449.45
971.6336	2443.6557	1325.6	444.95
971.7629	2445.025	1326.2	445.2
971.8922	2446.3937	1318.05	436.85
972.0214	2447.7617	1316.75	435.75
972.1506	2449.1289	1323	444.25
972.2798	2450.4955	1317.2	432.55
972.4089	2451.8613	1317.55	436.35
972.538	2453.2265	1321.2	441.55
972.6671	2454.5909	1317.45	435.05
972.7961	2455.9546	1314	436.25
972.9251	2457.3177	1315	433.2
973.0541	2458.68	1312.8	431.3
973.1831	2460.0416	1319	440.05
973.312	2461.4025	1306.8	423.4
973.4408	2462.7627	1320.3	426.6
973.5697	2464.1222	1314.15	436
973.6985	2465.4811	1313.25	430.55
973.8273	2466.8392	1306.5	426.05
973.956	2468.1966	1320.9	438.3
974.0847	2469.5533	1320.65	438.85
974.2134	2470.9093	1310.5	429.15
974.3421	2472.2645	1313.85	432.9
974.4707	2473.6191	1310.8	431.25
974.5993	2474.973	1306.7	427.3
974.7278	2476.3262	1309.85	426.3
974.8563	2477.6787	1306.05	428.15
974.9848	2479.0305	1306.2	427.05
975.1132	2480.3816	1307.8	425.4
975.2417	2481.7319	1302.05	423
975.37	2483.0816	1303.1	421.2
975.4984	2484.4306	1304.1	424.8
975.6267	2485.7789	1296.25	417.1
975.755	2487.1264	1292.75	413.1
975.8833	2488.4733	1294.65	415
976.0115	2489.8195	1308.7	410.85
976.1397	2491.165	1294.75	410.05
976.2678	2492.5097	1290.5	410.3
976.3959	2493.8538	1286.15	406.7
976.524	2495.1972	1288.6	407.85
976.6521	2496.5398	1287.05	405.35
976.7801	2497.8818	1281.85	400.85
976.9081	2499.2231	1281.35	401.75
977.036	2500.5637	1281.9	401.75
977.164	2501.9035	1285.7	403.9
977.2918	2503.2427	1287.4	403.55
977.4197	2504.5812	1275.35	397.8
977.5475	2505.919	1277.3	396.7
977.6753	2507.256	1278.55	397.05
977.8031	2508.5924	1285.2	406.1
977.9308	2509.9281	1282.55	395.95
978.0585	2511.2631	1277.8	396.85
978.1861	2512.5974	1279.25	399.15
978.3137	2513.9309	1269.95	388.3
978.4413	2515.2638	1313.65	401.2
978.5689	2516.596	1277.2	398
978.6964	2517.9275	1272.1	391.8
978.8239	2519.2583	1274.3	395
978.9513	2520.5884	1271.8	389.9
979.0788	2521.9178	1271.9	392.4
979.2062	2523.2465	1266.75	386.2
979.3335	2524.5745	1265.1	384.9
979.4608	2525.9018	1267.7	385.3
979.5881	2527.2284	1259.05	380
979.7154	2528.5543	1267.8	388.8
979.8426	2529.8796	1263.8	384.1
979.9698	2531.2041	1264.75	385.25
980.0969	2532.5279	1260.25	383.15
980.224	2533.851	1264.4	383.8
980.3511	2535.1735	1261.8	382.95
980.4781	2536.4952	1261	381.85
980.6052	2537.8163	1261.3	378.55
980.7321	2539.1366	1258.15	380.45
980.8591	2540.4562	1253.1	372.4
980.986	2541.7752	1254.75	374.55
981.1129	2543.0935	1255.55	374.25
981.2397	2544.411	1254.05	371.95
981.3665	2545.7279	1255.9	377.6
981.4933	2547.0441	1256.9	375.95
981.62	2548.3596	1259.1	376.4
981.7467	2549.6744	1256.15	376.55
981.8734	2550.9885	1255.85	373.65
982.0001	2552.3019	1249.7	371.4
982.1267	2553.6146	1249	367
982.2532	2554.9266	1248.4	369.6
982.3798	2556.2379	1243.55	361.3
982.5063	2557.5485	1241.6	363.35
982.6327	2558.8585	1248	361
982.7592	2560.1677	1247.8	365.1
982.8856	2561.4762	1245.05	364.85
983.0119	2562.7841	1239.2	355.85
983.1383	2564.0913	1232.8	354
983.2646	2565.3977	1240.1	359.75
983.3908	2566.7035	1239.2	358.45
983.517	2568.0086	1242.7	363.25
983.6432	2569.313	1239.2	359.65
983.7694	2570.6167	1240.45	356.6
983.8955	2571.9197	1241.25	361.4
984.0216	2573.222	1242.45	359.3
984.1476	2574.5236	1238.2	357.45
984.2737	2575.8246	1245.15	360.8
984.3996	2577.1248	1237.15	355
984.5256	2578.4244	1239.7	359.25
984.6515	2579.7232	1235.9	356.2
984.7774	2581.0214	1267.5	355
984.9032	2582.3189	1241.4	362.1
985.029	2583.6157	1247.6	362.75
985.1548	2584.9118	1241.8	362.05
985.2806	2586.2072	1236.8	356.3
985.4063	2587.5019	1241.7	361.7
985.5319	2588.7959	1245	363.65
985.6576	2590.0893	1243.15	360.95
985.7832	2591.3819	1245.05	364.85
985.9087	2592.6739	1246.45	366.75
986.0343	2593.9652	1254.25	371.95
986.1597	2595.2557	1251.7	372.3
986.2852	2596.5456	1256.7	374.6
986.4106	2597.8348	1247.3	368.85
986.536	2599.1234	1253.2	374.2
986.6614	2600.4112	1255.05	375.25
986.7867	2601.6983	1256.6	371.9
986.912	2602.9848	1251.45	372.9
987.0372	2604.2705	1260.65	371.05
987.1624	2605.5556	1257.5	377.15
987.2876	2606.84	1254.6	371.65
987.4128	2608.1237	1255.05	373.05
987.5379	2609.4067	1247.05	365.1
987.6629	2610.689	1267	377.65
987.788	2611.9707	1256.6	372.75
987.913	2613.2516	1247.95	363.3
988.0379	2614.5319	1245.2	366.7
988.1629	2615.8115	1246.2	365.6
988.2878	2617.0903	1248	366.95
988.4126	2618.3685	1248.05	367.65
988.5375	2619.6461	1253.15	372.9
988.6622	2620.9229	1243.55	365.15
988.787	2622.199	1245.5	364.45
988.9117	2623.4745	1250.3	368.15
989.0364	2624.7493	1243.3	364.25
989.161	2626.0234	1247.05	366.6
989.2857	2627.2968	1247.1	365.6
989.4102	2628.5695	1251.4	370.35
989.5348	2629.8415	1244.95	364.7
989.6593	2631.1128	1247.15	364.25
989.7837	2632.3835	1244.9	363.55
989.9082	2633.6535	1249.25	370.7
990.0326	2634.9228	1251.85	371.75
990.1569	2636.1914	1249.95	369.9
990.2812	2637.4593	1245.45	364.2
990.4055	2638.7265	1248.25	366.8
990.5298	2639.9931	1245.8	364.5
990.654	2641.259	1245.45	363.45
990.7782	2642.5242	1242.1	360.7
990.9023	2643.7887	1243.3	364.15
991.0264	2645.0525	1241.35	359.75
991.1505	2646.3156	1244.95	362.6
991.2745	2647.5781	1243.75	363.7
991.3985	2648.8398	1239.75	359.8
991.5225	2650.1009	1243.3	352.75
991.6464	2651.3613	1238.45	359.25
991.7703	2652.6211	1242.8	362.85
991.8942	2653.8801	1229.5	350.7
992.018	2655.1385	1235.8	352.3
992.1418	2656.3961	1234.35	354.5
992.2655	2657.6531	1235.1	354.35
992.3892	2658.9094	1238.85	359.3
992.5129	2660.1651	1242.55	363.35
992.6366	2661.42	1240.1	360.75
992.7602	2662.6743	1243.45	363.85
992.8837	2663.9279	1247.15	367.2
993.0073	2665.1808	1242.7	363.05
993.1307	2666.433	1245.65	365.05
993.2542	2667.6846	1241.25	361
993.3776	2668.9354	1253.75	370.55
993.501	2670.1856	1253.35	372
993.6244	2671.4351	1250.25	370.85
993.7477	2672.6839	1256.7	376.4
993.8709	2673.9321	1250.85	370.5
993.9942	2675.1795	1260.35	380.7
994.1174	2676.4263	1261.55	381.9
994.2405	2677.6724	1260.95	381.6
994.3637	2678.9179	1265.25	383.5
994.4868	2680.1626	1269.8	389.85
994.6098	2681.4067	1263.15	383.25
994.7328	2682.6501	1260.85	380.5
994.8558	2683.8928	1270.5	389.8
994.9788	2685.1348	1263.55	382.4
995.1017	2686.3761	1263.85	385.1
995.2245	2687.6168	1259.6	379.1
995.3474	2688.8568	1254.6	375.8
995.4702	2690.0961	1251.85	371.2
995.5929	2691.3348	1255.95	375.45
995.7156	2692.5727	1248.2	366.05
995.8383	2693.81	1247.75	369.5
995.961	2695.0466	1241.8	363.35
996.0836	2696.2826	1243.95	361.8
996.2062	2697.5178	1266.15	366.35
996.3287	2698.7524	1243.4	363.8
996.4512	2699.9863	1250.75	367.2
996.5737	2701.2195	1253.2	374.7
996.6961	2702.452	1260.75	378.2
996.8185	2703.6839	1261	376.75
996.9408	2704.9151	1264.95	384.95
997.0631	2706.1456	1269.35	389.15
997.1854	2707.3755	1269.3	387.9
997.3077	2708.6046	1279.7	395.35
997.4299	2709.8331	1288.65	408.7
997.552	2711.0609	1290.15	410.05
997.6742	2712.2881	1300.8	417.5
997.7963	2713.5145	1311.8	428.9
997.9183	2714.7403	1316.8	438.15
998.0403	2715.9654	1327.3	446.3
998.1623	2717.1899	1353	455.45
998.2842	2718.4136	1348.55	466.85
998.4062	2719.6367	1360.45	480.25
998.528	2720.8591	1368.05	479.9
998.6498	2722.0809	1380.55	500.6
998.7716	2723.3019	1390.05	507.5
998.8934	2724.5223	1395	514.75
999.0151	2725.7421	1404.25	523
999.1368	2726.9611	1403.25	520.15
999.2584	2728.1795	1400.35	515.3
999.38	2729.3972	1388.2	510.1
999.5016	2730.6142	1397.95	506.05
999.6231	2731.8306	1366.45	487
999.7446	2733.0462	1362	480.25
999.8661	2734.2612	1347.95	460.85
999.9875	2735.4756	1337.6	455.1
1000.1089	2736.6892	1320.2	436.8
1000.2302	2737.9022	1300.75	421.4
1000.3515	2739.1145	1288.95	408.2
1000.4728	2740.3262	1287.6	400.05
1000.594	2741.5372	1269.45	391.1
1000.7152	2742.7475	1262.75	383.45
1000.8363	2743.9571	1257.6	375.3
1000.9575	2745.1661	1251.9	368.25
1001.0785	2746.3744	1243.4	361.6
1001.1996	2747.582	1229.65	349.35
1001.3206	2748.7889	1232.2	350.2
1001.4415	2749.9952	1222.3	340.9
1001.5625	2751.2008	1216.7	336.15
1001.6833	2752.4057	1223.35	339.65
1001.8042	2753.61	1210.55	331.05
1001.925	2754.8136	1212.5	327.95
1002.0458	2756.0165	1213.45	333.35
1002.1665	2757.2188	1212.6	332
1002.2872	2758.4204	1210.2	328.8
1002.4078	2759.6213	1210.85	327.4
1002.5285	2760.8215	1220.2	333.15
1002.649	2762.0211	1214.95	333.5
1002.7696	2763.22	1212.9	329.6
1002.8901	2764.4182	1214.2	332.45
1003.0106	2765.6158	1211.6	329.65
1003.131	2766.8127	1203.8	325.65
1003.2514	2768.009	1203	323.55
1003.3717	2769.2045	1201.1	319.8
1003.492	2770.3994	1205.45	322.65
1003.6123	2771.5936	1200.45	316.65
1003.7325	2772.7872	1197.7	317.3
1003.8527	2773.9801	1199.1	316.1
1003.9729	2775.1723	1211.8	316.6
1004.093	2776.3639	1202.5	324.35
1004.2131	2777.5548	1194.55	309.6
1004.3331	2778.745	1201.6	321.25
1004.4531	2779.9346	1199.65	319.6
1004.5731	2781.1235	1207.55	327.45
1004.693	2782.3117	1210.15	330.2
1004.8129	2783.4992	1217.8	337.05
1004.9328	2784.6861	1214.8	334.95
1005.0526	2785.8723	1227.7	343.9
1005.1723	2787.0579	1227	345.75
1005.2921	2788.2428	1235.05	355.25
1005.4118	2789.427	1246.55	366.9
1005.5314	2790.6106	1256.9	375.6
1005.651	2791.7935	1274.05	394.4
1005.7706	2792.9757	1276.45	395.8
1005.8902	2794.1573	1286.35	402.6
1006.0097	2795.3382	1302.35	422.8
1006.1291	2796.5184	1318.15	438.95
1006.2485	2797.698	1326.25	442.45
1006.3679	2798.8769	1346.55	465.3
1006.4873	2800.0551	1366.15	486.3
1006.6066	2801.2327	1379.7	496.65
1006.7258	2802.4096	1398.3	517.85
1006.8451	2803.5859	1417.3	534.8
1006.9642	2804.7615	1435.55	553.3
1007.0834	2805.9364	1453.65	574.45
1007.2025	2807.1106	1487	605.3
1007.3216	2808.2842	1515.1	635
1007.4406	2809.4572	1544.7	664
1007.5596	2810.6294	1574.2	693.05
1007.6785	2811.801	1603.45	722.25
1007.7975	2812.972	1643.65	763.75
1007.9163	2814.1423	1684.45	802.6
1008.0352	2815.3119	1729.55	850.2
1008.154	2816.4808	1773.1	892.15
1008.2727	2817.6491	1804.15	923.1
1008.3914	2818.8167	1860.1	980
1008.5101	2819.9837	1900.75	1015.25
1008.6288	2821.15	1934.25	1053.45
1008.7474	2822.3157	1972.6	1093.6
1008.8659	2823.4807	2013.4	1132.7
1008.9844	2824.645	2053.6	1172.75
1009.1029	2825.8086	2090.2	1210
1009.2214	2826.9716	2122.65	1244.5
1009.3398	2828.134	2151.7	1273.15
1009.4581	2829.2957	2191.4	1309.8
1009.5764	2830.4567	2214.9	1335.15
1009.6947	2831.617	2230.3	1349.55
1009.813	2832.7767	2227.85	1348.7
1009.9312	2833.9358	2239.25	1357.85
1010.0493	2835.0941	2237.15	1353.75
1010.1675	2836.2519	2218.95	1340.25
1010.2855	2837.4089	2217.35	1334.1
1010.4036	2838.5653	2208.25	1326.6
1010.5216	2839.7211	2199.6	1319.8
1010.6396	2840.8761	2214.35	1331.1
1010.7575	2842.0306	2233.45	1355.1
1010.8754	2843.1843	2268.9	1388.75
1010.9932	2844.3374	2300.5	1419.85
1011.111	2845.4899	2365	1483.95
1011.2288	2846.6417	2425.5	1546.3
1011.3465	2847.7928	2508.1	1628.95
1011.4642	2848.9433	2560.75	1680.4
1011.5818	2850.0931	2631.4	1751.4
1011.6995	2851.2422	2696.65	1814
1011.817	2852.3907	2769.25	1889.65
1011.9345	2853.5385	2830.85	1949.55
1012.052	2854.6857	2898.8	1992.1
1012.1695	2855.8323	2933.55	2051.35
1012.2869	2856.9781	2963.4	2081.95
1012.4042	2858.1233	3009.05	2127.4
1012.5216	2859.2679	3048.5	2169.4
1012.6389	2860.4118	3095.4	2215.25
1012.7561	2861.555	3141.3	2257.25
1012.8733	2862.6976	3147	2264.85
1012.9905	2863.8395	3178	2298.85
1013.1076	2864.9808	3200.9	2320.45
1013.2247	2866.1214	3214.75	2334.4
1013.3417	2867.2614	3229.4	2348.4
1013.4587	2868.4007	3247	2365
1013.5757	2869.5393	3254.1	2373.5
1013.6926	2870.6773	3271.05	2386.25
1013.8095	2871.8146	3282.85	2398.05
1013.9263	2872.9513	3285.2	2401.65
1014.0431	2874.0874	3288.25	2408.6
1014.1599	2875.2227	3277.1	2394.95
1014.2766	2876.3574	3263.1	2382.75
1014.3933	2877.4915	3246.8	2367.05
1014.51	2878.6249	3217.4	2337.15
1014.6266	2879.7577	3201.65	2319.55
1014.7431	2880.8898	3187.75	2296.95
1014.8596	2882.0212	3171.9	2292.95
1014.9761	2883.152	3157.7	2276.5
1015.0925	2884.2821	3156.95	2276.75
1015.2089	2885.4116	3140.7	2259.95
1015.3253	2886.5405	3142.85	2262.65
1015.4416	2887.6686	3158.65	2274.8
1015.5579	2888.7962	3149.65	2270.2
1015.6741	2889.923	3157.35	2277.8
1015.7903	2891.0493	3170.1	2289.05
1015.9065	2892.1748	3174.25	2293.6
1016.0226	2893.2997	3187.35	2306.6
1016.1387	2894.424	3202.3	2324.65
1016.2547	2895.5476	3215.55	2334.45
1016.3707	2896.6706	3237.75	2358.45
1016.4866	2897.7929	3274.3	2392.85
1016.6025	2898.9145	3305.8	2424.35
1016.7184	2900.0355	3329.7	2446.45
1016.8342	2901.1559	3360.5	2479.55
1016.95	2902.2756	3392.9	2512.8
1017.0658	2903.3946	3421.95	2542.05
1017.1815	2904.513	3439.1	2555.35
1017.2971	2905.6308	3462.45	2584.3
1017.4127	2906.7479	3489.85	2607.65
1017.5283	2907.8643	3510.7	2628.3
1017.6439	2908.9801	3515.8	2634.05
1017.7594	2910.0953	3531.8	2652.8
1017.8748	2911.2098	3536.05	2651.95
1017.9902	2912.3236	3523.4	2634.35
1018.1056	2913.4368	3516.3	2633
1018.2209	2914.5494	3496.55	2616.2
1018.3362	2915.6613	3476.9	2588.7
1018.4515	2916.7725	3455.45	2572.9
1018.5667	2917.8831	3429.05	2547.4
1018.6819	2918.9931	3412.2	2529.25
1018.797	2920.1024	3380.7	2500.15
1018.9121	2921.211	3365.3	2484.3
1019.0271	2922.319	3337.65	2457.2
1019.1421	2923.4264	3319.95	2439.8
1019.2571	2924.5331	3302.8	2422.2
1019.372	2925.6391	3305.65	2425
1019.4869	2926.7445	3305.9	2426
1019.6017	2927.8493	3303.95	2422.4
1019.7165	2928.9534	3283.8	2402
1019.8313	2930.0569	3285.75	2402.65
1019.946	2931.1597	3271.05	2391.15
1020.0606	2932.2619	3257.2	2376.55
1020.1753	2933.3634	3252.4	2372.1
1020.2899	2934.4643	3248.75	2363.85
1020.4044	2935.5645	3229.75	2343.8
1020.5189	2936.6641	3204.9	2319.9
1020.6334	2937.763	3148.3	2270.85
1020.7478	2938.8613	3125.1	2243.5
1020.8622	2939.959	3058.7	2174.2
1020.9765	2941.056	2987.3	2108
1021.0908	2942.1523	2921	2038.75
1021.2051	2943.248	2848.65	1967.7
1021.3193	2944.3431	2759.7	1876.65
1021.4334	2945.4375	2665.55	1784.95
1021.5476	2946.5313	2581.85	1704.1
1021.6617	2947.6244	2501.15	1620.25
1021.7757	2948.7169	2406.85	1525.35
1021.8897	2949.8087	2322.7	1441.3
1022.0037	2950.8999	2245.45	1365.1
1022.1176	2951.9904	2171.6	1292.4
1022.2315	2953.0803	2120.35	1238.8
1022.3453	2954.1696	2060.9	1181.05
1022.4591	2955.2582	2016	1137.9
1022.5728	2956.3462	1970.5	1089.4
1022.6865	2957.4335	1931.35	1050.8
1022.8002	2958.5202	1916.5	1033.35
1022.9138	2959.6062	1886.1	1006.6
1023.0274	2960.6916	1869.45	988.35
1023.141	2961.7764	1848.45	968
1023.2545	2962.8605	1835.4	955.7
1023.3679	2963.9439	1818.35	936.8
1023.4813	2965.0267	1808.2	927
1023.5947	2966.1089	1825.7	921.7
1023.708	2967.1905	1804.8	923.55
1023.8213	2968.2714	1806.2	926.15
1023.9346	2969.3516	1804.5	923.65
1024.0478	2970.4312	1812.05	923.1
1024.1609	2971.5102	1801.25	919.95
1024.274	2972.5885	1810.45	930.55
1024.3871	2973.6662	1808.25	922.45
1024.5002	2974.7432	1803.75	923.45
1024.6132	2975.8196	1800.7	919.65
1024.7261	2976.8954	1791.3	911
1024.839	2977.9705	1773.5	894
1024.9519	2979.045	1770.1	892.65
1025.0647	2980.1188	1751.85	871.75
1025.1775	2981.192	1738.9	859.6
1025.2902	2982.2645	1711.45	830.55
1025.4029	2983.3364	1697.1	816.75
1025.5156	2984.4077	1660.05	781.65
1025.6282	2985.4783	1653.05	766.1
1025.7407	2986.5483	1613	736.5
1025.8532	2987.6177	1583.25	703.25
1025.9657	2988.6864	1557.2	675.55
1026.0782	2989.7545	1533.9	652.45
1026.1906	2990.8219	1497.8	617.15
1026.3029	2991.8887	1471.1	589.4
1026.4152	2992.9548	1448.1	569.05
1026.5275	2994.0204	1417.6	538.3
1026.6397	2995.0852	1392.85	515.4
1026.7519	2996.1495	1373.3	489.6
1026.864	2997.2131	1352.8	473.1
1026.9761	2998.276	1341.4	463
1027.0882	2999.3383	1318.4	436.55
1027.2002	3000.4	1310.25	430.55
1027.3122	3001.4611	1295.2	414.65
1027.4241	3002.5215	1285.4	406.35
1027.536	3003.5812	1268	389.2
1027.6478	3004.6404	1256.75	376.1
1027.7596	3005.6989	1254	373.75
1027.8714	3006.7567	1246.65	366.65
1027.9831	3007.8139	1258.65	359.1
1028.0947	3008.8705	1236.4	355.1
1028.2064	3009.9264	1236.05	352.45
1028.3179	3010.9818	1223.2	343.65
1028.4295	3012.0364	1225.9	343.65
1028.541	3013.0905	1226.55	345.1
1028.6524	3014.1439	1220.2	340.45
1028.7638	3015.1966	1226.25	348.3
1028.8752	3016.2487	1219.25	339.15
1028.9865	3017.3002	1222.85	338.15
1029.0978	3018.3511	1211.3	331.95
1029.209	3019.4013	1219.15	340.9
1029.3202	3020.4509	1223.65	342.4
1029.4314	3021.4998	1217.35	339
1029.5425	3022.5481	1223.15	340.9
1029.6535	3023.5958	1230.15	350.25
1029.7645	3024.6428	1227	346.05
1029.8755	3025.6892	1221.6	341.35
1029.9864	3026.735	1228.85	348.25
1030.0973	3027.7802	1228.7	348.8
1030.2082	3028.8247	1229.6	348.1
1030.319	3029.8685	1238.65	359.15
1030.4297	3030.9118	1235.8	355.4
1030.5404	3031.9544	1243.1	364.85
1030.6511	3032.9963	1251.05	371.25
1030.7617	3034.0376	1259.6	380.75
1030.8723	3035.0783	1259.75	379.9
1030.9829	3036.1184	1269.05	388
1031.0934	3037.1578	1261.55	382.2
1031.2038	3038.1966	1265.75	385.85
1031.3142	3039.2348	1260.9	380.55
1031.4246	3040.2723	1279.75	391.85
1031.5349	3041.3092	1265.6	387.05
1031.6452	3042.3455	1259.25	378.5
1031.7554	3043.3811	1267	385.05
1031.8656	3044.4161	1253.55	370.65
1031.9758	3045.4505	1258.85	380.6
1032.0859	3046.4842	1246	365.4
1032.1959	3047.5173	1247.45	369
1032.3059	3048.5498	1235.45	355.95
1032.4159	3049.5816	1237	355.75
1032.5258	3050.6128	1229.15	349.25
1032.6357	3051.6434	1224.45	342.75
1032.7455	3052.6734	1222.1	340.75
1032.8553	3053.7027	1210.6	329.65
1032.9651	3054.7314	1204.5	324.1
1033.0748	3055.7594	1203.65	324.25
1033.1845	3056.7868	1197.5	314.95
1033.2941	3057.8136	1192.7	313.25
1033.4037	3058.8398	1192.9	315.05
1033.5132	3059.8653	1185.25	306.4
1033.6227	3060.8902	1181.35	300.35
1033.7321	3061.9145	1172.7	293.75
1033.8415	3062.9381	1171.5	291.65
1033.9509	3063.9612	1186.95	291.6
1034.0602	3064.9835	1155.95	276
1034.1694	3066.0053	1153.7	270.85
1034.2787	3067.0264	1142	263.3
1034.3878	3068.0469	1145.2	264.5
1034.497	3069.0668	1139.1	256.7
1034.6061	3070.086	1129	248.95
1034.7151	3071.1046	1125	242.55
1034.8241	3072.1226	1114.75	234.25
1034.9331	3073.1399	1105.65	225.5
1035.042	3074.1567	1102.7	223.1
1035.1508	3075.1727	1090.95	209
1035.2597	3076.1882	1076.5	197.05
1035.3684	3077.203	1077.5	196.5
1035.4772	3078.2173	1073.5	191.7
1035.5859	3079.2308	1064.45	181.55
1035.6945	3080.2438	1059.8	177.6
1035.8031	3081.2561	1049.2	169.2
1035.9117	3082.2678	1042.7	165.4
1036.0202	3083.2789	1035.5	153.9
1036.1286	3084.2893	1032.95	153.2
1036.2371	3085.2991	1029.75	150.2
1036.3454	3086.3083	1026.15	139.35
1036.4538	3087.3169	1019.9	140.9
1036.562	3088.3248	1017.65	133.8
1036.6703	3089.3321	1014.25	134.1
1036.7785	3090.3388	1006.85	126.9
1036.8866	3091.3449	1003.15	123.2
1036.9948	3092.3503	1007.85	125.35
1037.1028	3093.3551	1000.45	121.75
1037.2108	3094.3593	994.7	116.65
1037.3188	3095.3629	994	114.25
1037.4267	3096.3658	991.65	110.15
1037.5346	3097.3681	991.25	112.75
1037.6425	3098.3698	989.75	106.95
1037.7503	3099.3708	989.45	104
1037.858	3100.3713	984.3	104.55
1037.9657	3101.3711	985.2	104.6
1038.0734	3102.3702	1119.1	101.15
1038.181	3103.3688	983.65	103.15
1038.2886	3104.3667	972.35	91.55
1038.3961	3105.364	977.5	97.5
1038.5036	3106.3607	974.05	92.2
1038.611	3107.3568	971.15	89.15
1038.7184	3108.3522	973.8	97.9
1038.8257	3109.347	970.95	89.65
1038.933	3110.3412	977	94.45
1039.0403	3111.3348	969.7	89.15
1039.1475	3112.3277	968.95	89.65
1039.2547	3113.32	965.9	86.15
1039.3618	3114.3117	967.85	87.75
1039.4689	3115.3028	966	85.6
1039.5759	3116.2932	966.1	83.5
1039.6829	3117.2831	967	80.5
1039.7898	3118.2723	964.9	86.9
1039.8967	3119.2608	962.6	84.75
1040.0035	3120.2488	963.6	83.3
1040.1103	3121.2361	963.8	83.8
1040.2171	3122.2229	962.4	84.4
1040.3238	3123.209	959.8	78.55
1040.4305	3124.1944	957.05	78.05
1040.5371	3125.1793	958.5	77.3
1040.6437	3126.1635	957.05	76.5
1040.7502	3127.1471	957.75	79.2
1040.8567	3128.1301	954.4	73.55
1040.9631	3129.1125	956.75	77.7
1041.0695	3130.0942	955.2	74.6
1041.1759	3131.0753	962.65	74.65
1041.2822	3132.0558	955.95	72.25
1041.3884	3133.0357	952.1	71.85
1041.4946	3134.015	948.55	69.55
1041.6008	3134.9936	953.3	71.7
1041.7069	3135.9716	968.4	67.15
1041.813	3136.949	951.7	72.5
1041.919	3137.9258	966.8	67.25
1042.025	3138.902	954.6	69.15
1042.1309	3139.8775	943.6	65
1042.2368	3140.8524	945.2	64
1042.3427	3141.8267	946.55	65.1
1042.4485	3142.8004	946.15	66
1042.5542	3143.7735	948.75	62.7
1042.6599	3144.7459	945.75	66.95
1042.7656	3145.7178	943.6	62.7
1042.8712	3146.689	943.25	66.3
1042.9768	3147.6596	940.85	60.7
1043.0823	3148.6295	938.25	58.8
1043.1878	3149.5989	937.9	58.55
1043.2932	3150.5676	938	57.6
1043.3986	3151.5357	937.2	57.3
1043.5039	3152.5032	939.75	61.35
1043.6092	3153.4701	936.25	55.4
1043.7145	3154.4364	937	53.1
1043.8197	3155.402	937.5	58.85
1043.9248	3156.367	935.1	54.6
1044.03	3157.3315	971.3	56.2
1044.135	3158.2952	936.55	57.3
1044.24	3159.2584	934.45	55.8
1044.345	3160.221	932.3	50.8
1044.4499	3161.1829	931.25	51.5
1044.5548	3162.1442	930.55	51.7
1044.6596	3163.105	930.55	50.6
1044.7644	3164.065	931.4	51.5
1044.8692	3165.0245	931.75	49.6
1044.9739	3165.9834	929.15	50.2
1045.0785	3166.9416	931.3	52.65
1045.1831	3167.8993	925.9	44.05
1045.2877	3168.8563	930.15	50.65
1045.3922	3169.8127	927.65	49.2
1045.4966	3170.7684	926.45	46.75
1045.6011	3171.7236	932	50.45
1045.7054	3172.6782	929.65	50.05
1045.8098	3173.6321	929.05	47.1
1045.914	3174.5854	933.5	49.95
1046.0183	3175.5381	926.05	46.7
1046.1224	3176.4902	927.4	48.2
1046.2266	3177.4417	925.3	45.55
1046.3307	3178.3926	924.9	44.7
1046.4347	3179.3428	924.6	44.9
1046.5387	3180.2924	926.5	46.05
1046.6427	3181.2415	924.3	44.3
1046.7466	3182.1899	925.85	43.7
1046.8504	3183.1377	924.75	43.9
1046.9542	3184.0848	927.4	46.15
1047.058	3185.0314	921.3	42.25
1047.1617	3185.9773	921.6	42.85
1047.2654	3186.9227	923.35	41.8
1047.369	3187.8674	924.4	46.6
1047.4726	3188.8115	927	43.55
1047.5761	3189.755	921.5	42.8
1047.6796	3190.6979	922.1	43.45
1047.783	3191.6402	918.85	39.2
1047.8864	3192.5818	919.65	41.4
1047.9898	3193.5229	948.05	40.55
1048.0931	3194.4633	921	40.65
1048.1963	3195.4031	922.1	42.4
1048.2995	3196.3423	921.7	43.15
1048.4027	3197.2809	918.95	39.65
1048.5058	3198.2189	922.55	44.35
1048.6089	3199.1563	936.95	40.45
1048.7119	3200.0931	919.4	40.6
1048.8148	3201.0292	919.65	39.35
1048.9178	3201.9648	918.7	38.6
1049.0206	3202.8997	922.7	42.6
1049.1235	3203.834	921.05	40.6
1049.2262	3204.7677	917.35	39.45
1049.329	3205.7008	919.85	39.4
1049.4317	3206.6333	916.75	38.1
1049.5343	3207.5652	919.3	39.75
1049.6369	3208.4964	917.8	39.05
1049.7394	3209.4271	914.2	36.95
1049.8419	3210.3571	916.1	37.1
1049.9444	3211.2865	915.9	35.9
1050.0468	3212.2154	916.1	35.2
1050.1491	3213.1436	918.25	35.5
1050.2514	3214.0712	922.65	35.75
1050.3537	3214.9982	914.8	35.8
1050.4559	3215.9246	916.55	37.8
1050.5581	3216.8503	912.7	33.45
1050.6602	3217.7755	917	37.3
1050.7623	3218.7001	915.25	34.8
1050.8643	3219.624	913.8	35.9
1050.9663	3220.5473	915.9	36
1051.0682	3221.4701	915.85	35.95
1051.1701	3222.3922	917.75	35.65
1051.2719	3223.3137	914	34.4
1051.3737	3224.2346	916.2	36.5
1051.4754	3225.1549	915	35.85
1051.5771	3226.0746	912.9	33.95
1051.6788	3226.9937	915.75	37
1051.7804	3227.9121	911.05	33.95
1051.8819	3228.83	912.3	31
1051.9834	3229.7473	913.35	33.75
1052.0849	3230.6639	913.4	32.5
1052.1863	3231.5799	915.45	38.7
1052.2876	3232.4954	912.85	34
1052.3889	3233.4102	911.1	33.95
1052.4902	3234.3244	914.15	34.35
1052.5914	3235.238	912.55	33.05
1052.6926	3236.151	934.65	31.5
1052.7937	3237.0634	911.5	33.65
1052.8948	3237.9752	911.65	32.6
1052.9958	3238.8864	911.35	29.8
1053.0968	3239.797	912.1	34.2
1053.1977	3240.7069	911.35	29.75
1053.2986	3241.6163	911.45	33.85
1053.3994	3242.5251	911.25	32.75
1053.5002	3243.4332	910.2	32.5
1053.6009	3244.3408	910.2	30.8
1053.7016	3245.2477	909.3	31.45
1053.8022	3246.154	911.35	32.05
1053.9028	3247.0598	910.25	29.95
1054.0034	3247.9649	907.25	26.9
1054.1039	3248.8694	908	30.65
1054.2043	3249.7733	909.1	29.55
1054.3047	3250.6766	909.75	31.4
1054.4051	3251.5793	909.05	28.7
1054.5054	3252.4814	906.85	28.8
1054.6056	3253.3829	906.45	28.4
1054.7058	3254.2838	906.85	27.9
1054.806	3255.1841	905.2	25.65
1054.9061	3256.0838	905.65	29.85
1055.0061	3256.9829	903.8	26.15
1055.1062	3257.8814	908.65	26.95
1055.2061	3258.7792	908.4	27.55
1055.306	3259.6765	903.6	23.3
1055.4059	3260.5731	905.9	27.3
1055.5057	3261.4692	905.3	23.8
1055.6055	3262.3647	904.55	23
1055.7052	3263.2595	902.3	23.25
1055.8049	3264.1538	902.6	25.05
1055.9045	3265.0474	902.05	21.6
1056.0041	3265.9404	901.8	21.85
1056.1036	3266.8329	902.1	24.95
1056.2031	3267.7247	910.45	21.2
1056.3025	3268.616	899.8	20.9
1056.4019	3269.5066	897.65	19.9
1056.5013	3270.3966	900.95	20.55
1056.6005	3271.286	896.1	17.25
