Software Version:	3.9.2.0
Unit SN:	10000200
Spectrometer SN:	6960
Date:	3/14/2024 12:32:57 PM
Data Line Index:	25
Spectral Points:	2048
Integration time (ms):	125
Averages:	20
Delay (ms):	30000
Sequence Number:	1
Processing:	dark subtract
Laser Power (mW):	300
Laser Current (mA):	823
Laser Diode Temp (C):	25.1
Laser Case Temp (C):	26.3
System Temp (C):	26.2
Spectrometer Temp (C):	23.8
CCD Temp (C):	0.009
Secondary Temp (C):	20.006
Heatsink Temp (C):	22.754
CCDPCB Temp (C):	36.474
SecondaryPCB Temp (C):	33.495

Wavelength	RamanShift	Raw Counts	Dark Subtracted
787.061	30.1047	417.25	3.75
787.2016	32.3739	413.85	2.4
787.3422	34.6426	417.8	5.05
787.4828	36.9109	423	9.75
787.6235	39.1787	425.8	7.55
787.7642	41.4461	430.95	7.85
787.9049	43.7131	433.5	7.75
788.0456	45.9796	437.3	8.15
788.1863	48.2456	441.2	8.55
788.3271	50.5112	446.75	8.6
788.4679	52.7764	450.8	13.7
788.6087	55.0411	455.25	11.9
788.7496	57.3054	458.15	11.4
788.8904	59.5692	463.95	16.45
789.0313	61.8326	469.45	17.45
789.1722	64.0955	472.9	17.6
789.3132	66.3579	479.8	17.05
789.4541	68.6199	483.85	20.65
789.5951	70.8815	494.1	26.75
789.7361	73.1426	507.5	38.15
789.8771	75.4032	542.1	68.95
790.0181	77.6634	605.4	128.3
790.1592	79.9231	761.2	278.65
790.3003	82.1824	1082.2	594.45
790.4414	84.4412	1629.2	1137.35
790.5825	86.6995	2330.75	1830.9
790.7237	88.9574	3030.45	2524.3
790.8648	91.2148	3525.15	3017.55
791.006	93.4717	3762.6	3248.45
791.1472	95.7282	3820.75	3302.9
791.2885	97.9842	3839.15	3320.15
791.4297	100.2398	3801.45	3279.5
791.571	102.4949	3775	3250.4
791.7123	104.7495	3736.95	3207.4
791.8536	107.0036	3723.2	3192.7
791.9949	109.2573	3669.15	3138.45
792.1363	111.5105	3605.25	3074.75
792.2777	113.7632	3541.05	3006.5
792.4191	116.0154	3482.5	2939.5
792.5605	118.2672	3398.85	2862.75
792.7019	120.5185	3327.7	2791.3
792.8434	122.7693	3243.85	2703.55
792.9849	125.0197	3186.45	2642.8
793.1264	127.2696	3112.95	2566.8
793.2679	129.519	3073.25	2524.15
793.4094	131.7679	3061.5	2509.6
793.551	134.0163	3045.2	2492.75
793.6926	136.2642	3029.95	2468.2
793.8342	138.5117	3025.75	2464.65
793.9758	140.7587	3025.7	2461
794.1175	143.0052	2989.8	2422.25
794.2591	145.2512	2954.9	2390.45
794.4008	147.4967	2926.4	2357
794.5425	149.7417	2868.95	2298.4
794.6842	151.9863	2851.85	2278.55
794.826	154.2304	2836.5	2260.5
794.9677	156.4739	2818.7	2237.75
795.1095	158.717	2820.9	2238.5
795.2513	160.9596	2836.2	2247.7
795.3931	163.2017	2862.3	2273
795.535	165.4433	2885.3	2296.8
795.6768	167.6844	2890.75	2298
795.8187	169.925	2866.55	2270.45
795.9606	172.1651	2823.4	2223.75
796.1025	174.4047	2800.85	2194.3
796.2445	176.6439	2756.5	2150.5
796.3864	178.8825	2737.05	2126.4
796.5284	181.1206	2716.6	2104.45
796.6704	183.3582	2698.45	2083.75
796.8124	185.5954	2703.25	2086.6
796.9544	187.832	2697.05	2078.15
797.0965	190.0681	2689.75	2069.1
797.2386	192.3037	2701.75	2076.1
797.3806	194.5388	2696.7	2070.7
797.5228	196.7734	2702.3	2072.4
797.6649	199.0075	2721.2	2086.4
797.807	201.2411	2727.65	2088.25
797.9492	203.4742	2750.1	2111.35
798.0914	205.7068	2773.6	2133.6
798.2336	207.9389	2778.85	2141.25
798.3758	210.1704	2795.35	2151.8
798.518	212.4015	2798.2	2149.7
798.6603	214.632	2812.35	2163.4
798.8025	216.862	2797.4	2155.2
798.9448	219.0915	2779	2142
799.0871	221.3205	2796.3	2162.9
799.2294	223.549	2791.15	2169.05
799.3718	225.777	2787.85	2162.85
799.5141	228.0044	2776.05	2147.05
799.6565	230.2314	2778.85	2151.85
799.7989	232.4578	2768.75	2140.35
799.9413	234.6837	2776.6	2141.95
800.0837	236.909	2752.25	2114.8
800.2262	239.1339	2754.8	2093.2
800.3687	241.3582	2745.65	2101.45
800.5111	243.582	2754.7	2084.25
800.6536	245.8053	2760.85	2096.5
800.7961	248.0281	2755.55	2096.2
800.9387	250.2503	2763.5	2099.15
801.0812	252.472	2760.1	2090.05
801.2238	254.6932	2768.1	2095.75
801.3664	256.9139	2767.3	2090.9
801.509	259.134	2773.45	2094.45
801.6516	261.3536	2791.85	2113.8
801.7942	263.5727	2808	2130.5
801.9369	265.7912	2843.15	2164.5
802.0795	268.0092	2888.3	2209.1
802.2222	270.2267	2932.4	2253.25
802.3649	272.4436	2961.75	2280.35
802.5076	274.6601	3003.85	2314.05
802.6504	276.8759	2995.2	2309.6
802.7931	279.0913	3022.35	2337.6
802.9359	281.3061	3032.75	2346.75
803.0787	283.5204	3051.45	2359.75
803.2215	285.7341	3075.75	2381.8
803.3643	287.9473	3093.95	2396.15
803.5071	290.16	3098.6	2396.3
803.6499	292.3721	3045	2349.15
803.7928	294.5837	3004.35	2306.65
803.9357	296.7947	2964.85	2266.35
804.0786	299.0052	2955.9	2255.5
804.2215	301.2152	2942.75	2241.6
804.3644	303.4246	2937.5	2239.2
804.5074	305.6334	2919.9	2219.45
804.6503	307.8418	2917.4	2213.55
804.7933	310.0495	2916.55	2211.45
804.9363	312.2568	2890.05	2188.5
805.0793	314.4635	2833.1	2131.3
805.2223	316.6696	2794.2	2087.85
805.3653	318.8752	2759.5	2046.55
805.5084	321.0802	2738.6	2031.7
805.6514	323.2847	2738.35	2029.4
805.7945	325.4887	2725.6	2017.65
805.9376	327.692	2728.75	2016.2
806.0807	329.8949	2765.8	2053.65
806.2238	332.0972	2793	2079.65
806.367	334.2989	2830.8	2114.25
806.5101	336.5001	2837.3	2119.55
806.6533	338.7007	2813.95	2096.9
806.7965	340.9008	2782.95	2066.3
806.9397	343.1003	2713.6	1991.5
807.0829	345.2992	2681.75	1959
807.2261	347.4976	2650	1924.85
807.3693	349.6955	2617.9	1890.85
807.5126	351.8927	2605.6	1877.6
807.6559	354.0895	2585.3	1846.95
807.7991	356.2856	2569.25	1838.25
807.9424	358.4812	2566.3	1835.95
808.0857	360.6763	2555.65	1823.35
808.2291	362.8707	2545.9	1813.3
808.3724	365.0646	2547.75	1811.15
808.5158	367.258	2553.25	1814.7
808.6591	369.4508	2575.2	1834.25
808.8025	371.643	2583.9	1841.05
808.9459	373.8346	2592.6	1849.8
809.0893	376.0257	2633.95	1887.2
809.2327	378.2162	2671.95	1923.65
809.3762	380.4062	2673.65	1922.85
809.5196	382.5956	2655.85	1903.05
809.6631	384.7844	2626.7	1878.95
809.8066	386.9726	2582.1	1830.35
809.9501	389.1603	2546.2	1794.15
810.0936	391.3474	2550	1771.7
810.2371	393.5339	2531.65	1779.45
810.3806	395.7199	2517.75	1769.3
810.5241	397.9052	2544.2	1798.4
810.6677	400.09	2575.2	1828.2
810.8113	402.2743	2601.25	1856.25
810.9548	404.4579	2634.55	1891.8
811.0984	406.641	2661.2	1917.2
811.2421	408.8235	2702.4	1956.9
811.3857	411.0054	2753.75	2003.3
811.5293	413.1868	2796.15	2047.35
811.673	415.3675	2875.25	2122.05
811.8166	417.5477	2899.35	2144.25
811.9603	419.7273	2845.15	2086.95
812.104	421.9064	2757.6	1991.2
812.2477	424.0848	2680.7	1917.7
812.3914	426.2627	2631.15	1868.6
812.5351	428.4399	2571.2	1805.85
812.6788	430.6166	2525.05	1758.1
812.8226	432.7928	2488.55	1717.15
812.9663	434.9683	2456.05	1688.05
813.1101	437.1432	2425.1	1654.4
813.2539	439.3176	2417.75	1647.85
813.3977	441.4914	2405.95	1634.25
813.5415	443.6645	2401.45	1626.25
813.6853	445.8371	2391.8	1615.3
813.8291	448.0091	2399.15	1626.2
813.973	450.1806	2386.2	1610
814.1168	452.3514	2363.5	1585.45
814.2607	454.5216	2381.65	1595.45
814.4046	456.6913	2374.8	1593.7
814.5485	458.8603	2372.2	1595.3
814.6924	461.0288	2380.05	1601.6
814.8363	463.1967	2380	1600
814.9802	465.3639	2377.65	1597.15
815.1241	467.5306	2364.55	1581.45
815.2681	469.6967	2360.9	1580.85
815.412	471.8622	2344.6	1564.2
815.556	474.0271	2340.4	1556.65
815.7	476.1914	2349.4	1563.2
815.844	478.3551	2347	1563.25
815.988	480.5182	2342.7	1558.75
816.132	482.6807	2345.2	1559.65
816.276	484.8426	2349.15	1563.5
816.4201	487.0039	2389.1	1602.45
816.5641	489.1647	2426.9	1638.05
816.7082	491.3248	2480.7	1692.3
816.8522	493.4843	2480.8	1692.2
816.9963	495.6432	2475.9	1685.75
817.1404	497.8015	2449.65	1657.35
817.2845	499.9592	2394.9	1605.75
817.4286	502.1163	2359.7	1570.65
817.5727	504.2728	2329.25	1534.85
817.7168	506.4287	2315.4	1522.45
817.861	508.5839	2292.95	1499.8
818.0051	510.7386	2287	1494.75
818.1493	512.8927	2295.3	1495.4
818.2935	515.0461	2296.35	1501.45
818.4377	517.199	2305.95	1511.85
818.5818	519.3512	2345.05	1549.8
818.726	521.5029	2401.8	1600.6
818.8703	523.6539	2442.05	1645.75
819.0145	525.8043	2449.95	1652.45
819.1587	527.9541	2411.5	1612.75
819.303	530.1033	2355.85	1557.5
819.4472	532.2519	2313.4	1514.85
819.5915	534.3999	2298.1	1499.2
819.7357	536.5472	2274.6	1472.85
819.88	538.694	2283.8	1481.55
820.0243	540.8401	2289.6	1488
820.1686	542.9856	2306.85	1504.5
820.3129	545.1305	2316.7	1514.5
820.4572	547.2748	2329.6	1527.8
820.6016	549.4185	2337.85	1532.25
820.7459	551.5615	2335.8	1533.4
820.8902	553.704	2345.6	1540.1
821.0346	555.8458	2361.1	1558.25
821.1789	557.987	2368.95	1563.85
821.3233	560.1276	2405.05	1599.3
821.4677	562.2675	2440.9	1634.9
821.6121	564.4069	2520.65	1715.35
821.7565	566.5456	2550	1743.95
821.9009	568.6837	2539.4	1730
822.0453	570.8212	2463.95	1655.25
822.1897	572.958	2401.5	1591.55
822.3342	575.0942	2351.1	1543.65
822.4786	577.2299	2329.5	1519.3
822.6231	579.3648	2292.7	1482.2
822.7675	581.4992	2272.85	1462.35
822.912	583.6329	2280.5	1467.85
823.0565	585.766	2296.1	1484.4
823.201	587.8985	2329.9	1519.25
823.3454	590.0304	2364.75	1540.75
823.4899	592.1616	2397.55	1579.45
823.6345	594.2922	2401.5	1587.55
823.779	596.4222	2379.85	1565.4
823.9235	598.5515	2334.2	1519.7
824.068	600.6802	2277.05	1462.2
824.2126	602.8083	2236.45	1420.4
824.3571	604.9358	2229.8	1414
824.5017	607.0626	2211.25	1394.9
824.6462	609.1888	2229.55	1410.5
824.7908	611.3144	2242.65	1423.65
824.9354	613.4393	2269.75	1452.25
825.08	615.5636	2313.7	1496.05
825.2246	617.6873	2350.55	1530.5
825.3692	619.8103	2381.6	1561.15
825.5138	621.9327	2383.15	1562.65
825.6584	624.0544	2369.55	1551.55
825.803	626.1756	2316.5	1498.3
825.9477	628.2961	2272.05	1451.7
826.0923	630.4159	2248.25	1428.05
826.237	632.5351	2233.7	1412.85
826.3816	634.6537	2225.1	1403.1
826.5263	636.7716	2218.9	1395.95
826.6709	638.8889	2201.4	1377.9
826.8156	641.0056	2225.1	1402.05
826.9603	643.1216	2231.2	1405.75
827.105	645.237	2246.1	1419.95
827.2497	647.3518	2227.15	1401.6
827.3944	649.4659	2199.2	1375.7
827.5391	651.5793	2179.4	1353.65
827.6838	653.6922	2174.05	1348.15
827.8285	655.8043	2155.1	1327.55
827.9733	657.9159	2150.15	1321.55
828.118	660.0268	2148.25	1316
828.2627	662.137	2133.15	1304.25
828.4075	664.2466	2146.05	1315.8
828.5522	666.3556	2139.85	1308.95
828.697	668.4639	2135.35	1301.85
828.8418	670.5716	2139.95	1311.9
828.9865	672.6786	2120.5	1288.5
829.1313	674.785	2113.95	1282.75
829.2761	676.8907	2110.45	1279.75
829.4209	678.9958	2101.6	1270.95
829.5657	681.1002	2108.7	1276.35
829.7105	683.204	2120.1	1283.85
829.8553	685.3072	2120.05	1286.75
830.0001	687.4097	2109.75	1276.65
830.1449	689.5115	2107.85	1273.6
830.2898	691.6127	2102.8	1268.05
830.4346	693.7132	2096.4	1259.45
830.5794	695.8131	2115.7	1266.65
830.7243	697.9123	2094.95	1258.8
830.8691	700.0109	2097.8	1263.8
831.014	702.1089	2111.65	1277.65
831.1588	704.2061	2125.3	1290.15
831.3037	706.3028	2143.3	1307.05
831.4486	708.3987	2154.6	1317.75
831.5935	710.4941	2161.75	1323.55
831.7383	712.5887	2179.25	1338.65
831.8832	714.6827	2177.1	1334.7
832.0281	716.7761	2164.8	1326.75
832.173	718.8688	2168.5	1327.95
832.3179	720.9608	2157.15	1314.85
832.4628	723.0522	2157.65	1316
832.6077	725.1429	2163.7	1324.05
832.7527	727.233	2208.5	1368.45
832.8976	729.3224	2259.7	1421.45
833.0425	731.4112	2292.75	1452.25
833.1874	733.4993	2313.3	1469.65
833.3324	735.5867	2292.2	1449.65
833.4773	737.6735	2245.95	1403.75
833.6222	739.7596	2193.3	1349.9
833.7672	741.845	2159.35	1316.8
833.9122	743.9298	2164.35	1320.65
834.0571	746.014	2162.15	1320.5
834.2021	748.0974	2180.5	1336.9
834.347	750.1802	2176.8	1333.7
834.492	752.2624	2166.55	1322.8
834.637	754.3439	2155.45	1312.1
834.782	756.4247	2157.8	1303.95
834.9269	758.5048	2128.65	1286.3
835.0719	760.5843	2146.45	1302.15
835.2169	762.6631	2167.15	1321.2
835.3619	764.7413	2213.55	1369.95
835.5069	766.8188	2275.2	1428.7
835.6519	768.8956	2333.35	1485.25
835.7969	770.9718	2377	1532.55
835.9419	773.0473	2378.7	1532.1
836.0869	775.1221	2353.35	1507.65
836.232	777.1962	2321.1	1474.45
836.377	779.2697	2374.95	1527.6
836.522	781.3426	2473.15	1614.25
836.667	783.4147	2527.4	1677.45
836.8121	785.4862	2531.3	1685.45
836.9571	787.557	2472.65	1623.8
837.1021	789.6271	2343.6	1495.05
837.2472	791.6966	2247.35	1400.4
837.3922	793.7654	2167.65	1317.35
837.5373	795.8335	2108.1	1259.6
837.6823	797.901	2084.1	1235.5
837.8274	799.9678	2068.6	1216.7
837.9724	802.0339	2066.2	1218.35
838.1175	804.0993	2074.45	1215.45
838.2626	806.1641	2080.9	1229.5
838.4076	808.2282	2051.25	1202.8
838.5527	810.2916	2049.9	1196
838.6978	812.3544	2021.05	1170.65
838.8428	814.4164	2013.2	1164.2
838.9879	816.4778	2022.1	1170.65
839.133	818.5385	2026.05	1174.5
839.2781	820.5986	2061.4	1207.5
839.4232	822.658	2093.3	1239
839.5682	824.7166	2147.55	1297.45
839.7133	826.7747	2219.7	1368.65
839.8584	828.832	2272.9	1419.5
840.0035	830.8886	2324.1	1468.8
840.1486	832.9446	2359.85	1505.3
840.2937	834.9999	2335.3	1483.8
840.4388	837.0545	2278.35	1420.8
840.5839	839.1085	2208.25	1353.05
840.729	841.1618	2153	1295.6
840.8741	843.2143	2091	1239.25
841.0192	845.2662	2059.9	1206.3
841.1643	847.3175	2047.1	1194.9
841.3095	849.368	2036.25	1183.55
841.4546	851.4179	2036.65	1182.1
841.5997	853.467	2027.95	1173.2
841.7448	855.5155	2034.2	1180.25
841.8899	857.5633	2034.8	1181.1
842.0351	859.6105	2025.8	1170.05
842.1802	861.6569	2017.8	1163.65
842.3253	863.7027	2006.3	1150.25
842.4704	865.7478	1997.95	1141.15
842.6156	867.7922	1988.2	1132
842.7607	869.8359	1983.6	1126.85
842.9058	871.8789	1978.25	1121.35
843.0509	873.9212	2002.85	1112.8
843.1961	875.9629	1970.45	1113.4
843.3412	878.0039	1976.5	1119.1
843.4863	880.0441	1989.65	1130.55
843.6315	882.0837	2004.75	1146
843.7766	884.1226	2018.7	1158.95
843.9218	886.1609	2058.2	1201.95
844.0669	888.1984	2093.9	1238.35
844.212	890.2352	2126.5	1270.05
844.3572	892.2714	2154.05	1290.35
844.5023	894.3069	2133.1	1274.8
844.6475	896.3416	2078.2	1217.05
844.7926	898.3757	2038.95	1179.1
844.9377	900.4091	2011.85	1152.55
845.0829	902.4418	2024.65	1159.85
845.228	904.4739	2041.45	1179.65
845.3732	906.5052	2060.85	1201.4
845.5183	908.5358	2054.45	1196.6
845.6635	910.5658	2043.4	1181.1
845.8086	912.595	2012.95	1150.35
845.9538	914.6236	1975.65	1116.15
846.0989	916.6515	1942.95	1084.55
846.2441	918.6786	1928.7	1065.05
846.3892	920.7051	1926.8	1065.4
846.5344	922.7309	1914.3	1054.7
846.6795	924.756	1924.7	1059.95
846.8246	926.7804	1932.2	1067.75
846.9698	928.8041	1928.45	1062.25
847.1149	930.8272	1947.95	1085.95
847.2601	932.8495	1948.6	1085.9
847.4052	934.8711	1959.35	1094.95
847.5504	936.892	1961.7	1099.05
847.6955	938.9123	1980.7	1116
847.8407	940.9318	2004.4	1141
847.9858	942.9506	2020.1	1156.45
848.131	944.9688	2012.45	1150.1
848.2761	946.9862	1988.25	1124.95
848.4213	949.003	1957.65	1093.4
848.5664	951.019	1938.55	1074.4
848.7115	953.0344	1930.55	1067.15
848.8567	955.0491	1911.05	1046.1
849.0018	957.063	1911.3	1048.45
849.147	959.0763	1898.05	1033.3
849.2921	961.0888	1893.05	1025.7
849.4373	963.1007	1889.9	1025.9
849.5824	965.1119	1883.45	1018.65
849.7275	967.1223	1874.35	1009.15
849.8727	969.1321	1873.55	1009.7
850.0178	971.1412	1864.95	1000.15
850.1629	973.1495	1862.45	996.45
850.3081	975.1572	1909.55	989.85
850.4532	977.1641	1871.3	1006.75
850.5983	979.1704	1861.8	995.25
850.7435	981.1759	1859.3	990.35
850.8886	983.1808	1844.55	977.55
851.0337	985.1849	1848.1	969.3
851.1788	987.1884	1839.4	971.35
851.324	989.1911	1846.85	976.5
851.4691	991.1932	1836.45	968.1
851.6142	993.1945	1851.2	982.95
851.7593	995.1951	1846.95	978.55
851.9045	997.1951	1843.2	970.15
852.0496	999.1943	1832.7	966.05
852.1947	1001.1928	1839.3	970.9
852.3398	1003.1906	1845.6	979.25
852.4849	1005.1877	1863.3	994
852.63	1007.1841	1882.55	1015.8
852.7751	1009.1798	1899.45	1032.25
852.9202	1011.1748	1888.1	1020.65
853.0653	1013.1691	1864.65	995.05
853.2104	1015.1627	1836.35	970.4
853.3555	1017.1556	1811.75	944.05
853.5006	1019.1477	1789.1	919.35
853.6457	1021.1392	1775.2	907.8
853.7908	1023.1299	1766.65	896.9
853.9359	1025.12	1757.85	886.45
854.081	1027.1093	1771.25	902.9
854.2261	1029.0979	1771	903.1
854.3712	1031.0859	1796.85	931.7
854.5163	1033.0731	1810.6	941.1
854.6613	1035.0596	1814	944.55
854.8064	1037.0454	1804.3	933.05
854.9515	1039.0304	1796.55	924.55
855.0965	1041.0148	1770.9	902.85
855.2416	1042.9985	1754.65	883.75
855.3867	1044.9814	1734.85	865.85
855.5317	1046.9636	1725.35	854.35
855.6768	1048.9452	1739.5	871.85
855.8219	1050.926	1753.1	886.75
855.9669	1052.9061	1764.45	895.85
856.112	1054.8855	1767.6	897.75
856.257	1056.8642	1765.95	895.9
856.4021	1058.8421	1771.6	897.1
856.5471	1060.8194	1753.5	882.25
856.6921	1062.7959	1763.15	892.65
856.8372	1064.7717	1757.75	886
856.9822	1066.7469	1757.5	886.4
857.1272	1068.7213	1762.1	887.7
857.2723	1070.695	1760.65	891.35
857.4173	1072.6679	1775.1	903.75
857.5623	1074.6402	1801.2	929.15
857.7073	1076.6117	1816.75	940.85
857.8523	1078.5826	1797.15	924.95
857.9973	1080.5527	1760.3	884.7
858.1423	1082.5221	1731.75	858.55
858.2873	1084.4908	1706.1	834.4
858.4323	1086.4587	1692.65	819.8
858.5773	1088.426	1687.9	814.75
858.7223	1090.3925	1679	802.25
858.8673	1092.3584	1686.25	814.35
859.0123	1094.3235	1687	814.45
859.1573	1096.2879	1702.85	830.5
859.3022	1098.2515	1713.3	841.1
859.4472	1100.2145	1738.15	866.35
859.5922	1102.1767	1763	887.75
859.7371	1104.1382	1783.95	909.25
859.8821	1106.099	1840.7	965.5
860.027	1108.0591	1872.1	998.85
860.172	1110.0185	1909.15	1036.35
860.3169	1111.9771	1933.25	1062.35
860.4619	1113.9351	1962.75	1089.4
860.6068	1115.8923	2025.2	1151.4
860.7517	1117.8488	2065.6	1190.8
860.8967	1119.8045	2038.3	1165.2
861.0416	1121.7596	1964.5	1087.95
861.1865	1123.7139	1857.5	983.05
861.3314	1125.6675	1803.9	930.2
861.4763	1127.6204	1798.35	925.6
861.6212	1129.5726	1824	947.55
861.7661	1131.524	1823.7	950.7
861.911	1133.4748	1789.6	916.1
862.0559	1135.4248	1736.2	860.35
862.2008	1137.3741	1693.95	820.5
862.3457	1139.3226	1673.65	796.9
862.4905	1141.2705	1662.5	786.75
862.6354	1143.2176	1682.85	802.75
862.7803	1145.164	1680.3	803.15
862.9251	1147.1097	1689.05	812.6
863.07	1149.0546	1672.6	796.2
863.2148	1150.9989	1657.35	782.1
863.3597	1152.9424	1633.15	757.1
863.5045	1154.8852	1625	748.45
863.6493	1156.8272	1617.65	742
863.7942	1158.7686	1613.05	729.05
863.939	1160.7092	1614.35	739.85
864.0838	1162.6491	1611.95	735.8
864.2286	1164.5883	1616.75	740.75
864.3734	1166.5267	1623.2	744.45
864.5182	1168.4644	1637.5	762.25
864.663	1170.4014	1667.4	785.6
864.8078	1172.3377	1687.65	814.15
864.9526	1174.2732	1721.75	846
865.0974	1176.2081	1790.25	914.55
865.2421	1178.1421	1876.2	994.35
865.3869	1180.0755	1992.1	1117.6
865.5317	1182.0082	2064.7	1188.7
865.6764	1183.9401	2061.2	1181.95
865.8212	1185.8713	1992.7	1115.85
865.9659	1187.8017	1881.8	1005.8
866.1106	1189.7315	1784.55	909.85
866.2554	1191.6605	1749.4	843.3
866.4001	1193.5888	1674.65	797.1
866.5448	1195.5163	1648.55	772.5
866.6895	1197.4432	1634.05	755.2
866.8342	1199.3693	1606.5	730.05
866.9789	1201.2947	1602.2	715.8
867.1236	1203.2193	1594.4	716.3
867.2683	1205.1432	1592.75	714.75
867.413	1207.0664	1578.7	700.95
867.5576	1208.9889	1584.7	705.15
867.7023	1210.9106	1581.55	705.25
867.847	1212.8316	1584.5	707.25
867.9916	1214.7519	1593.15	708.5
868.1363	1216.6715	1598.25	723.65
868.2809	1218.5903	1606.9	731.65
868.4255	1220.5084	1603.5	725.85
868.5701	1222.4257	1619.45	740.2
868.7148	1224.3424	1619.75	742.25
868.8594	1226.2583	1637.1	756.8
869.004	1228.1735	1657.5	778.1
869.1486	1230.0879	1678.35	800.7
869.2932	1232.0016	1715.05	838.9
869.4377	1233.9146	1739.4	858.65
869.5823	1235.8269	1754.7	877.25
869.7269	1237.7384	1757.45	877.9
869.8715	1239.6492	1752.65	874.55
870.016	1241.5592	1756.35	875.35
870.1606	1243.4686	1780.85	902.8
870.3051	1245.3772	1845.5	966
870.4496	1247.285	1902	1022.65
870.5941	1249.1922	1961.9	1083.5
870.7387	1251.0986	2018.25	1141.7
870.8832	1253.0042	2078.8	1201.1
871.0277	1254.9092	2137.1	1258.45
871.1722	1256.8134	2215.8	1337.25
871.3167	1258.7169	2284.1	1404.7
871.4611	1260.6196	2349.75	1471.4
871.6056	1262.5216	2393.1	1511.35
871.7501	1264.4229	2388.6	1511.45
871.8945	1266.3234	2374.05	1495.15
872.039	1268.2232	2335.45	1456.65
872.1834	1270.1223	2264.95	1384.15
872.3278	1272.0207	2245.2	1366.2
872.4723	1273.9183	2223.75	1337.5
872.6167	1275.8151	2215.8	1337.1
872.7611	1277.7113	2234.25	1354.25
872.9055	1279.6067	2302.4	1422.55
873.0499	1281.5014	2401.05	1519.7
873.1943	1283.3953	2554.55	1673.2
873.3386	1285.2885	2720.95	1842.65
873.483	1287.181	2862.15	1982.3
873.6274	1289.0727	2937.25	2058.05
873.7717	1290.9637	2899.75	2020.9
873.9161	1292.854	2802.75	1922.85
874.0604	1294.7435	2685.55	1803.9
874.2047	1296.6323	2571.4	1690.95
874.349	1298.5204	2475.65	1592.55
874.4933	1300.4077	2404.1	1522.55
874.6376	1302.2943	2349.1	1470.5
874.7819	1304.1802	2323.5	1443.9
874.9262	1306.0653	2280.1	1398
875.0705	1307.9497	2252.75	1372.15
875.2147	1309.8333	2246.35	1366.5
875.359	1311.7162	2223.45	1344.3
875.5032	1313.5984	2186.75	1303.15
875.6475	1315.4798	2194.8	1304.5
875.7917	1317.3605	2202.95	1306.15
875.9359	1319.2405	2206.85	1325.15
876.0801	1321.1197	2213.9	1332.85
876.2243	1322.9982	2189.7	1302.65
876.3685	1324.876	2144.7	1264.95
876.5127	1326.753	2082.55	1203.45
876.6569	1328.6293	2003.1	1119.15
876.801	1330.5048	1920.8	1038.85
876.9452	1332.3796	1846	966.5
877.0893	1334.2537	1807.85	898.65
877.2335	1336.127	1752.95	873.9
877.3776	1337.9996	1717.6	837.95
877.5217	1339.8714	1710.75	830.1
877.6658	1341.7426	1734.45	810
877.8099	1343.6129	1675.15	792.75
877.954	1345.4826	1661.95	781
878.0981	1347.3515	1644.95	759.75
878.2422	1349.2196	1636.15	754.15
878.3862	1351.087	1630.6	749.5
878.5303	1352.9537	1621.9	740.25
878.6743	1354.8197	1623.8	743.2
878.8184	1356.6849	1628.95	746.05
878.9624	1358.5493	1635.7	753.95
879.1064	1360.4131	1651.55	770.2
879.2504	1362.276	1680.9	801.4
879.3944	1364.1383	1709.6	829.95
879.5384	1365.9998	1735.85	848.25
879.6823	1367.8606	1717.2	836.95
879.8263	1369.7206	1712.45	831.5
879.9702	1371.5799	1718.15	835.05
880.1142	1373.4384	1714.1	832.25
880.2581	1375.2962	1705.85	823.05
880.402	1377.1533	1658.15	776.3
880.5459	1379.0096	1615.05	732.65
880.6898	1380.8652	1583.6	700.7
880.8337	1382.7201	1566.25	683.65
880.9776	1384.5742	1546.9	664
881.1215	1386.4275	1532.55	649.25
881.2653	1388.2802	1509.15	630.35
881.4092	1390.132	1495.2	613.3
881.553	1391.9832	1491.3	608.8
881.6968	1393.8336	1480.85	598.55
881.8406	1395.6832	1488	603.5
881.9844	1397.5322	1471.8	590.5
882.1282	1399.3803	1478.4	592.85
882.272	1401.2278	1453.95	571.15
882.4158	1403.0745	1444.4	560.85
882.5595	1404.9204	1443.65	561.05
882.7033	1406.7656	1436.95	557
882.847	1408.6101	1432.25	548.95
882.9908	1410.4538	1434.05	550.55
883.1345	1412.2968	1428.6	546.3
883.2782	1414.139	1435.65	554.85
883.4219	1415.9805	1438.65	556.95
883.5656	1417.8213	1453.2	563.7
883.7092	1419.6613	1450.8	568.9
883.8529	1421.5006	1478.45	595.2
883.9965	1423.3391	1496.4	614.95
884.1402	1425.1769	1542.45	657.9
884.2838	1427.0139	1604.9	724.3
884.4274	1428.8502	1674.6	789.9
884.571	1430.6858	1728.35	845.3
884.7146	1432.5206	1752.3	869.65
884.8582	1434.3547	1740.2	858.4
885.0018	1436.188	1732.1	849.55
885.1453	1438.0206	1715.15	832.95
885.2889	1439.8524	1717.6	832.2
885.4324	1441.6835	1703.1	820.7
885.5759	1443.5139	1709.4	822.2
885.7194	1445.3435	1705.55	822.15
885.8629	1447.1724	1699.9	816.55
886.0064	1449.0005	1703	818.35
886.1499	1450.8279	1700.65	813.5
886.2933	1452.6545	1698.05	814.75
886.4368	1454.4804	1695.85	813.55
886.5802	1456.3056	1692.05	802.35
886.7237	1458.13	1667.05	786.7
886.8671	1459.9536	1656.95	775.4
887.0105	1461.7766	1626.8	744
887.1539	1463.5987	1594.4	708.6
887.2972	1465.4202	1563	680.4
887.4406	1467.2409	1536.15	653.05
887.584	1469.0608	1514.7	633.85
887.7273	1470.88	1488.35	603.2
887.8706	1472.6984	1461.6	579.65
888.0139	1474.5161	1442.15	556.6
888.1572	1476.3331	1439.95	558.2
888.3005	1478.1493	1418.75	535
888.4438	1479.9648	1411.65	528.05
888.5871	1481.7795	1420.05	535.75
888.7303	1483.5935	1414.25	530.1
888.8736	1485.4067	1419.55	535.4
889.0168	1487.2192	1423.7	539.8
889.16	1489.031	1427.8	544.1
889.3032	1490.842	1417.3	533.5
889.4464	1492.6522	1416.6	532.6
889.5896	1494.4618	1415.45	531.7
889.7327	1496.2705	1411.5	527.75
889.8759	1498.0785	1405.2	522.05
890.019	1499.8858	1408.5	523.85
890.1622	1501.6924	1400.9	518.45
890.3053	1503.4981	1393.15	510.2
890.4484	1505.3032	1394.5	509.9
890.5914	1507.1075	1382.85	498.4
890.7345	1508.911	1381.8	495.4
890.8776	1510.7138	1377.1	493
891.0206	1512.5159	1373.75	489.85
891.1637	1514.3172	1365.7	483.3
891.3067	1516.1178	1361.2	477.6
891.4497	1517.9176	1358.2	471.85
891.5927	1519.7166	1351.25	468.25
891.7357	1521.515	1351.8	460.45
891.8786	1523.3126	1338.2	453.25
892.0216	1525.1094	1335.5	449.05
892.1645	1526.9055	1335.45	453.6
892.3074	1528.7008	1330.4	446.05
892.4503	1530.4954	1332.95	441.1
892.5932	1532.2893	1325.7	443.15
892.7361	1534.0824	1320	431.7
892.879	1535.8747	1323.2	438.2
893.0218	1537.6663	1328.1	441.55
893.1647	1539.4572	1318.25	432.65
893.3075	1541.2473	1320.8	435.35
893.4503	1543.0367	1318.45	436.05
893.5931	1544.8253	1321.9	432.75
893.7359	1546.6132	1325.95	439.8
893.8787	1548.4003	1327.15	433.7
894.0214	1550.1867	1336	442.45
894.1642	1551.9723	1338.3	448.4
894.3069	1553.7572	1340.25	454.4
894.4496	1555.5414	1356.6	472.1
894.5923	1557.3247	1373.85	489.2
894.735	1559.1074	1397.85	514.75
894.8777	1560.8893	1424.95	540.55
895.0204	1562.6705	1453.4	569.3
895.163	1564.4509	1478.45	594.55
895.3056	1566.2305	1487.6	604.85
895.4482	1568.0094	1491.55	607.7
895.5908	1569.7876	1490.8	605.45
895.7334	1571.565	1479	593.85
895.876	1573.3417	1486.2	600.55
896.0186	1575.1176	1492.7	608.4
896.1611	1576.8928	1505.35	621.65
896.3036	1578.6672	1523.55	641.15
896.4461	1580.4409	1537.65	654.35
896.5886	1582.2138	1570.85	683.25
896.7311	1583.986	1600.7	716.1
896.8736	1585.7575	1627.95	744.95
897.0161	1587.5282	1661.5	778.05
897.1585	1589.2981	1677.4	792.3
897.3009	1591.0673	1688.35	803.4
897.4433	1592.8358	1701.15	818.45
897.5857	1594.6035	1694.85	809.25
897.7281	1596.3704	1680	793.8
897.8705	1598.1366	1662.55	778.1
898.0128	1599.9021	1636.25	751.7
898.1551	1601.6668	1617.75	728.9
898.2975	1603.4308	1594.55	708.5
898.4398	1605.194	1594.7	705.6
898.5821	1606.9564	1601.7	716.75
898.7243	1608.7182	1647.45	758.2
898.8666	1610.4791	1705.15	819.6
899.0088	1612.2394	1782.15	897.6
899.1511	1613.9988	1874.1	988.7
899.2933	1615.7576	1941.15	1056.6
899.4355	1617.5156	1991.2	1100.3
899.5776	1619.2728	1976.95	1090.6
899.7198	1621.0293	1915.2	1031.3
899.862	1622.785	1834.45	942.3
900.0041	1624.54	1732.8	843.6
900.1462	1626.2942	1638	751.85
900.2883	1628.0477	1557.75	670.25
900.4304	1629.8005	1490.4	600.8
900.5725	1631.5525	1437.6	552.85
900.7145	1633.3037	1388.8	502.95
900.8566	1635.0542	1361.95	476.95
900.9986	1636.804	1342.8	457.35
901.1406	1638.553	1372.8	423.75
901.2826	1640.3013	1292.15	406.6
901.4245	1642.0488	1282.3	394
901.5665	1643.7955	1264.95	380.8
901.7085	1645.5416	1255.4	371.1
901.8504	1647.2868	1244.1	358.9
901.9923	1649.0313	1245.85	360.85
902.1342	1650.7751	1240.7	351.3
902.2761	1652.5181	1235.1	351.3
902.4179	1654.2604	1238.8	352.75
902.5598	1656.0019	1237.6	353.5
902.7016	1657.7427	1246.65	360.25
902.8434	1659.4828	1252.2	367.35
902.9852	1661.222	1276.55	391
903.127	1662.9606	1302.15	417.9
903.2687	1664.6984	1327.9	442.55
903.4105	1666.4354	1347.35	462.1
903.5522	1668.1717	1340.75	455.85
903.6939	1669.9072	1314.6	428.9
903.8356	1671.642	1283.35	394.9
903.9773	1673.3761	1247.45	362.85
904.119	1675.1094	1224.1	339
904.2606	1676.8419	1205.9	320.2
904.4022	1678.5737	1198.75	314.35
904.5439	1680.3048	1182.25	297.35
904.6855	1682.0351	1177.4	292.15
904.827	1683.7646	1175.3	285.8
904.9686	1685.4934	1164.05	278.2
905.1101	1687.2215	1164.7	281.25
905.2517	1688.9488	1158.35	273.8
905.3932	1690.6754	1153.45	270.4
905.5347	1692.4012	1157.8	272.5
905.6761	1694.1263	1154.3	267.95
905.8176	1695.8506	1151.5	263.75
905.9591	1697.5742	1146.95	262.1
906.1005	1699.297	1147.95	261.55
906.2419	1701.0191	1140.65	252.3
906.3833	1702.7404	1139.6	254.9
906.5246	1704.461	1146.15	260.4
906.666	1706.1808	1140.6	254.75
906.8073	1707.8999	1135.2	250.6
906.9487	1709.6182	1138.35	253
907.09	1711.3358	1138.25	251.95
907.2313	1713.0527	1130.1	245.15
907.3725	1714.7688	1135.45	244.5
907.5138	1716.4841	1129.55	240.95
907.655	1718.1987	1139.15	247.35
907.7962	1719.9126	1126.05	240.6
907.9374	1721.6257	1127.5	238.95
908.0786	1723.338	1131.9	244.9
908.2198	1725.0496	1126.5	240.4
908.3609	1726.7605	1126.9	241.1
908.502	1728.4706	1128.95	242.2
908.6431	1730.18	1123.35	234.35
908.7842	1731.8886	1116	230.5
908.9253	1733.5964	1138.35	230.35
909.0664	1735.3036	1126.6	237.45
909.2074	1737.0099	1119.25	233.15
909.3484	1738.7156	1119.8	235.8
909.4894	1740.4204	1122.4	234.05
909.6304	1742.1246	1111.45	224.85
909.7714	1743.8279	1113.25	227.45
909.9123	1745.5306	1112.55	225.25
910.0532	1747.2325	1117.45	232.35
910.1941	1748.9336	1112.55	226.25
910.335	1750.634	1113.95	227.05
910.4759	1752.3336	1112	226.1
910.6168	1754.0325	1113	229.15
910.7576	1755.7307	1117.35	231.4
910.8984	1757.4281	1114.1	227.55
911.0392	1759.1247	1120	224.3
911.18	1760.8206	1113.75	223.45
911.3208	1762.5158	1120.65	229.75
911.4615	1764.2102	1110.75	225.05
911.6022	1765.9039	1106.85	219.75
911.7429	1767.5968	1107.6	222.25
911.8836	1769.289	1108.85	222.25
912.0243	1770.9804	1109.6	221.05
912.1649	1772.6711	1110.75	224.25
912.3056	1774.361	1106.25	219.55
912.4462	1776.0502	1106.7	221.7
912.5868	1777.7386	1107.8	217.55
912.7274	1779.4263	1111.15	223.2
912.8679	1781.1132	1107.8	222.1
913.0084	1782.7994	1108.8	221.05
913.149	1784.4849	1100.1	214.7
913.2895	1786.1696	1105.8	211.65
913.4299	1787.8535	1102.1	216.65
913.5704	1789.5367	1101.95	215
913.7108	1791.2192	1102.05	216.35
913.8513	1792.9009	1112.6	211.35
913.9917	1794.5818	1097	209.45
914.132	1796.2621	1100.65	215.05
914.2724	1797.9415	1094.1	206.65
914.4128	1799.6202	1095.15	206.95
914.5531	1801.2982	1095	208.45
914.6934	1802.9755	1097.45	211.05
914.8337	1804.6519	1094.65	209.8
914.9739	1806.3277	1098.7	212.25
915.1142	1808.0027	1091.25	204.35
915.2544	1809.6769	1090.4	202.65
915.3946	1811.3504	1097.2	209
915.5348	1813.0231	1093.5	205.9
915.675	1814.6951	1092.7	205.85
915.8151	1816.3664	1095.9	206.6
915.9553	1818.0369	1091.35	204.35
916.0954	1819.7067	1088.2	203.7
916.2355	1821.3757	1095.2	208.25
916.3755	1823.044	1087.4	201.4
916.5156	1824.7115	1092.95	207.8
916.6556	1826.3783	1086.95	202.3
916.7956	1828.0443	1085.4	201.35
916.9356	1829.7096	1087.3	198.1
917.0756	1831.3741	1091.9	203.55
917.2155	1833.0379	1083.2	196.8
917.3555	1834.701	1086.6	199.05
917.4954	1836.3633	1085.8	199.6
917.6353	1838.0248	1085.85	197.95
917.7751	1839.6856	1082.75	196.35
917.915	1841.3457	1082.1	196.75
918.0548	1843.005	1078.7	191.6
918.1946	1844.6636	1084.35	200.15
918.3344	1846.3214	1082.4	198
918.4742	1847.9785	1079.55	192.9
918.6139	1849.6349	1079.75	192.85
918.7537	1851.2904	1090.1	192.45
918.8934	1852.9453	1079.6	194.3
919.0331	1854.5994	1078.4	190.3
919.1727	1856.2528	1084.25	196.3
919.3124	1857.9054	1078.8	192.2
919.452	1859.5572	1078.6	193.25
919.5916	1861.2083	1078.8	191.75
919.7312	1862.8587	1078.9	191.15
919.8708	1864.5084	1080	193.85
920.0103	1866.1572	1082.25	196.65
920.1498	1867.8054	1077.2	191.95
920.2893	1869.4528	1079.8	193.8
920.4288	1871.0994	1077.8	191.75
920.5683	1872.7453	1072.7	187.15
920.7077	1874.3905	1084.5	190.75
920.8471	1876.0349	1077.35	190.3
920.9865	1877.6786	1076.75	190.8
921.1259	1879.3215	1075.85	190.35
921.2653	1880.9637	1071	183.15
921.4046	1882.6051	1075.5	191.45
921.5439	1884.2458	1075.5	187.6
921.6832	1885.8858	1070	183.05
921.8225	1887.525	1070.85	184.55
921.9617	1889.1634	1068.7	183.5
922.101	1890.8011	1072.6	187.35
922.2402	1892.4381	1071.15	185.5
922.3794	1894.0743	1070.2	185.1
922.5185	1895.7098	1067.7	182
922.6577	1897.3446	1070.65	184
922.7968	1898.9786	1074.65	183.2
922.9359	1900.6118	1068.65	183.45
923.075	1902.2443	1064.1	174.95
923.214	1903.8761	1070.45	185.2
923.3531	1905.5071	1066.6	180.1
923.4921	1907.1374	1065.8	180.3
923.6311	1908.7669	1065.65	180.05
923.77	1910.3957	1066.9	180.85
923.909	1912.0237	1061.85	175
924.0479	1913.651	1068.25	181.85
924.1868	1915.2776	1058.65	174.2
924.3257	1916.9034	1057.1	170.95
924.4646	1918.5285	1059.6	173.9
924.6034	1920.1528	1064.45	176.3
924.7422	1921.7764	1057.1	171.2
924.881	1923.3992	1058.5	174.75
925.0198	1925.0213	1060.55	173.6
925.1586	1926.6427	1057.45	172.35
925.2973	1928.2633	1141.5	170.2
925.436	1929.8832	1059.75	172.15
925.5747	1931.5023	1057.9	170.5
925.7134	1933.1207	1056.9	170.85
925.852	1934.7383	1057.7	169.5
925.9906	1936.3552	1054.95	168.7
926.1292	1937.9714	1054.8	167.3
926.2678	1939.5868	1055.7	167.8
926.4064	1941.2015	1054.7	166.8
926.5449	1942.8154	1055.15	167
926.6834	1944.4286	1052.7	166.75
926.8219	1946.041	1073.05	162.9
926.9604	1947.6528	1054.85	165.05
927.0988	1949.2637	1051.65	167.95
927.2372	1950.8739	1051.2	163.7
927.3756	1952.4834	1048.65	162.8
927.514	1954.0921	1051.15	163.95
927.6523	1955.7001	1056.75	164.1
927.7907	1957.3074	1050.5	166.05
927.929	1958.9139	1048.7	160.6
928.0673	1960.5197	1046.25	156.35
928.2055	1962.1247	1048.35	162.25
928.3438	1963.729	1048	163.25
928.482	1965.3325	1066.35	155.75
928.6202	1966.9353	1043.55	156.15
928.7584	1968.5374	1045.35	157.65
928.8965	1970.1387	1046.95	159.85
929.0346	1971.7393	1043.2	156
929.1727	1973.3392	1046.25	159.25
929.3108	1974.9383	1042.75	156.95
929.4489	1976.5366	1045.3	159.1
929.5869	1978.1342	1043.05	156.15
929.7249	1979.7311	1041.75	154.25
929.8629	1981.3273	1044.4	159.3
930.0009	1982.9227	1043.5	157.25
930.1388	1984.5173	1044.25	156.95
930.2767	1986.1112	1040.35	154.15
930.4146	1987.7044	1038.6	153.55
930.5525	1989.2968	1040.2	153.45
930.6904	1990.8885	1043.85	153.85
930.8282	1992.4795	1042.8	154.8
930.966	1994.0697	1040.9	153.8
931.1038	1995.6592	1036.15	149.8
931.2415	1997.2479	1039.25	153.4
931.3793	1998.8359	1038.05	149.95
931.517	2000.4232	1038.75	152.7
931.6547	2002.0097	1034.65	150.95
931.7923	2003.5955	1035.8	148.4
931.93	2005.1805	1043.3	155.3
932.0676	2006.7648	1040.15	154.25
932.2052	2008.3484	1038.55	149.7
932.3427	2009.9312	1040.3	152.7
932.4803	2011.5133	1034.1	147.8
932.6178	2013.0946	1030.2	143.55
932.7553	2014.6752	1035.65	149.75
932.8928	2016.2551	1034.4	148.15
933.0302	2017.8342	1033.2	145.05
933.1676	2019.4126	1034.55	149.65
933.305	2020.9902	1032.75	144.05
933.4424	2022.5672	1036.85	147.9
933.5798	2024.1433	1038.2	147.2
933.7171	2025.7188	1031.9	146
933.8544	2027.2935	1032.75	143.55
933.9917	2028.8674	1030.8	145.5
934.129	2030.4406	1031.95	146.7
934.2662	2032.0131	1029.7	144.85
934.4034	2033.5849	1038.25	143.4
934.5406	2035.1559	1034.6	146.6
934.6778	2036.7261	1030.5	145.9
934.8149	2038.2957	1028.45	142.15
934.952	2039.8645	1030.15	144.45
935.0891	2041.4325	1033.05	143.3
935.2262	2042.9998	1028	141.3
935.3632	2044.5664	1035.6	147.35
935.5002	2046.1323	1031.15	143.65
935.6372	2047.6974	1027.25	139.9
935.7742	2049.2617	1034.6	148.8
935.9111	2050.8254	1063.25	144.05
936.048	2052.3883	1033.25	144.5
936.1849	2053.9504	1035.8	148.75
936.3218	2055.5118	1029.65	142.35
936.4586	2057.0725	1035	142.3
936.5955	2058.6325	1029.7	141.2
936.7323	2060.1917	1027.7	140.5
936.869	2061.7502	1028.9	140.1
937.0058	2063.3079	1029.7	143.7
937.1425	2064.8649	1028.55	140.3
937.2792	2066.4212	1028.7	141.55
937.4159	2067.9767	1029.7	142.25
937.5525	2069.5315	1029.85	141.85
937.6891	2071.0856	1028.1	140.2
937.8257	2072.6389	1028.2	140.9
937.9623	2074.1915	1023.3	137.65
938.0989	2075.7433	1029.25	140.75
938.2354	2077.2945	1025.15	140.85
938.3719	2078.8448	1026.3	141.25
938.5084	2080.3945	1026.15	137.6
938.6448	2081.9434	1026.45	140.25
938.7812	2083.4916	1024.35	137.1
938.9176	2085.039	1027.5	138.5
939.054	2086.5857	1024.55	136.95
939.1903	2088.1317	1022.4	135.35
939.3267	2089.677	1022.7	135.6
939.463	2091.2215	1021.6	135.85
939.5992	2092.7652	1024.8	137.5
939.7355	2094.3083	1025.35	138.95
939.8717	2095.8506	1020.45	136.2
940.0079	2097.3921	1020.2	135.4
940.1441	2098.933	1017.75	130.8
940.2802	2100.4731	1021.1	134.5
940.4163	2102.0124	1028.25	133.85
940.5524	2103.5511	1022.75	136.85
940.6885	2105.089	1021	133.95
940.8245	2106.6261	1023.25	137.8
940.9606	2108.1626	1024.85	138.3
941.0965	2109.6983	1053.15	137.85
941.2325	2111.2332	1021.75	134.65
941.3684	2112.7675	1021.65	135.55
941.5044	2114.301	1021.1	133.45
941.6403	2115.8337	1021.2	133.5
941.7761	2117.3657	1021	134.05
941.912	2118.897	1023.85	136.35
942.0478	2120.4276	1026.8	136
942.1835	2121.9575	1021.15	132.8
942.3193	2123.4866	1033.35	132.55
942.455	2125.0149	1024.15	135.75
942.5907	2126.5426	1013.95	127.15
942.7264	2128.0695	1027.7	138.7
942.8621	2129.5956	1018.1	132.15
942.9977	2131.1211	1023.7	132.85
943.1333	2132.6458	1020.7	132.5
943.2689	2134.1698	1020.6	135.5
943.4044	2135.693	1023.05	134
943.54	2137.2155	1022.85	134.95
943.6755	2138.7373	1019.85	133.45
943.8109	2140.2584	1018.95	132.8
943.9464	2141.7787	1024.2	132.8
944.0818	2143.2983	1015.75	129.55
944.2172	2144.8171	1015.45	128.2
944.3526	2146.3353	1023.7	134.25
944.4879	2147.8527	1018.1	133.3
944.6232	2149.3693	1014.75	129.25
944.7585	2150.8853	1017.5	131.1
944.8938	2152.4005	1017.75	129.6
945.029	2153.9149	1013.6	126.95
945.1642	2155.4287	1014.7	131.3
945.2994	2156.9417	1013.35	125.65
945.4346	2158.454	1019.55	131.8
945.5697	2159.9655	1017.65	132
945.7048	2161.4764	1015.05	129.65
945.8399	2162.9865	1013.65	125.85
945.9749	2164.4958	1014.8	124.75
946.1099	2166.0045	1018.95	129
946.2449	2167.5124	1013.6	124.65
946.3799	2169.0195	1012.8	125.05
946.5148	2170.526	1017.9	131.05
946.6498	2172.0317	1015.8	127.65
946.7846	2173.5367	1010.6	123.2
946.9195	2175.0409	1015.35	129.6
947.0543	2176.5445	1005.6	121.45
947.1891	2178.0473	1012.25	125.05
947.3239	2179.5494	1016.5	124.2
947.4587	2181.0507	1010.25	123.4
947.5934	2182.5513	1016.85	129.65
947.7281	2184.0512	1015.3	128.2
947.8628	2185.5504	1011.05	125.85
947.9974	2187.0488	1013.85	127.35
948.132	2188.5465	1006.5	119.55
948.2666	2190.0435	1010.9	122.8
948.4012	2191.5397	1007.3	121.8
948.5357	2193.0353	1009.25	122.35
948.6702	2194.5301	1010.85	122.3
948.8047	2196.0241	1010	124.75
948.9392	2197.5175	1011.3	124.7
949.0736	2199.0101	1017.7	128.9
949.208	2200.502	1009.6	123.3
949.3424	2201.9931	1011.65	123.4
949.4767	2203.4835	1007	119.1
949.611	2204.9733	1016.2	124.95
949.7453	2206.4622	1009.45	123
949.8796	2207.9505	1008.05	117.05
950.0138	2209.438	1007.75	122.45
950.148	2210.9248	1008.6	120.6
950.2822	2212.4109	1004.85	118.85
950.4164	2213.8962	1008.7	119.35
950.5505	2215.3809	1007.3	119.05
950.6846	2216.8648	1006.3	118.95
950.8186	2218.3479	1007.9	117.55
950.9527	2219.8304	1006.85	117.4
951.0867	2221.3121	1004.1	116.6
951.2207	2222.7931	1004.2	117.6
951.3546	2224.2733	1008.85	122.05
951.4886	2225.7529	998.7	112.75
951.6225	2227.2317	1006.7	116.25
951.7563	2228.7098	1002.9	115.55
951.8902	2230.1872	1000.5	112.65
952.024	2231.6638	1000.3	111.85
952.1578	2233.1397	1007	115.2
952.2916	2234.6149	1003	116.55
952.4253	2236.0894	999.3	112.15
952.559	2237.5632	1010.95	111.9
952.6927	2239.0362	1000	112.55
952.8263	2240.5085	1001.9	113.75
952.9599	2241.9801	997.45	111.3
953.0935	2243.4509	998.45	113.3
953.2271	2244.921	998.55	113.2
953.3606	2246.3904	996.85	107.6
953.4941	2247.8591	998.1	112.65
953.6276	2249.3271	994.85	108.85
953.7611	2250.7943	996.85	109.7
953.8945	2252.2608	996.45	110
954.0279	2253.7266	998.95	113.65
954.1612	2255.1917	991.75	104.6
954.2946	2256.656	993.3	104.65
954.4279	2258.1197	992.4	107.35
954.5612	2259.5826	994.55	105.65
954.6944	2261.0447	998.9	110.95
954.8276	2262.5062	996.25	108.75
954.9608	2263.9669	995.9	107.2
955.094	2265.4269	993.15	108.95
955.2271	2266.8862	995.9	107.6
955.3602	2268.3448	993.4	106.55
955.4933	2269.8026	993.3	105.15
955.6264	2271.2598	996.9	110.3
955.7594	2272.7162	993.35	106.05
955.8924	2274.1719	994.05	106.15
956.0253	2275.6268	992.5	106.7
956.1583	2277.0811	989.95	103.65
956.2912	2278.5346	993.95	107.15
956.4241	2279.9874	991	102
956.5569	2281.4395	994.9	110
956.6897	2282.8908	997.25	105.4
956.8225	2284.3414	993.4	105.3
956.9553	2285.7914	989.25	102.55
957.088	2287.2406	990.4	102.55
957.2207	2288.689	988.85	103.5
957.3534	2290.1368	992.55	106.5
957.486	2291.5838	992.1	105.7
957.6186	2293.0302	993.3	105.95
957.7512	2294.4758	988.7	103.1
957.8838	2295.9206	992.2	103.85
958.0163	2297.3648	991.3	104.3
958.1488	2298.8082	994.1	106.95
958.2813	2300.251	993.15	106.3
958.4137	2301.693	991.7	103.6
958.5461	2303.1343	990.5	102.35
958.6785	2304.5748	987.4	101.15
958.8108	2306.0147	990.8	102.45
958.9432	2307.4538	990.05	98.1
959.0754	2308.8922	987.7	101.5
959.2077	2310.3299	990.8	106.05
959.3399	2311.7669	989.2	101.85
959.4721	2313.2031	989.8	102.65
959.6043	2314.6387	985.55	98.25
959.7365	2316.0735	985.6	99.1
959.8686	2317.5076	983.8	97.8
960.0006	2318.941	984.2	98.05
960.1327	2320.3737	989.8	101.35
960.2647	2321.8056	991	102.55
960.3967	2323.2369	988.3	100
960.5287	2324.6674	987.25	100.25
960.6606	2326.0972	988.3	102.45
960.7925	2327.5263	992.1	107.45
960.9244	2328.9547	991.75	105.05
961.0562	2330.3823	991.4	104.5
961.1881	2331.8092	991.1	100.7
961.3198	2333.2355	990	104.05
961.4516	2334.661	986.85	99.5
961.5833	2336.0858	985.1	96.6
961.715	2337.5098	980.05	93
961.8467	2338.9332	980.7	94.65
961.9783	2340.3558	985.6	95.4
962.1099	2341.7778	983	96.45
962.2415	2343.199	985.4	97.15
962.373	2344.6195	981.8	95.8
962.5045	2346.0393	981	95.4
962.636	2347.4583	981.55	93.4
962.7675	2348.8767	976.4	88.25
962.8989	2350.2943	982.35	96.45
963.0303	2351.7113	982.65	94.6
963.1617	2353.1275	980.5	92.6
963.293	2354.543	1005.2	95.05
963.4243	2355.9578	982.45	94
963.5556	2357.3718	978.95	91.55
963.6868	2358.7852	980.4	88.65
963.818	2360.1978	980.85	93.05
963.9492	2361.6098	977.7	91.55
964.0803	2363.021	980.95	89.85
964.2114	2364.4315	977.85	92.2
964.3425	2365.8413	978.55	91.95
964.4736	2367.2504	976.3	89.85
964.6046	2368.6587	979.45	94.8
964.7356	2370.0664	978.2	91.85
964.8666	2371.4733	977.9	89.75
964.9975	2372.8795	975.5	87.65
965.1284	2374.285	978.7	90.3
965.2593	2375.6899	976.9	91.6
965.3901	2377.0939	974.6	88.85
965.5209	2378.4973	975.85	89.5
965.6517	2379.9	974.95	87.2
965.7825	2381.3019	976	90.55
965.9132	2382.7032	973.45	86.65
966.0439	2384.1037	974.5	88.6
966.1745	2385.5035	974.55	86.9
966.3051	2386.9027	973.4	85.8
966.4357	2388.3011	978.85	88.7
966.5663	2389.6987	970.95	84.6
966.6968	2391.0957	971.75	83.8
966.8273	2392.492	972.2	85.85
966.9578	2393.8876	974.85	87.7
967.0882	2395.2824	972.95	86.15
967.2186	2396.6765	973.05	86.2
967.349	2398.07	970.8	84.15
967.4793	2399.4627	971.95	84.8
967.6097	2400.8547	969.55	83.8
967.7399	2402.246	975.9	83.7
967.8702	2403.6366	974	87.2
968.0004	2405.0265	970.5	84.05
968.1306	2406.4156	975.2	84.4
968.2607	2407.8041	975.65	87.25
968.3909	2409.1918	972.8	83.55
968.521	2410.5789	969.35	82.5
968.651	2411.9652	973	82.8
968.781	2413.3508	969.35	82.2
968.911	2414.7358	967.05	80.15
969.041	2416.12	968.45	82.7
969.1709	2417.5035	967.95	81.95
969.3008	2418.8863	970.6	83.3
969.4307	2420.2684	969.95	83.05
969.5606	2421.6497	967.4	79.65
969.6904	2423.0304	966.9	80.6
969.8201	2424.4104	968.55	79.55
969.9499	2425.7896	970	74.25
970.0796	2427.1682	965.75	80.4
970.2093	2428.546	968.2	79.5
970.3389	2429.9232	966.25	77.2
970.4685	2431.2996	965.8	79.3
970.5981	2432.6753	965.7	79.85
970.7277	2434.0503	967	78.7
970.8572	2435.4246	966.85	81.15
970.9867	2436.7982	965.1	74.7
971.1161	2438.1711	962.35	77.8
971.2456	2439.5433	964.1	77.25
971.375	2440.9148	969.95	77.15
971.5043	2442.2856	963.25	75.9
971.6336	2443.6557	963.9	76.8
971.7629	2445.025	963.05	76.95
971.8922	2446.3937	964.05	77.4
972.0214	2447.7617	961.7	72.85
972.1506	2449.1289	964.25	77.75
972.2798	2450.4955	966.1	75.55
972.4089	2451.8613	961.3	73.7
972.538	2453.2265	963.2	75.85
972.6671	2454.5909	963.15	74.85
972.7961	2455.9546	965.35	79
972.9251	2457.3177	959.15	73.3
973.0541	2458.68	961.1	73.35
973.1831	2460.0416	960.75	74.4
973.312	2461.4025	964.05	76.4
973.4408	2462.7627	970.2	71.9
973.5697	2464.1222	959.1	73.15
973.6985	2465.4811	961.15	73.45
973.8273	2466.8392	963.6	78.35
973.956	2468.1966	961.95	72.3
974.0847	2469.5533	961.15	72.8
974.2134	2470.9093	963.65	76
974.3421	2472.2645	961.3	74.2
974.4707	2473.6191	960.8	75.6
974.5993	2474.973	961	71.2
974.7278	2476.3262	960.15	73.1
974.8563	2477.6787	958.15	71.7
974.9848	2479.0305	959.2	73.7
975.1132	2480.3816	963.6	75.5
975.2417	2481.7319	960.05	73.4
975.37	2483.0816	961	73.1
975.4984	2484.4306	959.85	71.25
975.6267	2485.7789	958	69.85
975.755	2487.1264	961.55	73.7
975.8833	2488.4733	958.7	72.2
976.0115	2489.8195	975.65	71.8
976.1397	2491.165	963.95	74.15
976.2678	2492.5097	958.55	70.7
976.3959	2493.8538	955	68.55
976.524	2495.1972	956.85	70.7
976.6521	2496.5398	957.45	70.35
976.7801	2497.8818	957.9	68.85
976.9081	2499.2231	955.7	67.1
977.036	2500.5637	960.25	72.5
977.164	2501.9035	954.3	67.55
977.2918	2503.2427	961	69.1
977.4197	2504.5812	956.9	70.25
977.5475	2505.919	957.1	67.55
977.6753	2507.256	954.15	66.8
977.8031	2508.5924	958.3	71.25
977.9308	2509.9281	959.95	65.5
978.0585	2511.2631	958.5	72.8
978.1861	2512.5974	954	67.25
978.3137	2513.9309	955.7	67.05
978.4413	2515.2638	983.4	64.75
978.5689	2516.596	954.55	67.4
978.6964	2517.9275	953.95	65.4
978.8239	2519.2583	952.8	63.45
978.9513	2520.5884	952.85	64
979.0788	2521.9178	953.55	67.2
979.2062	2523.2465	952.55	65.15
979.3335	2524.5745	951.9	66.05
979.4608	2525.9018	949.35	61.7
979.5881	2527.2284	953.25	66.2
979.7154	2528.5543	951.65	65.45
979.8426	2529.8796	953.7	67.1
979.9698	2531.2041	953.2	64.3
980.0969	2532.5279	948.35	62.2
980.224	2533.851	951.45	65.05
980.3511	2535.1735	948.6	62.3
980.4781	2536.4952	949.35	64.1
980.6052	2537.8163	948.85	61
980.7321	2539.1366	947.65	62.15
980.8591	2540.4562	951.5	62.85
980.986	2541.7752	948.45	64.65
981.1129	2543.0935	951.1	61.65
981.2397	2544.411	952.55	65.05
981.3665	2545.7279	949.75	63.05
981.4933	2547.0441	948.55	62.45
981.62	2548.3596	954.55	63.35
981.7467	2549.6744	947.75	59.8
981.8734	2550.9885	949.45	60.8
982.0001	2552.3019	948.75	64.45
982.1267	2553.6146	949.35	63.15
982.2532	2554.9266	948.2	60.65
982.3798	2556.2379	950.05	62
982.5063	2557.5485	950.15	63.35
982.6327	2558.8585	953.75	59.95
982.7592	2560.1677	950.45	56.7
982.8856	2561.4762	948	59.15
983.0119	2562.7841	953.1	64.8
983.1383	2564.0913	947.2	61.4
983.2646	2565.3977	945.85	59
983.3908	2566.7035	948.15	62.1
983.517	2568.0086	948.65	59.45
983.6432	2569.313	947.1	59.45
983.7694	2570.6167	951.2	62.15
983.8955	2571.9197	947.5	60.05
984.0216	2573.222	949.5	59.55
984.1476	2574.5236	952.2	64
984.2737	2575.8246	947.15	58.35
984.3996	2577.1248	948.15	57.95
984.5256	2578.4244	946.75	61
984.6515	2579.7232	949.9	61.95
984.7774	2581.0214	976.95	59.3
984.9032	2582.3189	947.1	59
985.029	2583.6157	950.6	59.25
985.1548	2584.9118	948.8	60.85
985.2806	2586.2072	944.65	59.5
985.4063	2587.5019	943.3	56.8
985.5319	2588.7959	945.7	59.25
985.6576	2590.0893	946.05	58.95
985.7832	2591.3819	947.1	61.85
985.9087	2592.6739	946.75	60.5
986.0343	2593.9652	945.85	58.2
986.1597	2595.2557	944.25	56.1
986.2852	2596.5456	949	58
986.4106	2597.8348	945.7	59.3
986.536	2599.1234	945.7	59.4
986.6614	2600.4112	947.9	60.95
986.7867	2601.6983	950.5	60.95
986.912	2602.9848	945.45	57.9
987.0372	2604.2705	954.45	61.35
987.1624	2605.5556	947.05	60.65
987.2876	2606.84	946.35	60.6
987.4128	2608.1237	946.8	57.4
987.5379	2609.4067	945.95	59.6
987.6629	2610.689	953.2	57
987.788	2611.9707	943.95	52.65
987.913	2613.2516	949.55	57.5
988.0379	2614.5319	939.55	53.35
988.1629	2615.8115	943.55	56.6
988.2878	2617.0903	941.85	54.45
988.4126	2618.3685	944.3	55.75
988.5375	2619.6461	942.5	55.1
988.6622	2620.9229	943.75	55.05
988.787	2622.199	942.55	54.5
988.9117	2623.4745	944.7	57.2
989.0364	2624.7493	943.4	56.1
989.161	2626.0234	942.25	56.55
989.2857	2627.2968	941.4	54.05
989.4102	2628.5695	943.8	57.4
989.5348	2629.8415	942.2	56.25
989.6593	2631.1128	942.6	52.95
989.7837	2632.3835	942.6	53.85
989.9082	2633.6535	940.15	52.75
990.0326	2634.9228	939.9	54.2
990.1569	2636.1914	939.35	49.65
990.2812	2637.4593	947.15	53.65
990.4055	2638.7265	940.5	52.3
990.5298	2639.9931	940.5	54.95
990.654	2641.259	943.05	55.8
990.7782	2642.5242	941.05	53.2
990.9023	2643.7887	939.65	51.8
991.0264	2645.0525	939.7	52
991.1505	2646.3156	939.5	50.75
991.2745	2647.5781	938.85	50.9
991.3985	2648.8398	937.1	51.1
991.5225	2650.1009	978.05	54.9
991.6464	2651.3613	938.15	52.25
991.7703	2652.6211	939.05	51.25
991.8942	2653.8801	937.05	49.6
992.018	2655.1385	939.7	49.9
992.1418	2656.3961	934.15	47.6
992.2655	2657.6531	938.6	51.75
992.3892	2658.9094	936.25	48.2
992.5129	2660.1651	935.75	48.15
992.6366	2661.42	937.3	50.15
992.7602	2662.6743	939.6	52.55
992.8837	2663.9279	935.15	48.45
993.0073	2665.1808	936.6	48
993.1307	2666.433	939.15	50.95
993.2542	2667.6846	939.15	51.65
993.3776	2668.9354	937.25	44.85
993.501	2670.1856	938.55	50.2
993.6244	2671.4351	936.35	49.95
993.7477	2672.6839	940.55	51.25
993.8709	2673.9321	936.8	48.65
993.9942	2675.1795	939.3	52.2
994.1174	2676.4263	937.85	52.55
994.2405	2677.6724	938.8	51.95
994.3637	2678.9179	938.4	49.7
994.4868	2680.1626	935.25	49.8
994.6098	2681.4067	938.4	51.1
994.7328	2682.6501	938.25	51.35
994.8558	2683.8928	936.95	50.75
994.9788	2685.1348	936.7	51.15
995.1017	2686.3761	933.7	47.45
995.2245	2687.6168	936.55	50.6
995.3474	2688.8568	934.8	46.9
995.4702	2690.0961	939.25	52.45
995.5929	2691.3348	935.35	48.05
995.7156	2692.5727	933.9	44.85
995.8383	2693.81	936.25	49.05
995.961	2695.0466	933.45	47.35
996.0836	2696.2826	936.15	48.55
996.2062	2697.5178	938.55	48.4
996.3287	2698.7524	933.35	46.95
996.4512	2699.9863	935.55	46.65
996.5737	2701.2195	930.75	44
996.6961	2702.452	934.15	45.55
996.8185	2703.6839	934.4	46.15
996.9408	2704.9151	930.8	45.45
997.0631	2706.1456	935.4	47.15
997.1854	2707.3755	934.4	48.85
997.3077	2708.6046	936.7	48.6
997.4299	2709.8331	936.9	48.3
997.552	2711.0609	933.15	46.1
997.6742	2712.2881	936.25	48.75
997.7963	2713.5145	937.8	48.9
997.9183	2714.7403	937.15	51.65
998.0403	2715.9654	937.85	48.9
998.1623	2717.1899	940.1	45.2
998.2842	2718.4136	937.75	51.35
998.4062	2719.6367	939	53.8
998.528	2720.8591	946.45	52.1
998.6498	2722.0809	942.55	54.25
998.7716	2723.3019	943.95	54.8
998.8934	2724.5223	943.5	55.35
999.0151	2725.7421	940.5	52.45
999.1368	2726.9611	942.25	53.9
999.2584	2728.1795	944.4	52.15
999.38	2729.3972	936.7	50.15
999.5016	2730.6142	948.4	49.7
999.6231	2731.8306	939	49.7
999.7446	2733.0462	934.7	45.75
999.8661	2734.2612	938.35	46.15
999.9875	2735.4756	937.2	48.7
1000.1089	2736.6892	933.15	47.45
1000.2302	2737.9022	930.85	45.4
1000.3515	2739.1145	932.35	46.25
1000.4728	2740.3262	938.3	45.1
1000.594	2741.5372	928.45	42.85
1000.7152	2742.7475	931.3	46.1
1000.8363	2743.9571	934.4	45.35
1000.9575	2745.1661	934.35	44.3
1001.0785	2746.3744	930.2	42.65
1001.1996	2747.582	928.9	41.4
1001.3206	2748.7889	929.8	41.6
1001.4415	2749.9952	928.55	40.55
1001.5625	2751.2008	926.85	36.45
1001.6833	2752.4057	930.65	41.35
1001.8042	2753.61	928.3	40.8
1001.925	2754.8136	928.65	36.75
1002.0458	2756.0165	927.4	41.25
1002.1665	2757.2188	926.25	40.6
1002.2872	2758.4204	926.4	39.05
1002.4078	2759.6213	929.45	36.7
1002.5285	2760.8215	932.5	39.25
1002.649	2762.0211	929.7	41.85
1002.7696	2763.22	929.4	40.45
1002.8901	2764.4182	925.05	37.8
1003.0106	2765.6158	927	38.7
1003.131	2766.8127	925.9	40.45
1003.2514	2768.009	925.35	36.5
1003.3717	2769.2045	926.8	38.45
1003.492	2770.3994	927.25	36.8
1003.6123	2771.5936	922.85	33.25
1003.7325	2772.7872	922.15	33.65
1003.8527	2773.9801	926.55	39.4
1003.9729	2775.1723	940.85	38.85
1004.093	2776.3639	924.1	38.15
1004.2131	2777.5548	926.95	39.9
1004.3331	2778.745	924.1	34.95
1004.4531	2779.9346	923.05	38.45
1004.5731	2781.1235	926.25	36.95
1004.693	2782.3117	922.95	37
1004.8129	2783.4992	921.8	34.8
1004.9328	2784.6861	923.95	35.1
1005.0526	2785.8723	926.85	38.85
1005.1723	2787.0579	924.4	35.85
1005.2921	2788.2428	925	38.95
1005.4118	2789.427	921.8	35.9
1005.5314	2790.6106	924.3	37.55
1005.651	2791.7935	926.1	38.4
1005.7706	2792.9757	922.45	36.1
1005.8902	2794.1573	924.9	35.15
1006.0097	2795.3382	924.8	37.1
1006.1291	2796.5184	922.9	36.2
1006.2485	2797.698	924.8	35.2
1006.3679	2798.8769	925.85	38
1006.4873	2800.0551	924.95	38.5
1006.6066	2801.2327	928.9	39.15
1006.7258	2802.4096	923.5	38.1
1006.8451	2803.5859	923.6	37.45
1006.9642	2804.7615	925.05	36.3
1007.0834	2805.9364	924.45	38.45
1007.2025	2807.1106	929.2	43
1007.3216	2808.2842	926.95	40.3
1007.4406	2809.4572	928.3	41.2
1007.5596	2810.6294	929.7	40.95
1007.6785	2811.801	929.3	44.5
1007.7975	2812.972	930	44.1
1007.9163	2814.1423	932.45	44.05
1008.0352	2815.3119	933.95	47.05
1008.154	2816.4808	933.25	46.4
1008.2727	2817.6491	938.5	50
1008.3914	2818.8167	937.05	49.25
1008.5101	2819.9837	947.45	54.65
1008.6288	2821.15	946.7	58.1
1008.7474	2822.3157	951.15	65.85
1008.8659	2823.4807	957.55	70.3
1008.9844	2824.645	963.6	77.5
1009.1029	2825.8086	964.45	78.8
1009.2214	2826.9716	972.6	87.45
1009.3398	2828.134	977.35	88.05
1009.4581	2829.2957	982.85	96.15
1009.5764	2830.4567	987.95	101.05
1009.6947	2831.617	990.85	104.8
1009.813	2832.7767	991.1	105.65
1009.9312	2833.9358	994.05	107.55
1010.0493	2835.0941	997.1	107.4
1010.1675	2836.2519	986.9	101
1010.2855	2837.4089	990.6	104.3
1010.4036	2838.5653	984.9	100.4
1010.5216	2839.7211	983.9	97.2
1010.6396	2840.8761	982.8	94.95
1010.7575	2842.0306	979.45	94.4
1010.8754	2843.1843	981.2	92.1
1010.9932	2844.3374	982.2	94.65
1011.111	2845.4899	980.9	94.15
1011.2288	2846.6417	981.75	95.4
1011.3465	2847.7928	978.95	92.6
1011.4642	2848.9433	983.8	97.7
1011.5818	2850.0931	983	97.6
1011.6995	2851.2422	990.45	99.2
1011.817	2852.3907	989.85	101.5
1011.9345	2853.5385	989.15	100.05
1012.052	2854.6857	1016.6	104.05
1012.1695	2855.8323	987.45	100.6
1012.2869	2856.9781	988.7	102.75
1012.4042	2858.1233	989	102.5
1012.5216	2859.2679	992.05	105.15
1012.6389	2860.4118	997.1	109.5
1012.7561	2861.555	1003.65	112.6
1012.8733	2862.6976	1003.8	115.75
1012.9905	2863.8395	1005.35	117.9
1013.1076	2864.9808	1008.4	120.95
1013.2247	2866.1214	1006.4	121.8
1013.3417	2867.2614	1008.2	121.35
1013.4587	2868.4007	1014.8	126.05
1013.5757	2869.5393	1015.25	125.95
1013.6926	2870.6773	1020.9	132.4
1013.8095	2871.8146	1016.6	126.75
1013.9263	2872.9513	1019.85	130.5
1014.0431	2874.0874	1017.8	130.55
1014.1599	2875.2227	1019.5	132.3
1014.2766	2876.3574	1024.9	137.85
1014.3933	2877.4915	1021.65	134.55
1014.51	2878.6249	1022.95	136.95
1014.6266	2879.7577	1022.5	135.05
1014.7431	2880.8898	1037.65	138.15
1014.8596	2882.0212	1028.4	141.75
1014.9761	2883.152	1026.95	138.9
1015.0925	2884.2821	1032	145.6
1015.2089	2885.4116	1030.25	143.35
1015.3253	2886.5405	1037.2	149.6
1015.4416	2887.6686	1039.4	148.25
1015.5579	2888.7962	1036.8	152
1015.6741	2889.923	1034.6	148.95
1015.7903	2891.0493	1036.65	151.05
1015.9065	2892.1748	1037.25	148.35
1016.0226	2893.2997	1032.9	145
1016.1387	2894.424	1035.95	150.55
1016.2547	2895.5476	1034.85	147.05
1016.3707	2896.6706	1035.35	150
1016.4866	2897.7929	1036.55	146.65
1016.6025	2898.9145	1038.45	152.25
1016.7184	2900.0355	1037.3	149.85
1016.8342	2901.1559	1031.4	145.05
1016.95	2902.2756	1030.8	145
1017.0658	2903.3946	1032.3	142.75
1017.1815	2904.513	1034.55	144.2
1017.2971	2905.6308	1031.05	143.9
1017.4127	2906.7479	1033.9	144.95
1017.5283	2907.8643	1033.05	145.15
1017.6439	2908.9801	1031.75	144.2
1017.7594	2910.0953	1031.4	145
1017.8748	2911.2098	1037.65	147.9
1017.9902	2912.3236	1034.45	138.8
1018.1056	2913.4368	1035.55	143.8
1018.2209	2914.5494	1027.8	139.45
1018.3362	2915.6613	1031.4	139
1018.4515	2916.7725	1033.35	143.45
1018.5667	2917.8831	1022.05	133.75
1018.6819	2918.9931	1024.55	135.05
1018.797	2920.1024	1024.3	134.65
1018.9121	2921.211	1019.05	131.25
1019.0271	2922.319	1019.85	133.75
1019.1421	2923.4264	1015.2	128.7
1019.2571	2924.5331	1013.95	129.4
1019.372	2925.6391	1012.2	126.1
1019.4869	2926.7445	1015.6	128.55
1019.6017	2927.8493	1014.4	128.65
1019.7165	2928.9534	1015.6	129.1
1019.8313	2930.0569	1022.05	135.35
1019.946	2931.1597	1015.45	124.65
1020.0606	2932.2619	1018.75	131.25
1020.1753	2933.3634	1016.8	131.95
1020.2899	2934.4643	1026.7	131.9
1020.4044	2935.5645	1028.3	136
1020.5189	2936.6641	1026.75	135.4
1020.6334	2937.763	1020.4	134.75
1020.7478	2938.8613	1023.95	136.45
1020.8622	2939.959	1023.2	130.4
1020.9765	2941.056	1018.35	130.85
1021.0908	2942.1523	1016.4	127.55
1021.2051	2943.248	1013.5	127
1021.3193	2944.3431	1006.2	119.8
1021.4334	2945.4375	992.6	103.5
1021.5476	2946.5313	992.05	105.6
1021.6617	2947.6244	987.05	98.55
1021.7757	2948.7169	982.2	93.85
1021.8897	2949.8087	976.15	87.7
1022.0037	2950.8999	974.3	85.75
1022.1176	2951.9904	968.35	81.2
1022.2315	2953.0803	966.45	80.45
1022.3453	2954.1696	959.1	72.5
1022.4591	2955.2582	959.4	73.55
1022.5728	2956.3462	957.1	70.65
1022.6865	2957.4335	957.75	71.35
1022.8002	2958.5202	959.6	68.9
1022.9138	2959.6062	954.3	67.85
1023.0274	2960.6916	955.15	68.15
1023.141	2961.7764	954.9	66.2
1023.2545	2962.8605	954.3	65.45
1023.3679	2963.9439	954.85	68.45
1023.4813	2965.0267	955.9	68.05
1023.5947	2966.1089	980.65	70.4
1023.708	2967.1905	955.05	69
1023.8213	2968.2714	954.15	67.1
1023.9346	2969.3516	950.8	63.45
1024.0478	2970.4312	960.05	65.65
1024.1609	2971.5102	951.4	63.4
1024.274	2972.5885	952.25	65.65
1024.3871	2973.6662	955.95	63.55
1024.5002	2974.7432	953.25	64.85
1024.6132	2975.8196	954.8	69
1024.7261	2976.8954	952	65.8
1024.839	2977.9705	951	64.05
1024.9519	2979.045	951.55	65.9
1025.0647	2980.1188	952.95	67.05
1025.1775	2981.192	952.35	65.35
1025.2902	2982.2645	952.85	66.6
1025.4029	2983.3364	949.5	61.9
1025.5156	2984.4077	949.8	63.15
1025.6282	2985.4783	953.65	61.15
1025.7407	2986.5483	942.15	55.2
1025.8532	2987.6177	938.8	54.45
1025.9657	2988.6864	939.65	52.25
1026.0782	2989.7545	941.5	52.45
1026.1906	2990.8219	939.45	52.6
1026.3029	2991.8887	938	49.35
1026.4152	2992.9548	937.1	50
1026.5275	2994.0204	931.8	47.9
1026.6397	2995.0852	930.1	44.55
1026.7519	2996.1495	929.8	41.85
1026.864	2997.2131	927.5	40.5
1026.9761	2998.276	923.3	36.8
1027.0882	2999.3383	922.9	36.2
1027.2002	3000.4	921.35	34.85
1027.3122	3001.4611	921.15	36.15
1027.4241	3002.5215	919.2	31.6
1027.536	3003.5812	916.6	30.05
1027.6478	3004.6404	917.5	30.65
1027.7596	3005.6989	918.15	28.05
1027.8714	3006.7567	914.6	28.9
1027.9831	3007.8139	946.1	27.95
1028.0947	3008.8705	915.05	27.45
1028.2064	3009.9264	928.25	24.45
1028.3179	3010.9818	912.9	26.3
1028.4295	3012.0364	912.25	25.45
1028.541	3013.0905	911.7	24.65
1028.6524	3014.1439	910.85	22.95
1028.7638	3015.1966	909.35	22.6
1028.8752	3016.2487	910.55	23.7
1028.9865	3017.3002	914.8	24.15
1029.0978	3018.3511	908.7	22.45
1029.209	3019.4013	911.05	24.1
1029.3202	3020.4509	910.1	25.6
1029.4314	3021.4998	908.35	20.65
1029.5425	3022.5481	909.7	24.25
1029.6535	3023.5958	909.5	22.75
1029.7645	3024.6428	911.3	22.8
1029.8755	3025.6892	908.85	24.05
1029.9864	3026.735	909.4	21.6
1030.0973	3027.7802	909.1	22.7
1030.2082	3028.8247	908.5	21.3
1030.319	3029.8685	909.7	21.4
1030.4297	3030.9118	910.7	23.9
1030.5404	3031.9544	910.45	24.85
1030.6511	3032.9963	907.9	21.7
1030.7617	3034.0376	909.9	23.4
1030.8723	3035.0783	911.1	21.45
1030.9829	3036.1184	908.75	20.85
1031.0934	3037.1578	905.65	20.1
1031.2038	3038.1966	911.05	20.9
1031.3142	3039.2348	908.7	23.4
1031.4246	3040.2723	918.4	24.1
1031.5349	3041.3092	907.9	22.9
1031.6452	3042.3455	909.85	23.25
1031.7554	3043.3811	910.4	24.15
1031.8656	3044.4161	910.85	22.05
1031.9758	3045.4505	907.75	22.3
1032.0859	3046.4842	911.25	23.9
1032.1959	3047.5173	909.4	23.1
1032.3059	3048.5498	908.85	22.1
1032.4159	3049.5816	907.5	20.85
1032.5258	3050.6128	910.4	21.1
1032.6357	3051.6434	911.85	24.5
1032.7455	3052.6734	912.3	24.7
1032.8553	3053.7027	909.95	23
1032.9651	3054.7314	909.5	23.8
1033.0748	3055.7594	909.15	23.4
1033.1845	3056.7868	910.15	22.05
1033.2941	3057.8136	908.2	22.7
1033.4037	3058.8398	907.95	21.25
1033.5132	3059.8653	911.45	25.2
1033.6227	3060.8902	908.7	22.45
1033.7321	3061.9145	907.75	19.3
1033.8415	3062.9381	909.4	23
1033.9509	3063.9612	925.9	22.35
1034.0602	3064.9835	910.5	21.45
1034.1694	3066.0053	912.95	22.65
1034.2787	3067.0264	911.1	26.1
1034.3878	3068.0469	912.95	26.9
1034.497	3069.0668	911.6	22.75
1034.6061	3070.086	909	24.35
1034.7151	3071.1046	913.15	23.75
1034.8241	3072.1226	911.1	23
1034.9331	3073.1399	909.55	23.7
1035.042	3074.1567	908.6	21.6
1035.1508	3075.1727	910.65	22.9
1035.2597	3076.1882	908.7	21.4
1035.3684	3077.203	909.6	22.35
1035.4772	3078.2173	908.95	21
1035.5859	3079.2308	910.35	21.25
1035.6945	3080.2438	909.55	20.4
1035.8031	3081.2561	906.85	19
1035.9117	3082.2678	904.9	19.1
1036.0202	3083.2789	904.5	17.8
1036.1286	3084.2893	904.2	18.15
1036.2371	3085.2991	905.5	18.35
1036.3454	3086.3083	909.3	16
1036.4538	3087.3169	906.2	17.3
1036.562	3088.3248	908	19.2
1036.6703	3089.3321	904.85	14.85
1036.7785	3090.3388	902.55	15.85
1036.8866	3091.3449	903.25	18.6
1036.9948	3092.3503	905.3	16.75
1037.1028	3093.3551	902.6	17.45
1037.2108	3094.3593	903.2	17.95
1037.3188	3095.3629	900.55	14.85
1037.4267	3096.3658	903.1	13.8
1037.5346	3097.3681	903.7	18.65
1037.6425	3098.3698	904.05	14.8
1037.7503	3099.3708	901.1	12.65
1037.858	3100.3713	902.45	14.65
1037.9657	3101.3711	902.1	15.2
1038.0734	3102.3702	1041.75	12
1038.181	3103.3688	901.95	13.7
1038.2886	3104.3667	901	15.45
1038.3961	3105.364	903.05	17.4
1038.5036	3106.3607	902.1	12.4
1038.611	3107.3568	904.05	15.55
1038.7184	3108.3522	899.6	12.65
1038.8257	3109.347	904.3	16.75
1038.933	3110.3412	905.15	12.9
1039.0403	3111.3348	902.55	15.6
1039.1475	3112.3277	901	12.65
1039.2547	3113.32	898.2	13.15
1039.3618	3114.3117	897	9.75
1039.4689	3115.3028	902.25	14.35
1039.5759	3116.2932	901.4	13.15
1039.6829	3117.2831	906.75	13.7
1039.7898	3118.2723	900.2	12
1039.8967	3119.2608	899.5	11.4
1040.0035	3120.2488	899.55	13.55
1040.1103	3121.2361	899.1	11.35
1040.2171	3122.2229	898.2	12.8
1040.3238	3123.209	901.05	11.05
1040.4305	3124.1944	897.75	11.2
1040.5371	3125.1793	900.95	11.55
1040.6437	3126.1635	897.45	9.55
1040.7502	3127.1471	898.45	9.9
1040.8567	3128.1301	897.15	10.35
1040.9631	3129.1125	898.45	12.55
1041.0695	3130.0942	899.4	13.95
1041.1759	3131.0753	907.05	12.55
1041.2822	3132.0558	900.9	10.3
1041.3884	3133.0357	898.25	11.45
1041.4946	3134.015	900.75	12.6
1041.6008	3134.9936	898.4	10.1
1041.7069	3135.9716	918.85	12.5
1041.813	3136.949	896.75	9.65
1041.919	3137.9258	914.85	9.4
1042.025	3138.902	904.7	11.2
1042.1309	3139.8775	897.8	11.8
1042.2368	3140.8524	896.45	9.1
1042.3427	3141.8267	899.65	11
1042.4485	3142.8004	897.05	8.65
1042.5542	3143.7735	903.15	11.45
1042.6599	3144.7459	897.9	7.85
1042.7656	3145.7178	896.3	9.15
1042.8712	3146.689	895.4	10.8
1042.9768	3147.6596	897.1	8.85
1043.0823	3148.6295	898.5	9.95
1043.1878	3149.5989	897.8	10.95
1043.2932	3150.5676	897.15	11.45
1043.3986	3151.5357	895.25	8.9
1043.5039	3152.5032	895.4	8.45
1043.6092	3153.4701	895.9	9.45
1043.7145	3154.4364	898.5	7.3
1043.8197	3155.402	893.95	9
1043.9248	3156.367	898.4	8
1044.03	3157.3315	934.1	11.9
1044.135	3158.2952	896.55	11.1
1044.24	3159.2584	896.35	9.9
1044.345	3160.221	896.35	11.05
1044.4499	3161.1829	894.6	6.65
1044.5548	3162.1442	897	9.15
1044.6596	3163.105	896.1	9.5
1044.7644	3164.065	894.6	6.45
1044.8692	3165.0245	897.2	7.95
1044.9739	3165.9834	894.85	8.55
1045.0785	3166.9416	893.8	6.3
1045.1831	3167.8993	895.85	8.65
1045.2877	3168.8563	894	7.2
1045.3922	3169.8127	894.6	10.4
1045.4966	3170.7684	894.65	6.8
1045.6011	3171.7236	896.7	8.95
1045.7054	3172.6782	896.5	9
1045.8098	3173.6321	896.2	7.85
1045.914	3174.5854	899.8	7.5
1046.0183	3175.5381	896.4	8.9
1046.1224	3176.4902	894.9	9.1
1046.2266	3177.4417	894.55	8.9
1046.3307	3178.3926	895.1	9.65
1046.4347	3179.3428	895.05	10.05
1046.5387	3180.2924	893.85	7.2
1046.6427	3181.2415	893.15	4.75
1046.7466	3182.1899	896.1	6.95
1046.8504	3183.1377	896.15	9.25
1046.9542	3184.0848	899.4	10.55
1047.058	3185.0314	895.55	9.55
1047.1617	3185.9773	895.65	7.25
1047.2654	3186.9227	895.35	6.25
1047.369	3187.8674	893.6	7.45
1047.4726	3188.8115	898.8	8.1
1047.5761	3189.755	893.5	5.95
1047.6796	3190.6979	893.3	4.95
1047.783	3191.6402	892.05	6.4
1047.8864	3192.5818	895.75	9.05
1047.9898	3193.5229	902.3	11.6
1048.0931	3194.4633	896.1	8.7
1048.1963	3195.4031	897.3	10.4
1048.2995	3196.3423	893.95	6.65
1048.4027	3197.2809	893.25	4.4
1048.5058	3198.2189	895.45	9.3
1048.6089	3199.1563	900.45	5.85
1048.7119	3200.0931	894.25	8.45
1048.8148	3201.0292	893.2	8.8
1048.9178	3201.9648	894.85	8.25
1049.0206	3202.8997	897.65	8.55
1049.1235	3203.834	894.2	6.05
1049.2262	3204.7677	892.75	5.85
1049.329	3205.7008	896.45	7.65
1049.4317	3206.6333	891.65	5.5
1049.5343	3207.5652	894.5	6.5
1049.6369	3208.4964	894.95	8.85
1049.7394	3209.4271	892.5	5.1
1049.8419	3210.3571	892.75	6.45
1049.9444	3211.2865	893.55	6.2
1050.0468	3212.2154	896.35	7.65
1050.1491	3213.1436	896.7	6.15
1050.2514	3214.0712	900.5	5.95
1050.3537	3214.9982	896	7.9
1050.4559	3215.9246	893.1	2.7
1050.5581	3216.8503	892.15	6.65
1050.6602	3217.7755	894.95	7.6
1050.7623	3218.7001	893.2	7
1050.8643	3219.624	895.1	8.1
1050.9663	3220.5473	892.6	4.95
1051.0682	3221.4701	896.5	8.1
1051.1701	3222.3922	897.2	9.55
1051.2719	3223.3137	893.4	6.4
1051.3737	3224.2346	893.05	5.3
1051.4754	3225.1549	893.85	6.5
1051.5771	3226.0746	892.3	3.65
1051.6788	3226.9937	894	5.65
1051.7804	3227.9121	892.7	4.85
1051.8819	3228.83	894.2	7.35
1051.9834	3229.7473	893.55	5.5
1052.0849	3230.6639	895.8	8.75
1052.1863	3231.5799	893.7	7.25
1052.2876	3232.4954	892.35	5.05
1052.3889	3233.4102	892.95	5.15
1052.4902	3234.3244	893.35	3.9
1052.5914	3235.238	891.3	4.6
1052.6926	3236.151	917.65	5.65
1052.7937	3237.0634	892.15	6.35
1052.8948	3237.9752	892.65	6.25
1052.9958	3238.8864	893.7	6.6
1053.0968	3239.797	892.7	5.15
1053.1977	3240.7069	892.4	2.7
1053.2986	3241.6163	895.45	8.3
1053.3994	3242.5251	891.1	5.45
1053.5002	3243.4332	892.35	6.1
1053.6009	3244.3408	892.9	6.25
1053.7016	3245.2477	892.85	6.55
1053.8022	3246.154	892.7	4.75
1053.9028	3247.0598	893.75	5.7
1054.0034	3247.9649	893.65	6.3
1054.1039	3248.8694	892.3	5.3
1054.2043	3249.7733	892.85	6.35
1054.3047	3250.6766	892.1	4
1054.4051	3251.5793	892.7	2.5
1054.5054	3252.4814	890.75	4.7
1054.6056	3253.3829	892.65	5.85
1054.7058	3254.2838	891.45	5.1
1054.806	3255.1841	891.8	5.3
1054.9061	3256.0838	891.85	4.5
1055.0061	3256.9829	890.1	3.1
1055.1062	3257.8814	893	2.65
1055.2061	3258.7792	894.9	4.95
1055.306	3259.6765	895.95	7.05
1055.4059	3260.5731	889.5	3.2
1055.5057	3261.4692	892.7	4.8
1055.6055	3262.3647	891.8	4.75
1055.7052	3263.2595	892	5.4
1055.8049	3264.1538	891.6	5.7
1055.9045	3265.0474	890.75	2.4
1056.0041	3265.9404	890.75	4.2
1056.1036	3266.8329	890.15	3.4
1056.2031	3267.7247	899.7	3.4
1056.3025	3268.616	892.1	5.05
1056.4019	3269.5066	891.95	2.35
1056.5013	3270.3966	892.95	3.2
1056.6005	3271.286	889.6	4.7
