Software Version:	3.9.2.0
Unit SN:	10000200
Spectrometer SN:	6960
Date:	3/14/2024 2:20:23 PM
Data Line Index:	25
Spectral Points:	2048
Integration time (ms):	125
Averages:	20
Delay (ms):	30000
Sequence Number:	1
Processing:	dark subtract
Laser Power (mW):	300
Laser Current (mA):	825
Laser Diode Temp (C):	25
Laser Case Temp (C):	29.2
System Temp (C):	29.2
Spectrometer Temp (C):	27
CCD Temp (C):	0.007
Secondary Temp (C):	20.011
Heatsink Temp (C):	25.08
CCDPCB Temp (C):	38.452
SecondaryPCB Temp (C):	36.162

Wavelength	RamanShift	Raw Counts	Dark Subtracted
787.061	30.1047	454.2	43.4
787.2016	32.3739	457.75	48.6
787.3422	34.6426	459.5	50.2
787.4828	36.9109	463.7	51.45
787.6235	39.1787	473.9	58.95
787.7642	41.4461	484.1	63.5
787.9049	43.7131	493.4	69.8
788.0456	45.9796	504.7	77.15
788.1863	48.2456	513.6	82.35
788.3271	50.5112	519.95	84.3
788.4679	52.7764	526.45	89.4
788.6087	55.0411	537.4	96.45
788.7496	57.3054	548.25	102.25
788.8904	59.5692	560.4	112.65
789.0313	61.8326	573.7	122.35
789.1722	64.0955	586.75	130.25
789.3132	66.3579	600.15	137.45
789.4541	68.6199	618.65	153.35
789.5951	70.8815	651.75	182.3
789.7361	73.1426	721.85	249.25
789.8771	75.4032	904.6	428.65
790.0181	77.6634	1359.35	876.3
790.1592	79.9231	2427.05	1940.6
790.3003	82.1824	4787.4	4291.6
790.4414	84.4412	9130.9	8619.85
790.5825	86.6995	15251.7	14719.4
790.7237	88.9574	21464.5	20912.75
790.8648	91.2148	25931.95	25363.75
791.006	93.4717	28133.75	27557.3
791.1472	95.7282	28667.9	28087.35
791.2885	97.9842	28706.75	28124.3
791.4297	100.2398	28243.7	27656.15
791.571	102.4949	27677.05	27085.15
791.7123	104.7495	26952.9	26357.6
791.8536	107.0036	26152.55	25557.55
791.9949	109.2573	25335.65	24743.6
792.1363	111.5105	24526.4	23931.9
792.2777	113.7632	23723.45	23127.95
792.4191	116.0154	22997.4	22392.2
792.5605	118.2672	22452.3	21849.45
792.7019	120.5185	21920.8	21318.1
792.8434	122.7693	21483.9	20879.2
792.9849	125.0197	21140.05	20533.6
793.1264	127.2696	20828.65	20222.1
793.2679	129.519	20674.8	20064.7
793.4094	131.7679	20501.9	19887.3
793.551	134.0163	20383.7	19765.45
793.6926	136.2642	20200.5	19576.65
793.8342	138.5117	20084.05	19451.85
793.9758	140.7587	19876.95	19249.4
794.1175	143.0052	19700.8	19073.1
794.2591	145.2512	19523.45	18893.05
794.4008	147.4967	19289.25	18658.6
794.5425	149.7417	19141.55	18509.45
794.6842	151.9863	19033.85	18396.8
794.826	154.2304	18946.3	18306.25
794.9677	156.4739	18824.8	18178.45
795.1095	158.717	18708.8	18067.55
795.2513	160.9596	18581.7	17930.75
795.3931	163.2017	18330.95	17681.9
795.535	165.4433	18022.95	17370.55
795.6768	167.6844	17642.8	16989.65
795.8187	169.925	17337.65	16681.3
795.9606	172.1651	16941.45	16280.4
796.1025	174.4047	16584.75	15920.5
796.2445	176.6439	16316.3	15653.95
796.3864	178.8825	16046.4	15377.5
796.5284	181.1206	15836.25	15162.6
796.6704	183.3582	15661.3	14986.05
796.8124	185.5954	15521.35	14844.6
796.9544	187.832	15407.7	14726.35
797.0965	190.0681	15311.9	14628.2
797.2386	192.3037	15322.6	14635.45
797.3806	194.5388	15298.5	14611.6
797.5228	196.7734	15317.35	14627.1
797.6649	199.0075	15371.65	14678.6
797.807	201.2411	15509.65	14814
797.9492	203.4742	15553.8	14856.6
798.0914	205.7068	15653.9	14953.85
798.2336	207.9389	15769.3	15067.85
798.3758	210.1704	15868.8	15169.6
798.518	212.4015	16013.5	15308.65
798.6603	214.632	16196.25	15493.75
798.8025	216.862	16377.4	15683.4
798.9448	219.0915	16581.25	15891.85
799.0871	221.3205	16797.85	16111.45
799.2294	223.549	17117.25	16434.95
799.3718	225.777	17476.75	16792.75
799.5141	228.0044	17933.3	17247.75
799.6565	230.2314	18519.3	17837.7
799.7989	232.4578	19057.3	18371.1
799.9413	234.6837	19494.1	18803.95
800.0837	236.909	19748.65	19054.25
800.2262	239.1339	19667.25	18950.8
800.3687	241.3582	19375.9	18673.8
800.5111	243.582	18980.15	18252.4
800.6536	245.8053	18518.15	17800.45
800.7961	248.0281	18076.05	17358.9
800.9387	250.2503	17720.9	16999.9
801.0812	252.472	17446.5	16720.8
801.2238	254.6932	17302.9	16575.25
801.3664	256.9139	17155.65	16427.2
801.509	259.134	17070.8	16337.35
801.6516	261.3536	16942.8	16215.35
801.7942	263.5727	16903.4	16169.75
801.9369	265.7912	16730.9	16000.2
802.0795	268.0092	16650.1	15919.4
802.2222	270.2267	16515.35	15782.8
802.3649	272.4436	16455.15	15719.3
802.5076	274.6601	16417.15	15677.85
802.6504	276.8759	16299.65	15564.6
802.7931	279.0913	16312.3	15575.05
802.9359	281.3061	16320.65	15580
803.0787	283.5204	16434.35	15694.35
803.2215	285.7341	16609.25	15860.8
803.3643	287.9473	16795.45	16035.65
803.5071	290.16	17072.1	16318.85
803.6499	292.3721	17416.35	16669.3
803.7928	294.5837	17886.85	17139.7
803.9357	296.7947	18279.9	17531.9
804.0786	299.0052	18527.4	17775.15
804.2215	301.2152	18360.55	17607.35
804.3644	303.4246	17922.95	17172.6
804.5074	305.6334	17321.7	16571.8
804.6503	307.8418	16766.9	16015.4
804.7933	310.0495	16291.3	15539.95
804.9363	312.2568	15960.45	15208.6
805.0793	314.4635	15724.35	14972
805.2223	316.6696	15658.4	14903.25
805.3653	318.8752	15644.1	14880.65
805.5084	321.0802	15700.15	14943.6
805.6514	323.2847	15824.85	15067
805.7945	325.4887	15883.95	15126.3
805.9376	327.692	15829.5	15070.4
806.0807	329.8949	15677.85	14917.75
806.2238	332.0972	15383.8	14622.4
806.367	334.2989	15065.7	14299.05
806.5101	336.5001	14787.45	14023.9
806.6533	338.7007	14566.95	13801.05
806.7965	340.9008	14437.5	13670.2
806.9397	343.1003	14284.3	13513.85
807.0829	345.2992	14207.35	13437.85
807.2261	347.4976	14203.25	13432.6
807.3693	349.6955	14173.15	13400.2
807.5126	351.8927	14244.2	13470.65
807.6559	354.0895	14237.75	13452.7
807.7991	356.2856	14283.6	13506.05
807.9424	358.4812	14235.25	13459.95
808.0857	360.6763	14297.15	13517.35
808.2291	362.8707	14237.35	13458.85
808.3724	365.0646	14271.05	13489.55
808.5158	367.258	14226	13442.9
808.6591	369.4508	14228.95	13442.25
808.8025	371.643	14278.2	13495.7
808.9459	373.8346	14222.15	13435.5
809.0893	376.0257	14185.25	13394.8
809.2327	378.2162	14087.2	13296.7
809.3762	380.4062	13957.5	13162.65
809.5196	382.5956	13806.2	13009.15
809.6631	384.7844	13692.1	12895
809.8066	386.9726	13554.8	12757.6
809.9501	389.1603	13522.5	12727.2
810.0936	391.3474	13443.15	12604.75
810.2371	393.5339	13417.25	12620.8
810.3806	395.7199	13355.35	12566.85
810.5241	397.9052	13363.15	12578.35
810.6677	400.09	13325.5	12536.25
810.8113	402.2743	13384.95	12599.9
810.9548	404.4579	13437.3	12651.4
811.0984	406.641	13575.15	12788.3
811.2421	408.8235	13792.6	13003.8
811.3857	411.0054	14152.6	13364.15
811.5293	413.1868	14643.95	13850.95
811.673	415.3675	15059.2	14268.65
811.8166	417.5477	15291.65	14496.55
811.9603	419.7273	15362.25	14565.75
812.104	421.9064	15276.4	14471.4
812.2477	424.0848	15091.7	14291.25
812.3914	426.2627	14844.75	14043.8
812.5351	428.4399	14524.5	13721.7
812.6788	430.6166	14147.95	13340.95
812.8226	432.7928	13722.05	12913.75
812.9663	434.9683	13406.55	12597.9
813.1101	437.1432	13150.95	12340.1
813.2539	439.3176	12946.4	12138.25
813.3977	441.4914	12830.45	12022.1
813.5415	443.6645	12779.75	11968.55
813.6853	445.8371	12725.3	11911
813.8291	448.0091	12632.85	11823.75
813.973	450.1806	12579.95	11767.2
814.1168	452.3514	12527.55	11715.45
814.2607	454.5216	12493.65	11669.35
814.4046	456.6913	12403.8	11586.85
814.5485	458.8603	12417.75	11602.5
814.6924	461.0288	12464.05	11652.4
814.8363	463.1967	12529.25	11719
814.9802	465.3639	12663.85	11848.2
815.1241	467.5306	12777.7	11961.1
815.2681	469.6967	12942.85	12127.15
815.412	471.8622	13119.15	12300.2
815.556	474.0271	13294.5	12478.25
815.7	476.1914	13389.95	12571.1
815.844	478.3551	13361.5	12546.45
815.988	480.5182	13326.7	12505.6
816.132	482.6807	13235.7	12415.85
816.276	484.8426	13279.55	12460.5
816.4201	487.0039	13513.65	12695.75
816.5641	489.1647	13902.7	13079.85
816.7082	491.3248	14405.15	13584.95
816.8522	493.4843	14637.5	13817.05
816.9963	495.6432	14647.5	13826.55
817.1404	497.8015	14582.3	13756.95
817.2845	499.9592	14602.25	13780.4
817.4286	502.1163	14576.7	13754.9
817.5727	504.2728	14390.75	13567.9
817.7168	506.4287	14057.7	13234.55
817.861	508.5839	13586.05	12763.3
818.0051	510.7386	13196.35	12372.1
818.1493	512.8927	12915.65	12087.8
818.2935	515.0461	12739	11912.85
818.4377	517.199	12611.8	11784.7
818.5818	519.3512	12520.15	11695.7
818.726	521.5029	12521.2	11688.8
818.8703	523.6539	12468.5	11639.5
819.0145	525.8043	12492.15	11662.45
819.1587	527.9541	12539.35	11708.25
819.303	530.1033	12578.65	11749.75
819.4472	532.2519	12653.6	11823.75
819.5915	534.3999	12830.15	11998.35
819.7357	536.5472	13162.75	12329.85
819.88	538.694	13687.2	12854.2
820.0243	540.8401	14351.9	13520.85
820.1686	542.9856	14971.95	14136.55
820.3129	545.1305	15209.75	14376.4
820.4572	547.2748	15009.45	14175.3
820.6016	549.4185	14595.2	13759.45
820.7459	551.5615	14152.55	13318.45
820.8902	553.704	13913.55	13078.6
821.0346	555.8458	13818.45	12982.95
821.1789	557.987	13751	12917.2
821.3233	560.1276	13570.5	12735.55
821.4677	562.2675	13445.05	12615
821.6121	564.4069	13291.4	12455.05
821.7565	566.5456	13145.45	12310.55
821.9009	568.6837	12996.25	12161.15
822.0453	570.8212	12753.5	11920.9
822.1897	572.958	12492.65	11656.25
822.3342	575.0942	12322.8	11487.25
822.4786	577.2299	12220.65	11384.6
822.6231	579.3648	12248.5	11408.05
822.7675	581.4992	12351.8	11516.75
822.912	583.6329	12564.5	11727.9
823.0565	585.766	12787.65	11950.95
823.201	587.8985	12950.45	12116.05
823.3454	590.0304	12970.35	12123.4
823.4899	592.1616	12891.25	12052.4
823.6345	594.2922	12795.75	11957
823.779	596.4222	12663.45	11823.7
823.9235	598.5515	12450.85	11610.95
824.068	600.6802	12248.8	11409.15
824.2126	602.8083	12079.3	11238.45
824.3571	604.9358	11996.8	11154.4
824.5017	607.0626	11865.65	11022.9
824.6462	609.1888	11806.6	10963.95
824.7908	611.3144	11664.25	10822.85
824.9354	613.4393	11466.5	10623.95
825.08	615.5636	11288.15	10446.3
825.2246	617.6873	11149.1	10309
825.3692	619.8103	11082.2	10237.1
825.5138	621.9327	11057.75	10212.4
825.6584	624.0544	11005.25	10160.15
825.803	626.1756	11007.55	10164.9
825.9477	628.2961	11008.35	10163.9
826.0923	630.4159	10930.85	10086.4
826.237	632.5351	10881.05	10033.85
826.3816	634.6537	10787.35	9941
826.5263	636.7716	10752.75	9906.7
826.6709	638.8889	10726.1	9880.8
826.8156	641.0056	10743.85	9898.4
826.9603	643.1216	10741.8	9893.65
827.105	645.237	10787.75	9938.25
827.2497	647.3518	10743.05	9893.9
827.3944	649.4659	10784.95	9938
827.5391	651.5793	10773.35	9924.6
827.6838	653.6922	10758	9910.5
827.8285	655.8043	10711.5	9861.9
827.9733	657.9159	10690.05	9842.3
828.118	660.0268	10622.75	9770.75
828.2627	662.137	10521.15	9670.45
828.4075	664.2466	10481.35	9630.65
828.5522	666.3556	10442.3	9590.8
828.697	668.4639	10445.3	9590.1
828.8418	670.5716	10495.8	9645.6
828.9865	672.6786	10563.1	9710.35
829.1313	674.785	10645.8	9792.1
829.2761	676.8907	10721.4	9870.15
829.4209	678.9958	10817.45	9966.7
829.5657	681.1002	10785.45	9932.8
829.7105	683.204	10741.25	9886.9
829.8553	685.3072	10671.85	9817.75
830.0001	687.4097	10578.9	9725.95
830.1449	689.5115	10515.25	9658.95
830.2898	691.6127	10421.3	9567.95
830.4346	693.7132	10322.55	9466.6
830.5794	695.8131	10272.1	9400.1
830.7243	697.9123	10199.35	9344.45
830.8691	700.0109	10131.9	9276.75
831.014	702.1089	10095.65	9240.8
831.1588	704.2061	10097.25	9241
831.3037	706.3028	10115.9	9258.65
831.4486	708.3987	10159.55	9303.95
831.5935	710.4941	10261.45	9404.15
831.7383	712.5887	10462.55	9604
831.8832	714.6827	10786.6	9928.65
832.0281	716.7761	11187.5	10330.65
832.173	718.8688	11587	10730.15
832.3179	720.9608	11815.7	10956.2
832.4628	723.0522	11814.05	10950.35
832.6077	725.1429	11555.85	10698.9
832.7527	727.233	11155.7	10298.55
832.8976	729.3224	10815.15	9955.3
833.0425	731.4112	10422	9561.2
833.1874	733.4993	10191.75	9333.1
833.3324	735.5867	10040.4	9179.25
833.4773	737.6735	9946.1	9084.95
833.6222	739.7596	9888.05	9028
833.7672	741.845	9857.75	8997.8
833.9122	743.9298	9821.35	8962
834.0571	746.014	9832.3	8972.65
834.2021	748.0974	9839.1	8978.5
834.347	750.1802	9845.25	8984.7
834.492	752.2624	9814.55	8955.1
834.637	754.3439	9850.15	8988.95
834.782	756.4247	9898.55	9029.05
834.9269	758.5048	9964.1	9105.6
835.0719	760.5843	10114.4	9253.45
835.2169	762.6631	10375.15	9511.5
835.3619	764.7413	10824.65	9962.35
835.5069	766.8188	11370.65	10505.65
835.6519	768.8956	11843.2	10981.1
835.7969	770.9718	12195.15	11333
835.9419	773.0473	12084.65	11225.5
836.0869	775.1221	11761.1	10899.25
836.232	777.1962	11385.8	10524.85
836.377	779.2697	11176.45	10311.95
836.522	781.3426	11212	10332.15
836.667	783.4147	11501	10639.2
836.8121	785.4862	11846.45	10984.1
836.9571	787.557	11870.75	11008.95
837.1021	789.6271	11517.7	10654.8
837.2472	791.6966	10953.75	10090.75
837.3922	793.7654	10433.5	9567.9
837.5373	795.8335	10109.25	9246.15
837.6823	797.901	9869.1	9005.6
837.8274	799.9678	9826.7	8963.4
837.9724	802.0339	9822.6	8959.6
838.1175	804.0993	9894.45	9020.05
838.2626	806.1641	9852.35	8990.4
838.4076	808.2282	9813.15	8950.3
838.5527	810.2916	9690.35	8823.05
838.6978	812.3544	9600.15	8735.7
838.8428	814.4164	9485.55	8622.1
838.9879	816.4778	9443.05	8578
839.133	818.5385	9429.7	8566.8
839.2781	820.5986	9458.85	8595.6
839.4232	822.658	9499.65	8632.85
839.5682	824.7166	9525.6	8660.85
839.7133	826.7747	9636.3	8772.55
839.8584	828.832	9737	8870
840.0035	830.8886	9820.35	8954.15
840.1486	832.9446	9988.25	9121.3
840.2937	834.9999	10103.15	9239.8
840.4388	837.0545	10185.65	9317.1
840.5839	839.1085	10247.1	9380.65
840.729	841.1618	10288.35	9419.95
840.8741	843.2143	10273.15	9404.75
841.0192	845.2662	10214.7	9348.3
841.1643	847.3175	10129.05	9263.05
841.3095	849.368	10019.25	9152.7
841.4546	851.4179	9891.5	9025.05
841.5997	853.467	9717.5	8849.4
841.7448	855.5155	9618.85	8752
841.8899	857.5633	9483.65	8617.65
842.0351	859.6105	9354.7	8490.35
842.1802	861.6569	9293.9	8426.9
842.3253	863.7027	9224.45	8356.1
842.4704	865.7478	9176.4	8308.5
842.6156	867.7922	9181.7	8313.85
842.7607	869.8359	9234.75	8366.4
842.9058	871.8789	9344.4	8477.3
843.0509	873.9212	9550.7	8647.4
843.1961	875.9629	9705.25	8839.15
843.3412	878.0039	9904.25	9036.8
843.4863	880.0441	9994	9126.75
843.6315	882.0837	9993.45	9122.3
843.7766	884.1226	9853.4	8984.65
843.9218	886.1609	9705.05	8837.25
844.0669	888.1984	9529.8	8662.75
844.212	890.2352	9441.65	8573.95
844.3572	892.2714	9380.85	8509.3
844.5023	894.3069	9323.6	8454.75
844.6475	896.3416	9267.75	8399.25
844.7926	898.3757	9250.25	8382.2
844.9377	900.4091	9242.95	8370.1
845.0829	902.4418	9234.15	8360.3
845.228	904.4739	9242.95	8372.2
845.3732	906.5052	9227.35	8356.1
845.5183	908.5358	9092.6	8221.2
845.6635	910.5658	8959.5	8088.25
845.8086	912.595	8805.15	7933
845.9538	914.6236	8677.1	7806.4
846.0989	916.6515	8628.4	7756.45
846.2441	918.6786	8623.9	7748.65
846.3892	920.7051	8688.6	7817.8
846.5344	922.7309	8784.65	7911.45
846.6795	924.756	8858.75	7988.4
846.8246	926.7804	8944	8071.95
846.9698	928.8041	8909.45	8037.4
847.1149	930.8272	8935.3	8063.45
847.2601	932.8495	8878.45	8004.85
847.4052	934.8711	8801.6	7931.8
847.5504	936.892	8621.9	7749.55
847.6955	938.9123	8433.1	7559.65
847.8407	940.9318	8286.65	7415.05
847.9858	942.9506	8149.2	7275.1
848.131	944.9688	8051.45	7179.5
848.2761	946.9862	8006.8	7135.15
848.4213	949.003	7956.7	7083.2
848.5664	951.019	7962.15	7090.65
848.7115	953.0344	7990.95	7118.95
848.8567	955.0491	8027.7	7153.15
849.0018	957.063	8084.45	7211.3
849.147	959.0763	8200.85	7328.8
849.2921	961.0888	8243	7368.3
849.4373	963.1007	8336.35	7464.15
849.5824	965.1119	8356.55	7483.3
849.7275	967.1223	8403.65	7530.8
849.8727	969.1321	8414.65	7543.15
850.0178	971.1412	8460.8	7590.7
850.1629	973.1495	8487.2	7615.1
850.3081	975.1572	8547.35	7634.9
850.4532	977.1641	8548.15	7676.1
850.5983	979.1704	8541.8	7666.6
850.7435	981.1759	8522.5	7645.85
850.8886	983.1808	8572.25	7695.45
851.0337	985.1849	8709.7	7823.3
851.1788	987.1884	8877.75	8002.4
851.324	989.1911	9077.25	8199.05
851.4691	991.1932	9208.15	8332.75
851.6142	993.1945	9275.45	8401.9
851.7593	995.1951	9240.1	8363.1
851.9045	997.1951	9228.45	8346.6
852.0496	999.1943	9115.4	8242
852.1947	1001.1928	9074.9	8200
852.3398	1003.1906	9060	8187
852.4849	1005.1877	9086.3	8210.4
852.63	1007.1841	9028.75	8154.1
852.7751	1009.1798	8925	8048.6
852.9202	1011.1748	8733.2	7859.8
853.0653	1013.1691	8522.65	7647.1
853.2104	1015.1627	8308.65	7433.1
853.3555	1017.1556	8121.25	7247.85
853.5006	1019.1477	7998.2	7123.45
853.6457	1021.1392	7926.6	7054.2
853.7908	1023.1299	7930.75	7057.5
853.9359	1025.12	7981.95	7105.15
854.081	1027.1093	8007.35	7135.2
854.2261	1029.0979	8088	7212.65
854.3712	1031.0859	8143.3	7267.15
854.5163	1033.0731	8141.1	7263.6
854.6613	1035.0596	8059.5	7185.4
854.8064	1037.0454	7929.35	7053.7
854.9515	1039.0304	7826.75	6949.2
855.0965	1041.0148	7688	6810.75
855.2416	1042.9985	7609.5	6733.25
855.3867	1044.9814	7554.75	6681.7
855.5317	1046.9636	7500.75	6624.4
855.6768	1048.9452	7480.6	6606.15
855.8219	1050.926	7486.5	6611.9
855.9669	1052.9061	7454.05	6579.75
856.112	1054.8855	7446.35	6572.65
856.257	1056.8642	7465.9	6590.95
856.4021	1058.8421	7546.05	6665.7
856.5471	1060.8194	7559.1	6682.45
856.6921	1062.7959	7579.25	6702.8
856.8372	1064.7717	7588.6	6712.1
856.9822	1066.7469	7577.85	6701
857.1272	1068.7213	7547.65	6666.8
857.2723	1070.695	7504.35	6628.7
857.4173	1072.6679	7433.6	6556.25
857.5623	1074.6402	7398.45	6522.5
857.7073	1076.6117	7376.3	6495.3
857.8523	1078.5826	7377.1	6503
857.9973	1080.5527	7450.55	6571
858.1423	1082.5221	7604.7	6727.15
858.2873	1084.4908	7827.9	6950.2
858.4323	1086.4587	8052.05	7173.05
858.5773	1088.426	8228.45	7352.85
858.7223	1090.3925	8253.1	7370.8
858.8673	1092.3584	8170.35	7294.25
859.0123	1094.3235	7995.65	7118.65
859.1573	1096.2879	7863.85	6985.55
859.3022	1098.2515	7815.5	6938.95
859.4472	1100.2145	7837.25	6960.75
859.5922	1102.1767	7903.85	7026.5
859.7371	1104.1382	8013.15	7136.05
859.8821	1106.099	8240.8	7361.45
860.027	1108.0591	8448.1	7573.35
860.172	1110.0185	8585.05	7703.55
860.3169	1111.9771	8579.55	7704.65
860.4619	1113.9351	8364.6	7487.2
860.6068	1115.8923	8050.45	7171.55
860.7517	1117.8488	7700.25	6820.35
860.8967	1119.8045	7405.55	6529.2
861.0416	1121.7596	7268.8	6389.3
861.1865	1123.7139	7184.3	6308.75
861.3314	1125.6675	7172	6291.75
861.4763	1127.6204	7249.2	6374.7
861.6212	1129.5726	7256.3	6377.55
861.7661	1131.524	7284.45	6406.6
861.911	1133.4748	7327.6	6449.3
862.0559	1135.4248	7382.05	6503.5
862.2008	1137.3741	7402.9	6526.55
862.3457	1139.3226	7371.45	6493.15
862.4905	1141.2705	7345.45	6467.15
862.6354	1143.2176	7278.45	6393.75
862.7803	1145.164	7306.05	6427.1
862.9251	1147.1097	7348.05	6469.8
863.07	1149.0546	7315.7	6435.8
863.2148	1150.9989	7208.9	6330.9
863.3597	1152.9424	7026.1	6148.4
863.5045	1154.8852	6833.15	5955.6
863.6493	1156.8272	6692	5815
863.7942	1158.7686	6611.45	5727.25
863.939	1160.7092	6570.5	5691.65
864.0838	1162.6491	6571.1	5690.2
864.2286	1164.5883	6622.85	5744.4
864.3734	1166.5267	6675.8	5798.25
864.5182	1168.4644	6826.7	5947.5
864.663	1170.4014	6992.75	6112
864.8078	1172.3377	7221.3	6343.8
864.9526	1174.2732	7433.9	6555
865.0974	1176.2081	7638.7	6760.95
865.2421	1178.1421	7796.35	6916.3
865.3869	1180.0755	7934.55	7056.95
865.5317	1182.0082	7933.7	7056.35
865.6764	1183.9401	7884.9	7005.25
865.8212	1185.8713	7676.7	6798.85
865.9659	1187.8017	7425.2	6548.1
866.1106	1189.7315	7169.75	6292.15
866.2554	1191.6605	6938.6	6033.9
866.4001	1193.5888	6733.4	5855.05
866.5448	1195.5163	6613.85	5737.15
866.6895	1197.4432	6515.8	5637.5
866.8342	1199.3693	6431.35	5553.85
866.9789	1201.2947	6376	5495
867.1236	1203.2193	6368.95	5488.85
867.2683	1205.1432	6366.95	5486.05
867.413	1207.0664	6423.9	5544.9
867.5576	1208.9889	6518.85	5635.4
867.7023	1210.9106	6580.85	5699.8
867.847	1212.8316	6696.45	5819.25
867.9916	1214.7519	6790.9	5902.65
868.1363	1216.6715	6788.35	5910.15
868.2809	1218.5903	6794.05	5914.25
868.4255	1220.5084	6749.4	5869.9
868.5701	1222.4257	6712.25	5833.35
868.7148	1224.3424	6661.7	5782.75
868.8594	1226.2583	6695.8	5812.7
869.004	1228.1735	6800.9	5920.35
869.1486	1230.0879	6944.55	6064
869.2932	1232.0016	7077.6	6201.1
869.4377	1233.9146	7103.4	6222.75
869.5823	1235.8269	7023.5	6146.55
869.7269	1237.7384	6886.85	6008.7
869.8715	1239.6492	6720.8	5843.95
870.016	1241.5592	6604.15	5723.2
870.1606	1243.4686	6521.1	5644
870.3051	1245.3772	6430.15	5551.7
870.4496	1247.285	6381.8	5504.6
870.5941	1249.1922	6338.15	5457.05
870.7387	1251.0986	6329.95	5453.5
870.8832	1253.0042	6342.2	5462.75
871.0277	1254.9092	6410.85	5530.25
871.1722	1256.8134	6513.45	5633.7
871.3167	1258.7169	6638.1	5758.35
871.4611	1260.6196	6813.25	5935.1
871.6056	1262.5216	6973.6	6090.85
871.7501	1264.4229	7114.15	6236.7
871.8945	1266.3234	7236.7	6357.9
872.039	1268.2232	7245.9	6364.5
872.1834	1270.1223	7236.15	6356.6
872.3278	1272.0207	7223.9	6343.65
872.4723	1273.9183	7184.6	6297.3
872.6167	1275.8151	7097.8	6219.8
872.7611	1277.7113	7005.5	6124
872.9055	1279.6067	6854.9	5976.6
873.0499	1281.5014	6703	5820.7
873.1943	1283.3953	6558	5674.3
873.3386	1285.2885	6435.25	5556.25
873.483	1287.181	6368.9	5487.6
873.6274	1289.0727	6386.2	5506.6
873.7717	1290.9637	6408.3	5528.3
873.9161	1292.854	6514.65	5635.2
874.0604	1294.7435	6694.3	5814.4
874.2047	1296.6323	6895.35	6014.3
874.349	1298.5204	7146	6261.2
874.4933	1300.4077	7426.15	6544.85
874.6376	1302.2943	7612.85	6733.65
874.7819	1304.1802	7698.2	6820.4
874.9262	1306.0653	7657.9	6775.6
875.0705	1307.9497	7518.65	6637.1
875.2147	1309.8333	7484.9	6605.4
875.359	1311.7162	7485.1	6603.45
875.5032	1313.5984	7575.15	6691.85
875.6475	1315.4798	7706.45	6825.2
875.7917	1317.3605	7881.15	6984.7
875.9359	1319.2405	8040.95	7155.95
876.0801	1321.1197	8094.4	7213.85
876.2243	1322.9982	8089.9	7204.5
876.3685	1324.876	8067.25	7189.35
876.5127	1326.753	8037.65	7156.1
876.6569	1328.6293	8072.05	7191.5
876.801	1330.5048	8084.05	7201.95
876.9452	1332.3796	8036.05	7159.05
877.0893	1334.2537	8035.15	7128.2
877.2335	1336.127	7983.75	7103.1
877.3776	1337.9996	7926	7046.1
877.5217	1339.8714	7860.3	6978.8
877.6658	1341.7426	7846.1	6921.25
877.8099	1343.6129	7763.8	6883.85
877.954	1345.4826	7668.35	6788.1
878.0981	1347.3515	7611.85	6727.55
878.2422	1349.2196	7572.7	6690.5
878.3862	1351.087	7567.25	6688.35
878.5303	1352.9537	7618.9	6738.95
878.6743	1354.8197	7746.3	6865.75
878.8184	1356.6849	7876.3	6996.6
878.9624	1358.5493	7953.45	7072.7
879.1064	1360.4131	7935.2	7054.55
879.2504	1362.276	7871.2	6988.5
879.3944	1364.1383	7720.15	6839.5
879.5384	1365.9998	7505.9	6620.45
879.6823	1367.8606	7227.95	6345.45
879.8263	1369.7206	6997.4	6114.15
879.9702	1371.5799	6837.95	5956.55
880.1142	1373.4384	6743.65	5863.35
880.2581	1375.2962	6610.3	5729.55
880.402	1377.1533	6364.6	5482.85
880.5459	1379.0096	6108.5	5226.1
880.6898	1380.8652	5838.6	4956.2
880.8337	1382.7201	5613.2	4730.8
880.9776	1384.5742	5420.2	4537
881.1215	1386.4275	5279.7	4398.25
881.2653	1388.2802	5192.9	4313.05
881.4092	1390.132	5089.1	4209.9
881.553	1391.9832	5033.85	4148.75
881.6968	1393.8336	4946.4	4065.35
881.8406	1395.6832	4920.9	4039.6
881.9844	1397.5322	4906.1	4024.05
882.1282	1399.3803	4887.3	4002.1
882.272	1401.2278	4879.55	3997.15
882.4158	1403.0745	4886.25	4004.15
882.5595	1404.9204	4858.65	3977.7
882.7033	1406.7656	4885.4	4004.2
882.847	1408.6101	4893.65	4011.5
882.9908	1410.4538	4936.8	4055.35
883.1345	1412.2968	4967.4	4087.55
883.2782	1414.139	5018.65	4138.45
883.4219	1415.9805	5091.15	4210.25
883.5656	1417.8213	5194.5	4306.2
883.7092	1419.6613	5322.65	4443.6
883.8529	1421.5006	5522.6	4639.6
883.9965	1423.3391	5789.1	4904.95
884.1402	1425.1769	6158.8	5276.55
884.2838	1427.0139	6655.8	5771.5
884.4274	1428.8502	7278.6	6395.75
884.571	1430.6858	7910.2	7029.65
884.7146	1432.5206	8354.65	7472.8
884.8582	1434.3547	8621.9	7738.55
885.0018	1436.188	8697.45	7817.4
885.1453	1438.0206	8635.5	7751.65
885.2889	1439.8524	8502.8	7618.25
885.4324	1441.6835	8405.15	7523.6
885.5759	1443.5139	8313.6	7426
885.7194	1445.3435	8233.2	7350.55
885.8629	1447.1724	8201.45	7320.15
886.0064	1449.0005	8128.2	7245.3
886.1499	1450.8279	8030.9	7149.5
886.2933	1452.6545	7992.85	7111.8
886.4368	1454.4804	8014.55	7135.95
886.5802	1456.3056	8020.7	7130.6
886.7237	1458.13	7924.05	7042.6
886.8671	1459.9536	7694.85	6813.1
887.0105	1461.7766	7336.2	6455.85
887.1539	1463.5987	6908.3	6024.05
887.2972	1465.4202	6531.35	5649.4
887.4406	1467.2409	6153.1	5270
887.584	1469.0608	5875.45	4993.5
887.7273	1470.88	5612.35	4728.85
887.8706	1472.6984	5406.15	4523.7
888.0139	1474.5161	5199.6	4315.4
888.1572	1476.3331	5049.85	4170.35
888.3005	1478.1493	4909.15	4026.05
888.4438	1479.9648	4807.35	3926.4
888.5871	1481.7795	4727.3	3843.75
888.7303	1483.5935	4647.7	3766.7
888.8736	1485.4067	4575.85	3695.15
889.0168	1487.2192	4541.1	3659.5
889.16	1489.031	4488.35	3606.45
889.3032	1490.842	4463.05	3581.5
889.4464	1492.6522	4421	3540.4
889.5896	1494.4618	4388.85	3504.55
889.7327	1496.2705	4375.95	3493.15
889.8759	1498.0785	4366.95	3485
890.019	1499.8858	4346.6	3463.7
890.1622	1501.6924	4313.3	3432.3
890.3053	1503.4981	4305.45	3422.85
890.4484	1505.3032	4279.15	3397.4
890.5914	1507.1075	4274.35	3393.95
890.7345	1508.911	4247.65	3365.95
890.8776	1510.7138	4204.2	3321.65
891.0206	1512.5159	4181.4	3297.6
891.1637	1514.3172	4138	3255.8
891.3067	1516.1178	4107.5	3227.3
891.4497	1517.9176	4095.05	3209.85
891.5927	1519.7166	4081.25	3200.1
891.7357	1521.515	4065.1	3179.05
891.8786	1523.3126	4043.8	3162.9
892.0216	1525.1094	4010.35	3128.3
892.1645	1526.9055	3993.35	3111.95
892.3074	1528.7008	3970.1	3088.2
892.4503	1530.4954	3977.05	3090.45
892.5932	1532.2893	3951.4	3072.85
892.7361	1534.0824	3940	3051.2
892.879	1535.8747	3943.65	3060.7
893.0218	1537.6663	3928.6	3045.4
893.1647	1539.4572	3910.5	3029.5
893.3075	1541.2473	3917.6	3035
893.4503	1543.0367	3920.65	3040.15
893.5931	1544.8253	3919.1	3032.4
893.7359	1546.6132	3916.85	3034.65
893.8787	1548.4003	3923.2	3033.6
894.0214	1550.1867	3937.9	3049.25
894.1642	1551.9723	3947.9	3062.45
894.3069	1553.7572	3967	3085.15
894.4496	1555.5414	3968.2	3086.35
894.5923	1557.3247	4022.75	3141.3
894.735	1559.1074	4069.1	3189.75
894.8777	1560.8893	4097.3	3219.85
895.0204	1562.6705	4162.3	3280.15
895.163	1564.4509	4246.2	3367.25
895.3056	1566.2305	4322.7	3441.95
895.4482	1568.0094	4410.9	3530.55
895.5908	1569.7876	4498.85	3619.7
895.7334	1571.565	4566.5	3684.25
895.876	1573.3417	4614.1	3733.15
896.0186	1575.1176	4634.4	3753.15
896.1611	1576.8928	4606.45	3725.05
896.3036	1578.6672	4533.85	3651.9
896.4461	1580.4409	4433.25	3552.7
896.5886	1582.2138	4316.7	3432.85
896.7311	1583.986	4209.7	3327.7
896.8736	1585.7575	4098.35	3217.9
897.0161	1587.5282	4023.4	3143.7
897.1585	1589.2981	3970.3	3090.25
897.3009	1591.0673	3918.3	3035.1
897.4433	1592.8358	3905.85	3023.75
897.5857	1594.6035	3890.4	3008.2
897.7281	1596.3704	3895.5	3012.65
897.8705	1598.1366	3898.25	3018.65
898.0128	1599.9021	3935.95	3056.85
898.1551	1601.6668	3942.4	3058.3
898.2975	1603.4308	3985.2	3102.55
898.4398	1605.194	4062	3174.5
898.5821	1606.9564	4148.1	3265.7
898.7243	1608.7182	4250.9	3365.15
898.8666	1610.4791	4353.25	3471.75
899.0088	1612.2394	4501.25	3620.3
899.1511	1613.9988	4695.15	3814.3
899.2933	1615.7576	4929.75	4049.45
899.4355	1617.5156	5174.5	4286.55
899.5776	1619.2728	5403.8	4523.65
899.7198	1621.0293	5574.95	4694.5
899.862	1622.785	5688.85	4804.35
900.0041	1624.54	5641.55	4759.35
900.1462	1626.2942	5511.55	4627.6
900.2883	1628.0477	5281.6	4397.6
900.4304	1629.8005	5038.9	4154.65
900.5725	1631.5525	4792.75	3911.4
900.7145	1633.3037	4593.05	3710.2
900.8566	1635.0542	4448.9	3568.65
900.9986	1636.804	4304.05	3420.75
901.1406	1638.553	4281.65	3321.55
901.2826	1640.3013	4167.75	3288.75
901.4245	1642.0488	4126.85	3243.95
901.5665	1643.7955	4092.35	3214.65
901.7085	1645.5416	4118.8	3235.95
901.8504	1647.2868	4182.1	3302.85
901.9923	1649.0313	4239.5	3358.8
902.1342	1650.7751	4376.7	3492.35
902.2761	1652.5181	4556.7	3675.45
902.4179	1654.2604	4793.65	3911.9
902.5598	1656.0019	5115.95	4237.15
902.7016	1657.7427	5465.8	4584.65
902.8434	1659.4828	5814.8	4934.55
902.9852	1661.222	6071.3	5190.3
903.127	1662.9606	6123.4	5243.3
903.2687	1664.6984	5954.35	5072.85
903.4105	1666.4354	5652	4770.8
903.5522	1668.1717	5223.15	4341.5
903.6939	1669.9072	4808.4	3927.25
903.8356	1671.642	4431	3547.75
903.9773	1673.3761	4144	3265
904.119	1675.1094	3901.55	3019.65
904.2606	1676.8419	3732.6	2851.4
904.4022	1678.5737	3603.05	2721.6
904.5439	1680.3048	3526.4	2647.1
904.6855	1682.0351	3448.7	2568.1
904.827	1683.7646	3398.05	2516.7
904.9686	1685.4934	3348.75	2468.7
905.1101	1687.2215	3307.4	2427.95
905.2517	1688.9488	3284.75	2404.5
905.3932	1690.6754	3247.6	2368
905.5347	1692.4012	3234.45	2353.6
905.6761	1694.1263	3215.6	2335.8
905.8176	1695.8506	3189.8	2309.55
905.9591	1697.5742	3172.95	2292.05
906.1005	1699.297	3148.95	2267.95
906.2419	1701.0191	3135.9	2256.8
906.3833	1702.7404	3100.45	2220.85
906.5246	1704.461	3084.75	2204.05
906.666	1706.1808	3087.45	2204.25
906.8073	1707.8999	3065.5	2182.85
906.9487	1709.6182	3055.55	2174.5
907.09	1711.3358	3045.15	2164.35
907.2313	1713.0527	3031.3	2151.5
907.3725	1714.7688	3015.75	2130.3
907.5138	1716.4841	3004.4	2121.7
907.655	1718.1987	3002.25	2116.9
907.7962	1719.9126	2982.3	2103.1
907.9374	1721.6257	2978.75	2095.15
908.0786	1723.338	2961.3	2079.45
908.2198	1725.0496	2936.2	2056.75
908.3609	1726.7605	2932.25	2051.5
908.502	1728.4706	2933.95	2052.55
908.6431	1730.18	2926.7	2043.9
908.7842	1731.8886	2902.55	2021.05
908.9253	1733.5964	2911.85	2025.25
909.0664	1735.3036	2893.1	2010.4
909.2074	1737.0099	2889.2	2009.65
909.3484	1738.7156	2876.75	1996.7
909.4894	1740.4204	2875.25	1992.75
909.6304	1742.1246	2863.75	1980.6
909.7714	1743.8279	2859.5	1982.05
909.9123	1745.5306	2853.5	1970.35
910.0532	1747.2325	2845.5	1965.6
910.1941	1748.9336	2844.05	1964
910.335	1750.634	2836.45	1955.25
910.4759	1752.3336	2816.3	1936.25
910.6168	1754.0325	2808.35	1927.75
910.7576	1755.7307	2812.05	1932.9
910.8984	1757.4281	2812.85	1931.85
911.0392	1759.1247	2802.8	1912.95
911.18	1760.8206	2787	1903.1
911.3208	1762.5158	2800.85	1916
911.4615	1764.2102	2786.15	1908.2
911.6022	1765.9039	2790.15	1911.45
911.7429	1767.5968	2771.9	1893.5
911.8836	1769.289	2769.8	1888.45
912.0243	1770.9804	2764.6	1883.4
912.1649	1772.6711	2750.3	1868.3
912.3056	1774.361	2752.85	1871.35
912.4462	1776.0502	2747.45	1866.6
912.5868	1777.7386	2738.75	1856.6
912.7274	1779.4263	2730.8	1849.75
912.8679	1781.1132	2735.25	1853.25
913.0084	1782.7994	2716.4	1833.25
913.149	1784.4849	2724	1844.85
913.2895	1786.1696	2727.1	1829.6
913.4299	1787.8535	2712.2	1831.85
913.5704	1789.5367	2709.8	1831.25
913.7108	1791.2192	2692.2	1812.7
913.8513	1792.9009	2713.45	1806.25
913.9917	1794.5818	2696.55	1816.25
914.132	1796.2621	2687.65	1810.05
914.2724	1797.9415	2681.75	1800.45
914.4128	1799.6202	2673.65	1793.2
914.5531	1801.2982	2676.35	1795.75
914.6934	1802.9755	2678.6	1796.95
914.8337	1804.6519	2678.5	1798
914.9739	1806.3277	2652.75	1772.1
915.1142	1808.0027	2643.55	1765.25
915.2544	1809.6769	2645.75	1766.2
915.3946	1811.3504	2646.1	1762.3
915.5348	1813.0231	2626.15	1745.85
915.675	1814.6951	2632.85	1751.05
915.8151	1816.3664	2637.75	1754.85
915.9553	1818.0369	2627.6	1747.8
916.0954	1819.7067	2626.9	1746.5
916.2355	1821.3757	2619	1736.65
916.3755	1823.044	2613	1734.15
916.5156	1824.7115	2605.25	1724
916.6556	1826.3783	2615.05	1737.95
916.7956	1828.0443	2592.75	1712.9
916.9356	1829.7096	2595.8	1713.55
917.0756	1831.3741	2590.9	1707.3
917.2155	1833.0379	2589.5	1708.85
917.3555	1834.701	2580.4	1696.95
917.4954	1836.3633	2580.35	1698.85
917.6353	1838.0248	2582.2	1699.35
917.7751	1839.6856	2569.1	1687.85
917.915	1841.3457	2570.3	1692.05
918.0548	1843.005	2566.35	1686.15
918.1946	1844.6636	2571.2	1690.1
918.3344	1846.3214	2567.5	1687.2
918.4742	1847.9785	2547.95	1665.95
918.6139	1849.6349	2552.1	1670.7
918.7537	1851.2904	2566.5	1676.5
918.8934	1852.9453	2542.35	1661.7
919.0331	1854.5994	2542.75	1659.5
919.1727	1856.2528	2551.4	1667.55
919.3124	1857.9054	2545.1	1663.6
919.452	1859.5572	2539.3	1657.9
919.5916	1861.2083	2528.55	1647.3
919.7312	1862.8587	2520.9	1640.35
919.8708	1864.5084	2518.25	1639.45
920.0103	1866.1572	2506.65	1626.8
920.1498	1867.8054	2503.3	1623.35
920.2893	1869.4528	2495.95	1614.8
920.4288	1871.0994	2493.15	1612.45
920.5683	1872.7453	2493.15	1611.5
920.7077	1874.3905	2506.6	1607.65
920.8471	1876.0349	2490.15	1609.75
920.9865	1877.6786	2481.6	1598.85
921.1259	1879.3215	2486.2	1605.75
921.2653	1880.9637	2474.35	1590.6
921.4046	1882.6051	2468.3	1588
921.5439	1884.2458	2471.35	1587.75
921.6832	1885.8858	2470.35	1589
921.8225	1887.525	2443.8	1562
921.9617	1889.1634	2448.55	1570.2
922.101	1890.8011	2445.55	1563.5
922.2402	1892.4381	2434.9	1556.9
922.3794	1894.0743	2433.25	1553.55
922.5185	1895.7098	2442.75	1563.1
922.6577	1897.3446	2426.2	1546.2
922.7968	1898.9786	2427.95	1543.05
922.9359	1900.6118	2414.8	1536.55
923.075	1902.2443	2412.35	1528.85
923.214	1903.8761	2403.95	1524.2
923.3531	1905.5071	2401.65	1519.85
923.4921	1907.1374	2396.3	1514.75
923.6311	1908.7669	2398.5	1516.95
923.77	1910.3957	2394.2	1513.8
923.909	1912.0237	2374.35	1492.25
924.0479	1913.651	2382.85	1502.65
924.1868	1915.2776	2384.95	1506.5
924.3257	1916.9034	2375.75	1496.15
924.4646	1918.5285	2374.45	1494.65
924.6034	1920.1528	2364.05	1481.75
924.7422	1921.7764	2362.5	1481.1
924.881	1923.3992	2361.95	1480.25
925.0198	1925.0213	2343.6	1462.5
925.1586	1926.6427	2329.65	1451.8
925.2973	1928.2633	2430.2	1444.75
925.436	1929.8832	2346.6	1464.4
925.5747	1931.5023	2329.75	1450.35
925.7134	1933.1207	2323.85	1444.4
925.852	1934.7383	2324.85	1444.15
925.9906	1936.3552	2302.2	1422.2
926.1292	1937.9714	2312.3	1431.5
926.2678	1939.5868	2306.7	1423
926.4064	1941.2015	2298.35	1415.6
926.5449	1942.8154	2287.75	1407.9
926.6834	1944.4286	2284.8	1403
926.8219	1946.041	2304.4	1400.85
926.9604	1947.6528	2280.9	1394.65
927.0988	1949.2637	2269.1	1389.85
927.2372	1950.8739	2265.05	1383.85
927.3756	1952.4834	2260.75	1378.5
927.514	1954.0921	2262.95	1382.45
927.6523	1955.7001	2253.3	1367.7
927.7907	1957.3074	2247.75	1368.4
927.929	1958.9139	2236.9	1355
928.0673	1960.5197	2243.85	1360.5
928.2055	1962.1247	2220.2	1339.25
928.3438	1963.729	2213.5	1332.9
928.482	1965.3325	2236.1	1335.7
928.6202	1966.9353	2213.95	1334.6
928.7584	1968.5374	2205.05	1324.8
928.8965	1970.1387	2213.5	1333.85
929.0346	1971.7393	2210.3	1328.85
929.1727	1973.3392	2188.55	1310.8
929.3108	1974.9383	2197.1	1316.75
929.4489	1976.5366	2185.7	1305.5
929.5869	1978.1342	2179.35	1297.85
929.7249	1979.7311	2180.45	1299.3
929.8629	1981.3273	2178.35	1297.2
930.0009	1982.9227	2168.8	1285.65
930.1388	1984.5173	2166.8	1287.8
930.2767	1986.1112	2165.3	1283.45
930.4146	1987.7044	2162.9	1283.4
930.5525	1989.2968	2158	1277.15
930.6904	1990.8885	2159	1274.85
930.8282	1992.4795	2157.1	1273.75
930.966	1994.0697	2147.8	1268.1
931.1038	1995.6592	2140.1	1259.7
931.2415	1997.2479	2141.45	1259.55
931.3793	1998.8359	2132.3	1252.35
931.517	2000.4232	2120.8	1240.1
931.6547	2002.0097	2125.7	1246.05
931.7923	2003.5955	2115.55	1234.35
931.93	2005.1805	2126.4	1245.25
932.0676	2006.7648	2118.2	1239.45
932.2052	2008.3484	2123.3	1240.45
932.3427	2009.9312	2116.2	1234.65
932.4803	2011.5133	2107.45	1229.45
932.6178	2013.0946	2107.25	1229.15
932.7553	2014.6752	2097.85	1220.6
932.8928	2016.2551	2095.85	1214.5
933.0302	2017.8342	2086.85	1205.15
933.1676	2019.4126	2081.3	1200.6
933.305	2020.9902	2082.45	1203.4
933.4424	2022.5672	2075.75	1192.2
933.5798	2024.1433	2089.8	1200.25
933.7171	2025.7188	2071.3	1192.8
933.8544	2027.2935	2072.9	1189.6
933.9917	2028.8674	2071	1189.55
934.129	2030.4406	2073.45	1193.1
934.2662	2032.0131	2062.05	1183.5
934.4034	2033.5849	2057.7	1169.1
934.5406	2035.1559	2061.15	1182.3
934.6778	2036.7261	2053.35	1173.35
934.8149	2038.2957	2049.95	1170.75
934.952	2039.8645	2035.25	1155.35
935.0891	2041.4325	2051.3	1166.6
935.2262	2042.9998	2040.4	1160.9
935.3632	2044.5664	2048.6	1165.65
935.5002	2046.1323	2041.7	1162.35
935.6372	2047.6974	2033.6	1154.1
935.7742	2049.2617	2023.45	1141.9
935.9111	2050.8254	2044.15	1141.95
936.048	2052.3883	2023.15	1141.25
936.1849	2053.9504	2023.55	1142.4
936.3218	2055.5118	2022.1	1138.25
936.4586	2057.0725	2027.4	1142.55
936.5955	2058.6325	2014.55	1134.7
936.7323	2060.1917	1998.35	1118.8
936.869	2061.7502	2008.35	1126.25
937.0058	2063.3079	1987.95	1106.7
937.1425	2064.8649	1997.85	1114.75
937.2792	2066.4212	1991.3	1109
937.4159	2067.9767	1986.9	1104.85
937.5525	2069.5315	1980.55	1100.6
937.6891	2071.0856	1977.25	1095.8
937.8257	2072.6389	1979.85	1096.15
937.9623	2074.1915	1973.8	1093
938.0989	2075.7433	1971.95	1088.85
938.2354	2077.2945	1968.85	1088.25
938.3719	2078.8448	1957	1077.65
938.5084	2080.3945	1955.45	1074.1
938.6448	2081.9434	1958.75	1078.05
938.7812	2083.4916	1951	1070.3
938.9176	2085.039	1946.05	1064.3
939.054	2086.5857	1942.6	1061.05
939.1903	2088.1317	1935.3	1054.35
939.3267	2089.677	1939.25	1056.7
939.463	2091.2215	1935.45	1054.4
939.5992	2092.7652	1940.6	1057.95
939.7355	2094.3083	1928.1	1047.45
939.8717	2095.8506	1930.55	1051.75
940.0079	2097.3921	1929.8	1050.65
940.1441	2098.933	1917.9	1036.9
940.2802	2100.4731	1922.8	1042.6
940.4163	2102.0124	1928.7	1040
940.5524	2103.5511	1920.25	1040.15
940.6885	2105.089	1919.15	1037.85
940.8245	2106.6261	1910.2	1029.55
940.9606	2108.1626	1909.85	1029
941.0965	2109.6983	1940.1	1030.3
941.2325	2111.2332	1906.6	1022.55
941.3684	2112.7675	1904.3	1022.25
941.5044	2114.301	1899.85	1015.65
941.6403	2115.8337	1905.7	1022.9
941.7761	2117.3657	1897.25	1015.65
941.912	2118.897	1896.4	1016
942.0478	2120.4276	1889.2	1002.95
942.1835	2121.9575	1886.95	1006.1
942.3193	2123.4866	1904.25	1008.65
942.455	2125.0149	1885.25	1002.05
942.5907	2126.5426	1871.95	990.35
942.7264	2128.0695	1876.5	991.8
942.8621	2129.5956	1873.05	993.45
942.9977	2131.1211	1872.55	986.35
943.1333	2132.6458	1875.45	996.25
943.2689	2134.1698	1870.75	990.6
943.4044	2135.693	1868	983.85
943.54	2137.2155	1872.45	989.8
943.6755	2138.7373	1867.95	984.2
943.8109	2140.2584	1858.45	977.95
943.9464	2141.7787	1859.8	973
944.0818	2143.2983	1849.8	970.1
944.2172	2144.8171	1839.15	960.7
944.3526	2146.3353	1845.5	962.7
944.4879	2147.8527	1838.1	959.65
944.6232	2149.3693	1852.45	971
944.7585	2150.8853	1841.65	959.3
944.8938	2152.4005	1830.4	950.55
945.029	2153.9149	1827.35	945.6
945.1642	2155.4287	1816.4	937.4
945.2994	2156.9417	1823.7	942.4
945.4346	2158.454	1824.85	940.6
945.5697	2159.9655	1829	949
945.7048	2161.4764	1824.8	943.45
945.8399	2162.9865	1823.65	942.55
945.9749	2164.4958	1819	936.25
946.1099	2166.0045	1818.25	932.75
946.2449	2167.5124	1811.9	930.8
946.3799	2169.0195	1811.3	929.9
946.5148	2170.526	1805.6	922.5
946.6498	2172.0317	1806.35	924.5
946.7846	2173.5367	1810.15	926.35
946.9195	2175.0409	1801.2	921.4
947.0543	2176.5445	1800.15	919.6
947.1891	2178.0473	1794.7	912.5
947.3239	2179.5494	1794.2	911.25
947.4587	2181.0507	1799.6	919.45
947.5934	2182.5513	1789.3	909.45
947.7281	2184.0512	1786.4	905.1
947.8628	2185.5504	1784.45	903.45
947.9974	2187.0488	1789.2	909.15
948.132	2188.5465	1773.6	892.2
948.2666	2190.0435	1772.35	890.3
948.4012	2191.5397	1774.4	893.6
948.5357	2193.0353	1770.75	890.9
948.6702	2194.5301	1763.75	881.9
948.8047	2196.0241	1768.1	887.6
948.9392	2197.5175	1756.7	875.7
949.0736	2199.0101	1765.95	880.4
949.208	2200.502	1755.65	875.9
949.3424	2201.9931	1756.3	874.55
949.4767	2203.4835	1744.4	861.95
949.611	2204.9733	1753	865.85
949.7453	2206.4622	1745.2	864.6
949.8796	2207.9505	1735.05	852.2
950.0138	2209.438	1731.7	852.65
950.148	2210.9248	1731.65	849.4
950.2822	2212.4109	1738.05	857.3
950.4164	2213.8962	1726.45	841.2
950.5505	2215.3809	1731.7	848.85
950.6846	2216.8648	1728.65	846
950.8186	2218.3479	1736.65	851.3
950.9527	2219.8304	1722.8	839.8
951.0867	2221.3121	1723	840.55
951.2207	2222.7931	1714.15	832.4
951.3546	2224.2733	1715.55	834.45
951.4886	2225.7529	1715.55	833
951.6225	2227.2317	1711.75	826.55
951.7563	2228.7098	1703.15	821.9
951.8902	2230.1872	1695.25	813.55
952.024	2231.6638	1692.7	811.85
952.1578	2233.1397	1703.1	817.45
952.2916	2234.6149	1696.95	814.95
952.4253	2236.0894	1695.6	815.15
952.559	2237.5632	1693.2	810.7
952.6927	2239.0362	1692.2	810.85
952.8263	2240.5085	1683.95	803.95
952.9599	2241.9801	1686.95	805.5
953.0935	2243.4509	1673.75	790.9
953.2271	2244.921	1671.6	790.4
953.3606	2246.3904	1673.5	792
953.4941	2247.8591	1660.35	779.25
953.6276	2249.3271	1671.7	791.9
953.7611	2250.7943	1661.6	779.8
953.8945	2252.2608	1659.55	778.75
954.0279	2253.7266	1659.8	778.2
954.1612	2255.1917	1662.75	780.35
954.2946	2256.656	1656.25	773.95
954.4279	2258.1197	1646.35	766.95
954.5612	2259.5826	1654	771.75
954.6944	2261.0447	1646.85	764.85
954.8276	2262.5062	1642.95	761.45
954.9608	2263.9669	1644.2	761.05
955.094	2265.4269	1640.35	761
955.2271	2266.8862	1642.55	760.9
955.3602	2268.3448	1641.15	760
955.4933	2269.8026	1640.9	758.95
955.6264	2271.2598	1633.25	752
955.7594	2272.7162	1636	755.15
955.8924	2274.1719	1632.35	750.8
956.0253	2275.6268	1624.15	744.35
956.1583	2277.0811	1627.2	744.85
956.2912	2278.5346	1630.8	750.3
956.4241	2279.9874	1630.2	749.35
956.5569	2281.4395	1623.4	743.45
956.6897	2282.8908	1622	735.8
956.8225	2284.3414	1616.8	732.75
956.9553	2285.7914	1622.25	742
957.088	2287.2406	1616.35	731.7
957.2207	2288.689	1614.05	731.7
957.3534	2290.1368	1613.65	732.05
957.486	2291.5838	1620.65	740.25
957.6186	2293.0302	1607.25	724.5
957.7512	2294.4758	1610.3	730.5
957.8838	2295.9206	1598.9	716.95
958.0163	2297.3648	1601.4	719.3
958.1488	2298.8082	1599.45	718.25
958.2813	2300.251	1605.15	725.1
958.4137	2301.693	1596.25	714.25
958.5461	2303.1343	1595.95	715.8
958.6785	2304.5748	1592.75	710.95
958.8108	2306.0147	1591.9	710.85
958.9432	2307.4538	1590.45	705.75
959.0754	2308.8922	1588.25	707.45
959.2077	2310.3299	1584.6	703.15
959.3399	2311.7669	1580.55	698.65
959.4721	2313.2031	1579	697.4
959.6043	2314.6387	1579.2	697.65
959.7365	2316.0735	1581.2	699.8
959.8686	2317.5076	1568.5	686.5
960.0006	2318.941	1568.7	686.75
960.1327	2320.3737	1569	687.4
960.2647	2321.8056	1571.8	689
960.3967	2323.2369	1569.1	686.6
960.5287	2324.6674	1571.85	689.35
960.6606	2326.0972	1561.15	678.1
960.7925	2327.5263	1566.3	684.9
960.9244	2328.9547	1561.35	680.75
961.0562	2330.3823	1557.7	675.6
961.1881	2331.8092	1564.5	681.35
961.3198	2333.2355	1548.4	665.7
961.4516	2334.661	1554.95	671.05
961.5833	2336.0858	1553.65	670.65
961.715	2337.5098	1548.4	667.25
961.8467	2338.9332	1544.75	661.85
961.9783	2340.3558	1547.45	662
962.1099	2341.7778	1544.05	660.9
962.2415	2343.199	1548.9	664.5
962.373	2344.6195	1542.9	661.15
962.5045	2346.0393	1551.85	669
962.636	2347.4583	1542.45	660.3
962.7675	2348.8767	1538.85	659.15
962.8989	2350.2943	1539.6	658.05
963.0303	2351.7113	1534.7	653.15
963.1617	2353.1275	1538.95	659.1
963.293	2354.543	1559.05	651.1
963.4243	2355.9578	1539.95	659.25
963.5556	2357.3718	1530.9	648.6
963.6868	2358.7852	1529.95	647.65
963.818	2360.1978	1519.75	638.7
963.9492	2361.6098	1527.1	644.95
964.0803	2363.021	1531.15	647.3
964.2114	2364.4315	1525.8	645
964.3425	2365.8413	1520.65	638.15
964.4736	2367.2504	1517.8	638.6
964.6046	2368.6587	1510.35	627.9
964.7356	2370.0664	1508.45	629.3
964.8666	2371.4733	1508	627
964.9975	2372.8795	1511.3	631.6
965.1284	2374.285	1502.85	624.05
965.2593	2375.6899	1498.85	618.55
965.3901	2377.0939	1502.65	620.9
965.5209	2378.4973	1499	617.4
965.6517	2379.9	1497.65	616.05
965.7825	2381.3019	1495.9	613.2
965.9132	2382.7032	1489.4	610.3
966.0439	2384.1037	1497.65	617.8
966.1745	2385.5035	1501.25	619.95
966.3051	2386.9027	1493.05	611.45
966.4357	2388.3011	1485.15	602.55
966.5663	2389.6987	1485.4	604.7
966.6968	2391.0957	1483.05	601.6
966.8273	2392.492	1481.5	601.6
966.9578	2393.8876	1475.3	592.5
967.0882	2395.2824	1474.15	594.5
967.2186	2396.6765	1480.3	602.1
967.349	2398.07	1465	585.55
967.4793	2399.4627	1470.3	588.75
967.6097	2400.8547	1467.35	588.75
967.7399	2402.246	1469.4	582.85
967.8702	2403.6366	1464.25	583.8
968.0004	2405.0265	1466	585.4
968.1306	2406.4156	1472.35	587.95
968.2607	2407.8041	1469.1	585.45
968.3909	2409.1918	1459.1	575.75
968.521	2410.5789	1461.5	582
968.651	2411.9652	1457.9	574.7
968.781	2413.3508	1456.2	576.05
968.911	2414.7358	1460.45	578.5
969.041	2416.12	1453.9	574.8
969.1709	2417.5035	1455.8	575.65
969.3008	2418.8863	1448.7	569
969.4307	2420.2684	1449.4	569.75
969.5606	2421.6497	1447.7	566.55
969.6904	2423.0304	1438.65	559.7
969.8201	2424.4104	1445.1	562.1
969.9499	2425.7896	1449.65	562.05
970.0796	2427.1682	1442.65	562.1
970.2093	2428.546	1438.75	556.2
970.3389	2429.9232	1435.95	555.55
970.4685	2431.2996	1438.35	558.75
970.5981	2432.6753	1435.4	555
970.7277	2434.0503	1431.25	549.7
970.8572	2435.4246	1426.65	547.9
970.9867	2436.7982	1434.05	552.6
971.1161	2438.1711	1421.3	541.65
971.2456	2439.5433	1425.6	543.95
971.375	2440.9148	1430.95	544.65
971.5043	2442.2856	1422.8	541.95
971.6336	2443.6557	1419.8	536.35
971.7629	2445.025	1416.05	533.8
971.8922	2446.3937	1421.8	540.7
972.0214	2447.7617	1418.35	539.05
972.1506	2449.1289	1422.9	542.8
972.2798	2450.4955	1418.25	534.7
972.4089	2451.8613	1413.95	533.25
972.538	2453.2265	1414.55	534.75
972.6671	2454.5909	1410.6	528.6
972.7961	2455.9546	1407.75	527.45
972.9251	2457.3177	1409.3	527.7
973.0541	2458.68	1411.25	528.4
973.1831	2460.0416	1412.4	533
973.312	2461.4025	1408.95	528.1
973.4408	2462.7627	1418.35	527
973.5697	2464.1222	1411.9	533.05
973.6985	2465.4811	1414.4	532.3
973.8273	2466.8392	1409.55	526.6
973.956	2468.1966	1405.2	519.55
974.0847	2469.5533	1413.4	531.8
974.2134	2470.9093	1409	527.8
974.3421	2472.2645	1407.3	523.55
974.4707	2473.6191	1400.15	519.45
974.5993	2474.973	1396.35	518.45
974.7278	2476.3262	1408	526.75
974.8563	2477.6787	1396.5	515.7
974.9848	2479.0305	1392.65	511.8
975.1132	2480.3816	1392.5	510.05
975.2417	2481.7319	1397.6	515.75
975.37	2483.0816	1389.95	506.1
975.4984	2484.4306	1394.9	512.35
975.6267	2485.7789	1385.05	504
975.755	2487.1264	1385.55	504.05
975.8833	2488.4733	1384	504
976.0115	2489.8195	1407.25	510.25
976.1397	2491.165	1382.45	498.25
976.2678	2492.5097	1392.55	509.3
976.3959	2493.8538	1377.2	497.25
976.524	2495.1972	1378.9	499.35
976.6521	2496.5398	1381.45	497.65
976.7801	2497.8818	1375.7	493.75
976.9081	2499.2231	1371.35	491.25
977.036	2500.5637	1368.55	485.35
977.164	2501.9035	1373.15	489.8
977.2918	2503.2427	1370.25	484.5
977.4197	2504.5812	1365.6	483.5
977.5475	2505.919	1361.3	476.85
977.6753	2507.256	1371.65	491.7
977.8031	2508.5924	1367.6	485.15
977.9308	2509.9281	1369.55	483.3
978.0585	2511.2631	1355.7	476.75
978.1861	2512.5974	1362.9	482.8
978.3137	2513.9309	1353.65	474
978.4413	2515.2638	1388.75	477.15
978.5689	2516.596	1357.9	478.5
978.6964	2517.9275	1357.1	474.5
978.8239	2519.2583	1352.3	471.25
978.9513	2520.5884	1355.8	472.55
979.0788	2521.9178	1352.95	470.95
979.2062	2523.2465	1350.6	470.75
979.3335	2524.5745	1350.2	467.05
979.4608	2525.9018	1355.4	473.6
979.5881	2527.2284	1346.1	465.95
979.7154	2528.5543	1345.4	466.65
979.8426	2529.8796	1347.3	466
979.9698	2531.2041	1353.5	471.95
980.0969	2532.5279	1347	464.15
980.224	2533.851	1349.3	468.35
980.3511	2535.1735	1346.95	466.2
980.4781	2536.4952	1343.05	462.6
980.6052	2537.8163	1347.7	464.5
980.7321	2539.1366	1335.7	455.5
980.8591	2540.4562	1340.85	458.45
980.986	2541.7752	1337.65	458.95
981.1129	2543.0935	1335.45	453.3
981.2397	2544.411	1339.9	457.55
981.3665	2545.7279	1329.8	448.8
981.4933	2547.0441	1333.15	452.2
981.62	2548.3596	1344.45	461.4
981.7467	2549.6744	1333.95	454.4
981.8734	2550.9885	1331.15	445.1
982.0001	2552.3019	1325.65	447
982.1267	2553.6146	1328.95	446.7
982.2532	2554.9266	1318.9	437.8
982.3798	2556.2379	1329.6	447.6
982.5063	2557.5485	1323.05	443.9
982.6327	2558.8585	1328.95	438.7
982.7592	2560.1677	1328.25	444
982.8856	2561.4762	1322.7	441.55
983.0119	2562.7841	1322.3	439.1
983.1383	2564.0913	1320.7	440
983.2646	2565.3977	1317.4	436.3
983.3908	2566.7035	1313.9	433
983.517	2568.0086	1320.85	437
983.6432	2569.313	1315.9	434.2
983.7694	2570.6167	1318.2	432.95
983.8955	2571.9197	1312.95	431.05
984.0216	2573.222	1319.55	435.8
984.1476	2574.5236	1316.45	436.1
984.2737	2575.8246	1315.6	432.05
984.3996	2577.1248	1318.3	434.4
984.5256	2578.4244	1318.7	439.4
984.6515	2579.7232	1318.8	436.55
984.7774	2581.0214	1351.35	437.4
984.9032	2582.3189	1321.95	441.15
985.029	2583.6157	1319.95	434.4
985.1548	2584.9118	1321.3	439.95
985.2806	2586.2072	1320.85	437.6
985.4063	2587.5019	1323.8	442.8
985.5319	2588.7959	1317.35	436.35
985.6576	2590.0893	1325.45	443.3
985.7832	2591.3819	1323.75	443.65
985.9087	2592.6739	1330.45	452.1
986.0343	2593.9652	1331.8	449.9
986.1597	2595.2557	1328.1	446.95
986.2852	2596.5456	1332.2	448.1
986.4106	2597.8348	1329.65	448.3
986.536	2599.1234	1335.8	454.5
986.6614	2600.4112	1326.8	445.6
986.7867	2601.6983	1332.2	446.7
986.912	2602.9848	1336.9	455.7
987.0372	2604.2705	1339.75	449.7
987.1624	2605.5556	1335.9	455.5
987.2876	2606.84	1334.85	454.3
987.4128	2608.1237	1331.1	448.7
987.5379	2609.4067	1330.8	450.25
987.6629	2610.689	1341.8	451
987.788	2611.9707	1333.95	449.85
987.913	2613.2516	1336.9	450.2
988.0379	2614.5319	1327.7	446.85
988.1629	2615.8115	1323.55	442
988.2878	2617.0903	1320.3	438.9
988.4126	2618.3685	1323.75	439.35
988.5375	2619.6461	1321.8	440.3
988.6622	2620.9229	1326.4	446.8
988.787	2622.199	1326.75	445.95
988.9117	2623.4745	1326.05	444.4
989.0364	2624.7493	1322.85	442.35
989.161	2626.0234	1322.35	441.8
989.2857	2627.2968	1327.75	444.5
989.4102	2628.5695	1328.25	445.2
989.5348	2629.8415	1323.05	442.85
989.6593	2631.1128	1321.25	437.5
989.7837	2632.3835	1325.75	443.6
989.9082	2633.6535	1322.35	441.1
990.0326	2634.9228	1326.45	447.15
990.1569	2636.1914	1322.25	441.85
990.2812	2637.4593	1324.75	442.35
990.4055	2638.7265	1321.1	438.5
990.5298	2639.9931	1323.65	441.65
990.654	2641.259	1316.6	435.8
990.7782	2642.5242	1316.85	435.45
990.9023	2643.7887	1313.9	433.3
991.0264	2645.0525	1320.2	439.15
991.1505	2646.3156	1315	432.25
991.2745	2647.5781	1304.3	423.2
991.3985	2648.8398	1314.35	435.25
991.5225	2650.1009	1315.75	425.7
991.6464	2651.3613	1312.4	434.25
991.7703	2652.6211	1311.05	428.55
991.8942	2653.8801	1303.65	425.35
992.018	2655.1385	1310	423.85
992.1418	2656.3961	1307.5	424.95
992.2655	2657.6531	1311.1	429.7
992.3892	2658.9094	1314.1	433.9
992.5129	2660.1651	1309.65	427.45
992.6366	2661.42	1308	425.45
992.7602	2662.6743	1317.15	434.85
992.8837	2663.9279	1316.25	435.3
993.0073	2665.1808	1322.05	441.15
993.1307	2666.433	1325.75	444.2
993.2542	2667.6846	1323.85	444.05
993.3776	2668.9354	1329.3	445.35
993.501	2670.1856	1324.45	442.65
993.6244	2671.4351	1326.15	447.35
993.7477	2672.6839	1330.1	447.85
993.8709	2673.9321	1332.65	452.9
993.9942	2675.1795	1338.35	454
994.1174	2676.4263	1342.5	460.05
994.2405	2677.6724	1334.2	453.3
994.3637	2678.9179	1340.9	458.55
994.4868	2680.1626	1342.4	461.75
994.6098	2681.4067	1339.85	458.7
994.7328	2682.6501	1346.3	463.25
994.8558	2683.8928	1341.4	460.25
994.9788	2685.1348	1336.35	453.8
995.1017	2686.3761	1340.2	460.45
995.2245	2687.6168	1335.6	452.4
995.3474	2688.8568	1328.8	448.2
995.4702	2690.0961	1329.2	449.4
995.5929	2691.3348	1327.2	445.45
995.7156	2692.5727	1316.4	432.2
995.8383	2693.81	1321.1	441.15
995.961	2695.0466	1321.75	441.65
996.0836	2696.2826	1317.5	434.95
996.2062	2697.5178	1316.9	431.5
996.3287	2698.7524	1316.45	435.4
996.4512	2699.9863	1320.4	439.25
996.5737	2701.2195	1328	446.65
996.6961	2702.452	1326.9	445.55
996.8185	2703.6839	1337.2	454.9
996.9408	2704.9151	1335.65	456.7
997.0631	2706.1456	1343.45	460.8
997.1854	2707.3755	1347.8	465.35
997.3077	2708.6046	1354.05	470.75
997.4299	2709.8331	1370.35	487.2
997.552	2711.0609	1365.55	482.4
997.6742	2712.2881	1378.25	497.8
997.7963	2713.5145	1394.75	511.35
997.9183	2714.7403	1390.8	511.4
998.0403	2715.9654	1405.85	522.5
998.1623	2717.1899	1435.2	538.75
998.2842	2718.4136	1428.9	548
998.4062	2719.6367	1439.95	557.35
998.528	2720.8591	1456.65	568.1
998.6498	2722.0809	1466.25	582.3
998.7716	2723.3019	1483.35	598.4
998.8934	2724.5223	1484.25	602.95
999.0151	2725.7421	1499.3	616.85
999.1368	2726.9611	1496.4	612.75
999.2584	2728.1795	1494.5	607.65
999.38	2729.3972	1484.55	602.1
999.5016	2730.6142	1484.45	590.8
999.6231	2731.8306	1465.1	581.8
999.7446	2733.0462	1455.75	573.05
999.8661	2734.2612	1439.55	553
999.9875	2735.4756	1418.95	535.65
1000.1089	2736.6892	1402.2	520.7
1000.2302	2737.9022	1387.55	505.9
1000.3515	2739.1145	1377.55	495.8
1000.4728	2740.3262	1372	482.05
1000.594	2741.5372	1350.05	468.6
1000.7152	2742.7475	1344.6	462.4
1000.8363	2743.9571	1335.6	450.05
1000.9575	2745.1661	1326.25	439.2
1001.0785	2746.3744	1309.95	427.95
1001.1996	2747.582	1306.9	424.95
1001.3206	2748.7889	1297.6	414.05
1001.4415	2749.9952	1296.05	415
1001.5625	2751.2008	1291.5	410.45
1001.6833	2752.4057	1279.65	396
1001.8042	2753.61	1275.25	391.3
1001.925	2754.8136	1275.15	391.6
1002.0458	2756.0165	1278.85	396.85
1002.1665	2757.2188	1281.85	400.5
1002.2872	2758.4204	1275.95	397.35
1002.4078	2759.6213	1280.85	397.05
1002.5285	2760.8215	1279.25	392.05
1002.649	2762.0211	1281.95	399.45
1002.7696	2763.22	1279.9	394.15
1002.8901	2764.4182	1280.8	397.7
1003.0106	2765.6158	1272.45	389.8
1003.131	2766.8127	1266.7	387.2
1003.2514	2768.009	1270.15	387.7
1003.3717	2769.2045	1269.7	389.1
1003.492	2770.3994	1258.1	375.35
1003.6123	2771.5936	1257	374.35
1003.7325	2772.7872	1260.55	379.15
1003.8527	2773.9801	1262.5	380.85
1003.9729	2775.1723	1272.75	375.65
1004.093	2776.3639	1260.75	379.9
1004.2131	2777.5548	1260.3	376.75
1004.3331	2778.745	1259.45	376.75
1004.4531	2779.9346	1258.6	377.15
1004.5731	2781.1235	1270.25	387.6
1004.693	2782.3117	1273.7	395.55
1004.8129	2783.4992	1280.85	401.3
1004.9328	2784.6861	1281.9	400.3
1005.0526	2785.8723	1290.4	408.05
1005.1723	2787.0579	1295.4	411
1005.2921	2788.2428	1301.85	421.5
1005.4118	2789.427	1319.4	438.45
1005.5314	2790.6106	1326.8	445.3
1005.651	2791.7935	1331.5	447.65
1005.7706	2792.9757	1343.95	461.7
1005.8902	2794.1573	1368.35	483.55
1006.0097	2795.3382	1378.15	499.2
1006.1291	2796.5184	1387.5	506.9
1006.2485	2797.698	1418.65	536.5
1006.3679	2798.8769	1427.35	545.85
1006.4873	2800.0551	1454.35	570.95
1006.6066	2801.2327	1473.9	589.7
1006.7258	2802.4096	1483.5	602.55
1006.8451	2803.5859	1511.05	628.9
1006.9642	2804.7615	1527	644.75
1007.0834	2805.9364	1562.4	681.45
1007.2025	2807.1106	1581.8	702.85
1007.3216	2808.2842	1616.6	735.15
1007.4406	2809.4572	1649.15	769.3
1007.5596	2810.6294	1684.85	802.8
1007.6785	2811.801	1719.1	838.95
1007.7975	2812.972	1768.65	887.45
1007.9163	2814.1423	1808	926.25
1008.0352	2815.3119	1864.35	982.45
1008.154	2816.4808	1903.9	1023.7
1008.2727	2817.6491	1960.7	1077.7
1008.3914	2818.8167	2009.45	1127.3
1008.5101	2819.9837	2065.25	1179.15
1008.6288	2821.15	2106.05	1224.25
1008.7474	2822.3157	2151.05	1269.35
1008.8659	2823.4807	2190	1307.6
1008.9844	2824.645	2246.9	1366.05
1009.1029	2825.8086	2282.65	1399.85
1009.2214	2826.9716	2327.5	1446.7
1009.3398	2828.134	2365.8	1483.65
1009.4581	2829.2957	2394.95	1511.9
1009.5764	2830.4567	2430.05	1548.8
1009.6947	2831.617	2439.85	1558
1009.813	2832.7767	2445.9	1562.4
1009.9312	2833.9358	2456	1573.2
1010.0493	2835.0941	2457.1	1574.8
1010.1675	2836.2519	2450.6	1568.25
1010.2855	2837.4089	2431.6	1549.35
1010.4036	2838.5653	2420	1539.5
1010.5216	2839.7211	2418.4	1538.5
1010.6396	2840.8761	2428.5	1546.95
1010.7575	2842.0306	2453.95	1574.65
1010.8754	2843.1843	2481.95	1599.6
1010.9932	2844.3374	2534.3	1654.25
1011.111	2845.4899	2579.85	1695.85
1011.2288	2846.6417	2672.4	1793.25
1011.3465	2847.7928	2745.9	1863.95
1011.4642	2848.9433	2830.45	1948.75
1011.5818	2850.0931	2913.35	2031.15
1011.6995	2851.2422	2992.2	2107.05
1011.817	2852.3907	3072.15	2190.55
1011.9345	2853.5385	3135.25	2251
1012.052	2854.6857	3225.15	2315.6
1012.1695	2855.8323	3251	2370.8
1012.2869	2856.9781	3299.6	2417.9
1012.4042	2858.1233	3345.45	2466.35
1012.5216	2859.2679	3401	2519
1012.6389	2860.4118	3441.4	2560.45
1012.7561	2861.555	3480.85	2595.2
1012.8733	2862.6976	3518.85	2635.8
1012.9905	2863.8395	3560.8	2678
1013.1076	2864.9808	3580.2	2700.8
1013.2247	2866.1214	3595.3	2714.35
1013.3417	2867.2614	3615.75	2733.85
1013.4587	2868.4007	3608.8	2726.15
1013.5757	2869.5393	3638.35	2752.3
1013.6926	2870.6773	3650.65	2767.5
1013.8095	2871.8146	3663.45	2779
1013.9263	2872.9513	3666.5	2785
1014.0431	2874.0874	3656.2	2774.45
1014.1599	2875.2227	3670.1	2787.85
1014.2766	2876.3574	3635.15	2753.85
1014.3933	2877.4915	3620.6	2738.2
1014.51	2878.6249	3587.45	2705.2
1014.6266	2879.7577	3573.8	2692.35
1014.7431	2880.8898	3560.05	2669.1
1014.8596	2882.0212	3555.85	2675.45
1014.9761	2883.152	3523.2	2639.5
1015.0925	2884.2821	3508.85	2630.4
1015.2089	2885.4116	3499.15	2618.8
1015.3253	2886.5405	3511.45	2630.55
1015.4416	2887.6686	3523.9	2638.6
1015.5579	2888.7962	3526.2	2646.8
1015.6741	2889.923	3543.9	2662.45
1015.7903	2891.0493	3538.75	2658.7
1015.9065	2892.1748	3558.9	2679.35
1016.0226	2893.2997	3551.3	2668.95
1016.1387	2894.424	3575.3	2695.7
1016.2547	2895.5476	3599.9	2718.95
1016.3707	2896.6706	3630.9	2752.25
1016.4866	2897.7929	3638.25	2755.35
1016.6025	2898.9145	3685.55	2803
1016.7184	2900.0355	3707.85	2826.5
1016.8342	2901.1559	3737.3	2854.35
1016.95	2902.2756	3791.65	2910.35
1017.0658	2903.3946	3820.3	2937.65
1017.1815	2904.513	3843.4	2959.85
1017.2971	2905.6308	3873.45	2990.8
1017.4127	2906.7479	3895.85	3012.1
1017.5283	2907.8643	3916	3033.45
1017.6439	2908.9801	3935.6	3052.9
1017.7594	2910.0953	3945.05	3063.1
1017.8748	2911.2098	3944	3058.65
1017.9902	2912.3236	3961.15	3073.1
1018.1056	2913.4368	3940.15	3057.2
1018.2209	2914.5494	3919	3036.25
1018.3362	2915.6613	3894.95	3006.9
1018.4515	2916.7725	3864.55	2981.6
1018.5667	2917.8831	3848	2963.35
1018.6819	2918.9931	3818.45	2936.55
1018.797	2920.1024	3784.85	2902.05
1018.9121	2921.211	3770.1	2890.8
1019.0271	2922.319	3743.85	2860.9
1019.1421	2923.4264	3721.2	2841.25
1019.2571	2924.5331	3705.9	2824.95
1019.372	2925.6391	3705.3	2823.55
1019.4869	2926.7445	3697.6	2818.15
1019.6017	2927.8493	3695.5	2815.95
1019.7165	2928.9534	3684	2801.8
1019.8313	2930.0569	3666.25	2783.1
1019.946	2931.1597	3667.15	2783.05
1020.0606	2932.2619	3651.7	2770.55
1020.1753	2933.3634	3645.7	2764.85
1020.2899	2934.4643	3627.6	2739.2
1020.4044	2935.5645	3613.3	2726.25
1020.5189	2936.6641	3571.1	2685.1
1020.6334	2937.763	3527.6	2647.4
1020.7478	2938.8613	3485.8	2603
1020.8622	2939.959	3430.7	2544.8
1020.9765	2941.056	3350.2	2468.25
1021.0908	2942.1523	3275.55	2394.75
1021.2051	2943.248	3189.35	2306.1
1021.3193	2944.3431	3094.15	2214.25
1021.4334	2945.4375	2984.85	2102.35
1021.5476	2946.5313	2882.95	2002.8
1021.6617	2947.6244	2779.85	1897.9
1021.7757	2948.7169	2672.75	1792.3
1021.8897	2949.8087	2563.5	1682.25
1022.0037	2950.8999	2482.6	1601.5
1022.1176	2951.9904	2403.3	1521.6
1022.2315	2953.0803	2331.4	1447.3
1022.3453	2954.1696	2267.85	1386
1022.4591	2955.2582	2213.1	1332.85
1022.5728	2956.3462	2148.7	1268.05
1022.6865	2957.4335	2116.25	1235.05
1022.8002	2958.5202	2085.5	1201.2
1022.9138	2959.6062	2048.05	1166.4
1023.0274	2960.6916	2021.85	1139.8
1023.141	2961.7764	2008.15	1125.65
1023.2545	2962.8605	1998.3	1116.35
1023.3679	2963.9439	1981.45	1099.05
1023.4813	2965.0267	1976.4	1093.6
1023.5947	2966.1089	1982.7	1080.25
1023.708	2967.1905	1952.1	1071.95
1023.8213	2968.2714	1956.55	1074.2
1023.9346	2969.3516	1949.8	1067.85
1024.0478	2970.4312	1964.05	1074.75
1024.1609	2971.5102	1953.05	1072.5
1024.274	2972.5885	1961.5	1081.35
1024.3871	2973.6662	1961.35	1077.25
1024.5002	2974.7432	1953.4	1073.75
1024.6132	2975.8196	1950.2	1069.4
1024.7261	2976.8954	1941.4	1062.4
1024.839	2977.9705	1928.35	1048.2
1024.9519	2979.045	1918.65	1037.85
1025.0647	2980.1188	1896.7	1015.65
1025.1775	2981.192	1875	994.2
1025.2902	2982.2645	1863.95	981.75
1025.4029	2983.3364	1832.4	950.6
1025.5156	2984.4077	1802.9	922
1025.6282	2985.4783	1784.35	897.4
1025.7407	2986.5483	1738.7	859.2
1025.8532	2987.6177	1710.45	830.15
1025.9657	2988.6864	1671.65	789.7
1026.0782	2989.7545	1649.6	767.75
1026.1906	2990.8219	1594.15	713.1
1026.3029	2991.8887	1572.9	692.25
1026.4152	2992.9548	1540.45	658.2
1026.5275	2994.0204	1519.7	639.6
1026.6397	2995.0852	1483.85	602.95
1026.7519	2996.1495	1467.4	585.45
1026.864	2997.2131	1441.8	560.1
1026.9761	2998.276	1421.25	540.55
1027.0882	2999.3383	1403.75	521.4
1027.2002	3000.4	1379.55	498.25
1027.3122	3001.4611	1367.35	486.85
1027.4241	3002.5215	1351.85	471.95
1027.536	3003.5812	1339.7	457.6
1027.6478	3004.6404	1331.2	450.75
1027.7596	3005.6989	1327	442.65
1027.8714	3006.7567	1314.95	433.7
1027.9831	3007.8139	1320.7	423.3
1028.0947	3008.8705	1294.25	414.15
1028.2064	3009.9264	1298.5	414.85
1028.3179	3010.9818	1292.5	413
1028.4295	3012.0364	1288.9	406.1
1028.541	3013.0905	1284.4	402.3
1028.6524	3014.1439	1284.05	403.75
1028.7638	3015.1966	1272.6	392.9
1028.8752	3016.2487	1277.75	396.5
1028.9865	3017.3002	1284.55	399.5
1029.0978	3018.3511	1276.35	395.25
1029.209	3019.4013	1283.65	403.1
1029.3202	3020.4509	1278.4	395.85
1029.4314	3021.4998	1278.85	396.45
1029.5425	3022.5481	1279.75	400.95
1029.6535	3023.5958	1283.5	400.15
1029.7645	3024.6428	1283.55	402.25
1029.8755	3025.6892	1286.25	404.85
1029.9864	3026.735	1287.5	406.9
1030.0973	3027.7802	1294.5	415.1
1030.2082	3028.8247	1294.1	411.7
1030.319	3029.8685	1300.2	419.75
1030.4297	3030.9118	1311.45	429.55
1030.5404	3031.9544	1306.85	425.7
1030.6511	3032.9963	1310.45	429.9
1030.7617	3034.0376	1315.9	434.65
1030.8723	3035.0783	1325.8	439.95
1030.9829	3036.1184	1329.15	446.45
1031.0934	3037.1578	1327.05	447.65
1031.2038	3038.1966	1336.8	455.4
1031.3142	3039.2348	1335.05	453.65
1031.4246	3040.2723	1343.2	452
1031.5349	3041.3092	1333.5	454.85
1031.6452	3042.3455	1333.25	450.85
1031.7554	3043.3811	1324.9	443
1031.8656	3044.4161	1320.3	439.1
1031.9758	3045.4505	1317.9	436.45
1032.0859	3046.4842	1318.15	436.7
1032.1959	3047.5173	1308	426.3
1032.3059	3048.5498	1300.6	417.35
1032.4159	3049.5816	1298.85	417.75
1032.5258	3050.6128	1289.9	406.75
1032.6357	3051.6434	1280.5	399.45
1032.7455	3052.6734	1278.3	396.55
1032.8553	3053.7027	1269.9	389.95
1032.9651	3054.7314	1265.85	384.25
1033.0748	3055.7594	1253.6	373.2
1033.1845	3056.7868	1252.15	369.6
1033.2941	3057.8136	1250.9	370.6
1033.4037	3058.8398	1241.8	360.8
1033.5132	3059.8653	1233.65	353.1
1033.6227	3060.8902	1226.25	344.8
1033.7321	3061.9145	1221.85	342.15
1033.8415	3062.9381	1220.6	338.95
1033.9509	3063.9612	1232.5	336.65
1034.0602	3064.9835	1208.7	327.5
1034.1694	3066.0053	1204.1	319.75
1034.2787	3067.0264	1192.75	313.6
1034.3878	3068.0469	1192.35	309.75
1034.497	3069.0668	1184.25	300.4
1034.6061	3070.086	1177.3	298.85
1034.7151	3071.1046	1172.05	287.05
1034.8241	3072.1226	1153.95	272.2
1034.9331	3073.1399	1149.15	266.6
1035.042	3074.1567	1137.65	255.8
1035.1508	3075.1727	1133.15	252.8
1035.2597	3076.1882	1120	240
1035.3684	3077.203	1114.75	236.5
1035.4772	3078.2173	1106.3	224.85
1035.5859	3079.2308	1098.45	214.7
1035.6945	3080.2438	1092.3	210.8
1035.8031	3081.2561	1078.3	197.7
1035.9117	3082.2678	1076.6	196.15
1036.0202	3083.2789	1064.7	183.35
1036.1286	3084.2893	1065.45	183.7
1036.2371	3085.2991	1058.05	177.25
1036.3454	3086.3083	1053.55	166.95
1036.4538	3087.3169	1058	175.9
1036.562	3088.3248	1043.95	160.9
1036.6703	3089.3321	1038.25	155.1
1036.7785	3090.3388	1032.6	152.45
1036.8866	3091.3449	1033.9	151.25
1036.9948	3092.3503	1026.95	145.9
1037.1028	3093.3551	1024.45	144.25
1037.2108	3094.3593	1018.9	138.9
1037.3188	3095.3629	1018.25	138.35
1037.4267	3096.3658	1014.15	131.25
1037.5346	3097.3681	1010.9	131.55
1037.6425	3098.3698	1013.35	132.1
1037.7503	3099.3708	1014.1	124.6
1037.858	3100.3713	1007.1	126.55
1037.9657	3101.3711	1004.15	122.3
1038.0734	3102.3702	1142.35	120.4
1038.181	3103.3688	999.3	117.7
1038.2886	3104.3667	996.8	117.2
1038.3961	3105.364	993.2	115.4
1038.5036	3106.3607	996.75	114.3
1038.611	3107.3568	994.55	111.9
1038.7184	3108.3522	989.75	111.6
1038.8257	3109.347	996.85	116.3
1038.933	3110.3412	993.9	107.4
1039.0403	3111.3348	987.75	107.7
1039.1475	3112.3277	986.45	106.65
1039.2547	3113.32	982.5	101.55
1039.3618	3114.3117	989	108.15
1039.4689	3115.3028	988.2	107.5
1039.5759	3116.2932	983.75	100.95
1039.6829	3117.2831	987.35	101.5
1039.7898	3118.2723	982.95	103.65
1039.8967	3119.2608	982.35	103
1040.0035	3120.2488	976.65	95.3
1040.1103	3121.2361	980.9	99.6
1040.2171	3122.2229	978.1	95.8
1040.3238	3123.209	976.75	96.55
1040.4305	3124.1944	974.8	95.65
1040.5371	3125.1793	974.6	94
1040.6437	3126.1635	973.1	93.35
1040.7502	3127.1471	972.25	93.1
1040.8567	3128.1301	972.2	92.1
1040.9631	3129.1125	969.65	90.25
1041.0695	3130.0942	971.55	92
1041.1759	3131.0753	976.95	86.45
1041.2822	3132.0558	972.45	89.5
1041.3884	3133.0357	966.1	84.85
1041.4946	3134.015	970.8	89.85
1041.6008	3134.9936	966.05	83.55
1041.7069	3135.9716	988.75	86.55
1041.813	3136.949	963.15	81.6
1041.919	3137.9258	982.5	83.85
1042.025	3138.902	967.9	82.3
1042.1309	3139.8775	961.55	81.95
1042.2368	3140.8524	958.7	77.3
1042.3427	3141.8267	962.35	78.8
1042.4485	3142.8004	958.9	79.05
1042.5542	3143.7735	963.25	76.25
1042.6599	3144.7459	960.8	75.65
1042.7656	3145.7178	959.9	79.35
1042.8712	3146.689	953.25	72.35
1042.9768	3147.6596	951.85	70.3
1043.0823	3148.6295	953.15	72.4
1043.1878	3149.5989	957.35	78.6
1043.2932	3150.5676	950.6	71
1043.3986	3151.5357	950.45	71.1
1043.5039	3152.5032	951.45	74.7
1043.6092	3153.4701	949.15	67.2
1043.7145	3154.4364	951.65	66.7
1043.8197	3155.402	947.3	67.15
1043.9248	3156.367	951.3	67.25
1044.03	3157.3315	989.35	63.95
1044.135	3158.2952	949.3	68.2
1044.24	3159.2584	944.95	65.35
1044.345	3160.221	947.05	66.7
1044.4499	3161.1829	945.8	65
1044.5548	3162.1442	947.55	69.9
1044.6596	3163.105	947	64.65
1044.7644	3164.065	942.05	61.95
1044.8692	3165.0245	944.15	60.5
1044.9739	3165.9834	941.75	61.4
1045.0785	3166.9416	943.55	61.8
1045.1831	3167.8993	944.55	64.1
1045.2877	3168.8563	940	57.9
1045.3922	3169.8127	940.95	61.2
1045.4966	3170.7684	939.2	59.75
1045.6011	3171.7236	943.45	61.9
1045.7054	3172.6782	938.4	58
1045.8098	3173.6321	938.6	57.85
1045.914	3174.5854	943.25	57.05
1046.0183	3175.5381	937	55.8
1046.1224	3176.4902	936.45	55.35
1046.2266	3177.4417	935.65	54.3
1046.3307	3178.3926	936	56.1
1046.4347	3179.3428	932.9	55.95
1046.5387	3180.2924	938.35	57.75
1046.6427	3181.2415	937.3	58.25
1046.7466	3182.1899	936.7	53.2
1046.8504	3183.1377	933.5	53.65
1046.9542	3184.0848	939.55	55.6
1047.058	3185.0314	936	55.1
1047.1617	3185.9773	936.6	54.95
1047.2654	3186.9227	936.45	55.7
1047.369	3187.8674	934.4	54.45
1047.4726	3188.8115	935.25	50.15
1047.5761	3189.755	931.5	51.9
1047.6796	3190.6979	932.4	50.6
1047.783	3191.6402	931.75	51.8
1047.8864	3192.5818	932.2	49.45
1047.9898	3193.5229	955	53.7
1048.0931	3194.4633	931.95	50.3
1048.1963	3195.4031	929.95	49.6
1048.2995	3196.3423	929	49.1
1048.4027	3197.2809	931.2	49
1048.5058	3198.2189	929	47.75
1048.6089	3199.1563	947.5	49.25
1048.7119	3200.0931	931.6	51.5
1048.8148	3201.0292	929.9	50.35
1048.9178	3201.9648	927.45	46.75
1049.0206	3202.8997	931.25	48.7
1049.1235	3203.834	929.8	49.8
1049.2262	3204.7677	928.35	50.15
1049.329	3205.7008	930.5	47.2
1049.4317	3206.6333	926.65	47.95
1049.5343	3207.5652	930.7	46.3
1049.6369	3208.4964	927.35	47.65
1049.7394	3209.4271	923.05	42.55
1049.8419	3210.3571	923.65	42.6
1049.9444	3211.2865	929.15	45.35
1050.0468	3212.2154	925.25	44.55
1050.1491	3213.1436	927.2	43.25
1050.2514	3214.0712	931.85	44.95
1050.3537	3214.9982	923.75	42.55
1050.4559	3215.9246	923.85	43.1
1050.5581	3216.8503	922.65	41.15
1050.6602	3217.7755	924.05	43.9
1050.7623	3218.7001	923.35	41.7
1050.8643	3219.624	925.65	44.4
1050.9663	3220.5473	924.5	42.45
1051.0682	3221.4701	928.55	48.9
1051.1701	3222.3922	925.7	42.05
1051.2719	3223.3137	923.6	43.8
1051.3737	3224.2346	923.65	42.45
1051.4754	3225.1549	920.9	41.15
1051.5771	3226.0746	920.65	40.5
1051.6788	3226.9937	920.25	38.6
1051.7804	3227.9121	920.55	41.05
1051.8819	3228.83	924.35	44.4
1051.9834	3229.7473	922.05	41.8
1052.0849	3230.6639	920	38.8
1052.1863	3231.5799	922.1	41.9
1052.2876	3232.4954	921.45	40.6
1052.3889	3233.4102	924.3	46.35
1052.4902	3234.3244	920.85	42.1
1052.5914	3235.238	919.4	40.45
1052.6926	3236.151	946.95	43
1052.7937	3237.0634	919.65	42.05
1052.8948	3237.9752	918.35	39.1
1052.9958	3238.8864	917.85	37.05
1053.0968	3239.797	919.55	38.85
1053.1977	3240.7069	920.75	37.5
1053.2986	3241.6163	919.45	37.45
1053.3994	3242.5251	917.7	39.45
1053.5002	3243.4332	917.05	38.35
1053.6009	3244.3408	916.2	33.75
1053.7016	3245.2477	917.05	37.7
1053.8022	3246.154	916.05	34.7
1053.9028	3247.0598	917.5	36.75
1054.0034	3247.9649	917.35	38.2
1054.1039	3248.8694	915.4	34.1
1054.2043	3249.7733	916	35.7
1054.3047	3250.6766	915.35	34
1054.4051	3251.5793	918.15	37.95
1054.5054	3252.4814	914.7	33.9
1054.6056	3253.3829	913.2	33
1054.7058	3254.2838	913.7	34.1
1054.806	3255.1841	913.65	34.9
1054.9061	3256.0838	911.85	31.55
1055.0061	3256.9829	912.9	33.45
1055.1062	3257.8814	916.05	33.65
1055.2061	3258.7792	915.25	33.7
1055.306	3259.6765	912.4	31.05
1055.4059	3260.5731	911.75	30.95
1055.5057	3261.4692	911.6	31.15
1055.6055	3262.3647	909.1	29.75
1055.7052	3263.2595	909.35	29.1
1055.8049	3264.1538	910.75	32.7
1055.9045	3265.0474	907.85	28.3
1056.0041	3265.9404	906.8	27.9
1056.1036	3266.8329	908.4	30.05
1056.2031	3267.7247	917	26.15
1056.3025	3268.616	904	22.95
1056.4019	3269.5066	902.95	23.75
1056.5013	3270.3966	905.65	24.15
1056.6005	3271.286	901.95	24.9
