Software Version:	3.9.2.0
Unit SN:	10000200
Spectrometer SN:	6960
Date:	3/14/2024 2:00:43 PM
Data Line Index:	25
Spectral Points:	2048
Integration time (ms):	125
Averages:	20
Delay (ms):	30000
Sequence Number:	1
Processing:	dark subtract
Laser Power (mW):	300
Laser Current (mA):	825
Laser Diode Temp (C):	25.1
Laser Case Temp (C):	29
System Temp (C):	29
Spectrometer Temp (C):	26.8
CCD Temp (C):	0.013
Secondary Temp (C):	20.003
Heatsink Temp (C):	24.713
CCDPCB Temp (C):	38.297
SecondaryPCB Temp (C):	36.007

Wavelength	RamanShift	Raw Counts	Dark Subtracted
787.061	30.1047	453.9	40.85
787.2016	32.3739	454.85	44.05
787.3422	34.6426	457.55	45.2
787.4828	36.9109	461.3	48.35
787.6235	39.1787	471.55	54.25
787.7642	41.4461	482.3	60.5
787.9049	43.7131	488.9	64.85
788.0456	45.9796	497.3	70.7
788.1863	48.2456	506.35	73.6
788.3271	50.5112	514.45	77.25
788.4679	52.7764	521.15	82.3
788.6087	55.0411	532.2	91.3
788.7496	57.3054	541.55	95.95
788.8904	59.5692	551.55	102.05
789.0313	61.8326	560.5	107.1
789.1722	64.0955	576.1	119.5
789.3132	66.3579	587.9	126.45
789.4541	68.6199	607.2	144.1
789.5951	70.8815	631.4	165.1
789.7361	73.1426	697.05	225.65
789.8771	75.4032	864.2	387.65
790.0181	77.6634	1271.95	788.35
790.1592	79.9231	2230.25	1740.85
790.3003	82.1824	4332.75	3832.1
790.4414	84.4412	8208.45	7690.8
790.5825	86.6995	13731.1	13187.05
790.7237	88.9574	19265.1	18704.65
790.8648	91.2148	23269.3	22696.05
791.006	93.4717	25290.55	24704.7
791.1472	95.7282	25814.55	25222
791.2885	97.9842	25887.9	25293.85
791.4297	100.2398	25544.15	24945.45
791.571	102.4949	25064.9	24461.3
791.7123	104.7495	24430.95	23825.45
791.8536	107.0036	23761.2	23155.75
791.9949	109.2573	23107.2	22504.75
792.1363	111.5105	22421	21816.35
792.2777	113.7632	21764.7	21158.05
792.4191	116.0154	21186.55	20568.6
792.5605	118.2672	20754.1	20143.95
792.7019	120.5185	20328.85	19717.75
792.8434	122.7693	19967.15	19350.95
792.9849	125.0197	19715.55	19096.45
793.1264	127.2696	19461.45	18839.55
793.2679	129.519	19321.1	18697.65
793.4094	131.7679	19187.65	18562.55
793.551	134.0163	19067.3	18441.15
793.6926	136.2642	18935.15	18299.15
793.8342	138.5117	18810.55	18168.1
793.9758	140.7587	18605.75	17967.15
794.1175	143.0052	18490.95	17849.1
794.2591	145.2512	18333.5	17695.3
794.4008	147.4967	18127.55	17485.65
794.5425	149.7417	17993.75	17351.35
794.6842	151.9863	17891.65	17244.9
794.826	154.2304	17874.6	17223.6
794.9677	156.4739	17745.6	17093
795.1095	158.717	17675.45	17021.85
795.2513	160.9596	17540.2	16883.1
795.3931	163.2017	17291.85	16630.95
795.535	165.4433	17051.65	16387.05
795.6768	167.6844	16764.6	16099.5
795.8187	169.925	16472.2	15802.3
795.9606	172.1651	16137.45	15468.85
796.1025	174.4047	15879.8	15207.25
796.2445	176.6439	15648.7	14972.3
796.3864	178.8825	15375.65	14697.25
796.5284	181.1206	15239.55	14555.45
796.6704	183.3582	15080.35	14394.95
796.8124	185.5954	14979.9	14293.6
796.9544	187.832	14885.45	14194.05
797.0965	190.0681	14836.45	14149.35
797.2386	192.3037	14800.8	14105.65
797.3806	194.5388	14791	14091.25
797.5228	196.7734	14831.7	14130.5
797.6649	199.0075	14860.3	14156.85
797.807	201.2411	14964.4	14256.7
797.9492	203.4742	15020	14310.4
798.0914	205.7068	15119.95	14410.65
798.2336	207.9389	15196.6	14489.75
798.3758	210.1704	15327.4	14617.3
798.518	212.4015	15425.85	14712.65
798.6603	214.632	15561.5	14850
798.8025	216.862	15703.75	14996.7
798.9448	219.0915	15838.35	15140.55
799.0871	221.3205	16056.6	15361.8
799.2294	223.549	16312.05	15621
799.3718	225.777	16584.3	15890.85
799.5141	228.0044	16949.5	16255.05
799.6565	230.2314	17445.6	16747.9
799.7989	232.4578	17884.95	17191.05
799.9413	234.6837	18214.65	17514.6
800.0837	236.909	18415.45	17713.25
800.2262	239.1339	18383.55	17654.05
800.3687	241.3582	18099.85	17389.7
800.5111	243.582	17773.75	17036.7
800.6536	245.8053	17380.25	16651.85
800.7961	248.0281	17016.3	16292.2
800.9387	250.2503	16747.35	16018.7
801.0812	252.472	16580.6	15841.4
801.2238	254.6932	16453.75	15716.4
801.3664	256.9139	16312.9	15573.5
801.509	259.134	16249.8	15507.8
801.6516	261.3536	16153.4	15413.95
801.7942	263.5727	16125.85	15384.7
801.9369	265.7912	15987.75	15247.85
802.0795	268.0092	15946.15	15206.4
802.2222	270.2267	15848.75	15106.25
802.3649	272.4436	15759.8	15016.5
802.5076	274.6601	15718.9	14966.15
802.6504	276.8759	15663.85	14918.45
802.7931	279.0913	15682.55	14935.6
802.9359	281.3061	15643.3	14896.05
803.0787	283.5204	15770.25	15019.05
803.2215	285.7341	15843.3	15090.25
803.3643	287.9473	16030.3	15261.65
803.5071	290.16	16244.35	15481.45
803.6499	292.3721	16554.2	15799.15
803.7928	294.5837	16963.75	16207.8
803.9357	296.7947	17265.2	16506.05
804.0786	299.0052	17438.3	16682.55
804.2215	301.2152	17289.65	16526.5
804.3644	303.4246	16900.3	16145.7
804.5074	305.6334	16420.85	15665.8
804.6503	307.8418	15956.65	15194.75
804.7933	310.0495	15563.25	14802
804.9363	312.2568	15244.35	14484.9
805.0793	314.4635	15090.5	14329.5
805.2223	316.6696	15022.35	14258.4
805.3653	318.8752	15045.35	14274.7
805.5084	321.0802	15081.55	14317
805.6514	323.2847	15170.5	14403.9
805.7945	325.4887	15191.1	14424.85
805.9376	327.692	15132.35	14366.3
806.0807	329.8949	15074.45	14303.85
806.2238	332.0972	14797	14029.55
806.367	334.2989	14546.85	13771.75
806.5101	336.5001	14275.55	13501.95
806.6533	338.7007	14100.5	13327.55
806.7965	340.9008	13967.35	13191.85
806.9397	343.1003	13881.7	13104.6
807.0829	345.2992	13826.1	13048.85
807.2261	347.4976	13780.3	13002.65
807.3693	349.6955	13796	13016.7
807.5126	351.8927	13859.35	13074.85
807.6559	354.0895	13861.1	13068.2
807.7991	356.2856	13873.85	13088.85
807.9424	358.4812	13862.55	13077.75
808.0857	360.6763	13873.1	13088.65
808.2291	362.8707	13812.25	13022.45
808.3724	365.0646	13839.6	13050.4
808.5158	367.258	13850.2	13059.75
808.6591	369.4508	13825.2	13031.55
808.8025	371.643	13833.55	13039.65
808.9459	373.8346	13841.85	13048.3
809.0893	376.0257	13787.3	12983.8
809.2327	378.2162	13692.55	12893
809.3762	380.4062	13596.6	12793.1
809.5196	382.5956	13459.7	12655.4
809.6631	384.7844	13375.6	12576.05
809.8066	386.9726	13250.7	12446.95
809.9501	389.1603	13201.2	12400.3
810.0936	391.3474	13158	12321.85
810.2371	393.5339	13150.9	12345.85
810.3806	395.7199	13090	12293.7
810.5241	397.9052	13060.3	12266.15
810.6677	400.09	13063.7	12270.75
810.8113	402.2743	13117.75	12323.95
810.9548	404.4579	13143.55	12351.65
811.0984	406.641	13251.2	12456
811.2421	408.8235	13465.3	12669.95
811.3857	411.0054	13738.25	12942.5
811.5293	413.1868	14177.7	13378.45
811.673	415.3675	14505.25	13706.05
811.8166	417.5477	14696.5	13898
811.9603	419.7273	14705.55	13902.1
812.104	421.9064	14598.1	13787.5
812.2477	424.0848	14437.25	13633.8
812.3914	426.2627	14230.55	13422.15
812.5351	428.4399	13996.85	13183.95
812.6788	430.6166	13642	12827.8
812.8226	432.7928	13312.95	12497.55
812.9663	434.9683	13024.4	12209
813.1101	437.1432	12821.75	12007.5
813.2539	439.3176	12671.5	11855.6
813.3977	441.4914	12571.85	11754.2
813.5415	443.6645	12533.15	11714.7
813.6853	445.8371	12502.9	11684.65
813.8291	448.0091	12409.45	11590.65
813.973	450.1806	12356.05	11537.1
814.1168	452.3514	12272.1	11449.25
814.2607	454.5216	12276.25	11450.35
814.4046	456.6913	12201.2	11382.65
814.5485	458.8603	12218.15	11396.75
814.6924	461.0288	12231.95	11413.85
814.8363	463.1967	12285.85	11462.85
814.9802	465.3639	12374.9	11550.7
815.1241	467.5306	12481.6	11657.7
815.2681	469.6967	12619.3	11794.6
815.412	471.8622	12806.6	11984.25
815.556	474.0271	12898.7	12077.95
815.7	476.1914	12975.15	12148.15
815.844	478.3551	12918.3	12094.55
815.988	480.5182	12875.5	12050.1
816.132	482.6807	12841.15	12013.75
816.276	484.8426	12897.5	12071.35
816.4201	487.0039	13109	12280.05
816.5641	489.1647	13452.45	12621.35
816.7082	491.3248	13841.55	13016.25
816.8522	493.4843	14003.65	13177.15
816.9963	495.6432	14016.65	13190.3
817.1404	497.8015	13910.05	13078.25
817.2845	499.9592	13936.8	13110.25
817.4286	502.1163	13880.4	13050.35
817.5727	504.2728	13689.25	12856.45
817.7168	506.4287	13433.7	12603.3
817.861	508.5839	13036.95	12204.5
818.0051	510.7386	12729.45	11901.15
818.1493	512.8927	12524.45	11684.75
818.2935	515.0461	12386.2	11554.5
818.4377	517.199	12295.35	11464.3
818.5818	519.3512	12214.15	11378.05
818.726	521.5029	12221.95	11381.75
818.8703	523.6539	12217.45	11381.35
819.0145	525.8043	12213.3	11382.2
819.1587	527.9541	12259.1	11420.2
819.303	530.1033	12265.1	11426.55
819.4472	532.2519	12334.15	11495.5
819.5915	534.3999	12474.2	11636.4
819.7357	536.5472	12760.95	11922.1
819.88	538.694	13198.05	12360.15
820.0243	540.8401	13779.15	12940.4
820.1686	542.9856	14250.35	13410.65
820.3129	545.1305	14411.1	13573.3
820.4572	547.2748	14238.8	13402.05
820.6016	549.4185	13828.15	12988.5
820.7459	551.5615	13472.15	12631.65
820.8902	553.704	13319.2	12478
821.0346	555.8458	13230.85	12387.8
821.1789	557.987	13187.85	12345
821.3233	560.1276	13070	12226.8
821.4677	562.2675	12944	12104.2
821.6121	564.4069	12865.6	12026.8
821.7565	566.5456	12747.15	11907.9
821.9009	568.6837	12609.6	11770.8
822.0453	570.8212	12391.35	11550.85
822.1897	572.958	12217.95	11378.05
822.3342	575.0942	12021.05	11181.6
822.4786	577.2299	11902.1	11059.85
822.6231	579.3648	11953.65	11112.5
822.7675	581.4992	12001.2	11158.35
822.912	583.6329	12201.9	11358.65
823.0565	585.766	12411.45	11569.8
823.201	587.8985	12522	11680.6
823.3454	590.0304	12534.95	11681.8
823.4899	592.1616	12448.55	11600.1
823.6345	594.2922	12346.3	11502.2
823.779	596.4222	12233.5	11387.2
823.9235	598.5515	12085.3	11240
824.068	600.6802	11923	11076.75
824.2126	602.8083	11767	10922.3
824.3571	604.9358	11679.1	10833.7
824.5017	607.0626	11581	10735.85
824.6462	609.1888	11504.5	10653.65
824.7908	611.3144	11428.15	10577.3
824.9354	613.4393	11263.85	10418.2
825.08	615.5636	11110.8	10264
825.2246	617.6873	11030.2	10185.6
825.3692	619.8103	10975.65	10127.3
825.5138	621.9327	10883.4	10031.1
825.6584	624.0544	10867.85	10021.25
825.803	626.1756	10892.55	10043.95
825.9477	628.2961	10857.65	10009.4
826.0923	630.4159	10788.6	9940.35
826.237	632.5351	10755.95	9905.3
826.3816	634.6537	10714.1	9864.65
826.5263	636.7716	10670.5	9815.9
826.6709	638.8889	10650.35	9800.65
826.8156	641.0056	10650.5	9800.5
826.9603	643.1216	10636.15	9785.9
827.105	645.237	10678.55	9825.55
827.2497	647.3518	10663.3	9808.65
827.3944	649.4659	10679.8	9828.25
827.5391	651.5793	10667.8	9816.75
827.6838	653.6922	10666.25	9811.8
827.8285	655.8043	10615.3	9760.05
827.9733	657.9159	10625.85	9772.5
828.118	660.0268	10535	9680.95
828.2627	662.137	10461.65	9609.75
828.4075	664.2466	10414.45	9559.75
828.5522	666.3556	10371.5	9519.35
828.697	668.4639	10374.2	9516.35
828.8418	670.5716	10398.55	9541.7
828.9865	672.6786	10485.6	9628.25
829.1313	674.785	10511.25	9653.35
829.2761	676.8907	10588.2	9731.5
829.4209	678.9958	10674.1	9819.3
829.5657	681.1002	10672.95	9814
829.7105	683.204	10612.7	9752.85
829.8553	685.3072	10556.25	9697.35
830.0001	687.4097	10477	9618.7
830.1449	689.5115	10385.6	9525.8
830.2898	691.6127	10331.75	9476.35
830.4346	693.7132	10255.2	9394.75
830.5794	695.8131	10220.75	9340.9
830.7243	697.9123	10139.15	9279.85
830.8691	700.0109	10084.65	9224.85
831.014	702.1089	10063.65	9202.65
831.1588	704.2061	10039.15	9180.15
831.3037	706.3028	10056.75	9194.5
831.4486	708.3987	10129	9268.65
831.5935	710.4941	10204.75	9345.3
831.7383	712.5887	10354.5	9493.25
831.8832	714.6827	10637.55	9771.85
832.0281	716.7761	10953.45	10089.7
832.173	718.8688	11277.35	10414.15
832.3179	720.9608	11462.95	10596.7
832.4628	723.0522	11469.95	10606.15
832.6077	725.1429	11218.9	10359.45
832.7527	727.233	10905.1	10042.25
832.8976	729.3224	10592.4	9728.05
833.0425	731.4112	10298.45	9433.9
833.1874	733.4993	10103.75	9236.6
833.3324	735.5867	9974.65	9109.55
833.4773	737.6735	9920.95	9058.1
833.6222	739.7596	9869.8	9004.65
833.7672	741.845	9824.7	8960.2
833.9122	743.9298	9829.8	8962.7
834.0571	746.014	9793.7	8932.2
834.2021	748.0974	9805.35	8936.85
834.347	750.1802	9820.7	8954.9
834.492	752.2624	9800.85	8937.8
834.637	754.3439	9806.55	8940.45
834.782	756.4247	9838.25	8965.1
834.9269	758.5048	9922.75	9059.35
835.0719	760.5843	10072.25	9206.8
835.2169	762.6631	10313.05	9445.75
835.3619	764.7413	10642.1	9776.85
835.5069	766.8188	11134.45	10265.55
835.6519	768.8956	11514.9	10649.8
835.7969	770.9718	11747.8	10883.9
835.9419	773.0473	11621.5	10757.05
836.0869	775.1221	11328.5	10462.3
836.232	777.1962	11007.15	10140.25
836.377	779.2697	10847.85	9978.95
836.522	781.3426	10904.7	10020.7
836.667	783.4147	11112.7	10245.8
836.8121	785.4862	11416.6	10549.55
836.9571	787.557	11423.45	10555.05
837.1021	789.6271	11112.6	10247.3
837.2472	791.6966	10634.9	9768.75
837.3922	793.7654	10186.75	9318.4
837.5373	795.8335	9875.4	9007.85
837.6823	797.901	9714.45	8846.2
837.8274	799.9678	9684.55	8815.8
837.9724	802.0339	9721.65	8857.65
838.1175	804.0993	9744.4	8866.55
838.2626	806.1641	9732.3	8862.25
838.4076	808.2282	9677.25	8811.35
838.5527	810.2916	9573.2	8701.65
838.6978	812.3544	9475.85	8608.75
838.8428	814.4164	9380.1	8513.65
838.9879	816.4778	9375.2	8504.7
839.133	818.5385	9366.25	8499.1
839.2781	820.5986	9393.85	8524.7
839.4232	822.658	9426.2	8557.45
839.5682	824.7166	9424.2	8555.5
839.7133	826.7747	9552.1	8684.45
839.8584	828.832	9651.2	8780.45
840.0035	830.8886	9732.8	8862.55
840.1486	832.9446	9858.95	8988.2
840.2937	834.9999	9906.9	9036.2
840.4388	837.0545	9959.9	9085.6
840.5839	839.1085	10014.05	9144.2
840.729	841.1618	10037.25	9161.7
840.8741	843.2143	10028.35	9160.2
841.0192	845.2662	9949.1	9078.85
841.1643	847.3175	9877.35	9008.4
841.3095	849.368	9779.35	8909.1
841.4546	851.4179	9670.35	8802.1
841.5997	853.467	9510.75	8639.5
841.7448	855.5155	9434	8563.35
841.8899	857.5633	9319.95	8449.4
842.0351	859.6105	9240.15	8371.65
842.1802	861.6569	9137.1	8266
842.3253	863.7027	9086.3	8216.25
842.4704	865.7478	9074.85	8202.9
842.6156	867.7922	9056.5	8184.55
842.7607	869.8359	9098.45	8226.6
842.9058	871.8789	9194.35	8323.65
843.0509	873.9212	9366.8	8463.05
843.1961	875.9629	9522.35	8653.15
843.3412	878.0039	9670.8	8798.85
843.4863	880.0441	9728.15	8856.6
843.6315	882.0837	9702.6	8829.95
843.7766	884.1226	9585.85	8710.7
843.9218	886.1609	9455	8584.05
844.0669	888.1984	9348.2	8474.7
844.212	890.2352	9274.25	8402.15
844.3572	892.2714	9216.75	8338.8
844.5023	894.3069	9202.25	8327.9
844.6475	896.3416	9138	8263.85
844.7926	898.3757	9111.1	8240.5
844.9377	900.4091	9112.35	8238
845.0829	902.4418	9100.25	8222
845.228	904.4739	9077.6	8203.1
845.3732	906.5052	9067.8	8196.55
845.5183	908.5358	8972.8	8098
845.6635	910.5658	8861.6	7985.05
845.8086	912.595	8704.35	7829.9
845.9538	914.6236	8585.15	7711.2
846.0989	916.6515	8576.05	7702.5
846.2441	918.6786	8564.25	7686.85
846.3892	920.7051	8603.7	7727.35
846.5344	922.7309	8706.95	7832.25
846.6795	924.756	8771.1	7898.55
846.8246	926.7804	8824	7947.35
846.9698	928.8041	8811.3	7932.8
847.1149	930.8272	8801.5	7927
847.2601	932.8495	8725.05	7850.3
847.4052	934.8711	8658.55	7782.05
847.5504	936.892	8519.55	7643.2
847.6955	938.9123	8373.1	7495.75
847.8407	940.9318	8244.8	7369.65
847.9858	942.9506	8132.45	7255.7
848.131	944.9688	8039.6	7164.05
848.2761	946.9862	8003.15	7127.25
848.4213	949.003	7958.9	7083.5
848.5664	951.019	7967.2	7091.2
848.7115	953.0344	7966.2	7088.6
848.8567	955.0491	8007.6	7131.35
849.0018	957.063	8070.95	7193.15
849.147	959.0763	8157.6	7283.75
849.2921	961.0888	8169.75	7290.1
849.4373	963.1007	8243.25	7365
849.5824	965.1119	8266.7	7392.25
849.7275	967.1223	8289.5	7410.7
849.8727	969.1321	8305.75	7429.45
850.0178	971.1412	8331.35	7455.65
850.1629	973.1495	8362.05	7488
850.3081	975.1572	8401.45	7492.5
850.4532	977.1641	8388.65	7514.05
850.5983	979.1704	8382.6	7504.2
850.7435	981.1759	8389.65	7509.95
850.8886	983.1808	8419.5	7540.8
851.0337	985.1849	8527.35	7640.25
851.1788	987.1884	8648.1	7768.55
851.324	989.1911	8802.9	7923.55
851.4691	991.1932	8911.35	8033.7
851.6142	993.1945	8960.9	8083.8
851.7593	995.1951	8927.55	8049.35
851.9045	997.1951	8891.05	8007.9
852.0496	999.1943	8838.5	7963.55
852.1947	1001.1928	8797.45	7920.15
852.3398	1003.1906	8752.4	7876.05
852.4849	1005.1877	8798.6	7921
852.63	1007.1841	8751.65	7876.25
852.7751	1009.1798	8649.6	7771.9
852.9202	1011.1748	8478.1	7599.8
853.0653	1013.1691	8285.7	7405.7
853.2104	1015.1627	8112.05	7233.8
853.3555	1017.1556	7914.75	7037.55
853.5006	1019.1477	7838.65	6959.45
853.6457	1021.1392	7802.75	6925.6
853.7908	1023.1299	7777	6899.2
853.9359	1025.12	7840.55	6959.8
854.081	1027.1093	7852.95	6974.65
854.2261	1029.0979	7915.2	7037.65
854.3712	1031.0859	7958.7	7080.1
854.5163	1033.0731	7966.65	7088.8
854.6613	1035.0596	7883.35	7007.3
854.8064	1037.0454	7741.45	6864.55
854.9515	1039.0304	7637.35	6758.15
855.0965	1041.0148	7539.9	6662.5
855.2416	1042.9985	7469.4	6591.15
855.3867	1044.9814	7446	6568.8
855.5317	1046.9636	7394.7	6515.7
855.6768	1048.9452	7346.3	6469.85
855.8219	1050.926	7360.9	6483.75
855.9669	1052.9061	7333.6	6458.1
856.112	1054.8855	7321	6443.55
856.257	1056.8642	7374.05	6495.75
856.4021	1058.8421	7374.6	6493.3
856.5471	1060.8194	7406.85	6529.55
856.6921	1062.7959	7419.7	6541.8
856.8372	1064.7717	7438.3	6557.15
856.9822	1066.7469	7424.55	6541.85
857.1272	1068.7213	7413.5	6533.45
857.2723	1070.695	7375.9	6497.35
857.4173	1072.6679	7298.2	6419.35
857.5623	1074.6402	7260.5	6381.85
857.7073	1076.6117	7238.95	6354.5
857.8523	1078.5826	7233.4	6354.7
857.9973	1080.5527	7311.75	6430.95
858.1423	1082.5221	7439.55	6560.2
858.2873	1084.4908	7607.4	6729
858.4323	1086.4587	7794.8	6916
858.5773	1088.426	7935.25	7055.5
858.7223	1090.3925	7939.7	7056.45
858.8673	1092.3584	7857.5	6978.05
859.0123	1094.3235	7710.1	6831.3
859.1573	1096.2879	7601.9	6720.95
859.3022	1098.2515	7577.65	6699.7
859.4472	1100.2145	7575.65	6698.6
859.5922	1102.1767	7660.25	6776.9
859.7371	1104.1382	7762.6	6883.55
859.8821	1106.099	7921.1	7040.15
860.027	1108.0591	8080.8	7201.55
860.172	1110.0185	8203.6	7322.7
860.3169	1111.9771	8201.75	7323.25
860.4619	1113.9351	8016.8	7137.65
860.6068	1115.8923	7748.4	6869.5
860.7517	1117.8488	7449.45	6565.6
860.8967	1119.8045	7213.15	6333.15
861.0416	1121.7596	7063.75	6184.55
861.1865	1123.7139	7014.15	6134.85
861.3314	1125.6675	7012.75	6133.6
861.4763	1127.6204	7064.75	6186.25
861.6212	1129.5726	7059.2	6179.85
861.7661	1131.524	7095.95	6216.05
861.911	1133.4748	7139.55	6261.25
862.0559	1135.4248	7166.7	6284.95
862.2008	1137.3741	7167.4	6287.4
862.3457	1139.3226	7152.25	6272
862.4905	1141.2705	7115.05	6232.2
862.6354	1143.2176	7063.45	6176.75
862.7803	1145.164	7066.9	6185.45
862.9251	1147.1097	7074.65	6194.7
863.07	1149.0546	7076.35	6194.15
863.2148	1150.9989	6996.6	6115.3
863.3597	1152.9424	6823	5943.9
863.5045	1154.8852	6660.35	5780.6
863.6493	1156.8272	6561	5681.35
863.7942	1158.7686	6494.25	5607.05
863.939	1160.7092	6449.85	5567.15
864.0838	1162.6491	6462.25	5580.2
864.2286	1164.5883	6507.95	5626.75
864.3734	1166.5267	6567.9	5687.1
864.5182	1168.4644	6675.8	5796.55
864.663	1170.4014	6839.15	5953.85
864.8078	1172.3377	7018.7	6140.05
864.9526	1174.2732	7191	6309.9
865.0974	1176.2081	7358.85	6477.3
865.2421	1178.1421	7509.65	6626.5
865.3869	1180.0755	7601.8	6722.5
865.5317	1182.0082	7638.3	6756.2
865.6764	1183.9401	7552.1	6670.65
865.8212	1185.8713	7393.45	6514.65
865.9659	1187.8017	7183.35	6303.7
866.1106	1189.7315	6979.85	6098.6
866.2554	1191.6605	6791	5881.45
866.4001	1193.5888	6593.05	5714
866.5448	1195.5163	6481.55	5600.45
866.6895	1197.4432	6404.6	5522.7
866.8342	1199.3693	6358.3	5480.45
866.9789	1201.2947	6318.9	5436.3
867.1236	1203.2193	6300	5420.05
867.2683	1205.1432	6345.15	5463.3
867.413	1207.0664	6361	5479.65
867.5576	1208.9889	6424.2	5540.35
867.7023	1210.9106	6498.15	5616.4
867.847	1212.8316	6560.95	5680.9
867.9916	1214.7519	6627.35	5736.65
868.1363	1216.6715	6613.85	5733.25
868.2809	1218.5903	6590.9	5712.45
868.4255	1220.5084	6559.4	5678.45
868.5701	1222.4257	6522	5638.65
868.7148	1224.3424	6492.3	5612.8
868.8594	1226.2583	6544.05	5659.05
869.004	1228.1735	6620.75	5739.3
869.1486	1230.0879	6726.9	5844.9
869.2932	1232.0016	6844.25	5963.6
869.4377	1233.9146	6857.1	5975.45
869.5823	1235.8269	6794.15	5911.4
869.7269	1237.7384	6671.95	5793.45
869.8715	1239.6492	6496.25	5615.6
870.016	1241.5592	6438	5558.1
870.1606	1243.4686	6333.6	5455.9
870.3051	1245.3772	6288.65	5408.45
870.4496	1247.285	6214.6	5333.5
870.5941	1249.1922	6184.4	5303
870.7387	1251.0986	6193.4	5311.7
870.8832	1253.0042	6182.4	5301.85
871.0277	1254.9092	6214.05	5334.75
871.1722	1256.8134	6307.3	5425.15
871.3167	1258.7169	6454.05	5573.2
871.4611	1260.6196	6562.1	5678.55
871.6056	1262.5216	6727.4	5845.7
871.7501	1264.4229	6840.1	5960.65
871.8945	1266.3234	6918.65	6039.05
872.039	1268.2232	6959.9	6077.25
872.1834	1270.1223	6933.35	6050.8
872.3278	1272.0207	6927.5	6047.2
872.4723	1273.9183	6891.55	6002.8
872.6167	1275.8151	6830.95	5950.2
872.7611	1277.7113	6719.1	5838.5
872.9055	1279.6067	6619.4	5738.55
873.0499	1281.5014	6463.05	5577.95
873.1943	1283.3953	6365.3	5483.75
873.3386	1285.2885	6290.9	5410.4
873.483	1287.181	6245.1	5361.2
873.6274	1289.0727	6246.85	5368.7
873.7717	1290.9637	6272.8	5392.65
873.9161	1292.854	6359.15	5478.4
874.0604	1294.7435	6478.95	5598.85
874.2047	1296.6323	6658.95	5776.9
874.349	1298.5204	6869.35	5983.65
874.4933	1300.4077	7087.95	6205.75
874.6376	1302.2943	7248.9	6366.1
874.7819	1304.1802	7304.15	6422.15
874.9262	1306.0653	7262.9	6379.3
875.0705	1307.9497	7168.25	6287.35
875.2147	1309.8333	7084.05	6204.1
875.359	1311.7162	7051.95	6169.6
875.5032	1313.5984	7123.4	6238.8
875.6475	1315.4798	7256.25	6358.35
875.7917	1317.3605	7421	6522.85
875.9359	1319.2405	7525.75	6644.1
876.0801	1321.1197	7551.7	6667.5
876.2243	1322.9982	7513.45	6627.4
876.3685	1324.876	7491.2	6610.5
876.5127	1326.753	7475.65	6593.75
876.6569	1328.6293	7482.05	6600.55
876.801	1330.5048	7475.25	6589.7
876.9452	1332.3796	7456.45	6574.85
877.0893	1334.2537	7453.4	6542.6
877.2335	1336.127	7390.55	6506.35
877.3776	1337.9996	7366.35	6483.45
877.5217	1339.8714	7333.55	6452.25
877.6658	1341.7426	7341.7	6416.5
877.8099	1343.6129	7237.3	6354.45
877.954	1345.4826	7169.5	6285.4
878.0981	1347.3515	7134.8	6250.55
878.2422	1349.2196	7085.65	6203.65
878.3862	1351.087	7061.45	6178.15
878.5303	1352.9537	7102.25	6220.4
878.6743	1354.8197	7214.9	6330
878.8184	1356.6849	7370.4	6488.7
878.9624	1358.5493	7422.05	6538.8
879.1064	1360.4131	7420.05	6536.5
879.2504	1362.276	7349.05	6467.85
879.3944	1364.1383	7232.25	6350.85
879.5384	1365.9998	7059.3	6168.95
879.6823	1367.8606	6800	5917.4
879.8263	1369.7206	6594.15	5708.8
879.9702	1371.5799	6428	5543.6
880.1142	1373.4384	6352.5	5471.6
880.2581	1375.2962	6243.9	5358.95
880.402	1377.1533	6051.1	5168.9
880.5459	1379.0096	5822.45	4938.35
880.6898	1380.8652	5591.8	4706.95
880.8337	1382.7201	5400.35	4520.05
880.9776	1384.5742	5244.5	4360.65
881.1215	1386.4275	5134.9	4251
881.2653	1388.2802	5031.85	4149.1
881.4092	1390.132	4953.7	4074.5
881.553	1391.9832	4896.65	4015
881.6968	1393.8336	4858.45	3975.5
881.8406	1395.6832	4817.6	3935.3
881.9844	1397.5322	4811.15	3928.25
882.1282	1399.3803	4793.45	3903.8
882.272	1401.2278	4773.35	3890.6
882.4158	1403.0745	4786.45	3903
882.5595	1404.9204	4762.95	3882.05
882.7033	1406.7656	4787.7	3904.4
882.847	1408.6101	4788.25	3905.1
882.9908	1410.4538	4798	3915.15
883.1345	1412.2968	4844.5	3960.5
883.2782	1414.139	4901.35	4021.5
883.4219	1415.9805	4964.05	4081.9
883.5656	1417.8213	5043.65	4151.9
883.7092	1419.6613	5162.15	4279.15
883.8529	1421.5006	5312.2	4427.2
883.9965	1423.3391	5545	4661.4
884.1402	1425.1769	5858	4973.7
884.2838	1427.0139	6262.7	5376.55
884.4274	1428.8502	6782.4	5897.95
884.571	1430.6858	7295.9	6412.05
884.7146	1432.5206	7658	6774.5
884.8582	1434.3547	7863.15	6979.25
885.0018	1436.188	7901.9	7018.7
885.1453	1438.0206	7858.2	6976.35
885.2889	1439.8524	7757.05	6873.4
885.4324	1441.6835	7644.4	6762.75
885.5759	1443.5139	7562.3	6676.85
885.7194	1445.3435	7491.7	6608.1
885.8629	1447.1724	7473.6	6591.1
886.0064	1449.0005	7399.9	6517.15
886.1499	1450.8279	7319	6434.25
886.2933	1452.6545	7306	6423.1
886.4368	1454.4804	7318.55	6437.2
886.5802	1456.3056	7312.55	6421.6
886.7237	1458.13	7237	6354.85
886.8671	1459.9536	7033.85	6149.95
887.0105	1461.7766	6727.3	5842.9
887.1539	1463.5987	6357.7	5473.55
887.2972	1465.4202	6023.1	5139.75
887.4406	1467.2409	5739.05	4855.5
887.584	1469.0608	5507.4	4625.65
887.7273	1470.88	5296.4	4413.25
887.8706	1472.6984	5104.1	4221.6
888.0139	1474.5161	4957.4	4071
888.1572	1476.3331	4824.2	3941.75
888.3005	1478.1493	4717.85	3834.7
888.4438	1479.9648	4640.55	3756.9
888.5871	1481.7795	4557.05	3674.95
888.7303	1483.5935	4513.4	3632
888.8736	1485.4067	4449.9	3563.85
889.0168	1487.2192	4411.25	3528.25
889.16	1489.031	4357.85	3473.9
889.3032	1490.842	4334.2	3450.8
889.4464	1492.6522	4311.8	3430.35
889.5896	1494.4618	4290.75	3406.3
889.7327	1496.2705	4270	3387.25
889.8759	1498.0785	4256.95	3374.85
890.019	1499.8858	4237.8	3353.3
890.1622	1501.6924	4213.75	3330.65
890.3053	1503.4981	4200.2	3319.6
890.4484	1505.3032	4186.2	3302.95
890.5914	1507.1075	4178.9	3296.2
890.7345	1508.911	4151.3	3268.65
890.8776	1510.7138	4123.7	3239.2
891.0206	1512.5159	4101.45	3218.25
891.1637	1514.3172	4056.85	3174.35
891.3067	1516.1178	4038.75	3156.85
891.4497	1517.9176	4035.15	3149.8
891.5927	1519.7166	4001.25	3119.55
891.7357	1521.515	3981.2	3090.15
891.8786	1523.3126	3973.7	3089.9
892.0216	1525.1094	3958.25	3073.55
892.1645	1526.9055	3933.25	3050.1
892.3074	1528.7008	3916.7	3033
892.4503	1530.4954	3902.75	3018.3
892.5932	1532.2893	3892.8	3012.05
892.7361	1534.0824	3889.4	2999.7
892.879	1535.8747	3883.2	3000.3
893.0218	1537.6663	3871.65	2986.65
893.1647	1539.4572	3884.95	3002.55
893.3075	1541.2473	3855.2	2970.45
893.4503	1543.0367	3868.85	2989
893.5931	1544.8253	3859.2	2973.75
893.7359	1546.6132	3859.8	2974.45
893.8787	1548.4003	3856.95	2964.2
894.0214	1550.1867	3865.2	2972.75
894.1642	1551.9723	3880.9	2992.25
894.3069	1553.7572	3888.6	3003.65
894.4496	1555.5414	3909.75	3025.3
894.5923	1557.3247	3957.4	3076.5
894.735	1559.1074	3969	3086.95
894.8777	1560.8893	4020.7	3140.85
895.0204	1562.6705	4063.85	3179.8
895.163	1564.4509	4122.65	3240.3
895.3056	1566.2305	4177.65	3295.3
895.4482	1568.0094	4274.75	3393.8
895.5908	1569.7876	4318.55	3436
895.7334	1571.565	4381.05	3500.1
895.876	1573.3417	4421.8	3538.5
896.0186	1575.1176	4430.05	3547.75
896.1611	1576.8928	4417	3534.9
896.3036	1578.6672	4329.65	3447.55
896.4461	1580.4409	4238.35	3357.05
896.5886	1582.2138	4150.45	3265.05
896.7311	1583.986	4045.95	3163.1
896.8736	1585.7575	3963.85	3082.15
897.0161	1587.5282	3900.95	3019.25
897.1585	1589.2981	3853.6	2971.3
897.3009	1591.0673	3829.8	2945.7
897.4433	1592.8358	3822.6	2942.55
897.5857	1594.6035	3806.45	2920.7
897.7281	1596.3704	3799.2	2918.7
897.8705	1598.1366	3803.45	2919.5
898.0128	1599.9021	3833.35	2950.7
898.1551	1601.6668	3861.85	2979.15
898.2975	1603.4308	3897.15	3015.75
898.4398	1605.194	3955.35	3068.5
898.5821	1606.9564	4023.55	3139.05
898.7243	1608.7182	4117.8	3230.1
898.8666	1610.4791	4232.6	3350.35
899.0088	1612.2394	4368.15	3484.75
899.1511	1613.9988	4508.8	3624.7
899.2933	1615.7576	4691.85	3810.45
899.4355	1617.5156	4886.1	3999.95
899.5776	1619.2728	5074.75	4193.1
899.7198	1621.0293	5221.2	4342.1
899.862	1622.785	5299.05	4413.7
900.0041	1624.54	5265.45	4381.8
900.1462	1626.2942	5143.2	4259.9
900.2883	1628.0477	4962.3	4075.2
900.4304	1629.8005	4763.95	3876.9
900.5725	1631.5525	4564	3680.85
900.7145	1633.3037	4392.55	3510.75
900.8566	1635.0542	4254.15	3374.5
900.9986	1636.804	4163.85	3281.65
901.1406	1638.553	4157.95	3207.15
901.2826	1640.3013	4052.55	3170.9
901.4245	1642.0488	4021.95	3141.8
901.5665	1643.7955	4016.05	3134.75
901.7085	1645.5416	4041.55	3160.35
901.8504	1647.2868	4086.7	3205.3
901.9923	1649.0313	4161.8	3281.7
902.1342	1650.7751	4267.15	3381.7
902.2761	1652.5181	4411.9	3529.1
902.4179	1654.2604	4621.65	3738.55
902.5598	1656.0019	4885.6	4004.1
902.7016	1657.7427	5190.75	4307.75
902.8434	1659.4828	5454.4	4572.7
902.9852	1661.222	5673.05	4790.45
903.127	1662.9606	5680.65	4798.8
903.2687	1664.6984	5531.7	4649.3
903.4105	1666.4354	5239.45	4357.05
903.5522	1668.1717	4860	3978.8
903.6939	1669.9072	4495.1	3615.35
903.8356	1671.642	4188.75	3306.5
903.9773	1673.3761	3934	3053.35
904.119	1675.1094	3745.15	2862.5
904.2606	1676.8419	3626.65	2746.85
904.4022	1678.5737	3515.65	2634.1
904.5439	1680.3048	3435.25	2554.5
904.6855	1682.0351	3369.15	2487.55
904.827	1683.7646	3332.15	2447.75
904.9686	1685.4934	3295.5	2414.6
905.1101	1687.2215	3256.95	2374.55
905.2517	1688.9488	3208.05	2326.3
905.3932	1690.6754	3215.75	2333.7
905.5347	1692.4012	3177.15	2296.5
905.6761	1694.1263	3157	2278.6
905.8176	1695.8506	3148.45	2265.35
905.9591	1697.5742	3116.3	2235.7
906.1005	1699.297	3107.55	2227
906.2419	1701.0191	3088.9	2207.55
906.3833	1702.7404	3077.7	2198.25
906.5246	1704.461	3049.85	2168.55
906.666	1706.1808	3047	2162.8
906.8073	1707.8999	3032.95	2151.15
906.9487	1709.6182	3030.2	2147.25
907.09	1711.3358	3015.45	2132.95
907.2313	1713.0527	3011.1	2131.4
907.3725	1714.7688	3001.35	2114.1
907.5138	1716.4841	2975.65	2093.4
907.655	1718.1987	2976.9	2091.45
907.7962	1719.9126	2960.15	2081.6
907.9374	1721.6257	2958.15	2075.1
908.0786	1723.338	2946.95	2065.6
908.2198	1725.0496	2938.8	2055.9
908.3609	1726.7605	2917.9	2035.8
908.502	1728.4706	2919.05	2037.8
908.6431	1730.18	2888.4	2003.9
908.7842	1731.8886	2887.95	2005.75
908.9253	1733.5964	2884.8	1999.15
909.0664	1735.3036	2881.55	1997.9
909.2074	1737.0099	2866.75	1986.5
909.3484	1738.7156	2865.45	1983
909.4894	1740.4204	2851.5	1970
909.6304	1742.1246	2849.9	1966.2
909.7714	1743.8279	2839.75	1959.05
909.9123	1745.5306	2834.5	1951.75
910.0532	1747.2325	2829.7	1948.25
910.1941	1748.9336	2823.55	1943.35
910.335	1750.634	2812	1928.3
910.4759	1752.3336	2804	1921.65
910.6168	1754.0325	2795.2	1914.85
910.7576	1755.7307	2779.8	1898.6
910.8984	1757.4281	2777.4	1895.9
911.0392	1759.1247	2794.45	1906.25
911.18	1760.8206	2786.35	1901.75
911.3208	1762.5158	2780	1896.85
911.4615	1764.2102	2773.1	1892.5
911.6022	1765.9039	2767.55	1886.35
911.7429	1767.5968	2750.65	1869.3
911.8836	1769.289	2747.65	1866.25
912.0243	1770.9804	2746.95	1866.55
912.1649	1772.6711	2737.75	1855.65
912.3056	1774.361	2737.3	1853.5
912.4462	1776.0502	2721	1840.65
912.5868	1777.7386	2724.5	1840.25
912.7274	1779.4263	2715.1	1832.8
912.8679	1781.1132	2717.5	1834.1
913.0084	1782.7994	2708.25	1822.25
913.149	1784.4849	2694.85	1814.95
913.2895	1786.1696	2718.35	1818.65
913.4299	1787.8535	2701.25	1821.9
913.5704	1789.5367	2686.55	1805.15
913.7108	1791.2192	2687.6	1805.5
913.8513	1792.9009	2692.65	1788.25
913.9917	1794.5818	2677.55	1796.25
914.132	1796.2621	2660.35	1779.9
914.2724	1797.9415	2671.15	1789.95
914.4128	1799.6202	2645.2	1764.5
914.5531	1801.2982	2658	1779.25
914.6934	1802.9755	2649.15	1765.9
914.8337	1804.6519	2657.2	1775.9
914.9739	1806.3277	2631.1	1750.65
915.1142	1808.0027	2635.2	1755.15
915.2544	1809.6769	2639.35	1758.25
915.3946	1811.3504	2627.45	1745.1
915.5348	1813.0231	2621.65	1739.9
915.675	1814.6951	2628.85	1747.95
915.8151	1816.3664	2611.4	1728.7
915.9553	1818.0369	2612.7	1731.4
916.0954	1819.7067	2600.55	1720.6
916.2355	1821.3757	2594.2	1714.05
916.3755	1823.044	2581.4	1701.05
916.5156	1824.7115	2592.25	1711.65
916.6556	1826.3783	2589.8	1712.1
916.7956	1828.0443	2584.7	1702.5
916.9356	1829.7096	2573.05	1692.3
917.0756	1831.3741	2581.15	1696.5
917.2155	1833.0379	2568.95	1687.1
917.3555	1834.701	2554.55	1669.8
917.4954	1836.3633	2555.6	1674.05
917.6353	1838.0248	2567.65	1683.1
917.7751	1839.6856	2553.8	1673.6
917.915	1841.3457	2557	1675.8
918.0548	1843.005	2547.85	1668.15
918.1946	1844.6636	2531.1	1651.25
918.3344	1846.3214	2535.25	1655.3
918.4742	1847.9785	2541.85	1659.55
918.6139	1849.6349	2552.95	1669.4
918.7537	1851.2904	2556.4	1667.5
918.8934	1852.9453	2530.05	1648.05
919.0331	1854.5994	2525.65	1642.5
919.1727	1856.2528	2538.15	1652.5
919.3124	1857.9054	2512.45	1630.5
919.452	1859.5572	2512.2	1632.8
919.5916	1861.2083	2520.8	1638.85
919.7312	1862.8587	2507.9	1625.5
919.8708	1864.5084	2508.6	1628.3
920.0103	1866.1572	2512.1	1631.7
920.1498	1867.8054	2481.8	1601
920.2893	1869.4528	2483.45	1602.25
920.4288	1871.0994	2474.8	1593.65
920.5683	1872.7453	2481.75	1601.25
920.7077	1874.3905	2480.55	1591.65
920.8471	1876.0349	2464.5	1583.05
920.9865	1877.6786	2482.05	1599.9
921.1259	1879.3215	2462.95	1585.6
921.2653	1880.9637	2457.9	1576.4
921.4046	1882.6051	2456.25	1575.25
921.5439	1884.2458	2450.3	1568.2
921.6832	1885.8858	2434.9	1554.25
921.8225	1887.525	2438.4	1557.6
921.9617	1889.1634	2435.55	1553.6
922.101	1890.8011	2445.3	1562.75
922.2402	1892.4381	2421.95	1539.9
922.3794	1894.0743	2434.05	1554
922.5185	1895.7098	2418.15	1537.5
922.6577	1897.3446	2423.05	1539.5
922.7968	1898.9786	2411.4	1527.6
922.9359	1900.6118	2407.85	1529.45
923.075	1902.2443	2399.4	1517.05
923.214	1903.8761	2395.9	1515.1
923.3531	1905.5071	2390.8	1506.55
923.4921	1907.1374	2390.2	1508.3
923.6311	1908.7669	2380.85	1500.55
923.77	1910.3957	2367.1	1486
923.909	1912.0237	2372.45	1490.5
924.0479	1913.651	2371.25	1488.7
924.1868	1915.2776	2371.55	1493.7
924.3257	1916.9034	2356.7	1477.7
924.4646	1918.5285	2356.15	1476.35
924.6034	1920.1528	2354.75	1473.75
924.7422	1921.7764	2355.2	1475.05
924.881	1923.3992	2353.45	1474.9
925.0198	1925.0213	2337.3	1455.45
925.1586	1926.6427	2332.3	1452.55
925.2973	1928.2633	2517.6	1410.2
925.436	1929.8832	2346.45	1463.65
925.5747	1931.5023	2320.25	1441.25
925.7134	1933.1207	2311.75	1431.6
925.852	1934.7383	2311.55	1430.1
925.9906	1936.3552	2299.05	1418.1
926.1292	1937.9714	2295.35	1414.4
926.2678	1939.5868	2286	1403.95
926.4064	1941.2015	2277.8	1394.35
926.5449	1942.8154	2276.4	1394.05
926.6834	1944.4286	2280.2	1398.35
926.8219	1946.041	2291.8	1386.2
926.9604	1947.6528	2272.15	1385.95
927.0988	1949.2637	2255.9	1374.8
927.2372	1950.8739	2253.1	1372
927.3756	1952.4834	2245.5	1365.25
927.514	1954.0921	2246.8	1364.2
927.6523	1955.7001	2248.85	1365.4
927.7907	1957.3074	2240.9	1361.1
927.929	1958.9139	2222.15	1341.25
928.0673	1960.5197	2225.45	1343.7
928.2055	1962.1247	2214.65	1332.55
928.3438	1963.729	2216.25	1334.9
928.482	1965.3325	2227.9	1322.45
928.6202	1966.9353	2203.55	1323.65
928.7584	1968.5374	2190.4	1309.35
928.8965	1970.1387	2194.5	1310.85
929.0346	1971.7393	2193.4	1313.9
929.1727	1973.3392	2179.95	1298.25
929.3108	1974.9383	2175.2	1294.75
929.4489	1976.5366	2175.4	1296.15
929.5869	1978.1342	2174	1292.5
929.7249	1979.7311	2173.2	1291.95
929.8629	1981.3273	2162.75	1282.25
930.0009	1982.9227	2166.05	1284.2
930.1388	1984.5173	2156.3	1276.25
930.2767	1986.1112	2147.6	1266.8
930.4146	1987.7044	2155.55	1276.6
930.5525	1989.2968	2146.85	1265.3
930.6904	1990.8885	2143	1258.6
930.8282	1992.4795	2136.25	1254.1
930.966	1994.0697	2137.4	1257
931.1038	1995.6592	2128.9	1246.35
931.2415	1997.2479	2128.45	1247.2
931.3793	1998.8359	2122.1	1241.15
931.517	2000.4232	2121.85	1241.6
931.6547	2002.0097	2114.8	1234.95
931.7923	2003.5955	2116.3	1233.15
931.93	2005.1805	2117.5	1237.1
932.0676	2006.7648	2110.75	1230.85
932.2052	2008.3484	2098.5	1215.6
932.3427	2009.9312	2111.35	1227.3
932.4803	2011.5133	2095	1214.8
932.6178	2013.0946	2086.25	1204.7
932.7553	2014.6752	2096.25	1217.25
932.8928	2016.2551	2086.05	1204.4
933.0302	2017.8342	2082.35	1201.75
933.1676	2019.4126	2083.6	1204.6
933.305	2020.9902	2074.15	1192.6
933.4424	2022.5672	2063.1	1180.4
933.5798	2024.1433	2063.3	1175.2
933.7171	2025.7188	2066.8	1188.25
933.8544	2027.2935	2071.25	1186.85
933.9917	2028.8674	2053.7	1172.4
934.129	2030.4406	2055.15	1174.9
934.2662	2032.0131	2045.75	1164.35
934.4034	2033.5849	2042.75	1154.1
934.5406	2035.1559	2047.05	1165.35
934.6778	2036.7261	2040.35	1162.05
934.8149	2038.2957	2045.1	1165.55
934.952	2039.8645	2029.6	1148.4
935.0891	2041.4325	2039.1	1157.35
935.2262	2042.9998	2029.1	1147.4
935.3632	2044.5664	2022.1	1138.9
935.5002	2046.1323	2020.9	1141.85
935.6372	2047.6974	2021.95	1140.55
935.7742	2049.2617	2020.55	1141.85
935.9111	2050.8254	2042.95	1128.4
936.048	2052.3883	2014.3	1131.05
936.1849	2053.9504	2015.1	1131.85
936.3218	2055.5118	2008.1	1124.9
936.4586	2057.0725	2008.85	1123.65
936.5955	2058.6325	1999.75	1118.6
936.7323	2060.1917	1993.5	1112.35
936.869	2061.7502	1997.75	1113.1
937.0058	2063.3079	1990.35	1109.25
937.1425	2064.8649	1988.9	1103.9
937.2792	2066.4212	1982.1	1099.15
937.4159	2067.9767	1980.85	1098.95
937.5525	2069.5315	1968.85	1086.3
937.6891	2071.0856	1966.05	1083.8
937.8257	2072.6389	1965	1082.25
937.9623	2074.1915	1950.15	1070.9
938.0989	2075.7433	1957.5	1073.45
938.2354	2077.2945	1948.2	1069.15
938.3719	2078.8448	1953.2	1072.95
938.5084	2080.3945	1947.95	1068.15
938.6448	2081.9434	1949.2	1067.65
938.7812	2083.4916	1939.9	1059.75
938.9176	2085.039	1935.85	1052.45
939.054	2086.5857	1938.3	1057.5
939.1903	2088.1317	1925.05	1044.55
939.3267	2089.677	1926.95	1048.1
939.463	2091.2215	1930	1050.35
939.5992	2092.7652	1925.05	1043.3
939.7355	2094.3083	1927.4	1044.15
939.8717	2095.8506	1923.2	1041.95
940.0079	2097.3921	1919.25	1039.75
940.1441	2098.933	1907.95	1026
940.2802	2100.4731	1912.05	1029.3
940.4163	2102.0124	1921.6	1032.7
940.5524	2103.5511	1910.8	1030.9
940.6885	2105.089	1896.95	1016.7
940.8245	2106.6261	1908.75	1028.3
940.9606	2108.1626	1907.25	1026.45
941.0965	2109.6983	1914.2	1004.4
941.2325	2111.2332	1898.1	1015.8
941.3684	2112.7675	1903	1022.1
941.5044	2114.301	1894.45	1011.5
941.6403	2115.8337	1884.5	1002.9
941.7761	2117.3657	1885.95	1005.9
941.912	2118.897	1884.55	1002.4
942.0478	2120.4276	1893.6	1005.3
942.1835	2121.9575	1878.3	995.55
942.3193	2123.4866	1892.25	995.4
942.455	2125.0149	1876.1	993.9
942.5907	2126.5426	1865.6	985.15
942.7264	2128.0695	1878.75	993
942.8621	2129.5956	1867.75	987.8
942.9977	2131.1211	1868.1	980.7
943.1333	2132.6458	1858.4	979.05
943.2689	2134.1698	1860.55	979.25
943.4044	2135.693	1856.3	972.3
943.54	2137.2155	1858.1	973.35
943.6755	2138.7373	1851.75	970.05
943.8109	2140.2584	1842.95	960.8
943.9464	2141.7787	1846.1	958.95
944.0818	2143.2983	1848.1	967.95
944.2172	2144.8171	1833.25	951.7
944.3526	2146.3353	1839.1	954
944.4879	2147.8527	1827.05	947.3
944.6232	2149.3693	1835.55	952.35
944.7585	2150.8853	1811.45	930.6
944.8938	2152.4005	1820	939.55
945.029	2153.9149	1823.65	941.25
945.1642	2155.4287	1814.75	934.05
945.2994	2156.9417	1824.9	942
945.4346	2158.454	1814.65	930.3
945.5697	2159.9655	1809	927
945.7048	2161.4764	1809.1	927.95
945.8399	2162.9865	1811.9	929.25
945.9749	2164.4958	1804.25	921.1
946.1099	2166.0045	1801.5	916.85
946.2449	2167.5124	1791.15	912.45
946.3799	2169.0195	1799.45	918.9
946.5148	2170.526	1794.45	912.05
946.6498	2172.0317	1790.6	907.95
946.7846	2173.5367	1795.65	912.4
946.9195	2175.0409	1786.15	906
947.0543	2176.5445	1780.65	900.6
947.1891	2178.0473	1779.05	897.05
947.3239	2179.5494	1780	896.1
947.4587	2181.0507	1776.8	895.9
947.5934	2182.5513	1775.15	896.1
947.7281	2184.0512	1769.7	885.3
947.8628	2185.5504	1770.1	889.3
947.9974	2187.0488	1767.5	885.55
948.132	2188.5465	1767.95	887.4
948.2666	2190.0435	1761.9	880.95
948.4012	2191.5397	1764.95	884.6
948.5357	2193.0353	1758.9	878
948.6702	2194.5301	1757.05	874.2
948.8047	2196.0241	1751.95	869.9
948.9392	2197.5175	1751.5	870.9
949.0736	2199.0101	1755.6	869.45
949.208	2200.502	1743.35	863.7
949.3424	2201.9931	1734.25	853.4
949.4767	2203.4835	1737.1	853.65
949.611	2204.9733	1738.95	852.4
949.7453	2206.4622	1732.45	850.95
949.8796	2207.9505	1730.95	845.8
950.0138	2209.438	1727.95	848.7
950.148	2210.9248	1717.9	834.05
950.2822	2212.4109	1717.7	836.65
950.4164	2213.8962	1714.4	831.35
950.5505	2215.3809	1714.4	832.35
950.6846	2216.8648	1710.25	828.4
950.8186	2218.3479	1719	833.9
950.9527	2219.8304	1713.1	830.05
951.0867	2221.3121	1705.6	822.65
951.2207	2222.7931	1695.9	815.6
951.3546	2224.2733	1698.6	815.1
951.4886	2225.7529	1693.05	810.3
951.6225	2227.2317	1694.25	808.05
951.7563	2228.7098	1693.6	810.8
951.8902	2230.1872	1686.15	804.3
952.024	2231.6638	1688.4	807.55
952.1578	2233.1397	1691.25	802.3
952.2916	2234.6149	1675.9	794.75
952.4253	2236.0894	1680.5	798.65
952.559	2237.5632	1685.4	792.6
952.6927	2239.0362	1672.55	791.8
952.8263	2240.5085	1667.8	785.2
952.9599	2241.9801	1669.4	786.35
953.0935	2243.4509	1657.7	776.3
953.2271	2244.921	1663.1	781.25
953.3606	2246.3904	1652.55	770.15
953.4941	2247.8591	1648.7	768.25
953.6276	2249.3271	1658.9	778.75
953.7611	2250.7943	1647.8	766.5
953.8945	2252.2608	1651.25	769.45
954.0279	2253.7266	1637.9	759.05
954.1612	2255.1917	1645.95	765.15
954.2946	2256.656	1639.7	755.95
954.4279	2258.1197	1635.45	753.45
954.5612	2259.5826	1634.9	752.05
954.6944	2261.0447	1631.75	749.05
954.8276	2262.5062	1631.3	747.65
954.9608	2263.9669	1630.3	747.2
955.094	2265.4269	1631.5	750.85
955.2271	2266.8862	1630.8	748.35
955.3602	2268.3448	1635.05	754
955.4933	2269.8026	1630.6	749.65
955.6264	2271.2598	1627.25	746.2
955.7594	2272.7162	1615.55	734.3
955.8924	2274.1719	1619	739.2
956.0253	2275.6268	1612.6	733.25
956.1583	2277.0811	1614.65	731.4
956.2912	2278.5346	1618.5	736.9
956.4241	2279.9874	1614.85	731.5
956.5569	2281.4395	1614.95	733.2
956.6897	2282.8908	1613.65	728
956.8225	2284.3414	1616.75	734.05
956.9553	2285.7914	1609.95	729.05
957.088	2287.2406	1603.55	720.45
957.2207	2288.689	1600.45	719.7
957.3534	2290.1368	1593.25	711.95
957.486	2291.5838	1603.2	720.3
957.6186	2293.0302	1594.3	713.35
957.7512	2294.4758	1588.8	707.25
957.8838	2295.9206	1594.75	711.35
958.0163	2297.3648	1591.05	708.65
958.1488	2298.8082	1589.85	707.25
958.2813	2300.251	1590	708.2
958.4137	2301.693	1585.8	700.1
958.5461	2303.1343	1589.75	707.15
958.6785	2304.5748	1584	702.85
958.8108	2306.0147	1584.65	700.6
958.9432	2307.4538	1576.95	692.3
959.0754	2308.8922	1575.2	695.85
959.2077	2310.3299	1577.55	696.7
959.3399	2311.7669	1572.05	690.95
959.4721	2313.2031	1566.7	685.3
959.6043	2314.6387	1567	683.65
959.7365	2316.0735	1566.5	684.85
959.8686	2317.5076	1556.65	672.8
960.0006	2318.941	1560.25	679.7
960.1327	2320.3737	1561.85	678.9
960.2647	2321.8056	1558.4	676.75
960.3967	2323.2369	1558.2	677.05
960.5287	2324.6674	1550.1	666.3
960.6606	2326.0972	1548.7	665.8
960.7925	2327.5263	1552.75	673
960.9244	2328.9547	1550	669.3
961.0562	2330.3823	1543.9	662.65
961.1881	2331.8092	1548.7	663.55
961.3198	2333.2355	1536.15	654.75
961.4516	2334.661	1535.8	654.25
961.5833	2336.0858	1531.6	649.15
961.715	2337.5098	1536.65	655.95
961.8467	2338.9332	1531.2	649.85
961.9783	2340.3558	1537.55	650.9
962.1099	2341.7778	1526.05	645.1
962.2415	2343.199	1532.3	647.35
962.373	2344.6195	1523.85	642.4
962.5045	2346.0393	1523.55	643.65
962.636	2347.4583	1532.05	651.15
962.7675	2348.8767	1530.1	647.55
962.8989	2350.2943	1524.65	642.85
963.0303	2351.7113	1535.4	651.7
963.1617	2353.1275	1519	638.35
963.293	2354.543	1538.5	633.7
963.4243	2355.9578	1520.35	640.35
963.5556	2357.3718	1508.75	626
963.6868	2358.7852	1517.25	634.6
963.818	2360.1978	1510.2	628.8
963.9492	2361.6098	1505.6	624.75
964.0803	2363.021	1508.4	625.25
964.2114	2364.4315	1505.6	624.1
964.3425	2365.8413	1507.75	624.15
964.4736	2367.2504	1504.15	622.9
964.6046	2368.6587	1504.55	622.65
964.7356	2370.0664	1503.7	622.65
964.8666	2371.4733	1500.85	617.3
964.9975	2372.8795	1494.45	612.1
965.1284	2374.285	1485.9	606
965.2593	2375.6899	1485.9	606.75
965.3901	2377.0939	1487.7	607.9
965.5209	2378.4973	1486.95	606.05
965.6517	2379.9	1482.35	601.5
965.7825	2381.3019	1473.95	593.45
965.9132	2382.7032	1474.35	594.85
966.0439	2384.1037	1475.85	597.9
966.1745	2385.5035	1473.8	593.25
966.3051	2386.9027	1467	587.45
966.4357	2388.3011	1473.35	588.05
966.5663	2389.6987	1472.5	591.9
966.6968	2391.0957	1461.35	581.55
966.8273	2392.492	1462.6	581.7
966.9578	2393.8876	1458.55	574.9
967.0882	2395.2824	1457.75	576.95
967.2186	2396.6765	1451.95	573.1
967.349	2398.07	1455.35	572.1
967.4793	2399.4627	1458.75	579.7
967.6097	2400.8547	1456.15	575.1
967.7399	2402.246	1456.55	570.6
967.8702	2403.6366	1450.5	570.9
968.0004	2405.0265	1448.8	567.15
968.1306	2406.4156	1448.5	564.7
968.2607	2407.8041	1446.4	564.05
968.3909	2409.1918	1447.25	565.15
968.521	2410.5789	1446.5	567.5
968.651	2411.9652	1443.65	561.15
968.781	2413.3508	1441.8	560.55
968.911	2414.7358	1435.6	553.8
969.041	2416.12	1433.7	553.85
969.1709	2417.5035	1435.75	555
969.3008	2418.8863	1434	554.45
969.4307	2420.2684	1437.3	555.65
969.5606	2421.6497	1434.2	553.7
969.6904	2423.0304	1424.35	544.2
969.8201	2424.4104	1424.45	543.45
969.9499	2425.7896	1430.05	544.1
970.0796	2427.1682	1417.6	536.25
970.2093	2428.546	1417.45	535.15
970.3389	2429.9232	1419.25	537.3
970.4685	2431.2996	1414.8	535.2
970.5981	2432.6753	1415.95	538.25
970.7277	2434.0503	1421.1	539.25
970.8572	2435.4246	1411.95	531.35
970.9867	2436.7982	1411.8	528.45
971.1161	2438.1711	1411.35	532.1
971.2456	2439.5433	1408.15	525.2
971.375	2440.9148	1414.7	529.25
971.5043	2442.2856	1396.4	517.4
971.6336	2443.6557	1402.85	521
971.7629	2445.025	1399.4	518.5
971.8922	2446.3937	1401.4	521
972.0214	2447.7617	1401.4	520.75
972.1506	2449.1289	1399.2	518.7
972.2798	2450.4955	1399.6	515.1
972.4089	2451.8613	1397.35	516.2
972.538	2453.2265	1392.6	511.75
972.6671	2454.5909	1386.8	504.1
972.7961	2455.9546	1390.65	510.7
972.9251	2457.3177	1387.6	509.7
973.0541	2458.68	1393.9	509.7
973.1831	2460.0416	1391.6	510.1
973.312	2461.4025	1390.25	509.05
973.4408	2462.7627	1404.1	511.85
973.5697	2464.1222	1393.9	516
973.6985	2465.4811	1382.5	498.35
973.8273	2466.8392	1389.35	508.8
973.956	2468.1966	1380.6	495.4
974.0847	2469.5533	1385.7	503.75
974.2134	2470.9093	1383.85	503.75
974.3421	2472.2645	1378.9	496.1
974.4707	2473.6191	1383.7	503.45
974.5993	2474.973	1381.55	500.85
974.7278	2476.3262	1388.75	504.95
974.8563	2477.6787	1378.15	496.2
974.9848	2479.0305	1375.55	492.6
975.1132	2480.3816	1378.8	495.15
975.2417	2481.7319	1366.85	485.65
975.37	2483.0816	1369.45	486.35
975.4984	2484.4306	1368.7	487.3
975.6267	2485.7789	1370.95	489
975.755	2487.1264	1371.55	490.35
975.8833	2488.4733	1363.3	485.05
976.0115	2489.8195	1382.25	484.4
976.1397	2491.165	1364.15	480.7
976.2678	2492.5097	1361.4	478.45
976.3959	2493.8538	1362.9	482.25
976.524	2495.1972	1352.7	473.4
976.6521	2496.5398	1353.45	470.7
976.7801	2497.8818	1352.4	469.8
976.9081	2499.2231	1353.8	473.45
977.036	2500.5637	1351.25	468
977.164	2501.9035	1349.2	468.7
977.2918	2503.2427	1350.5	463.15
977.4197	2504.5812	1346.6	466.9
977.5475	2505.919	1344.2	460.85
977.6753	2507.256	1347.2	466.1
977.8031	2508.5924	1340.75	460.3
977.9308	2509.9281	1342.25	454.45
978.0585	2511.2631	1348.4	468.3
978.1861	2512.5974	1344.1	463.75
978.3137	2513.9309	1344.5	461.3
978.4413	2515.2638	1357.75	449.5
978.5689	2516.596	1342.55	462.6
978.6964	2517.9275	1338.2	457.15
978.8239	2519.2583	1337.9	457.75
978.9513	2520.5884	1329.05	444.45
979.0788	2521.9178	1332.65	451.4
979.2062	2523.2465	1329.85	448.65
979.3335	2524.5745	1322.75	441
979.4608	2525.9018	1330.75	450.85
979.5881	2527.2284	1327.4	447.4
979.7154	2528.5543	1326	446.65
979.8426	2529.8796	1325.35	443
979.9698	2531.2041	1324.55	442.65
980.0969	2532.5279	1325.35	446.6
980.224	2533.851	1330.95	448.5
980.3511	2535.1735	1318.05	436.75
980.4781	2536.4952	1324.6	444.6
980.6052	2537.8163	1327.3	445.85
980.7321	2539.1366	1318	438.7
980.8591	2540.4562	1317.9	435.9
980.986	2541.7752	1322.85	442.7
981.1129	2543.0935	1317.2	436.15
981.2397	2544.411	1318.65	435.55
981.3665	2545.7279	1308.75	429.45
981.4933	2547.0441	1312.25	431.25
981.62	2548.3596	1315.1	430.5
981.7467	2549.6744	1313.3	433.2
981.8734	2550.9885	1314.3	424.45
982.0001	2552.3019	1309.1	429.95
982.1267	2553.6146	1310.15	427.85
982.2532	2554.9266	1305.55	424.9
982.3798	2556.2379	1306.75	425.2
982.5063	2557.5485	1305.3	425.75
982.6327	2558.8585	1311.6	423.6
982.7592	2560.1677	1304.55	420.45
982.8856	2561.4762	1300.65	419.75
983.0119	2562.7841	1306.1	422.9
983.1383	2564.0913	1303.6	422.95
983.2646	2565.3977	1301.65	422.8
983.3908	2566.7035	1294.45	412.05
983.517	2568.0086	1297.9	414.65
983.6432	2569.313	1299.5	418
983.7694	2570.6167	1298.45	412.65
983.8955	2571.9197	1293	414.6
984.0216	2573.222	1298.35	413.9
984.1476	2574.5236	1291.75	411.2
984.2737	2575.8246	1292.4	410.1
984.3996	2577.1248	1297.65	412.9
984.5256	2578.4244	1292.3	411.2
984.6515	2579.7232	1300.8	418.65
984.7774	2581.0214	1328.3	411.55
984.9032	2582.3189	1292	412.3
985.029	2583.6157	1296.15	410.95
985.1548	2584.9118	1294.2	414.1
985.2806	2586.2072	1300.1	417.8
985.4063	2587.5019	1300.95	421.25
985.5319	2588.7959	1298.45	414.85
985.6576	2590.0893	1300	415.95
985.7832	2591.3819	1298.3	416.1
985.9087	2592.6739	1305.2	423.95
986.0343	2593.9652	1302.65	421.35
986.1597	2595.2557	1301.7	421.2
986.2852	2596.5456	1308.45	425.75
986.4106	2597.8348	1306.5	425.15
986.536	2599.1234	1307.8	427.4
986.6614	2600.4112	1303.8	420.35
986.7867	2601.6983	1312.15	429.4
986.912	2602.9848	1309.3	427.65
987.0372	2604.2705	1310.45	422.6
987.1624	2605.5556	1302.65	420.45
987.2876	2606.84	1307.6	425.5
987.4128	2608.1237	1306.25	423.1
987.5379	2609.4067	1303.05	423.3
987.6629	2610.689	1304.75	412.4
987.788	2611.9707	1305.45	421.35
987.913	2613.2516	1308	422.6
988.0379	2614.5319	1301.8	421.05
988.1629	2615.8115	1296.55	413.8
988.2878	2617.0903	1298.75	418.8
988.4126	2618.3685	1296	414.65
988.5375	2619.6461	1292.95	409.55
988.6622	2620.9229	1288.7	408.8
988.787	2622.199	1289.75	406.05
988.9117	2623.4745	1292.7	409.9
989.0364	2624.7493	1285.35	405
989.161	2626.0234	1293.7	414.3
989.2857	2627.2968	1288.95	409.3
989.4102	2628.5695	1292.15	409.4
989.5348	2629.8415	1297.35	417.8
989.6593	2631.1128	1299.05	416.9
989.7837	2632.3835	1299.45	420.3
989.9082	2633.6535	1293.65	413.7
990.0326	2634.9228	1287.15	405.5
990.1569	2636.1914	1293.25	411.2
990.2812	2637.4593	1292.6	412.05
990.4055	2638.7265	1288.35	406.1
990.5298	2639.9931	1288.65	407.75
990.654	2641.259	1285.9	403.15
990.7782	2642.5242	1286.8	405.35
990.9023	2643.7887	1286.3	405.05
991.0264	2645.0525	1281.6	398.75
991.1505	2646.3156	1287.05	405.7
991.2745	2647.5781	1279.5	398.05
991.3985	2648.8398	1280.45	401.35
991.5225	2650.1009	1286.25	394.95
991.6464	2651.3613	1283.2	402.65
991.7703	2652.6211	1282.45	399.95
991.8942	2653.8801	1272.75	392.25
992.018	2655.1385	1284.35	400.45
992.1418	2656.3961	1277.65	395.8
992.2655	2657.6531	1278.55	397.25
992.3892	2658.9094	1280.25	399.25
992.5129	2660.1651	1279.7	400.85
992.6366	2661.42	1276.45	392.95
992.7602	2662.6743	1281.8	400.55
992.8837	2663.9279	1281.5	398.45
993.0073	2665.1808	1282.3	401.95
993.1307	2666.433	1289.55	407.95
993.2542	2667.6846	1287.55	405.2
993.3776	2668.9354	1288.05	403.45
993.501	2670.1856	1289.65	407.65
993.6244	2671.4351	1291.05	410.35
993.7477	2672.6839	1295.1	412.7
993.8709	2673.9321	1295.8	413.85
993.9942	2675.1795	1301.95	419.1
994.1174	2676.4263	1296.55	415.75
994.2405	2677.6724	1292.7	410.35
994.3637	2678.9179	1301.45	419.95
994.4868	2680.1626	1304.9	423.6
994.6098	2681.4067	1303.6	420.7
994.7328	2682.6501	1295.65	414.45
994.8558	2683.8928	1300.6	418.9
994.9788	2685.1348	1298.8	420.05
995.1017	2686.3761	1301.5	418.5
995.2245	2687.6168	1298.45	418.55
995.3474	2688.8568	1285.6	403.95
995.4702	2690.0961	1285.25	404.15
995.5929	2691.3348	1289.95	410.05
995.7156	2692.5727	1284.6	403
995.8383	2693.81	1283.5	404.65
995.961	2695.0466	1279.8	399.05
996.0836	2696.2826	1278.65	394.5
996.2062	2697.5178	1281.5	397
996.3287	2698.7524	1279.35	396.4
996.4512	2699.9863	1283.95	400.85
996.5737	2701.2195	1280.45	400
996.6961	2702.452	1289.15	405.5
996.8185	2703.6839	1288.2	405.5
996.9408	2704.9151	1296.75	416.65
997.0631	2706.1456	1297.05	414.8
997.1854	2707.3755	1299	418.7
997.3077	2708.6046	1310.75	425.4
997.4299	2709.8331	1314.25	433.65
997.552	2711.0609	1316.05	434.05
997.6742	2712.2881	1324.3	441.45
997.7963	2713.5145	1338.8	456.1
997.9183	2714.7403	1340.6	461.1
998.0403	2715.9654	1347	464.05
998.1623	2717.1899	1369.2	472.3
998.2842	2718.4136	1371.1	489.25
998.4062	2719.6367	1377.6	495.55
998.528	2720.8591	1403.15	514.45
998.6498	2722.0809	1400.2	518.7
998.7716	2723.3019	1408.45	523.8
998.8934	2724.5223	1418	534.15
999.0151	2725.7421	1427.5	543.5
999.1368	2726.9611	1429.8	546.35
999.2584	2728.1795	1429.75	546.45
999.38	2729.3972	1409.75	528.2
999.5016	2730.6142	1413.9	520.35
999.6231	2731.8306	1391.3	507.5
999.7446	2733.0462	1386.9	503.35
999.8661	2734.2612	1369.75	483.1
999.9875	2735.4756	1356.9	473.4
1000.1089	2736.6892	1346.25	462.9
1000.2302	2737.9022	1332.05	452
1000.3515	2739.1145	1316.9	433.3
1000.4728	2740.3262	1310.5	420.4
1000.594	2741.5372	1301.3	419.65
1000.7152	2742.7475	1291.65	409.35
1000.8363	2743.9571	1285.85	404.45
1000.9575	2745.1661	1280.8	393.4
1001.0785	2746.3744	1267.6	383.5
1001.1996	2747.582	1261.15	380.7
1001.3206	2748.7889	1260.15	376.7
1001.4415	2749.9952	1242.9	360.9
1001.5625	2751.2008	1244.4	362.95
1001.6833	2752.4057	1238.55	353.6
1001.8042	2753.61	1241.2	359.8
1001.925	2754.8136	1242.2	358.4
1002.0458	2756.0165	1234.55	353.65
1002.1665	2757.2188	1238.05	355.5
1002.2872	2758.4204	1236.45	355.9
1002.4078	2759.6213	1247.05	362.3
1002.5285	2760.8215	1244.55	356.25
1002.649	2762.0211	1234.85	352.25
1002.7696	2763.22	1234.7	350
1002.8901	2764.4182	1243.75	359.5
1003.0106	2765.6158	1229.15	347.7
1003.131	2766.8127	1230.45	347.55
1003.2514	2768.009	1225.65	346
1003.3717	2769.2045	1222.25	339
1003.492	2770.3994	1225.55	342.4
1003.6123	2771.5936	1222.95	341.65
1003.7325	2772.7872	1219.7	339
1003.8527	2773.9801	1221.1	337.85
1003.9729	2775.1723	1240.75	342.7
1004.093	2776.3639	1217.7	337.1
1004.2131	2777.5548	1219.2	335.95
1004.3331	2778.745	1226.55	343.65
1004.4531	2779.9346	1224.55	343.45
1004.5731	2781.1235	1235.3	351.35
1004.693	2782.3117	1227.2	347.05
1004.8129	2783.4992	1232.2	348.45
1004.9328	2784.6861	1238.35	355.05
1005.0526	2785.8723	1250.6	367.55
1005.1723	2787.0579	1252.85	369.6
1005.2921	2788.2428	1255.55	373.9
1005.4118	2789.427	1267.65	385.6
1005.5314	2790.6106	1279.5	399.65
1005.651	2791.7935	1284	402.05
1005.7706	2792.9757	1289.5	407.8
1005.8902	2794.1573	1309.2	425.5
1006.0097	2795.3382	1314.45	433.1
1006.1291	2796.5184	1325.2	444.05
1006.2485	2797.698	1339.8	457.1
1006.3679	2798.8769	1358.8	478.1
1006.4873	2800.0551	1365.55	483
1006.6066	2801.2327	1389.75	504.7
1006.7258	2802.4096	1401.05	521.1
1006.8451	2803.5859	1411.9	530.7
1006.9642	2804.7615	1437.4	555.6
1007.0834	2805.9364	1461.55	581.25
1007.2025	2807.1106	1478.85	598
1007.3216	2808.2842	1510.8	630.05
1007.4406	2809.4572	1540.35	658.1
1007.5596	2810.6294	1577.65	693
1007.6785	2811.801	1601.2	721.95
1007.7975	2812.972	1637.3	758.85
1007.9163	2814.1423	1679.1	797.65
1008.0352	2815.3119	1720.65	839.4
1008.154	2816.4808	1750.75	872.8
1008.2727	2817.6491	1798.05	917.8
1008.3914	2818.8167	1827.8	947.2
1008.5101	2819.9837	1887.15	1002.7
1008.6288	2821.15	1915.9	1036.75
1008.7474	2822.3157	1953.4	1073.05
1008.8659	2823.4807	1988.45	1106.75
1008.9844	2824.645	2031.95	1150.85
1009.1029	2825.8086	2057.55	1177.55
1009.2214	2826.9716	2082.4	1201.4
1009.3398	2828.134	2132.1	1251.7
1009.4581	2829.2957	2153.65	1271.5
1009.5764	2830.4567	2173.75	1295.3
1009.6947	2831.617	2197.2	1315.8
1009.813	2832.7767	2196.6	1315.7
1009.9312	2833.9358	2191.9	1311.4
1010.0493	2835.0941	2184.2	1299.75
1010.1675	2836.2519	2182.2	1303
1010.2855	2837.4089	2172.55	1290.1
1010.4036	2838.5653	2173.8	1292.9
1010.5216	2839.7211	2160.15	1280.55
1010.6396	2840.8761	2174.45	1291.6
1010.7575	2842.0306	2202.4	1321.8
1010.8754	2843.1843	2224.65	1344.05
1010.9932	2844.3374	2265.5	1386.25
1011.111	2845.4899	2321.55	1439.6
1011.2288	2846.6417	2380.7	1500.25
1011.3465	2847.7928	2443.6	1564.45
1011.4642	2848.9433	2506.2	1624.9
1011.5818	2850.0931	2568.8	1687.9
1011.6995	2851.2422	2648.5	1766.95
1011.817	2852.3907	2707.8	1825.35
1011.9345	2853.5385	2761.25	1879.4
1012.052	2854.6857	2833.35	1924.85
1012.1695	2855.8323	2850.3	1969.65
1012.2869	2856.9781	2895.65	2015.75
1012.4042	2858.1233	2927.75	2046.85
1012.5216	2859.2679	2969.75	2089.35
1012.6389	2860.4118	3005.75	2123.05
1012.7561	2861.555	3048.8	2162.65
1012.8733	2862.6976	3080.9	2199.75
1012.9905	2863.8395	3096.35	2215.85
1013.1076	2864.9808	3119.25	2238.95
1013.2247	2866.1214	3127.25	2245
1013.3417	2867.2614	3133.75	2252.7
1013.4587	2868.4007	3154.55	2272.6
1013.5757	2869.5393	3151.85	2268.4
1013.6926	2870.6773	3169.5	2284.25
1013.8095	2871.8146	3183.1	2298.8
1013.9263	2872.9513	3196.45	2313.85
1014.0431	2874.0874	3193.6	2311.6
1014.1599	2875.2227	3172.3	2290.85
1014.2766	2876.3574	3178.3	2297.05
1014.3933	2877.4915	3148.2	2267.95
1014.51	2878.6249	3127.9	2246.5
1014.6266	2879.7577	3106.8	2225.15
1014.7431	2880.8898	3105.45	2212.35
1014.8596	2882.0212	3078.75	2199.05
1014.9761	2883.152	3063.05	2180.9
1015.0925	2884.2821	3058.45	2178.85
1015.2089	2885.4116	3053.85	2170.85
1015.3253	2886.5405	3049.1	2168.05
1015.4416	2887.6686	3054.15	2171.2
1015.5579	2888.7962	3059.85	2181.05
1015.6741	2889.923	3065.9	2183.95
1015.7903	2891.0493	3086.8	2204.7
1015.9065	2892.1748	3079.85	2199.65
1016.0226	2893.2997	3094.3	2211.85
1016.1387	2894.424	3113	2232.65
1016.2547	2895.5476	3137.35	2256.1
1016.3707	2896.6706	3149.75	2269.9
1016.4866	2897.7929	3174.95	2294.3
1016.6025	2898.9145	3199.35	2316.8
1016.7184	2900.0355	3221.7	2340.6
1016.8342	2901.1559	3256	2372.4
1016.95	2902.2756	3262.65	2382.75
1017.0658	2903.3946	3305.45	2423.85
1017.1815	2904.513	3338.6	2456.05
1017.2971	2905.6308	3352.9	2473.2
1017.4127	2906.7479	3365.3	2483.05
1017.5283	2907.8643	3387.55	2506.1
1017.6439	2908.9801	3406.65	2526.75
1017.7594	2910.0953	3414.95	2533.95
1017.8748	2911.2098	3411.45	2529.5
1017.9902	2912.3236	3410.2	2519.35
1018.1056	2913.4368	3400.9	2516.6
1018.2209	2914.5494	3374.9	2495
1018.3362	2915.6613	3354.15	2467.45
1018.4515	2916.7725	3338.55	2456.85
1018.5667	2917.8831	3306.7	2423.7
1018.6819	2918.9931	3292.4	2408.05
1018.797	2920.1024	3263.9	2380.2
1018.9121	2921.211	3257.7	2375.25
1019.0271	2922.319	3234.2	2353.5
1019.1421	2923.4264	3219.15	2337.75
1019.2571	2924.5331	3206.8	2326.95
1019.372	2925.6391	3193.2	2310.85
1019.4869	2926.7445	3189.8	2310.4
1019.6017	2927.8493	3178.1	2297.1
1019.7165	2928.9534	3186.25	2304.9
1019.8313	2930.0569	3174.65	2292.5
1019.946	2931.1597	3170.75	2288.3
1020.0606	2932.2619	3170.05	2288.75
1020.1753	2933.3634	3161.95	2281.75
1020.2899	2934.4643	3147.95	2259.4
1020.4044	2935.5645	3124.95	2237.05
1020.5189	2936.6641	3093.25	2206.8
1020.6334	2937.763	3058.65	2181.15
1020.7478	2938.8613	3019.35	2142.6
1020.8622	2939.959	2967.95	2081.5
1020.9765	2941.056	2901.05	2022.1
1021.0908	2942.1523	2835.35	1952.35
1021.2051	2943.248	2769.4	1886.8
1021.3193	2944.3431	2677.45	1797.25
1021.4334	2945.4375	2609.7	1728.05
1021.5476	2946.5313	2522.7	1642.65
1021.6617	2947.6244	2425.65	1545.2
1021.7757	2948.7169	2353.85	1471.25
1021.8897	2949.8087	2268.45	1388.05
1022.0037	2950.8999	2196.2	1313.25
1022.1176	2951.9904	2135.6	1254.25
1022.2315	2953.0803	2065.6	1183.8
1022.3453	2954.1696	2011.55	1131
1022.4591	2955.2582	1981.8	1101.15
1022.5728	2956.3462	1935.55	1054.8
1022.6865	2957.4335	1899.5	1016.9
1022.8002	2958.5202	1876.55	994.25
1022.9138	2959.6062	1859.55	976.8
1023.0274	2960.6916	1829.1	948.95
1023.141	2961.7764	1822.1	939
1023.2545	2962.8605	1803.2	923
1023.3679	2963.9439	1788.3	907.35
1023.4813	2965.0267	1788.4	905.1
1023.5947	2966.1089	1806.2	901.7
1023.708	2967.1905	1783.4	901.35
1023.8213	2968.2714	1773.2	892.45
1023.9346	2969.3516	1772.6	891.3
1024.0478	2970.4312	1791.25	901.4
1024.1609	2971.5102	1781.45	901.15
1024.274	2972.5885	1775.3	892.5
1024.3871	2973.6662	1780.55	893.85
1024.5002	2974.7432	1770.85	888
1024.6132	2975.8196	1771.7	889.1
1024.7261	2976.8954	1764.55	884.85
1024.839	2977.9705	1753.3	874.05
1024.9519	2979.045	1749.45	866.6
1025.0647	2980.1188	1729.3	849.85
1025.1775	2981.192	1711.8	831.2
1025.2902	2982.2645	1700.6	818.9
1025.4029	2983.3364	1675.2	795.5
1025.5156	2984.4077	1653.8	772.65
1025.6282	2985.4783	1629.6	743.35
1025.7407	2986.5483	1604.65	723.85
1025.8532	2987.6177	1569.3	688.45
1025.9657	2988.6864	1545.1	665.45
1026.0782	2989.7545	1511.6	628.8
1026.1906	2990.8219	1489.8	608.3
1026.3029	2991.8887	1465.25	583.35
1026.4152	2992.9548	1434.95	552.85
1026.5275	2994.0204	1407.9	529.7
1026.6397	2995.0852	1383.7	502.05
1026.7519	2996.1495	1366.55	485.95
1026.864	2997.2131	1351.65	469.75
1026.9761	2998.276	1333.3	452.75
1027.0882	2999.3383	1316.85	433.4
1027.2002	3000.4	1300.15	418.6
1027.3122	3001.4611	1291.8	410.85
1027.4241	3002.5215	1273.1	392.95
1027.536	3003.5812	1266.65	385.6
1027.6478	3004.6404	1263.15	384.15
1027.7596	3005.6989	1253.8	369.45
1027.8714	3006.7567	1246.05	365.9
1027.9831	3007.8139	1264.65	356.95
1028.0947	3008.8705	1236.8	356.05
1028.2064	3009.9264	1230.5	346.3
1028.3179	3010.9818	1228.65	349.15
1028.4295	3012.0364	1222.45	341.65
1028.541	3013.0905	1217.4	333.9
1028.6524	3014.1439	1226.3	344.25
1028.7638	3015.1966	1219.85	338.1
1028.8752	3016.2487	1221.95	343.6
1028.9865	3017.3002	1219.2	333.45
1029.0978	3018.3511	1220.15	338.6
1029.209	3019.4013	1215.9	336.3
1029.3202	3020.4509	1218	338
1029.4314	3021.4998	1217.7	335.25
1029.5425	3022.5481	1218.9	336.15
1029.6535	3023.5958	1222.5	341.5
1029.7645	3024.6428	1224.9	342.5
1029.8755	3025.6892	1224	343.4
1029.9864	3026.735	1221.3	339.05
1030.0973	3027.7802	1227.4	347.05
1030.2082	3028.8247	1231.2	351.5
1030.319	3029.8685	1235.2	354.6
1030.4297	3030.9118	1236	352.9
1030.5404	3031.9544	1236.45	356.75
1030.6511	3032.9963	1240.45	361.4
1030.7617	3034.0376	1247.25	365.35
1030.8723	3035.0783	1254	370.7
1030.9829	3036.1184	1256.8	376.3
1031.0934	3037.1578	1257.1	377.65
1031.2038	3038.1966	1262.9	380.45
1031.3142	3039.2348	1255.35	377.25
1031.4246	3040.2723	1267.3	377.5
1031.5349	3041.3092	1254.45	374.35
1031.6452	3042.3455	1262.85	382.5
1031.7554	3043.3811	1253.4	371.6
1031.8656	3044.4161	1255.55	376
1031.9758	3045.4505	1246.4	367.45
1032.0859	3046.4842	1243.6	361.05
1032.1959	3047.5173	1236.15	355.9
1032.3059	3048.5498	1231.2	351.8
1032.4159	3049.5816	1233.65	351.7
1032.5258	3050.6128	1224.4	342.45
1032.6357	3051.6434	1218.95	338.4
1032.7455	3052.6734	1210.2	328.25
1032.8553	3053.7027	1204	323.35
1032.9651	3054.7314	1200.45	320.8
1033.0748	3055.7594	1195.3	314.9
1033.1845	3056.7868	1189.9	309.95
1033.2941	3057.8136	1191.6	310.7
1033.4037	3058.8398	1182.9	302.8
1033.5132	3059.8653	1176.45	295.5
1033.6227	3060.8902	1173.05	293.45
1033.7321	3061.9145	1174.75	294.75
1033.8415	3062.9381	1167.55	286.45
1033.9509	3063.9612	1175.05	279.05
1034.0602	3064.9835	1154.9	274.6
1034.1694	3066.0053	1154.6	271.3
1034.2787	3067.0264	1144.8	264.05
1034.3878	3068.0469	1142.15	260.15
1034.497	3069.0668	1135.85	251.45
1034.6061	3070.086	1130.75	250.95
1034.7151	3071.1046	1122.9	239
1034.8241	3072.1226	1114.55	232.45
1034.9331	3073.1399	1107.95	227.4
1035.042	3074.1567	1096.95	215.85
1035.1508	3075.1727	1096.6	215.05
1035.2597	3076.1882	1085.15	206
1035.3684	3077.203	1082	200.3
1035.4772	3078.2173	1077.25	197.65
1035.5859	3079.2308	1069.55	185.6
1035.6945	3080.2438	1061.15	178.2
1035.8031	3081.2561	1051.1	169.2
1035.9117	3082.2678	1046.55	165.9
1036.0202	3083.2789	1041.95	159.8
1036.1286	3084.2893	1036.05	156.2
1036.2371	3085.2991	1032.4	151.2
1036.3454	3086.3083	1035.1	150.15
1036.4538	3087.3169	1027.75	145.45
1036.562	3088.3248	1022.4	138.8
1036.6703	3089.3321	1022.1	142.25
1036.7785	3090.3388	1013.85	136.2
1036.8866	3091.3449	1013.75	132.9
1036.9948	3092.3503	1009.05	126.9
1037.1028	3093.3551	1002.8	124.5
1037.2108	3094.3593	1004.2	125.55
1037.3188	3095.3629	999.25	119.9
1037.4267	3096.3658	1001	118.9
1037.5346	3097.3681	993.1	114.35
1037.6425	3098.3698	994.8	112.3
1037.7503	3099.3708	997.3	109.2
1037.858	3100.3713	991.85	112.5
1037.9657	3101.3711	990.15	107.9
1038.0734	3102.3702	1129.5	107.4
1038.181	3103.3688	989.75	107.5
1038.2886	3104.3667	982.3	102.9
1038.3961	3105.364	981.9	100.95
1038.5036	3106.3607	985.6	104.8
1038.611	3107.3568	983.2	102.45
1038.7184	3108.3522	978.2	99.1
1038.8257	3109.347	978.1	94.85
1038.933	3110.3412	980.45	96.75
1039.0403	3111.3348	974.8	94
1039.1475	3112.3277	978.3	98.8
1039.2547	3113.32	972	91.65
1039.3618	3114.3117	976.05	94.1
1039.4689	3115.3028	973.8	95.1
1039.5759	3116.2932	974.35	91.35
1039.6829	3117.2831	977.5	93.15
1039.7898	3118.2723	973.05	93.75
1039.8967	3119.2608	969.5	90.1
1040.0035	3120.2488	968.8	87.4
1040.1103	3121.2361	968.4	88.75
1040.2171	3122.2229	967.5	88.05
1040.3238	3123.209	966.55	84.3
1040.4305	3124.1944	965.25	87
1040.5371	3125.1793	964.9	84.45
1040.6437	3126.1635	964.85	87.8
1040.7502	3127.1471	963.15	83.8
1040.8567	3128.1301	959.3	79.5
1040.9631	3129.1125	960.7	78.15
1041.0695	3130.0942	962.05	81
1041.1759	3131.0753	967.7	78.8
1041.2822	3132.0558	962	79.75
1041.3884	3133.0357	957.85	77.2
1041.4946	3134.015	957.25	75.45
1041.6008	3134.9936	955.75	73.5
1041.7069	3135.9716	975.45	73.5
1041.813	3136.949	954.85	72.4
1041.919	3137.9258	973.2	76.1
1042.025	3138.902	959.55	72.75
1042.1309	3139.8775	953.2	73.45
1042.2368	3140.8524	949.3	67.45
1042.3427	3141.8267	954.3	73.2
1042.4485	3142.8004	950.9	70.35
1042.5542	3143.7735	954.85	67.55
1042.6599	3144.7459	952.5	70.05
1042.7656	3145.7178	950.25	67.1
1042.8712	3146.689	946.8	67.6
1042.9768	3147.6596	951.4	67.3
1043.0823	3148.6295	945.55	66.45
1043.1878	3149.5989	945.75	66.2
1043.2932	3150.5676	943.95	64.8
1043.3986	3151.5357	945.25	65.3
1043.5039	3152.5032	943.05	62.35
1043.6092	3153.4701	943.25	63.65
1043.7145	3154.4364	944.65	61.35
1043.8197	3155.402	942.45	62.9
1043.9248	3156.367	941.5	58.3
1044.03	3157.3315	978.5	63.1
1044.135	3158.2952	942.05	60.95
1044.24	3159.2584	941.4	60.8
1044.345	3160.221	936.1	55.7
1044.4499	3161.1829	940.1	57.35
1044.5548	3162.1442	935.2	54.65
1044.6596	3163.105	938.85	58.4
1044.7644	3164.065	938.8	57.55
1044.8692	3165.0245	941.9	59.8
1044.9739	3165.9834	936.6	57.75
1045.0785	3166.9416	934.85	54.25
1045.1831	3167.8993	935.9	55.9
1045.2877	3168.8563	933.65	52.15
1045.3922	3169.8127	935.2	54.45
1045.4966	3170.7684	935.6	53.7
1045.6011	3171.7236	932.25	49.3
1045.7054	3172.6782	934.25	53.9
1045.8098	3173.6321	932.75	51.6
1045.914	3174.5854	936.95	52.95
1046.0183	3175.5381	932.1	50.05
1046.1224	3176.4902	932.35	54.45
1046.2266	3177.4417	931.15	52.75
1046.3307	3178.3926	928.8	47.2
1046.4347	3179.3428	931.6	52.9
1046.5387	3180.2924	931.1	51.45
1046.6427	3181.2415	931.45	50.85
1046.7466	3182.1899	932.45	50.8
1046.8504	3183.1377	930.25	48.9
1046.9542	3184.0848	930.55	46.65
1047.058	3185.0314	928.45	47.75
1047.1617	3185.9773	929.35	48
1047.2654	3186.9227	928.8	46.7
1047.369	3187.8674	927	45.25
1047.4726	3188.8115	932.8	48.2
1047.5761	3189.755	924.35	44.55
1047.6796	3190.6979	927.9	46.55
1047.783	3191.6402	927.3	48.4
1047.8864	3192.5818	927.05	48.05
1047.9898	3193.5229	956.4	47.9
1048.0931	3194.4633	928.15	47.2
1048.1963	3195.4031	928.95	48.9
1048.2995	3196.3423	925.85	46.2
1048.4027	3197.2809	924	43.1
1048.5058	3198.2189	927.1	46.6
1048.6089	3199.1563	941	41.5
1048.7119	3200.0931	922.5	42.45
1048.8148	3201.0292	922.1	41.95
1048.9178	3201.9648	922.35	42.1
1049.0206	3202.8997	927.8	47.7
1049.1235	3203.834	923.8	44.9
1049.2262	3204.7677	924.8	44.4
1049.329	3205.7008	924.45	43.2
1049.4317	3206.6333	921.15	42.75
1049.5343	3207.5652	925.55	43.55
1049.6369	3208.4964	922.55	41.4
1049.7394	3209.4271	921.35	43.55
1049.8419	3210.3571	923.1	42.1
1049.9444	3211.2865	920.8	39.85
1050.0468	3212.2154	924.65	45.2
1050.1491	3213.1436	926.3	43.8
1050.2514	3214.0712	927.3	41.5
1050.3537	3214.9982	920.55	39.2
1050.4559	3215.9246	922.45	41.7
1050.5581	3216.8503	918.05	37.4
1050.6602	3217.7755	920.6	39.9
1050.7623	3218.7001	920.05	38.9
1050.8643	3219.624	922.85	43.8
1050.9663	3220.5473	920.8	40.3
1051.0682	3221.4701	919.15	36.25
1051.1701	3222.3922	920.2	39.05
1051.2719	3223.3137	919.7	37.3
1051.3737	3224.2346	918.45	37.45
1051.4754	3225.1549	917.45	36.5
1051.5771	3226.0746	916.85	37.95
1051.6788	3226.9937	917.95	37.85
1051.7804	3227.9121	917.3	36.9
1051.8819	3228.83	917.25	38.3
1051.9834	3229.7473	917.75	37.7
1052.0849	3230.6639	917.9	37.85
1052.1863	3231.5799	915.8	38.7
1052.2876	3232.4954	920.75	40.55
1052.3889	3233.4102	915.55	35.7
1052.4902	3234.3244	917.45	34.25
1052.5914	3235.238	918.1	39.05
1052.6926	3236.151	943.6	37.6
1052.7937	3237.0634	915.65	39.25
1052.8948	3237.9752	915.65	35.3
1052.9958	3238.8864	918.1	38.85
1053.0968	3239.797	912.6	31.6
1053.1977	3240.7069	915.35	35.5
1053.2986	3241.6163	919.3	35.65
1053.3994	3242.5251	914.95	35.95
1053.5002	3243.4332	912.1	34.1
1053.6009	3244.3408	912.9	30.1
1053.7016	3245.2477	914.2	36.35
1053.8022	3246.154	914.4	33.15
1053.9028	3247.0598	915.25	37.15
1054.0034	3247.9649	911.55	31.05
1054.1039	3248.8694	911.65	30.5
1054.2043	3249.7733	909.45	29.2
1054.3047	3250.6766	911.85	31.1
1054.4051	3251.5793	914	32.5
1054.5054	3252.4814	911.75	31.25
1054.6056	3253.3829	909.35	28
1054.7058	3254.2838	908.45	29.2
1054.806	3255.1841	909.35	28.3
1054.9061	3256.0838	911.9	31.6
1055.0061	3256.9829	907.2	27.75
1055.1062	3257.8814	911.3	27.3
1055.2061	3258.7792	909.35	28.8
1055.306	3259.6765	909.5	27.25
1055.4059	3260.5731	904.45	26.05
1055.5057	3261.4692	908.25	26.55
1055.6055	3262.3647	908.05	27.4
1055.7052	3263.2595	907.05	27.35
1055.8049	3264.1538	904.7	27.3
1055.9045	3265.0474	904.95	24.35
1056.0041	3265.9404	904.85	25.45
1056.1036	3266.8329	904.85	23.15
1056.2031	3267.7247	913.4	24.4
1056.3025	3268.616	904	24.3
1056.4019	3269.5066	900.5	21.85
1056.5013	3270.3966	904.2	22.45
1056.6005	3271.286	901.35	21.9
