Software Version:	3.9.2.0
Unit SN:	10000200
Spectrometer SN:	6960
Date:	3/14/2024 12:49:28 PM
Data Line Index:	25
Spectral Points:	2048
Integration time (ms):	125
Averages:	20
Delay (ms):	30000
Sequence Number:	1
Processing:	dark subtract
Laser Power (mW):	305
Laser Current (mA):	823
Laser Diode Temp (C):	25
Laser Case Temp (C):	27.6
System Temp (C):	27.6
Spectrometer Temp (C):	25.4
CCD Temp (C):	0.012
Secondary Temp (C):	20.01
Heatsink Temp (C):	23.482
CCDPCB Temp (C):	37.052
SecondaryPCB Temp (C):	34.684

Wavelength	RamanShift	Raw Counts	Dark Subtracted
787.061	30.1047	418.15	6.35
787.2016	32.3739	416.35	6.8
787.3422	34.6426	419.2	8.65
787.4828	36.9109	419	6.25
787.6235	39.1787	424.75	8.5
787.7642	41.4461	429.5	8.5
787.9049	43.7131	433.8	9.3
788.0456	45.9796	437.85	9.4
788.1863	48.2456	441.7	9
788.3271	50.5112	446.7	10.3
788.4679	52.7764	449.45	11.6
788.6087	55.0411	451.9	9.95
788.7496	57.3054	458.75	14.2
788.8904	59.5692	460.4	12.65
789.0313	61.8326	468.05	16.85
789.1722	64.0955	471.85	14.8
789.3132	66.3579	480.15	18.05
789.4541	68.6199	483.2	15.6
789.5951	70.8815	492.5	25.15
789.7361	73.1426	509.1	37.45
789.8771	75.4032	535.55	59.45
790.0181	77.6634	597.2	117.95
790.1592	79.9231	733.25	246.75
790.3003	82.1824	1027	537.6
790.4414	84.4412	1523.65	1026.9
790.5825	86.6995	2175.15	1666.3
790.7237	88.9574	2801	2282.05
790.8648	91.2148	3257.9	2734.2
791.006	93.4717	3497.35	2969.5
791.1472	95.7282	3547.7	3016.85
791.2885	97.9842	3570.95	3036.1
791.4297	100.2398	3533.75	2996.5
791.571	102.4949	3510.05	2968.3
791.7123	104.7495	3503.25	2958.65
791.8536	107.0036	3478.5	2934.25
791.9949	109.2573	3445.4	2900.8
792.1363	111.5105	3375.75	2830.35
792.2777	113.7632	3323.05	2772.65
792.4191	116.0154	3267.05	2706.65
792.5605	118.2672	3230.45	2678.45
792.7019	120.5185	3148.85	2594.25
792.8434	122.7693	3105.3	2549.05
792.9849	125.0197	3053.3	2495.85
793.1264	127.2696	3002.1	2440.1
793.2679	129.519	2989.95	2427.25
793.4094	131.7679	2971.05	2405.7
793.551	134.0163	2959.1	2390.4
793.6926	136.2642	2957.95	2386.45
793.8342	138.5117	2958.95	2381.5
793.9758	140.7587	2931.45	2351.7
794.1175	143.0052	2902.75	2320.2
794.2591	145.2512	2882.6	2298.25
794.4008	147.4967	2864.4	2280.2
794.5425	149.7417	2823.25	2236.75
794.6842	151.9863	2794.2	2206.05
794.826	154.2304	2794.25	2204.05
794.9677	156.4739	2783.55	2188.2
795.1095	158.717	2791.5	2197.25
795.2513	160.9596	2810	2208.45
795.3931	163.2017	2816.8	2213.05
795.535	165.4433	2822.45	2216.7
795.6768	167.6844	2813.05	2203.9
795.8187	169.925	2794.4	2184.6
795.9606	172.1651	2758.1	2144.2
796.1025	174.4047	2729.95	2113.65
796.2445	176.6439	2719.45	2100.75
796.3864	178.8825	2696.1	2072.25
796.5284	181.1206	2688.1	2061.65
796.6704	183.3582	2674.9	2044.25
796.8124	185.5954	2665.35	2034
796.9544	187.832	2671.95	2039.4
797.0965	190.0681	2668.15	2031.25
797.2386	192.3037	2671.2	2031
797.3806	194.5388	2673.45	2031.6
797.5228	196.7734	2676.05	2032.7
797.6649	199.0075	2678.1	2028.35
797.807	201.2411	2719	2064.95
797.9492	203.4742	2715.55	2061
798.0914	205.7068	2728.9	2077.65
798.2336	207.9389	2737.7	2083.85
798.3758	210.1704	2745.35	2089.2
798.518	212.4015	2739	2076.55
798.6603	214.632	2749.35	2086.05
798.8025	216.862	2740.9	2083.45
798.9448	219.0915	2740.1	2090.45
799.0871	221.3205	2742.1	2095.3
799.2294	223.549	2721.65	2081.1
799.3718	225.777	2728.25	2087.95
799.5141	228.0044	2725.75	2080.1
799.6565	230.2314	2728.5	2088
799.7989	232.4578	2704.8	2062.25
799.9413	234.6837	2694.3	2040.95
800.0837	236.909	2692.9	2043.65
800.2262	239.1339	2709.25	2036.3
800.3687	241.3582	2692.15	2033.25
800.5111	243.582	2697.95	2016.55
800.6536	245.8053	2699.4	2022.55
800.7961	248.0281	2692.85	2017.9
800.9387	250.2503	2700.25	2022.6
801.0812	252.472	2695.55	2010.95
801.2238	254.6932	2702.6	2015.4
801.3664	256.9139	2707.3	2018.05
801.509	259.134	2716.8	2022.6
801.6516	261.3536	2722.95	2034.8
801.7942	263.5727	2743.35	2054.15
801.9369	265.7912	2768.2	2077.85
802.0795	268.0092	2788.05	2097.5
802.2222	270.2267	2828.5	2135.5
802.3649	272.4436	2859.55	2163.75
802.5076	274.6601	2868.55	2163.2
802.6504	276.8759	2879.5	2181.95
802.7931	279.0913	2880.35	2180.4
802.9359	281.3061	2894.55	2195.55
803.0787	283.5204	2885	2181.6
803.2215	285.7341	2906.7	2199.9
803.3643	287.9473	2914.5	2205.4
803.5071	290.16	2935.35	2222.05
803.6499	292.3721	2897.9	2188.5
803.7928	294.5837	2863.8	2155.3
803.9357	296.7947	2841.4	2132.3
804.0786	299.0052	2838.05	2127.2
804.2215	301.2152	2826.05	2112.4
804.3644	303.4246	2810.85	2100.2
804.5074	305.6334	2790.65	2079.3
804.6503	307.8418	2782.1	2067.3
804.7933	310.0495	2773.25	2056.4
804.9363	312.2568	2737.15	2025.05
805.0793	314.4635	2708.1	1991.65
805.2223	316.6696	2678.15	1959.3
805.3653	318.8752	2653.2	1926.85
805.5084	321.0802	2630.7	1911
805.6514	323.2847	2614.7	1892.25
805.7945	325.4887	2617.05	1898.05
805.9376	327.692	2629.15	1909.4
806.0807	329.8949	2658.45	1933.85
806.2238	332.0972	2667.55	1941.6
806.367	334.2989	2680.4	1950.7
806.5101	336.5001	2675.1	1947.1
806.6533	338.7007	2668.25	1940.05
806.7965	340.9008	2643.75	1913.5
806.9397	343.1003	2608.95	1874.15
807.0829	345.2992	2561.8	1827.4
807.2261	347.4976	2542.45	1805.5
807.3693	349.6955	2523.35	1782.3
807.5126	351.8927	2507.65	1766.45
807.6559	354.0895	2499.55	1748.15
807.7991	356.2856	2485.8	1743.6
807.9424	358.4812	2469.55	1727.5
808.0857	360.6763	2470.6	1726.8
808.2291	362.8707	2463.2	1719.95
808.3724	365.0646	2463.5	1715.4
808.5158	367.258	2468.75	1719.85
808.6591	369.4508	2473.2	1718.05
808.8025	371.643	2493.35	1740.55
808.9459	373.8346	2508.3	1753.85
809.0893	376.0257	2524.95	1766.55
809.2327	378.2162	2541.1	1783.65
809.3762	380.4062	2543.45	1782.25
809.5196	382.5956	2525.75	1764.15
809.6631	384.7844	2505.7	1744.45
809.8066	386.9726	2466.8	1704.4
809.9501	389.1603	2448.5	1684.35
810.0936	391.3474	2462.45	1667.55
810.2371	393.5339	2438.6	1675.1
810.3806	395.7199	2420.95	1660.4
810.5241	397.9052	2433.75	1677.6
810.6677	400.09	2441.35	1684.45
810.8113	402.2743	2468.05	1709.95
810.9548	404.4579	2480.85	1723.6
811.0984	406.641	2517.9	1759.65
811.2421	408.8235	2546.2	1787.1
811.3857	411.0054	2579.05	1819.5
811.5293	413.1868	2638.6	1877.1
811.673	415.3675	2709.2	1945.8
811.8166	417.5477	2727.95	1965.4
811.9603	419.7273	2675.05	1910.2
812.104	421.9064	2578.1	1800.75
812.2477	424.0848	2523.35	1751.95
812.3914	426.2627	2472	1697.7
812.5351	428.4399	2431.5	1658.05
812.6788	430.6166	2402.1	1624.85
812.8226	432.7928	2381.75	1603.7
812.9663	434.9683	2336.8	1557.9
813.1101	437.1432	2315.45	1535.2
813.2539	439.3176	2299.45	1517.2
813.3977	441.4914	2286.05	1503.6
813.5415	443.6645	2309.8	1524.95
813.6853	445.8371	2290.15	1506.35
813.8291	448.0091	2298.15	1514.15
813.973	450.1806	2285.55	1500.95
814.1168	452.3514	2268.95	1482.9
814.2607	454.5216	2280.15	1484.55
814.4046	456.6913	2264.65	1475.15
814.5485	458.8603	2258.6	1470.85
814.6924	461.0288	2265.25	1477.55
814.8363	463.1967	2263.8	1476.05
814.9802	465.3639	2258.5	1469.85
815.1241	467.5306	2251.1	1461.65
815.2681	469.6967	2254.3	1463.95
815.412	471.8622	2242.9	1451.35
815.556	474.0271	2229.85	1436.4
815.7	476.1914	2233.85	1439.35
815.844	478.3551	2225.35	1433.2
815.988	480.5182	2220.35	1425.6
816.132	482.6807	2231.3	1434.6
816.276	484.8426	2240.45	1445.3
816.4201	487.0039	2262.2	1465.5
816.5641	489.1647	2282.25	1483.65
816.7082	491.3248	2317.05	1522.7
816.8522	493.4843	2318.25	1523.25
816.9963	495.6432	2317.7	1519.65
817.1404	497.8015	2292.8	1491.45
817.2845	499.9592	2266.7	1468.55
817.4286	502.1163	2238.2	1439.55
817.5727	504.2728	2217.7	1414.45
817.7168	506.4287	2202.25	1402.1
817.861	508.5839	2179.35	1376.6
818.0051	510.7386	2176.75	1375
818.1493	512.8927	2192.05	1382.1
818.2935	515.0461	2180.4	1378.35
818.4377	517.199	2182.85	1382.35
818.5818	519.3512	2214.05	1408.9
818.726	521.5029	2255.85	1447.35
818.8703	523.6539	2285.8	1480.3
819.0145	525.8043	2290.6	1487.1
819.1587	527.9541	2257.65	1449.85
819.303	530.1033	2203.3	1396.35
819.4472	532.2519	2163.75	1356.5
819.5915	534.3999	2161.15	1351
819.7357	536.5472	2164.55	1356.2
819.88	538.694	2162.65	1353.85
820.0243	540.8401	2160.8	1349.9
820.1686	542.9856	2168.5	1356.6
820.3129	545.1305	2182.05	1368.35
820.4572	547.2748	2194.45	1383.1
820.6016	549.4185	2202.4	1388.35
820.7459	551.5615	2183.6	1371.4
820.8902	553.704	2206.5	1394.35
821.0346	555.8458	2213.9	1401.45
821.1789	557.987	2216.45	1403.85
821.3233	560.1276	2232.5	1418.95
821.4677	562.2675	2275.65	1461.9
821.6121	564.4069	2307.1	1492.3
821.7565	566.5456	2324.85	1509.75
821.9009	568.6837	2310	1493.85
822.0453	570.8212	2277.5	1461.3
822.1897	572.958	2229.8	1415
822.3342	575.0942	2204.1	1389.1
822.4786	577.2299	2187.85	1371.35
822.6231	579.3648	2163.15	1344.9
822.7675	581.4992	2140.25	1321.95
822.912	583.6329	2135.95	1317.95
823.0565	585.766	2146.75	1329.6
823.201	587.8985	2177	1361.15
823.3454	590.0304	2196.65	1365.9
823.4899	592.1616	2215.6	1392.9
823.6345	594.2922	2215.4	1393.55
823.779	596.4222	2188.4	1368
823.9235	598.5515	2152	1328.8
824.068	600.6802	2112.75	1291.8
824.2126	602.8083	2096.8	1273.9
824.3571	604.9358	2086.7	1260.75
824.5017	607.0626	2079.2	1254.95
824.6462	609.1888	2090.4	1266.7
824.7908	611.3144	2107.55	1282.55
824.9354	613.4393	2104.4	1280.8
825.08	615.5636	2141.55	1318.2
825.2246	617.6873	2172.85	1345.4
825.3692	619.8103	2190.85	1364.55
825.5138	621.9327	2187.85	1357.5
825.6584	624.0544	2157.35	1333.5
825.803	626.1756	2140.85	1315.4
825.9477	628.2961	2105.25	1276.35
826.0923	630.4159	2086.4	1258.65
826.237	632.5351	2085.3	1259.85
826.3816	634.6537	2070.55	1242.95
826.5263	636.7716	2072.3	1240.4
826.6709	638.8889	2067.6	1236.8
826.8156	641.0056	2069.05	1240.75
826.9603	643.1216	2068.55	1239.3
827.105	645.237	2080.4	1243.4
827.2497	647.3518	2072.25	1238.35
827.3944	649.4659	2052.25	1221.55
827.5391	651.5793	2045.45	1211.3
827.6838	653.6922	2015.55	1184
827.8285	655.8043	2013.5	1182.05
827.9733	657.9159	2004.8	1171.7
828.118	660.0268	2005.05	1167.2
828.2627	662.137	2000.1	1165.05
828.4075	664.2466	2011.15	1172.85
828.5522	666.3556	2000	1165.75
828.697	668.4639	1990.75	1150.65
828.8418	670.5716	1986	1152.75
828.9865	672.6786	1992.6	1156.8
829.1313	674.785	1982.35	1146.2
829.2761	676.8907	1980.35	1143
829.4209	678.9958	1978.85	1145.55
829.5657	681.1002	1974.3	1136.15
829.7105	683.204	1980.4	1138.3
829.8553	685.3072	1976	1135.35
830.0001	687.4097	1976.85	1139.6
830.1449	689.5115	1975.6	1135.25
830.2898	691.6127	1972.7	1132.95
830.4346	693.7132	1971.5	1130.3
830.5794	695.8131	1975.7	1120.25
830.7243	697.9123	1975.55	1131.8
830.8691	700.0109	1965.25	1122.95
831.014	702.1089	1973.3	1135.3
831.1588	704.2061	1983.75	1142.7
831.3037	706.3028	1995.2	1152
831.4486	708.3987	2003.45	1161.05
831.5935	710.4941	2008.95	1165
831.7383	712.5887	2021.75	1177.3
831.8832	714.6827	2011.55	1165.7
832.0281	716.7761	2011.05	1169
832.173	718.8688	1994	1149.95
832.3179	720.9608	2010.45	1165.3
832.4628	723.0522	2026.4	1179.25
832.6077	725.1429	2018.95	1174.3
832.7527	727.233	2033.9	1188.7
832.8976	729.3224	2084.05	1238.1
833.0425	731.4112	2109.65	1262.5
833.1874	733.4993	2124.3	1275.45
833.3324	735.5867	2094.75	1246.45
833.4773	737.6735	2053.75	1205.5
833.6222	739.7596	2039.4	1189.95
833.7672	741.845	2014.65	1166.75
833.9122	743.9298	2007.55	1158.5
834.0571	746.014	2013.95	1167.05
834.2021	748.0974	2033.6	1184.35
834.347	750.1802	2039.35	1189.4
834.492	752.2624	2023.2	1176.35
834.637	754.3439	2009	1159.1
834.782	756.4247	1996	1137.8
834.9269	758.5048	1984.9	1136.3
835.0719	760.5843	1993.1	1143.4
835.2169	762.6631	2012.6	1163.05
835.3619	764.7413	2032.9	1184.15
835.5069	766.8188	2078.65	1227.4
835.6519	768.8956	2121.45	1268.6
835.7969	770.9718	2156.45	1304.9
835.9419	773.0473	2146.25	1295.9
836.0869	775.1221	2133.9	1283.9
836.232	777.1962	2119.35	1267.25
836.377	779.2697	2141.9	1289.1
836.522	781.3426	2213.9	1352.65
836.667	783.4147	2227.35	1373.95
836.8121	785.4862	2236	1384.05
836.9571	787.557	2176.8	1323.95
837.1021	789.6271	2106.15	1253.6
837.2472	791.6966	2033.5	1179.45
837.3922	793.7654	1967.45	1114.2
837.5373	795.8335	1942.9	1089
837.6823	797.901	1918.1	1066.55
837.8274	799.9678	1913.9	1058.2
837.9724	802.0339	1913.8	1061.15
838.1175	804.0993	1926.35	1062
838.2626	806.1641	1917.15	1061.85
838.4076	808.2282	1903.1	1048.35
838.5527	810.2916	1895.8	1039.05
838.6978	812.3544	1885.35	1031.85
838.8428	814.4164	1868.4	1015.25
838.9879	816.4778	1871.35	1015.2
839.133	818.5385	1881.45	1027.55
839.2781	820.5986	1898.6	1044.55
839.4232	822.658	1929.7	1073.6
839.5682	824.7166	1962.3	1109.25
839.7133	826.7747	2010.4	1155.6
839.8584	828.832	2063.35	1207.9
840.0035	830.8886	2103.65	1245.6
840.1486	832.9446	2107.65	1251.2
840.2937	834.9999	2090.2	1235.75
840.4388	837.0545	2046.65	1187.6
840.5839	839.1085	1995.85	1139.75
840.729	841.1618	1949.35	1087.8
840.8741	843.2143	1922.4	1065.75
841.0192	845.2662	1880.55	1023.3
841.1643	847.3175	1889.3	1031.7
841.3095	849.368	1887.3	1028.45
841.4546	851.4179	1865.4	1009.75
841.5997	853.467	1869.9	1011.6
841.7448	855.5155	1874.5	1015.6
841.8899	857.5633	1882.75	1024.2
842.0351	859.6105	1867.95	1010.85
842.1802	861.6569	1856.35	997.85
842.3253	863.7027	1853	993.05
842.4704	865.7478	1840.75	980.05
842.6156	867.7922	1835.8	977.3
842.7607	869.8359	1830.95	969.8
842.9058	871.8789	1831	970.1
843.0509	873.9212	1854.15	963
843.1961	875.9629	1830.55	971.3
843.3412	878.0039	1837.6	976.4
843.4863	880.0441	1838.95	980
843.6315	882.0837	1850.7	991.2
843.7766	884.1226	1868.9	1005.9
843.9218	886.1609	1884.15	1024
844.0669	888.1984	1918.65	1059.8
844.212	890.2352	1929.15	1069.55
844.3572	892.2714	1950.85	1086.05
844.5023	894.3069	1932.7	1070.05
844.6475	896.3416	1893.1	1031.95
844.7926	898.3757	1875	1012.4
844.9377	900.4091	1861.05	997.4
845.0829	902.4418	1861.15	994.5
845.228	904.4739	1865.8	1001.45
845.3732	906.5052	1878.9	1016.8
845.5183	908.5358	1875	1012.95
845.6635	910.5658	1860.5	996.2
845.8086	912.595	1832.5	970.9
845.9538	914.6236	1810.3	946.45
846.0989	916.6515	1806.25	944.65
846.2441	918.6786	1786.25	922.6
846.3892	920.7051	1785.7	921.35
846.5344	922.7309	1783.2	921
846.6795	924.756	1772.45	909.15
846.8246	926.7804	1785.05	921.15
846.9698	928.8041	1773.3	906.3
847.1149	930.8272	1794	930.3
847.2601	932.8495	1801.6	935.45
847.4052	934.8711	1795.35	928.2
847.5504	936.892	1796.8	932.25
847.6955	938.9123	1811.1	945.35
847.8407	940.9318	1821.75	957.75
847.9858	942.9506	1830.25	962.85
848.131	944.9688	1820.4	954.4
848.2761	946.9862	1806.9	939.6
848.4213	949.003	1787.45	920.9
848.5664	951.019	1768.9	903.15
848.7115	953.0344	1760.4	895.6
848.8567	955.0491	1747.3	880.2
849.0018	957.063	1749.45	883.15
849.147	959.0763	1746.05	880.25
849.2921	961.0888	1744.6	876.45
849.4373	963.1007	1749.9	881.9
849.5824	965.1119	1736	869
849.7275	967.1223	1730.05	862.15
849.8727	969.1321	1723.85	859.2
850.0178	971.1412	1724.2	857.1
850.1629	973.1495	1709	841.1
850.3081	975.1572	1761	853.15
850.4532	977.1641	1718.95	852.9
850.5983	979.1704	1714.4	846.45
850.7435	981.1759	1717.65	845.55
850.8886	983.1808	1712.35	843.1
851.0337	985.1849	1710.8	832.45
851.1788	987.1884	1704.5	834
851.324	989.1911	1701.05	829.3
851.4691	991.1932	1708.65	838.85
851.6142	993.1945	1706.75	838.15
851.7593	995.1951	1697.75	829.4
851.9045	997.1951	1701.7	826.95
852.0496	999.1943	1686.35	818
852.1947	1001.1928	1686.55	815.7
852.3398	1003.1906	1690.85	823.85
852.4849	1005.1877	1723.85	852
852.63	1007.1841	1719.95	850.2
852.7751	1009.1798	1726.5	857.9
852.9202	1011.1748	1713.85	846.25
853.0653	1013.1691	1699.15	831.15
853.2104	1015.1627	1678.95	808
853.3555	1017.1556	1660.7	791.8
853.5006	1019.1477	1654.65	783.2
853.6457	1021.1392	1637.05	767.8
853.7908	1023.1299	1634.65	763.25
853.9359	1025.12	1628.35	754.35
854.081	1027.1093	1632.4	761.8
854.2261	1029.0979	1644.65	775.3
854.3712	1031.0859	1648.15	777.15
854.5163	1033.0731	1666.35	795.2
854.6613	1035.0596	1651.75	784.35
854.8064	1037.0454	1651	778.7
854.9515	1039.0304	1643.35	771.2
855.0965	1041.0148	1627.8	756.15
855.2416	1042.9985	1609.75	737.65
855.3867	1044.9814	1607.55	736.55
855.5317	1046.9636	1611.25	736.9
855.6768	1048.9452	1608.95	736.85
855.8219	1050.926	1613.15	742.3
855.9669	1052.9061	1620.85	751.5
856.112	1054.8855	1625.6	753.65
856.257	1056.8642	1618.9	748.15
856.4021	1058.8421	1621.4	745.55
856.5471	1060.8194	1613.3	741.7
856.6921	1062.7959	1606.25	734.55
856.8372	1064.7717	1607.05	734.3
856.9822	1066.7469	1608.2	735.25
857.1272	1068.7213	1611.65	736.15
857.2723	1070.695	1615.45	743.1
857.4173	1072.6679	1633.35	761.05
857.5623	1074.6402	1628.8	756.4
857.7073	1076.6117	1642.25	763.95
857.8523	1078.5826	1620.1	747
857.9973	1080.5527	1611.4	737.4
858.1423	1082.5221	1580.65	706.5
858.2873	1084.4908	1566.7	693.95
858.4323	1086.4587	1552.9	679.75
858.5773	1088.426	1559.55	684.25
858.7223	1090.3925	1554.15	676
858.8673	1092.3584	1545.05	672.15
859.0123	1094.3235	1556.15	682.45
859.1573	1096.2879	1565.8	691
859.3022	1098.2515	1570.75	696.95
859.4472	1100.2145	1589.45	715.1
859.5922	1102.1767	1607.1	731.1
859.7371	1104.1382	1632.1	758.7
859.8821	1106.099	1659.4	783.15
860.027	1108.0591	1686.45	813
860.172	1110.0185	1703.2	828.55
860.3169	1111.9771	1718.4	844.55
860.4619	1113.9351	1738.2	863.3
860.6068	1115.8923	1779.2	905.7
860.7517	1117.8488	1788.85	910.6
860.8967	1119.8045	1766.05	889.65
861.0416	1121.7596	1709	832.65
861.1865	1123.7139	1648.25	773.3
861.3314	1125.6675	1617.3	742.75
861.4763	1127.6204	1614.05	739.2
861.6212	1129.5726	1618.15	740.95
861.7661	1131.524	1632.05	756.95
861.911	1133.4748	1605.95	730.85
862.0559	1135.4248	1578.6	704.5
862.2008	1137.3741	1545.2	670.7
862.3457	1139.3226	1529.55	653.15
862.4905	1141.2705	1517.55	643.6
862.6354	1143.2176	1528.25	647.4
862.7803	1145.164	1540.5	662.9
862.9251	1147.1097	1529.7	653.75
863.07	1149.0546	1522.25	644.4
863.2148	1150.9989	1507.2	630.25
863.3597	1152.9424	1492.2	614.5
863.5045	1154.8852	1481.25	606.15
863.6493	1156.8272	1479.35	605.15
863.7942	1158.7686	1483.25	597
863.939	1160.7092	1478.05	602.6
864.0838	1162.6491	1483.1	603.7
864.2286	1164.5883	1480.7	605.05
864.3734	1166.5267	1486.6	610.1
864.5182	1168.4644	1502	625.7
864.663	1170.4014	1521.05	641.7
864.8078	1172.3377	1537.4	664
864.9526	1174.2732	1561.9	685.35
865.0974	1176.2081	1609.55	735.05
865.2421	1178.1421	1676.45	796.5
865.3869	1180.0755	1737.1	863.05
865.5317	1182.0082	1770.3	893.25
865.6764	1183.9401	1757.75	879.5
865.8212	1185.8713	1701.9	826.6
865.9659	1187.8017	1629	750.6
866.1106	1189.7315	1570.3	695.7
866.2554	1191.6605	1554.05	651.05
866.4001	1193.5888	1502.7	625.8
866.5448	1195.5163	1490.9	613.8
866.6895	1197.4432	1476.1	597.8
866.8342	1199.3693	1465.55	589.85
866.9789	1201.2947	1466.4	581.1
867.1236	1203.2193	1445.3	568
867.2683	1205.1432	1446.15	568.85
867.413	1207.0664	1461.5	583.45
867.5576	1208.9889	1450.95	569.05
867.7023	1210.9106	1449.95	572.7
867.847	1212.8316	1446.2	569.45
867.9916	1214.7519	1454.55	566.7
868.1363	1216.6715	1454.55	576.9
868.2809	1218.5903	1463.9	587.95
868.4255	1220.5084	1469	592.6
868.5701	1222.4257	1473.45	594.9
868.7148	1224.3424	1480.2	602.6
868.8594	1226.2583	1487.4	602.1
869.004	1228.1735	1498.3	619.85
869.1486	1230.0879	1510.95	632.95
869.2932	1232.0016	1543.5	665.9
869.4377	1233.9146	1555.85	675.4
869.5823	1235.8269	1562.15	685
869.7269	1237.7384	1566.1	686.45
869.8715	1239.6492	1559.1	679.75
870.016	1241.5592	1573.75	693.95
870.1606	1243.4686	1591.05	715.3
870.3051	1245.3772	1633.45	753.85
870.4496	1247.285	1682.9	802.15
870.5941	1249.1922	1721.9	843.2
870.7387	1251.0986	1761.35	881.35
870.8832	1253.0042	1790.5	910.9
871.0277	1254.9092	1841.9	962
871.1722	1256.8134	1884.45	1007.35
871.3167	1258.7169	1940.7	1062.35
871.4611	1260.6196	1949.15	1070.35
871.6056	1262.5216	1958.7	1077.15
871.7501	1264.4229	1937.4	1058.7
871.8945	1266.3234	1926.55	1046.6
872.039	1268.2232	1902.1	1020.85
872.1834	1270.1223	1876.15	995.1
872.3278	1272.0207	1849.55	968.15
872.4723	1273.9183	1842.25	957.05
872.6167	1275.8151	1839.3	959.2
872.7611	1277.7113	1855.65	976.75
872.9055	1279.6067	1900.85	1020.9
873.0499	1281.5014	1989.25	1108.6
873.1943	1283.3953	2079.75	1199.25
873.3386	1285.2885	2173.65	1293.6
873.483	1287.181	2255.1	1375.05
873.6274	1289.0727	2264.25	1384.8
873.7717	1290.9637	2245.85	1363.3
873.9161	1292.854	2194.85	1314.7
874.0604	1294.7435	2122.45	1242.35
874.2047	1296.6323	2062.45	1179.65
874.349	1298.5204	2021.05	1137.65
874.4933	1300.4077	1970.2	1089.05
874.6376	1302.2943	1942.45	1063.6
874.7819	1304.1802	1935.6	1056.75
874.9262	1306.0653	1902.9	1020.5
875.0705	1307.9497	1887.75	1007.6
875.2147	1309.8333	1864.55	983.95
875.359	1311.7162	1869.55	991.5
875.5032	1313.5984	1841.05	956.95
875.6475	1315.4798	1845.85	950.1
875.7917	1317.3605	1832.7	935.2
875.9359	1319.2405	1834.45	954.05
876.0801	1321.1197	1823.8	940.45
876.2243	1322.9982	1789.6	904.3
876.3685	1324.876	1756.5	877.25
876.5127	1326.753	1697.85	816.15
876.6569	1328.6293	1655.25	772.5
876.801	1330.5048	1616.95	734.3
876.9452	1332.3796	1573.7	695.05
877.0893	1334.2537	1567.55	660.85
877.2335	1336.127	1522.35	641.55
877.3776	1337.9996	1500.4	618.7
877.5217	1339.8714	1494.25	609.8
877.6658	1341.7426	1517.4	592.55
877.8099	1343.6129	1478.4	598.95
877.954	1345.4826	1465.25	583.9
878.0981	1347.3515	1462.1	577.8
878.2422	1349.2196	1452.2	570.05
878.3862	1351.087	1441.65	560.6
878.5303	1352.9537	1444.3	563.45
878.6743	1354.8197	1449.6	569.5
878.8184	1356.6849	1451.5	572.1
878.9624	1358.5493	1459.95	577.3
879.1064	1360.4131	1466.45	586.4
879.2504	1362.276	1487.9	608.05
879.3944	1364.1383	1511.85	631.35
879.5384	1365.9998	1520.5	634
879.6823	1367.8606	1507.45	626.5
879.8263	1369.7206	1501.1	618.15
879.9702	1371.5799	1505.5	623.25
880.1142	1373.4384	1497.7	616.85
880.2581	1375.2962	1481.45	599.4
880.402	1377.1533	1450	569.25
880.5459	1379.0096	1424.2	542.75
880.6898	1380.8652	1403.65	521.7
880.8337	1382.7201	1389.85	507.65
880.9776	1384.5742	1379.8	497.7
881.1215	1386.4275	1369.2	488.3
881.2653	1388.2802	1358.35	477.2
881.4092	1390.132	1350.45	468.85
881.553	1391.9832	1342.6	460.2
881.6968	1393.8336	1340.45	458.95
881.8406	1395.6832	1336.2	451.3
881.9844	1397.5322	1333.65	453.45
882.1282	1399.3803	1332.45	443.4
882.272	1401.2278	1316.95	434
882.4158	1403.0745	1319.95	438.4
882.5595	1404.9204	1308.4	426.8
882.7033	1406.7656	1308.4	426.65
882.847	1408.6101	1303.6	420.2
882.9908	1410.4538	1295.05	414.4
883.1345	1412.2968	1303.9	421.65
883.2782	1414.139	1301	419.2
883.4219	1415.9805	1307.55	428.3
883.5656	1417.8213	1310.65	421.15
883.7092	1419.6613	1320.15	438.9
883.8529	1421.5006	1335.35	450.55
883.9965	1423.3391	1346.3	463.55
884.1402	1425.1769	1377	494.1
884.2838	1427.0139	1407.85	525.15
884.4274	1428.8502	1462.45	580.8
884.571	1430.6858	1493	610.85
884.7146	1432.5206	1510.7	627.05
884.8582	1434.3547	1499.25	615.05
885.0018	1436.188	1492.95	611.45
885.1453	1438.0206	1476.85	594.75
885.2889	1439.8524	1473.75	590.1
885.4324	1441.6835	1468.1	584
885.5759	1443.5139	1481	594.05
885.7194	1445.3435	1470.6	588.7
885.8629	1447.1724	1474.3	593
886.0064	1449.0005	1472.1	591.1
886.1499	1450.8279	1468.4	584.8
886.2933	1452.6545	1465	583.35
886.4368	1454.4804	1458.85	577.65
886.5802	1456.3056	1465.5	575.4
886.7237	1458.13	1439.65	558.15
886.8671	1459.9536	1436.6	552.4
887.0105	1461.7766	1415	531.5
887.1539	1463.5987	1395.15	512.95
887.2972	1465.4202	1378.75	496.7
887.4406	1467.2409	1355.45	473.2
887.584	1469.0608	1343.65	460.8
887.7273	1470.88	1321.5	437.05
887.8706	1472.6984	1303.05	419.05
888.0139	1474.5161	1293.95	407.25
888.1572	1476.3331	1285.15	402.2
888.3005	1478.1493	1282.15	399.55
888.4438	1479.9648	1282.65	400.3
888.5871	1481.7795	1280.45	397.7
888.7303	1483.5935	1276.9	395.95
888.8736	1485.4067	1272.7	390.3
889.0168	1487.2192	1274.8	391.3
889.16	1489.031	1275.5	392.1
889.3032	1490.842	1275.75	389.7
889.4464	1492.6522	1274.25	392.25
889.5896	1494.4618	1270.25	386.3
889.7327	1496.2705	1272.6	389.95
889.8759	1498.0785	1265.85	381.9
890.019	1499.8858	1266.1	383.5
890.1622	1501.6924	1263.5	381.7
890.3053	1503.4981	1259.4	376.8
890.4484	1505.3032	1253.25	369.4
890.5914	1507.1075	1248	366
890.7345	1508.911	1243.15	359.55
890.8776	1510.7138	1242.05	357.8
891.0206	1512.5159	1239.65	357.3
891.1637	1514.3172	1232.7	347.1
891.3067	1516.1178	1234.35	352.25
891.4497	1517.9176	1224.1	337.35
891.5927	1519.7166	1221.75	338.4
891.7357	1521.515	1225.65	336.05
891.8786	1523.3126	1218.4	335.7
892.0216	1525.1094	1216.85	330.6
892.1645	1526.9055	1210.05	327.55
892.3074	1528.7008	1209	323.85
892.4503	1530.4954	1206	322.85
892.5932	1532.2893	1204.2	320.7
892.7361	1534.0824	1209.6	320.1
892.879	1535.8747	1202.35	319.65
893.0218	1537.6663	1201	317.5
893.1647	1539.4572	1199.8	314.95
893.3075	1541.2473	1204.95	319.75
893.4503	1543.0367	1193.5	310.75
893.5931	1544.8253	1197.75	308.8
893.7359	1546.6132	1202.15	317.05
893.8787	1548.4003	1208.85	315
894.0214	1550.1867	1211.25	320.05
894.1642	1551.9723	1216.6	328.35
894.3069	1553.7572	1216.65	332.45
894.4496	1555.5414	1220.2	335.9
894.5923	1557.3247	1233	349.05
894.735	1559.1074	1247	363.9
894.8777	1560.8893	1267.7	386.6
895.0204	1562.6705	1286	402.45
895.163	1564.4509	1300.9	417.25
895.3056	1566.2305	1300.2	416.4
895.4482	1568.0094	1301.95	419.5
895.5908	1569.7876	1300.4	417.9
895.7334	1571.565	1300.25	416.05
895.876	1573.3417	1302.8	421.35
896.0186	1575.1176	1297.25	414.1
896.1611	1576.8928	1311.6	426.75
896.3036	1578.6672	1314.7	431.05
896.4461	1580.4409	1326.65	443.1
896.5886	1582.2138	1343.6	456.55
896.7311	1583.986	1358.6	474.2
896.8736	1585.7575	1373.9	491.25
897.0161	1587.5282	1388.05	505.55
897.1585	1589.2981	1403.6	519.15
897.3009	1591.0673	1411.55	528.65
897.4433	1592.8358	1396.35	513.95
897.5857	1594.6035	1411.75	524.3
897.7281	1596.3704	1404.75	518.9
897.8705	1598.1366	1390.9	506.05
898.0128	1599.9021	1384.55	498.75
898.1551	1601.6668	1366.1	478.65
898.2975	1603.4308	1355.15	469.2
898.4398	1605.194	1370.8	483.2
898.5821	1606.9564	1372.65	488.25
898.7243	1608.7182	1398.6	509.3
898.8666	1610.4791	1430.7	546.05
899.0088	1612.2394	1474.15	589.55
899.1511	1613.9988	1526.75	641
899.2933	1615.7576	1557.45	674.6
899.4355	1617.5156	1572.7	682.45
899.5776	1619.2728	1557.45	674.85
899.7198	1621.0293	1515	631.45
899.862	1622.785	1469.6	579.3
900.0041	1624.54	1402.55	515.8
900.1462	1626.2942	1348.65	464.2
900.2883	1628.0477	1310.1	423.7
900.4304	1629.8005	1261.85	374.6
900.5725	1631.5525	1239.25	355.4
900.7145	1633.3037	1216.25	330.85
900.8566	1635.0542	1193.05	307.45
900.9986	1636.804	1181	296
901.1406	1638.553	1234.95	281.7
901.2826	1640.3013	1157.2	273.4
901.4245	1642.0488	1148.35	262.1
901.5665	1643.7955	1141.7	257.1
901.7085	1645.5416	1137.1	253.55
901.8504	1647.2868	1129.05	243.35
901.9923	1649.0313	1126.05	240.95
902.1342	1650.7751	1124.6	238.2
902.2761	1652.5181	1126.05	241.15
902.4179	1654.2604	1126.5	241.55
902.5598	1656.0019	1126.35	243.3
902.7016	1657.7427	1123.7	240.35
902.8434	1659.4828	1134.05	247.75
902.9852	1661.222	1151.8	268.3
903.127	1662.9606	1163.15	279.7
903.2687	1664.6984	1179.75	296.9
903.4105	1666.4354	1178.4	294.3
903.5522	1668.1717	1172.8	288.15
903.6939	1669.9072	1149.35	262.95
903.8356	1671.642	1134.2	249.15
903.9773	1673.3761	1115.8	233.35
904.119	1675.1094	1100	217.25
904.2606	1676.8419	1092.8	211.4
904.4022	1678.5737	1086	199.35
904.5439	1680.3048	1084.45	199.45
904.6855	1682.0351	1074.65	190.3
904.827	1683.7646	1078.35	192.5
904.9686	1685.4934	1071.9	189.2
905.1101	1687.2215	1067.85	183.75
905.2517	1688.9488	1065.65	181.05
905.3932	1690.6754	1066.65	184.35
905.5347	1692.4012	1064.8	180.4
905.6761	1694.1263	1060.25	177.8
905.8176	1695.8506	1057.2	172
905.9591	1697.5742	1059.8	174.25
906.1005	1699.297	1058.1	173.7
906.2419	1701.0191	1059.4	175.1
906.3833	1702.7404	1056.4	171.95
906.5246	1704.461	1057.5	172.15
906.666	1706.1808	1056.1	169.4
906.8073	1707.8999	1056	169.5
906.9487	1709.6182	1052	166.05
907.09	1711.3358	1049.1	163.55
907.2313	1713.0527	1048.6	164.85
907.3725	1714.7688	1056.15	165.75
907.5138	1716.4841	1048.35	162.05
907.655	1718.1987	1060.55	170.55
907.7962	1719.9126	1043.9	161.55
907.9374	1721.6257	1049.45	162.25
908.0786	1723.338	1042.85	156.15
908.2198	1725.0496	1043.6	158.65
908.3609	1726.7605	1046.6	160.55
908.502	1728.4706	1042.7	155.75
908.6431	1730.18	1049.9	163.65
908.7842	1731.8886	1043.25	157.85
908.9253	1733.5964	1045.65	155.5
909.0664	1735.3036	1043.25	154.5
909.2074	1737.0099	1040.6	157.35
909.3484	1738.7156	1039.95	155.95
909.4894	1740.4204	1042.5	154.15
909.6304	1742.1246	1038.8	153.3
909.7714	1743.8279	1039.1	155.1
909.9123	1745.5306	1039.85	153.35
910.0532	1747.2325	1037.85	151.85
910.1941	1748.9336	1036.05	151.7
910.335	1750.634	1038.8	152.35
910.4759	1752.3336	1039.1	155.1
910.6168	1754.0325	1033.1	147.25
910.7576	1755.7307	1036.75	153.75
910.8984	1757.4281	1035.35	152.2
911.0392	1759.1247	1045.85	151.9
911.18	1760.8206	1039.35	150.2
911.3208	1762.5158	1040.95	153.25
911.4615	1764.2102	1033.7	149.1
911.6022	1765.9039	1036.05	152.7
911.7429	1767.5968	1037.3	152.85
911.8836	1769.289	1033.1	147.85
912.0243	1770.9804	1037.65	152.85
912.1649	1772.6711	1034.8	151.35
912.3056	1774.361	1034.35	148.15
912.4462	1776.0502	1034.2	149.8
912.5868	1777.7386	1030.35	141.8
912.7274	1779.4263	1032.9	147.7
912.8679	1781.1132	1027.5	141.3
913.0084	1782.7994	1033.5	145.95
913.149	1784.4849	1030.3	147.25
913.2895	1786.1696	1049.7	146.1
913.4299	1787.8535	1028.75	144.75
913.5704	1789.5367	1026.45	140.3
913.7108	1791.2192	1023.45	138.1
913.8513	1792.9009	1041.65	141.5
913.9917	1794.5818	1028.85	142.45
914.132	1796.2621	1025.6	141.5
914.2724	1797.9415	1023.95	142.1
914.4128	1799.6202	1027.35	141.1
914.5531	1801.2982	1027.15	143.3
914.6934	1802.9755	1026.3	141.3
914.8337	1804.6519	1027.2	141.2
914.9739	1806.3277	1022.25	137.45
915.1142	1808.0027	1024.65	139.85
915.2544	1809.6769	1027.95	141.1
915.3946	1811.3504	1024.4	137.4
915.5348	1813.0231	1024.7	137.9
915.675	1814.6951	1022.25	135.9
915.8151	1816.3664	1020.35	132.35
915.9553	1818.0369	1021.5	136.7
916.0954	1819.7067	1016.6	133.7
916.2355	1821.3757	1022.25	134.65
916.3755	1823.044	1018.25	134.45
916.5156	1824.7115	1018.2	132.4
916.6556	1826.3783	1020.85	136.4
916.7956	1828.0443	1013.8	129.9
916.9356	1829.7096	1021.55	135.5
917.0756	1831.3741	1018.3	130.7
917.2155	1833.0379	1015.95	131.05
917.3555	1834.701	1018.65	131.4
917.4954	1836.3633	1018.2	133.1
917.6353	1838.0248	1015.65	126.6
917.7751	1839.6856	1019.8	136.5
917.915	1841.3457	1014.3	131.05
918.0548	1843.005	1017.95	133.7
918.1946	1844.6636	1018	135.05
918.3344	1846.3214	1013.9	128.35
918.4742	1847.9785	1013.2	126.25
918.6139	1849.6349	1015.6	130.6
918.7537	1851.2904	1023.7	129.85
918.8934	1852.9453	1011.9	129
919.0331	1854.5994	1016	129.85
919.1727	1856.2528	1016.4	127
919.3124	1857.9054	1009.7	125.25
919.452	1859.5572	1008.4	124
919.5916	1861.2083	1014.1	129.4
919.7312	1862.8587	1012.5	127.25
919.8708	1864.5084	1011.55	126.05
920.0103	1866.1572	1009	123.6
920.1498	1867.8054	1011.7	125.15
920.2893	1869.4528	1014.65	131.25
920.4288	1871.0994	1010.6	126.35
920.5683	1872.7453	1012.15	127.05
920.7077	1874.3905	1014.8	123.8
920.8471	1876.0349	1010.4	122.95
920.9865	1877.6786	1012.75	127
921.1259	1879.3215	1011.7	125.85
921.2653	1880.9637	1012	126.35
921.4046	1882.6051	1004.5	120.2
921.5439	1884.2458	1009.65	122.65
921.6832	1885.8858	1008.65	122.65
921.8225	1887.525	1007.95	121.15
921.9617	1889.1634	1006	120.75
922.101	1890.8011	1006.85	120.5
922.2402	1892.4381	1006.3	122.35
922.3794	1894.0743	1008.7	126.25
922.5185	1895.7098	1003.9	120.2
922.6577	1897.3446	1004.75	116.65
922.7968	1898.9786	1009.9	122.75
922.9359	1900.6118	1001.5	116.6
923.075	1902.2443	1010.85	122.9
923.214	1903.8761	1005.15	119.3
923.3531	1905.5071	1003.1	116.6
923.4921	1907.1374	1005.05	119.75
923.6311	1908.7669	1005.5	120
923.77	1910.3957	1007.25	121.6
923.909	1912.0237	999.7	115.35
924.0479	1913.651	1004.3	119.15
924.1868	1915.2776	1002.3	118.8
924.3257	1916.9034	1002.6	117.5
924.4646	1918.5285	1002	117.65
924.6034	1920.1528	996.65	111.7
924.7422	1921.7764	998.2	113.2
924.881	1923.3992	997.65	113.35
925.0198	1925.0213	1000.75	113.8
925.1586	1926.6427	992.7	108.65
925.2973	1928.2633	1106	113.55
925.436	1929.8832	998.75	111.25
925.5747	1931.5023	998.55	114.9
925.7134	1933.1207	998.35	110.75
925.852	1934.7383	996.75	111.25
925.9906	1936.3552	998.15	114.6
926.1292	1937.9714	1000	114.55
926.2678	1939.5868	1003.7	118.6
926.4064	1941.2015	995.7	108.85
926.5449	1942.8154	998.95	114.2
926.6834	1944.4286	991.95	107.8
926.8219	1946.041	1020.05	111.3
926.9604	1947.6528	997.5	108.1
927.0988	1949.2637	997.4	113.9
927.2372	1950.8739	996.2	110.05
927.3756	1952.4834	993.15	110.1
927.514	1954.0921	997.2	111.5
927.6523	1955.7001	998.35	110.65
927.7907	1957.3074	993.45	108.35
927.929	1958.9139	994.1	107.75
928.0673	1960.5197	997.4	111.45
928.2055	1962.1247	993.75	109.25
928.3438	1963.729	991.9	107.35
928.482	1965.3325	1012.1	102.35
928.6202	1966.9353	989.35	104.6
928.7584	1968.5374	994.05	107.95
928.8965	1970.1387	989.45	103.15
929.0346	1971.7393	989.25	102.75
929.1727	1973.3392	992.35	108.4
929.3108	1974.9383	991.5	107.4
929.4489	1976.5366	986.25	99.25
929.5869	1978.1342	992.45	106.5
929.7249	1979.7311	991.75	104.3
929.8629	1981.3273	990.8	105.25
930.0009	1982.9227	991.6	104.9
930.1388	1984.5173	986.5	100.75
930.2767	1986.1112	985.5	100.3
930.4146	1987.7044	984.7	100.55
930.5525	1989.2968	988.7	101.55
930.6904	1990.8885	991.05	103.15
930.8282	1992.4795	990.4	103
930.966	1994.0697	987	101.5
931.1038	1995.6592	987.8	102.1
931.2415	1997.2479	985.75	99.25
931.3793	1998.8359	987	100.8
931.517	2000.4232	983.9	100.1
931.6547	2002.0097	986.25	100.75
931.7923	2003.5955	985.95	102.15
931.93	2005.1805	988.75	100.05
932.0676	2006.7648	987.8	103.45
932.2052	2008.3484	985.55	99
932.3427	2009.9312	988.05	98.35
932.4803	2011.5133	985.8	100.1
932.6178	2013.0946	985.25	99.7
932.7553	2014.6752	982.7	96.55
932.8928	2016.2551	983.1	96.4
933.0302	2017.8342	983.6	97.85
933.1676	2019.4126	982.75	98.75
933.305	2020.9902	981.5	97.7
933.4424	2022.5672	983.3	96.6
933.5798	2024.1433	987.5	97.3
933.7171	2025.7188	981.35	97.8
933.8544	2027.2935	982.05	94.3
933.9917	2028.8674	984.9	98.05
934.129	2030.4406	980.5	96.9
934.2662	2032.0131	983.45	99.75
934.4034	2033.5849	988.8	98
934.5406	2035.1559	985.4	101.6
934.6778	2036.7261	982.95	99
934.8149	2038.2957	985.05	98.85
934.952	2039.8645	982.5	98.1
935.0891	2041.4325	985.15	96.5
935.2262	2042.9998	984.05	99.1
935.3632	2044.5664	986.1	98.5
935.5002	2046.1323	983.5	97.65
935.6372	2047.6974	982.75	96.85
935.7742	2049.2617	981.45	93.7
935.9111	2050.8254	1017.8	97.15
936.048	2052.3883	985.5	99.4
936.1849	2053.9504	982.9	96.65
936.3218	2055.5118	987.3	98.8
936.4586	2057.0725	987.65	98.75
936.5955	2058.6325	985.75	98.05
936.7323	2060.1917	983.4	98.2
936.869	2061.7502	985.45	98.1
937.0058	2063.3079	978.5	95.1
937.1425	2064.8649	987.5	99.65
937.2792	2066.4212	986.35	100.35
937.4159	2067.9767	978.8	94.4
937.5525	2069.5315	984.7	99.3
937.6891	2071.0856	981.8	97.2
937.8257	2072.6389	979.2	92.3
937.9623	2074.1915	978.05	92.3
938.0989	2075.7433	984.05	96.6
938.2354	2077.2945	979.95	95.15
938.3719	2078.8448	980.8	94.65
938.5084	2080.3945	979.9	94.75
938.6448	2081.9434	979.2	95.8
938.7812	2083.4916	980.65	96.15
938.9176	2085.039	981	93.35
939.054	2086.5857	979.25	92
939.1903	2088.1317	978.25	94.8
939.3267	2089.677	978.95	93.55
939.463	2091.2215	983.15	96.05
939.5992	2092.7652	981.45	95
939.7355	2094.3083	983.1	97.8
939.8717	2095.8506	977.65	95.4
940.0079	2097.3921	978.6	91.9
940.1441	2098.933	978.4	93.35
940.2802	2100.4731	978.9	94.7
940.4163	2102.0124	996.95	94.5
940.5524	2103.5511	978.75	93.5
940.6885	2105.089	978.55	93.1
940.8245	2106.6261	983.15	97.95
940.9606	2108.1626	980.5	95.5
941.0965	2109.6983	1009.35	96
941.2325	2111.2332	983.75	96.65
941.3684	2112.7675	981.2	94.55
941.5044	2114.301	984.05	95.75
941.6403	2115.8337	979.95	95.3
941.7761	2117.3657	978.25	93.05
941.912	2118.897	979.55	93.3
942.0478	2120.4276	982.25	92.65
942.1835	2121.9575	982.65	97.7
942.3193	2123.4866	991.1	92.4
942.455	2125.0149	980.9	91.9
942.5907	2126.5426	979.75	94.95
942.7264	2128.0695	983.05	94.25
942.8621	2129.5956	981.45	96.05
942.9977	2131.1211	980.8	91.55
943.1333	2132.6458	979.4	95.3
943.2689	2134.1698	976.65	90.85
943.4044	2135.693	982.2	94.75
943.54	2137.2155	982.95	96.6
943.6755	2138.7373	978	93.3
943.8109	2140.2584	980.75	95.25
943.9464	2141.7787	980.75	88.2
944.0818	2143.2983	977.5	92.3
944.2172	2144.8171	975.9	89.6
944.3526	2146.3353	980.15	91.9
944.4879	2147.8527	977.3	91.9
944.6232	2149.3693	980.3	93.7
944.7585	2150.8853	976.75	91.2
944.8938	2152.4005	977.05	92.4
945.029	2153.9149	977.8	94.75
945.1642	2155.4287	979.15	95.2
945.2994	2156.9417	977.05	91.3
945.4346	2158.454	977.9	88.8
945.5697	2159.9655	975.4	89.3
945.7048	2161.4764	975.8	90.85
945.8399	2162.9865	974.1	89.05
945.9749	2164.4958	981.3	93.8
946.1099	2166.0045	978.6	89.4
946.2449	2167.5124	977.3	91.85
946.3799	2169.0195	971.4	87.6
946.5148	2170.526	976.1	90.2
946.6498	2172.0317	974.15	88.55
946.7846	2173.5367	972.2	85.9
946.9195	2175.0409	976.15	92.6
947.0543	2176.5445	972	87.9
947.1891	2178.0473	975.05	89.3
947.3239	2179.5494	982.3	93.2
947.4587	2181.0507	975.1	91.2
947.5934	2182.5513	973.45	88.7
947.7281	2184.0512	977.5	94.5
947.8628	2185.5504	973.6	86.5
947.9974	2187.0488	972.1	88.3
948.132	2188.5465	974.95	91.25
948.2666	2190.0435	974.7	89.25
948.4012	2191.5397	975.45	89.45
948.5357	2193.0353	971.45	86.35
948.6702	2194.5301	972.3	86.7
948.8047	2196.0241	973.05	89
948.9392	2197.5175	973	89.2
949.0736	2199.0101	974.85	86.1
949.208	2200.502	971.45	86.55
949.3424	2201.9931	974.4	88.8
949.4767	2203.4835	972.55	86.75
949.611	2204.9733	979.35	87.75
949.7453	2206.4622	970.15	84.25
949.8796	2207.9505	971.25	83.8
950.0138	2209.438	969.1	84.95
950.148	2210.9248	974.95	87.65
950.2822	2212.4109	968.65	84.3
950.4164	2213.8962	974.9	87.8
950.5505	2215.3809	971.25	85.5
950.6846	2216.8648	972.6	88.35
950.8186	2218.3479	973.4	83
950.9527	2219.8304	971.95	83.25
951.0867	2221.3121	972.9	86.95
951.2207	2222.7931	968.2	83.75
951.3546	2224.2733	970.85	84.3
951.4886	2225.7529	967.25	81.4
951.6225	2227.2317	970.75	83.4
951.7563	2228.7098	966.55	82.3
951.8902	2230.1872	969.85	84.65
952.024	2231.6638	968	81.85
952.1578	2233.1397	971.75	82.9
952.2916	2234.6149	969.6	84.15
952.4253	2236.0894	966.25	77.6
952.559	2237.5632	979.1	82.7
952.6927	2239.0362	968.35	81.7
952.8263	2240.5085	967.25	82
952.9599	2241.9801	966.25	82.8
953.0935	2243.4509	965	80.75
953.2271	2244.921	966.1	80.55
953.3606	2246.3904	969.6	82.75
953.4941	2247.8591	966.2	81.75
953.6276	2249.3271	963.45	78.65
953.7611	2250.7943	963.55	78.15
953.8945	2252.2608	961.45	75.75
954.0279	2253.7266	959.6	73.3
954.1612	2255.1917	959	73.2
954.2946	2256.656	967.05	79.2
954.4279	2258.1197	962.4	80.2
954.5612	2259.5826	967.4	78.1
954.6944	2261.0447	966.25	80.8
954.8276	2262.5062	965.3	77.55
954.9608	2263.9669	964.5	78.9
955.094	2265.4269	963.75	80.65
955.2271	2266.8862	962.65	77.95
955.3602	2268.3448	964.6	78.5
955.4933	2269.8026	962.1	75.65
955.6264	2271.2598	963.05	76.1
955.7594	2272.7162	960.8	77.8
955.8924	2274.1719	965.25	79.05
956.0253	2275.6268	960.7	74.7
956.1583	2277.0811	962.9	78.8
956.2912	2278.5346	957.65	71.9
956.4241	2279.9874	959.75	74.9
956.5569	2281.4395	959.7	77.2
956.6897	2282.8908	962.35	69.95
956.8225	2284.3414	963.5	77.15
956.9553	2285.7914	960.35	77.25
957.088	2287.2406	959.85	73.8
957.2207	2288.689	960	75.95
957.3534	2290.1368	959.8	74.4
957.486	2291.5838	960.5	72.25
957.6186	2293.0302	958.95	75.3
957.7512	2294.4758	959.6	74.35
957.8838	2295.9206	960.8	73.8
958.0163	2297.3648	959.15	71.95
958.1488	2298.8082	961.1	75.7
958.2813	2300.251	958.7	75.45
958.4137	2301.693	959.25	73
958.5461	2303.1343	962.05	75.25
958.6785	2304.5748	956.7	72.95
958.8108	2306.0147	960.2	76.05
958.9432	2307.4538	957.35	71.9
959.0754	2308.8922	958.7	74.5
959.2077	2310.3299	957.45	72.5
959.3399	2311.7669	957.5	72.55
959.4721	2313.2031	958.25	72.85
959.6043	2314.6387	960.6	74.75
959.7365	2316.0735	957.4	72.35
959.8686	2317.5076	955.95	71.85
960.0006	2318.941	958.8	73.7
960.1327	2320.3737	958.05	73.05
960.2647	2321.8056	962.25	74.7
960.3967	2323.2369	959.9	72.85
960.5287	2324.6674	966.85	79
960.6606	2326.0972	963.95	76.15
960.7925	2327.5263	962.65	77.35
960.9244	2328.9547	963.9	77.85
961.0562	2330.3823	960	73.4
961.1881	2331.8092	962.55	74.9
961.3198	2333.2355	956.9	71.9
961.4516	2334.661	956.8	70
961.5833	2336.0858	957.55	70.5
961.715	2337.5098	955.05	70.35
961.8467	2338.9332	952.35	66.45
961.9783	2340.3558	955	66.65
962.1099	2341.7778	957.3	71.55
962.2415	2343.199	958.55	71.95
962.373	2344.6195	955.55	69.1
962.5045	2346.0393	951.25	67.75
962.636	2347.4583	956.85	70.45
962.7675	2348.8767	953.5	66.8
962.8989	2350.2943	952.55	67.65
963.0303	2351.7113	952.95	69.15
963.1617	2353.1275	954.5	69.25
963.293	2354.543	962	67.7
963.4243	2355.9578	952.25	64.4
963.5556	2357.3718	949.95	64.9
963.6868	2358.7852	954.8	66.65
963.818	2360.1978	954.1	68
963.9492	2361.6098	950.6	65.6
964.0803	2363.021	955.95	66.75
964.2114	2364.4315	954.15	68.4
964.3425	2365.8413	952.6	64.5
964.4736	2367.2504	950.25	66.35
964.6046	2368.6587	950.5	63.25
964.7356	2370.0664	951.2	65.15
964.8666	2371.4733	951.55	67.7
964.9975	2372.8795	950.75	65.75
965.1284	2374.285	949.45	62.9
965.2593	2375.6899	949.1	65.45
965.3901	2377.0939	949.9	66.6
965.5209	2378.4973	949.45	64.45
965.6517	2379.9	947.9	62.2
965.7825	2381.3019	948.55	62.9
965.9132	2382.7032	946.2	62.8
966.0439	2384.1037	950.3	64.6
966.1745	2385.5035	947.85	61.9
966.3051	2386.9027	948.8	61.7
966.4357	2388.3011	952.45	64.25
966.5663	2389.6987	949.8	64.8
966.6968	2391.0957	945.55	58.95
966.8273	2392.492	946.35	62.7
966.9578	2393.8876	947.75	61.8
967.0882	2395.2824	947	60.6
967.2186	2396.6765	943.95	58.7
967.349	2398.07	944.1	59.6
967.4793	2399.4627	945.5	60.2
967.6097	2400.8547	945.65	59.95
967.7399	2402.246	952	60.9
967.8702	2403.6366	947.2	62.4
968.0004	2405.0265	947.2	61.3
968.1306	2406.4156	950.15	62.2
968.2607	2407.8041	949.7	61.5
968.3909	2409.1918	948.05	61.15
968.521	2410.5789	942	56
968.651	2411.9652	945.85	56.8
968.781	2413.3508	942	56.8
968.911	2414.7358	943.75	59.45
969.041	2416.12	942.45	58.25
969.1709	2417.5035	943.2	58.35
969.3008	2418.8863	944.1	56.55
969.4307	2420.2684	943.45	58
969.5606	2421.6497	944.4	57.9
969.6904	2423.0304	942.65	58
969.8201	2424.4104	942.7	57.65
969.9499	2425.7896	948.25	57.45
970.0796	2427.1682	942.15	57.25
970.2093	2428.546	942.5	55.65
970.3389	2429.9232	943.3	54.5
970.4685	2431.2996	940.65	55
970.5981	2432.6753	943.3	58.9
970.7277	2434.0503	941.9	57.5
970.8572	2435.4246	941.9	57.65
970.9867	2436.7982	944	54.8
971.1161	2438.1711	940.1	56.55
971.2456	2439.5433	941.55	54.7
971.375	2440.9148	946.45	56.65
971.5043	2442.2856	939.9	56
971.6336	2443.6557	939.75	50.9
971.7629	2445.025	940.75	56.15
971.8922	2446.3937	941.35	55.55
972.0214	2447.7617	937.3	50.85
972.1506	2449.1289	938.4	54.25
972.2798	2450.4955	944.2	55.6
972.4089	2451.8613	936.9	51.55
972.538	2453.2265	939	53.15
972.6671	2454.5909	939.1	51.8
972.7961	2455.9546	938.7	54.25
972.9251	2457.3177	937.5	52.75
973.0541	2458.68	941.15	55.6
973.1831	2460.0416	940.4	55.1
973.312	2461.4025	941.2	54.3
973.4408	2462.7627	951.3	54.55
973.5697	2464.1222	939.45	54.95
973.6985	2465.4811	938.55	52.75
973.8273	2466.8392	938.5	53.25
973.956	2468.1966	938.25	50.6
974.0847	2469.5533	939.8	53.05
974.2134	2470.9093	940	53.6
974.3421	2472.2645	940.4	51.85
974.4707	2473.6191	937.05	50.3
974.5993	2474.973	938	51.4
974.7278	2476.3262	937.5	50.85
974.8563	2477.6787	936.1	50.35
974.9848	2479.0305	936.95	51.1
975.1132	2480.3816	937.05	51.6
975.2417	2481.7319	934.9	49.05
975.37	2483.0816	937.95	51.7
975.4984	2484.4306	936.25	49.55
975.6267	2485.7789	935.75	53.2
975.755	2487.1264	937.65	51.65
975.8833	2488.4733	933.8	48.45
976.0115	2489.8195	953.4	52.05
976.1397	2491.165	940.75	51.1
976.2678	2492.5097	936.4	48.9
976.3959	2493.8538	935.75	51.8
976.524	2495.1972	937.2	50.55
976.6521	2496.5398	938.6	53.05
976.7801	2497.8818	937.25	50.65
976.9081	2499.2231	936.25	51.1
977.036	2500.5637	935.75	48.55
977.164	2501.9035	935.7	49.15
977.2918	2503.2427	937.4	48.15
977.4197	2504.5812	933.35	47.3
977.5475	2505.919	935.95	48.85
977.6753	2507.256	933.45	47.6
977.8031	2508.5924	932.95	47.05
977.9308	2509.9281	938	45.15
978.0585	2511.2631	933.1	48.15
978.1861	2512.5974	934.3	49.35
978.3137	2513.9309	935.4	49.15
978.4413	2515.2638	967.65	52
978.5689	2516.596	929.6	46.35
978.6964	2517.9275	934.6	49.2
978.8239	2519.2583	935.9	50.6
978.9513	2520.5884	935.8	49.3
979.0788	2521.9178	934.2	47.65
979.2062	2523.2465	932.25	47.2
979.3335	2524.5745	932.75	48.75
979.4608	2525.9018	930.05	44.65
979.5881	2527.2284	932.5	49.35
979.7154	2528.5543	929.85	44.9
979.8426	2529.8796	931.5	46.15
979.9698	2531.2041	930.35	45.4
980.0969	2532.5279	930.7	48.45
980.224	2533.851	928.5	42.95
980.3511	2535.1735	930.25	45.05
980.4781	2536.4952	928.8	42.95
980.6052	2537.8163	929.6	45.05
980.7321	2539.1366	928.35	43.15
980.8591	2540.4562	930.95	43.3
980.986	2541.7752	930.1	45.65
981.1129	2543.0935	932.45	46.75
981.2397	2544.411	930.6	44.75
981.3665	2545.7279	927.05	40.9
981.4933	2547.0441	926.5	42.2
981.62	2548.3596	932	42.65
981.7467	2549.6744	928.45	43.85
981.8734	2550.9885	930.5	43.1
982.0001	2552.3019	929.75	46.55
982.1267	2553.6146	929.15	42
982.2532	2554.9266	930.55	44.25
982.3798	2556.2379	929.45	41.2
982.5063	2557.5485	925.8	40.8
982.6327	2558.8585	936.45	44.65
982.7592	2560.1677	934.9	46.05
982.8856	2561.4762	931.85	45.05
983.0119	2562.7841	932.25	42.8
983.1383	2564.0913	927.25	45.6
983.2646	2565.3977	927.15	40.9
983.3908	2566.7035	930.45	44.3
983.517	2568.0086	929.3	43.35
983.6432	2569.313	926.8	40.1
983.7694	2570.6167	929.75	40.8
983.8955	2571.9197	926.3	42.9
984.0216	2573.222	930.95	43.05
984.1476	2574.5236	926.95	42.25
984.2737	2575.8246	929.3	43.3
984.3996	2577.1248	930.15	42
984.5256	2578.4244	925.35	41.7
984.6515	2579.7232	928.3	40.8
984.7774	2581.0214	953.8	38
984.9032	2582.3189	928	43.35
985.029	2583.6157	929.9	40.6
985.1548	2584.9118	925.1	38.1
985.2806	2586.2072	927.3	43.9
985.4063	2587.5019	925.25	37.5
985.5319	2588.7959	930.4	42.15
985.6576	2590.0893	928.6	41.3
985.7832	2591.3819	929.15	45.85
985.9087	2592.6739	925.9	41.95
986.0343	2593.9652	927.7	40
986.1597	2595.2557	926.25	42.8
986.2852	2596.5456	926.55	38.75
986.4106	2597.8348	925.2	41.1
986.536	2599.1234	923	38.85
986.6614	2600.4112	925.55	38.6
986.7867	2601.6983	930.85	41.8
986.912	2602.9848	927.45	40.55
987.0372	2604.2705	933.7	40.85
987.1624	2605.5556	924.25	37.75
987.2876	2606.84	925.55	40.9
987.4128	2608.1237	925.5	40.2
987.5379	2609.4067	923.25	36.55
987.6629	2610.689	932.75	39.4
987.788	2611.9707	928.05	38.6
987.913	2613.2516	929.1	39.95
988.0379	2614.5319	923.45	38.35
988.1629	2615.8115	923.3	36.6
988.2878	2617.0903	923.4	37
988.4126	2618.3685	923.9	37.75
988.5375	2619.6461	923.45	37.8
988.6622	2620.9229	921.95	36.45
988.787	2622.199	924.15	37.1
988.9117	2623.4745	922.85	36.1
989.0364	2624.7493	920.35	34.95
989.161	2626.0234	922.3	37.95
989.2857	2627.2968	921.55	36
989.4102	2628.5695	926.5	40.6
989.5348	2629.8415	921.5	37.15
989.6593	2631.1128	923.65	36.15
989.7837	2632.3835	923.35	39.75
989.9082	2633.6535	921.55	35.25
990.0326	2634.9228	923.35	38.1
990.1569	2636.1914	920.15	35.4
990.2812	2637.4593	927.35	35.35
990.4055	2638.7265	922.8	37.45
990.5298	2639.9931	919.9	34.7
990.654	2641.259	923.15	38.65
990.7782	2642.5242	921.5	37.8
990.9023	2643.7887	921.75	36.75
991.0264	2645.0525	919.2	34.8
991.1505	2646.3156	922.95	37.1
991.2745	2647.5781	924.3	40.3
991.3985	2648.8398	920.75	36
991.5225	2650.1009	960.95	35.9
991.6464	2651.3613	920.5	32.7
991.7703	2652.6211	920	33.2
991.8942	2653.8801	919.45	35.85
992.018	2655.1385	923.25	35.15
992.1418	2656.3961	919.6	33.05
992.2655	2657.6531	917.75	32.55
992.3892	2658.9094	922.25	37.2
992.5129	2660.1651	921.05	36.55
992.6366	2661.42	917.7	32
992.7602	2662.6743	919.55	34.2
992.8837	2663.9279	919	33.65
993.0073	2665.1808	920.2	33.5
993.1307	2666.433	922.35	35.6
993.2542	2667.6846	917.9	34.2
993.3776	2668.9354	921.5	30.85
993.501	2670.1856	919.4	34.5
993.6244	2671.4351	919.25	35.5
993.7477	2672.6839	922.5	36.35
993.8709	2673.9321	919.55	36.6
993.9942	2675.1795	919.6	32.4
994.1174	2676.4263	918.85	34.05
994.2405	2677.6724	918.4	33.75
994.3637	2678.9179	920.2	33.75
994.4868	2680.1626	916.85	31.25
994.6098	2681.4067	918.4	32.95
994.7328	2682.6501	918.55	33.2
994.8558	2683.8928	920.05	34.8
994.9788	2685.1348	918.75	32.75
995.1017	2686.3761	918.95	33
995.2245	2687.6168	919.8	35.1
995.3474	2688.8568	918.45	33.75
995.4702	2690.0961	915.3	31.2
995.5929	2691.3348	920.5	35.35
995.7156	2692.5727	918.95	34.4
995.8383	2693.81	918.6	32.55
995.961	2695.0466	918.45	35.05
996.0836	2696.2826	918.4	32.15
996.2062	2697.5178	919.8	30.8
996.3287	2698.7524	918.55	31.65
996.4512	2699.9863	917.05	28.5
996.5737	2701.2195	915.8	30.05
996.6961	2702.452	919.3	32.25
996.8185	2703.6839	916.6	30.2
996.9408	2704.9151	915.6	31.8
997.0631	2706.1456	916.3	29.7
997.1854	2707.3755	920.5	35.95
997.3077	2708.6046	920.1	32.65
997.4299	2709.8331	917	30.55
997.552	2711.0609	917.7	32.5
997.6742	2712.2881	918.3	32.3
997.7963	2713.5145	920.25	30.15
997.9183	2714.7403	915.8	30.2
998.0403	2715.9654	918.2	32.4
998.1623	2717.1899	919.9	33.3
998.2842	2718.4136	921.8	36.5
998.4062	2719.6367	920	35.75
998.528	2720.8591	925.35	33.85
998.6498	2722.0809	920.6	33.8
998.7716	2723.3019	924.75	35.1
998.8934	2724.5223	923.55	36.1
999.0151	2725.7421	923.8	36.15
999.1368	2726.9611	922.55	36.7
999.2584	2728.1795	923.5	31.35
999.38	2729.3972	919	33.8
999.5016	2730.6142	930.85	33.2
999.6231	2731.8306	921.4	35.45
999.7446	2733.0462	918.45	32.05
999.8661	2734.2612	923.8	33.5
999.9875	2735.4756	919.6	32.15
1000.1089	2736.6892	914.1	28.1
1000.2302	2737.9022	917	32.95
1000.3515	2739.1145	916.6	31.3
1000.4728	2740.3262	924.9	31.9
1000.594	2741.5372	913.85	27.9
1000.7152	2742.7475	914	29.95
1000.8363	2743.9571	918.15	31.2
1000.9575	2745.1661	918.75	29.9
1001.0785	2746.3744	914.9	28.9
1001.1996	2747.582	912.3	25.85
1001.3206	2748.7889	913.25	26
1001.4415	2749.9952	912.65	26.8
1001.5625	2751.2008	914.2	28.1
1001.6833	2752.4057	914.75	27.55
1001.8042	2753.61	914	27.1
1001.925	2754.8136	914.2	26.9
1002.0458	2756.0165	912.8	26.95
1002.1665	2757.2188	910.25	27.5
1002.2872	2758.4204	910.55	25.5
1002.4078	2759.6213	915.7	29.05
1002.5285	2760.8215	917.3	26.2
1002.649	2762.0211	910.75	23
1002.7696	2763.22	915.45	27.35
1002.8901	2764.4182	913.05	26.85
1003.0106	2765.6158	912.95	28.1
1003.131	2766.8127	911	23.35
1003.2514	2768.009	910.5	25.3
1003.3717	2769.2045	910.05	24
1003.492	2770.3994	914.35	26.05
1003.6123	2771.5936	912.2	25.25
1003.7325	2772.7872	909.75	25.35
1003.8527	2773.9801	914.35	26.2
1003.9729	2775.1723	928.05	28.55
1004.093	2776.3639	909.85	26.2
1004.2131	2777.5548	911.3	24.25
1004.3331	2778.745	911.7	23.9
1004.4531	2779.9346	908.8	23.4
1004.5731	2781.1235	910.65	22.75
1004.693	2782.3117	911.05	25.65
1004.8129	2783.4992	911.05	27
1004.9328	2784.6861	909.95	24.7
1005.0526	2785.8723	912.15	24.8
1005.1723	2787.0579	910.95	25.9
1005.2921	2788.2428	910.25	22.45
1005.4118	2789.427	906.7	22.55
1005.5314	2790.6106	910.1	25
1005.651	2791.7935	913.35	28.15
1005.7706	2792.9757	907.3	22
1005.8902	2794.1573	913.2	25.5
1006.0097	2795.3382	908.65	21.75
1006.1291	2796.5184	907.85	23.25
1006.2485	2797.698	912	22.55
1006.3679	2798.8769	909.1	24.2
1006.4873	2800.0551	909	21.4
1006.6066	2801.2327	911.35	23.4
1006.7258	2802.4096	909.5	24.4
1006.8451	2803.5859	912.55	25.45
1006.9642	2804.7615	909.5	21.75
1007.0834	2805.9364	910.1	24.1
1007.2025	2807.1106	910.5	26.5
1007.3216	2808.2842	912.85	25.15
1007.4406	2809.4572	912.65	28.25
1007.5596	2810.6294	913.15	27.05
1007.6785	2811.801	912.8	28.35
1007.7975	2812.972	911.7	27.3
1007.9163	2814.1423	915.2	30
1008.0352	2815.3119	916.75	30.7
1008.154	2816.4808	913.75	27.55
1008.2727	2817.6491	918.75	34.4
1008.3914	2818.8167	918.05	34.65
1008.5101	2819.9837	924.75	36.4
1008.6288	2821.15	926.4	40.65
1008.7474	2822.3157	925.85	42.3
1008.8659	2823.4807	927.75	42.7
1008.9844	2824.645	933.95	47.4
1009.1029	2825.8086	936.1	50.15
1009.2214	2826.9716	935.15	50.5
1009.3398	2828.134	941.45	53.5
1009.4581	2829.2957	945.2	57.6
1009.5764	2830.4567	945.75	62.7
1009.6947	2831.617	954.3	67.45
1009.813	2832.7767	951.15	67.6
1009.9312	2833.9358	951.7	65.4
1010.0493	2835.0941	952.4	67
1010.1675	2836.2519	948.05	62.85
1010.2855	2837.4089	946.7	61.4
1010.4036	2838.5653	943.5	59.7
1010.5216	2839.7211	942.35	55
1010.6396	2840.8761	942.35	54.85
1010.7575	2842.0306	938.65	54.5
1010.8754	2843.1843	943	59.35
1010.9932	2844.3374	940.75	57
1011.111	2845.4899	942.15	56.15
1011.2288	2846.6417	943.4	57.15
1011.3465	2847.7928	943.6	58.8
1011.4642	2848.9433	944	59.3
1011.5818	2850.0931	943.1	57.2
1011.6995	2851.2422	947.8	61.1
1011.817	2852.3907	946.15	61.55
1011.9345	2853.5385	945.6	59.35
1012.052	2854.6857	974.85	62.55
1012.1695	2855.8323	944	58
1012.2869	2856.9781	950.2	63.3
1012.4042	2858.1233	946.2	62
1012.5216	2859.2679	949.9	62.8
1012.6389	2860.4118	954.25	70.2
1012.7561	2861.555	959.05	68.9
1012.8733	2862.6976	959.35	72.5
1012.9905	2863.8395	957.2	74.25
1013.1076	2864.9808	955.35	68.45
1013.2247	2866.1214	957.5	73.35
1013.3417	2867.2614	953.85	68.55
1013.4587	2868.4007	957.15	70.1
1013.5757	2869.5393	963.85	77
1013.6926	2870.6773	966.05	77.45
1013.8095	2871.8146	965	76.35
1013.9263	2872.9513	967.2	78.9
1014.0431	2874.0874	963.65	79.15
1014.1599	2875.2227	963.8	77.65
1014.2766	2876.3574	965.1	80.1
1014.3933	2877.4915	966.4	81.4
1014.51	2878.6249	965.95	83.2
1014.6266	2879.7577	969.5	83
1014.7431	2880.8898	982.1	83.9
1014.8596	2882.0212	969.9	83.6
1014.9761	2883.152	973	88.15
1015.0925	2884.2821	968.25	83.5
1015.2089	2885.4116	970.1	85.85
1015.3253	2886.5405	972.25	87.8
1015.4416	2887.6686	975.4	87.8
1015.5579	2888.7962	972.4	89.75
1015.6741	2889.923	972.85	87.5
1015.7903	2891.0493	972.5	88.65
1015.9065	2892.1748	971.25	86.4
1016.0226	2893.2997	973.15	85.9
1016.1387	2894.424	970.9	86.35
1016.2547	2895.5476	971.8	86.15
1016.3707	2896.6706	974.3	89.4
1016.4866	2897.7929	975.4	89.1
1016.6025	2898.9145	969.35	83
1016.7184	2900.0355	975.8	89.65
1016.8342	2901.1559	973.5	88.45
1016.95	2902.2756	975.3	85.65
1017.0658	2903.3946	967.25	82.5
1017.1815	2904.513	973.8	84.45
1017.2971	2905.6308	972.2	86.75
1017.4127	2906.7479	972.35	86.4
1017.5283	2907.8643	970.55	83.55
1017.6439	2908.9801	970.15	85.75
1017.7594	2910.0953	967.95	81.5
1017.8748	2911.2098	972.8	82.9
1017.9902	2912.3236	979.55	85.95
1018.1056	2913.4368	976.35	85.5
1018.2209	2914.5494	973.25	88.15
1018.3362	2915.6613	976.6	84.45
1018.4515	2916.7725	972.2	84.8
1018.5667	2917.8831	967.55	81.25
1018.6819	2918.9931	966.5	78.05
1018.797	2920.1024	963.75	76.45
1018.9121	2921.211	961.05	76
1019.0271	2922.319	960.2	75.3
1019.1421	2923.4264	963.2	80.9
1019.2571	2924.5331	961.5	75.85
1019.372	2925.6391	960.45	76.1
1019.4869	2926.7445	963.85	80.5
1019.6017	2927.8493	963.95	76.5
1019.7165	2928.9534	962.8	76.45
1019.8313	2930.0569	962.25	72.45
1019.946	2931.1597	963.5	76.55
1020.0606	2932.2619	962.85	77.9
1020.1753	2933.3634	962.3	78.1
1020.2899	2934.4643	973.95	81.65
1020.4044	2935.5645	971.55	78.95
1020.5189	2936.6641	970.45	81.25
1020.6334	2937.763	967.15	82
1020.7478	2938.8613	965.3	79.2
1020.8622	2939.959	969.3	78.35
1020.9765	2941.056	965.2	79.4
1021.0908	2942.1523	962.5	75.6
1021.2051	2943.248	957.9	69.4
1021.3193	2944.3431	954.05	67.5
1021.4334	2945.4375	952.55	67.3
1021.5476	2946.5313	946.5	63.65
1021.6617	2947.6244	943.5	58.55
1021.7757	2948.7169	942.1	55.95
1021.8897	2949.8087	937.3	53.2
1022.0037	2950.8999	934.65	49.15
1022.1176	2951.9904	933.55	49.75
1022.2315	2953.0803	932.4	45.55
1022.3453	2954.1696	931.45	46.1
1022.4591	2955.2582	929.25	43
1022.5728	2956.3462	927.9	42.35
1022.6865	2957.4335	927.5	42.9
1022.8002	2958.5202	928.95	42
1022.9138	2959.6062	926.85	42
1023.0274	2960.6916	926.5	41.35
1023.141	2961.7764	927.1	39.45
1023.2545	2962.8605	928.35	42.3
1023.3679	2963.9439	925.55	39.9
1023.4813	2965.0267	927.25	40.75
1023.5947	2966.1089	948.15	40.55
1023.708	2967.1905	925.8	41.6
1023.8213	2968.2714	924.1	39.55
1023.9346	2969.3516	924.25	38.95
1024.0478	2970.4312	930.7	38.55
1024.1609	2971.5102	924.75	38.45
1024.274	2972.5885	922.95	39.3
1024.3871	2973.6662	928.55	37.4
1024.5002	2974.7432	923.85	37.55
1024.6132	2975.8196	925.85	38.85
1024.7261	2976.8954	923.8	39.35
1024.839	2977.9705	922.8	37.05
1024.9519	2979.045	925.45	40.45
1025.0647	2980.1188	925	40.35
1025.1775	2981.192	924.45	38.7
1025.2902	2982.2645	923.65	36.45
1025.4029	2983.3364	922.05	36.1
1025.5156	2984.4077	922.5	38.3
1025.6282	2985.4783	926.2	34.8
1025.7407	2986.5483	921.2	38.25
1025.8532	2987.6177	919.1	33.4
1025.9657	2988.6864	918.1	33.3
1026.0782	2989.7545	920.9	33.45
1026.1906	2990.8219	917.85	34.85
1026.3029	2991.8887	917.7	31.85
1026.4152	2992.9548	913.75	27.45
1026.5275	2994.0204	913.45	27.85
1026.6397	2995.0852	910.85	25.9
1026.7519	2996.1495	909.8	22.95
1026.864	2997.2131	907.25	22.35
1026.9761	2998.276	908.8	24.2
1027.0882	2999.3383	909.25	22.95
1027.2002	3000.4	908.6	22.5
1027.3122	3001.4611	906.75	20.6
1027.4241	3002.5215	903.9	19.35
1027.536	3003.5812	906.2	21
1027.6478	3004.6404	903.45	17.1
1027.7596	3005.6989	904.6	17.7
1027.8714	3006.7567	902.05	16.5
1027.9831	3007.8139	933.2	18.75
1028.0947	3008.8705	903.6	15.4
1028.2064	3009.9264	918.35	17.3
1028.3179	3010.9818	903.9	17.7
1028.4295	3012.0364	900.9	15.45
1028.541	3013.0905	902.95	19.2
1028.6524	3014.1439	901.65	16.2
1028.7638	3015.1966	899.4	13.3
1028.8752	3016.2487	898.95	14.15
1028.9865	3017.3002	905.5	14.3
1029.0978	3018.3511	899.35	16
1029.209	3019.4013	900.55	16.85
1029.3202	3020.4509	899.15	15.25
1029.4314	3021.4998	900.35	13.9
1029.5425	3022.5481	899.7	13.2
1029.6535	3023.5958	899.2	15.7
1029.7645	3024.6428	899.7	15
1029.8755	3025.6892	899.95	14.2
1029.9864	3026.735	900.4	13.4
1030.0973	3027.7802	900.3	14.7
1030.2082	3028.8247	899.25	14.3
1030.319	3029.8685	897.5	12.2
1030.4297	3030.9118	900.85	14.9
1030.5404	3031.9544	899.7	13.5
1030.6511	3032.9963	897.9	12.1
1030.7617	3034.0376	898.65	12.75
1030.8723	3035.0783	901	14.15
1030.9829	3036.1184	900.6	14.45
1031.0934	3037.1578	899.1	16.7
1031.2038	3038.1966	899.7	11.45
1031.3142	3039.2348	896.65	14.75
1031.4246	3040.2723	908.3	13.05
1031.5349	3041.3092	895.9	12.5
1031.6452	3042.3455	899.25	13.5
1031.7554	3043.3811	900.3	15.85
1031.8656	3044.4161	902.6	17.15
1031.9758	3045.4505	901.55	16.65
1032.0859	3046.4842	899.8	14.75
1032.1959	3047.5173	898.95	14.5
1032.3059	3048.5498	897.1	10.2
1032.4159	3049.5816	899.9	13.85
1032.5258	3050.6128	902.3	14.85
1032.6357	3051.6434	900.35	11.45
1032.7455	3052.6734	901.95	15.45
1032.8553	3053.7027	898.5	13.65
1032.9651	3054.7314	896.7	11.15
1033.0748	3055.7594	898.2	13.75
1033.1845	3056.7868	898.85	12.6
1033.2941	3057.8136	898.35	13.3
1033.4037	3058.8398	901.3	17.85
1033.5132	3059.8653	901.3	14.65
1033.6227	3060.8902	900.7	15.8
1033.7321	3061.9145	899.2	14.35
1033.8415	3062.9381	899.55	15.85
1033.9509	3063.9612	915.35	14.95
1034.0602	3064.9835	900.1	12.85
1034.1694	3066.0053	901.45	14.3
1034.2787	3067.0264	899.25	15.05
1034.3878	3068.0469	901.8	16.25
1034.497	3069.0668	904.2	16.95
1034.6061	3070.086	898.2	15.4
1034.7151	3071.1046	903.25	14.05
1034.8241	3072.1226	900.45	14.95
1034.9331	3073.1399	897.55	14
1035.042	3074.1567	898.9	13.05
1035.1508	3075.1727	899.75	12.65
1035.2597	3076.1882	899.25	14.7
1035.3684	3077.203	898	11.55
1035.4772	3078.2173	900.2	14.55
1035.5859	3079.2308	901.7	13.95
1035.6945	3080.2438	900.7	13.45
1035.8031	3081.2561	897.85	13.25
1035.9117	3082.2678	897.5	12.9
1036.0202	3083.2789	896.2	10.75
1036.1286	3084.2893	895.65	9.25
1036.2371	3085.2991	896.15	10.25
1036.3454	3086.3083	901.6	11.05
1036.4538	3087.3169	898.25	12.6
1036.562	3088.3248	897.9	13.15
1036.6703	3089.3321	898.15	9.95
1036.7785	3090.3388	894.65	10.4
1036.8866	3091.3449	895.4	10.05
1036.9948	3092.3503	900.05	11.1
1037.1028	3093.3551	893.55	10.7
1037.2108	3094.3593	895.65	10.45
1037.3188	3095.3629	895.7	7
1037.4267	3096.3658	898.15	10.85
1037.5346	3097.3681	896.55	10.9
1037.6425	3098.3698	898.05	11.2
1037.7503	3099.3708	898.85	11
1037.858	3100.3713	894.35	8.75
1037.9657	3101.3711	895.35	9.05
1038.0734	3102.3702	1033.9	8.75
1038.181	3103.3688	897.15	7.9
1038.2886	3104.3667	894.1	10.95
1038.3961	3105.364	893.45	8.5
1038.5036	3106.3607	896.25	10.9
1038.611	3107.3568	897.8	12.75
1038.7184	3108.3522	894.2	11.8
1038.8257	3109.347	895.65	9.15
1038.933	3110.3412	897.45	7.75
1039.0403	3111.3348	893.25	8.25
1039.1475	3112.3277	894.25	10.55
1039.2547	3113.32	893.75	8.8
1039.3618	3114.3117	894.35	8.05
1039.4689	3115.3028	894.85	8.55
1039.5759	3116.2932	897.8	10.3
1039.6829	3117.2831	902.2	11.45
1039.7898	3118.2723	893.45	7.1
1039.8967	3119.2608	893.65	7.55
1040.0035	3120.2488	893.45	7.9
1040.1103	3121.2361	892.4	6.95
1040.2171	3122.2229	893.7	8.1
1040.3238	3123.209	891.5	6.8
1040.4305	3124.1944	892.2	7.4
1040.5371	3125.1793	896.45	9.35
1040.6437	3126.1635	891.35	6.7
1040.7502	3127.1471	893.95	11.1
1040.8567	3128.1301	890.6	5.65
1040.9631	3129.1125	891.05	5.05
1041.0695	3130.0942	892.1	5.7
1041.1759	3131.0753	900	7.7
1041.2822	3132.0558	895.65	6.95
1041.3884	3133.0357	893.85	8.25
1041.4946	3134.015	894.55	7.9
1041.6008	3134.9936	893.75	7.35
1041.7069	3135.9716	912.95	7.1
1041.813	3136.949	892.9	5.75
1041.919	3137.9258	909.75	5.15
1042.025	3138.902	899.9	6.25
1042.1309	3139.8775	892.85	7.95
1042.2368	3140.8524	891.3	4.95
1042.3427	3141.8267	893.05	5.75
1042.4485	3142.8004	890.6	3.55
1042.5542	3143.7735	898.65	6.25
1042.6599	3144.7459	894.75	7.65
1042.7656	3145.7178	891.7	6.25
1042.8712	3146.689	891.35	7.35
1042.9768	3147.6596	893.75	7.35
1043.0823	3148.6295	891.65	7.6
1043.1878	3149.5989	893.1	5.95
1043.2932	3150.5676	890.8	6
1043.3986	3151.5357	891.45	7.9
1043.5039	3152.5032	891.8	7.15
1043.6092	3153.4701	892.2	6.15
1043.7145	3154.4364	892.65	6.55
1043.8197	3155.402	891.1	6.85
1043.9248	3156.367	893.1	6.3
1044.03	3157.3315	912.25	7.6
1044.135	3158.2952	891.7	6.4
1044.24	3159.2584	891.8	8.35
1044.345	3160.221	890.95	2.7
1044.4499	3161.1829	892.95	7.9
1044.5548	3162.1442	890.5	4.6
1044.6596	3163.105	891.05	4.45
1044.7644	3164.065	892.2	5.55
1044.8692	3165.0245	893.45	5.8
1044.9739	3165.9834	889.45	3.8
1045.0785	3166.9416	891.3	6.6
1045.1831	3167.8993	892.2	7.6
1045.2877	3168.8563	894	8.4
1045.3922	3169.8127	890.9	5.8
1045.4966	3170.7684	892	7.45
1045.6011	3171.7236	892.5	7.4
1045.7054	3172.6782	891.85	6.1
1045.8098	3173.6321	893	7.05
1045.914	3174.5854	894.85	3.1
1046.0183	3175.5381	892.3	5.65
1046.1224	3176.4902	892	7.35
1046.2266	3177.4417	890.25	6.8
1046.3307	3178.3926	889.8	4.55
1046.4347	3179.3428	888.35	5.25
1046.5387	3180.2924	891.35	4.45
1046.6427	3181.2415	891	6.95
1046.7466	3182.1899	893.7	9.5
1046.8504	3183.1377	892.4	6.2
1046.9542	3184.0848	894.65	5.65
1047.058	3185.0314	891.2	5.95
1047.1617	3185.9773	891.7	5.85
1047.2654	3186.9227	891.6	4.8
1047.369	3187.8674	890.45	4.25
1047.4726	3188.8115	893.85	4.8
1047.5761	3189.755	891	6.55
1047.6796	3190.6979	890.25	2.95
1047.783	3191.6402	890.5	6.15
1047.8864	3192.5818	888.3	2.85
1047.9898	3193.5229	903.9	5.15
1048.0931	3194.4633	889.95	5.05
1048.1963	3195.4031	893.35	7.4
1048.2995	3196.3423	888.75	2.95
1048.4027	3197.2809	890.2	4.3
1048.5058	3198.2189	889.8	3.3
1048.6089	3199.1563	895.85	7.1
1048.7119	3200.0931	893.35	8.15
1048.8148	3201.0292	889.65	4.8
1048.9178	3201.9648	890.2	5.95
1049.0206	3202.8997	894	6.4
1049.1235	3203.834	890.95	5.55
1049.2262	3204.7677	891.35	6.25
1049.329	3205.7008	891.2	3.95
1049.4317	3206.6333	887.1	2.55
1049.5343	3207.5652	892.35	5.4
1049.6369	3208.4964	890.5	5.9
1049.7394	3209.4271	890.55	6.45
1049.8419	3210.3571	889.5	4
1049.9444	3211.2865	889.15	2.6
1050.0468	3212.2154	892	5.95
1050.1491	3213.1436	893.45	2.75
1050.2514	3214.0712	899.85	5.8
1050.3537	3214.9982	891.6	5.45
1050.4559	3215.9246	890.05	5
1050.5581	3216.8503	889.15	5.25
1050.6602	3217.7755	889.75	5.1
1050.7623	3218.7001	889.25	2.9
1050.8643	3219.624	890.65	5.25
1050.9663	3220.5473	892.15	6.65
1051.0682	3221.4701	892.75	5.5
1051.1701	3222.3922	890	1.65
1051.2719	3223.3137	889.95	2.7
1051.3737	3224.2346	887.2	3.7
1051.4754	3225.1549	887.9	4.25
1051.5771	3226.0746	889.9	4.85
1051.6788	3226.9937	890.2	3.5
1051.7804	3227.9121	888.15	4.25
1051.8819	3228.83	890.7	5.45
1051.9834	3229.7473	889.45	2.6
1052.0849	3230.6639	889.05	2.5
1052.1863	3231.5799	888.45	3.35
1052.2876	3232.4954	890.8	4.15
1052.3889	3233.4102	890	5.25
1052.4902	3234.3244	888.85	2.35
1052.5914	3235.238	890.05	4.9
1052.6926	3236.151	914.3	6.35
1052.7937	3237.0634	888.7	3.8
1052.8948	3237.9752	888.85	2.4
1052.9958	3238.8864	889.85	3.85
1053.0968	3239.797	890.95	5.35
1053.1977	3240.7069	889.15	2.2
1053.2986	3241.6163	891.95	5.8
1053.3994	3242.5251	888.5	3.8
1053.5002	3243.4332	886.9	4.05
1053.6009	3244.3408	889.95	4.25
1053.7016	3245.2477	887.7	2.65
1053.8022	3246.154	888.85	1.55
1053.9028	3247.0598	890.7	6.25
1054.0034	3247.9649	890.05	4.7
1054.1039	3248.8694	888.45	2.9
1054.2043	3249.7733	889.5	2.4
1054.3047	3250.6766	890.1	3.1
1054.4051	3251.5793	889.8	3.7
1054.5054	3252.4814	887.95	4.15
1054.6056	3253.3829	885.9	1
1054.7058	3254.2838	889.5	4.55
1054.806	3255.1841	887.5	3.55
1054.9061	3256.0838	888.55	4.6
1055.0061	3256.9829	887.15	3.7
1055.1062	3257.8814	892.5	4.25
1055.2061	3258.7792	892.8	6.7
1055.306	3259.6765	891.65	5.35
1055.4059	3260.5731	890	6.2
1055.5057	3261.4692	889.55	3.15
1055.6055	3262.3647	888.2	2.9
1055.7052	3263.2595	888.4	1.85
1055.8049	3264.1538	887.75	2.25
1055.9045	3265.0474	890.45	3.55
1056.0041	3265.9404	887.8	2.9
1056.1036	3266.8329	887.2	2.45
1056.2031	3267.7247	898.1	3.5
1056.3025	3268.616	888.15	2
1056.4019	3269.5066	887.95	1.8
1056.5013	3270.3966	889.35	1.9
1056.6005	3271.286	887.95	2
