Software Version:	3.9.2.0
Unit SN:	10000200
Spectrometer SN:	6960
Date:	3/14/2024 1:36:19 PM
Data Line Index:	25
Spectral Points:	2048
Integration time (ms):	125
Averages:	20
Delay (ms):	30000
Sequence Number:	1
Processing:	dark subtract
Laser Power (mW):	300
Laser Current (mA):	824
Laser Diode Temp (C):	25
Laser Case Temp (C):	28.7
System Temp (C):	28.6
Spectrometer Temp (C):	26.5
CCD Temp (C):	0.007
Secondary Temp (C):	20.004
Heatsink Temp (C):	24.623
CCDPCB Temp (C):	37.43
SecondaryPCB Temp (C):	35.718

Wavelength	RamanShift	Raw Counts	Dark Subtracted
787.061	30.1047	467.05	57.4
787.2016	32.3739	468.4	59.7
787.3422	34.6426	472.7	63.8
787.4828	36.9109	476.9	66.3
787.6235	39.1787	490	74.65
787.7642	41.4461	499.8	78.4
787.9049	43.7131	506.35	82.15
788.0456	45.9796	515.95	89.15
788.1863	48.2456	529.65	97.4
788.3271	50.5112	538.55	102.35
788.4679	52.7764	550.1	111
788.6087	55.0411	558.6	117.1
788.7496	57.3054	573.8	127.45
788.8904	59.5692	578.75	129.8
789.0313	61.8326	594.45	141.15
789.1722	64.0955	613.2	154.65
789.3132	66.3579	635.05	172.05
789.4541	68.6199	647.65	181.45
789.5951	70.8815	688.15	220.5
789.7361	73.1426	771.7	300.15
789.8771	75.4032	989.85	512.45
790.0181	77.6634	1538.65	1054.65
790.1592	79.9231	2820.8	2332.1
790.3003	82.1824	5677.05	5176.7
790.4414	84.4412	10856.7	10337.95
790.5825	86.6995	18148.95	17606
790.7237	88.9574	25396.7	24828.15
790.8648	91.2148	30442.9	29860.55
791.006	93.4717	32836.9	32245.8
791.1472	95.7282	33308.6	32706.55
791.2885	97.9842	33222.3	32621.65
791.4297	100.2398	32547.2	31941
791.571	102.4949	31849	31240
791.7123	104.7495	30967.05	30354.7
791.8536	107.0036	30050.4	29435.45
791.9949	109.2573	29245.6	28635
792.1363	111.5105	28509.95	27898.4
792.2777	113.7632	27805.2	27189
792.4191	116.0154	27207.85	26581.25
792.5605	118.2672	26810.4	26193.2
792.7019	120.5185	26347.1	25728.6
792.8434	122.7693	26090.25	25468.95
792.9849	125.0197	25815.4	25189.1
793.1264	127.2696	25562.7	24936.7
793.2679	129.519	25360	24728.85
793.4094	131.7679	25083.5	24450.75
793.551	134.0163	24878.8	24243.25
793.6926	136.2642	24568.35	23927.05
793.8342	138.5117	24234.25	23580.35
793.9758	140.7587	23920.95	23278.1
794.1175	143.0052	23610.25	22961.05
794.2591	145.2512	23290.85	22642.25
794.4008	147.4967	22943.95	22295.95
794.5425	149.7417	22771.5	22120.6
794.6842	151.9863	22599.85	21947.45
794.826	154.2304	22534.2	21879.1
794.9677	156.4739	22355.75	21693.65
795.1095	158.717	22237.15	21577.1
795.2513	160.9596	22088.65	21421.6
795.3931	163.2017	21794.9	21125.3
795.535	165.4433	21464.7	20795.7
795.6768	167.6844	21133.05	20461.2
795.8187	169.925	20785.8	20113.55
795.9606	172.1651	20429.05	19752.05
796.1025	174.4047	20149.25	19468.5
796.2445	176.6439	19859.55	19177.6
796.3864	178.8825	19622.85	18938.45
796.5284	181.1206	19460.65	18773
796.6704	183.3582	19332.15	18641.45
796.8124	185.5954	19190.95	18498.05
796.9544	187.832	19130.15	18435
797.0965	190.0681	19075.3	18380
797.2386	192.3037	19066.25	18361.95
797.3806	194.5388	19063.15	18355.65
797.5228	196.7734	19074.35	18363.95
797.6649	199.0075	19130.8	18418
797.807	201.2411	19300.55	18587.65
797.9492	203.4742	19369.6	18653
798.0914	205.7068	19546.8	18831.8
798.2336	207.9389	19616.3	18900.85
798.3758	210.1704	19784.75	19064.25
798.518	212.4015	19877.25	19156.55
798.6603	214.632	20067.75	19344.5
798.8025	216.862	20198.25	19479.5
798.9448	219.0915	20278.9	19571.25
799.0871	221.3205	20412.55	19706.85
799.2294	223.549	20553.55	19855
799.3718	225.777	20726.55	20028
799.5141	228.0044	20862.6	20159.55
799.6565	230.2314	21178.8	20480.55
799.7989	232.4578	21416.7	20714.5
799.9413	234.6837	21606.05	20896.5
800.0837	236.909	21721.25	21017.9
800.2262	239.1339	21748.05	21017.5
800.3687	241.3582	21596.15	20880.85
800.5111	243.582	21424.25	20684.05
800.6536	245.8053	21251.35	20515.4
800.7961	248.0281	21105.4	20372
800.9387	250.2503	21003.9	20268.8
801.0812	252.472	20968.5	20226.3
801.2238	254.6932	21012.9	20271.95
801.3664	256.9139	21028.6	20284.65
801.509	259.134	21154.6	20404
801.6516	261.3536	21329.55	20583.65
801.7942	263.5727	21577.7	20831
801.9369	265.7912	21718.2	20970.95
802.0795	268.0092	21952.1	21205.2
802.2222	270.2267	22040.05	21292.8
802.3649	272.4436	22062.3	21312.95
802.5076	274.6601	22042.1	21281.55
802.6504	276.8759	21910.25	21156.4
802.7931	279.0913	21842.35	21089.2
802.9359	281.3061	21687.6	20932.7
803.0787	283.5204	21644.1	20887.05
803.2215	285.7341	21663.5	20901.4
803.3643	287.9473	21734.35	20959.75
803.5071	290.16	21858.05	21088.3
803.6499	292.3721	22006.05	21244.35
803.7928	294.5837	22322.7	21560.15
803.9357	296.7947	22554.25	21792.7
804.0786	299.0052	22738.8	21973.05
804.2215	301.2152	22630.4	21863.3
804.3644	303.4246	22379.95	21615.5
804.5074	305.6334	21912.85	21151.35
804.6503	307.8418	21478.65	20708
804.7933	310.0495	20991.65	20222.45
804.9363	312.2568	20581.05	19814.95
805.0793	314.4635	20210.65	19444.1
805.2223	316.6696	19961.6	19191.25
805.3653	318.8752	19803.05	19023
805.5084	321.0802	19781.25	19013
805.6514	323.2847	19785.7	19011.8
805.7945	325.4887	19822.6	19050.45
805.9376	327.692	19785.2	19008.5
806.0807	329.8949	19740.35	18966.9
806.2238	332.0972	19484.55	18709
806.367	334.2989	19247.25	18467.7
806.5101	336.5001	18962.3	18184.15
806.6533	338.7007	18762.1	17980.9
806.7965	340.9008	18579.6	17800.25
806.9397	343.1003	18432.8	17648.6
807.0829	345.2992	18345.45	17561.6
807.2261	347.4976	18253.85	17468.05
807.3693	349.6955	18163.75	17374.5
807.5126	351.8927	18161.8	17371.85
807.6559	354.0895	18106.1	17306.1
807.7991	356.2856	18101.65	17310.3
807.9424	358.4812	18037.5	17247.25
808.0857	360.6763	18086.7	17298.35
808.2291	362.8707	18039.1	17245.8
808.3724	365.0646	18063.85	17268.45
808.5158	367.258	18099.75	17306.4
808.6591	369.4508	18075.75	17280.35
808.8025	371.643	18232.75	17434.4
808.9459	373.8346	18245.15	17443.7
809.0893	376.0257	18295	17487.35
809.2327	378.2162	18247.5	17443.65
809.3762	380.4062	18202.6	17399.7
809.5196	382.5956	18016.65	17205.55
809.6631	384.7844	17930.75	17123.6
809.8066	386.9726	17758.55	16951.5
809.9501	389.1603	17644.65	16835.75
810.0936	391.3474	17631.95	16792
810.2371	393.5339	17580.4	16774.1
810.3806	395.7199	17519.05	16716.45
810.5241	397.9052	17497.85	16698.1
810.6677	400.09	17535.85	16736.5
810.8113	402.2743	17643.95	16844.6
810.9548	404.4579	17742.95	16945.2
811.0984	406.641	17953.75	17154.1
811.2421	408.8235	18145.55	17347.5
811.3857	411.0054	18384.15	17581.65
811.5293	413.1868	18634.65	17833.6
811.673	415.3675	18761.3	17957.15
811.8166	417.5477	18860.6	18054.75
811.9603	419.7273	18824.45	18016.15
812.104	421.9064	18710.6	17894.3
812.2477	424.0848	18595.4	17781.9
812.3914	426.2627	18410.9	17597.7
812.5351	428.4399	18131.15	17313.5
812.6788	430.6166	17772.4	16954.8
812.8226	432.7928	17354.95	16534.2
812.9663	434.9683	17040.95	16221.8
813.1101	437.1432	16813.55	15990.45
813.2539	439.3176	16613.9	15790.8
813.3977	441.4914	16519.05	15697.1
813.5415	443.6645	16468.7	15641.25
813.6853	445.8371	16377.45	15550.8
813.8291	448.0091	16278.45	15452.4
813.973	450.1806	16250.65	15424.95
814.1168	452.3514	16224.5	15394.5
814.2607	454.5216	16257.45	15426.25
814.4046	456.6913	16186.1	15360.05
814.5485	458.8603	16191.35	15367.7
814.6924	461.0288	16260.85	15433.45
814.8363	463.1967	16225.55	15397.9
814.9802	465.3639	16314.3	15485.2
815.1241	467.5306	16293.3	15464.6
815.2681	469.6967	16307.55	15476.65
815.412	471.8622	16393.45	15564.5
815.556	474.0271	16438.05	15609.1
815.7	476.1914	16479.7	15645.3
815.844	478.3551	16467.35	15637.7
815.988	480.5182	16508.5	15678.2
816.132	482.6807	16544.75	15712.5
816.276	484.8426	16698.55	15868.55
816.4201	487.0039	17013.15	16178.25
816.5641	489.1647	17418	16584.85
816.7082	491.3248	17790.1	16959.1
816.8522	493.4843	17911.4	17078.5
816.9963	495.6432	17884.4	17051.55
817.1404	497.8015	17731.9	16893.6
817.2845	499.9592	17603.35	16771.35
817.4286	502.1163	17455.65	16621.5
817.5727	504.2728	17162.15	16322.45
817.7168	506.4287	16825.6	15987.5
817.861	508.5839	16460.4	15624.3
818.0051	510.7386	16174.45	15340.1
818.1493	512.8927	16010.25	15167.6
818.2935	515.0461	15971.6	15136.15
818.4377	517.199	15984.95	15146.4
818.5818	519.3512	16102.6	15264.1
818.726	521.5029	16304.7	15461.55
818.8703	523.6539	16487.05	15647.25
819.0145	525.8043	16579.85	15739.85
819.1587	527.9541	16502.3	15659.6
819.303	530.1033	16322.25	15480.25
819.4472	532.2519	16237.9	15398.2
819.5915	534.3999	16256.7	15413.3
819.7357	536.5472	16394.5	15549.4
819.88	538.694	16659.15	15817.6
820.0243	540.8401	17007.75	16163.7
820.1686	542.9856	17382	16535.85
820.3129	545.1305	17434.75	16590.5
820.4572	547.2748	17307.25	16461.65
820.6016	549.4185	17014.55	16168.5
820.7459	551.5615	16754.1	15908
820.8902	553.704	16703.05	15852.95
821.0346	555.8458	16707.75	15862.75
821.1789	557.987	16834.15	15988.85
821.3233	560.1276	16965.9	16118.75
821.4677	562.2675	17211.5	16365.3
821.6121	564.4069	17578.2	16729.35
821.7565	566.5456	17872.55	17026.3
821.9009	568.6837	17952.95	17102.8
822.0453	570.8212	17576.4	16727.2
822.1897	572.958	16945.3	16094.6
822.3342	575.0942	16429.75	15582.45
822.4786	577.2299	16031.5	15184.65
822.6231	579.3648	15825.1	14977.7
822.7675	581.4992	15830.6	14982.8
822.912	583.6329	15965.2	15117.55
823.0565	585.766	16130.3	15285.05
823.201	587.8985	16249.55	15399.6
823.3454	590.0304	16288	15415.65
823.4899	592.1616	16196.8	15349.8
823.6345	594.2922	16053.4	15205.75
823.779	596.4222	15848.55	14999.2
823.9235	598.5515	15618.3	14768.8
824.068	600.6802	15447.4	14596.75
824.2126	602.8083	15270.45	14421.15
824.3571	604.9358	15204.45	14352
824.5017	607.0626	15209.6	14357.95
824.6462	609.1888	15278.95	14426.1
824.7908	611.3144	15319.2	14466.45
824.9354	613.4393	15375.7	14523.25
825.08	615.5636	15344	14495.45
825.2246	617.6873	15345	14492
825.3692	619.8103	15236.6	14382.45
825.5138	621.9327	15054.3	14195.2
825.6584	624.0544	14955.7	14100.65
825.803	626.1756	14794.45	13941.8
825.9477	628.2961	14690.3	13834.55
826.0923	630.4159	14578.05	13725.7
826.237	632.5351	14506.5	13652.25
826.3816	634.6537	14488.15	13634.2
826.5263	636.7716	14478.25	13622.25
826.6709	638.8889	14437.45	13580.65
826.8156	641.0056	14497.8	13640.45
826.9603	643.1216	14462.6	13602.8
827.105	645.237	14470.1	13611.2
827.2497	647.3518	14344.8	13490.1
827.3944	649.4659	14312.25	13453
827.5391	651.5793	14247	13387.35
827.6838	653.6922	14226	13366.65
827.8285	655.8043	14187.2	13331
827.9733	657.9159	14163.3	13305.35
828.118	660.0268	14115.65	13253.9
828.2627	662.137	14067.3	13208.1
828.4075	664.2466	14067.6	13206.75
828.5522	666.3556	14031	13169.5
828.697	668.4639	13994	13132.45
828.8418	670.5716	13982.5	13120.7
828.9865	672.6786	13961.4	13099.95
829.1313	674.785	13927.45	13065.7
829.2761	676.8907	13939.35	13077.7
829.4209	678.9958	13967.3	13107
829.5657	681.1002	13905.2	13043.45
829.7105	683.204	13908.55	13044.35
829.8553	685.3072	13869.7	13005.55
830.0001	687.4097	13801.2	12939.35
830.1449	689.5115	13770.7	12905.95
830.2898	691.6127	13744	12880.8
830.4346	693.7132	13691.1	12826.25
830.5794	695.8131	13693.95	12815.9
830.7243	697.9123	13672.35	12805.8
830.8691	700.0109	13652.8	12786.45
831.014	702.1089	13655.55	12793.85
831.1588	704.2061	13672.6	12808.55
831.3037	706.3028	13720.1	12853.7
831.4486	708.3987	13722.55	12855.3
831.5935	710.4941	13773.85	12908.65
831.7383	712.5887	13834.5	12968.3
831.8832	714.6827	14007.05	13139.85
832.0281	716.7761	14200.95	13332.9
832.173	718.8688	14413.95	13547.45
832.3179	720.9608	14595.75	13725.4
832.4628	723.0522	14707.25	13837.15
832.6077	725.1429	14661.8	13796.05
832.7527	727.233	14607.9	13740.6
832.8976	729.3224	14525.3	13657.75
833.0425	731.4112	14362.55	13491.85
833.1874	733.4993	14200.55	13333
833.3324	735.5867	13959.5	13087.85
833.4773	737.6735	13774.9	12902.45
833.6222	739.7596	13581.5	12711.55
833.7672	741.845	13458.95	12589.55
833.9122	743.9298	13391.1	12524.2
834.0571	746.014	13334.4	12465.1
834.2021	748.0974	13333.75	12462.35
834.347	750.1802	13286.55	12417.75
834.492	752.2624	13298.15	12428.2
834.637	754.3439	13355.6	12486.2
834.782	756.4247	13463.2	12583.3
834.9269	758.5048	13585	12714.5
835.0719	760.5843	13836.85	12970.15
835.2169	762.6631	14239.3	13367.25
835.3619	764.7413	14788.35	13919
835.5069	766.8188	15433.75	14562.05
835.6519	768.8956	16010.65	15138.85
835.7969	770.9718	16344.7	15473.4
835.9419	773.0473	16272.2	15401.25
836.0869	775.1221	15956.95	15085.85
836.232	777.1962	15604.95	14732.8
836.377	779.2697	15475.75	14602.75
836.522	781.3426	15479.4	14596.5
836.667	783.4147	15626.05	14754.9
836.8121	785.4862	15788.9	14920.35
836.9571	787.557	15686.3	14813.9
837.1021	789.6271	15192.65	14319.45
837.2472	791.6966	14597.6	13726.2
837.3922	793.7654	13968.1	13095.4
837.5373	795.8335	13563.35	12689.9
837.6823	797.901	13251.5	12380.5
837.8274	799.9678	13129.4	12254.65
837.9724	802.0339	13038.55	12169.25
838.1175	804.0993	12998.9	12118.05
838.2626	806.1641	12958.8	12086.6
838.4076	808.2282	12869.95	11995
838.5527	810.2916	12768.95	11893.05
838.6978	812.3544	12677.55	11803.15
838.8428	814.4164	12597.75	11725.55
838.9879	816.4778	12624.6	11751.15
839.133	818.5385	12623.25	11753.75
839.2781	820.5986	12761.05	11888.75
839.4232	822.658	12959.15	12085.7
839.5682	824.7166	13207.35	12334.55
839.7133	826.7747	13630.15	12757.1
839.8584	828.832	14046.1	13172.4
840.0035	830.8886	14355.3	13479.95
840.1486	832.9446	14523.95	13651.35
840.2937	834.9999	14412.85	13540.5
840.4388	837.0545	14205.2	13327.7
840.5839	839.1085	13941.35	13067.7
840.729	841.1618	13692.3	12811.95
840.8741	843.2143	13494	12622
841.0192	845.2662	13283.9	12409.25
841.1643	847.3175	13181.35	12307.75
841.3095	849.368	13047.65	12173.25
841.4546	851.4179	12934.2	12057
841.5997	853.467	12795.45	11923.15
841.7448	855.5155	12725.3	11849.4
841.8899	857.5633	12606.1	11730.4
842.0351	859.6105	12490.75	11617.6
842.1802	861.6569	12394.7	11519.55
842.3253	863.7027	12323.95	11448.7
842.4704	865.7478	12267.9	11391.8
842.6156	867.7922	12227.45	11350.3
842.7607	869.8359	12223.25	11349.55
842.9058	871.8789	12280.3	11401.6
843.0509	873.9212	12399.1	11488
843.1961	875.9629	12494	11615.65
843.3412	878.0039	12615.65	11738.35
843.4863	880.0441	12690.75	11813.75
843.6315	882.0837	12728.35	11851.2
843.7766	884.1226	12707.85	11827.25
843.9218	886.1609	12700.55	11826.45
844.0669	888.1984	12722.05	11845.35
844.212	890.2352	12764.2	11887.25
844.3572	892.2714	12756.15	11874.35
844.5023	894.3069	12683.45	11806.65
844.6475	896.3416	12547.9	11668.2
844.7926	898.3757	12451.55	11574.6
844.9377	900.4091	12353.7	11476.75
845.0829	902.4418	12354.5	11471.65
845.228	904.4739	12375.55	11497.5
845.3732	906.5052	12399.65	11520.35
845.5183	908.5358	12331.8	11454.95
845.6635	910.5658	12223.85	11346.7
845.8086	912.595	12004.45	11127
845.9538	914.6236	11780.15	10900.4
846.0989	916.6515	11663.3	10785.15
846.2441	918.6786	11559.35	10681.15
846.3892	920.7051	11590	10711.5
846.5344	922.7309	11636.6	10759.45
846.6795	924.756	11675.3	10795.15
846.8246	926.7804	11738.3	10860.75
846.9698	928.8041	11676.45	10797.1
847.1149	930.8272	11745.1	10865.05
847.2601	932.8495	11687.15	10804.65
847.4052	934.8711	11652.65	10771.95
847.5504	936.892	11541.95	10661.4
847.6955	938.9123	11489.7	10610.25
847.8407	940.9318	11478.65	10600.85
847.9858	942.9506	11409.3	10528.1
848.131	944.9688	11310.6	10432.45
848.2761	946.9862	11237.3	10359.15
848.4213	949.003	11110.5	10230.75
848.5664	951.019	11018.95	10139.4
848.7115	953.0344	10983	10104.55
848.8567	955.0491	10970.25	10089.35
849.0018	957.063	11002.55	10123.45
849.147	959.0763	11075.45	10196.65
849.2921	961.0888	11111.35	10229.8
849.4373	963.1007	11175.05	10293.6
849.5824	965.1119	11210	10331
849.7275	967.1223	11178.55	10300.75
849.8727	969.1321	11172.15	10291.55
850.0178	971.1412	11175.35	10295.95
850.1629	973.1495	11162.9	10284.65
850.3081	975.1572	11175.85	10264.35
850.4532	977.1641	11193.35	10312.4
850.5983	979.1704	11175.6	10293.7
850.7435	981.1759	11120.7	10239.05
850.8886	983.1808	11141.25	10260.8
851.0337	985.1849	11172.95	10282.6
851.1788	987.1884	11256.35	10374.55
851.324	989.1911	11372.9	10488.45
851.4691	991.1932	11458.7	10576.55
851.6142	993.1945	11481.4	10600.4
851.7593	995.1951	11466.45	10586.85
851.9045	997.1951	11412.75	10525.45
852.0496	999.1943	11367.15	10487.25
852.1947	1001.1928	11336.9	10456.8
852.3398	1003.1906	11344.05	10464.35
852.4849	1005.1877	11439.35	10557.9
852.63	1007.1841	11473.15	10593.95
852.7751	1009.1798	11470.15	10589.55
852.9202	1011.1748	11356.3	10472.45
853.0653	1013.1691	11173.9	10293.2
853.2104	1015.1627	10943.15	10059.05
853.3555	1017.1556	10731.75	9851.3
853.5006	1019.1477	10599.4	9718.2
853.6457	1021.1392	10478.4	9597.85
853.7908	1023.1299	10445.35	9565.15
853.9359	1025.12	10465.1	9581.25
854.081	1027.1093	10512.85	9631.55
854.2261	1029.0979	10581.65	9704.85
854.3712	1031.0859	10689.3	9807.85
854.5163	1033.0731	10703.7	9822.25
854.6613	1035.0596	10653.6	9770.95
854.8064	1037.0454	10505.95	9623.5
854.9515	1039.0304	10363	9481.55
855.0965	1041.0148	10259.4	9378.2
855.2416	1042.9985	10147.9	9267.5
855.3867	1044.9814	10110	9228.05
855.5317	1046.9636	10044.9	9161.55
855.6768	1048.9452	10019.3	9137.05
855.8219	1050.926	10018.4	9138.4
855.9669	1052.9061	10030	9150.15
856.112	1054.8855	10023.85	9143.8
856.257	1056.8642	10058.55	9176.2
856.4021	1058.8421	10103.5	9219.8
856.5471	1060.8194	10140.95	9255.95
856.6921	1062.7959	10197.15	9314.15
856.8372	1064.7717	10222.05	9337.95
856.9822	1066.7469	10293.95	9408.25
857.1272	1068.7213	10314.05	9430.55
857.2723	1070.695	10381.7	9499.6
857.4173	1072.6679	10377.65	9493.8
857.5623	1074.6402	10366.95	9485.65
857.7073	1076.6117	10322.85	9436.3
857.8523	1078.5826	10222.3	9340.3
857.9973	1080.5527	10144.2	9258.85
858.1423	1082.5221	10109.4	9226.95
858.2873	1084.4908	10145.05	9261.8
858.4323	1086.4587	10211.7	9326.5
858.5773	1088.426	10305.2	9422.3
858.7223	1090.3925	10307.2	9419.5
858.8673	1092.3584	10280.05	9399.1
859.0123	1094.3235	10238.45	9357.85
859.1573	1096.2879	10239.95	9356.55
859.3022	1098.2515	10347.9	9465.4
859.4472	1100.2145	10456.75	9573.9
859.5922	1102.1767	10622.95	9739.5
859.7371	1104.1382	10815.85	9931.15
859.8821	1106.099	11097.5	10213.25
860.027	1108.0591	11318.2	10437.8
860.172	1110.0185	11485.05	10599.1
860.3169	1111.9771	11525.5	10643.65
860.4619	1113.9351	11390.3	10505.2
860.6068	1115.8923	11176.9	10295.35
860.7517	1117.8488	10961.3	10076.3
860.8967	1119.8045	10751.6	9868.6
861.0416	1121.7596	10614.9	9731.35
861.1865	1123.7139	10531.35	9647.6
861.3314	1125.6675	10475.05	9592.3
861.4763	1127.6204	10519.45	9637.2
861.6212	1129.5726	10463.15	9576.2
861.7661	1131.524	10369.95	9488.65
861.911	1133.4748	10270.05	9386.5
862.0559	1135.4248	10112.2	9225.7
862.2008	1137.3741	9991.2	9108.3
862.3457	1139.3226	9922.95	9041.9
862.4905	1141.2705	9840.4	8958.25
862.6354	1143.2176	9755.35	8867.1
862.7803	1145.164	9705.3	8822.3
862.9251	1147.1097	9642.25	8759.9
863.07	1149.0546	9569.75	8685.8
863.2148	1150.9989	9464.25	8579.55
863.3597	1152.9424	9345.7	8462.15
863.5045	1154.8852	9236.05	8353.85
863.6493	1156.8272	9149.5	8267.45
863.7942	1158.7686	9166.5	8275.9
863.939	1160.7092	9157.45	8275.3
864.0838	1162.6491	9187.15	8301.65
864.2286	1164.5883	9277.7	8395.8
864.3734	1166.5267	9380.8	8495.95
864.5182	1168.4644	9530.65	8646.65
864.663	1170.4014	9708.5	8823.1
864.8078	1172.3377	9985.15	9103.65
864.9526	1174.2732	10262.6	9378.9
865.0974	1176.2081	10639.6	9759.2
865.2421	1178.1421	11032.25	10145.25
865.3869	1180.0755	11481.65	10598.2
865.5317	1182.0082	11810.7	10926.35
865.6764	1183.9401	11941.9	11057.85
865.8212	1185.8713	11770.15	10887.25
865.9659	1187.8017	11512.85	10629.35
866.1106	1189.7315	11144.2	10261.3
866.2554	1191.6605	10795.6	9885.95
866.4001	1193.5888	10462.7	9579.55
866.5448	1195.5163	10306.8	9424.85
866.6895	1197.4432	10238.6	9352.5
866.8342	1199.3693	10179.6	9296.2
866.9789	1201.2947	10151.1	9262.6
867.1236	1203.2193	10144.25	9261.1
867.2683	1205.1432	10121.9	9236.45
867.413	1207.0664	10116.75	9232.15
867.5576	1208.9889	10095.15	9206.7
867.7023	1210.9106	10099.05	9216.35
867.847	1212.8316	10072.65	9190.25
867.9916	1214.7519	10116.7	9223.5
868.1363	1216.6715	10153.25	9269.95
868.2809	1218.5903	10219.05	9334.1
868.4255	1220.5084	10245.8	9364.45
868.5701	1222.4257	10314.45	9429.45
868.7148	1224.3424	10345.65	9462.15
868.8594	1226.2583	10449.15	9558.6
869.004	1228.1735	10587.6	9701.95
869.1486	1230.0879	10690.8	9806.75
869.2932	1232.0016	10856.6	9974.05
869.4377	1233.9146	10965.45	10080.2
869.5823	1235.8269	10917.55	10033.95
869.7269	1237.7384	10837.65	9954.2
869.8715	1239.6492	10657	9774.4
870.016	1241.5592	10604.2	9719.05
870.1606	1243.4686	10594.5	9710.25
870.3051	1245.3772	10698.05	9814.55
870.4496	1247.285	10834.35	9949.4
870.5941	1249.1922	10941.55	10059
870.7387	1251.0986	11041.2	10158.3
870.8832	1253.0042	11074.6	10189.45
871.0277	1254.9092	11139.05	10254.05
871.1722	1256.8134	11233.95	10352.25
871.3167	1258.7169	11408	10524.55
871.4611	1260.6196	11567.35	10683.15
871.6056	1262.5216	11777.85	10891.95
871.7501	1264.4229	11964	11079.45
871.8945	1266.3234	12161.2	11277.6
872.039	1268.2232	12285.8	11400.6
872.1834	1270.1223	12329.45	11442.2
872.3278	1272.0207	12346.6	11462.2
872.4723	1273.9183	12323.15	11434.25
872.6167	1275.8151	12262.7	11378.15
872.7611	1277.7113	12194.5	11308.3
872.9055	1279.6067	12209.8	11324
873.0499	1281.5014	12347	11460.9
873.1943	1283.3953	12598.7	11712.8
873.3386	1285.2885	12940.45	12056.15
873.483	1287.181	13333.2	12449.35
873.6274	1289.0727	13695.6	12810.7
873.7717	1290.9637	13973.95	13087.4
873.9161	1292.854	14130.55	13247.75
874.0604	1294.7435	14120.35	13235.5
874.2047	1296.6323	14107	13221.95
874.349	1298.5204	14063.1	13174.85
874.4933	1300.4077	13969.35	13083.05
874.6376	1302.2943	13843.4	12962.7
874.7819	1304.1802	13637.9	12753.7
874.9262	1306.0653	13276.15	12390.3
875.0705	1307.9497	12894.3	12008.95
875.2147	1309.8333	12518.8	11631.7
875.359	1311.7162	12280.65	11395.4
875.5032	1313.5984	12137.6	11250.9
875.6475	1315.4798	12073.55	11175.35
875.7917	1317.3605	12072.5	11173.65
875.9359	1319.2405	11991.65	11107.6
876.0801	1321.1197	11800.9	10916.9
876.2243	1322.9982	11562.35	10676.85
876.3685	1324.876	11360.35	10475.8
876.5127	1326.753	11132.85	10248.2
876.6569	1328.6293	10985.25	10097
876.801	1330.5048	10842.2	9955.15
876.9452	1332.3796	10713.15	9829.35
877.0893	1334.2537	10659.35	9747.65
877.2335	1336.127	10597.55	9711.55
877.3776	1337.9996	10572.4	9686.85
877.5217	1339.8714	10579.2	9695.8
877.6658	1341.7426	10580.7	9654.9
877.8099	1343.6129	10562.4	9675.65
877.954	1345.4826	10532.8	9648.5
878.0981	1347.3515	10544.9	9656.55
878.2422	1349.2196	10536.1	9652.05
878.3862	1351.087	10560.4	9675.6
878.5303	1352.9537	10612.5	9725.55
878.6743	1354.8197	10720.65	9835.25
878.8184	1356.6849	10901.5	10015.75
878.9624	1358.5493	11069.55	10184.4
879.1064	1360.4131	11187.8	10303.35
879.2504	1362.276	11292.1	10405.85
879.3944	1364.1383	11259.5	10374.65
879.5384	1365.9998	11057	10167.7
879.6823	1367.8606	10710.1	9823.45
879.8263	1369.7206	10328.7	9441.7
879.9702	1371.5799	10022.05	9134.75
880.1142	1373.4384	9759.85	8874.8
880.2581	1375.2962	9552.4	8666.65
880.402	1377.1533	9224.4	8339.9
880.5459	1379.0096	8844.25	7958.9
880.6898	1380.8652	8502.75	7617.9
880.8337	1382.7201	8227.8	7341.7
880.9776	1384.5742	7999.55	7114.3
881.1215	1386.4275	7812.6	6926.1
881.2653	1388.2802	7671.8	6786.85
881.4092	1390.132	7557.65	6672.5
881.553	1391.9832	7480.85	6593.65
881.6968	1393.8336	7404.4	6519.6
881.8406	1395.6832	7393.35	6507.3
881.9844	1397.5322	7317.7	6432.15
882.1282	1399.3803	7286.15	6394.7
882.272	1401.2278	7265.2	6380.25
882.4158	1403.0745	7250.5	6364.15
882.5595	1404.9204	7232.1	6347.55
882.7033	1406.7656	7273.75	6387.85
882.847	1408.6101	7274.3	6386.9
882.9908	1410.4538	7299.9	6412.7
883.1345	1412.2968	7362.65	6477.6
883.2782	1414.139	7393.95	6507.85
883.4219	1415.9805	7486.6	6603.5
883.5656	1417.8213	7562.25	6671.25
883.7092	1419.6613	7690.05	6806.65
883.8529	1421.5006	7839	6951.65
883.9965	1423.3391	8077.05	7190.05
884.1402	1425.1769	8381.8	7496.65
884.2838	1427.0139	8818.8	7932.85
884.4274	1428.8502	9383.05	8496.1
884.571	1430.6858	9941.95	9057.6
884.7146	1432.5206	10367.6	9480.2
884.8582	1434.3547	10574.65	9688.45
885.0018	1436.188	10601.7	9717.45
885.1453	1438.0206	10481.4	9596
885.2889	1439.8524	10334.85	9449.45
885.4324	1441.6835	10204.85	9316.3
885.5759	1443.5139	10132.95	9244.95
885.7194	1445.3435	10034.3	9147.85
885.8629	1447.1724	9999.45	9113.4
886.0064	1449.0005	9938.4	9055.15
886.1499	1450.8279	9869.75	8982.15
886.2933	1452.6545	9858.05	8973.9
886.4368	1454.4804	9880.35	8999.25
886.5802	1456.3056	9867.25	8975.3
886.7237	1458.13	9800.45	8918.35
886.8671	1459.9536	9632.7	8747.95
887.0105	1461.7766	9336.45	8451.25
887.1539	1463.5987	8975.7	8088.55
887.2972	1465.4202	8636.4	7750.35
887.4406	1467.2409	8280.7	7394.45
887.584	1469.0608	8011	7125.15
887.7273	1470.88	7713	6827.35
887.8706	1472.6984	7495.2	6609.9
888.0139	1474.5161	7279.55	6390.3
888.1572	1476.3331	7133.65	6249.45
888.3005	1478.1493	6985.75	6100.3
888.4438	1479.9648	6916.2	6030.4
888.5871	1481.7795	6832.4	5949.4
888.7303	1483.5935	6771	5885.25
888.8736	1485.4067	6699.25	5813.45
889.0168	1487.2192	6644.75	5761.65
889.16	1489.031	6611.5	5723.65
889.3032	1490.842	6561.9	5676.3
889.4464	1492.6522	6546.95	5661.8
889.5896	1494.4618	6477.45	5591.35
889.7327	1496.2705	6474.9	5590.1
889.8759	1498.0785	6425.3	5539.65
890.019	1499.8858	6370.55	5486.05
890.1622	1501.6924	6341.8	5455.55
890.3053	1503.4981	6307.85	5423.8
890.4484	1505.3032	6285.2	5399.4
890.5914	1507.1075	6241.9	5355.65
890.7345	1508.911	6216.3	5332.35
890.8776	1510.7138	6151.15	5263.2
891.0206	1512.5159	6123.4	5236.8
891.1637	1514.3172	6088.7	5201.85
891.3067	1516.1178	6034.65	5148.45
891.4497	1517.9176	6028.3	5140.8
891.5927	1519.7166	5976.2	5090.1
891.7357	1521.515	5961.6	5071.35
891.8786	1523.3126	5932.9	5047.45
892.0216	1525.1094	5909	5022.85
892.1645	1526.9055	5882.85	4999.4
892.3074	1528.7008	5854.7	4968.65
892.4503	1530.4954	5833.9	4946.5
892.5932	1532.2893	5829.1	4945.1
892.7361	1534.0824	5813.8	4922.3
892.879	1535.8747	5810.55	4924.1
893.0218	1537.6663	5801.75	4916.2
893.1647	1539.4572	5798.2	4912.75
893.3075	1541.2473	5806.6	4920.8
893.4503	1543.0367	5800.6	4916.65
893.5931	1544.8253	5797	4908.9
893.7359	1546.6132	5806.15	4919.15
893.8787	1548.4003	5837.45	4944
894.0214	1550.1867	5876.5	4981.85
894.1642	1551.9723	5927.7	5037.6
894.3069	1553.7572	5988.9	5102.05
894.4496	1555.5414	6075.7	5191.35
894.5923	1557.3247	6196.75	5311.35
894.735	1559.1074	6339.05	5453.95
894.8777	1560.8893	6498.6	5616.05
895.0204	1562.6705	6650.7	5765.35
895.163	1564.4509	6771.4	5886.2
895.3056	1566.2305	6823.55	5941
895.4482	1568.0094	6867.95	5984.65
895.5908	1569.7876	6900.75	6014.9
895.7334	1571.565	6860.15	5973.95
895.876	1573.3417	6892.1	6006.7
896.0186	1575.1176	6859.1	5976.05
896.1611	1576.8928	6832.55	5946.8
896.3036	1578.6672	6809.75	5927.05
896.4461	1580.4409	6768.35	5885.3
896.5886	1582.2138	6767.8	5881.7
896.7311	1583.986	6771.85	5886.7
896.8736	1585.7575	6804.8	5921
897.0161	1587.5282	6847.75	5962
897.1585	1589.2981	6927.9	6044.35
897.3009	1591.0673	6989	6104
897.4433	1592.8358	7074.75	6190.75
897.5857	1594.6035	7140.5	6254.3
897.7281	1596.3704	7191.75	6306.7
897.8705	1598.1366	7267.9	6383.85
898.0128	1599.9021	7353.45	6469.05
898.1551	1601.6668	7442.6	6555.45
898.2975	1603.4308	7561.85	6678.85
898.4398	1605.194	7715.4	6827.2
898.5821	1606.9564	7894.6	7011.55
898.7243	1608.7182	8126.45	7238.6
898.8666	1610.4791	8404.7	7520.2
899.0088	1612.2394	8686.5	7801.15
899.1511	1613.9988	8949.7	8061.8
899.2933	1615.7576	9252.2	8367.6
899.4355	1617.5156	9445.3	8554.8
899.5776	1619.2728	9579.85	8696.9
899.7198	1621.0293	9541.25	8658.4
899.862	1622.785	9436.9	8545.35
900.0041	1624.54	9175.95	8289.45
900.1462	1626.2942	8874.05	7989.65
900.2883	1628.0477	8559.95	7673.95
900.4304	1629.8005	8233.35	7345.75
900.5725	1631.5525	7938	7054.4
900.7145	1633.3037	7684.05	6798.75
900.8566	1635.0542	7494.7	6611.1
900.9986	1636.804	7347.45	6461.6
901.1406	1638.553	7282.05	6344.15
901.2826	1640.3013	7186.3	6302.95
901.4245	1642.0488	7151.4	6266.3
901.5665	1643.7955	7189.05	6307.45
901.7085	1645.5416	7243.3	6359.75
901.8504	1647.2868	7352.85	6470.15
901.9923	1649.0313	7469.6	6586.2
902.1342	1650.7751	7599.8	6713.8
902.2761	1652.5181	7770.3	6887.5
902.4179	1654.2604	7921.6	7037.2
902.5598	1656.0019	8170.45	7286.75
902.7016	1657.7427	8452.35	7568.1
902.8434	1659.4828	8729.7	7846.1
902.9852	1661.222	8898.25	8015.6
903.127	1662.9606	8876.25	7994.35
903.2687	1664.6984	8656.6	7770.65
903.4105	1666.4354	8190	7306.7
903.5522	1668.1717	7655.75	6772.65
903.6939	1669.9072	7072	6188.9
903.8356	1671.642	6626.8	5741.75
903.9773	1673.3761	6227.7	5347.6
904.119	1675.1094	5910.3	5028.2
904.2606	1676.8419	5674.15	4791.1
904.4022	1678.5737	5471.7	4587.3
904.5439	1680.3048	5330.95	4448.05
904.6855	1682.0351	5210.9	4328.85
904.827	1683.7646	5103.7	4219
904.9686	1685.4934	5044.75	4162.85
905.1101	1687.2215	4952	4068
905.2517	1688.9488	4896.6	4013.45
905.3932	1690.6754	4833.65	3952.15
905.5347	1692.4012	4800.9	3919.85
905.6761	1694.1263	4754.95	3871.85
905.8176	1695.8506	4732.8	3850.2
905.9591	1697.5742	4692.35	3811.15
906.1005	1699.297	4641.85	3759.7
906.2419	1701.0191	4602.5	3719.2
906.3833	1702.7404	4573.8	3690.4
906.5246	1704.461	4536	3651.25
906.666	1706.1808	4506.1	3622.15
906.8073	1707.8999	4479.7	3596.7
906.9487	1709.6182	4459.45	3576.6
907.09	1711.3358	4443.1	3562.05
907.2313	1713.0527	4428.4	3545.1
907.3725	1714.7688	4389.5	3499.55
907.5138	1716.4841	4376.05	3490.1
907.655	1718.1987	4363.65	3476.3
907.7962	1719.9126	4338	3457.1
907.9374	1721.6257	4307.15	3421.7
908.0786	1723.338	4294.75	3410.05
908.2198	1725.0496	4278.95	3396.05
908.3609	1726.7605	4279.45	3396.05
908.502	1728.4706	4272.1	3387.05
908.6431	1730.18	4254.4	3369.25
908.7842	1731.8886	4235.3	3351.3
908.9253	1733.5964	4234.35	3346.2
909.0664	1735.3036	4206.65	3320.95
909.2074	1737.0099	4182.75	3299.8
909.3484	1738.7156	4170.1	3286.95
909.4894	1740.4204	4136.1	3250.2
909.6304	1742.1246	4126.3	3242.2
909.7714	1743.8279	4093.9	3210.75
909.9123	1745.5306	4093.55	3209.25
910.0532	1747.2325	4057.7	3176.1
910.1941	1748.9336	4045.5	3162.6
910.335	1750.634	4030.45	3145.75
910.4759	1752.3336	4017.45	3135.4
910.6168	1754.0325	4013.3	3129.75
910.7576	1755.7307	4007.1	3125.4
910.8984	1757.4281	4019.1	3135.05
911.0392	1759.1247	3987.55	3096.4
911.18	1760.8206	3986.25	3097.9
911.3208	1762.5158	3978.6	3092.35
911.4615	1764.2102	3950.15	3066.85
911.6022	1765.9039	3946.85	3062.55
911.7429	1767.5968	3941.45	3059.8
911.8836	1769.289	3915	3031.2
912.0243	1770.9804	3911.15	3026.9
912.1649	1772.6711	3922.25	3040.15
912.3056	1774.361	3903.85	3019.15
912.4462	1776.0502	3890.6	3006.05
912.5868	1777.7386	3897.55	3012.35
912.7274	1779.4263	3867	2983.95
912.8679	1781.1132	3857.6	2975.1
913.0084	1782.7994	3862.7	2975.2
913.149	1784.4849	3858.5	2974.55
913.2895	1786.1696	3860.05	2957.2
913.4299	1787.8535	3841.25	2959.55
913.5704	1789.5367	3827.55	2942.7
913.7108	1791.2192	3832.15	2947.8
913.8513	1792.9009	3819.5	2922.7
913.9917	1794.5818	3813.65	2929.3
914.132	1796.2621	3785.55	2903.7
914.2724	1797.9415	3773.8	2888.4
914.4128	1799.6202	3772.85	2892.5
914.5531	1801.2982	3768	2886.8
914.6934	1802.9755	3768.95	2884.5
914.8337	1804.6519	3770.2	2886.05
914.9739	1806.3277	3734.45	2851.65
915.1142	1808.0027	3730.3	2848.5
915.2544	1809.6769	3734.95	2851.1
915.3946	1811.3504	3728.5	2842.65
915.5348	1813.0231	3712.05	2829.2
915.675	1814.6951	3699.15	2814.25
915.8151	1816.3664	3713.9	2830.15
915.9553	1818.0369	3701.45	2817.55
916.0954	1819.7067	3678.45	2798.9
916.2355	1821.3757	3680.6	2795
916.3755	1823.044	3667.15	2784.9
916.5156	1824.7115	3661.25	2781.65
916.6556	1826.3783	3650.7	2767.2
916.7956	1828.0443	3662.25	2781.65
916.9356	1829.7096	3635.35	2749
917.0756	1831.3741	3639.75	2754.8
917.2155	1833.0379	3636.95	2753.9
917.3555	1834.701	3621.15	2735.7
917.4954	1836.3633	3631.1	2747
917.6353	1838.0248	3623.55	2740.55
917.7751	1839.6856	3608.3	2725.55
917.915	1841.3457	3621.1	2739
918.0548	1843.005	3602.65	2718.5
918.1946	1844.6636	3587.85	2705
918.3344	1846.3214	3593.1	2709.7
918.4742	1847.9785	3587.8	2705.15
918.6139	1849.6349	3572.9	2691.6
918.7537	1851.2904	3585.3	2693.15
918.8934	1852.9453	3565.35	2683
919.0331	1854.5994	3563.4	2679.35
919.1727	1856.2528	3557.9	2670.45
919.3124	1857.9054	3541.7	2657.65
919.452	1859.5572	3557.55	2674.85
919.5916	1861.2083	3542.2	2657.8
919.7312	1862.8587	3537.2	2653.1
919.8708	1864.5084	3523.7	2640.05
920.0103	1866.1572	3511.45	2629.95
920.1498	1867.8054	3502.3	2620.6
920.2893	1869.4528	3492.25	2607.95
920.4288	1871.0994	3497.2	2614.8
920.5683	1872.7453	3497.25	2612.45
920.7077	1874.3905	3499.3	2598.1
920.8471	1876.0349	3489.75	2606.8
920.9865	1877.6786	3486.85	2601.85
921.1259	1879.3215	3482.5	2598.85
921.2653	1880.9637	3467.9	2583.65
921.4046	1882.6051	3459.05	2576.75
921.5439	1884.2458	3459.75	2577.35
921.6832	1885.8858	3432.8	2547.9
921.8225	1887.525	3427.95	2544.85
921.9617	1889.1634	3421.3	2538.5
922.101	1890.8011	3419.9	2536.15
922.2402	1892.4381	3394.1	2512.75
922.3794	1894.0743	3411	2526.9
922.5185	1895.7098	3406.6	2522.75
922.6577	1897.3446	3389.05	2505.35
922.7968	1898.9786	3386.95	2499.7
922.9359	1900.6118	3386.5	2505.15
923.075	1902.2443	3376.05	2488.55
923.214	1903.8761	3360.05	2477.9
923.3531	1905.5071	3354.25	2471
923.4921	1907.1374	3350.4	2468.1
923.6311	1908.7669	3342.1	2460.3
923.77	1910.3957	3339.2	2455.4
923.909	1912.0237	3315.65	2433.4
924.0479	1913.651	3316.4	2431.7
924.1868	1915.2776	3317.35	2435.85
924.3257	1916.9034	3303.4	2421.6
924.4646	1918.5285	3279.7	2396.5
924.6034	1920.1528	3270.3	2388.4
924.7422	1921.7764	3276.3	2393
924.881	1923.3992	3284.05	2402.1
925.0198	1925.0213	3260.75	2378.65
925.1586	1926.6427	3241.65	2361.15
925.2973	1928.2633	3329.8	2343.05
925.436	1929.8832	3243.75	2360.9
925.5747	1931.5023	3234.1	2351.75
925.7134	1933.1207	3225.9	2343.65
925.852	1934.7383	3228.95	2345.05
925.9906	1936.3552	3213.35	2331.45
926.1292	1937.9714	3212	2330.65
926.2678	1939.5868	3193.5	2309.75
926.4064	1941.2015	3179.85	2294.8
926.5449	1942.8154	3170.25	2286.45
926.6834	1944.4286	3167.95	2284.65
926.8219	1946.041	3170.75	2265.15
926.9604	1947.6528	3142.1	2254.4
927.0988	1949.2637	3138.9	2258.55
927.2372	1950.8739	3138.75	2255.2
927.3756	1952.4834	3136.3	2252.75
927.514	1954.0921	3126.4	2243.6
927.6523	1955.7001	3121.35	2232.8
927.7907	1957.3074	3120.45	2238.9
927.929	1958.9139	3085.1	2201.7
928.0673	1960.5197	3081.2	2196.65
928.2055	1962.1247	3087.6	2205.8
928.3438	1963.729	3071.35	2188.15
928.482	1965.3325	3072.6	2164.15
928.6202	1966.9353	3058.05	2175.75
928.7584	1968.5374	3042.65	2158.15
928.8965	1970.1387	3029.3	2147
929.0346	1971.7393	3025.25	2142.85
929.1727	1973.3392	3021.05	2139.65
929.3108	1974.9383	3022.1	2139.6
929.4489	1976.5366	2990.6	2108.5
929.5869	1978.1342	3001.9	2117.3
929.7249	1979.7311	2994.2	2110.1
929.8629	1981.3273	2989.9	2105.25
930.0009	1982.9227	2982.25	2097.35
930.1388	1984.5173	2980.05	2098.2
930.2767	1986.1112	2963.9	2080.9
930.4146	1987.7044	2968.9	2087.05
930.5525	1989.2968	2963.8	2081.55
930.6904	1990.8885	2966.45	2080.4
930.8282	1992.4795	2966.4	2081.4
930.966	1994.0697	2949.55	2067.35
931.1038	1995.6592	2941.15	2057.95
931.2415	1997.2479	2936.2	2053.15
931.3793	1998.8359	2929.95	2047.45
931.517	2000.4232	2913.95	2030.9
931.6547	2002.0097	2904	2022.45
931.7923	2003.5955	2907.35	2022.35
931.93	2005.1805	2906.1	2022.35
932.0676	2006.7648	2901.85	2018.85
932.2052	2008.3484	2894.4	2008.75
932.3427	2009.9312	2903.5	2019.6
932.4803	2011.5133	2876.8	1995.3
932.6178	2013.0946	2889.15	2005.3
932.7553	2014.6752	2865	1983.2
932.8928	2016.2551	2860.9	1976.75
933.0302	2017.8342	2861.25	1977.7
933.1676	2019.4126	2854.25	1971.9
933.305	2020.9902	2849.6	1968.6
933.4424	2022.5672	2845.1	1960.95
933.5798	2024.1433	2852.75	1962.3
933.7171	2025.7188	2834.05	1951.7
933.8544	2027.2935	2827.15	1943.3
933.9917	2028.8674	2826.7	1944.15
934.129	2030.4406	2813.3	1931.75
934.2662	2032.0131	2802.25	1918.1
934.4034	2033.5849	2799.75	1911.65
934.5406	2035.1559	2793.65	1911.5
934.6778	2036.7261	2790.4	1906
934.8149	2038.2957	2783.85	1900.55
934.952	2039.8645	2793.8	1912.95
935.0891	2041.4325	2787.4	1901.75
935.2262	2042.9998	2774.05	1892.8
935.3632	2044.5664	2766.1	1880.6
935.5002	2046.1323	2760.25	1875.85
935.6372	2047.6974	2752.35	1869.75
935.7742	2049.2617	2750.7	1866.8
935.9111	2050.8254	2769.15	1851.65
936.048	2052.3883	2758.9	1874.15
936.1849	2053.9504	2735.05	1852.4
936.3218	2055.5118	2736.15	1851.95
936.4586	2057.0725	2731.25	1843.2
936.5955	2058.6325	2714.2	1832.05
936.7323	2060.1917	2720.8	1840.45
936.869	2061.7502	2712.9	1827.85
937.0058	2063.3079	2714.25	1831.8
937.1425	2064.8649	2710.9	1825.6
937.2792	2066.4212	2706.25	1825.25
937.4159	2067.9767	2692.25	1810.25
937.5525	2069.5315	2684.95	1803.45
937.6891	2071.0856	2670.85	1787.5
937.8257	2072.6389	2672	1788.55
937.9623	2074.1915	2667	1784.55
938.0989	2075.7433	2643.5	1757.45
938.2354	2077.2945	2649.65	1766.6
938.3719	2078.8448	2646.45	1764.9
938.5084	2080.3945	2650.9	1766.7
938.6448	2081.9434	2641.8	1758.2
938.7812	2083.4916	2636.75	1753.85
938.9176	2085.039	2636.95	1751.85
939.054	2086.5857	2618.95	1736.15
939.1903	2088.1317	2620.25	1737.55
939.3267	2089.677	2619.85	1736.25
939.463	2091.2215	2604.25	1723.95
939.5992	2092.7652	2601.9	1718.05
939.7355	2094.3083	2602.9	1721.1
939.8717	2095.8506	2597.1	1715.25
940.0079	2097.3921	2589.6	1709.2
940.1441	2098.933	2589.75	1707
940.2802	2100.4731	2586	1704.3
940.4163	2102.0124	2604.45	1704.95
940.5524	2103.5511	2583.1	1699.1
940.6885	2105.089	2577.05	1693.2
940.8245	2106.6261	2570.4	1687
940.9606	2108.1626	2571.9	1688.3
941.0965	2109.6983	2584	1672.05
941.2325	2111.2332	2557.8	1672.65
941.3684	2112.7675	2567.25	1683.8
941.5044	2114.301	2543.95	1658.35
941.6403	2115.8337	2556.4	1674.8
941.7761	2117.3657	2541.7	1658.4
941.912	2118.897	2536.65	1652.75
942.0478	2120.4276	2543.35	1652.25
942.1835	2121.9575	2529.6	1646.4
942.3193	2123.4866	2537.6	1641.05
942.455	2125.0149	2519.45	1636.1
942.5907	2126.5426	2508.7	1625.3
942.7264	2128.0695	2515.95	1628
942.8621	2129.5956	2503.05	1623.6
942.9977	2131.1211	2500.4	1611.95
943.1333	2132.6458	2488.85	1604.85
943.2689	2134.1698	2496	1614.6
943.4044	2135.693	2477.55	1591.8
943.54	2137.2155	2494.9	1608.55
943.6755	2138.7373	2489.4	1604.65
943.8109	2140.2584	2474.5	1593.65
943.9464	2141.7787	2482	1592.85
944.0818	2143.2983	2473.55	1591.45
944.2172	2144.8171	2456.05	1572.85
944.3526	2146.3353	2457.75	1573.15
944.4879	2147.8527	2450.6	1569.35
944.6232	2149.3693	2451.45	1568.05
944.7585	2150.8853	2448.75	1566.15
944.8938	2152.4005	2418.65	1535.4
945.029	2153.9149	2433.5	1552.85
945.1642	2155.4287	2425.9	1542.9
945.2994	2156.9417	2431.8	1547.45
945.4346	2158.454	2417.45	1530.25
945.5697	2159.9655	2421.3	1538.1
945.7048	2161.4764	2423.4	1541.05
945.8399	2162.9865	2419.6	1536.65
945.9749	2164.4958	2407.95	1523.25
946.1099	2166.0045	2409.4	1524.05
946.2449	2167.5124	2403.75	1521.65
946.3799	2169.0195	2393.45	1510.6
946.5148	2170.526	2393.9	1511.1
946.6498	2172.0317	2376.25	1493.5
946.7846	2173.5367	2395.1	1510.85
946.9195	2175.0409	2382.3	1500.25
947.0543	2176.5445	2385.25	1506
947.1891	2178.0473	2374.35	1492.25
947.3239	2179.5494	2371.95	1484.55
947.4587	2181.0507	2355.9	1472.25
947.5934	2182.5513	2351.05	1469.3
947.7281	2184.0512	2347.3	1465.55
947.8628	2185.5504	2354.1	1470.95
947.9974	2187.0488	2350.9	1468.75
948.132	2188.5465	2346.1	1463.5
948.2666	2190.0435	2345.45	1460.95
948.4012	2191.5397	2336.15	1454.5
948.5357	2193.0353	2319.1	1434.15
948.6702	2194.5301	2323.05	1440.05
948.8047	2196.0241	2321.65	1438.15
948.9392	2197.5175	2321.95	1440.85
949.0736	2199.0101	2315.05	1428.05
949.208	2200.502	2294.95	1414.55
949.3424	2201.9931	2299.8	1417.35
949.4767	2203.4835	2303.15	1418.25
949.611	2204.9733	2299.35	1410.7
949.7453	2206.4622	2288.75	1406.3
949.8796	2207.9505	2283.95	1400.25
950.0138	2209.438	2278.5	1397.25
950.148	2210.9248	2273.55	1389.4
950.2822	2212.4109	2271.3	1388.6
950.4164	2213.8962	2265.95	1380.9
950.5505	2215.3809	2257.15	1374.1
950.6846	2216.8648	2256.6	1373.2
950.8186	2218.3479	2256.85	1369.9
950.9527	2219.8304	2259.15	1374.5
951.0867	2221.3121	2239.65	1354.15
951.2207	2222.7931	2235.1	1353.1
951.3546	2224.2733	2232.05	1349.15
951.4886	2225.7529	2230.75	1348.65
951.6225	2227.2317	2236.45	1350.1
951.7563	2228.7098	2220.7	1337.4
951.8902	2230.1872	2213.6	1329.8
952.024	2231.6638	2216.4	1331.65
952.1578	2233.1397	2216.95	1327.9
952.2916	2234.6149	2210.5	1328.2
952.4253	2236.0894	2195	1312.25
952.559	2237.5632	2209.3	1315.75
952.6927	2239.0362	2198.3	1314.65
952.8263	2240.5085	2183.05	1299.4
952.9599	2241.9801	2175.65	1291
953.0935	2243.4509	2175.25	1294.35
953.2271	2244.921	2171.95	1290.35
953.3606	2246.3904	2172.55	1287.15
953.4941	2247.8591	2164.3	1282.45
953.6276	2249.3271	2153.1	1271.7
953.7611	2250.7943	2156.95	1274.5
953.8945	2252.2608	2151.3	1270.35
954.0279	2253.7266	2147.85	1264.4
954.1612	2255.1917	2137.55	1254.75
954.2946	2256.656	2136.8	1252.2
954.4279	2258.1197	2125.1	1243.8
954.5612	2259.5826	2137.4	1252.8
954.6944	2261.0447	2129.4	1244.7
954.8276	2262.5062	2134.55	1247.95
954.9608	2263.9669	2120.2	1236.25
955.094	2265.4269	2115.3	1233.8
955.2271	2266.8862	2121	1237.85
955.3602	2268.3448	2115.35	1230.05
955.4933	2269.8026	2113.7	1230.6
955.6264	2271.2598	2106.35	1225.3
955.7594	2272.7162	2100.15	1218.7
955.8924	2274.1719	2099.5	1218.1
956.0253	2275.6268	2090.5	1206.85
956.1583	2277.0811	2095.8	1211.15
956.2912	2278.5346	2085.55	1203.3
956.4241	2279.9874	2092.65	1210
956.5569	2281.4395	2092.15	1211.35
956.6897	2282.8908	2095.65	1207.3
956.8225	2284.3414	2088	1203.35
956.9553	2285.7914	2076.45	1193.45
957.088	2287.2406	2081.95	1195.1
957.2207	2288.689	2075.05	1194.05
957.3534	2290.1368	2074.7	1190.3
957.486	2291.5838	2077.6	1192.75
957.6186	2293.0302	2066.55	1183.2
957.7512	2294.4758	2063.7	1182
957.8838	2295.9206	2043.95	1159.6
958.0163	2297.3648	2046.5	1165.3
958.1488	2298.8082	2049.15	1164.3
958.2813	2300.251	2039.45	1157.5
958.4137	2301.693	2045.6	1160.4
958.5461	2303.1343	2044.85	1162.85
958.6785	2304.5748	2029.75	1146.2
958.8108	2306.0147	2033.65	1148.15
958.9432	2307.4538	2044.3	1159.5
959.0754	2308.8922	2041.45	1159.35
959.2077	2310.3299	2026.3	1143.8
959.3399	2311.7669	2022.7	1139.55
959.4721	2313.2031	2010.3	1128.8
959.6043	2314.6387	2008.85	1124.7
959.7365	2316.0735	2002.65	1119.05
959.8686	2317.5076	2009.35	1124.2
960.0006	2318.941	2007.45	1125.95
960.1327	2320.3737	2001.75	1117.6
960.2647	2321.8056	1996.8	1112.8
960.3967	2323.2369	1995.45	1112.95
960.5287	2324.6674	1994.35	1108.75
960.6606	2326.0972	1983.65	1100.4
960.7925	2327.5263	1989.65	1105.4
960.9244	2328.9547	1986.7	1102.9
961.0562	2330.3823	1982.05	1098.4
961.1881	2331.8092	1982.5	1096.95
961.3198	2333.2355	1975.2	1091.75
961.4516	2334.661	1961.55	1079.6
961.5833	2336.0858	1961.85	1076.6
961.715	2337.5098	1968.25	1085.15
961.8467	2338.9332	1959.2	1076.5
961.9783	2340.3558	1956.3	1071.15
962.1099	2341.7778	1960.25	1077.85
962.2415	2343.199	1947.65	1063.25
962.373	2344.6195	1946.45	1062.7
962.5045	2346.0393	1950.4	1067.15
962.636	2347.4583	1953.5	1069.25
962.7675	2348.8767	1948.05	1064.95
962.8989	2350.2943	1934.4	1051.25
963.0303	2351.7113	1940.15	1056.6
963.1617	2353.1275	1947.65	1066.3
963.293	2354.543	1964.55	1057.4
963.4243	2355.9578	1940.15	1058.95
963.5556	2357.3718	1928	1044.85
963.6868	2358.7852	1922	1037.15
963.818	2360.1978	1921	1036.1
963.9492	2361.6098	1919.7	1035.7
964.0803	2363.021	1915.4	1029.4
964.2114	2364.4315	1917.8	1034.3
964.3425	2365.8413	1924.55	1042.9
964.4736	2367.2504	1909.4	1028
964.6046	2368.6587	1904.75	1019.45
964.7356	2370.0664	1895.95	1013.6
964.8666	2371.4733	1893.2	1012.45
964.9975	2372.8795	1902	1019.15
965.1284	2374.285	1891.1	1005.65
965.2593	2375.6899	1879.2	995.6
965.3901	2377.0939	1884.45	1001.45
965.5209	2378.4973	1884.1	1001
965.6517	2379.9	1876.25	995.45
965.7825	2381.3019	1880	995.1
965.9132	2382.7032	1877.6	995.65
966.0439	2384.1037	1863.35	981.55
966.1745	2385.5035	1870.7	987.55
966.3051	2386.9027	1865	983.1
966.4357	2388.3011	1867.5	981
966.5663	2389.6987	1862.35	981
966.6968	2391.0957	1854.65	970.75
966.8273	2392.492	1848.6	966.3
966.9578	2393.8876	1843.65	960.9
967.0882	2395.2824	1837.25	955.65
967.2186	2396.6765	1829.1	948.65
967.349	2398.07	1829.05	946.35
967.4793	2399.4627	1827	943.4
967.6097	2400.8547	1832.8	950.95
967.7399	2402.246	1833.2	946.5
967.8702	2403.6366	1814.55	932.1
968.0004	2405.0265	1816.9	933.65
968.1306	2406.4156	1817.8	931.15
968.2607	2407.8041	1810.5	924.4
968.3909	2409.1918	1808.85	925.7
968.521	2410.5789	1812.5	928.35
968.651	2411.9652	1810	924.8
968.781	2413.3508	1798.7	914.55
968.911	2414.7358	1802.4	918.4
969.041	2416.12	1790.05	906.45
969.1709	2417.5035	1798	916.45
969.3008	2418.8863	1793.55	907.55
969.4307	2420.2684	1791.05	909.8
969.5606	2421.6497	1793.95	910.3
969.6904	2423.0304	1788.15	905.65
969.8201	2424.4104	1778.35	897.7
969.9499	2425.7896	1774.85	890.05
970.0796	2427.1682	1778.05	897.15
970.2093	2428.546	1776.35	893.3
970.3389	2429.9232	1767.7	882.65
970.4685	2431.2996	1773.4	890.6
970.5981	2432.6753	1754.65	871.9
970.7277	2434.0503	1770.6	886.9
970.8572	2435.4246	1760.5	880.05
970.9867	2436.7982	1761.45	877.85
971.1161	2438.1711	1756.5	874.9
971.2456	2439.5433	1744.05	859.75
971.375	2440.9148	1753.65	866.05
971.5043	2442.2856	1739.55	858.8
971.6336	2443.6557	1751.95	866.95
971.7629	2445.025	1739.2	856.85
971.8922	2446.3937	1737.55	854.6
972.0214	2447.7617	1737.8	854.8
972.1506	2449.1289	1728.55	845.7
972.2798	2450.4955	1743.4	857.55
972.4089	2451.8613	1728.45	847.1
972.538	2453.2265	1731.25	848.8
972.6671	2454.5909	1727.7	845.05
972.7961	2455.9546	1721.25	839.9
972.9251	2457.3177	1722.35	839.2
973.0541	2458.68	1720.3	836.15
973.1831	2460.0416	1720.65	839.1
973.312	2461.4025	1722.7	836.95
973.4408	2462.7627	1726.85	831.8
973.5697	2464.1222	1717.1	834.95
973.6985	2465.4811	1708.75	826.05
973.8273	2466.8392	1707.15	824.85
973.956	2468.1966	1701.85	814.95
974.0847	2469.5533	1722.8	839.55
974.2134	2470.9093	1711.65	827.25
974.3421	2472.2645	1707.8	822.2
974.4707	2473.6191	1712.6	830
974.5993	2474.973	1702.95	821.55
974.7278	2476.3262	1697.6	812.95
974.8563	2477.6787	1703.6	821.85
974.9848	2479.0305	1696.6	813.55
975.1132	2480.3816	1693.9	809.7
975.2417	2481.7319	1684.7	800.8
975.37	2483.0816	1684.85	800.5
975.4984	2484.4306	1679.45	795.9
975.6267	2485.7789	1678.3	795.6
975.755	2487.1264	1675.7	789.7
975.8833	2488.4733	1673.75	792.95
976.0115	2489.8195	1685.85	787.05
976.1397	2491.165	1673.65	786.5
976.2678	2492.5097	1676.65	792.35
976.3959	2493.8538	1664	780.4
976.524	2495.1972	1661.3	776.65
976.6521	2496.5398	1656.9	773.2
976.7801	2497.8818	1650	765.3
976.9081	2499.2231	1657.65	773.4
977.036	2500.5637	1657.75	774
977.164	2501.9035	1651.45	767.3
977.2918	2503.2427	1650.8	764.9
977.4197	2504.5812	1652.8	770.3
977.5475	2505.919	1645.65	761.05
977.6753	2507.256	1646.9	763.15
977.8031	2508.5924	1641.8	760.25
977.9308	2509.9281	1644.2	756.35
978.0585	2511.2631	1640.45	757.8
978.1861	2512.5974	1630.25	749
978.3137	2513.9309	1626.1	742.45
978.4413	2515.2638	1652.3	745.05
978.5689	2516.596	1626.4	743.95
978.6964	2517.9275	1627.15	743.65
978.8239	2519.2583	1624.2	741.2
978.9513	2520.5884	1624.95	740.3
979.0788	2521.9178	1618.4	737.5
979.2062	2523.2465	1610.3	728.45
979.3335	2524.5745	1602.55	721.15
979.4608	2525.9018	1617.6	734.75
979.5881	2527.2284	1614.15	730.05
979.7154	2528.5543	1613.5	732.75
979.8426	2529.8796	1607.75	724.55
979.9698	2531.2041	1608.7	724.35
980.0969	2532.5279	1604.85	722.4
980.224	2533.851	1609.4	726.05
980.3511	2535.1735	1601.75	720.5
980.4781	2536.4952	1607	723.75
980.6052	2537.8163	1604.15	721.2
980.7321	2539.1366	1591.25	709.85
980.8591	2540.4562	1601.9	719.25
980.986	2541.7752	1601.75	719.1
981.1129	2543.0935	1600.95	716.3
981.2397	2544.411	1592.7	711.05
981.3665	2545.7279	1593.4	711.3
981.4933	2547.0441	1590.4	708.4
981.62	2548.3596	1588.8	702.35
981.7467	2549.6744	1584.35	701.7
981.8734	2550.9885	1586.5	701.4
982.0001	2552.3019	1582.2	700.3
982.1267	2553.6146	1587.75	705.55
982.2532	2554.9266	1582.45	699
982.3798	2556.2379	1582.95	697.9
982.5063	2557.5485	1570.95	689.15
982.6327	2558.8585	1577.45	688.5
982.7592	2560.1677	1581.6	696.9
982.8856	2561.4762	1569.85	688.15
983.0119	2562.7841	1569.75	683.25
983.1383	2564.0913	1567.95	687.6
983.2646	2565.3977	1569.1	687.5
983.3908	2566.7035	1571.05	686.75
983.517	2568.0086	1560.85	677.45
983.6432	2569.313	1563.45	679.8
983.7694	2570.6167	1565.5	679.35
983.8955	2571.9197	1564.7	683.2
984.0216	2573.222	1568.4	682.95
984.1476	2574.5236	1568.1	685.95
984.2737	2575.8246	1559.4	673.9
984.3996	2577.1248	1569.85	683.25
984.5256	2578.4244	1551.45	668.1
984.6515	2579.7232	1560.35	677.15
984.7774	2581.0214	1588.75	673.95
984.9032	2582.3189	1562.5	679.05
985.029	2583.6157	1564.65	677.65
985.1548	2584.9118	1557.1	673.9
985.2806	2586.2072	1553.85	671.65
985.4063	2587.5019	1557.25	675.8
985.5319	2588.7959	1558.65	675.7
985.6576	2590.0893	1551.8	668.9
985.7832	2591.3819	1560.9	679.85
985.9087	2592.6739	1564.35	682.3
986.0343	2593.9652	1568.5	685.05
986.1597	2595.2557	1561.55	680.45
986.2852	2596.5456	1563.85	679.85
986.4106	2597.8348	1552.4	670.85
986.536	2599.1234	1555.8	672.9
986.6614	2600.4112	1559.05	674.55
986.7867	2601.6983	1564.55	679.85
986.912	2602.9848	1557.1	676
987.0372	2604.2705	1564.3	674.45
987.1624	2605.5556	1557.1	673
987.2876	2606.84	1551.4	668.4
987.4128	2608.1237	1546.3	662.05
987.5379	2609.4067	1549.7	668.5
987.6629	2610.689	1557.5	665.55
987.788	2611.9707	1540.6	654.6
987.913	2613.2516	1542.3	657
988.0379	2614.5319	1541.35	660.05
988.1629	2615.8115	1531.3	648.45
988.2878	2617.0903	1538.05	654.05
988.4126	2618.3685	1534.65	651.45
988.5375	2619.6461	1531.4	650.65
988.6622	2620.9229	1528.8	646.8
988.787	2622.199	1531.4	649.5
988.9117	2623.4745	1529.65	646.65
989.0364	2624.7493	1525.25	643.95
989.161	2626.0234	1523	640.6
989.2857	2627.2968	1518.85	636.85
989.4102	2628.5695	1522.7	639.45
989.5348	2629.8415	1520.6	638.5
989.6593	2631.1128	1522.25	638.3
989.7837	2632.3835	1514.6	632.85
989.9082	2633.6535	1517.6	636.6
990.0326	2634.9228	1517.15	634.65
990.1569	2636.1914	1516.15	634.45
990.2812	2637.4593	1507.7	623.6
990.4055	2638.7265	1521.9	640.7
990.5298	2639.9931	1510.8	627.75
990.654	2641.259	1506.95	624.65
990.7782	2642.5242	1508.55	625.55
990.9023	2643.7887	1505.4	621.7
991.0264	2645.0525	1499.3	617.3
991.1505	2646.3156	1493.9	607.6
991.2745	2647.5781	1499.3	619.95
991.3985	2648.8398	1499.6	617.9
991.5225	2650.1009	1531.7	612.3
991.6464	2651.3613	1498.7	617.1
991.7703	2652.6211	1487.95	605.5
991.8942	2653.8801	1498.8	614.7
992.018	2655.1385	1493.9	609.25
992.1418	2656.3961	1481.75	600.55
992.2655	2657.6531	1496.5	615
992.3892	2658.9094	1500.15	617.8
992.5129	2660.1651	1492.35	609.2
992.6366	2661.42	1490.75	608.05
992.7602	2662.6743	1492.6	609
992.8837	2663.9279	1495.95	613.7
993.0073	2665.1808	1503.3	620.95
993.1307	2666.433	1492.6	607.6
993.2542	2667.6846	1501.3	620.7
993.3776	2668.9354	1501	615.7
993.501	2670.1856	1509.35	625.85
993.6244	2671.4351	1518.75	636.2
993.7477	2672.6839	1512.5	627.15
993.8709	2673.9321	1502.45	621.85
993.9942	2675.1795	1502.6	619.95
994.1174	2676.4263	1509.55	628
994.2405	2677.6724	1516.25	634.35
994.3637	2678.9179	1512.15	628.9
994.4868	2680.1626	1510.3	628.2
994.6098	2681.4067	1510.9	627.95
994.7328	2682.6501	1509.1	625.95
994.8558	2683.8928	1508.9	625.9
994.9788	2685.1348	1507.55	626.35
995.1017	2686.3761	1498.4	616
995.2245	2687.6168	1492.5	609.8
995.3474	2688.8568	1491.75	610.55
995.4702	2690.0961	1478.95	598.9
995.5929	2691.3348	1489.65	606.35
995.7156	2692.5727	1486.45	604.35
995.8383	2693.81	1486.9	604.1
995.961	2695.0466	1477.55	595.75
996.0836	2696.2826	1478.6	593.75
996.2062	2697.5178	1477.65	590.95
996.3287	2698.7524	1477	593.55
996.4512	2699.9863	1482.7	599
996.5737	2701.2195	1481.15	600.95
996.6961	2702.452	1483.6	599.6
996.8185	2703.6839	1482.5	598.35
996.9408	2704.9151	1494.45	612.85
997.0631	2706.1456	1496.85	613.2
997.1854	2707.3755	1505.8	622.9
997.3077	2708.6046	1504.65	620.8
997.4299	2709.8331	1516.05	632.3
997.552	2711.0609	1527.55	644.45
997.6742	2712.2881	1526.8	644.55
997.7963	2713.5145	1541.85	658.4
997.9183	2714.7403	1543	661.4
998.0403	2715.9654	1557.85	675.55
998.1623	2717.1899	1578.8	681.8
998.2842	2718.4136	1575.7	693.55
998.4062	2719.6367	1583.9	701
998.528	2720.8591	1604.35	715.65
998.6498	2722.0809	1608.35	723.55
998.7716	2723.3019	1623.55	736.3
998.8934	2724.5223	1625.95	741.65
999.0151	2725.7421	1634.2	750.4
999.1368	2726.9611	1635.85	749.45
999.2584	2728.1795	1636.4	750.25
999.38	2729.3972	1620.35	738.8
999.5016	2730.6142	1621.65	728.05
999.6231	2731.8306	1597.45	713.85
999.7446	2733.0462	1584.45	699.95
999.8661	2734.2612	1575.55	686.1
999.9875	2735.4756	1551.7	667.8
1000.1089	2736.6892	1536.8	652.75
1000.2302	2737.9022	1515.4	637.4
1000.3515	2739.1145	1512	630.25
1000.4728	2740.3262	1506.6	616.9
1000.594	2741.5372	1488.55	607.6
1000.7152	2742.7475	1479.5	595
1000.8363	2743.9571	1467.85	583
1000.9575	2745.1661	1467.55	581
1001.0785	2746.3744	1443.55	561.45
1001.1996	2747.582	1436	553.25
1001.3206	2748.7889	1438	555.85
1001.4415	2749.9952	1419.55	536.85
1001.5625	2751.2008	1422.75	539.95
1001.6833	2752.4057	1431.3	549.1
1001.8042	2753.61	1413.45	528.9
1001.925	2754.8136	1413.15	528.1
1002.0458	2756.0165	1406.85	523.7
1002.1665	2757.2188	1404.15	522.9
1002.2872	2758.4204	1408.65	527.65
1002.4078	2759.6213	1403.9	516.4
1002.5285	2760.8215	1410.7	522.75
1002.649	2762.0211	1410.25	524.2
1002.7696	2763.22	1399.85	513.15
1002.8901	2764.4182	1397	511.4
1003.0106	2765.6158	1396.85	514.4
1003.131	2766.8127	1400.35	518.8
1003.2514	2768.009	1393.35	511.5
1003.3717	2769.2045	1384.85	502.05
1003.492	2770.3994	1386.5	502.25
1003.6123	2771.5936	1382.65	496.8
1003.7325	2772.7872	1384	502.2
1003.8527	2773.9801	1381.05	497
1003.9729	2775.1723	1395.4	496.45
1004.093	2776.3639	1377.6	494.9
1004.2131	2777.5548	1377.1	492.2
1004.3331	2778.745	1378.1	492.9
1004.4531	2779.9346	1378.2	496.45
1004.5731	2781.1235	1380.15	496.3
1004.693	2782.3117	1383.7	502.35
1004.8129	2783.4992	1384.7	500.85
1004.9328	2784.6861	1389.15	507.1
1005.0526	2785.8723	1391.75	506.4
1005.1723	2787.0579	1398.15	515.85
1005.2921	2788.2428	1405.35	521.35
1005.4118	2789.427	1404.7	522
1005.5314	2790.6106	1412.3	529.8
1005.651	2791.7935	1422.4	539.15
1005.7706	2792.9757	1428.5	546.9
1005.8902	2794.1573	1433.35	547.6
1006.0097	2795.3382	1448.9	568.35
1006.1291	2796.5184	1461.1	578.3
1006.2485	2797.698	1470.5	586.1
1006.3679	2798.8769	1481.4	600.05
1006.4873	2800.0551	1490.45	606.45
1006.6066	2801.2327	1511.1	626.75
1006.7258	2802.4096	1520.75	638.95
1006.8451	2803.5859	1538.7	654.3
1006.9642	2804.7615	1550.1	665.65
1007.0834	2805.9364	1570.25	690.05
1007.2025	2807.1106	1603.6	721.95
1007.3216	2808.2842	1627.95	744.1
1007.4406	2809.4572	1657.45	775.75
1007.5596	2810.6294	1681.75	795.9
1007.6785	2811.801	1717.4	838.3
1007.7975	2812.972	1759	876.4
1007.9163	2814.1423	1797.8	915.85
1008.0352	2815.3119	1845.15	961.75
1008.154	2816.4808	1885.75	1004.7
1008.2727	2817.6491	1938.8	1054.5
1008.3914	2818.8167	1984.45	1102.3
1008.5101	2819.9837	2048.3	1162.65
1008.6288	2821.15	2099.25	1217.25
1008.7474	2822.3157	2143.25	1261.05
1008.8659	2823.4807	2203.35	1320.35
1008.9844	2824.645	2256.45	1370.9
1009.1029	2825.8086	2305.05	1422.85
1009.2214	2826.9716	2362.6	1480
1009.3398	2828.134	2412.4	1531.7
1009.4581	2829.2957	2464.1	1581.15
1009.5764	2830.4567	2489.9	1609.05
1009.6947	2831.617	2513.25	1630.5
1009.813	2832.7767	2531.35	1651.1
1009.9312	2833.9358	2534.25	1649.2
1010.0493	2835.0941	2520.1	1636.55
1010.1675	2836.2519	2511.75	1630.55
1010.2855	2837.4089	2475.35	1592.75
1010.4036	2838.5653	2466.8	1583.55
1010.5216	2839.7211	2460.3	1579.65
1010.6396	2840.8761	2449.15	1562.7
1010.7575	2842.0306	2469.5	1589.4
1010.8754	2843.1843	2498.2	1615
1010.9932	2844.3374	2528.4	1645.6
1011.111	2845.4899	2583.85	1701.65
1011.2288	2846.6417	2623.6	1739.8
1011.3465	2847.7928	2681.25	1799.9
1011.4642	2848.9433	2748.6	1866.65
1011.5818	2850.0931	2824.65	1943.6
1011.6995	2851.2422	2877.55	1993.7
1011.817	2852.3907	2947.5	2064.85
1011.9345	2853.5385	3000.45	2118.35
1012.052	2854.6857	3080.85	2172.1
1012.1695	2855.8323	3107.75	2225.7
1012.2869	2856.9781	3164.55	2281.75
1012.4042	2858.1233	3225.7	2342.75
1012.5216	2859.2679	3254.05	2372.15
1012.6389	2860.4118	3305.15	2419.75
1012.7561	2861.555	3346.45	2459.75
1012.8733	2862.6976	3405.1	2521.7
1012.9905	2863.8395	3434.1	2553.9
1013.1076	2864.9808	3465.5	2584.3
1013.2247	2866.1214	3486.15	2604.7
1013.3417	2867.2614	3502.15	2617.65
1013.4587	2868.4007	3506.25	2620.85
1013.5757	2869.5393	3523.1	2637.25
1013.6926	2870.6773	3545.25	2659.75
1013.8095	2871.8146	3553.55	2670.6
1013.9263	2872.9513	3546.25	2660.35
1014.0431	2874.0874	3543.15	2661.1
1014.1599	2875.2227	3535.3	2650.6
1014.2766	2876.3574	3511	2628.9
1014.3933	2877.4915	3479.7	2598.45
1014.51	2878.6249	3463.6	2581.3
1014.6266	2879.7577	3453.65	2572.45
1014.7431	2880.8898	3432.1	2537.65
1014.8596	2882.0212	3400.2	2518.9
1014.9761	2883.152	3401.45	2519.35
1015.0925	2884.2821	3384.3	2502.85
1015.2089	2885.4116	3377.65	2496.4
1015.3253	2886.5405	3385.05	2501.95
1015.4416	2887.6686	3382.25	2497.05
1015.5579	2888.7962	3398.7	2517.95
1015.6741	2889.923	3400.75	2517.55
1015.7903	2891.0493	3403.55	2523.85
1015.9065	2892.1748	3411.75	2528.9
1016.0226	2893.2997	3418.8	2536.35
1016.1387	2894.424	3431.85	2550.7
1016.2547	2895.5476	3456.35	2576
1016.3707	2896.6706	3471.65	2590.5
1016.4866	2897.7929	3499.05	2616.2
1016.6025	2898.9145	3532.3	2649.9
1016.7184	2900.0355	3558.1	2672.65
1016.8342	2901.1559	3584	2701.45
1016.95	2902.2756	3626.15	2743.95
1017.0658	2903.3946	3647.1	2764.15
1017.1815	2904.513	3659	2774.2
1017.2971	2905.6308	3705	2822.55
1017.4127	2906.7479	3717.55	2833.35
1017.5283	2907.8643	3748.8	2867.35
1017.6439	2908.9801	3756.25	2875.1
1017.7594	2910.0953	3771.45	2889.95
1017.8748	2911.2098	3754.6	2867.6
1017.9902	2912.3236	3768.2	2875.7
1018.1056	2913.4368	3739.65	2852.85
1018.2209	2914.5494	3736.5	2853.95
1018.3362	2915.6613	3715.35	2828.15
1018.4515	2916.7725	3670.5	2785.1
1018.5667	2917.8831	3641.8	2758.7
1018.6819	2918.9931	3606.7	2723.35
1018.797	2920.1024	3578.3	2694.1
1018.9121	2921.211	3555.5	2672.3
1019.0271	2922.319	3531.2	2647.6
1019.1421	2923.4264	3522.1	2641.1
1019.2571	2924.5331	3528.9	2647.4
1019.372	2925.6391	3504.9	2624.05
1019.4869	2926.7445	3515.5	2631.7
1019.6017	2927.8493	3508.9	2625.55
1019.7165	2928.9534	3511.35	2628.4
1019.8313	2930.0569	3517.3	2631.8
1019.946	2931.1597	3521	2637.5
1020.0606	2932.2619	3528.95	2646.35
1020.1753	2933.3634	3524.65	2642.75
1020.2899	2934.4643	3521.25	2631.4
1020.4044	2935.5645	3513.3	2625.05
1020.5189	2936.6641	3481.15	2593.45
1020.6334	2937.763	3451.15	2569.4
1020.7478	2938.8613	3410.45	2528.6
1020.8622	2939.959	3375.5	2487.25
1020.9765	2941.056	3304.35	2421.25
1021.0908	2942.1523	3250.85	2368.8
1021.2051	2943.248	3167.8	2283.3
1021.3193	2944.3431	3067.4	2186.2
1021.4334	2945.4375	2978.4	2094.45
1021.5476	2946.5313	2881.9	2000.95
1021.6617	2947.6244	2774.85	1890.55
1021.7757	2948.7169	2683.1	1798.95
1021.8897	2949.8087	2588.95	1706.7
1022.0037	2950.8999	2501.8	1618.05
1022.1176	2951.9904	2404.7	1523.15
1022.2315	2953.0803	2347.65	1466.55
1022.3453	2954.1696	2269.45	1386.7
1022.4591	2955.2582	2220.25	1338.4
1022.5728	2956.3462	2177.9	1297.95
1022.6865	2957.4335	2147	1262.3
1022.8002	2958.5202	2111.35	1228.3
1022.9138	2959.6062	2077.9	1195.3
1023.0274	2960.6916	2061.35	1177.6
1023.141	2961.7764	2035.85	1151.8
1023.2545	2962.8605	2007.8	1123.25
1023.3679	2963.9439	2011.65	1130.85
1023.4813	2965.0267	1987.35	1102.55
1023.5947	2966.1089	2017	1112.7
1023.708	2967.1905	1982.9	1102
1023.8213	2968.2714	1982.55	1101.85
1023.9346	2969.3516	1970.75	1087.45
1024.0478	2970.4312	1990.4	1097.7
1024.1609	2971.5102	1982.55	1099.65
1024.274	2972.5885	1990.15	1107.7
1024.3871	2973.6662	1976.85	1089.4
1024.5002	2974.7432	1989.45	1110.6
1024.6132	2975.8196	1984.5	1102
1024.7261	2976.8954	1971.35	1090.15
1024.839	2977.9705	1969.55	1085.75
1024.9519	2979.045	1959.35	1077.9
1025.0647	2980.1188	1945.6	1063.1
1025.1775	2981.192	1930.7	1048.5
1025.2902	2982.2645	1907.9	1024.15
1025.4029	2983.3364	1894.15	1012.1
1025.5156	2984.4077	1857.95	976.15
1025.6282	2985.4783	1836.6	948.4
1025.7407	2986.5483	1798.55	918.85
1025.8532	2987.6177	1769.65	888.15
1025.9657	2988.6864	1738.65	857.2
1026.0782	2989.7545	1708.2	824.15
1026.1906	2990.8219	1675.2	793.1
1026.3029	2991.8887	1644.35	760.35
1026.4152	2992.9548	1608.95	725.3
1026.5275	2994.0204	1579	697.9
1026.6397	2995.0852	1542.65	658.15
1026.7519	2996.1495	1521.85	639.5
1026.864	2997.2131	1501.3	616.85
1026.9761	2998.276	1472.3	591.55
1027.0882	2999.3383	1460.25	578.2
1027.2002	3000.4	1435.25	553.6
1027.3122	3001.4611	1420	538.2
1027.4241	3002.5215	1404.15	521.8
1027.536	3003.5812	1383.1	498.9
1027.6478	3004.6404	1371.25	489.3
1027.7596	3005.6989	1363.8	478.05
1027.8714	3006.7567	1348.25	469.25
1027.9831	3007.8139	1363.8	452.95
1028.0947	3008.8705	1322.3	439.7
1028.2064	3009.9264	1337.15	438.95
1028.3179	3010.9818	1317.95	434.2
1028.4295	3012.0364	1312.25	432.2
1028.541	3013.0905	1301.5	416.65
1028.6524	3014.1439	1299.55	418.45
1028.7638	3015.1966	1296.2	413.75
1028.8752	3016.2487	1293.8	412.25
1028.9865	3017.3002	1294.3	407.55
1029.0978	3018.3511	1288.1	406.8
1029.209	3019.4013	1284.7	402.2
1029.3202	3020.4509	1283.1	401.3
1029.4314	3021.4998	1289.45	404.3
1029.5425	3022.5481	1278.25	397.2
1029.6535	3023.5958	1279.2	399.2
1029.7645	3024.6428	1280.8	398.5
1029.8755	3025.6892	1283.3	402.5
1029.9864	3026.735	1281.25	399.45
1030.0973	3027.7802	1280.9	398.8
1030.2082	3028.8247	1286.15	404.1
1030.319	3029.8685	1276.7	392.75
1030.4297	3030.9118	1289.2	406.5
1030.5404	3031.9544	1286.65	402.5
1030.6511	3032.9963	1290.05	409.1
1030.7617	3034.0376	1290.8	411.1
1030.8723	3035.0783	1298.35	411.55
1030.9829	3036.1184	1293.55	408.9
1031.0934	3037.1578	1297.35	415.4
1031.2038	3038.1966	1300.2	417.65
1031.3142	3039.2348	1302.3	421.1
1031.4246	3040.2723	1310.5	419.3
1031.5349	3041.3092	1302.7	422.8
1031.6452	3042.3455	1308.05	424.05
1031.7554	3043.3811	1305.1	421.85
1031.8656	3044.4161	1295.75	413.35
1031.9758	3045.4505	1291.7	410.9
1032.0859	3046.4842	1295	412.4
1032.1959	3047.5173	1289.4	407.95
1032.3059	3048.5498	1286.45	403.65
1032.4159	3049.5816	1282.5	400.6
1032.5258	3050.6128	1286.15	403.5
1032.6357	3051.6434	1274.65	389.25
1032.7455	3052.6734	1267.75	383
1032.8553	3053.7027	1265.35	383.9
1032.9651	3054.7314	1269.05	387.75
1033.0748	3055.7594	1254.4	371.4
1033.1845	3056.7868	1259.75	375.8
1033.2941	3057.8136	1251.9	370.45
1033.4037	3058.8398	1247.8	365.9
1033.5132	3059.8653	1253.05	371.9
1033.6227	3060.8902	1243.45	360.75
1033.7321	3061.9145	1240.3	359.2
1033.8415	3062.9381	1235.8	354.45
1033.9509	3063.9612	1249.75	352.05
1034.0602	3064.9835	1235.75	353.45
1034.1694	3066.0053	1225.75	341.55
1034.2787	3067.0264	1217.7	336.4
1034.3878	3068.0469	1222.05	338.4
1034.497	3069.0668	1212.25	327.45
1034.6061	3070.086	1205.65	324.15
1034.7151	3071.1046	1203.2	317.6
1034.8241	3072.1226	1194	311.15
1034.9331	3073.1399	1189.95	309.05
1035.042	3074.1567	1183.5	300
1035.1508	3075.1727	1176.65	292.95
1035.2597	3076.1882	1166.4	285.2
1035.3684	3077.203	1159.8	278.15
1035.4772	3078.2173	1151.35	268.8
1035.5859	3079.2308	1151.65	266.2
1035.6945	3080.2438	1143.95	259.5
1035.8031	3081.2561	1131.05	249.15
1035.9117	3082.2678	1126.35	245.1
1036.0202	3083.2789	1119.75	237.1
1036.1286	3084.2893	1114.3	233.8
1036.2371	3085.2991	1108.1	226.3
1036.3454	3086.3083	1110.75	223.75
1036.4538	3087.3169	1103.65	220.35
1036.562	3088.3248	1094.95	210.25
1036.6703	3089.3321	1093.15	208.7
1036.7785	3090.3388	1089.4	208.75
1036.8866	3091.3449	1080.35	196.35
1036.9948	3092.3503	1080.9	197.45
1037.1028	3093.3551	1079.3	198.85
1037.2108	3094.3593	1074.85	193.05
1037.3188	3095.3629	1071.9	191.05
1037.4267	3096.3658	1068.85	185.3
1037.5346	3097.3681	1064	181.95
1037.6425	3098.3698	1067.2	183.6
1037.7503	3099.3708	1065.05	176.1
1037.858	3100.3713	1056.8	175.6
1037.9657	3101.3711	1062.05	179.25
1038.0734	3102.3702	1193.75	170.9
1038.181	3103.3688	1055.35	172.3
1038.2886	3104.3667	1049.25	168.3
1038.3961	3105.364	1047.8	167.55
1038.5036	3106.3607	1048.25	165.4
1038.611	3107.3568	1044	160.35
1038.7184	3108.3522	1040.7	161.35
1038.8257	3109.347	1035.3	151.3
1038.933	3110.3412	1043.3	156.8
1039.0403	3111.3348	1030.85	147.6
1039.1475	3112.3277	1037.15	156.05
1039.2547	3113.32	1029.9	149.3
1039.3618	3114.3117	1030.5	148.75
1039.4689	3115.3028	1031.95	150
1039.5759	3116.2932	1026.6	143.65
1039.6829	3117.2831	1030.6	142.35
1039.7898	3118.2723	1026.15	144.7
1039.8967	3119.2608	1021	137.35
1040.0035	3120.2488	1019.4	136.75
1040.1103	3121.2361	1016.65	135
1040.2171	3122.2229	1017.15	134.25
1040.3238	3123.209	1019.6	137.45
1040.4305	3124.1944	1016.45	133.9
1040.5371	3125.1793	1019.15	134.4
1040.6437	3126.1635	1016.4	137.1
1040.7502	3127.1471	1013.9	131.45
1040.8567	3128.1301	1009.1	127.85
1040.9631	3129.1125	1006.45	126.3
1041.0695	3130.0942	1009.6	129.75
1041.1759	3131.0753	1015.9	125.05
1041.2822	3132.0558	1013.5	128
1041.3884	3133.0357	1004.75	121.8
1041.4946	3134.015	1002.55	119.6
1041.6008	3134.9936	1005.8	121.15
1041.7069	3135.9716	1024.2	119.15
1041.813	3136.949	998.2	115.75
1041.919	3137.9258	1020.95	120.35
1042.025	3138.902	1002.3	113.5
1042.1309	3139.8775	997	116.5
1042.2368	3140.8524	999.95	117.2
1042.3427	3141.8267	998.55	116.4
1042.4485	3142.8004	999.15	115.8
1042.5542	3143.7735	1003.35	113.8
1042.6599	3144.7459	999.1	113.5
1042.7656	3145.7178	993.1	111.75
1042.8712	3146.689	990.5	109.3
1042.9768	3147.6596	990.6	107.3
1043.0823	3148.6295	989.6	106.45
1043.1878	3149.5989	990.1	107.95
1043.2932	3150.5676	988.95	108.65
1043.3986	3151.5357	990.8	110.5
1043.5039	3152.5032	988.3	106.7
1043.6092	3153.4701	987.95	107.6
1043.7145	3154.4364	988.55	104.85
1043.8197	3155.402	985.65	106.55
1043.9248	3156.367	985	101.05
1044.03	3157.3315	1013.9	101.45
1044.135	3158.2952	983.1	101.35
1044.24	3159.2584	985.2	102.3
1044.345	3160.221	981.8	99.75
1044.4499	3161.1829	980.2	96.8
1044.5548	3162.1442	977.75	97.45
1044.6596	3163.105	981.15	101.3
1044.7644	3164.065	980.45	98.4
1044.8692	3165.0245	980.5	97.5
1044.9739	3165.9834	977.2	96.8
1045.0785	3166.9416	977.25	95.4
1045.1831	3167.8993	979.3	97.8
1045.2877	3168.8563	974.95	91.4
1045.3922	3169.8127	971.8	90.65
1045.4966	3170.7684	973.55	90.05
1045.6011	3171.7236	976.9	92.2
1045.7054	3172.6782	974.45	92.3
1045.8098	3173.6321	973.4	89.25
1045.914	3174.5854	972.9	88.25
1046.0183	3175.5381	969.9	87
1046.1224	3176.4902	967.8	86.3
1046.2266	3177.4417	966.45	85.95
1046.3307	3178.3926	969.5	89.35
1046.4347	3179.3428	969.5	89.45
1046.5387	3180.2924	968	85.35
1046.6427	3181.2415	966	82.75
1046.7466	3182.1899	968.35	86.25
1046.8504	3183.1377	967.75	85.4
1046.9542	3184.0848	970.4	83.75
1047.058	3185.0314	966.95	85.35
1047.1617	3185.9773	968.75	84.4
1047.2654	3186.9227	963.9	82.3
1047.369	3187.8674	964.55	82
1047.4726	3188.8115	967.6	81.35
1047.5761	3189.755	963.8	83.6
1047.6796	3190.6979	962.1	79.95
1047.783	3191.6402	962.1	82.75
1047.8864	3192.5818	960	76.9
1047.9898	3193.5229	984.3	82.7
1048.0931	3194.4633	960.05	77.95
1048.1963	3195.4031	962	79.85
1048.2995	3196.3423	960.55	79.8
1048.4027	3197.2809	961.05	79.3
1048.5058	3198.2189	959.95	77.3
1048.6089	3199.1563	977.05	78.1
1048.7119	3200.0931	959.7	77.5
1048.8148	3201.0292	957.45	77.8
1048.9178	3201.9648	954.2	71.6
1049.0206	3202.8997	959.3	73
1049.1235	3203.834	957.4	79
1049.2262	3204.7677	956	74
1049.329	3205.7008	955.7	73.4
1049.4317	3206.6333	956.8	74.95
1049.5343	3207.5652	955.8	70.2
1049.6369	3208.4964	953.05	69.6
1049.7394	3209.4271	953.2	73
1049.8419	3210.3571	952.1	69.65
1049.9444	3211.2865	953.45	69.55
1050.0468	3212.2154	953.35	70.85
1050.1491	3213.1436	956.05	70.9
1050.2514	3214.0712	958.35	68.85
1050.3537	3214.9982	953	72.2
1050.4559	3215.9246	949.85	65.05
1050.5581	3216.8503	949.45	68.5
1050.6602	3217.7755	954.3	71.15
1050.7623	3218.7001	952.6	70.1
1050.8643	3219.624	949.8	66.3
1050.9663	3220.5473	950.5	69.85
1051.0682	3221.4701	952.6	69.3
1051.1701	3222.3922	950.95	66.5
1051.2719	3223.3137	949.8	68.2
1051.3737	3224.2346	947.05	66.25
1051.4754	3225.1549	947	66.7
1051.5771	3226.0746	947	65.15
1051.6788	3226.9937	946.65	61.2
1051.7804	3227.9121	946.6	66.2
1051.8819	3228.83	948.05	66.05
1051.9834	3229.7473	946.55	65
1052.0849	3230.6639	947.9	64.15
1052.1863	3231.5799	945.55	63.85
1052.2876	3232.4954	945.9	64.05
1052.3889	3233.4102	941.45	59.6
1052.4902	3234.3244	943.45	61.25
1052.5914	3235.238	942.15	60.75
1052.6926	3236.151	969.25	64.9
1052.7937	3237.0634	938.45	59.4
1052.8948	3237.9752	944.65	60.1
1052.9958	3238.8864	941.6	59.65
1053.0968	3239.797	941.35	59.2
1053.1977	3240.7069	943.85	61.15
1053.2986	3241.6163	941.5	60.15
1053.3994	3242.5251	942.8	62.35
1053.5002	3243.4332	936.95	55.3
1053.6009	3244.3408	938.35	56.55
1053.7016	3245.2477	941.25	59.75
1053.8022	3246.154	939.2	58
1053.9028	3247.0598	938.9	56.45
1054.0034	3247.9649	937.05	55.65
1054.1039	3248.8694	936.05	55.15
1054.2043	3249.7733	937.7	57.5
1054.3047	3250.6766	936.95	57
1054.4051	3251.5793	937.7	52.2
1054.5054	3252.4814	935.4	54.2
1054.6056	3253.3829	932.7	51.2
1054.7058	3254.2838	933.3	52
1054.806	3255.1841	934.1	53.35
1054.9061	3256.0838	934.5	52.6
1055.0061	3256.9829	932.15	50.25
1055.1062	3257.8814	932.95	49.85
1055.2061	3258.7792	933.5	50.85
1055.306	3259.6765	930.4	46.6
1055.4059	3260.5731	930.2	48.8
1055.5057	3261.4692	929.75	47.8
1055.6055	3262.3647	931.25	49.05
1055.7052	3263.2595	927.8	46.35
1055.8049	3264.1538	926.15	45.85
1055.9045	3265.0474	928	45.15
1056.0041	3265.9404	925.4	45.3
1056.1036	3266.8329	924.1	40.75
1056.2031	3267.7247	935.7	44.75
1056.3025	3268.616	922.45	43.85
1056.4019	3269.5066	922.2	39.95
1056.5013	3270.3966	922.85	39.75
1056.6005	3271.286	916.4	36.4
