Software Version:	3.9.2.0
Unit SN:	10000200
Spectrometer SN:	6960
Date:	3/14/2024 1:27:39 PM
Data Line Index:	25
Spectral Points:	2048
Integration time (ms):	125
Averages:	20
Delay (ms):	30000
Sequence Number:	1
Processing:	dark subtract
Laser Power (mW):	305
Laser Current (mA):	825
Laser Diode Temp (C):	25
Laser Case Temp (C):	28.5
System Temp (C):	28.5
Spectrometer Temp (C):	26.2
CCD Temp (C):	0.008
Secondary Temp (C):	20.004
Heatsink Temp (C):	24.372
CCDPCB Temp (C):	37.93
SecondaryPCB Temp (C):	35.573

Wavelength	RamanShift	Raw Counts	Dark Subtracted
787.061	30.1047	465.2	53.7
787.2016	32.3739	464.3	53.85
787.3422	34.6426	468.75	57.6
787.4828	36.9109	479.8	67
787.6235	39.1787	488.35	71.85
787.7642	41.4461	495.4	75
787.9049	43.7131	504.85	80.15
788.0456	45.9796	512.2	84.9
788.1863	48.2456	520.6	87.55
788.3271	50.5112	533.15	95.85
788.4679	52.7764	542.75	103.85
788.6087	55.0411	551.95	110.1
788.7496	57.3054	561.75	115.5
788.8904	59.5692	571.75	121.9
789.0313	61.8326	589.55	135.55
789.1722	64.0955	601	145.7
789.3132	66.3579	615.15	154.5
789.4541	68.6199	636.35	171.8
789.5951	70.8815	668.15	200.5
789.7361	73.1426	755.9	284.2
789.8771	75.4032	955.8	477.35
790.0181	77.6634	1469.4	986.7
790.1592	79.9231	2676.4	2185.7
790.3003	82.1824	5304.25	4804.05
790.4414	84.4412	10141.9	9621.65
790.5825	86.6995	16897	16351.9
790.7237	88.9574	23568.8	22996.2
790.8648	91.2148	28205.2	27618.95
791.006	93.4717	30437.45	29841.6
791.1472	95.7282	30929.2	30327.5
791.2885	97.9842	30768.75	30161.7
791.4297	100.2398	30128.8	29518.8
791.571	102.4949	29424.8	28811.4
791.7123	104.7495	28613.5	28000.55
791.8536	107.0036	27845.2	27230.05
791.9949	109.2573	27057.85	26442.7
792.1363	111.5105	26407.7	25792.2
792.2777	113.7632	25792.9	25172.95
792.4191	116.0154	25325.7	24697
792.5605	118.2672	25033.6	24409.65
792.7019	120.5185	24627.55	24005.8
792.8434	122.7693	24356.15	23732.95
792.9849	125.0197	24144.5	23514.5
793.1264	127.2696	23925.35	23294.65
793.2679	129.519	23791.5	23156.55
793.4094	131.7679	23517.5	22881
793.551	134.0163	23292.3	22654.7
793.6926	136.2642	23004.5	22359
793.8342	138.5117	22676.55	22026.9
793.9758	140.7587	22362.6	21712.55
794.1175	143.0052	22095.2	21442.85
794.2591	145.2512	21768.05	21122.45
794.4008	147.4967	21492	20838.7
794.5425	149.7417	21242.25	20585.05
794.6842	151.9863	21078	20420.35
794.826	154.2304	20933.35	20274.85
794.9677	156.4739	20788.65	20124.15
795.1095	158.717	20725.2	20062.7
795.2513	160.9596	20583.15	19913.7
795.3931	163.2017	20358.9	19690.9
795.535	165.4433	20097.1	19423.1
795.6768	167.6844	19797.7	19125.75
795.8187	169.925	19510.95	18833
795.9606	172.1651	19159.6	18478.15
796.1025	174.4047	18928.8	18244.35
796.2445	176.6439	18715.65	18030.75
796.3864	178.8825	18513.1	17826.25
796.5284	181.1206	18419.3	17727.9
796.6704	183.3582	18271.55	17578.15
796.8124	185.5954	18182.8	17484.75
796.9544	187.832	18110.5	17411.85
797.0965	190.0681	18058.65	17360.05
797.2386	192.3037	18070.85	17366.45
797.3806	194.5388	18021.6	17312.15
797.5228	196.7734	18091.2	17381.4
797.6649	199.0075	18138.2	17424.25
797.807	201.2411	18231.55	17517.25
797.9492	203.4742	18299.75	17581.6
798.0914	205.7068	18450	17730.5
798.2336	207.9389	18528.55	17809
798.3758	210.1704	18687.8	17966.6
798.518	212.4015	18757.45	18035.95
798.6603	214.632	18883.4	18158.7
798.8025	216.862	19011.75	18296
798.9448	219.0915	19093.15	18382.8
799.0871	221.3205	19166.95	18456.75
799.2294	223.549	19242.6	18539.95
799.3718	225.777	19344.75	18645.9
799.5141	228.0044	19412.6	18705.3
799.6565	230.2314	19562.8	18860.95
799.7989	232.4578	19676.35	18974.2
799.9413	234.6837	19762.1	19047.55
800.0837	236.909	19820.8	19108.5
800.2262	239.1339	19816.9	19081.55
800.3687	241.3582	19752	19032.9
800.5111	243.582	19672.4	18926.9
800.6536	245.8053	19607.6	18867.45
800.7961	248.0281	19512.35	18774.35
800.9387	250.2503	19543.45	18802.75
801.0812	252.472	19527.9	18782.6
801.2238	254.6932	19643.6	18896.2
801.3664	256.9139	19714.05	18964.8
801.509	259.134	19875.85	19127.4
801.6516	261.3536	20025.25	19279.9
801.7942	263.5727	20307.55	19557.2
801.9369	265.7912	20508.85	19757.55
802.0795	268.0092	20774.2	20020.65
802.2222	270.2267	20956	20205.55
802.3649	272.4436	21047.75	20294
802.5076	274.6601	21088.4	20326.5
802.6504	276.8759	20994.1	20237.8
802.7931	279.0913	20917.4	20162.7
802.9359	281.3061	20798.4	20044.2
803.0787	283.5204	20759	19998.05
803.2215	285.7341	20773.25	20007.4
803.3643	287.9473	20755.9	19977.65
803.5071	290.16	20819.85	20047.4
803.6499	292.3721	20874.65	20108.25
803.7928	294.5837	21028.95	20261.35
803.9357	296.7947	21184.3	20418.8
804.0786	299.0052	21351.55	20587.45
804.2215	301.2152	21321.35	20547.3
804.3644	303.4246	21201.1	20435.7
804.5074	305.6334	20896.5	20129.9
804.6503	307.8418	20508.7	19737.9
804.7933	310.0495	20130.6	19363.6
804.9363	312.2568	19715.15	18944.15
805.0793	314.4635	19318	18547
805.2223	316.6696	19030.35	18256.25
805.3653	318.8752	18834.5	18053.95
805.5084	321.0802	18732.15	17957.4
805.6514	323.2847	18705.3	17929.75
805.7945	325.4887	18738.65	17965
805.9376	327.692	18765.4	17991.25
806.0807	329.8949	18695.7	17919.95
806.2238	332.0972	18544.05	17766
806.367	334.2989	18358.6	17577.65
806.5101	336.5001	18085.3	17305.2
806.6533	338.7007	17935.7	17155.65
806.7965	340.9008	17796.95	17011.1
806.9397	343.1003	17604.1	16817.75
807.0829	345.2992	17504.3	16718.8
807.2261	347.4976	17378.5	16590.4
807.3693	349.6955	17310.55	16521.1
807.5126	351.8927	17315.95	16522.35
807.6559	354.0895	17187.65	16384.8
807.7991	356.2856	17208.75	16415.05
807.9424	358.4812	17093.45	16299.5
808.0857	360.6763	17118.4	16323.1
808.2291	362.8707	17052.35	16257.05
808.3724	365.0646	17093.9	16295.6
808.5158	367.258	17104.5	16306.8
808.6591	369.4508	17160.65	16356.75
808.8025	371.643	17256.9	16454.35
808.9459	373.8346	17282.25	16477.95
809.0893	376.0257	17348.65	16541.15
809.2327	378.2162	17369.65	16561.4
809.3762	380.4062	17335.9	16526.45
809.5196	382.5956	17216.15	16403.85
809.6631	384.7844	17164.6	16357.05
809.8066	386.9726	16980.85	16168.15
809.9501	389.1603	16930.7	16120.45
810.0936	391.3474	16832.95	15989.8
810.2371	393.5339	16797.35	15985.75
810.3806	395.7199	16693.15	15885.5
810.5241	397.9052	16729.6	15923.6
810.6677	400.09	16778.05	15975.5
810.8113	402.2743	16904.25	16101.8
810.9548	404.4579	17010.05	16208.2
811.0984	406.641	17201.15	16397.85
811.2421	408.8235	17341.15	16537.65
811.3857	411.0054	17461.4	16656.8
811.5293	413.1868	17640.5	16834.25
811.673	415.3675	17680.4	16873.25
811.8166	417.5477	17671.4	16863.55
811.9603	419.7273	17647.75	16835.35
812.104	421.9064	17546.05	16725.7
812.2477	424.0848	17485.05	16671.05
812.3914	426.2627	17295.75	16475.4
812.5351	428.4399	17092.5	16275.15
812.6788	430.6166	16807.95	15983.65
812.8226	432.7928	16520.8	15697.35
812.9663	434.9683	16205.55	15384.6
813.1101	437.1432	15971.05	15146.05
813.2539	439.3176	15786.8	14963.25
813.3977	441.4914	15651	14825.85
813.5415	443.6645	15617.85	14790.15
813.6853	445.8371	15532.5	14706.6
813.8291	448.0091	15480.5	14656.5
813.973	450.1806	15447.3	14619.65
814.1168	452.3514	15407.45	14581.15
814.2607	454.5216	15426.05	14589.45
814.4046	456.6913	15388.75	14556.95
814.5485	458.8603	15415.1	14589.15
814.6924	461.0288	15452.45	14623.5
814.8363	463.1967	15405	14573.5
814.9802	465.3639	15450.3	14618.1
815.1241	467.5306	15392.75	14560.95
815.2681	469.6967	15403.4	14571.75
815.412	471.8622	15363.35	14534
815.556	474.0271	15375.75	14546.4
815.7	476.1914	15389.4	14550.5
815.844	478.3551	15441.2	14611.2
815.988	480.5182	15463.8	14629.55
816.132	482.6807	15533.2	14698.5
816.276	484.8426	15677.05	14842.4
816.4201	487.0039	15938.7	15103.6
816.5641	489.1647	16283.3	15449.35
816.7082	491.3248	16589.15	15755.55
816.8522	493.4843	16653.6	15823.05
816.9963	495.6432	16606.75	15771.5
817.1404	497.8015	16486.05	15649.1
817.2845	499.9592	16367.9	15531.15
817.4286	502.1163	16178.7	15340.15
817.5727	504.2728	15910	15071.25
817.7168	506.4287	15668.25	14828.05
817.861	508.5839	15389.6	14547
818.0051	510.7386	15165.65	14326.15
818.1493	512.8927	15074.05	14227.75
818.2935	515.0461	15055.2	14217.15
818.4377	517.199	15052.75	14214.65
818.5818	519.3512	15165.15	14326.5
818.726	521.5029	15423.2	14578
818.8703	523.6539	15637.75	14795.7
819.0145	525.8043	15724.9	14882
819.1587	527.9541	15686.55	14840.95
819.303	530.1033	15513.85	14668.25
819.4472	532.2519	15347.65	14502.15
819.5915	534.3999	15276.05	14433.65
819.7357	536.5472	15304.5	14460.05
819.88	538.694	15466.15	14618.2
820.0243	540.8401	15684.95	14838.25
820.1686	542.9856	15865.15	15018.8
820.3129	545.1305	15904.05	15054.9
820.4572	547.2748	15832.35	14984.8
820.6016	549.4185	15664.6	14814.45
820.7459	551.5615	15516.65	14665.75
820.8902	553.704	15511.8	14664.8
821.0346	555.8458	15554.8	14707.05
821.1789	557.987	15678.2	14829.85
821.3233	560.1276	15840.6	14991.75
821.4677	562.2675	16172.4	15323.45
821.6121	564.4069	16589.15	15740.8
821.7565	566.5456	16967.25	16120.6
821.9009	568.6837	17152.45	16305.7
822.0453	570.8212	16787.6	15937.7
822.1897	572.958	16215.25	15365.4
822.3342	575.0942	15655.25	14808.3
822.4786	577.2299	15201.3	14353
822.6231	579.3648	14989.2	14141
822.7675	581.4992	14903.8	14053.3
822.912	583.6329	14907.7	14056.55
823.0565	585.766	15083.15	14233.95
823.201	587.8985	15167.35	14320.45
823.3454	590.0304	15217.35	14343
823.4899	592.1616	15212.15	14362.3
823.6345	594.2922	15058.95	14206.75
823.779	596.4222	14854.3	14001.65
823.9235	598.5515	14680.25	13827.2
824.068	600.6802	14504.7	13653.55
824.2126	602.8083	14354.55	13501.75
824.3571	604.9358	14315.15	13460.8
824.5017	607.0626	14300.65	13447.1
824.6462	609.1888	14367.6	13511.4
824.7908	611.3144	14504.85	13648.5
824.9354	613.4393	14585	13731.65
825.08	615.5636	14675.25	13819.95
825.2246	617.6873	14722.75	13869.5
825.3692	619.8103	14666.3	13810.65
825.5138	621.9327	14484.8	13626.4
825.6584	624.0544	14261.8	13405.85
825.803	626.1756	14139.4	13284.85
825.9477	628.2961	13972.8	13114.2
826.0923	630.4159	13868.8	13013.3
826.237	632.5351	13837.1	12978.55
826.3816	634.6537	13788.55	12928.75
826.5263	636.7716	13817	12959.3
826.6709	638.8889	13774.95	12917.9
826.8156	641.0056	13834.2	12977.15
826.9603	643.1216	13793.2	12937.65
827.105	645.237	13741.65	12883.5
827.2497	647.3518	13637.95	12777.05
827.3944	649.4659	13595	12738.9
827.5391	651.5793	13520.65	12661.7
827.6838	653.6922	13494.95	12637.5
827.8285	655.8043	13467	12609.6
827.9733	657.9159	13435.65	12574.05
828.118	660.0268	13385.65	12522.9
828.2627	662.137	13364.25	12503.45
828.4075	664.2466	13396.9	12534.1
828.5522	666.3556	13349.2	12490.25
828.697	668.4639	13284.35	12420.45
828.8418	670.5716	13277.5	12417.55
828.9865	672.6786	13213.5	12350.6
829.1313	674.785	13154.5	12289.3
829.2761	676.8907	13121.3	12260.75
829.4209	678.9958	13149.05	12287.35
829.5657	681.1002	13082.05	12219.05
829.7105	683.204	13101.85	12235.75
829.8553	685.3072	13047.8	12182.35
830.0001	687.4097	13000.95	12136.55
830.1449	689.5115	12989.2	12121.3
830.2898	691.6127	12999.8	12136.85
830.4346	693.7132	12959.85	12093.95
830.5794	695.8131	12956.2	12083.9
830.7243	697.9123	12969	12103.65
830.8691	700.0109	12984.6	12119.15
831.014	702.1089	12975.1	12110.25
831.1588	704.2061	13006.65	12142.4
831.3037	706.3028	13035.3	12166.7
831.4486	708.3987	13093.45	12224.3
831.5935	710.4941	13080.25	12214.75
831.7383	712.5887	13122.75	12253.05
831.8832	714.6827	13188.3	12318.95
832.0281	716.7761	13311.15	12443.8
832.173	718.8688	13459	12589.05
832.3179	720.9608	13534.5	12662.75
832.4628	723.0522	13662.3	12790.65
832.6077	725.1429	13711.7	12843.75
832.7527	727.233	13772.3	12903.3
832.8976	729.3224	13816.85	12948
833.0425	731.4112	13749.35	12880.2
833.1874	733.4993	13612.8	12739
833.3324	735.5867	13415.05	12547.45
833.4773	737.6735	13210.15	12337.8
833.6222	739.7596	13018.5	12148.2
833.7672	741.845	12867.9	11996.9
833.9122	743.9298	12753.8	11881.9
834.0571	746.014	12667.9	11798.2
834.2021	748.0974	12690.25	11819.3
834.347	750.1802	12680.95	11811.25
834.492	752.2624	12692.45	11822.6
834.637	754.3439	12667.85	11796.05
834.782	756.4247	12755.15	11876.5
834.9269	758.5048	12855.6	11984.75
835.0719	760.5843	13122.95	12252.2
835.2169	762.6631	13452.6	12582.1
835.3619	764.7413	13915.5	13048
835.5069	766.8188	14544.5	13672.45
835.6519	768.8956	15056.35	14181.35
835.7969	770.9718	15430.2	14558.95
835.9419	773.0473	15404.45	14533.2
836.0869	775.1221	15208.95	14337.2
836.232	777.1962	14943.8	14072.5
836.377	779.2697	14843.6	13970.55
836.522	781.3426	14888.3	14007.65
836.667	783.4147	14989.15	14114.4
836.8121	785.4862	15053.55	14182.55
836.9571	787.557	14862.95	13992.2
837.1021	789.6271	14481.1	13607.2
837.2472	791.6966	13903.9	13030
837.3922	793.7654	13342.65	12471.15
837.5373	795.8335	12930.5	12055.85
837.6823	797.901	12623.3	11750.05
837.8274	799.9678	12464	11587.65
837.9724	802.0339	12349.2	11479
838.1175	804.0993	12300.45	11418.4
838.2626	806.1641	12222.8	11348.9
838.4076	808.2282	12132.5	11258.2
838.5527	810.2916	12076.1	11198.95
838.6978	812.3544	11968.8	11094.9
838.8428	814.4164	11915.7	11040.9
838.9879	816.4778	11956.35	11080.85
839.133	818.5385	11975.55	11100.05
839.2781	820.5986	12059.5	11184.3
839.4232	822.658	12270.9	11397
839.5682	824.7166	12534.9	11659.05
839.7133	826.7747	13000.7	12126.4
839.8584	828.832	13457.15	12584
840.0035	830.8886	13785.55	12913.45
840.1486	832.9446	13977.5	13100.25
840.2937	834.9999	13859.3	12985.85
840.4388	837.0545	13621.05	12740.25
840.5839	839.1085	13353.3	12478.55
840.729	841.1618	13016.2	12136.1
840.8741	843.2143	12772.75	11897.25
841.0192	845.2662	12559.8	11686.15
841.1643	847.3175	12416.4	11546.7
841.3095	849.368	12281.45	11405.3
841.4546	851.4179	12196.55	11320.75
841.5997	853.467	12085	11207.3
841.7448	855.5155	12023.6	11149.5
841.8899	857.5633	11919.3	11041.7
842.0351	859.6105	11835.1	10959.45
842.1802	861.6569	11767.95	10891.35
842.3253	863.7027	11668.7	10789.55
842.4704	865.7478	11627.45	10751.4
842.6156	867.7922	11555.45	10679.55
842.7607	869.8359	11517.55	10640.35
842.9058	871.8789	11537.2	10659
843.0509	873.9212	11628.95	10714.4
843.1961	875.9629	11676.5	10800.65
843.3412	878.0039	11728.6	10850
843.4863	880.0441	11819.1	10942.9
843.6315	882.0837	11893	11016.65
843.7766	884.1226	11886.8	11007.6
843.9218	886.1609	11941.6	11066.35
844.0669	888.1984	12031.85	11153.3
844.212	890.2352	12147.85	11274.1
844.3572	892.2714	12137.55	11259
844.5023	894.3069	12126.35	11248.3
844.6475	896.3416	11933.85	11057.05
844.7926	898.3757	11801.3	10925.8
844.9377	900.4091	11738.15	10859.25
845.0829	902.4418	11685.65	10803.3
845.228	904.4739	11703.75	10823.15
845.3732	906.5052	11721.85	10843.8
845.5183	908.5358	11699.4	10819.65
845.6635	910.5658	11599.9	10717.1
845.8086	912.595	11384.5	10504.8
845.9538	914.6236	11199.15	10321.55
846.0989	916.6515	11063.35	10185.9
846.2441	918.6786	10959.3	10079.5
846.3892	920.7051	10926.35	10045.3
846.5344	922.7309	10975.65	10097.75
846.6795	924.756	10943.65	10063.15
846.8246	926.7804	11012.1	10132.95
846.9698	928.8041	10979.7	10099.75
847.1149	930.8272	11028.85	10148.35
847.2601	932.8495	11001.5	10120.5
847.4052	934.8711	10990.75	10109.05
847.5504	936.892	10942.35	10062.9
847.6955	938.9123	10911.95	10028.15
847.8407	940.9318	10912.35	10032.7
847.9858	942.9506	10919.45	10038.8
848.131	944.9688	10866.8	9986.3
848.2761	946.9862	10772.9	9893.7
848.4213	949.003	10623.1	9743.8
848.5664	951.019	10521.1	9639.9
848.7115	953.0344	10453.2	9573.85
848.8567	955.0491	10411.85	9530.3
849.0018	957.063	10437.1	9554.5
849.147	959.0763	10499.3	9621.7
849.2921	961.0888	10523.7	9640.4
849.4373	963.1007	10558.25	9678.8
849.5824	965.1119	10552.95	9672.5
849.7275	967.1223	10566	9686.3
849.8727	969.1321	10530.25	9651.1
850.0178	971.1412	10508.85	9628.1
850.1629	973.1495	10479.6	9601
850.3081	975.1572	10522.6	9608
850.4532	977.1641	10495.7	9615.95
850.5983	979.1704	10453.75	9572.95
850.7435	981.1759	10427.75	9543.3
850.8886	983.1808	10402.9	9522.2
851.0337	985.1849	10413.35	9523.9
851.1788	987.1884	10435.55	9553.2
851.324	989.1911	10560.55	9675.85
851.4691	991.1932	10602.3	9718.2
851.6142	993.1945	10612.9	9731.9
851.7593	995.1951	10551.65	9667.85
851.9045	997.1951	10541.35	9654.4
852.0496	999.1943	10500.4	9619
852.1947	1001.1928	10469.45	9588.05
852.3398	1003.1906	10500.25	9620.9
852.4849	1005.1877	10618.25	9734.05
852.63	1007.1841	10677.65	9795.1
852.7751	1009.1798	10699.15	9817.6
852.9202	1011.1748	10602.5	9723.2
853.0653	1013.1691	10478.05	9594
853.2104	1015.1627	10294.35	9411.55
853.3555	1017.1556	10098.9	9219.4
853.5006	1019.1477	9995.95	9114.95
853.6457	1021.1392	9885.2	9003.8
853.7908	1023.1299	9805.05	8923.9
853.9359	1025.12	9806.7	8923.9
854.081	1027.1093	9841	8961.25
854.2261	1029.0979	9939.8	9058.75
854.3712	1031.0859	10020	9136.7
854.5163	1033.0731	10040.7	9158.25
854.6613	1035.0596	9975	9091.85
854.8064	1037.0454	9870.75	8987.8
854.9515	1039.0304	9770.4	8888.1
855.0965	1041.0148	9651.5	8769.75
855.2416	1042.9985	9568.9	8686.7
855.3867	1044.9814	9532.5	8651.85
855.5317	1046.9636	9434.55	8550.2
855.6768	1048.9452	9424.6	8545.85
855.8219	1050.926	9443.35	8561.9
855.9669	1052.9061	9467.35	8585.9
856.112	1054.8855	9470.65	8587.65
856.257	1056.8642	9513.95	8633.85
856.4021	1058.8421	9569.6	8683.3
856.5471	1060.8194	9575.65	8695.75
856.6921	1062.7959	9596.75	8716.75
856.8372	1064.7717	9652.8	8770.3
856.9822	1066.7469	9698.7	8814.55
857.1272	1068.7213	9750.9	8865.2
857.2723	1070.695	9826.35	8943.6
857.4173	1072.6679	9847.25	8965.9
857.5623	1074.6402	9882.35	8999.9
857.7073	1076.6117	9854.25	8966.8
857.8523	1078.5826	9751.75	8868
857.9973	1080.5527	9622.4	8737.15
858.1423	1082.5221	9520	8636.65
858.2873	1084.4908	9506.7	8624.05
858.4323	1086.4587	9477.7	8594.2
858.5773	1088.426	9495.8	8613.65
858.7223	1090.3925	9506.2	8620.4
858.8673	1092.3584	9529	8647.75
859.0123	1094.3235	9536.05	8654
859.1573	1096.2879	9594.4	8710.75
859.3022	1098.2515	9686.3	8803.8
859.4472	1100.2145	9838.15	8957.35
859.5922	1102.1767	9976.8	9089.3
859.7371	1104.1382	10175.75	9294.65
859.8821	1106.099	10405.85	9520.95
860.027	1108.0591	10572.5	9692.45
860.172	1110.0185	10720.35	9834.65
860.3169	1111.9771	10816.9	9933.4
860.4619	1113.9351	10763.65	9880.95
860.6068	1115.8923	10623.5	9739.05
860.7517	1117.8488	10523.6	9640.7
860.8967	1119.8045	10348.65	9467.6
861.0416	1121.7596	10201.95	9319.05
861.1865	1123.7139	10070.15	9188.65
861.3314	1125.6675	10015.15	9132.6
861.4763	1127.6204	10062.1	9180.75
861.6212	1129.5726	9989.95	9105.4
861.7661	1131.524	9912.05	9027.95
861.911	1133.4748	9775.75	8893.15
862.0559	1135.4248	9602.7	8718.3
862.2008	1137.3741	9455.85	8573.95
862.3457	1139.3226	9351.45	8466.9
862.4905	1141.2705	9278.8	8396.45
862.6354	1143.2176	9213.65	8324.3
862.7803	1145.164	9171.75	8287.15
862.9251	1147.1097	9099.15	8216.9
863.07	1149.0546	9010.9	8126.7
863.2148	1150.9989	8902.9	8018.7
863.3597	1152.9424	8784.7	7902.05
863.5045	1154.8852	8709.6	7827.3
863.6493	1156.8272	8688.85	7807.4
863.7942	1158.7686	8673.9	7780.7
863.939	1160.7092	8682.2	7798.85
864.0838	1162.6491	8708.4	7823.25
864.2286	1164.5883	8779.2	7895.1
864.3734	1166.5267	8871.2	7989.05
864.5182	1168.4644	9017.05	8130.25
864.663	1170.4014	9201.65	8316.65
864.8078	1172.3377	9399.55	8517.65
864.9526	1174.2732	9690.3	8807.1
865.0974	1176.2081	10020.7	9138.45
865.2421	1178.1421	10424.4	9538.25
865.3869	1180.0755	10946.55	10064.35
865.5317	1182.0082	11305.5	10420.8
865.6764	1183.9401	11472.3	10587.5
865.8212	1185.8713	11376.25	10493.35
865.9659	1187.8017	11084.5	10201.7
866.1106	1189.7315	10763.55	9879.85
866.2554	1191.6605	10365.95	9455.35
866.4001	1193.5888	10035.85	9152.25
866.5448	1195.5163	9886.9	9005.75
866.6895	1197.4432	9776.35	8892.5
866.8342	1199.3693	9722.9	8840.45
866.9789	1201.2947	9682.75	8793.45
867.1236	1203.2193	9629.25	8743.85
867.2683	1205.1432	9602.95	8719.05
867.413	1207.0664	9582.75	8701.1
867.5576	1208.9889	9556.1	8669
867.7023	1210.9106	9520.5	8637.5
867.847	1212.8316	9524.25	8641.6
867.9916	1214.7519	9565.35	8674.5
868.1363	1216.6715	9593.6	8708.5
868.2809	1218.5903	9643.45	8761.6
868.4255	1220.5084	9710.4	8826.25
868.5701	1222.4257	9792.45	8910.3
868.7148	1224.3424	9851.6	8969.5
868.8594	1226.2583	9966.65	9078.8
869.004	1228.1735	10104.35	9217.2
869.1486	1230.0879	10223.6	9340.8
869.2932	1232.0016	10397.8	9515.1
869.4377	1233.9146	10525.1	9639.55
869.5823	1235.8269	10555.7	9672.5
869.7269	1237.7384	10529	9644.1
869.8715	1239.6492	10404.35	9522.5
870.016	1241.5592	10375.95	9490.25
870.1606	1243.4686	10416.7	9532.25
870.3051	1245.3772	10558.65	9676.45
870.4496	1247.285	10768.9	9884.55
870.5941	1249.1922	10934.45	10051.4
870.7387	1251.0986	11109.95	10227.4
870.8832	1253.0042	11206.7	10322.6
871.0277	1254.9092	11320.95	10439.1
871.1722	1256.8134	11390.2	10509.35
871.3167	1258.7169	11534.35	10653.45
871.4611	1260.6196	11629.6	10748.2
871.6056	1262.5216	11844.85	10958.75
871.7501	1264.4229	12013.15	11130.45
871.8945	1266.3234	12199.35	11316.05
872.039	1268.2232	12332.1	11448.2
872.1834	1270.1223	12385.8	11501.05
872.3278	1272.0207	12402.75	11517.95
872.4723	1273.9183	12423.6	11534.8
872.6167	1275.8151	12332.65	11451.5
872.7611	1277.7113	12336.45	11452.8
872.9055	1279.6067	12390.8	11509.1
873.0499	1281.5014	12586.3	11700.25
873.1943	1283.3953	12968.05	12082.65
873.3386	1285.2885	13463.15	12582.35
873.483	1287.181	13969.8	13082.65
873.6274	1289.0727	14483.75	13600.35
873.7717	1290.9637	14826.1	13941.75
873.9161	1292.854	15019.5	14135.8
874.0604	1294.7435	15046.85	14163.45
874.2047	1296.6323	14934.3	14049.85
874.349	1298.5204	14768.15	13878.85
874.4933	1300.4077	14537.25	13653.05
874.6376	1302.2943	14253.95	13369
874.7819	1304.1802	13960.25	13077.65
874.9262	1306.0653	13535.65	12649.95
875.0705	1307.9497	13112.35	12228.45
875.2147	1309.8333	12643.35	11761.35
875.359	1311.7162	12322.1	11436.4
875.5032	1313.5984	12135.3	11246.85
875.6475	1315.4798	11987.75	11091.95
875.7917	1317.3605	11908.95	11009.4
875.9359	1319.2405	11814.9	10928.05
876.0801	1321.1197	11572.4	10685.95
876.2243	1322.9982	11297.8	10408.6
876.3685	1324.876	11021.4	10139.35
876.5127	1326.753	10714.2	9829.4
876.6569	1328.6293	10495.65	9610.1
876.801	1330.5048	10320.25	9433
876.9452	1332.3796	10164.1	9280.35
877.0893	1334.2537	10069.4	9157.45
877.2335	1336.127	9946.9	9062.75
877.3776	1337.9996	9918.75	9032.5
877.5217	1339.8714	9884.4	8999.9
877.6658	1341.7426	9908.15	8981.9
877.8099	1343.6129	9884.45	8998.5
877.954	1345.4826	9875.6	8991.95
878.0981	1347.3515	9895.45	9006.2
878.2422	1349.2196	9865.15	8978.95
878.3862	1351.087	9848.1	8963.4
878.5303	1352.9537	9915.25	9029.5
878.6743	1354.8197	10024.6	9139.6
878.8184	1356.6849	10137.95	9253.4
878.9624	1358.5493	10298	9412.55
879.1064	1360.4131	10493.95	9609
879.2504	1362.276	10614.85	9733.1
879.3944	1364.1383	10657.1	9772.6
879.5384	1365.9998	10520.35	9631.7
879.6823	1367.8606	10251	9364.55
879.8263	1369.7206	9920.7	9034.1
879.9702	1371.5799	9644.5	8759.1
880.1142	1373.4384	9368.5	8482.8
880.2581	1375.2962	9151.75	8267.55
880.402	1377.1533	8853.85	7970
880.5459	1379.0096	8531.7	7646.5
880.6898	1380.8652	8241.4	7356.3
880.8337	1382.7201	7973.4	7089
880.9776	1384.5742	7748.2	6862.55
881.1215	1386.4275	7575.85	6691.75
881.2653	1388.2802	7421.7	6538.95
881.4092	1390.132	7314.85	6431.9
881.553	1391.9832	7252.85	6366.15
881.6968	1393.8336	7162.75	6278.5
881.8406	1395.6832	7111.65	6223.85
881.9844	1397.5322	7074.65	6189.15
882.1282	1399.3803	7043.7	6153.25
882.272	1401.2278	6994.55	6109.1
882.4158	1403.0745	7013.7	6129.15
882.5595	1404.9204	6954.85	6071.2
882.7033	1406.7656	6973.35	6087.85
882.847	1408.6101	6973.2	6090.1
882.9908	1410.4538	7011.75	6129.5
883.1345	1412.2968	7039.7	6156
883.2782	1414.139	7075.95	6192.95
883.4219	1415.9805	7145.55	6263.85
883.5656	1417.8213	7191.4	6298.55
883.7092	1419.6613	7284.8	6399.8
883.8529	1421.5006	7409.7	6524.95
883.9965	1423.3391	7612.45	6726.55
884.1402	1425.1769	7850.45	6965.3
884.2838	1427.0139	8187	7301.55
884.4274	1428.8502	8646.35	7760.1
884.571	1430.6858	9112.7	8228.1
884.7146	1432.5206	9481.8	8596.25
884.8582	1434.3547	9693	8807
885.0018	1436.188	9735.95	8852.45
885.1453	1438.0206	9647.8	8762.75
885.2889	1439.8524	9494.4	8609.8
885.4324	1441.6835	9403.4	8518.7
885.5759	1443.5139	9320.85	8431.7
885.7194	1445.3435	9226.9	8341.05
885.8629	1447.1724	9222.15	8339.85
886.0064	1449.0005	9179.75	8294.8
886.1499	1450.8279	9119.4	8235.25
886.2933	1452.6545	9103.95	8218.8
886.4368	1454.4804	9137.3	8254.4
886.5802	1456.3056	9139.55	8247.95
886.7237	1458.13	9067.1	8182.15
886.8671	1459.9536	8964	8078.75
887.0105	1461.7766	8729.3	7845.1
887.1539	1463.5987	8439.95	7553.7
887.2972	1465.4202	8172.2	7287.55
887.4406	1467.2409	7873.15	6988.6
887.584	1469.0608	7610.55	6725.1
887.7273	1470.88	7379.75	6495.65
887.8706	1472.6984	7191.25	6308.55
888.0139	1474.5161	6996.75	6110.45
888.1572	1476.3331	6855.75	5972.8
888.3005	1478.1493	6744.75	5860.55
888.4438	1479.9648	6673.9	5790.75
888.5871	1481.7795	6597.8	5713.1
888.7303	1483.5935	6535.1	5651.8
888.8736	1485.4067	6499.25	5615.1
889.0168	1487.2192	6457.55	5572.5
889.16	1489.031	6441.2	5555.6
889.3032	1490.842	6396.35	5513.25
889.4464	1492.6522	6345.95	5462.05
889.5896	1494.4618	6336.6	5450.8
889.7327	1496.2705	6301.05	5415.55
889.8759	1498.0785	6239.55	5352.95
890.019	1499.8858	6219.85	5334.85
890.1622	1501.6924	6165.7	5283
890.3053	1503.4981	6157.9	5274.65
890.4484	1505.3032	6116.1	5230.6
890.5914	1507.1075	6075.7	5191.6
890.7345	1508.911	6050.45	5164.7
890.8776	1510.7138	5989.5	5103.7
891.0206	1512.5159	5959.85	5073.2
891.1637	1514.3172	5924.65	5041.4
891.3067	1516.1178	5883.8	5001.2
891.4497	1517.9176	5852.75	4964
891.5927	1519.7166	5816.65	4934.1
891.7357	1521.515	5796.7	4905.95
891.8786	1523.3126	5772.5	4889.35
892.0216	1525.1094	5743.7	4856.3
892.1645	1526.9055	5718.9	4835.65
892.3074	1528.7008	5702	4815.6
892.4503	1530.4954	5667.55	4781
892.5932	1532.2893	5668	4786.15
892.7361	1534.0824	5640.7	4751.4
892.879	1535.8747	5641.15	4756.05
893.0218	1537.6663	5637.3	4751.95
893.1647	1539.4572	5634.25	4749.6
893.3075	1541.2473	5623.4	4737.7
893.4503	1543.0367	5626.1	4745.3
893.5931	1544.8253	5641.6	4752.4
893.7359	1546.6132	5645.05	4757.7
893.8787	1548.4003	5660	4765.05
894.0214	1550.1867	5708.85	4816.95
894.1642	1551.9723	5768.1	4882.25
894.3069	1553.7572	5851.9	4968.6
894.4496	1555.5414	5928.75	5043.65
894.5923	1557.3247	6079.85	5196.05
894.735	1559.1074	6213.8	5331.45
894.8777	1560.8893	6398.35	5518.25
895.0204	1562.6705	6530.3	5647
895.163	1564.4509	6650.1	5767.3
895.3056	1566.2305	6721.4	5835.45
895.4482	1568.0094	6783.25	5898.15
895.5908	1569.7876	6793.55	5908.2
895.7334	1571.565	6761.65	5878
895.876	1573.3417	6756.8	5873.05
896.0186	1575.1176	6751.35	5868
896.1611	1576.8928	6775.6	5891.6
896.3036	1578.6672	6762.05	5880.75
896.4461	1580.4409	6806.05	5922.75
896.5886	1582.2138	6817.5	5932
896.7311	1583.986	6875.7	5991.8
896.8736	1585.7575	6966.45	6085.1
897.0161	1587.5282	7035.85	6154.2
897.1585	1589.2981	7133.5	6253.15
897.3009	1591.0673	7253.75	6369.45
897.4433	1592.8358	7328.15	6444.05
897.5857	1594.6035	7445.55	6560.05
897.7281	1596.3704	7497.6	6615.45
897.8705	1598.1366	7574.2	6692.65
898.0128	1599.9021	7650.85	6766.3
898.1551	1601.6668	7732.5	6846.65
898.2975	1603.4308	7830.3	6945.75
898.4398	1605.194	7984.65	7094.3
898.5821	1606.9564	8141.75	7259.9
898.7243	1608.7182	8365.05	7476.8
898.8666	1610.4791	8637.2	7753.9
899.0088	1612.2394	8938.55	8054.25
899.1511	1613.9988	9220.25	8337.75
899.2933	1615.7576	9508.3	8625.4
899.4355	1617.5156	9718.4	8830.7
899.5776	1619.2728	9819.2	8938.15
899.7198	1621.0293	9752.55	8869.4
899.862	1622.785	9567.3	8678.55
900.0041	1624.54	9262.45	8376.25
900.1462	1626.2942	8931.85	8047.25
900.2883	1628.0477	8532.55	7647.55
900.4304	1629.8005	8199.05	7313.45
900.5725	1631.5525	7876.85	6993.5
900.7145	1633.3037	7602.05	6719.05
900.8566	1635.0542	7370.1	6486.5
900.9986	1636.804	7189	6307.85
901.1406	1638.553	7092	6154.15
901.2826	1640.3013	6965.45	6082.2
901.4245	1642.0488	6911.35	6028.25
901.5665	1643.7955	6911.35	6027.6
901.7085	1645.5416	6917.05	6034.1
901.8504	1647.2868	7001.7	6120.55
901.9923	1649.0313	7081	6198.95
902.1342	1650.7751	7197.6	6310.95
902.2761	1652.5181	7324.6	6444.05
902.4179	1654.2604	7445.25	6562.2
902.5598	1656.0019	7647.25	6764.7
902.7016	1657.7427	7855.3	6971.85
902.8434	1659.4828	8076.95	7192.5
902.9852	1661.222	8247.9	7363.1
903.127	1662.9606	8262.65	7379.7
903.2687	1664.6984	8062.6	7178.9
903.4105	1666.4354	7756.05	6873.95
903.5522	1668.1717	7269.2	6386.95
903.6939	1669.9072	6771.25	5889.2
903.8356	1671.642	6367.2	5482.95
903.9773	1673.3761	6026.2	5143.4
904.119	1675.1094	5732.45	4849.7
904.2606	1676.8419	5515.5	4633.55
904.4022	1678.5737	5337.9	4453.8
904.5439	1680.3048	5174.05	4292.55
904.6855	1682.0351	5050.6	4168.75
904.827	1683.7646	4949.9	4065.2
904.9686	1685.4934	4887.45	4004.85
905.1101	1687.2215	4801.4	3918
905.2517	1688.9488	4735.7	3853.9
905.3932	1690.6754	4680.45	3799.85
905.5347	1692.4012	4639.7	3757.95
905.6761	1694.1263	4609.65	3727.75
905.8176	1695.8506	4580.5	3699.3
905.9591	1697.5742	4536.7	3654.15
906.1005	1699.297	4486.45	3604
906.2419	1701.0191	4457.5	3575.85
906.3833	1702.7404	4424.05	3543
906.5246	1704.461	4388.05	3506.1
906.666	1706.1808	4364	3480.2
906.8073	1707.8999	4343.15	3460.3
906.9487	1709.6182	4326.4	3443.95
907.09	1711.3358	4288.05	3406.55
907.2313	1713.0527	4268.4	3390.15
907.3725	1714.7688	4246.65	3356.6
907.5138	1716.4841	4211.7	3328.45
907.655	1718.1987	4213.2	3327.7
907.7962	1719.9126	4195.55	3315.05
907.9374	1721.6257	4171.2	3285.95
908.0786	1723.338	4172.1	3289.7
908.2198	1725.0496	4143.4	3260
908.3609	1726.7605	4136.05	3253.95
908.502	1728.4706	4113.75	3231.45
908.6431	1730.18	4089.25	3205.4
908.7842	1731.8886	4086	3204.5
908.9253	1733.5964	4092.2	3203.9
909.0664	1735.3036	4066.65	3182.15
909.2074	1737.0099	4061.35	3178.25
909.3484	1738.7156	4026.5	3145.65
909.4894	1740.4204	3998.5	3115.25
909.6304	1742.1246	3987.5	3103.45
909.7714	1743.8279	3971.25	3089.25
909.9123	1745.5306	3944.8	3061.55
910.0532	1747.2325	3935.35	3053.5
910.1941	1748.9336	3917.3	3035.85
910.335	1750.634	3905.7	3022.05
910.4759	1752.3336	3895.4	3012.7
910.6168	1754.0325	3877.95	2996.55
910.7576	1755.7307	3891.4	3010.9
910.8984	1757.4281	3865.95	2983.55
911.0392	1759.1247	3863.9	2973.15
911.18	1760.8206	3862.1	2975.7
911.3208	1762.5158	3871	2983.8
911.4615	1764.2102	3850.4	2969.45
911.6022	1765.9039	3824.75	2941.9
911.7429	1767.5968	3825.9	2943.15
911.8836	1769.289	3807.95	2926.9
912.0243	1770.9804	3782.05	2901.35
912.1649	1772.6711	3790	2907.05
912.3056	1774.361	3787.1	2903.45
912.4462	1776.0502	3784.95	2901.45
912.5868	1777.7386	3779.7	2895.45
912.7274	1779.4263	3754.95	2873
912.8679	1781.1132	3756.4	2875.15
913.0084	1782.7994	3752	2869.2
913.149	1784.4849	3744.3	2863.85
913.2895	1786.1696	3751.65	2848.6
913.4299	1787.8535	3725.25	2843
913.5704	1789.5367	3696.55	2813.85
913.7108	1791.2192	3712.05	2830.55
913.8513	1792.9009	3704.05	2806.65
913.9917	1794.5818	3685.25	2801.1
914.132	1796.2621	3672.7	2792.95
914.2724	1797.9415	3670.25	2788.75
914.4128	1799.6202	3663.6	2781.9
914.5531	1801.2982	3646.2	2763.85
914.6934	1802.9755	3652.6	2768.65
914.8337	1804.6519	3645.35	2762.8
914.9739	1806.3277	3615.55	2734.55
915.1142	1808.0027	3609.5	2728.6
915.2544	1809.6769	3605.75	2723.7
915.3946	1811.3504	3603.2	2719.25
915.5348	1813.0231	3610.5	2725.4
915.675	1814.6951	3590.8	2707.2
915.8151	1816.3664	3601.15	2716.4
915.9553	1818.0369	3598.9	2718.2
916.0954	1819.7067	3579.95	2698.3
916.2355	1821.3757	3576.15	2692.5
916.3755	1823.044	3562.25	2680.8
916.5156	1824.7115	3562.8	2679.35
916.6556	1826.3783	3545.8	2665.45
916.7956	1828.0443	3529.85	2648.45
916.9356	1829.7096	3542.3	2658.8
917.0756	1831.3741	3546.9	2662.45
917.2155	1833.0379	3524.6	2643.65
917.3555	1834.701	3515.75	2631.6
917.4954	1836.3633	3512.9	2626.5
917.6353	1838.0248	3514.45	2632.7
917.7751	1839.6856	3511.2	2627.7
917.915	1841.3457	3511.05	2630.45
918.0548	1843.005	3487.05	2605.75
918.1946	1844.6636	3483.7	2604.4
918.3344	1846.3214	3469.45	2586.05
918.4742	1847.9785	3491.45	2610.65
918.6139	1849.6349	3473.65	2591.25
918.7537	1851.2904	3471.25	2579.5
918.8934	1852.9453	3467.4	2586.1
919.0331	1854.5994	3465.5	2581.9
919.1727	1856.2528	3458.15	2571.1
919.3124	1857.9054	3430.25	2550.6
919.452	1859.5572	3427.65	2548.1
919.5916	1861.2083	3435.55	2553.95
919.7312	1862.8587	3419.3	2538.05
919.8708	1864.5084	3424.8	2543.45
920.0103	1866.1572	3410.45	2530.85
920.1498	1867.8054	3412	2529.7
920.2893	1869.4528	3400.7	2518.3
920.4288	1871.0994	3396.5	2514.95
920.5683	1872.7453	3392.65	2510.4
920.7077	1874.3905	3398.8	2499.75
920.8471	1876.0349	3370.25	2487.35
920.9865	1877.6786	3380.3	2497
921.1259	1879.3215	3371.25	2490.45
921.2653	1880.9637	3368.65	2485.55
921.4046	1882.6051	3359.25	2476.6
921.5439	1884.2458	3348.15	2464.5
921.6832	1885.8858	3330.7	2449
921.8225	1887.525	3343.45	2459.2
921.9617	1889.1634	3322.1	2440.65
922.101	1890.8011	3301.7	2418.65
922.2402	1892.4381	3310.9	2430.5
922.3794	1894.0743	3314.55	2433.4
922.5185	1895.7098	3309	2428.1
922.6577	1897.3446	3302.7	2419.8
922.7968	1898.9786	3291.25	2404.35
922.9359	1900.6118	3283.9	2401.1
923.075	1902.2443	3256.2	2372.4
923.214	1903.8761	3260.6	2379.35
923.3531	1905.5071	3238.2	2356.3
923.4921	1907.1374	3257.15	2373.4
923.6311	1908.7669	3243.75	2360.1
923.77	1910.3957	3232.1	2351.4
923.909	1912.0237	3221.65	2340.05
924.0479	1913.651	3212.4	2331.3
924.1868	1915.2776	3212.1	2331.6
924.3257	1916.9034	3203.15	2323.25
924.4646	1918.5285	3192	2312.05
924.6034	1920.1528	3190.8	2309.2
924.7422	1921.7764	3185.05	2303.45
924.881	1923.3992	3175.5	2294.2
925.0198	1925.0213	3145.75	2264.6
925.1586	1926.6427	3138.4	2257.4
925.2973	1928.2633	3245.75	2258.45
925.436	1929.8832	3159.35	2274.15
925.5747	1931.5023	3150.95	2268.5
925.7134	1933.1207	3121.45	2238.45
925.852	1934.7383	3130.45	2247.85
925.9906	1936.3552	3123	2242.9
926.1292	1937.9714	3111.95	2230.45
926.2678	1939.5868	3106.7	2224.55
926.4064	1941.2015	3084.15	2202.45
926.5449	1942.8154	3069.2	2185.9
926.6834	1944.4286	3062.55	2181.65
926.8219	1946.041	3072.75	2166.1
926.9604	1947.6528	3060.45	2173.65
927.0988	1949.2637	3031.3	2150.4
927.2372	1950.8739	3048.15	2166.75
927.3756	1952.4834	3034.3	2152.2
927.514	1954.0921	3029.15	2149
927.6523	1955.7001	3024.75	2140.05
927.7907	1957.3074	3014.85	2133.5
927.929	1958.9139	3005.15	2123.95
928.0673	1960.5197	3009.25	2127.35
928.2055	1962.1247	2991.75	2109.8
928.3438	1963.729	2978.6	2098.7
928.482	1965.3325	2998.7	2090.65
928.6202	1966.9353	2970.85	2090.85
928.7584	1968.5374	2968.8	2084.4
928.8965	1970.1387	2947.3	2064.65
929.0346	1971.7393	2950.3	2068.4
929.1727	1973.3392	2942.3	2060.8
929.3108	1974.9383	2936.65	2056
929.4489	1976.5366	2922.25	2040.25
929.5869	1978.1342	2935.8	2051.95
929.7249	1979.7311	2921.1	2037.75
929.8629	1981.3273	2910.4	2026.55
930.0009	1982.9227	2909.95	2026.4
930.1388	1984.5173	2898.45	2016.65
930.2767	1986.1112	2872.9	1991.5
930.4146	1987.7044	2884	2003.2
930.5525	1989.2968	2871.55	1989.2
930.6904	1990.8885	2875.05	1989.95
930.8282	1992.4795	2868.6	1985.25
930.966	1994.0697	2844.4	1963.4
931.1038	1995.6592	2846.05	1964.15
931.2415	1997.2479	2844.25	1962.2
931.3793	1998.8359	2850.4	1966.4
931.517	2000.4232	2822.05	1940.75
931.6547	2002.0097	2820.25	1937.4
931.7923	2003.5955	2828.35	1944.85
931.93	2005.1805	2821.65	1937.5
932.0676	2006.7648	2815.05	1931.35
932.2052	2008.3484	2814.45	1933.15
932.3427	2009.9312	2805.9	1922.4
932.4803	2011.5133	2808.1	1927.4
932.6178	2013.0946	2795.4	1914.5
932.7553	2014.6752	2789.8	1908.9
932.8928	2016.2551	2783.15	1899.05
933.0302	2017.8342	2775.8	1893
933.1676	2019.4126	2776.1	1897
933.305	2020.9902	2764.65	1885
933.4424	2022.5672	2756.8	1874.55
933.5798	2024.1433	2774.05	1887.55
933.7171	2025.7188	2753.55	1871.9
933.8544	2027.2935	2751.7	1868.75
933.9917	2028.8674	2743.95	1864.1
934.129	2030.4406	2739	1858.1
934.2662	2032.0131	2734.95	1854.85
934.4034	2033.5849	2730.35	1843.95
934.5406	2035.1559	2721.65	1839.4
934.6778	2036.7261	2717.7	1835.5
934.8149	2038.2957	2705.55	1823.4
934.952	2039.8645	2696.3	1815.25
935.0891	2041.4325	2706.1	1821.6
935.2262	2042.9998	2694.35	1812.8
935.3632	2044.5664	2693.7	1809.95
935.5002	2046.1323	2682.3	1799.85
935.6372	2047.6974	2695.95	1815.4
935.7742	2049.2617	2682.55	1800.6
935.9111	2050.8254	2709.25	1793.1
936.048	2052.3883	2677.25	1794.95
936.1849	2053.9504	2664	1782.15
936.3218	2055.5118	2662.45	1780.05
936.4586	2057.0725	2653.45	1767.4
936.5955	2058.6325	2647.45	1764.55
936.7323	2060.1917	2631.45	1750.3
936.869	2061.7502	2636.5	1751.25
937.0058	2063.3079	2618.45	1737.2
937.1425	2064.8649	2635.9	1750.4
937.2792	2066.4212	2615.25	1731.4
937.4159	2067.9767	2613.15	1730.35
937.5525	2069.5315	2613.95	1733
937.6891	2071.0856	2609.55	1726.65
937.8257	2072.6389	2603.15	1721.85
937.9623	2074.1915	2584.7	1705.35
938.0989	2075.7433	2569.85	1686.95
938.2354	2077.2945	2587.85	1707.95
938.3719	2078.8448	2573.5	1691.25
938.5084	2080.3945	2560.85	1679.7
938.6448	2081.9434	2554.25	1671.6
938.7812	2083.4916	2551.75	1670.2
938.9176	2085.039	2553.8	1669.55
939.054	2086.5857	2540.05	1656.9
939.1903	2088.1317	2542.25	1661.45
939.3267	2089.677	2544	1662.1
939.463	2091.2215	2541.55	1660.1
939.5992	2092.7652	2534.55	1651.85
939.7355	2094.3083	2528.95	1645.55
939.8717	2095.8506	2528.85	1649.95
940.0079	2097.3921	2526.75	1645.35
940.1441	2098.933	2511.1	1629.65
940.2802	2100.4731	2513.5	1634.15
940.4163	2102.0124	2539.15	1637.75
940.5524	2103.5511	2520.95	1639.7
940.6885	2105.089	2526.1	1643.6
940.8245	2106.6261	2498.2	1616.85
940.9606	2108.1626	2503.05	1619.35
941.0965	2109.6983	2519.95	1610.25
941.2325	2111.2332	2485.5	1605.05
941.3684	2112.7675	2489.3	1606
941.5044	2114.301	2477.85	1595.05
941.6403	2115.8337	2492.35	1611.65
941.7761	2117.3657	2477	1594.4
941.912	2118.897	2468.65	1585.75
942.0478	2120.4276	2455.45	1567.45
942.1835	2121.9575	2449.5	1566.9
942.3193	2123.4866	2471.7	1574.9
942.455	2125.0149	2459.5	1574.35
942.5907	2126.5426	2447.1	1565.35
942.7264	2128.0695	2438.85	1551.25
942.8621	2129.5956	2433.35	1550.9
942.9977	2131.1211	2437.05	1550.55
943.1333	2132.6458	2422.55	1539.15
943.2689	2134.1698	2426.25	1544.05
943.4044	2135.693	2420.2	1534.5
943.54	2137.2155	2416.65	1532.1
943.6755	2138.7373	2410.3	1528.3
943.8109	2140.2584	2408.6	1527.35
943.9464	2141.7787	2400.6	1514
944.0818	2143.2983	2395.35	1513.9
944.2172	2144.8171	2390.35	1509.45
944.3526	2146.3353	2397.4	1513.2
944.4879	2147.8527	2361.35	1479.65
944.6232	2149.3693	2387.3	1504.55
944.7585	2150.8853	2373.2	1491
944.8938	2152.4005	2367.35	1485.95
945.029	2153.9149	2360.2	1477.85
945.1642	2155.4287	2368.95	1487.1
945.2994	2156.9417	2369.75	1488.95
945.4346	2158.454	2351.15	1466.7
945.5697	2159.9655	2347.1	1466.25
945.7048	2161.4764	2349.35	1465.75
945.8399	2162.9865	2338.2	1454.1
945.9749	2164.4958	2336.6	1451.7
946.1099	2166.0045	2331.9	1447.15
946.2449	2167.5124	2335.9	1453
946.3799	2169.0195	2327.75	1445.4
946.5148	2170.526	2319.8	1437.9
946.6498	2172.0317	2326.5	1444.85
946.7846	2173.5367	2317.3	1433.8
946.9195	2175.0409	2307.25	1426
947.0543	2176.5445	2316.5	1435.15
947.1891	2178.0473	2315.1	1433
947.3239	2179.5494	2308.95	1424.05
947.4587	2181.0507	2297.05	1414.4
947.5934	2182.5513	2296.45	1413.3
947.7281	2184.0512	2285.55	1403.8
947.8628	2185.5504	2283.85	1401.25
947.9974	2187.0488	2277.8	1396.65
948.132	2188.5465	2271.75	1391.9
948.2666	2190.0435	2279.95	1397.55
948.4012	2191.5397	2263.75	1383.25
948.5357	2193.0353	2267.6	1384.7
948.6702	2194.5301	2267.95	1386.1
948.8047	2196.0241	2255.4	1372.35
948.9392	2197.5175	2254.3	1371.85
949.0736	2199.0101	2247	1362.8
949.208	2200.502	2246	1364.7
949.3424	2201.9931	2246.15	1364.4
949.4767	2203.4835	2238.2	1354
949.611	2204.9733	2232.6	1342.45
949.7453	2206.4622	2229.9	1348.15
949.8796	2207.9505	2228.2	1343.5
950.0138	2209.438	2208.75	1329.6
950.148	2210.9248	2219.7	1334.85
950.2822	2212.4109	2208.6	1326.4
950.4164	2213.8962	2213.6	1329.9
950.5505	2215.3809	2187.75	1306.6
950.6846	2216.8648	2193.85	1312.2
950.8186	2218.3479	2192.1	1307.5
950.9527	2219.8304	2181.75	1297
951.0867	2221.3121	2175.4	1292.05
951.2207	2222.7931	2179.45	1299.7
951.3546	2224.2733	2168.25	1285.5
951.4886	2225.7529	2166.65	1284.25
951.6225	2227.2317	2167.6	1282.6
951.7563	2228.7098	2159.3	1278.1
951.8902	2230.1872	2165.7	1286.15
952.024	2231.6638	2154.15	1272.85
952.1578	2233.1397	2149.35	1262.55
952.2916	2234.6149	2141.95	1258.7
952.4253	2236.0894	2138.35	1254
952.559	2237.5632	2148.85	1256.85
952.6927	2239.0362	2133.25	1250.5
952.8263	2240.5085	2128.85	1246.65
952.9599	2241.9801	2134.15	1253
953.0935	2243.4509	2131.25	1250.95
953.2271	2244.921	2109.6	1229.1
953.3606	2246.3904	2113.2	1229.7
953.4941	2247.8591	2108.7	1226.25
953.6276	2249.3271	2113.2	1231.35
953.7611	2250.7943	2094.8	1212.15
953.8945	2252.2608	2095.05	1213.85
954.0279	2253.7266	2089.75	1206.85
954.1612	2255.1917	2086.9	1205.55
954.2946	2256.656	2077.45	1194.85
954.4279	2258.1197	2080.65	1198.5
954.5612	2259.5826	2077.6	1192.65
954.6944	2261.0447	2073	1189.75
954.8276	2262.5062	2062.15	1178.65
954.9608	2263.9669	2072.15	1188.95
955.094	2265.4269	2068.7	1186.75
955.2271	2266.8862	2054.9	1171.45
955.3602	2268.3448	2059.4	1177.25
955.4933	2269.8026	2062	1181
955.6264	2271.2598	2055.75	1173
955.7594	2272.7162	2042.3	1161.9
955.8924	2274.1719	2051.05	1169
956.0253	2275.6268	2054.9	1175.65
956.1583	2277.0811	2043.3	1160.3
956.2912	2278.5346	2039.5	1157.45
956.4241	2279.9874	2043.25	1159.6
956.5569	2281.4395	2033.8	1153.1
956.6897	2282.8908	2031.2	1142.6
956.8225	2284.3414	2022.55	1138.9
956.9553	2285.7914	2019.05	1137.7
957.088	2287.2406	2017.95	1134.6
957.2207	2288.689	2015.95	1134.85
957.3534	2290.1368	2020.1	1139.35
957.486	2291.5838	2006.75	1122.5
957.6186	2293.0302	2004.8	1124.75
957.7512	2294.4758	2008.6	1127.4
957.8838	2295.9206	2001.85	1117.35
958.0163	2297.3648	1990.05	1107.85
958.1488	2298.8082	2005.15	1122.1
958.2813	2300.251	2002.85	1121.65
958.4137	2301.693	1993.5	1108.65
958.5461	2303.1343	1995.35	1111.85
958.6785	2304.5748	1983.25	1102.4
958.8108	2306.0147	1978.45	1096.25
958.9432	2307.4538	1988.7	1103.25
959.0754	2308.8922	1973.7	1094.5
959.2077	2310.3299	1976.1	1093.85
959.3399	2311.7669	1963.75	1081.2
959.4721	2313.2031	1966.15	1085.45
959.6043	2314.6387	1964.55	1082.25
959.7365	2316.0735	1958.95	1075.95
959.8686	2317.5076	1956.35	1073.85
960.0006	2318.941	1954.45	1073.5
960.1327	2320.3737	1957.4	1076.6
960.2647	2321.8056	1951.75	1070
960.3967	2323.2369	1943.25	1061.75
960.5287	2324.6674	1938.45	1055.75
960.6606	2326.0972	1946.65	1063.95
960.7925	2327.5263	1939.4	1057.85
960.9244	2328.9547	1943.2	1059.85
961.0562	2330.3823	1936.15	1051.3
961.1881	2331.8092	1932.9	1049
961.3198	2333.2355	1916.9	1036.9
961.4516	2334.661	1926.55	1043.15
961.5833	2336.0858	1910.15	1027.05
961.715	2337.5098	1914.85	1035
961.8467	2338.9332	1912.3	1026.85
961.9783	2340.3558	1911.35	1024.4
962.1099	2341.7778	1904.05	1021.75
962.2415	2343.199	1906.25	1024
962.373	2344.6195	1891.85	1009.4
962.5045	2346.0393	1900.85	1019.35
962.636	2347.4583	1904.8	1021.55
962.7675	2348.8767	1898.2	1014.15
962.8989	2350.2943	1889.7	1008.7
963.0303	2351.7113	1890.9	1006.95
963.1617	2353.1275	1889.7	1007.7
963.293	2354.543	1912.7	1008.05
963.4243	2355.9578	1878.4	996.45
963.5556	2357.3718	1887.7	1007.5
963.6868	2358.7852	1879.15	993.9
963.818	2360.1978	1873.65	989.7
963.9492	2361.6098	1871.15	990.95
964.0803	2363.021	1876.05	990
964.2114	2364.4315	1872.85	992.7
964.3425	2365.8413	1868.65	984.1
964.4736	2367.2504	1859.95	977.9
964.6046	2368.6587	1856.4	974
964.7356	2370.0664	1854.45	972.6
964.8666	2371.4733	1848.35	966.6
964.9975	2372.8795	1846.25	964.95
965.1284	2374.285	1852.4	969.9
965.2593	2375.6899	1848.25	967.05
965.3901	2377.0939	1840.5	956.95
965.5209	2378.4973	1842.35	961.8
965.6517	2379.9	1835.85	954.75
965.7825	2381.3019	1832.55	950.45
965.9132	2382.7032	1830.05	950.15
966.0439	2384.1037	1827.05	947.25
966.1745	2385.5035	1826.15	945.75
966.3051	2386.9027	1816.05	934.6
966.4357	2388.3011	1825.15	938.75
966.5663	2389.6987	1824.65	942.15
966.6968	2391.0957	1813.7	931.65
966.8273	2392.492	1795.9	914.05
966.9578	2393.8876	1799.5	916.25
967.0882	2395.2824	1795	913.75
967.2186	2396.6765	1796.9	916.4
967.349	2398.07	1787.55	907.8
967.4793	2399.4627	1775.45	893.65
967.6097	2400.8547	1783.55	900.75
967.7399	2402.246	1794.95	906.95
967.8702	2403.6366	1780	899.05
968.0004	2405.0265	1777.35	895.6
968.1306	2406.4156	1776.3	888.85
968.2607	2407.8041	1781.7	897.05
968.3909	2409.1918	1776.15	892.1
968.521	2410.5789	1757.65	876.85
968.651	2411.9652	1759.2	873.6
968.781	2413.3508	1759.85	878
968.911	2414.7358	1757.95	875.25
969.041	2416.12	1759.85	879.3
969.1709	2417.5035	1751.2	870.3
969.3008	2418.8863	1757.35	874.55
969.4307	2420.2684	1742.75	860
969.5606	2421.6497	1749.15	866.6
969.6904	2423.0304	1737.7	856.7
969.8201	2424.4104	1747.45	866.5
969.9499	2425.7896	1738.7	849.45
970.0796	2427.1682	1739.75	857.7
970.2093	2428.546	1738.55	856.15
970.3389	2429.9232	1724.8	842.7
970.4685	2431.2996	1724.6	844.4
970.5981	2432.6753	1735.1	853.1
970.7277	2434.0503	1725.4	844.25
970.8572	2435.4246	1715.8	835.35
970.9867	2436.7982	1703.65	820.25
971.1161	2438.1711	1715.3	835.2
971.2456	2439.5433	1713.05	830.2
971.375	2440.9148	1708.6	822.6
971.5043	2442.2856	1699.25	819.25
971.6336	2443.6557	1703.15	819.45
971.7629	2445.025	1702.8	821.95
971.8922	2446.3937	1695.75	811.9
972.0214	2447.7617	1691.95	811.15
972.1506	2449.1289	1693.75	812.1
972.2798	2450.4955	1707.75	823.05
972.4089	2451.8613	1685.8	804.75
972.538	2453.2265	1682.25	799.25
972.6671	2454.5909	1679.95	797.3
972.7961	2455.9546	1679.35	800.5
972.9251	2457.3177	1678.15	797.55
973.0541	2458.68	1677.1	794.1
973.1831	2460.0416	1672.8	791.55
973.312	2461.4025	1677.15	794.75
973.4408	2462.7627	1682.8	788.9
973.5697	2464.1222	1674.35	792.4
973.6985	2465.4811	1681.5	798.1
973.8273	2466.8392	1674.05	792
973.956	2468.1966	1664.75	780.25
974.0847	2469.5533	1675.65	791.15
974.2134	2470.9093	1675.2	792.85
974.3421	2472.2645	1657	774.9
974.4707	2473.6191	1665.05	781.75
974.5993	2474.973	1656.7	775.3
974.7278	2476.3262	1656.7	775.6
974.8563	2477.6787	1650.7	768.05
974.9848	2479.0305	1653.45	770.85
975.1132	2480.3816	1659.2	775.8
975.2417	2481.7319	1652	768.7
975.37	2483.0816	1651.6	767.65
975.4984	2484.4306	1653.85	770.45
975.6267	2485.7789	1637.4	756.5
975.755	2487.1264	1631.15	748.05
975.8833	2488.4733	1629.8	749.1
976.0115	2489.8195	1642.75	753.8
976.1397	2491.165	1640.9	755.35
976.2678	2492.5097	1634.9	750.15
976.3959	2493.8538	1624.2	743.5
976.524	2495.1972	1617.75	737.15
976.6521	2496.5398	1612	729.45
976.7801	2497.8818	1614.2	730.95
976.9081	2499.2231	1613.05	730.1
977.036	2500.5637	1619.05	735.75
977.164	2501.9035	1602.95	720.35
977.2918	2503.2427	1615.55	731.2
977.4197	2504.5812	1608.3	728
977.5475	2505.919	1599.9	715.6
977.6753	2507.256	1600.15	718.45
977.8031	2508.5924	1600.25	719.5
977.9308	2509.9281	1601.6	713.3
978.0585	2511.2631	1597.8	716.4
978.1861	2512.5974	1588.6	707.55
978.3137	2513.9309	1594.2	714.2
978.4413	2515.2638	1619	707.05
978.5689	2516.596	1593.75	714.25
978.6964	2517.9275	1577.3	693.45
978.8239	2519.2583	1583.75	701.3
978.9513	2520.5884	1587.7	704.3
979.0788	2521.9178	1583.5	701.8
979.2062	2523.2465	1579.45	697.8
979.3335	2524.5745	1577.45	696.3
979.4608	2525.9018	1575.1	691.35
979.5881	2527.2284	1565.2	684.8
979.7154	2528.5543	1568.8	687.6
979.8426	2529.8796	1565.8	684.65
979.9698	2531.2041	1577.75	696.7
980.0969	2532.5279	1571.05	690.4
980.224	2533.851	1568.5	687.05
980.3511	2535.1735	1565.95	684.05
980.4781	2536.4952	1563.95	682.55
980.6052	2537.8163	1560.55	679.75
980.7321	2539.1366	1557.8	675.55
980.8591	2540.4562	1566.65	685.75
980.986	2541.7752	1564.65	684.8
981.1129	2543.0935	1558.95	676.1
981.2397	2544.411	1557.35	674.2
981.3665	2545.7279	1557.15	675.65
981.4933	2547.0441	1555.1	673.35
981.62	2548.3596	1549.6	664.3
981.7467	2549.6744	1555.3	675.4
981.8734	2550.9885	1556.2	672.2
982.0001	2552.3019	1545.7	664.15
982.1267	2553.6146	1547.3	666.7
982.2532	2554.9266	1545.45	663.15
982.3798	2556.2379	1544.55	659.65
982.5063	2557.5485	1538.75	659.9
982.6327	2558.8585	1549.9	659.6
982.7592	2560.1677	1542.3	657.4
982.8856	2561.4762	1538	657
983.0119	2562.7841	1542.4	658
983.1383	2564.0913	1534.95	655.15
983.2646	2565.3977	1535.4	653.7
983.3908	2566.7035	1534.5	651.25
983.517	2568.0086	1529.1	648.1
983.6432	2569.313	1532.1	650.3
983.7694	2570.6167	1530.5	644.25
983.8955	2571.9197	1526.75	646.2
984.0216	2573.222	1528.95	645.35
984.1476	2574.5236	1531	649
984.2737	2575.8246	1531.35	648.75
984.3996	2577.1248	1530.75	646.15
984.5256	2578.4244	1525.2	642.35
984.6515	2579.7232	1528.7	647.15
984.7774	2581.0214	1559.1	646.9
984.9032	2582.3189	1529.6	649.5
985.029	2583.6157	1528.95	642.3
985.1548	2584.9118	1518.35	636.7
985.2806	2586.2072	1530.4	647.75
985.4063	2587.5019	1519.7	639.25
985.5319	2588.7959	1523.6	640.7
985.6576	2590.0893	1528.45	646.85
985.7832	2591.3819	1522.55	640.65
985.9087	2592.6739	1523.5	643.5
986.0343	2593.9652	1520.25	638.75
986.1597	2595.2557	1520.1	639.65
986.2852	2596.5456	1524.2	642.3
986.4106	2597.8348	1518.85	638.2
986.536	2599.1234	1515.25	634.25
986.6614	2600.4112	1516.6	636.05
986.7867	2601.6983	1529.5	644.9
986.912	2602.9848	1522.9	642.05
987.0372	2604.2705	1529.15	638.6
987.1624	2605.5556	1515.8	635.05
987.2876	2606.84	1515.95	633.15
987.4128	2608.1237	1511.25	630.15
987.5379	2609.4067	1512.15	629.6
987.6629	2610.689	1516.25	627.2
987.788	2611.9707	1511.35	626.4
987.913	2613.2516	1504.6	619.25
988.0379	2614.5319	1496.35	614.45
988.1629	2615.8115	1502.15	620.1
988.2878	2617.0903	1497.4	614.85
988.4126	2618.3685	1483.95	601.35
988.5375	2619.6461	1488.35	608.4
988.6622	2620.9229	1480.85	598.45
988.787	2622.199	1492.6	611.45
988.9117	2623.4745	1491	608.4
989.0364	2624.7493	1484.35	603.65
989.161	2626.0234	1483.55	602.75
989.2857	2627.2968	1486.75	605.35
989.4102	2628.5695	1474.35	590.9
989.5348	2629.8415	1478.7	598.9
989.6593	2631.1128	1479.05	593.35
989.7837	2632.3835	1478.9	600.75
989.9082	2633.6535	1481.25	600.1
990.0326	2634.9228	1472.55	592.1
990.1569	2636.1914	1474.55	594.45
990.2812	2637.4593	1476	593.05
990.4055	2638.7265	1475.75	593.95
990.5298	2639.9931	1475.2	593.3
990.654	2641.259	1470.75	588
990.7782	2642.5242	1472.65	590.05
990.9023	2643.7887	1462.3	582.3
991.0264	2645.0525	1461.45	581.75
991.1505	2646.3156	1464.1	581.85
991.2745	2647.5781	1449.6	569.05
991.3985	2648.8398	1462.55	581.85
991.5225	2650.1009	1487.85	566.85
991.6464	2651.3613	1458.8	577
991.7703	2652.6211	1452.8	570.65
991.8942	2653.8801	1446.25	565.8
992.018	2655.1385	1455.1	571.55
992.1418	2656.3961	1445.8	563.55
992.2655	2657.6531	1448.1	566.1
992.3892	2658.9094	1455	573.05
992.5129	2660.1651	1441.75	560.2
992.6366	2661.42	1453.3	570.65
992.7602	2662.6743	1446.85	565.65
992.8837	2663.9279	1452.35	572.6
993.0073	2665.1808	1452	571
993.1307	2666.433	1453.7	571.25
993.2542	2667.6846	1453.75	575.05
993.3776	2668.9354	1452.2	568.6
993.501	2670.1856	1459.9	578.5
993.6244	2671.4351	1456.55	573.4
993.7477	2672.6839	1460.85	578.15
993.8709	2673.9321	1465.55	585.7
993.9942	2675.1795	1462	580.8
994.1174	2676.4263	1463.35	582.5
994.2405	2677.6724	1464.8	584.15
994.3637	2678.9179	1463.15	582.15
994.4868	2680.1626	1455.2	573.9
994.6098	2681.4067	1465.45	582.5
994.7328	2682.6501	1460.1	579.7
994.8558	2683.8928	1458	574.85
994.9788	2685.1348	1447.85	564.7
995.1017	2686.3761	1452.2	573.65
995.2245	2687.6168	1443.8	563.45
995.3474	2688.8568	1444	562.85
995.4702	2690.0961	1436	556
995.5929	2691.3348	1435.5	553.5
995.7156	2692.5727	1438.6	556.4
995.8383	2693.81	1431.05	547.1
995.961	2695.0466	1436.75	556.55
996.0836	2696.2826	1431.95	547.65
996.2062	2697.5178	1434.95	550.9
996.3287	2698.7524	1433.6	551.75
996.4512	2699.9863	1430	548.25
996.5737	2701.2195	1430.1	550.6
996.6961	2702.452	1447.35	564.45
996.8185	2703.6839	1441.4	559.5
996.9408	2704.9151	1443.5	563.3
997.0631	2706.1456	1446.5	564.75
997.1854	2707.3755	1452.5	569.85
997.3077	2708.6046	1463.25	579.15
997.4299	2709.8331	1458.3	574.05
997.552	2711.0609	1460.95	579.3
997.6742	2712.2881	1473.65	589.65
997.7963	2713.5145	1474.3	590.75
997.9183	2714.7403	1480.35	601.75
998.0403	2715.9654	1484	603.1
998.1623	2717.1899	1511.6	615.65
998.2842	2718.4136	1516.4	634.95
998.4062	2719.6367	1508.65	625.85
998.528	2720.8591	1530.85	643.15
998.6498	2722.0809	1534	652.75
998.7716	2723.3019	1540.2	653.8
998.8934	2724.5223	1559.6	677.25
999.0151	2725.7421	1558.95	676.1
999.1368	2726.9611	1558.8	674.8
999.2584	2728.1795	1563.85	678.55
999.38	2729.3972	1550.4	669.6
999.5016	2730.6142	1556.05	661.85
999.6231	2731.8306	1528.2	643.85
999.7446	2733.0462	1527.6	643.75
999.8661	2734.2612	1507.6	618.95
999.9875	2735.4756	1486.3	601.85
1000.1089	2736.6892	1481.5	600.65
1000.2302	2737.9022	1458.3	578
1000.3515	2739.1145	1459.1	577.5
1000.4728	2740.3262	1449.95	561.4
1000.594	2741.5372	1442.25	562
1000.7152	2742.7475	1427.4	545.3
1000.8363	2743.9571	1413.65	532.5
1000.9575	2745.1661	1413.95	528.85
1001.0785	2746.3744	1402.45	520.05
1001.1996	2747.582	1395.1	514.35
1001.3206	2748.7889	1384.55	500.25
1001.4415	2749.9952	1381.05	499.05
1001.5625	2751.2008	1383.8	500.25
1001.6833	2752.4057	1378.2	492.4
1001.8042	2753.61	1369.35	487.8
1001.925	2754.8136	1370.85	487.35
1002.0458	2756.0165	1365.4	484.7
1002.1665	2757.2188	1362	481.75
1002.2872	2758.4204	1357.65	477.05
1002.4078	2759.6213	1357.7	473.25
1002.5285	2760.8215	1371.55	482.75
1002.649	2762.0211	1358.15	477.25
1002.7696	2763.22	1365.3	479.4
1002.8901	2764.4182	1354.75	473.05
1003.0106	2765.6158	1361.05	476.45
1003.131	2766.8127	1353.05	472
1003.2514	2768.009	1343.9	462.4
1003.3717	2769.2045	1351.25	466.65
1003.492	2770.3994	1347.4	463.85
1003.6123	2771.5936	1344.75	462.25
1003.7325	2772.7872	1342.6	462.4
1003.8527	2773.9801	1339.6	456.05
1003.9729	2775.1723	1350.1	453.5
1004.093	2776.3639	1336.75	456.8
1004.2131	2777.5548	1332.65	449.25
1004.3331	2778.745	1332.4	449.7
1004.4531	2779.9346	1329.85	449.1
1004.5731	2781.1235	1338.9	456.3
1004.693	2782.3117	1339.35	460.4
1004.8129	2783.4992	1340.05	459.55
1004.9328	2784.6861	1340.65	456.45
1005.0526	2785.8723	1342.15	459.1
1005.1723	2787.0579	1347.3	465.45
1005.2921	2788.2428	1343.35	461.95
1005.4118	2789.427	1348.05	465.85
1005.5314	2790.6106	1357.25	476.75
1005.651	2791.7935	1362.55	478.95
1005.7706	2792.9757	1361.05	481.4
1005.8902	2794.1573	1372.7	489
1006.0097	2795.3382	1379.15	499.4
1006.1291	2796.5184	1385.6	506.2
1006.2485	2797.698	1392.1	508.45
1006.3679	2798.8769	1396.75	514.65
1006.4873	2800.0551	1414.7	534.3
1006.6066	2801.2327	1422.2	537.7
1006.7258	2802.4096	1433.8	553.8
1006.8451	2803.5859	1446.75	564.65
1006.9642	2804.7615	1454.5	571.15
1007.0834	2805.9364	1471.75	592.6
1007.2025	2807.1106	1488.85	606.05
1007.3216	2808.2842	1513.15	631.45
1007.4406	2809.4572	1535.6	652.75
1007.5596	2810.6294	1550.65	669.2
1007.6785	2811.801	1579.95	699.8
1007.7975	2812.972	1614.35	734.65
1007.9163	2814.1423	1642.65	761.9
1008.0352	2815.3119	1682.7	801.1
1008.154	2816.4808	1720.8	841.9
1008.2727	2817.6491	1762.65	882.3
1008.3914	2818.8167	1796.15	915.95
1008.5101	2819.9837	1861.3	975.1
1008.6288	2821.15	1894.1	1011.65
1008.7474	2822.3157	1942.3	1061.9
1008.8659	2823.4807	2000.05	1118.45
1008.9844	2824.645	2046.6	1166.6
1009.1029	2825.8086	2102.05	1222.9
1009.2214	2826.9716	2139.85	1260.2
1009.3398	2828.134	2196.1	1315.95
1009.4581	2829.2957	2235.3	1354.85
1009.5764	2830.4567	2260.65	1381.05
1009.6947	2831.617	2287.3	1405.05
1009.813	2832.7767	2304.15	1423.85
1009.9312	2833.9358	2286.35	1404.25
1010.0493	2835.0941	2281.3	1399.45
1010.1675	2836.2519	2270.3	1389.55
1010.2855	2837.4089	2272.3	1389.65
1010.4036	2838.5653	2249.15	1369.25
1010.5216	2839.7211	2240.7	1360.95
1010.6396	2840.8761	2231.85	1349.75
1010.7575	2842.0306	2239.1	1359.4
1010.8754	2843.1843	2246.3	1364.8
1010.9932	2844.3374	2273	1392.6
1011.111	2845.4899	2301.8	1418.9
1011.2288	2846.6417	2342.9	1462.8
1011.3465	2847.7928	2377.35	1496.15
1011.4642	2848.9433	2439.3	1557.8
1011.5818	2850.0931	2485.25	1604.55
1011.6995	2851.2422	2537.75	1654.7
1011.817	2852.3907	2589.55	1706.8
1011.9345	2853.5385	2638.3	1755.75
1012.052	2854.6857	2706.95	1797.85
1012.1695	2855.8323	2724.85	1845.75
1012.2869	2856.9781	2770.8	1889.75
1012.4042	2858.1233	2806.4	1927.4
1012.5216	2859.2679	2850.3	1970.55
1012.6389	2860.4118	2892.85	2014.65
1012.7561	2861.555	2938.1	2053
1012.8733	2862.6976	2986.4	2103.75
1012.9905	2863.8395	2997.45	2115.3
1013.1076	2864.9808	3013.15	2132.35
1013.2247	2866.1214	3040.55	2158.5
1013.3417	2867.2614	3075.8	2194.8
1013.4587	2868.4007	3080.35	2196.4
1013.5757	2869.5393	3091.05	2207.6
1013.6926	2870.6773	3106.15	2222.15
1013.8095	2871.8146	3124.65	2240.8
1013.9263	2872.9513	3132.7	2249.5
1014.0431	2874.0874	3106.45	2226.05
1014.1599	2875.2227	3099.1	2217.35
1014.2766	2876.3574	3080.2	2199.95
1014.3933	2877.4915	3068.75	2186.65
1014.51	2878.6249	3034.8	2155.8
1014.6266	2879.7577	3028.7	2146.2
1014.7431	2880.8898	3009.55	2114.95
1014.8596	2882.0212	2995.15	2116.85
1014.9761	2883.152	2986.5	2105.45
1015.0925	2884.2821	2965.6	2084.9
1015.2089	2885.4116	2960.65	2082.15
1015.3253	2886.5405	2967.3	2085.9
1015.4416	2887.6686	2975	2094.05
1015.5579	2888.7962	2970.05	2088.2
1015.6741	2889.923	2969.1	2089.4
1015.7903	2891.0493	2987.05	2105.95
1015.9065	2892.1748	2989.25	2106.8
1016.0226	2893.2997	3013.05	2130.05
1016.1387	2894.424	3013.1	2132.8
1016.2547	2895.5476	3031.2	2150.1
1016.3707	2896.6706	3049.2	2166.3
1016.4866	2897.7929	3074.5	2193.75
1016.6025	2898.9145	3087	2206.45
1016.7184	2900.0355	3106.5	2222.25
1016.8342	2901.1559	3129.5	2248.45
1016.95	2902.2756	3158.2	2276.55
1017.0658	2903.3946	3177.15	2297.05
1017.1815	2904.513	3196.9	2313.35
1017.2971	2905.6308	3230.4	2348
1017.4127	2906.7479	3250.45	2367.65
1017.5283	2907.8643	3257.75	2373.95
1017.6439	2908.9801	3271.3	2390.35
1017.7594	2910.0953	3284.6	2404.05
1017.8748	2911.2098	3291.9	2407.8
1017.9902	2912.3236	3273.35	2384.45
1018.1056	2913.4368	3272.9	2387.9
1018.2209	2914.5494	3257.2	2374.75
1018.3362	2915.6613	3222.55	2334.25
1018.4515	2916.7725	3201.6	2318.15
1018.5667	2917.8831	3180.3	2298.35
1018.6819	2918.9931	3158.15	2274.45
1018.797	2920.1024	3125.45	2243.15
1018.9121	2921.211	3100.85	2219.9
1019.0271	2922.319	3084.5	2201.85
1019.1421	2923.4264	3088.85	2207.35
1019.2571	2924.5331	3059.7	2179.8
1019.372	2925.6391	3051.7	2170.25
1019.4869	2926.7445	3069.3	2188.95
1019.6017	2927.8493	3061	2180.25
1019.7165	2928.9534	3075.25	2193.4
1019.8313	2930.0569	3080.4	2196.3
1019.946	2931.1597	3075	2192.25
1020.0606	2932.2619	3070.2	2188.65
1020.1753	2933.3634	3088.35	2207
1020.2899	2934.4643	3083.4	2197.3
1020.4044	2935.5645	3085.65	2201
1020.5189	2936.6641	3068.4	2184.2
1020.6334	2937.763	3044.9	2163.15
1020.7478	2938.8613	3018.55	2135.65
1020.8622	2939.959	2995.5	2109.1
1020.9765	2941.056	2933.45	2053.6
1021.0908	2942.1523	2879.5	1994.7
1021.2051	2943.248	2811.1	1928.4
1021.3193	2944.3431	2747.5	1865.65
1021.4334	2945.4375	2678.15	1795.1
1021.5476	2946.5313	2591.8	1713.15
1021.6617	2947.6244	2499.15	1616.1
1021.7757	2948.7169	2435.2	1551.9
1021.8897	2949.8087	2354.75	1472.15
1022.0037	2950.8999	2267.85	1383.95
1022.1176	2951.9904	2205.3	1324.6
1022.2315	2953.0803	2139.95	1257
1022.3453	2954.1696	2089.2	1207.75
1022.4591	2955.2582	2056.45	1176.45
1022.5728	2956.3462	1997.6	1115
1022.6865	2957.4335	1967.85	1086.25
1022.8002	2958.5202	1938.9	1054.95
1022.9138	2959.6062	1912.7	1030.85
1023.0274	2960.6916	1893	1013.7
1023.141	2961.7764	1873.2	991.4
1023.2545	2962.8605	1866.15	985
1023.3679	2963.9439	1853.65	975.55
1023.4813	2965.0267	1844.7	962.15
1023.5947	2966.1089	1851	946.05
1023.708	2967.1905	1828.85	948.2
1023.8213	2968.2714	1825.1	944.95
1023.9346	2969.3516	1821.05	938.9
1024.0478	2970.4312	1837.2	945.3
1024.1609	2971.5102	1833.25	951.95
1024.274	2972.5885	1831.15	949.55
1024.3871	2973.6662	1841.15	954.1
1024.5002	2974.7432	1826.45	946.4
1024.6132	2975.8196	1838.95	957.25
1024.7261	2976.8954	1829.3	949.8
1024.839	2977.9705	1821.55	940.85
1024.9519	2979.045	1813.05	933.35
1025.0647	2980.1188	1807.15	926.45
1025.1775	2981.192	1785.75	906.25
1025.2902	2982.2645	1778.25	896.2
1025.4029	2983.3364	1757.9	877.45
1025.5156	2984.4077	1737.25	855.7
1025.6282	2985.4783	1722.55	836.1
1025.7407	2986.5483	1693.95	812.75
1025.8532	2987.6177	1661.75	780.75
1025.9657	2988.6864	1634.85	750.9
1026.0782	2989.7545	1611.05	727.25
1026.1906	2990.8219	1579.25	697.75
1026.3029	2991.8887	1549.85	667.2
1026.4152	2992.9548	1523.25	642.3
1026.5275	2994.0204	1491.5	610.75
1026.6397	2995.0852	1481.45	600.75
1026.7519	2996.1495	1452.5	571.1
1026.864	2997.2131	1429.95	549
1026.9761	2998.276	1412.95	531.5
1027.0882	2999.3383	1393	510
1027.2002	3000.4	1365.95	484.2
1027.3122	3001.4611	1359.1	479.8
1027.4241	3002.5215	1330.45	448.35
1027.536	3003.5812	1323.9	444.05
1027.6478	3004.6404	1317.45	438.25
1027.7596	3005.6989	1306.95	421.9
1027.8714	3006.7567	1298.05	417.35
1027.9831	3007.8139	1308.7	399.5
1028.0947	3008.8705	1278.3	396.35
1028.2064	3009.9264	1284.6	386.1
1028.3179	3010.9818	1259.35	376.35
1028.4295	3012.0364	1258.3	377.4
1028.541	3013.0905	1250.1	367.55
1028.6524	3014.1439	1241.5	360.15
1028.7638	3015.1966	1236.25	354.9
1028.8752	3016.2487	1235.1	352.35
1028.9865	3017.3002	1240	355.65
1029.0978	3018.3511	1228.9	349.9
1029.209	3019.4013	1224.95	344.2
1029.3202	3020.4509	1223.45	344
1029.4314	3021.4998	1225.75	343.4
1029.5425	3022.5481	1222.65	341.55
1029.6535	3023.5958	1219.55	337.15
1029.7645	3024.6428	1215.5	334.2
1029.8755	3025.6892	1212.15	332.35
1029.9864	3026.735	1220.6	339.15
1030.0973	3027.7802	1217.55	336.2
1030.2082	3028.8247	1210.6	330.4
1030.319	3029.8685	1213.2	332.85
1030.4297	3030.9118	1214	333.45
1030.5404	3031.9544	1216.45	336.65
1030.6511	3032.9963	1223.7	341.8
1030.7617	3034.0376	1220.15	337.9
1030.8723	3035.0783	1227.75	343.95
1030.9829	3036.1184	1227.25	344.25
1031.0934	3037.1578	1229.5	350.6
1031.2038	3038.1966	1225	341.95
1031.3142	3039.2348	1228	347.3
1031.4246	3040.2723	1237.3	345.7
1031.5349	3041.3092	1230.45	351.5
1031.6452	3042.3455	1226.45	344.7
1031.7554	3043.3811	1234.2	352.15
1031.8656	3044.4161	1228.5	346.1
1031.9758	3045.4505	1224.35	344.1
1032.0859	3046.4842	1228.7	346.5
1032.1959	3047.5173	1219.6	340.75
1032.3059	3048.5498	1216.7	333.15
1032.4159	3049.5816	1223.45	340.4
1032.5258	3050.6128	1217.6	335.7
1032.6357	3051.6434	1217.15	336.65
1032.7455	3052.6734	1211.8	328.8
1032.8553	3053.7027	1209.6	327.15
1032.9651	3054.7314	1199.1	318.95
1033.0748	3055.7594	1207.3	327.7
1033.1845	3056.7868	1204.05	322.2
1033.2941	3057.8136	1201.05	321.75
1033.4037	3058.8398	1197.2	316
1033.5132	3059.8653	1196.3	314.15
1033.6227	3060.8902	1196.1	313.75
1033.7321	3061.9145	1193.25	311.95
1033.8415	3062.9381	1192.15	310.1
1033.9509	3063.9612	1208.05	310.65
1034.0602	3064.9835	1187.8	307.25
1034.1694	3066.0053	1191.55	307.3
1034.2787	3067.0264	1181.75	302
1034.3878	3068.0469	1176.1	294.25
1034.497	3069.0668	1175.55	291.85
1034.6061	3070.086	1160.65	279.65
1034.7151	3071.1046	1164.65	281.35
1034.8241	3072.1226	1163.05	281.3
1034.9331	3073.1399	1153.45	273.45
1035.042	3074.1567	1149.15	266.45
1035.1508	3075.1727	1141.7	259.9
1035.2597	3076.1882	1139.15	259.45
1035.3684	3077.203	1128.65	246.7
1035.4772	3078.2173	1129.6	248.75
1035.5859	3079.2308	1129.05	245
1035.6945	3080.2438	1124.2	240.6
1035.8031	3081.2561	1109.1	228.45
1035.9117	3082.2678	1109.05	228.2
1036.0202	3083.2789	1099.65	219.1
1036.1286	3084.2893	1095.3	216.1
1036.2371	3085.2991	1094.35	213.15
1036.3454	3086.3083	1094.25	210.25
1036.4538	3087.3169	1082.65	201.35
1036.562	3088.3248	1084.8	202.6
1036.6703	3089.3321	1077.3	193.95
1036.7785	3090.3388	1072.15	191.95
1036.8866	3091.3449	1069.8	188.25
1036.9948	3092.3503	1072.5	188.1
1037.1028	3093.3551	1062	183
1037.2108	3094.3593	1059.95	181
1037.3188	3095.3629	1056.15	177.25
1037.4267	3096.3658	1059.6	177.85
1037.5346	3097.3681	1056.65	175.2
1037.6425	3098.3698	1055.65	174.4
1037.7503	3099.3708	1057.6	167.2
1037.858	3100.3713	1048.8	168.8
1037.9657	3101.3711	1045.35	162.7
1038.0734	3102.3702	1180.4	159.2
1038.181	3103.3688	1042.1	158.35
1038.2886	3104.3667	1038.75	158.45
1038.3961	3105.364	1038.8	159.5
1038.5036	3106.3607	1041.55	159.05
1038.611	3107.3568	1031.55	150.15
1038.7184	3108.3522	1030.95	150.75
1038.8257	3109.347	1029.7	146.25
1038.933	3110.3412	1031.9	145.6
1039.0403	3111.3348	1025.5	145.5
1039.1475	3112.3277	1025.8	143.7
1039.2547	3113.32	1023.1	143.45
1039.3618	3114.3117	1020.15	139
1039.4689	3115.3028	1019.8	138.05
1039.5759	3116.2932	1020.6	138.55
1039.6829	3117.2831	1023.2	134.55
1039.7898	3118.2723	1015.05	133.1
1039.8967	3119.2608	1018.45	137.15
1040.0035	3120.2488	1012.35	130.15
1040.1103	3121.2361	1012.5	130.85
1040.2171	3122.2229	1006.15	127.25
1040.3238	3123.209	1009.05	127.75
1040.4305	3124.1944	1002.65	122.4
1040.5371	3125.1793	1008.65	126.6
1040.6437	3126.1635	1003.7	122.8
1040.7502	3127.1471	1007.45	125.3
1040.8567	3128.1301	1006.05	123.9
1040.9631	3129.1125	1004.2	124.2
1041.0695	3130.0942	1005.7	125.75
1041.1759	3131.0753	1007.1	116.95
1041.2822	3132.0558	1001.7	118.05
1041.3884	3133.0357	1001.05	120.65
1041.4946	3134.015	1000.9	120
1041.6008	3134.9936	996.3	114.45
1041.7069	3135.9716	1017.3	116.85
1041.813	3136.949	994.95	115.6
1041.919	3137.9258	1010.8	112.35
1042.025	3138.902	998.2	112.7
1042.1309	3139.8775	991.5	111.3
1042.2368	3140.8524	986.95	104.15
1042.3427	3141.8267	990.8	107.1
1042.4485	3142.8004	989.9	108.25
1042.5542	3143.7735	994.55	107.75
1042.6599	3144.7459	991.3	109.7
1042.7656	3145.7178	986.6	106.2
1042.8712	3146.689	984.75	106.25
1042.9768	3147.6596	986.2	103.6
1043.0823	3148.6295	984.85	101.7
1043.1878	3149.5989	985.45	106
1043.2932	3150.5676	982.15	102.05
1043.3986	3151.5357	982.65	102.7
1043.5039	3152.5032	983.35	104.95
1043.6092	3153.4701	983.2	102.8
1043.7145	3154.4364	982.2	98.9
1043.8197	3155.402	978.85	99.3
1043.9248	3156.367	982	99.4
1044.03	3157.3315	1013.75	102.35
1044.135	3158.2952	978.75	95.75
1044.24	3159.2584	976.7	95.35
1044.345	3160.221	974.85	91.5
1044.4499	3161.1829	974.45	93.65
1044.5548	3162.1442	970.55	89.7
1044.6596	3163.105	973.2	92.5
1044.7644	3164.065	974.1	91.9
1044.8692	3165.0245	972.85	88.75
1044.9739	3165.9834	968.85	87.9
1045.0785	3166.9416	972.9	90.7
1045.1831	3167.8993	970.65	87.6
1045.2877	3168.8563	970.35	87.35
1045.3922	3169.8127	970.2	89.6
1045.4966	3170.7684	968.9	87.05
1045.6011	3171.7236	969.35	86.6
1045.7054	3172.6782	969.35	89.2
1045.8098	3173.6321	967.5	85.1
1045.914	3174.5854	969.85	82.2
1046.0183	3175.5381	966	86.1
1046.1224	3176.4902	968.25	86.65
1046.2266	3177.4417	964.75	83.7
1046.3307	3178.3926	963.6	84.1
1046.4347	3179.3428	964.7	84.1
1046.5387	3180.2924	959.35	79.4
1046.6427	3181.2415	964.05	80.85
1046.7466	3182.1899	964.45	82.85
1046.8504	3183.1377	963.4	82
1046.9542	3184.0848	966.15	82.35
1047.058	3185.0314	958.3	75.15
1047.1617	3185.9773	959.65	78.6
1047.2654	3186.9227	961.25	77.7
1047.369	3187.8674	959.25	79.5
1047.4726	3188.8115	965.2	78.95
1047.5761	3189.755	957.6	77.1
1047.6796	3190.6979	959.75	77.8
1047.783	3191.6402	954	72.75
1047.8864	3192.5818	956	73.75
1047.9898	3193.5229	979.55	76.1
1048.0931	3194.4633	956.45	75.8
1048.1963	3195.4031	956.45	74.85
1048.2995	3196.3423	955.2	75.2
1048.4027	3197.2809	956.35	76.25
1048.5058	3198.2189	955.55	73.35
1048.6089	3199.1563	975.2	86.5
1048.7119	3200.0931	951.7	73.85
1048.8148	3201.0292	952.45	71.8
1048.9178	3201.9648	949.05	67.6
1049.0206	3202.8997	955.4	73.3
1049.1235	3203.834	950.85	68.2
1049.2262	3204.7677	952.85	70.3
1049.329	3205.7008	954.15	69.85
1049.4317	3206.6333	953.1	74.9
1049.5343	3207.5652	952.15	67.55
1049.6369	3208.4964	950.5	69.5
1049.7394	3209.4271	953.15	74.8
1049.8419	3210.3571	947.5	67.05
1049.9444	3211.2865	947.5	66.9
1050.0468	3212.2154	949.95	68.75
1050.1491	3213.1436	952.9	71.25
1050.2514	3214.0712	953.35	67.25
1050.3537	3214.9982	945.4	65.4
1050.4559	3215.9246	944.75	61.6
1050.5581	3216.8503	946.7	67.5
1050.6602	3217.7755	947.4	64.15
1050.7623	3218.7001	943.7	63.05
1050.8643	3219.624	947.1	64.75
1050.9663	3220.5473	947	66.75
1051.0682	3221.4701	947.55	66.25
1051.1701	3222.3922	946.25	62.25
1051.2719	3223.3137	944.45	62.9
1051.3737	3224.2346	942.6	62
1051.4754	3225.1549	945.5	65.25
1051.5771	3226.0746	941.2	59.6
1051.6788	3226.9937	942.95	60.2
1051.7804	3227.9121	942.4	62.15
1051.8819	3228.83	941.35	60.85
1051.9834	3229.7473	942.6	61
1052.0849	3230.6639	942.2	60.55
1052.1863	3231.5799	940.6	60.75
1052.2876	3232.4954	941.85	59.7
1052.3889	3233.4102	939.6	59.1
1052.4902	3234.3244	941	59.6
1052.5914	3235.238	938.1	58.4
1052.6926	3236.151	963.5	56.1
1052.7937	3237.0634	939.3	59.05
1052.8948	3237.9752	938.3	57.7
1052.9958	3238.8864	934.7	50.25
1053.0968	3239.797	937.7	59.15
1053.1977	3240.7069	937.4	55.7
1053.2986	3241.6163	937.65	55.55
1053.3994	3242.5251	933.9	55.15
1053.5002	3243.4332	933.65	52.5
1053.6009	3244.3408	936.3	54.75
1053.7016	3245.2477	934.1	52.3
1053.8022	3246.154	936.3	54.35
1053.9028	3247.0598	933.65	52.75
1054.0034	3247.9649	932.4	51.8
1054.1039	3248.8694	935.35	55.15
1054.2043	3249.7733	933.8	53.85
1054.3047	3250.6766	931.5	51
1054.4051	3251.5793	933.45	50.3
1054.5054	3252.4814	930	50
1054.6056	3253.3829	931.6	51.25
1054.7058	3254.2838	928.6	47.1
1054.806	3255.1841	930.35	49.1
1054.9061	3256.0838	929.45	49.25
1055.0061	3256.9829	929.85	48.6
1055.1062	3257.8814	932.1	48.45
1055.2061	3258.7792	929.25	47.1
1055.306	3259.6765	927.75	44.55
1055.4059	3260.5731	926.6	46.5
1055.5057	3261.4692	925.65	42.45
1055.6055	3262.3647	924.95	42.2
1055.7052	3263.2595	925.3	45.55
1055.8049	3264.1538	922.15	41.2
1055.9045	3265.0474	925.5	43.95
1056.0041	3265.9404	919.45	40.8
1056.1036	3266.8329	920.35	38.65
1056.2031	3267.7247	931	39.65
1056.3025	3268.616	919.8	39.6
1056.4019	3269.5066	918.6	37.5
1056.5013	3270.3966	918.75	36.25
1056.6005	3271.286	917.8	37.9
