Software Version:	3.9.2.0
Unit SN:	10000200
Spectrometer SN:	6960
Date:	3/14/2024 2:30:38 PM
Data Line Index:	25
Spectral Points:	2048
Integration time (ms):	125
Averages:	20
Delay (ms):	30000
Sequence Number:	1
Processing:	dark subtract
Laser Power (mW):	300
Laser Current (mA):	824
Laser Diode Temp (C):	25
Laser Case Temp (C):	29.3
System Temp (C):	29.3
Spectrometer Temp (C):	27
CCD Temp (C):	0.001
Secondary Temp (C):	20.001
Heatsink Temp (C):	25.218
CCDPCB Temp (C):	38.53
SecondaryPCB Temp (C):	36.229

Wavelength	RamanShift	Raw Counts	Dark Subtracted
787.061	30.1047	462.55	51.95
787.2016	32.3739	465.05	55.75
787.3422	34.6426	470.6	61.25
787.4828	36.9109	476.9	64.7
787.6235	39.1787	482.55	66.4
787.7642	41.4461	494.1	72.55
787.9049	43.7131	502.25	76.85
788.0456	45.9796	513.95	86.2
788.1863	48.2456	519.5	88.4
788.3271	50.5112	529.15	94.75
788.4679	52.7764	539.75	101.35
788.6087	55.0411	551.35	109.35
788.7496	57.3054	561.25	113.55
788.8904	59.5692	573.15	122.7
789.0313	61.8326	584.75	131
789.1722	64.0955	600.75	142.9
789.3132	66.3579	613.25	150.55
789.4541	68.6199	638.65	173.9
789.5951	70.8815	669.2	201.6
789.7361	73.1426	743.2	271.2
789.8771	75.4032	941.15	465.4
790.0181	77.6634	1427.1	945.6
790.1592	79.9231	2581.2	2095.25
790.3003	82.1824	5108.7	4613.95
790.4414	84.4412	9793.6	9283.15
790.5825	86.6995	16480.6	15953.7
790.7237	88.9574	23194.1	22650.05
790.8648	91.2148	28068.05	27510.2
791.006	93.4717	30443.65	29881.25
791.1472	95.7282	31060.4	30488.9
791.2885	97.9842	31165.95	30592.25
791.4297	100.2398	30750	30174
791.571	102.4949	30168.05	29589.4
791.7123	104.7495	29462.25	28881.25
791.8536	107.0036	28648.05	28062.5
791.9949	109.2573	27850.2	27269.75
792.1363	111.5105	26998.3	26414.5
792.2777	113.7632	26209.8	25624.25
792.4191	116.0154	25480.2	24883.3
792.5605	118.2672	24994.85	24403.05
792.7019	120.5185	24436.65	23844.85
792.8434	122.7693	24033.2	23438.4
792.9849	125.0197	23731.35	23135.7
793.1264	127.2696	23406.3	22806.35
793.2679	129.519	23276.75	22675.75
793.4094	131.7679	23107.25	22503.8
793.551	134.0163	23004.6	22396.7
793.6926	136.2642	22850.05	22236.95
793.8342	138.5117	22713.6	22092.4
793.9758	140.7587	22509.85	21893
794.1175	143.0052	22335	21718.05
794.2591	145.2512	22108.75	21488.75
794.4008	147.4967	21889.3	21270.3
794.5425	149.7417	21741.1	21117.7
794.6842	151.9863	21633.3	21007.35
794.826	154.2304	21553.25	20926
794.9677	156.4739	21406.7	20770.65
795.1095	158.717	21335.45	20702.5
795.2513	160.9596	21191.7	20555.2
795.3931	163.2017	20922.85	20281.55
795.535	165.4433	20599.2	19955.8
795.6768	167.6844	20197.05	19550.85
795.8187	169.925	19880.6	19233.05
795.9606	172.1651	19501.45	18850.2
796.1025	174.4047	19147.45	18491.5
796.2445	176.6439	18854.9	18197.25
796.3864	178.8825	18584	17925.6
796.5284	181.1206	18381.75	17719.5
796.6704	183.3582	18172.9	17505.5
796.8124	185.5954	18057.45	17392.35
796.9544	187.832	17919.35	17247.95
797.0965	190.0681	17878.2	17205.45
797.2386	192.3037	17857.85	17182.75
797.3806	194.5388	17869.8	17192.1
797.5228	196.7734	17896.8	17216.75
797.6649	199.0075	17968.55	17284.4
797.807	201.2411	18064.65	17375.4
797.9492	203.4742	18083.7	17394.5
798.0914	205.7068	18281.55	17593.35
798.2336	207.9389	18375.05	17686.65
798.3758	210.1704	18517.25	17826.85
798.518	212.4015	18601.15	17902.35
798.6603	214.632	18780.85	18087.15
798.8025	216.862	19000.2	18312.05
798.9448	219.0915	19163.55	18484.65
799.0871	221.3205	19406.25	18729.7
799.2294	223.549	19747.05	19074.25
799.3718	225.777	20104.6	19432.9
799.5141	228.0044	20597.65	19920.45
799.6565	230.2314	21187.2	20513.1
799.7989	232.4578	21700.45	21024.45
799.9413	234.6837	22145.2	21461.45
800.0837	236.909	22373.95	21690.5
800.2262	239.1339	22290.5	21582.7
800.3687	241.3582	21976.85	21281.5
800.5111	243.582	21546.1	20827.7
800.6536	245.8053	21093.05	20381.3
800.7961	248.0281	20632.6	19923.05
800.9387	250.2503	20287.85	19578.65
801.0812	252.472	20037.65	19320.95
801.2238	254.6932	19922.1	19204.8
801.3664	256.9139	19740.65	19019.2
801.509	259.134	19673	18947.95
801.6516	261.3536	19550.9	18831.3
801.7942	263.5727	19463.4	18740.45
801.9369	265.7912	19319.1	18595.75
802.0795	268.0092	19246.6	18525.55
802.2222	270.2267	19114.55	18388.4
802.3649	272.4436	19008.3	18279.5
802.5076	274.6601	18952.35	18218.2
802.6504	276.8759	18879.45	18148.55
802.7931	279.0913	18900.65	18168.3
802.9359	281.3061	18927.45	18192.6
803.0787	283.5204	19036.95	18303.85
803.2215	285.7341	19189.85	18452.6
803.3643	287.9473	19366.9	18614.15
803.5071	290.16	19668.85	18921.85
803.6499	292.3721	20035.4	19295.55
803.7928	294.5837	20552.1	19814.45
803.9357	296.7947	20907.7	20167.65
804.0786	299.0052	21171.9	20433.25
804.2215	301.2152	20965.05	20222.05
804.3644	303.4246	20529.35	19789.7
804.5074	305.6334	19905.15	19164.8
804.6503	307.8418	19266.1	18521.95
804.7933	310.0495	18824.7	18080.6
804.9363	312.2568	18505.05	17759.95
805.0793	314.4635	18272.95	17525.2
805.2223	316.6696	18222.65	17475.9
805.3653	318.8752	18186.8	17429.45
805.5084	321.0802	18262.4	17515.7
805.6514	323.2847	18421.2	17671.15
805.7945	325.4887	18465.3	17716.5
805.9376	327.692	18405.45	17657.6
806.0807	329.8949	18252.35	17499
806.2238	332.0972	17928.95	17177.55
806.367	334.2989	17624.85	16864.5
806.5101	336.5001	17279.1	16524.95
806.6533	338.7007	17047.35	16290.75
806.7965	340.9008	16927.95	16166.9
806.9397	343.1003	16807.7	16047
807.0829	345.2992	16742.65	15979.7
807.2261	347.4976	16680.35	15916.15
807.3693	349.6955	16733.55	15965.25
807.5126	351.8927	16780.3	16013.1
807.6559	354.0895	16785.95	16008.75
807.7991	356.2856	16805.5	16033.7
807.9424	358.4812	16812.7	16040.3
808.0857	360.6763	16845.1	16074.4
808.2291	362.8707	16794.15	16022.45
808.3724	365.0646	16785.85	16011.4
808.5158	367.258	16752.65	15973.75
808.6591	369.4508	16746.65	15969.1
808.8025	371.643	16782.2	16001.85
808.9459	373.8346	16734.5	15952.8
809.0893	376.0257	16673.35	15888.85
809.2327	378.2162	16593.55	15808.9
809.3762	380.4062	16488.15	15701.55
809.5196	382.5956	16275.35	15486.4
809.6631	384.7844	16143.55	15356.45
809.8066	386.9726	15999.9	15210
809.9501	389.1603	15988.75	15198.25
810.0936	391.3474	15959.35	15121.6
810.2371	393.5339	15900.25	15112.2
810.3806	395.7199	15846.95	15065.15
810.5241	397.9052	15831.2	15050.9
810.6677	400.09	15817.55	15039.35
810.8113	402.2743	15859.65	15082.45
810.9548	404.4579	15893.15	15113.9
811.0984	406.641	16051.2	15270.9
811.2421	408.8235	16259.5	15479.05
811.3857	411.0054	16650.3	15869.2
811.5293	413.1868	17181.95	16398.55
811.673	415.3675	17599.65	16814.75
811.8166	417.5477	17802.3	17016.75
811.9603	419.7273	17889.2	17100.3
812.104	421.9064	17746.6	16947.45
812.2477	424.0848	17548.1	16757.35
812.3914	426.2627	17280.45	16483.9
812.5351	428.4399	16970.2	16173.1
812.6788	430.6166	16554.1	15755.15
812.8226	432.7928	16134.7	15334.15
812.9663	434.9683	15780.5	14981.8
813.1101	437.1432	15532.3	14728.8
813.2539	439.3176	15334.8	14531.75
813.3977	441.4914	15215.85	14411.9
813.5415	443.6645	15185.95	14380.6
813.6853	445.8371	15081.9	14278.25
813.8291	448.0091	15023.65	14221.75
813.973	450.1806	14950.65	14144.7
814.1168	452.3514	14872.1	14064.1
814.2607	454.5216	14877.05	14062.2
814.4046	456.6913	14781	13970.85
814.5485	458.8603	14761.4	13955.3
814.6924	461.0288	14830.9	14022.4
814.8363	463.1967	14866.65	14056.85
814.9802	465.3639	15005.95	14191.9
815.1241	467.5306	15115.6	14302.55
815.2681	469.6967	15316.75	14503.65
815.412	471.8622	15503.1	14694.75
815.556	474.0271	15676.6	14866.35
815.7	476.1914	15727.5	14914.85
815.844	478.3551	15692.05	14880.45
815.988	480.5182	15660.5	14845.95
816.132	482.6807	15588.3	14774.9
816.276	484.8426	15629.1	14814.85
816.4201	487.0039	15889.05	15075.05
816.5641	489.1647	16297.55	15482.3
816.7082	491.3248	16769.15	15954.8
816.8522	493.4843	16986.3	16173.7
816.9963	495.6432	16986.45	16171.9
817.1404	497.8015	16886.55	16066.75
817.2845	499.9592	16947.4	16131.2
817.4286	502.1163	16905.9	16088.75
817.5727	504.2728	16703.2	15885.45
817.7168	506.4287	16380.25	15561.05
817.861	508.5839	15876.05	15058.4
818.0051	510.7386	15480.6	14660.1
818.1493	512.8927	15207.3	14383.85
818.2935	515.0461	15012.65	14189.75
818.4377	517.199	14873.9	14053.2
818.5818	519.3512	14782.15	13960.75
818.726	521.5029	14762.55	13935.9
818.8703	523.6539	14759.7	13935.9
819.0145	525.8043	14795.8	13969.6
819.1587	527.9541	14841	14014.4
819.303	530.1033	14845	14019.95
819.4472	532.2519	14963.6	14137.45
819.5915	534.3999	15114.9	14287.3
819.7357	536.5472	15467.4	14641.1
819.88	538.694	16030.15	15203.6
820.0243	540.8401	16767.85	15940.5
820.1686	542.9856	17354.55	16522.4
820.3129	545.1305	17540.1	16711.65
820.4572	547.2748	17347.4	16516.9
820.6016	549.4185	16902	16072.45
820.7459	551.5615	16428.65	15600.85
820.8902	553.704	16227.65	15397.25
821.0346	555.8458	16035.7	15207.6
821.1789	557.987	15965.15	15136.3
821.3233	560.1276	15825.15	14994.5
821.4677	562.2675	15706.85	14878.55
821.6121	564.4069	15540.25	14712.85
821.7565	566.5456	15384.55	14553
821.9009	568.6837	15238.9	14407.65
822.0453	570.8212	14995.55	14165.4
822.1897	572.958	14733.65	13902.05
822.3342	575.0942	14571.6	13740.3
822.4786	577.2299	14428.2	13598.55
822.6231	579.3648	14434.35	13603.45
822.7675	581.4992	14553.9	13721.1
822.912	583.6329	14804.45	13971.5
823.0565	585.766	15058.15	14227
823.201	587.8985	15165.5	14333.65
823.3454	590.0304	15194.8	14337.2
823.4899	592.1616	15097.85	14261.35
823.6345	594.2922	14979.35	14144.5
823.779	596.4222	14792.35	13956.4
823.9235	598.5515	14667.2	13833.3
824.068	600.6802	14449.05	13612.9
824.2126	602.8083	14245.8	13411.2
824.3571	604.9358	14152.75	13313.55
824.5017	607.0626	14012.85	13178.15
824.6462	609.1888	13944.05	13102.95
824.7908	611.3144	13814.95	12975.85
824.9354	613.4393	13576.55	12739.8
825.08	615.5636	13427.9	12590.7
825.2246	617.6873	13280	12442.75
825.3692	619.8103	13204.75	12363.45
825.5138	621.9327	13157.45	12314.55
825.6584	624.0544	13137.35	12298.45
825.803	626.1756	13111.25	12274.95
825.9477	628.2961	13108	12269.8
826.0923	630.4159	13004.5	12163.4
826.237	632.5351	12988.35	12147.85
826.3816	634.6537	12883.75	12043.55
826.5263	636.7716	12854.65	12015.15
826.6709	638.8889	12844.9	12002.4
826.8156	641.0056	12841.95	11998.85
826.9603	643.1216	12819.05	11973.8
827.105	645.237	12852.7	12008.8
827.2497	647.3518	12835.8	11991.95
827.3944	649.4659	12856.15	12013.9
827.5391	651.5793	12855.75	12013.55
827.6838	653.6922	12816.7	11972.7
827.8285	655.8043	12795.8	11952.75
827.9733	657.9159	12783.45	11937.9
828.118	660.0268	12674.15	11826.15
828.2627	662.137	12590.35	11743.75
828.4075	664.2466	12508.7	11659.3
828.5522	666.3556	12464.4	11620.6
828.697	668.4639	12450.1	11602.85
828.8418	670.5716	12512.95	11666.3
828.9865	672.6786	12597.1	11749.45
829.1313	674.785	12675.5	11826.65
829.2761	676.8907	12771.15	11922.95
829.4209	678.9958	12849.6	12002.1
829.5657	681.1002	12787.65	11937.55
829.7105	683.204	12747.7	11893.2
829.8553	685.3072	12662.3	11810.85
830.0001	687.4097	12577.5	11729.15
830.1449	689.5115	12506.8	11655.5
830.2898	691.6127	12392.85	11545
830.4346	693.7132	12304.8	11452.4
830.5794	695.8131	12242.8	11370.25
830.7243	697.9123	12192	11340.9
830.8691	700.0109	12114.25	11260.15
831.014	702.1089	12102.65	11253.6
831.1588	704.2061	12090.55	11239.95
831.3037	706.3028	12088.75	11237.85
831.4486	708.3987	12143.65	11293.85
831.5935	710.4941	12233.6	11382.3
831.7383	712.5887	12443.55	11589.3
831.8832	714.6827	12784.7	11930.1
832.0281	716.7761	13171.9	12319.2
832.173	718.8688	13620.5	12766.65
832.3179	720.9608	13798.1	12939.6
832.4628	723.0522	13800.1	12942.55
832.6077	725.1429	13488.6	12635.35
832.7527	727.233	13096.35	12242.7
832.8976	729.3224	12700.95	11845.6
833.0425	731.4112	12344.55	11488.6
833.1874	733.4993	12129.1	11270.75
833.3324	735.5867	11918.55	11060.5
833.4773	737.6735	11826.55	10970.05
833.6222	739.7596	11777.6	10920.15
833.7672	741.845	11763.55	10908.45
833.9122	743.9298	11735.75	10876.75
834.0571	746.014	11716.45	10859.05
834.2021	748.0974	11729.6	10873.3
834.347	750.1802	11729.15	10872.3
834.492	752.2624	11703.4	10846.4
834.637	754.3439	11719.1	10860.8
834.782	756.4247	11781.45	10913.35
834.9269	758.5048	11832.1	10977.1
835.0719	760.5843	11988.5	11130.5
835.2169	762.6631	12277.2	11417.6
835.3619	764.7413	12698.35	11843.2
835.5069	766.8188	13284.85	12424.45
835.6519	768.8956	13773.2	12913.9
835.7969	770.9718	14081.2	13222.6
835.9419	773.0473	13986.85	13129.3
836.0869	775.1221	13592.95	12733.8
836.232	777.1962	13177.55	12319.4
836.377	779.2697	12964.55	12103.8
836.522	781.3426	13040.8	12163.35
836.667	783.4147	13337.95	12476.2
836.8121	785.4862	13697.2	12839.6
836.9571	787.557	13709.3	12849.15
837.1021	789.6271	13311	12448.5
837.2472	791.6966	12730.2	11870.25
837.3922	793.7654	12200.35	11341
837.5373	795.8335	11838.25	10978.35
837.6823	797.901	11604.45	10746.05
837.8274	799.9678	11537.7	10673.95
837.9724	802.0339	11560.2	10703.5
838.1175	804.0993	11623.7	10752.05
838.2626	806.1641	11607.85	10744.6
838.4076	808.2282	11542.4	10682.65
838.5527	810.2916	11430.6	10567.85
838.6978	812.3544	11287.2	10426.75
838.8428	814.4164	11197.15	10335
838.9879	816.4778	11174.3	10311.3
839.133	818.5385	11140.7	10279.7
839.2781	820.5986	11163.05	10304.1
839.4232	822.658	11200.3	10338
839.5682	824.7166	11213.45	10352.8
839.7133	826.7747	11325.85	10464
839.8584	828.832	11440.85	10579.55
840.0035	830.8886	11511	10648.5
840.1486	832.9446	11682.35	10819
840.2937	834.9999	11762.95	10902.85
840.4388	837.0545	11886.25	11020.95
840.5839	839.1085	11930.25	11065.2
840.729	841.1618	11925.9	11057.65
840.8741	843.2143	11918.75	11053.95
841.0192	845.2662	11839.35	10975.35
841.1643	847.3175	11795.2	10933.9
841.3095	849.368	11654.85	10791.6
841.4546	851.4179	11524.75	10662.6
841.5997	853.467	11353.55	10489.95
841.7448	855.5155	11216.2	10351.65
841.8899	857.5633	11087.2	10223.65
842.0351	859.6105	10952.25	10088.35
842.1802	861.6569	10879.7	10014.75
842.3253	863.7027	10829.25	9964.85
842.4704	865.7478	10785.85	9920.8
842.6156	867.7922	10791.05	9923.95
842.7607	869.8359	10811.8	9945.25
842.9058	871.8789	10959.7	10094.85
843.0509	873.9212	11176.7	10278.5
843.1961	875.9629	11313.15	10448.95
843.3412	878.0039	11512.9	10645.2
843.4863	880.0441	11600.1	10735.3
843.6315	882.0837	11534.7	10668.6
843.7766	884.1226	11425.05	10557.7
843.9218	886.1609	11243.1	10378.8
844.0669	888.1984	11081.95	10218.3
844.212	890.2352	11008.35	10142.5
844.3572	892.2714	10940.55	10069.85
844.5023	894.3069	10876.75	10009.8
844.6475	896.3416	10804.45	9936.9
844.7926	898.3757	10762.2	9896.1
844.9377	900.4091	10752	9881.95
845.0829	902.4418	10787	9914.95
845.228	904.4739	10781.45	9911.95
845.3732	906.5052	10763.45	9893.9
845.5183	908.5358	10635.95	9766.2
845.6635	910.5658	10440.6	9571.15
845.8086	912.595	10281.4	9412.15
845.9538	914.6236	10154.2	9288.15
846.0989	916.6515	10113.8	9245.6
846.2441	918.6786	10096.7	9227
846.3892	920.7051	10175.2	9304.45
846.5344	922.7309	10313	9444.6
846.6795	924.756	10365.7	9498.45
846.8246	926.7804	10453.6	9582.6
846.9698	928.8041	10397.1	9526.6
847.1149	930.8272	10384.55	9514.25
847.2601	932.8495	10308.3	9437.35
847.4052	934.8711	10230.05	9358.45
847.5504	936.892	10070.65	9199.75
847.6955	938.9123	9863.7	8993.6
847.8407	940.9318	9712.9	8843.25
847.9858	942.9506	9547.9	8677.6
848.131	944.9688	9459.15	8588.8
848.2761	946.9862	9438.7	8569.05
848.4213	949.003	9372.95	8501
848.5664	951.019	9364.6	8492.9
848.7115	953.0344	9379.65	8511.25
848.8567	955.0491	9409.4	8537.6
849.0018	957.063	9491.1	8620.35
849.147	959.0763	9608.6	8741.65
849.2921	961.0888	9655.5	8783.9
849.4373	963.1007	9703.3	8832.85
849.5824	965.1119	9753.45	8884.05
849.7275	967.1223	9766.2	8893.75
849.8727	969.1321	9816.05	8944.6
850.0178	971.1412	9804.4	8934.05
850.1629	973.1495	9853.35	8982.1
850.3081	975.1572	9905.4	9001.05
850.4532	977.1641	9915.75	9046.8
850.5983	979.1704	9877.15	9006
850.7435	981.1759	9850.95	8976.65
850.8886	983.1808	9906.8	9035.25
851.0337	985.1849	10033.4	9154.5
851.1788	987.1884	10216.5	9341.9
851.324	989.1911	10401.05	9527.6
851.4691	991.1932	10550.85	9678.35
851.6142	993.1945	10620.75	9748.15
851.7593	995.1951	10574.6	9702.25
851.9045	997.1951	10534.35	9655.75
852.0496	999.1943	10438.85	9568.25
852.1947	1001.1928	10347.4	9474.45
852.3398	1003.1906	10334.95	9462.55
852.4849	1005.1877	10373.1	9499.25
852.63	1007.1841	10310.8	9438.2
852.7751	1009.1798	10205.9	9334.45
852.9202	1011.1748	9978.35	9105.4
853.0653	1013.1691	9758.9	8888.2
853.2104	1015.1627	9527.55	8655.15
853.3555	1017.1556	9333.4	8459.35
853.5006	1019.1477	9238	8365.5
853.6457	1021.1392	9142.05	8271.8
853.7908	1023.1299	9181.7	8308.55
853.9359	1025.12	9191	8314.9
854.081	1027.1093	9225.5	8353
854.2261	1029.0979	9308.6	8436.25
854.3712	1031.0859	9377.95	8504
854.5163	1033.0731	9354	8476.85
854.6613	1035.0596	9253	8379.8
854.8064	1037.0454	9063.25	8189.65
854.9515	1039.0304	8952.8	8081.65
855.0965	1041.0148	8855.4	7982.8
855.2416	1042.9985	8756	7880.6
855.3867	1044.9814	8687.6	7815.15
855.5317	1046.9636	8641.85	7765.75
855.6768	1048.9452	8620.65	7747.8
855.8219	1050.926	8603.2	7731.2
855.9669	1052.9061	8589.75	7717.55
856.112	1054.8855	8573.6	7699.35
856.257	1056.8642	8606.25	7732.8
856.4021	1058.8421	8633.1	7754.95
856.5471	1060.8194	8673.45	7799.2
856.6921	1062.7959	8698.95	7824.35
856.8372	1064.7717	8682.5	7806.3
856.9822	1066.7469	8666.1	7790.8
857.1272	1068.7213	8667.3	7790.2
857.2723	1070.695	8580.55	7705.45
857.4173	1072.6679	8508.55	7634.5
857.5623	1074.6402	8477.8	7604.5
857.7073	1076.6117	8465.85	7585.5
857.8523	1078.5826	8509.45	7633.9
857.9973	1080.5527	8571.4	7695.9
858.1423	1082.5221	8697.35	7821.15
858.2873	1084.4908	8944.05	8069.3
858.4323	1086.4587	9196.1	8320.05
858.5773	1088.426	9340.4	8463.9
858.7223	1090.3925	9358.65	8480.3
858.8673	1092.3584	9231.95	8359.05
859.0123	1094.3235	9050.4	8178.75
859.1573	1096.2879	8921.9	8047.05
859.3022	1098.2515	8858.5	7981.9
859.4472	1100.2145	8918.95	8043.8
859.5922	1102.1767	8978.05	8097.85
859.7371	1104.1382	9111.45	8236.1
859.8821	1106.099	9309.8	8433.8
860.027	1108.0591	9535.55	8661.55
860.172	1110.0185	9655.1	8776.95
860.3169	1111.9771	9646.25	8770.4
860.4619	1113.9351	9424.9	8552
860.6068	1115.8923	9038	8162.6
860.7517	1117.8488	8696.75	7819.05
860.8967	1119.8045	8392.85	7519.7
861.0416	1121.7596	8238.1	7361.75
861.1865	1123.7139	8140.7	7267.35
861.3314	1125.6675	8156.3	7278.2
861.4763	1127.6204	8213.2	7338.05
861.6212	1129.5726	8241.6	7363.55
861.7661	1131.524	8289.95	7414.8
861.911	1133.4748	8334.1	7458.9
862.0559	1135.4248	8336.05	7460.5
862.2008	1137.3741	8390.5	7515.75
862.3457	1139.3226	8376.85	7498.55
862.4905	1141.2705	8308.2	7434.25
862.6354	1143.2176	8248.5	7366.55
862.7803	1145.164	8288.9	7412.7
862.9251	1147.1097	8304.75	7427.6
863.07	1149.0546	8279.3	7401.05
863.2148	1150.9989	8175.4	7299.7
863.3597	1152.9424	7983	7106.45
863.5045	1154.8852	7780.6	6904.5
863.6493	1156.8272	7642.5	6766.75
863.7942	1158.7686	7553.55	6670.4
863.939	1160.7092	7491.9	6616.9
864.0838	1162.6491	7491	6611.7
864.2286	1164.5883	7562.1	6685.45
864.3734	1166.5267	7635.1	6756.35
864.5182	1168.4644	7775.05	6897.3
864.663	1170.4014	7955.6	7075.3
864.8078	1172.3377	8202.15	7323.85
864.9526	1174.2732	8395.2	7519.75
865.0974	1176.2081	8600.4	7722.4
865.2421	1178.1421	8774.15	7892
865.3869	1180.0755	8881.05	8005.85
865.5317	1182.0082	8889.6	8012.3
865.6764	1183.9401	8803.1	7925.1
865.8212	1185.8713	8583.4	7710.5
865.9659	1187.8017	8324.75	7447.45
866.1106	1189.7315	8044.2	7165.3
866.2554	1191.6605	7810.55	6903.65
866.4001	1193.5888	7613.8	6737.35
866.5448	1195.5163	7467.65	6590.2
866.6895	1197.4432	7352.25	6472
866.8342	1199.3693	7288.6	6411.05
866.9789	1201.2947	7254.55	6373.75
867.1236	1203.2193	7224.25	6347.25
867.2683	1205.1432	7275.75	6396.55
867.413	1207.0664	7316.85	6438.3
867.5576	1208.9889	7390.7	6508.4
867.7023	1210.9106	7472.2	6595.3
867.847	1212.8316	7573.45	6694.65
867.9916	1214.7519	7679.3	6792.1
868.1363	1216.6715	7676.35	6799.65
868.2809	1218.5903	7633.5	6754.05
868.4255	1220.5084	7579.75	6700.25
868.5701	1222.4257	7538.4	6660.4
868.7148	1224.3424	7480.1	6602.45
868.8594	1226.2583	7542.5	6662.2
869.004	1228.1735	7647.45	6766.1
869.1486	1230.0879	7770.75	6892.2
869.2932	1232.0016	7889.15	7012.4
869.4377	1233.9146	7935.75	7056.3
869.5823	1235.8269	7847.15	6971.7
869.7269	1237.7384	7695.55	6815.75
869.8715	1239.6492	7519.6	6642.05
870.016	1241.5592	7406.6	6525.1
870.1606	1243.4686	7316.55	6438.65
870.3051	1245.3772	7248.4	6371.1
870.4496	1247.285	7170.45	6291.3
870.5941	1249.1922	7132.85	6256.15
870.7387	1251.0986	7122.9	6245.35
870.8832	1253.0042	7140	6261.3
871.0277	1254.9092	7192.35	6314.7
871.1722	1256.8134	7318.2	6440.35
871.3167	1258.7169	7436.3	6553.9
871.4611	1260.6196	7590.55	6714.05
871.6056	1262.5216	7774.4	6893.45
871.7501	1264.4229	7897.45	7019.4
871.8945	1266.3234	8037.05	7158.8
872.039	1268.2232	8059.2	7179.2
872.1834	1270.1223	8041.45	7162.2
872.3278	1272.0207	7998.85	7121.55
872.4723	1273.9183	7960.15	7075
872.6167	1275.8151	7864	6986.75
872.7611	1277.7113	7787.4	6907.05
872.9055	1279.6067	7607.95	6731.35
873.0499	1281.5014	7450.75	6569.9
873.1943	1283.3953	7296.1	6412.95
873.3386	1285.2885	7201.1	6322.2
873.483	1287.181	7125.65	6245
873.6274	1289.0727	7132.8	6253.95
873.7717	1290.9637	7156	6277.15
873.9161	1292.854	7270.45	6391.9
874.0604	1294.7435	7442.65	6563.45
874.2047	1296.6323	7650.3	6770.8
874.349	1298.5204	7918.65	7035.6
874.4933	1300.4077	8195.15	7314.15
874.6376	1302.2943	8391.85	7511.95
874.7819	1304.1802	8480	7601.05
874.9262	1306.0653	8406.05	7524.2
875.0705	1307.9497	8311.9	7432.05
875.2147	1309.8333	8203.05	7324.15
875.359	1311.7162	8209.9	7330.6
875.5032	1313.5984	8304.9	7422.7
875.6475	1315.4798	8480.5	7588.25
875.7917	1317.3605	8634.4	7737.75
875.9359	1319.2405	8786.4	7904.95
876.0801	1321.1197	8842.45	7961.35
876.2243	1322.9982	8813.3	7929.6
876.3685	1324.876	8812.3	7934.8
876.5127	1326.753	8768.2	7888.95
876.6569	1328.6293	8800.85	7920.4
876.801	1330.5048	8827.45	7945.85
876.9452	1332.3796	8808.75	7928.25
877.0893	1334.2537	8787.1	7882.6
877.2335	1336.127	8691.55	7812.6
877.3776	1337.9996	8664.35	7782.75
877.5217	1339.8714	8601.4	7721.7
877.6658	1341.7426	8598.2	7672.65
877.8099	1343.6129	8476	7593.35
877.954	1345.4826	8399.2	7517.1
878.0981	1347.3515	8331.05	7448.8
878.2422	1349.2196	8257.75	7379.15
878.3862	1351.087	8282.45	7404.45
878.5303	1352.9537	8318.9	7436.25
878.6743	1354.8197	8430.6	7550.3
878.8184	1356.6849	8595.4	7716.3
878.9624	1358.5493	8671.9	7792.75
879.1064	1360.4131	8679.3	7799.4
879.2504	1362.276	8599.05	7720.8
879.3944	1364.1383	8444.85	7565.3
879.5384	1365.9998	8200	7315.2
879.6823	1367.8606	7913.7	7033.3
879.8263	1369.7206	7642.9	6763.15
879.9702	1371.5799	7497.35	6615.85
880.1142	1373.4384	7409.2	6529.75
880.2581	1375.2962	7275.4	6394.35
880.402	1377.1533	7035.65	6154.05
880.5459	1379.0096	6738.75	5858.15
880.6898	1380.8652	6465.35	5581.95
880.8337	1382.7201	6213	5332.65
880.9776	1384.5742	6043.75	5163.65
881.1215	1386.4275	5913.2	5031.05
881.2653	1388.2802	5799.3	4919.45
881.4092	1390.132	5708.55	4826.95
881.553	1391.9832	5659.65	4778.5
881.6968	1393.8336	5581.6	4702.8
881.8406	1395.6832	5544.2	4662.45
881.9844	1397.5322	5523.4	4640.4
882.1282	1399.3803	5499.6	4611.85
882.272	1401.2278	5482.15	4602.65
882.4158	1403.0745	5499.1	4617.5
882.5595	1404.9204	5472	4592.45
882.7033	1406.7656	5498.35	4617.9
882.847	1408.6101	5494.75	4613.65
882.9908	1410.4538	5519.2	4638.05
883.1345	1412.2968	5552.75	4671.55
883.2782	1414.139	5613.65	4731.9
883.4219	1415.9805	5684.5	4802.8
883.5656	1417.8213	5794.55	4907.9
883.7092	1419.6613	5941.5	5062.15
883.8529	1421.5006	6143.6	5262.85
883.9965	1423.3391	6412.1	5531.95
884.1402	1425.1769	6803.7	5921.6
884.2838	1427.0139	7301.6	6417.7
884.4274	1428.8502	7956.65	7075.05
884.571	1430.6858	8566.2	7685.35
884.7146	1432.5206	9052.5	8170.3
884.8582	1434.3547	9318	8436.55
885.0018	1436.188	9344.3	8464.7
885.1453	1438.0206	9260.9	8378.8
885.2889	1439.8524	9113.8	8231.2
885.4324	1441.6835	9022.1	8140.35
885.5759	1443.5139	8935.8	8050.5
885.7194	1445.3435	8882.2	7999.2
885.8629	1447.1724	8816.65	7936.5
886.0064	1449.0005	8742.15	7861.75
886.1499	1450.8279	8619.1	7737.1
886.2933	1452.6545	8586.7	7703.9
886.4368	1454.4804	8639.6	7759.3
886.5802	1456.3056	8634.75	7746.7
886.7237	1458.13	8519.1	7639.75
886.8671	1459.9536	8254.1	7371.65
887.0105	1461.7766	7879.5	6999.15
887.1539	1463.5987	7450.35	6567.5
887.2972	1465.4202	7068.3	6188.45
887.4406	1467.2409	6698.2	5815.45
887.584	1469.0608	6424.65	5543.65
887.7273	1470.88	6159.55	5276.95
887.8706	1472.6984	5919.15	5038.85
888.0139	1474.5161	5729.2	4846.25
888.1572	1476.3331	5565.95	4686.55
888.3005	1478.1493	5432.1	4551.8
888.4438	1479.9648	5327.75	4447.55
888.5871	1481.7795	5241.05	4360
888.7303	1483.5935	5165.15	4285
888.8736	1485.4067	5112.6	4232.1
889.0168	1487.2192	5069.5	4188.95
889.16	1489.031	5028.5	4144.55
889.3032	1490.842	4975.95	4095.25
889.4464	1492.6522	4944.05	4062.6
889.5896	1494.4618	4924.05	4043.4
889.7327	1496.2705	4891.2	4010.45
889.8759	1498.0785	4857.9	3977.5
890.019	1499.8858	4851.9	3969.6
890.1622	1501.6924	4835.45	3955.35
890.3053	1503.4981	4826.2	3944.55
890.4484	1505.3032	4802	3922.9
890.5914	1507.1075	4772.45	3890.15
890.7345	1508.911	4741.4	3860.75
890.8776	1510.7138	4717.1	3833.85
891.0206	1512.5159	4672.8	3792.35
891.1637	1514.3172	4646.6	3766.4
891.3067	1516.1178	4620	3742.6
891.4497	1517.9176	4589.15	3704.1
891.5927	1519.7166	4569.45	3688.35
891.7357	1521.515	4544	3657.15
891.8786	1523.3126	4520.85	3637.65
892.0216	1525.1094	4510.1	3628.2
892.1645	1526.9055	4493.25	3612.45
892.3074	1528.7008	4487.6	3603.25
892.4503	1530.4954	4445.2	3558.9
892.5932	1532.2893	4452.3	3573.5
892.7361	1534.0824	4424.25	3537.8
892.879	1535.8747	4418.55	3536.9
893.0218	1537.6663	4402.45	3521.15
893.1647	1539.4572	4399.35	3517.65
893.3075	1541.2473	4400.65	3518.4
893.4503	1543.0367	4386.55	3503.1
893.5931	1544.8253	4386.65	3499.95
893.7359	1546.6132	4390.8	3509.55
893.8787	1548.4003	4395.95	3505.9
894.0214	1550.1867	4415.9	3527.1
894.1642	1551.9723	4420.25	3533.45
894.3069	1553.7572	4449.3	3565.3
894.4496	1555.5414	4449.75	3570.55
894.5923	1557.3247	4485.85	3605.15
894.735	1559.1074	4528.85	3650.15
894.8777	1560.8893	4570.05	3690.4
895.0204	1562.6705	4647.3	3767.5
895.163	1564.4509	4707.7	3828.1
895.3056	1566.2305	4783.85	3905.6
895.4482	1568.0094	4878.5	3999.3
895.5908	1569.7876	4974.45	4093.4
895.7334	1571.565	5043.25	4162.7
895.876	1573.3417	5108.45	4225.15
896.0186	1575.1176	5118.15	4237.3
896.1611	1576.8928	5092.45	4211
896.3036	1578.6672	5000.7	4120.05
896.4461	1580.4409	4876.55	3996.6
896.5886	1582.2138	4764.1	3881.4
896.7311	1583.986	4643.95	3761.9
896.8736	1585.7575	4537	3657.15
897.0161	1587.5282	4454.35	3573
897.1585	1589.2981	4401.2	3521.45
897.3009	1591.0673	4350.7	3470.3
897.4433	1592.8358	4331.85	3451.5
897.5857	1594.6035	4328	3444.1
897.7281	1596.3704	4319.65	3438.65
897.8705	1598.1366	4337.7	3456.25
898.0128	1599.9021	4348	3469.65
898.1551	1601.6668	4379.45	3493.55
898.2975	1603.4308	4408.45	3527.35
898.4398	1605.194	4497.95	3609.65
898.5821	1606.9564	4561.85	3680.95
898.7243	1608.7182	4667.4	3782.45
898.8666	1610.4791	4808.9	3930.15
899.0088	1612.2394	4952.75	4073.25
899.1511	1613.9988	5151.25	4271.1
899.2933	1615.7576	5393.55	4513.3
899.4355	1617.5156	5634.55	4749.05
899.5776	1619.2728	5853.7	4972.25
899.7198	1621.0293	6039.5	5160.6
899.862	1622.785	6113.5	5226.45
900.0041	1624.54	6084.3	5200.3
900.1462	1626.2942	5938.55	5056.3
900.2883	1628.0477	5695.55	4809.8
900.4304	1629.8005	5444.7	4560.2
900.5725	1631.5525	5206.45	4326.35
900.7145	1633.3037	5001.15	4120.65
900.8566	1635.0542	4820.1	3937.3
900.9986	1636.804	4692.95	3812.1
901.1406	1638.553	4672.95	3713.35
901.2826	1640.3013	4543.6	3663.15
901.4245	1642.0488	4506.8	3625.75
901.5665	1643.7955	4497.15	3617
901.7085	1645.5416	4514.2	3632.7
901.8504	1647.2868	4569.2	3687.65
901.9923	1649.0313	4651.2	3770
902.1342	1650.7751	4790.45	3904.8
902.2761	1652.5181	4974.1	4094.7
902.4179	1654.2604	5222.8	4340.2
902.5598	1656.0019	5542.3	4661.5
902.7016	1657.7427	5926.1	5045.9
902.8434	1659.4828	6285.4	5403.95
902.9852	1661.222	6521.65	5640.25
903.127	1662.9606	6563.1	5682.55
903.2687	1664.6984	6391.55	5509.5
903.4105	1666.4354	6066.65	5185.8
903.5522	1668.1717	5610.4	4730.1
903.6939	1669.9072	5158.55	4278.7
903.8356	1671.642	4778.3	3895.4
903.9773	1673.3761	4489.85	3611.7
904.119	1675.1094	4276.2	3396.8
904.2606	1676.8419	4100.9	3222.2
904.4022	1678.5737	3968.75	3089.55
904.5439	1680.3048	3880.15	2999.35
904.6855	1682.0351	3804.45	2926.8
904.827	1683.7646	3742.9	2860.4
904.9686	1685.4934	3695.75	2817.3
905.1101	1687.2215	3667.2	2787.15
905.2517	1688.9488	3631.35	2751.65
905.3932	1690.6754	3601.9	2723.65
905.5347	1692.4012	3583.7	2703.05
905.6761	1694.1263	3573	2691.85
905.8176	1695.8506	3540.95	2659.95
905.9591	1697.5742	3520.2	2642
906.1005	1699.297	3498.65	2617.5
906.2419	1701.0191	3482.8	2603.7
906.3833	1702.7404	3442.7	2563.6
906.5246	1704.461	3437.25	2556.45
906.666	1706.1808	3415.35	2532.45
906.8073	1707.8999	3396.9	2514.6
906.9487	1709.6182	3391.9	2510.65
907.09	1711.3358	3387.25	2505.8
907.2313	1713.0527	3368.95	2488.45
907.3725	1714.7688	3364.9	2477.95
907.5138	1716.4841	3338.65	2456.15
907.655	1718.1987	3332.3	2447.3
907.7962	1719.9126	3321.85	2444.3
907.9374	1721.6257	3306.25	2424.7
908.0786	1723.338	3294.15	2412
908.2198	1725.0496	3267.35	2384.85
908.3609	1726.7605	3267.8	2387.05
908.502	1728.4706	3270.85	2388.55
908.6431	1730.18	3235.8	2352.8
908.7842	1731.8886	3236.9	2356.95
908.9253	1733.5964	3235.55	2351.45
909.0664	1735.3036	3223.75	2340.8
909.2074	1737.0099	3209.25	2329.2
909.3484	1738.7156	3199.55	2320.7
909.4894	1740.4204	3195.05	2311.7
909.6304	1742.1246	3183.75	2302.8
909.7714	1743.8279	3177.5	2300.4
909.9123	1745.5306	3173.8	2292.4
910.0532	1747.2325	3165.65	2287.1
910.1941	1748.9336	3160.3	2282.5
910.335	1750.634	3144	2262.7
910.4759	1752.3336	3142.35	2261.45
910.6168	1754.0325	3128.05	2249.15
910.7576	1755.7307	3124.25	2243.45
910.8984	1757.4281	3122.25	2241
911.0392	1759.1247	3122.4	2233.45
911.18	1760.8206	3107.5	2223.65
911.3208	1762.5158	3120.6	2237.4
911.4615	1764.2102	3094.15	2215.3
911.6022	1765.9039	3073.65	2191.7
911.7429	1767.5968	3082.2	2202.15
911.8836	1769.289	3074	2194.3
912.0243	1770.9804	3070.2	2189.1
912.1649	1772.6711	3070.4	2188.7
912.3056	1774.361	3050.75	2170.5
912.4462	1776.0502	3049.5	2168.75
912.5868	1777.7386	3046.9	2164.5
912.7274	1779.4263	3034.65	2155.75
912.8679	1781.1132	3040.5	2158.25
913.0084	1782.7994	3030.55	2149.7
913.149	1784.4849	3018.7	2138.9
913.2895	1786.1696	3025.3	2125.9
913.4299	1787.8535	3004.75	2125.65
913.5704	1789.5367	2999.05	2118.5
913.7108	1791.2192	2992.2	2111.7
913.8513	1792.9009	3010.45	2103.65
913.9917	1794.5818	2986.1	2105.65
914.132	1796.2621	2977.1	2098.95
914.2724	1797.9415	2972.3	2090.85
914.4128	1799.6202	2963.1	2083.6
914.5531	1801.2982	2948.45	2067.2
914.6934	1802.9755	2948.3	2068.05
914.8337	1804.6519	2956.95	2076.9
914.9739	1806.3277	2946.2	2065.1
915.1142	1808.0027	2930.2	2049.45
915.2544	1809.6769	2923.25	2043
915.3946	1811.3504	2933	2052.15
915.5348	1813.0231	2926.55	2044.85
915.675	1814.6951	2932.85	2051.95
915.8151	1816.3664	2919.85	2037.7
915.9553	1818.0369	2894.3	2013.9
916.0954	1819.7067	2913	2032.9
916.2355	1821.3757	2892.55	2007.85
916.3755	1823.044	2899.05	2016.65
916.5156	1824.7115	2882.15	2001.5
916.6556	1826.3783	2875.2	1995.3
916.7956	1828.0443	2868.05	1987.15
916.9356	1829.7096	2866.95	1985.6
917.0756	1831.3741	2871.5	1988.8
917.2155	1833.0379	2860	1979.2
917.3555	1834.701	2858.8	1978.15
917.4954	1836.3633	2857.35	1975.05
917.6353	1838.0248	2847.2	1966.1
917.7751	1839.6856	2835.4	1953.85
917.915	1841.3457	2833.65	1953.2
918.0548	1843.005	2840.65	1960.25
918.1946	1844.6636	2839.4	1959.25
918.3344	1846.3214	2836.1	1954.7
918.4742	1847.9785	2828.1	1949.2
918.6139	1849.6349	2822.15	1941.5
918.7537	1851.2904	2828	1941.2
918.8934	1852.9453	2815.05	1935.5
919.0331	1854.5994	2806.95	1925
919.1727	1856.2528	2818.6	1933.05
919.3124	1857.9054	2802.9	1922.25
919.452	1859.5572	2795.85	1915.9
919.5916	1861.2083	2792.4	1910.8
919.7312	1862.8587	2782.65	1903.6
919.8708	1864.5084	2782.5	1901.7
920.0103	1866.1572	2780.15	1902.65
920.1498	1867.8054	2767.35	1886.65
920.2893	1869.4528	2753.6	1873.65
920.4288	1871.0994	2768.75	1888.95
920.5683	1872.7453	2761.95	1881.05
920.7077	1874.3905	2767.4	1869.7
920.8471	1876.0349	2741.25	1861.65
920.9865	1877.6786	2736.25	1855
921.1259	1879.3215	2732.85	1852.8
921.2653	1880.9637	2736.6	1855.35
921.4046	1882.6051	2730.9	1851.15
921.5439	1884.2458	2707.35	1823.7
921.6832	1885.8858	2710.85	1830.75
921.8225	1887.525	2713.3	1833.95
921.9617	1889.1634	2694.1	1815.3
922.101	1890.8011	2690.45	1809.25
922.2402	1892.4381	2684.5	1804.65
922.3794	1894.0743	2687.5	1808.3
922.5185	1895.7098	2688.1	1809.05
922.6577	1897.3446	2680.7	1799.7
922.7968	1898.9786	2673.5	1788.9
922.9359	1900.6118	2677.4	1796.55
923.075	1902.2443	2658.95	1776.85
923.214	1903.8761	2648.5	1767.05
923.3531	1905.5071	2644.85	1762.75
923.4921	1907.1374	2638.9	1758.55
923.6311	1908.7669	2636.05	1755.3
923.77	1910.3957	2625.75	1747.25
923.909	1912.0237	2626.65	1746.8
924.0479	1913.651	2628.85	1747.3
924.1868	1915.2776	2614.95	1735.6
924.3257	1916.9034	2598.95	1718.5
924.4646	1918.5285	2597.55	1718.85
924.6034	1920.1528	2602.7	1721.8
924.7422	1921.7764	2594.55	1716.6
924.881	1923.3992	2582.6	1702.85
925.0198	1925.0213	2581.85	1700.6
925.1586	1926.6427	2578.9	1701.05
925.2973	1928.2633	2637.65	1681.3
925.436	1929.8832	2584.2	1703.15
925.5747	1931.5023	2561.25	1680.8
925.7134	1933.1207	2547.7	1666.05
925.852	1934.7383	2553.1	1673.2
925.9906	1936.3552	2546.4	1665.9
926.1292	1937.9714	2539.9	1659
926.2678	1939.5868	2526.95	1644.55
926.4064	1941.2015	2523.9	1640.95
926.5449	1942.8154	2516.85	1637.55
926.6834	1944.4286	2515.45	1633.6
926.8219	1946.041	2520.1	1616.2
926.9604	1947.6528	2485.5	1602.15
927.0988	1949.2637	2486.4	1607.3
927.2372	1950.8739	2494.8	1612.75
927.3756	1952.4834	2468.35	1588.8
927.514	1954.0921	2473.7	1592
927.6523	1955.7001	2472.6	1587.9
927.7907	1957.3074	2471.35	1591.3
927.929	1958.9139	2446.15	1564.85
928.0673	1960.5197	2454.4	1573.4
928.2055	1962.1247	2444.8	1565.15
928.3438	1963.729	2426.25	1548.1
928.482	1965.3325	2452.7	1548.55
928.6202	1966.9353	2427.7	1549
928.7584	1968.5374	2430	1549.95
928.8965	1970.1387	2414.9	1535.65
929.0346	1971.7393	2401.75	1520.6
929.1727	1973.3392	2400.8	1521.1
929.3108	1974.9383	2403.25	1522.55
929.4489	1976.5366	2391.6	1512.85
929.5869	1978.1342	2380.7	1499.1
929.7249	1979.7311	2398.7	1515.05
929.8629	1981.3273	2385.5	1505.9
930.0009	1982.9227	2377.15	1495.15
930.1388	1984.5173	2367.4	1487.35
930.2767	1986.1112	2365.05	1486.05
930.4146	1987.7044	2363.35	1482.6
930.5525	1989.2968	2357	1474.8
930.6904	1990.8885	2372.15	1489.35
930.8282	1992.4795	2355.25	1472.35
930.966	1994.0697	2355.05	1476.8
931.1038	1995.6592	2345.25	1466.2
931.2415	1997.2479	2345.6	1464.75
931.3793	1998.8359	2324.6	1443.3
931.517	2000.4232	2321.65	1440.3
931.6547	2002.0097	2319.4	1440.4
931.7923	2003.5955	2318.15	1437.4
931.93	2005.1805	2311.5	1429.9
932.0676	2006.7648	2318	1436.95
932.2052	2008.3484	2311.55	1428.95
932.3427	2009.9312	2313.8	1431.25
932.4803	2011.5133	2297.95	1418.55
932.6178	2013.0946	2299.95	1418.4
932.7553	2014.6752	2288.85	1409.7
932.8928	2016.2551	2294.65	1412.8
933.0302	2017.8342	2287.55	1408.8
933.1676	2019.4126	2289.95	1409.3
933.305	2020.9902	2272.95	1393
933.4424	2022.5672	2266	1383.2
933.5798	2024.1433	2280.1	1394.55
933.7171	2025.7188	2266.9	1387.9
933.8544	2027.2935	2273.85	1389
933.9917	2028.8674	2254.9	1376.35
934.129	2030.4406	2253.4	1375.2
934.2662	2032.0131	2251.5	1372.5
934.4034	2033.5849	2236.55	1352.5
934.5406	2035.1559	2244.65	1363.5
934.6778	2036.7261	2244.9	1365.3
934.8149	2038.2957	2233.35	1352.45
934.952	2039.8645	2222.9	1341.05
935.0891	2041.4325	2239.7	1357.95
935.2262	2042.9998	2223.65	1343.3
935.3632	2044.5664	2211.25	1329.35
935.5002	2046.1323	2207.95	1326.55
935.6372	2047.6974	2210	1329.95
935.7742	2049.2617	2208.5	1328.6
935.9111	2050.8254	2215.7	1330.55
936.048	2052.3883	2205.35	1323.45
936.1849	2053.9504	2203.8	1322.25
936.3218	2055.5118	2187.35	1307
936.4586	2057.0725	2190.35	1305.65
936.5955	2058.6325	2192.85	1312
936.7323	2060.1917	2173.7	1292.5
936.869	2061.7502	2183.85	1300.2
937.0058	2063.3079	2177.2	1296.05
937.1425	2064.8649	2169.45	1283.4
937.2792	2066.4212	2171.65	1290.5
937.4159	2067.9767	2164.55	1284.6
937.5525	2069.5315	2156.85	1275.85
937.6891	2071.0856	2145.3	1263.5
937.8257	2072.6389	2160.6	1279.45
937.9623	2074.1915	2142	1263.8
938.0989	2075.7433	2135.45	1252.75
938.2354	2077.2945	2124.4	1246.65
938.3719	2078.8448	2137.1	1257.4
938.5084	2080.3945	2120.1	1239.5
938.6448	2081.9434	2123.95	1243.45
938.7812	2083.4916	2109.15	1228.15
938.9176	2085.039	2112.9	1229.4
939.054	2086.5857	2113.55	1231.35
939.1903	2088.1317	2105.65	1225.05
939.3267	2089.677	2104.7	1222.65
939.463	2091.2215	2103.45	1222.3
939.5992	2092.7652	2092.45	1211.45
939.7355	2094.3083	2097.15	1216.4
939.8717	2095.8506	2097	1218.35
940.0079	2097.3921	2094.1	1214.3
940.1441	2098.933	2092.85	1213.6
940.2802	2100.4731	2082.6	1201.85
940.4163	2102.0124	2102.25	1214.6
940.5524	2103.5511	2078	1196.85
940.6885	2105.089	2072.3	1191.5
940.8245	2106.6261	2068.15	1188.3
940.9606	2108.1626	2071.65	1188.1
941.0965	2109.6983	2093.85	1186.6
941.2325	2111.2332	2068.3	1185.4
941.3684	2112.7675	2069.7	1187.55
941.5044	2114.301	2065.65	1184.5
941.6403	2115.8337	2059.9	1178.65
941.7761	2117.3657	2042.4	1162.4
941.912	2118.897	2056.8	1174.25
942.0478	2120.4276	2050.3	1162.75
942.1835	2121.9575	2052.95	1170.65
942.3193	2123.4866	2051.15	1155.3
942.455	2125.0149	2032.65	1149.6
942.5907	2126.5426	2023.3	1141.7
942.7264	2128.0695	2024.3	1139.05
942.8621	2129.5956	2031.15	1150.65
942.9977	2131.1211	2027.95	1141.7
943.1333	2132.6458	2016.9	1135.35
943.2689	2134.1698	2017.25	1135.55
943.4044	2135.693	2019.1	1137.1
943.54	2137.2155	2016.35	1133.45
943.6755	2138.7373	2012.45	1131.85
943.8109	2140.2584	2008.05	1128.15
943.9464	2141.7787	2017.45	1132.2
944.0818	2143.2983	2004.15	1124.05
944.2172	2144.8171	1991.55	1110.1
944.3526	2146.3353	1991.55	1110.75
944.4879	2147.8527	1983.9	1105.75
944.6232	2149.3693	1992.35	1110.2
944.7585	2150.8853	1975.7	1092.7
944.8938	2152.4005	1971.8	1090.4
945.029	2153.9149	1977.75	1097.4
945.1642	2155.4287	1972.65	1092.55
945.2994	2156.9417	1966.8	1083.05
945.4346	2158.454	1962.9	1081.25
945.5697	2159.9655	1962.6	1082.45
945.7048	2161.4764	1974.3	1094.25
945.8399	2162.9865	1957.65	1075.45
945.9749	2164.4958	1965.15	1081.75
946.1099	2166.0045	1953.7	1068.75
946.2449	2167.5124	1948.65	1067.6
946.3799	2169.0195	1953.65	1075.2
946.5148	2170.526	1948.45	1064.6
946.6498	2172.0317	1949.45	1069.4
946.7846	2173.5367	1935.65	1053.3
946.9195	2175.0409	1948.3	1067.1
947.0543	2176.5445	1933.6	1052.7
947.1891	2178.0473	1938.35	1058.55
947.3239	2179.5494	1939.9	1055.45
947.4587	2181.0507	1936.8	1056.05
947.5934	2182.5513	1928.95	1049.6
947.7281	2184.0512	1918	1037.85
947.8628	2185.5504	1922.05	1041.75
947.9974	2187.0488	1909.4	1028.7
948.132	2188.5465	1917	1035.3
948.2666	2190.0435	1907.05	1024.85
948.4012	2191.5397	1899.4	1019.5
948.5357	2193.0353	1911.95	1031.45
948.6702	2194.5301	1900.15	1019.45
948.8047	2196.0241	1893.95	1012.95
948.9392	2197.5175	1890.75	1010.05
949.0736	2199.0101	1889.15	1003.65
949.208	2200.502	1884.1	1003.2
949.3424	2201.9931	1894.7	1012.25
949.4767	2203.4835	1879.2	996.05
949.611	2204.9733	1886.8	999.25
949.7453	2206.4622	1874.4	993.5
949.8796	2207.9505	1876.25	991.8
950.0138	2209.438	1862.3	982.15
950.148	2210.9248	1854.4	971.25
950.2822	2212.4109	1861.45	981.15
950.4164	2213.8962	1866.65	982.1
950.5505	2215.3809	1858.1	976.95
950.6846	2216.8648	1850.05	969.95
950.8186	2218.3479	1851.5	965.7
950.9527	2219.8304	1853.25	970.5
951.0867	2221.3121	1843.4	960.4
951.2207	2222.7931	1847.9	966.75
951.3546	2224.2733	1837.2	954.3
951.4886	2225.7529	1828.6	947.95
951.6225	2227.2317	1844.25	961.4
951.7563	2228.7098	1825.9	946.75
951.8902	2230.1872	1818.45	937.15
952.024	2231.6638	1824.9	943.35
952.1578	2233.1397	1826.75	941.45
952.2916	2234.6149	1806.2	926.8
952.4253	2236.0894	1814.8	932.7
952.559	2237.5632	1811.75	927.3
952.6927	2239.0362	1815.3	933.3
952.8263	2240.5085	1805.35	922.9
952.9599	2241.9801	1799	917.7
953.0935	2243.4509	1793.7	912.35
953.2271	2244.921	1795.25	914.6
953.3606	2246.3904	1794.9	912.2
953.4941	2247.8591	1794.75	914.9
953.6276	2249.3271	1780.1	899.25
953.7611	2250.7943	1787.25	907.75
953.8945	2252.2608	1773.1	892.85
954.0279	2253.7266	1772.4	891.35
954.1612	2255.1917	1767.3	886.8
954.2946	2256.656	1768.95	887.9
954.4279	2258.1197	1759.9	877.25
954.5612	2259.5826	1761.15	878.35
954.6944	2261.0447	1763.05	882.75
954.8276	2262.5062	1767.4	884.6
954.9608	2263.9669	1756.8	873.8
955.094	2265.4269	1756.9	875.95
955.2271	2266.8862	1750.55	870.75
955.3602	2268.3448	1752.1	872.9
955.4933	2269.8026	1754.2	872.15
955.6264	2271.2598	1746.2	866.8
955.7594	2272.7162	1753.05	872.9
955.8924	2274.1719	1742.7	860.95
956.0253	2275.6268	1744.35	862.45
956.1583	2277.0811	1744.05	863.5
956.2912	2278.5346	1741.95	861.95
956.4241	2279.9874	1735.75	854.3
956.5569	2281.4395	1734.5	852.2
956.6897	2282.8908	1736.3	851.35
956.8225	2284.3414	1732.75	849.2
956.9553	2285.7914	1734.85	852.8
957.088	2287.2406	1725.7	843.7
957.2207	2288.689	1721.15	841.45
957.3534	2290.1368	1720.8	838.8
957.486	2291.5838	1718.1	836.05
957.6186	2293.0302	1716.2	834.95
957.7512	2294.4758	1715.65	833.9
957.8838	2295.9206	1709.7	827
958.0163	2297.3648	1704.3	822.45
958.1488	2298.8082	1705	823.65
958.2813	2300.251	1698.5	819.9
958.4137	2301.693	1700.05	815.65
958.5461	2303.1343	1706.2	822.55
958.6785	2304.5748	1711.4	829.25
958.8108	2306.0147	1692.65	810.75
958.9432	2307.4538	1691.05	808.4
959.0754	2308.8922	1685.05	803.45
959.2077	2310.3299	1688.45	806.8
959.3399	2311.7669	1685.45	803.9
959.4721	2313.2031	1678.85	797.05
959.6043	2314.6387	1677.2	794.4
959.7365	2316.0735	1683.05	801.8
959.8686	2317.5076	1678.75	797.9
960.0006	2318.941	1684	803.05
960.1327	2320.3737	1675.85	793.6
960.2647	2321.8056	1667.35	783.65
960.3967	2323.2369	1664.55	782.5
960.5287	2324.6674	1665.25	781.25
960.6606	2326.0972	1661	776.75
960.7925	2327.5263	1663.05	782.85
960.9244	2328.9547	1660.25	780.35
961.0562	2330.3823	1660.2	778.4
961.1881	2331.8092	1662.2	779.15
961.3198	2333.2355	1655.8	773.4
961.4516	2334.661	1658.5	776.15
961.5833	2336.0858	1649.95	765.8
961.715	2337.5098	1645.65	763.3
961.8467	2338.9332	1647.15	767
961.9783	2340.3558	1649.8	763.3
962.1099	2341.7778	1633.7	752.15
962.2415	2343.199	1639.75	757.7
962.373	2344.6195	1638.85	757.6
962.5045	2346.0393	1634.3	752.7
962.636	2347.4583	1635.65	753.3
962.7675	2348.8767	1637.35	755
962.8989	2350.2943	1630.45	749.65
963.0303	2351.7113	1629.2	745.75
963.1617	2353.1275	1630.85	748.3
963.293	2354.543	1646.15	741.5
963.4243	2355.9578	1629.2	748.2
963.5556	2357.3718	1621.05	742.15
963.6868	2358.7852	1619.5	735.35
963.818	2360.1978	1619.35	735.8
963.9492	2361.6098	1621.2	740.55
964.0803	2363.021	1616.85	731.55
964.2114	2364.4315	1610.2	729.85
964.3425	2365.8413	1615.45	730.25
964.4736	2367.2504	1615.65	734.4
964.6046	2368.6587	1600.7	720.95
964.7356	2370.0664	1599.1	717.8
964.8666	2371.4733	1597.7	717.55
964.9975	2372.8795	1599.4	717.95
965.1284	2374.285	1594.55	712.25
965.2593	2375.6899	1597.5	717.45
965.3901	2377.0939	1589.05	706.9
965.5209	2378.4973	1584.65	703.4
965.6517	2379.9	1582.15	701.25
965.7825	2381.3019	1584.8	706.7
965.9132	2382.7032	1580.4	700.5
966.0439	2384.1037	1576.1	696.55
966.1745	2385.5035	1576.05	695.1
966.3051	2386.9027	1576	694.9
966.4357	2388.3011	1578.65	696.35
966.5663	2389.6987	1576.75	698.1
966.6968	2391.0957	1562.85	683
966.8273	2392.492	1564.9	684.95
966.9578	2393.8876	1559.65	678.55
967.0882	2395.2824	1553.6	672.85
967.2186	2396.6765	1544.6	664.85
967.349	2398.07	1549	669.4
967.4793	2399.4627	1553.45	673.25
967.6097	2400.8547	1546.7	667.45
967.7399	2402.246	1555.15	667.95
967.8702	2403.6366	1551.85	672.9
968.0004	2405.0265	1545.55	665.15
968.1306	2406.4156	1548.05	660.8
968.2607	2407.8041	1542.3	658.25
968.3909	2409.1918	1541.35	658.95
968.521	2410.5789	1537.05	655.5
968.651	2411.9652	1539.7	657.35
968.781	2413.3508	1530.8	651.1
968.911	2414.7358	1531.85	651.75
969.041	2416.12	1537.6	657.7
969.1709	2417.5035	1526.2	646.45
969.3008	2418.8863	1532.95	653.05
969.4307	2420.2684	1525.5	646.8
969.5606	2421.6497	1523.25	642.7
969.6904	2423.0304	1523.05	643.75
969.8201	2424.4104	1521.15	641.25
969.9499	2425.7896	1526.2	639.55
970.0796	2427.1682	1514.15	634.45
970.2093	2428.546	1512.15	629.45
970.3389	2429.9232	1513.7	631.7
970.4685	2431.2996	1503.9	625.3
970.5981	2432.6753	1503.5	623.75
970.7277	2434.0503	1504.2	622.5
970.8572	2435.4246	1503.4	624.25
970.9867	2436.7982	1508.5	626.55
971.1161	2438.1711	1498.55	619.1
971.2456	2439.5433	1500.6	618.2
971.375	2440.9148	1499.4	612.65
971.5043	2442.2856	1502.6	623.3
971.6336	2443.6557	1499.2	616.65
971.7629	2445.025	1489.75	610.6
971.8922	2446.3937	1498.2	615.85
972.0214	2447.7617	1489.15	607.35
972.1506	2449.1289	1485.3	605.3
972.2798	2450.4955	1491.1	608.65
972.4089	2451.8613	1491.6	611.85
972.538	2453.2265	1485.75	605.3
972.6671	2454.5909	1485.2	602.7
972.7961	2455.9546	1487.35	606.2
972.9251	2457.3177	1479.95	598.6
973.0541	2458.68	1472.9	590.6
973.1831	2460.0416	1486.55	607.05
973.312	2461.4025	1476.95	592.35
973.4408	2462.7627	1488.05	595.55
973.5697	2464.1222	1480.5	601.75
973.6985	2465.4811	1473.95	592
973.8273	2466.8392	1474.9	593.15
973.956	2468.1966	1478.8	595.35
974.0847	2469.5533	1476.75	593.4
974.2134	2470.9093	1477.45	595.45
974.3421	2472.2645	1475.55	592.1
974.4707	2473.6191	1470.55	591.3
974.5993	2474.973	1469.55	587.35
974.7278	2476.3262	1470.25	587.4
974.8563	2477.6787	1462.8	583.85
974.9848	2479.0305	1462.85	580.55
975.1132	2480.3816	1465.15	581.8
975.2417	2481.7319	1462.55	582.75
975.37	2483.0816	1465.6	583.25
975.4984	2484.4306	1458.9	577.25
975.6267	2485.7789	1459.35	579.45
975.755	2487.1264	1455.45	573.55
975.8833	2488.4733	1453.35	574.5
976.0115	2489.8195	1462.55	566.25
976.1397	2491.165	1447.25	562
976.2678	2492.5097	1439.15	556.2
976.3959	2493.8538	1444.35	563.15
976.524	2495.1972	1438.5	557.7
976.6521	2496.5398	1439.8	556.4
976.7801	2497.8818	1432.1	549.5
976.9081	2499.2231	1443.1	561.9
977.036	2500.5637	1430.85	546.9
977.164	2501.9035	1435.3	552.5
977.2918	2503.2427	1435.2	549.9
977.4197	2504.5812	1427.25	546.1
977.5475	2505.919	1436.25	554.65
977.6753	2507.256	1423.2	541.9
977.8031	2508.5924	1427.65	547
977.9308	2509.9281	1431.2	546.15
978.0585	2511.2631	1428.5	548.3
978.1861	2512.5974	1422.1	543.2
978.3137	2513.9309	1415.8	534.95
978.4413	2515.2638	1439.55	529.4
978.5689	2516.596	1415.4	534.75
978.6964	2517.9275	1419.95	538
978.8239	2519.2583	1416.9	535.25
978.9513	2520.5884	1415.95	534.85
979.0788	2521.9178	1412.75	531.5
979.2062	2523.2465	1417.85	535.65
979.3335	2524.5745	1412.35	530.45
979.4608	2525.9018	1411.05	529.2
979.5881	2527.2284	1410.65	529.5
979.7154	2528.5543	1402.4	522.05
979.8426	2529.8796	1406.05	524.45
979.9698	2531.2041	1407.5	526.7
980.0969	2532.5279	1408.95	529.2
980.224	2533.851	1404.65	524.35
980.3511	2535.1735	1402.05	523.4
980.4781	2536.4952	1400.45	519.8
980.6052	2537.8163	1401.45	518.6
980.7321	2539.1366	1395	515.8
980.8591	2540.4562	1396.35	514.7
980.986	2541.7752	1395.9	513.95
981.1129	2543.0935	1398.65	518.5
981.2397	2544.411	1392.85	509.85
981.3665	2545.7279	1387.4	508.05
981.4933	2547.0441	1390.1	508.3
981.62	2548.3596	1392.5	509
981.7467	2549.6744	1386.9	506.7
981.8734	2550.9885	1390.05	506.45
982.0001	2552.3019	1389.65	509.1
982.1267	2553.6146	1382.15	499.35
982.2532	2554.9266	1385.15	503.15
982.3798	2556.2379	1377.45	494.9
982.5063	2557.5485	1376.25	494.95
982.6327	2558.8585	1385.45	497.05
982.7592	2560.1677	1385.3	500.2
982.8856	2561.4762	1373.35	492.1
983.0119	2562.7841	1374.15	488.85
983.1383	2564.0913	1379.9	501.05
983.2646	2565.3977	1375	494.7
983.3908	2566.7035	1372.5	489.4
983.517	2568.0086	1376.65	493.25
983.6432	2569.313	1368.9	487.3
983.7694	2570.6167	1378.75	494.05
983.8955	2571.9197	1368	487.85
984.0216	2573.222	1367.7	483.35
984.1476	2574.5236	1365.35	483.35
984.2737	2575.8246	1376.9	493.7
984.3996	2577.1248	1378.3	493.75
984.5256	2578.4244	1370.3	490.7
984.6515	2579.7232	1368.2	485.2
984.7774	2581.0214	1396.15	483
984.9032	2582.3189	1367	486.05
985.029	2583.6157	1372.1	486.15
985.1548	2584.9118	1369.65	486.5
985.2806	2586.2072	1371.3	490.15
985.4063	2587.5019	1365.8	484.5
985.5319	2588.7959	1376.5	496.2
985.6576	2590.0893	1383.65	500.55
985.7832	2591.3819	1380.1	498.9
985.9087	2592.6739	1378.55	498.1
986.0343	2593.9652	1380.05	499
986.1597	2595.2557	1388.25	506.35
986.2852	2596.5456	1381.65	498.55
986.4106	2597.8348	1379.85	498.9
986.536	2599.1234	1379.55	499.7
986.6614	2600.4112	1383.3	501.65
986.7867	2601.6983	1395.55	510.65
986.912	2602.9848	1384.6	503
987.0372	2604.2705	1386.05	498.4
987.1624	2605.5556	1377.25	496
987.2876	2606.84	1390.4	509.8
987.4128	2608.1237	1383.3	500.55
987.5379	2609.4067	1379.25	497.7
987.6629	2610.689	1388.8	498.65
987.788	2611.9707	1385.15	501.4
987.913	2613.2516	1383.5	498.35
988.0379	2614.5319	1373.6	492.3
988.1629	2615.8115	1375.25	496.05
988.2878	2617.0903	1368.65	485.3
988.4126	2618.3685	1368.15	485.8
988.5375	2619.6461	1370.2	490.3
988.6622	2620.9229	1374.6	493
988.787	2622.199	1372.85	490.15
988.9117	2623.4745	1371.4	489.55
989.0364	2624.7493	1372.6	491.4
989.161	2626.0234	1368	489.55
989.2857	2627.2968	1367.25	485.6
989.4102	2628.5695	1368.45	486.5
989.5348	2629.8415	1376.35	497.15
989.6593	2631.1128	1366.95	483.1
989.7837	2632.3835	1367.4	486.95
989.9082	2633.6535	1370.8	489.9
990.0326	2634.9228	1368.65	487.35
990.1569	2636.1914	1368.9	488.75
990.2812	2637.4593	1362.55	481.8
990.4055	2638.7265	1364.85	481.7
990.5298	2639.9931	1369.75	487
990.654	2641.259	1367.25	484.6
990.7782	2642.5242	1360.65	480.05
990.9023	2643.7887	1363.55	481.25
991.0264	2645.0525	1362.5	482.6
991.1505	2646.3156	1361.55	477.9
991.2745	2647.5781	1358.4	478.9
991.3985	2648.8398	1354.3	473.95
991.5225	2650.1009	1363.95	474.3
991.6464	2651.3613	1350.75	470.15
991.7703	2652.6211	1354.05	471.85
991.8942	2653.8801	1357.75	478.15
992.018	2655.1385	1359.3	475
992.1418	2656.3961	1357.35	475.6
992.2655	2657.6531	1354	472.5
992.3892	2658.9094	1353.9	472.2
992.5129	2660.1651	1355.65	474.3
992.6366	2661.42	1354.8	474.65
992.7602	2662.6743	1359.8	477.75
992.8837	2663.9279	1364.35	484.65
993.0073	2665.1808	1360.5	478.5
993.1307	2666.433	1363.35	481.35
993.2542	2667.6846	1364	484.15
993.3776	2668.9354	1372.95	487.95
993.501	2670.1856	1364.4	481.35
993.6244	2671.4351	1373.8	492.2
993.7477	2672.6839	1373.15	489.95
993.8709	2673.9321	1372.6	491.85
993.9942	2675.1795	1379.95	497.95
994.1174	2676.4263	1384.9	503.5
994.2405	2677.6724	1385.15	504.9
994.3637	2678.9179	1390.35	506.35
994.4868	2680.1626	1390.7	510.7
994.6098	2681.4067	1384.9	504.1
994.7328	2682.6501	1384.75	502.65
994.8558	2683.8928	1379.45	498.85
994.9788	2685.1348	1378.55	495.95
995.1017	2686.3761	1370.95	490.7
995.2245	2687.6168	1373.95	492.35
995.3474	2688.8568	1369.5	489.05
995.4702	2690.0961	1367.75	488.85
995.5929	2691.3348	1363.8	480.55
995.7156	2692.5727	1366.65	485.25
995.8383	2693.81	1359.9	476
995.961	2695.0466	1354.45	474.4
996.0836	2696.2826	1362.7	480.7
996.2062	2697.5178	1370.5	485.6
996.3287	2698.7524	1359.3	478.35
996.4512	2699.9863	1364	480.65
996.5737	2701.2195	1365.15	485
996.6961	2702.452	1366.45	483.6
996.8185	2703.6839	1370.7	488.25
996.9408	2704.9151	1375.35	494.45
997.0631	2706.1456	1382.85	503
997.1854	2707.3755	1386.4	504.3
997.3077	2708.6046	1395.75	513.1
997.4299	2709.8331	1404.4	524.35
997.552	2711.0609	1409.85	527.1
997.6742	2712.2881	1423.55	542
997.7963	2713.5145	1433	549.3
997.9183	2714.7403	1440	558.65
998.0403	2715.9654	1452.05	570.2
998.1623	2717.1899	1479.1	584.05
998.2842	2718.4136	1480.35	599.25
998.4062	2719.6367	1483.7	601.4
998.528	2720.8591	1503.4	616.95
998.6498	2722.0809	1504.25	620.8
998.7716	2723.3019	1525.25	639.35
998.8934	2724.5223	1528.1	648.25
999.0151	2725.7421	1535.25	653.45
999.1368	2726.9611	1531.15	647.5
999.2584	2728.1795	1538.3	649.2
999.38	2729.3972	1525.55	643.45
999.5016	2730.6142	1525.65	631.55
999.6231	2731.8306	1502.7	619.25
999.7446	2733.0462	1484.2	600.85
999.8661	2734.2612	1474.35	586.8
999.9875	2735.4756	1459.85	577.1
1000.1089	2736.6892	1443.85	561.35
1000.2302	2737.9022	1421.75	540.65
1000.3515	2739.1145	1405.45	523.9
1000.4728	2740.3262	1398.65	508.15
1000.594	2741.5372	1389	510.05
1000.7152	2742.7475	1373.1	490.2
1000.8363	2743.9571	1362.35	477.2
1000.9575	2745.1661	1357.4	472.2
1001.0785	2746.3744	1348.15	465.65
1001.1996	2747.582	1339.3	457.65
1001.3206	2748.7889	1329.3	446.25
1001.4415	2749.9952	1316.35	435.75
1001.5625	2751.2008	1324	440.7
1001.6833	2752.4057	1321.25	438
1001.8042	2753.61	1312.4	429.25
1001.925	2754.8136	1315.75	430.7
1002.0458	2756.0165	1311.85	429.3
1002.1665	2757.2188	1306.9	425.75
1002.2872	2758.4204	1315.3	432.15
1002.4078	2759.6213	1310.9	425.7
1002.5285	2760.8215	1312.75	426.75
1002.649	2762.0211	1317.45	433.25
1002.7696	2763.22	1308.25	422.9
1002.8901	2764.4182	1311.1	427.6
1003.0106	2765.6158	1304.05	419.6
1003.131	2766.8127	1297.95	418.55
1003.2514	2768.009	1293.1	412.45
1003.3717	2769.2045	1296.95	416.25
1003.492	2770.3994	1299.7	415.3
1003.6123	2771.5936	1290.05	409.1
1003.7325	2772.7872	1293.3	411.55
1003.8527	2773.9801	1289.25	405.7
1003.9729	2775.1723	1306.15	407.65
1004.093	2776.3639	1291.4	410.6
1004.2131	2777.5548	1289.15	406.1
1004.3331	2778.745	1293	411.25
1004.4531	2779.9346	1301.2	417.05
1004.5731	2781.1235	1304	421.15
1004.693	2782.3117	1308.7	426.65
1004.8129	2783.4992	1304.9	421.35
1004.9328	2784.6861	1310.6	428.9
1005.0526	2785.8723	1320.2	437.2
1005.1723	2787.0579	1335.4	454.45
1005.2921	2788.2428	1341.65	459.7
1005.4118	2789.427	1346.45	464.75
1005.5314	2790.6106	1353.65	472.75
1005.651	2791.7935	1373	490.2
1005.7706	2792.9757	1381.95	501.8
1005.8902	2794.1573	1391.45	504.95
1006.0097	2795.3382	1410	528.4
1006.1291	2796.5184	1426.75	546.4
1006.2485	2797.698	1443.95	561.3
1006.3679	2798.8769	1460.85	578.55
1006.4873	2800.0551	1483.1	602.75
1006.6066	2801.2327	1505	621.3
1006.7258	2802.4096	1519.15	637.7
1006.8451	2803.5859	1545.25	662.7
1006.9642	2804.7615	1565.65	683.4
1007.0834	2805.9364	1591.4	708.95
1007.2025	2807.1106	1622.25	740.85
1007.3216	2808.2842	1648.35	766.6
1007.4406	2809.4572	1681.65	797.9
1007.5596	2810.6294	1730.35	849.2
1007.6785	2811.801	1761.7	882.3
1007.7975	2812.972	1810.5	929.7
1007.9163	2814.1423	1849.8	967.85
1008.0352	2815.3119	1905.6	1023.55
1008.154	2816.4808	1954.8	1074.8
1008.2727	2817.6491	2014.3	1130.7
1008.3914	2818.8167	2064.45	1184.9
1008.5101	2819.9837	2102.7	1214.65
1008.6288	2821.15	2158.7	1276.35
1008.7474	2822.3157	2202.2	1321.1
1008.8659	2823.4807	2249.4	1367.55
1008.9844	2824.645	2288.6	1405.05
1009.1029	2825.8086	2329.85	1448.6
1009.2214	2826.9716	2378.55	1497.1
1009.3398	2828.134	2425.2	1544.05
1009.4581	2829.2957	2451.8	1569.35
1009.5764	2830.4567	2477.25	1595.9
1009.6947	2831.617	2482.45	1601.25
1009.813	2832.7767	2508.55	1629.15
1009.9312	2833.9358	2508.4	1627.5
1010.0493	2835.0941	2495.85	1612.6
1010.1675	2836.2519	2476.8	1594.6
1010.2855	2837.4089	2477.95	1595.5
1010.4036	2838.5653	2464.4	1583.7
1010.5216	2839.7211	2467.2	1586.8
1010.6396	2840.8761	2471.05	1588.4
1010.7575	2842.0306	2508.15	1627.8
1010.8754	2843.1843	2543.65	1663.2
1010.9932	2844.3374	2591.15	1710.3
1011.111	2845.4899	2657.4	1772.6
1011.2288	2846.6417	2723.3	1841.5
1011.3465	2847.7928	2812.7	1932.45
1011.4642	2848.9433	2899.65	2019.9
1011.5818	2850.0931	2970	2089.35
1011.6995	2851.2422	3069.25	2185.3
1011.817	2852.3907	3141.75	2259.1
1011.9345	2853.5385	3202.5	2319.25
1012.052	2854.6857	3280.65	2371.4
1012.1695	2855.8323	3309.1	2428.2
1012.2869	2856.9781	3364	2484.8
1012.4042	2858.1233	3415.9	2533.35
1012.5216	2859.2679	3472.55	2591.95
1012.6389	2860.4118	3511.7	2630.6
1012.7561	2861.555	3564.95	2678.1
1012.8733	2862.6976	3586.9	2703.55
1012.9905	2863.8395	3625.15	2744.3
1013.1076	2864.9808	3664.7	2783.2
1013.2247	2866.1214	3660.2	2779.8
1013.3417	2867.2614	3689.3	2807
1013.4587	2868.4007	3705.8	2820.7
1013.5757	2869.5393	3704.5	2819.65
1013.6926	2870.6773	3718.05	2832.35
1013.8095	2871.8146	3742.6	2858.3
1013.9263	2872.9513	3737.35	2854.7
1014.0431	2874.0874	3737.45	2857.55
1014.1599	2875.2227	3729.2	2845.4
1014.2766	2876.3574	3724.85	2844.75
1014.3933	2877.4915	3682.25	2799.35
1014.51	2878.6249	3658.25	2777.8
1014.6266	2879.7577	3640.75	2757.85
1014.7431	2880.8898	3623.95	2728.2
1014.8596	2882.0212	3606.05	2726.1
1014.9761	2883.152	3592.75	2709.15
1015.0925	2884.2821	3579.1	2697.95
1015.2089	2885.4116	3574.05	2692.4
1015.3253	2886.5405	3568.45	2687.95
1015.4416	2887.6686	3596.2	2712.8
1015.5579	2888.7962	3583.35	2704
1015.6741	2889.923	3594.1	2714.6
1015.7903	2891.0493	3607.95	2724.85
1015.9065	2892.1748	3625.8	2741.2
1016.0226	2893.2997	3626.4	2744.85
1016.1387	2894.424	3644	2765
1016.2547	2895.5476	3662.25	2781.95
1016.3707	2896.6706	3694.55	2814.75
1016.4866	2897.7929	3729.05	2847.8
1016.6025	2898.9145	3748.3	2866.65
1016.7184	2900.0355	3792.8	2909.55
1016.8342	2901.1559	3825.7	2941.45
1016.95	2902.2756	3862.9	2981.4
1017.0658	2903.3946	3878.25	2996.4
1017.1815	2904.513	3903.9	3017.65
1017.2971	2905.6308	3944.65	3062.35
1017.4127	2906.7479	3955.1	3073.1
1017.5283	2907.8643	3989.1	3109.55
1017.6439	2908.9801	4011.7	3129
1017.7594	2910.0953	4019.4	3140.3
1017.8748	2911.2098	4019.65	3133.9
1017.9902	2912.3236	4027	3138.1
1018.1056	2913.4368	4008	3123.45
1018.2209	2914.5494	3985.55	3105.65
1018.3362	2915.6613	3967.65	3080.45
1018.4515	2916.7725	3943.3	3059.3
1018.5667	2917.8831	3902.15	3020.1
1018.6819	2918.9931	3876.7	2993.9
1018.797	2920.1024	3834.75	2951.3
1018.9121	2921.211	3815.25	2933.95
1019.0271	2922.319	3802.15	2919.9
1019.1421	2923.4264	3777.9	2896.1
1019.2571	2924.5331	3777.5	2897.25
1019.372	2925.6391	3749.1	2866.1
1019.4869	2926.7445	3735.7	2855.4
1019.6017	2927.8493	3739.5	2856.05
1019.7165	2928.9534	3738.95	2857.8
1019.8313	2930.0569	3729.05	2844.8
1019.946	2931.1597	3719.7	2839.7
1020.0606	2932.2619	3712.3	2832.95
1020.1753	2933.3634	3703.35	2820.85
1020.2899	2934.4643	3694.6	2807.1
1020.4044	2935.5645	3666.3	2778.15
1020.5189	2936.6641	3623.05	2737.55
1020.6334	2937.763	3579.15	2699.85
1020.7478	2938.8613	3540.8	2657.25
1020.8622	2939.959	3479.25	2594.6
1020.9765	2941.056	3388.55	2510.1
1021.0908	2942.1523	3319.2	2437.8
1021.2051	2943.248	3224.55	2343.6
1021.3193	2944.3431	3122.45	2242.2
1021.4334	2945.4375	3024.9	2144.9
1021.5476	2946.5313	2916.4	2035.7
1021.6617	2947.6244	2808.9	1926.9
1021.7757	2948.7169	2704	1822.75
1021.8897	2949.8087	2605.3	1722.85
1022.0037	2950.8999	2512.5	1630.3
1022.1176	2951.9904	2434.05	1553.75
1022.2315	2953.0803	2354.8	1472
1022.3453	2954.1696	2287.75	1409.05
1022.4591	2955.2582	2222.2	1340.55
1022.5728	2956.3462	2175.5	1294.05
1022.6865	2957.4335	2140.95	1259.2
1022.8002	2958.5202	2111.55	1228.8
1022.9138	2959.6062	2080.5	1202.3
1023.0274	2960.6916	2050.6	1168.35
1023.141	2961.7764	2035.65	1153.75
1023.2545	2962.8605	2023.15	1140.5
1023.3679	2963.9439	2006.65	1126.35
1023.4813	2965.0267	1992.6	1109.6
1023.5947	2966.1089	2015.8	1112.35
1023.708	2967.1905	1992.5	1111.05
1023.8213	2968.2714	1986.45	1106.7
1023.9346	2969.3516	1987.5	1108.1
1024.0478	2970.4312	1990.9	1103.15
1024.1609	2971.5102	1981.75	1101.6
1024.274	2972.5885	1988.45	1107.1
1024.3871	2973.6662	1990.5	1103.7
1024.5002	2974.7432	1977.95	1096.35
1024.6132	2975.8196	1972.4	1089.6
1024.7261	2976.8954	1962.25	1080.5
1024.839	2977.9705	1956.65	1076.05
1024.9519	2979.045	1945.6	1064.4
1025.0647	2980.1188	1919.15	1038.45
1025.1775	2981.192	1909.75	1030.15
1025.2902	2982.2645	1886.05	1003.15
1025.4029	2983.3364	1866.3	986.15
1025.5156	2984.4077	1829.65	949.3
1025.6282	2985.4783	1809.35	921
1025.7407	2986.5483	1764.95	884.45
1025.8532	2987.6177	1720.55	839
1025.9657	2988.6864	1691.75	810.1
1026.0782	2989.7545	1659.3	775.9
1026.1906	2990.8219	1631.7	751.7
1026.3029	2991.8887	1591.85	707.85
1026.4152	2992.9548	1558.3	676.9
1026.5275	2994.0204	1523.9	645.45
1026.6397	2995.0852	1500.35	620.05
1026.7519	2996.1495	1486.35	603.9
1026.864	2997.2131	1456.15	575.8
1026.9761	2998.276	1434.6	555.1
1027.0882	2999.3383	1418.25	537.05
1027.2002	3000.4	1401.6	519.35
1027.3122	3001.4611	1382.7	503.8
1027.4241	3002.5215	1370.9	489.7
1027.536	3003.5812	1346.55	466.1
1027.6478	3004.6404	1343.8	462.8
1027.7596	3005.6989	1343.65	461.7
1027.8714	3006.7567	1326.3	446.6
1027.9831	3007.8139	1338.8	438.65
1028.0947	3008.8705	1310.75	429.3
1028.2064	3009.9264	1314.8	430.2
1028.3179	3010.9818	1303.8	423.15
1028.4295	3012.0364	1298.8	417.85
1028.541	3013.0905	1296.5	415.5
1028.6524	3014.1439	1298.65	417.2
1028.7638	3015.1966	1294.05	414
1028.8752	3016.2487	1294.15	411.6
1028.9865	3017.3002	1302.6	417.4
1029.0978	3018.3511	1292.2	412.8
1029.209	3019.4013	1299.15	418.1
1029.3202	3020.4509	1293.05	413.6
1029.4314	3021.4998	1293.85	412.45
1029.5425	3022.5481	1302.8	420.95
1029.6535	3023.5958	1300.7	418.3
1029.7645	3024.6428	1301.25	420.45
1029.8755	3025.6892	1304.25	423.65
1029.9864	3026.735	1308.2	430.05
1030.0973	3027.7802	1304.9	424
1030.2082	3028.8247	1314.35	431.85
1030.319	3029.8685	1311.6	430.1
1030.4297	3030.9118	1327.15	445.35
1030.5404	3031.9544	1317.4	436.35
1030.6511	3032.9963	1327.9	446.8
1030.7617	3034.0376	1341.75	460.55
1030.8723	3035.0783	1339.95	456.2
1030.9829	3036.1184	1346	464.55
1031.0934	3037.1578	1347.7	468.55
1031.2038	3038.1966	1348.95	466.4
1031.3142	3039.2348	1346.45	467.15
1031.4246	3040.2723	1355.25	466.85
1031.5349	3041.3092	1351.35	473.15
1031.6452	3042.3455	1346.3	466.5
1031.7554	3043.3811	1351.15	468.45
1031.8656	3044.4161	1339.55	457.9
1031.9758	3045.4505	1331.75	451.65
1032.0859	3046.4842	1334.8	452.45
1032.1959	3047.5173	1324	443.25
1032.3059	3048.5498	1315.6	433.4
1032.4159	3049.5816	1316.5	436.05
1032.5258	3050.6128	1301.6	420.2
1032.6357	3051.6434	1299.35	417.1
1032.7455	3052.6734	1291.3	409.4
1032.8553	3053.7027	1289.4	409.4
1032.9651	3054.7314	1272.65	393.3
1033.0748	3055.7594	1272.3	391.5
1033.1845	3056.7868	1264.75	383.95
1033.2941	3057.8136	1259.35	380.25
1033.4037	3058.8398	1251.8	372.2
1033.5132	3059.8653	1246.45	365.35
1033.6227	3060.8902	1248.8	368.7
1033.7321	3061.9145	1248.2	368.25
1033.8415	3062.9381	1238	354.6
1033.9509	3063.9612	1243.7	347.5
1034.0602	3064.9835	1222.3	342.4
1034.1694	3066.0053	1218.25	334.2
1034.2787	3067.0264	1207.85	327.05
1034.3878	3068.0469	1203.6	321.25
1034.497	3069.0668	1195.75	312.65
1034.6061	3070.086	1186.1	307.55
1034.7151	3071.1046	1179.6	295.75
1034.8241	3072.1226	1165.95	285.15
1034.9331	3073.1399	1152.75	271.7
1035.042	3074.1567	1147.45	266.9
1035.1508	3075.1727	1138.3	256.05
1035.2597	3076.1882	1133.45	253.35
1035.3684	3077.203	1122.05	241.3
1035.4772	3078.2173	1112.8	231.2
1035.5859	3079.2308	1111.9	229.05
1035.6945	3080.2438	1102.3	220.05
1035.8031	3081.2561	1093.3	211.45
1035.9117	3082.2678	1082.75	201.2
1036.0202	3083.2789	1075.3	195.6
1036.1286	3084.2893	1076.1	193.35
1036.2371	3085.2991	1067.2	184.8
1036.3454	3086.3083	1067.3	182.5
1036.4538	3087.3169	1056.75	175
1036.562	3088.3248	1053.15	171.15
1036.6703	3089.3321	1047.85	165.4
1036.7785	3090.3388	1040.95	160.55
1036.8866	3091.3449	1038.75	157.75
1036.9948	3092.3503	1036.7	152.45
1037.1028	3093.3551	1032.95	153.8
1037.2108	3094.3593	1025.2	145.9
1037.3188	3095.3629	1023.65	144.3
1037.4267	3096.3658	1020.45	136.95
1037.5346	3097.3681	1024	143.15
1037.6425	3098.3698	1020.3	138.7
1037.7503	3099.3708	1015.5	133.9
1037.858	3100.3713	1013.5	133.05
1037.9657	3101.3711	1009.95	127.8
1038.0734	3102.3702	1126.65	129.45
1038.181	3103.3688	1010.75	129.6
1038.2886	3104.3667	1008.95	128.75
1038.3961	3105.364	1005.4	125.4
1038.5036	3106.3607	1005.2	122.2
1038.611	3107.3568	1000.95	118.55
1038.7184	3108.3522	1001.15	122.25
1038.8257	3109.347	996.9	115.65
1038.933	3110.3412	1003.55	118.8
1039.0403	3111.3348	996.55	117.05
1039.1475	3112.3277	993.8	112.9
1039.2547	3113.32	997.7	117.8
1039.3618	3114.3117	993	110.7
1039.4689	3115.3028	991.55	112.3
1039.5759	3116.2932	990.4	108.25
1039.6829	3117.2831	998	112.7
1039.7898	3118.2723	989.95	109.75
1039.8967	3119.2608	987.55	104.95
1040.0035	3120.2488	987.1	107
1040.1103	3121.2361	985.4	102.25
1040.2171	3122.2229	983.85	102.35
1040.3238	3123.209	987.5	106.3
1040.4305	3124.1944	980.65	98.65
1040.5371	3125.1793	985	103.2
1040.6437	3126.1635	981.65	101.9
1040.7502	3127.1471	979.95	101.35
1040.8567	3128.1301	979.3	99.1
1040.9631	3129.1125	976.8	95.6
1041.0695	3130.0942	978.6	98.75
1041.1759	3131.0753	982.15	92.15
1041.2822	3132.0558	976.8	95.6
1041.3884	3133.0357	973.7	91.3
1041.4946	3134.015	979.3	95.8
1041.6008	3134.9936	974.75	93.1
1041.7069	3135.9716	994.05	90.55
1041.813	3136.949	970.1	89.6
1041.919	3137.9258	987.2	87.4
1042.025	3138.902	972.9	86.8
1042.1309	3139.8775	968.35	89.15
1042.2368	3140.8524	967.3	87.15
1042.3427	3141.8267	966.95	83.35
1042.4485	3142.8004	966.95	86.3
1042.5542	3143.7735	968.85	80.05
1042.6599	3144.7459	964.2	80.4
1042.7656	3145.7178	966.7	84.05
1042.8712	3146.689	962.05	82.55
1042.9768	3147.6596	962.1	79.35
1043.0823	3148.6295	958.75	77.6
1043.1878	3149.5989	959.25	80.35
1043.2932	3150.5676	957.6	78.2
1043.3986	3151.5357	954.1	74.45
1043.5039	3152.5032	959.1	79.1
1043.6092	3153.4701	955.15	74.7
1043.7145	3154.4364	955.9	72.6
1043.8197	3155.402	954.8	75.85
1043.9248	3156.367	958.8	75.7
1044.03	3157.3315	997.05	72.8
1044.135	3158.2952	954.85	75.2
1044.24	3159.2584	953.1	72.85
1044.345	3160.221	953	71.25
1044.4499	3161.1829	952	74.1
1044.5548	3162.1442	948	66.65
1044.6596	3163.105	951.1	70
1044.7644	3164.065	949.55	68.55
1044.8692	3165.0245	953.8	70.7
1044.9739	3165.9834	945.95	65.75
1045.0785	3166.9416	947.15	67
1045.1831	3167.8993	948.95	67.3
1045.2877	3168.8563	948.05	67.95
1045.3922	3169.8127	947	66.2
1045.4966	3170.7684	945.45	62.5
1045.6011	3171.7236	945.95	65
1045.7054	3172.6782	948.5	66.95
1045.8098	3173.6321	946.1	64.45
1045.914	3174.5854	947.95	62.05
1046.0183	3175.5381	942.8	63.4
1046.1224	3176.4902	940.95	60.55
1046.2266	3177.4417	944.4	63.75
1046.3307	3178.3926	940.4	62.4
1046.4347	3179.3428	942.3	64.05
1046.5387	3180.2924	941.75	62.25
1046.6427	3181.2415	942.35	62.25
1046.7466	3182.1899	940.65	59.5
1046.8504	3183.1377	940.3	59.3
1046.9542	3184.0848	942	57.2
1047.058	3185.0314	937.7	55.35
1047.1617	3185.9773	942.25	60.2
1047.2654	3186.9227	939.3	56.8
1047.369	3187.8674	936.45	55.5
1047.4726	3188.8115	943.75	57.7
1047.5761	3189.755	938.2	58
1047.6796	3190.6979	931.75	51.65
1047.783	3191.6402	936.05	55.25
1047.8864	3192.5818	938.55	56.4
1047.9898	3193.5229	957.1	55.95
1048.0931	3194.4633	935.05	54.3
1048.1963	3195.4031	935.55	54.75
1048.2995	3196.3423	935.75	54.7
1048.4027	3197.2809	937.55	56.55
1048.5058	3198.2189	934.25	52.85
1048.6089	3199.1563	952.7	53.1
1048.7119	3200.0931	933.55	53.4
1048.8148	3201.0292	934.45	53.6
1048.9178	3201.9648	930.75	48
1049.0206	3202.8997	936.85	53.95
1049.1235	3203.834	933	54
1049.2262	3204.7677	935.05	54.9
1049.329	3205.7008	934.2	50.6
1049.4317	3206.6333	929.55	50.1
1049.5343	3207.5652	933.65	51.1
1049.6369	3208.4964	933.45	53.3
1049.7394	3209.4271	931.95	51.65
1049.8419	3210.3571	933.45	53.7
1049.9444	3211.2865	931.55	49.4
1050.0468	3212.2154	929.55	48.55
1050.1491	3213.1436	933.2	49.8
1050.2514	3214.0712	937.75	49.45
1050.3537	3214.9982	930.5	49.4
1050.4559	3215.9246	929.85	47.65
1050.5581	3216.8503	926.05	47.2
1050.6602	3217.7755	927.45	46.05
1050.7623	3218.7001	925.7	46.55
1050.8643	3219.624	928.7	45.75
1050.9663	3220.5473	928.25	46.35
1051.0682	3221.4701	929.85	48.5
1051.1701	3222.3922	929.7	48.25
1051.2719	3223.3137	928.6	47.9
1051.3737	3224.2346	926.05	45.4
1051.4754	3225.1549	923.55	43.4
1051.5771	3226.0746	924.4	45.45
1051.6788	3226.9937	927	44.85
1051.7804	3227.9121	923.65	43.35
1051.8819	3228.83	927.85	47.5
1051.9834	3229.7473	926.25	45.55
1052.0849	3230.6639	924.2	45
1052.1863	3231.5799	922.8	41
1052.2876	3232.4954	927	47.2
1052.3889	3233.4102	925.65	46.2
1052.4902	3234.3244	929.4	49.45
1052.5914	3235.238	923.9	46
1052.6926	3236.151	946.1	39.5
1052.7937	3237.0634	920.6	41.95
1052.8948	3237.9752	923.8	41.3
1052.9958	3238.8864	924.5	45
1053.0968	3239.797	921.05	41.45
1053.1977	3240.7069	921.3	38.3
1053.2986	3241.6163	923.65	42.45
1053.3994	3242.5251	921.45	41.5
1053.5002	3243.4332	920.55	39.7
1053.6009	3244.3408	918.35	40.35
1053.7016	3245.2477	921.95	42.4
1053.8022	3246.154	921.35	39.55
1053.9028	3247.0598	920.75	39.7
1054.0034	3247.9649	917.9	37.85
1054.1039	3248.8694	919.9	38.85
1054.2043	3249.7733	920.45	39
1054.3047	3250.6766	918.85	37.45
1054.4051	3251.5793	920.1	38.9
1054.5054	3252.4814	918.45	38.5
1054.6056	3253.3829	915.15	36.05
1054.7058	3254.2838	916.85	38.35
1054.806	3255.1841	915.55	35.6
1054.9061	3256.0838	914.5	34.85
1055.0061	3256.9829	916.2	38.55
1055.1062	3257.8814	915.85	33.4
1055.2061	3258.7792	918.4	37.3
1055.306	3259.6765	916.65	35.7
1055.4059	3260.5731	912.6	33.05
1055.5057	3261.4692	916.05	35.6
1055.6055	3262.3647	913.6	31.85
1055.7052	3263.2595	912.15	32.5
1055.8049	3264.1538	911.45	29.75
1055.9045	3265.0474	910.6	29.6
1056.0041	3265.9404	911.6	33.1
1056.1036	3266.8329	910.05	30.1
1056.2031	3267.7247	920.05	31.6
1056.3025	3268.616	910.2	31
1056.4019	3269.5066	906.35	27.2
1056.5013	3270.3966	911.55	31.6
1056.6005	3271.286	905.1	25.9
