Software Version:	3.9.2.0
Unit SN:	10000200
Spectrometer SN:	6960
Date:	3/14/2024 1:14:52 PM
Data Line Index:	25
Spectral Points:	2048
Integration time (ms):	125
Averages:	20
Delay (ms):	30000
Sequence Number:	1
Processing:	dark subtract
Laser Power (mW):	300
Laser Current (mA):	825
Laser Diode Temp (C):	25
Laser Case Temp (C):	28.2
System Temp (C):	28.2
Spectrometer Temp (C):	26.1
CCD Temp (C):	0.002
Secondary Temp (C):	20.008
Heatsink Temp (C):	24.13
CCDPCB Temp (C):	37.607
SecondaryPCB Temp (C):	35.418

Wavelength	RamanShift	Raw Counts	Dark Subtracted
787.061	30.1047	433.65	23.35
787.2016	32.3739	435.6	25.5
787.3422	34.6426	439.05	27.15
787.4828	36.9109	441.65	28.7
787.6235	39.1787	447.1	29.45
787.7642	41.4461	456.15	36.15
787.9049	43.7131	463.6	38.8
788.0456	45.9796	467.35	39.1
788.1863	48.2456	476.7	44.3
788.3271	50.5112	480.8	43.3
788.4679	52.7764	485.85	46.9
788.6087	55.0411	492.4	50.1
788.7496	57.3054	499.8	52.2
788.8904	59.5692	509.6	58.55
789.0313	61.8326	516.65	63.95
789.1722	64.0955	524.25	66.05
789.3132	66.3579	536.7	73.7
789.4541	68.6199	545.45	82.5
789.5951	70.8815	565.25	97.3
789.7361	73.1426	611.3	140.35
789.8771	75.4032	724.75	247.7
790.0181	77.6634	997.85	515.15
790.1592	79.9231	1637.1	1149.15
790.3003	82.1824	2997.85	2501.1
790.4414	84.4412	5435.25	4925.25
790.5825	86.6995	8780.5	8250.9
790.7237	88.9574	12064.55	11521.6
790.8648	91.2148	14360.15	13806.05
791.006	93.4717	15448.35	14886.35
791.1472	95.7282	15654.65	15088.05
791.2885	97.9842	15526.65	14955.4
791.4297	100.2398	15158.5	14586.55
791.571	102.4949	14763.6	14186.1
791.7123	104.7495	14304.35	13725.9
791.8536	107.0036	13804	13223.6
791.9949	109.2573	13389.6	12812.25
792.1363	111.5105	13007.3	12423.35
792.2777	113.7632	12656.25	12073.65
792.4191	116.0154	12372.75	11780.4
792.5605	118.2672	12194.65	11609.65
792.7019	120.5185	11976.5	11387.8
792.8434	122.7693	11819.1	11229.05
792.9849	125.0197	11713.1	11120
793.1264	127.2696	11539.45	10944.05
793.2679	129.519	11479.2	10878.4
793.4094	131.7679	11316.35	10718.8
793.551	134.0163	11205	10599.35
793.6926	136.2642	11026.6	10418.25
793.8342	138.5117	10844.8	10225.15
793.9758	140.7587	10646.85	10034.4
794.1175	143.0052	10503.95	9888.95
794.2591	145.2512	10281.35	9665.25
794.4008	147.4967	10123	9509.55
794.5425	149.7417	10031.95	9412.2
794.6842	151.9863	9937.65	9312.05
794.826	154.2304	9891.9	9267.9
794.9677	156.4739	9807.15	9174.95
795.1095	158.717	9733.2	9105.2
795.2513	160.9596	9647.15	9011.9
795.3931	163.2017	9518.75	8881.45
795.535	165.4433	9375.3	8737.9
795.6768	167.6844	9197.8	8557.45
795.8187	169.925	9075.75	8431.7
795.9606	172.1651	8880.15	8235.6
796.1025	174.4047	8750.05	8098.2
796.2445	176.6439	8611.8	7958.4
796.3864	178.8825	8492.4	7837.05
796.5284	181.1206	8430.95	7772.2
796.6704	183.3582	8369.35	7705.8
796.8124	185.5954	8327.6	7662.95
796.9544	187.832	8278.55	7612.4
797.0965	190.0681	8252.3	7584.45
797.2386	192.3037	8250.2	7577.95
797.3806	194.5388	8235.1	7559.3
797.5228	196.7734	8263.1	7586.35
797.6649	199.0075	8296.4	7616.4
797.807	201.2411	8351.15	7667.1
797.9492	203.4742	8379.9	7693.85
798.0914	205.7068	8475.2	7789.3
798.2336	207.9389	8522.75	7836.55
798.3758	210.1704	8592.85	7905.4
798.518	212.4015	8625.2	7933.1
798.6603	214.632	8711.6	8016.15
798.8025	216.862	8751	8066
798.9448	219.0915	8776.3	8099.55
799.0871	221.3205	8838.1	8162.35
799.2294	223.549	8878.25	8208.85
799.3718	225.777	8911	8242.15
799.5141	228.0044	8965.75	8293
799.6565	230.2314	9034.85	8361.85
799.7989	232.4578	9086.6	8413.45
799.9413	234.6837	9160.9	8482.75
800.0837	236.909	9189.85	8510.35
800.2262	239.1339	9201.35	8498.9
800.3687	241.3582	9153.2	8460.55
800.5111	243.582	9117	8403.85
800.6536	245.8053	9071.95	8361
800.7961	248.0281	9020.25	8315.1
800.9387	250.2503	9016.1	8306.9
801.0812	252.472	9026.5	8314.4
801.2238	254.6932	9079.5	8364.65
801.3664	256.9139	9100.4	8381.9
801.509	259.134	9200.9	8479.15
801.6516	261.3536	9311.1	8592.4
801.7942	263.5727	9445.6	8724.8
801.9369	265.7912	9582.15	8863.4
802.0795	268.0092	9748.25	9027.8
802.2222	270.2267	9852.55	9130.95
802.3649	272.4436	9899.55	9176.3
802.5076	274.6601	9896.75	9164.95
802.6504	276.8759	9832.45	9104.7
802.7931	279.0913	9794.25	9068.85
802.9359	281.3061	9733.05	9005.1
803.0787	283.5204	9716.9	8986.45
803.2215	285.7341	9683.5	8948.6
803.3643	287.9473	9697.9	8959.8
803.5071	290.16	9715.15	8971.5
803.6499	292.3721	9777.5	9038.65
803.7928	294.5837	9848.1	9108
803.9357	296.7947	9961.55	9225.95
804.0786	299.0052	10041.85	9303.75
804.2215	301.2152	10033.7	9293.8
804.3644	303.4246	9940.45	9201.2
804.5074	305.6334	9778.7	9040.65
804.6503	307.8418	9557.8	8814.05
804.7933	310.0495	9341.55	8598.65
804.9363	312.2568	9130.95	8391.45
805.0793	314.4635	8927.35	8184.45
805.2223	316.6696	8774.65	8030.3
805.3653	318.8752	8659.1	7903.2
805.5084	321.0802	8631.5	7889.4
805.6514	323.2847	8603.05	7852.55
805.7945	325.4887	8646.85	7899.25
805.9376	327.692	8627.75	7880.3
806.0807	329.8949	8619.85	7872
806.2238	332.0972	8535.7	7786.4
806.367	334.2989	8425	7669.75
806.5101	336.5001	8293.85	7539.25
806.6533	338.7007	8187.95	7433.7
806.7965	340.9008	8119.3	7362
806.9397	343.1003	8016.5	7257.1
807.0829	345.2992	7971.25	7209.9
807.2261	347.4976	7901.9	7139.5
807.3693	349.6955	7864	7098.2
807.5126	351.8927	7866.9	7103.55
807.6559	354.0895	7793.85	7021.75
807.7991	356.2856	7787.1	7022.4
807.9424	358.4812	7755.4	6988.4
808.0857	360.6763	7749.3	6981.5
808.2291	362.8707	7742	6974.15
808.3724	365.0646	7768.75	6996
808.5158	367.258	7773.6	7001.9
808.6591	369.4508	7804.9	7027.3
808.8025	371.643	7860.45	7082.4
808.9459	373.8346	7887.7	7108.1
809.0893	376.0257	7930.55	7147.45
809.2327	378.2162	7946.05	7164.05
809.3762	380.4062	7912.4	7129
809.5196	382.5956	7893.95	7108.45
809.6631	384.7844	7833.65	7050.05
809.8066	386.9726	7744.95	6957.4
809.9501	389.1603	7681.55	6897.45
810.0936	391.3474	7694.7	6875.3
810.2371	393.5339	7649.6	6865
810.3806	395.7199	7606.45	6825.75
810.5241	397.9052	7609.95	6829.95
810.6677	400.09	7650.55	6873.3
810.8113	402.2743	7726.9	6948.2
810.9548	404.4579	7796.85	7020.15
811.0984	406.641	7894.7	7118.85
811.2421	408.8235	7991.65	7213.65
811.3857	411.0054	8070.65	7288.4
811.5293	413.1868	8215.2	7433.1
811.673	415.3675	8251.4	7464.9
811.8166	417.5477	8251.15	7466.2
811.9603	419.7273	8195.4	7407.65
812.104	421.9064	8096.9	7303.3
812.2477	424.0848	8068.4	7276.4
812.3914	426.2627	7972.5	7177.85
812.5351	428.4399	7864.4	7067.5
812.6788	430.6166	7699.25	6900.25
812.8226	432.7928	7547.45	6745.05
812.9663	434.9683	7367.35	6566.3
813.1101	437.1432	7281	6478.3
813.2539	439.3176	7175.65	6370.4
813.3977	441.4914	7085.4	6282.9
813.5415	443.6645	7091.8	6286.2
813.6853	445.8371	7057.7	6254.4
813.8291	448.0091	7029.2	6223.45
813.973	450.1806	7009.55	6205.1
814.1168	452.3514	7000.6	6192.3
814.2607	454.5216	6998.1	6180.45
814.4046	456.6913	6992.1	6183.7
814.5485	458.8603	7014.05	6208.85
814.6924	461.0288	7008.9	6200.1
814.8363	463.1967	7012	6203.35
814.9802	465.3639	7026.25	6215.25
815.1241	467.5306	7007.35	6200.4
815.2681	469.6967	7001.75	6190.45
815.412	471.8622	7038.35	6227.2
815.556	474.0271	7032.6	6224
815.7	476.1914	7054.85	6241
815.844	478.3551	7060.75	6249.7
815.988	480.5182	7077.2	6263.2
816.132	482.6807	7117	6303.3
816.276	484.8426	7223.05	6409.5
816.4201	487.0039	7346.25	6528.95
816.5641	489.1647	7543.55	6728.95
816.7082	491.3248	7700.55	6883.9
816.8522	493.4843	7762.4	6946.05
816.9963	495.6432	7720.6	6906
817.1404	497.8015	7627.05	6805.4
817.2845	499.9592	7561.65	6748.55
817.4286	502.1163	7461.7	6647
817.5727	504.2728	7300.2	6478.8
817.7168	506.4287	7162.55	6342.5
817.861	508.5839	7022.25	6202.05
818.0051	510.7386	6918.65	6099.4
818.1493	512.8927	6851.95	6024.15
818.2935	515.0461	6845.55	6025.5
818.4377	517.199	6884.45	6062.9
818.5818	519.3512	6966.2	6143
818.726	521.5029	7104.3	6276.05
818.8703	523.6539	7226.75	6404.65
819.0145	525.8043	7274.6	6451.15
819.1587	527.9541	7228.75	6404.05
819.303	530.1033	7108.2	6283.55
819.4472	532.2519	7039.5	6212.85
819.5915	534.3999	6996	6165.9
819.7357	536.5472	7028.5	6202.2
819.88	538.694	7130.45	6303.55
820.0243	540.8401	7267.7	6441.25
820.1686	542.9856	7381.35	6552.5
820.3129	545.1305	7390.95	6561.1
820.4572	547.2748	7326.3	6497.8
820.6016	549.4185	7227.65	6399.6
820.7459	551.5615	7166.9	6340.15
820.8902	553.704	7164.05	6334.9
821.0346	555.8458	7199.4	6369.35
821.1789	557.987	7273	6445.75
821.3233	560.1276	7380.75	6550.2
821.4677	562.2675	7568.8	6741.7
821.6121	564.4069	7797.75	6967.15
821.7565	566.5456	8019.9	7191.25
821.9009	568.6837	8089.55	7258.65
822.0453	570.8212	7887.8	7057.6
822.1897	572.958	7577.95	6745.65
822.3342	575.0942	7250.35	6417.8
822.4786	577.2299	7019.55	6189.6
822.6231	579.3648	6911	6078.95
822.7675	581.4992	6886.05	6051.6
822.912	583.6329	6938.55	6103.2
823.0565	585.766	6985.95	6152.25
823.201	587.8985	7066.65	6234.55
823.3454	590.0304	7084.65	6226.35
823.4899	592.1616	7057.4	6221.55
823.6345	594.2922	6994.9	6160.65
823.779	596.4222	6909.85	6074.3
823.9235	598.5515	6801.95	5965.4
824.068	600.6802	6701.2	5868.05
824.2126	602.8083	6616.45	5780.4
824.3571	604.9358	6619.8	5782.85
824.5017	607.0626	6611.6	5771.7
824.6462	609.1888	6666.65	5828.4
824.7908	611.3144	6726.25	5886.3
824.9354	613.4393	6796.4	5957.05
825.08	615.5636	6833.45	5995.95
825.2246	617.6873	6846.7	6006.55
825.3692	619.8103	6815.65	5974.75
825.5138	621.9327	6739.15	5895.45
825.6584	624.0544	6632	5793.7
825.803	626.1756	6543.3	5704.05
825.9477	628.2961	6448.15	5608.4
826.0923	630.4159	6401.75	5563.2
826.237	632.5351	6403.5	5562.1
826.3816	634.6537	6393.25	5550.35
826.5263	636.7716	6381.1	5537.65
826.6709	638.8889	6373.85	5530.55
826.8156	641.0056	6389.6	5546.95
826.9603	643.1216	6372.55	5528.75
827.105	645.237	6361.95	5517.4
827.2497	647.3518	6306.55	5464
827.3944	649.4659	6276.4	5433.6
827.5391	651.5793	6232.55	5388.4
827.6838	653.6922	6229.75	5385.7
827.8285	655.8043	6203.85	5360.7
827.9733	657.9159	6221.75	5374.9
828.118	660.0268	6202.8	5351.8
828.2627	662.137	6182.2	5337.75
828.4075	664.2466	6199.9	5349.85
828.5522	666.3556	6194.2	5347.5
828.697	668.4639	6158.25	5307.25
828.8418	670.5716	6149.35	5303.25
828.9865	672.6786	6111.45	5262.95
829.1313	674.785	6097.65	5246.5
829.2761	676.8907	6077.1	5230.05
829.4209	678.9958	6071.2	5224.7
829.5657	681.1002	6053.55	5203.75
829.7105	683.204	6040.85	5187.5
829.8553	685.3072	6027.15	5177.7
830.0001	687.4097	5993.9	5144.8
830.1449	689.5115	5996.35	5145.65
830.2898	691.6127	5999.55	5149.95
830.4346	693.7132	5983.35	5133.3
830.5794	695.8131	5994.6	5136
830.7243	697.9123	6014.3	5159.95
830.8691	700.0109	6006.45	5154.35
831.014	702.1089	6042.15	5189.8
831.1588	704.2061	6044.4	5192.45
831.3037	706.3028	6081.65	5227.5
831.4486	708.3987	6103.45	5250.45
831.5935	710.4941	6098.7	5246.3
831.7383	712.5887	6110.8	5256.95
831.8832	714.6827	6158.2	5300.45
832.0281	716.7761	6223.2	5369.25
832.173	718.8688	6300	5444.75
832.3179	720.9608	6365	5505.7
832.4628	723.0522	6420.7	5562.25
832.6077	725.1429	6459.1	5605.7
832.7527	727.233	6483.6	5628.4
832.8976	729.3224	6509.65	5653.9
833.0425	731.4112	6478.5	5622.65
833.1874	733.4993	6408.8	5549.5
833.3324	735.5867	6297.1	5438
833.4773	737.6735	6179.6	5321.55
833.6222	739.7596	6074.75	5218.1
833.7672	741.845	6008.85	5149.9
833.9122	743.9298	5971	5109.95
834.0571	746.014	5950.45	5092.4
834.2021	748.0974	5971.8	5114.55
834.347	750.1802	5944.85	5086.5
834.492	752.2624	5940.35	5081.2
834.637	754.3439	5957.15	5096.4
834.782	756.4247	6000.6	5131.8
834.9269	758.5048	6069.45	5211.05
835.0719	760.5843	6219.95	5361.5
835.2169	762.6631	6397.7	5537.75
835.3619	764.7413	6659	5798.5
835.5069	766.8188	6989.65	6128.5
835.6519	768.8956	7294.35	6431.7
835.7969	770.9718	7465.65	6605.7
835.9419	773.0473	7478.35	6619.9
836.0869	775.1221	7334.85	6475.2
836.232	777.1962	7215.15	6354.15
836.377	779.2697	7161.1	6299.85
836.522	781.3426	7207.85	6337.7
836.667	783.4147	7266.45	6402.6
836.8121	785.4862	7283.15	6424.45
836.9571	787.557	7170.15	6309.2
837.1021	789.6271	6941.55	6080.15
837.2472	791.6966	6616.15	5754.65
837.3922	793.7654	6299.9	5437.3
837.5373	795.8335	6106.7	5244.65
837.6823	797.901	5952.55	5090.7
837.8274	799.9678	5862.3	4997
837.9724	802.0339	5825.45	4962.55
838.1175	804.0993	5812.35	4939.75
838.2626	806.1641	5764.75	4901.45
838.4076	808.2282	5718.25	4856.5
838.5527	810.2916	5680.1	4812.35
838.6978	812.3544	5646.65	4783.6
838.8428	814.4164	5614.7	4753.5
838.9879	816.4778	5630.6	4767.35
839.133	818.5385	5652.2	4789.35
839.2781	820.5986	5704.7	4843.05
839.4232	822.658	5849	4983.05
839.5682	824.7166	5990.4	5127.4
839.7133	826.7747	6235.05	5374.5
839.8584	828.832	6476.5	5613.55
840.0035	830.8886	6687.4	5819.95
840.1486	832.9446	6765.15	5900.4
840.2937	834.9999	6718.15	5855.5
840.4388	837.0545	6562.95	5696.55
840.5839	839.1085	6389.7	5523.7
840.729	841.1618	6213.4	5343.55
840.8741	843.2143	6062.25	5196.15
841.0192	845.2662	5977.25	5113.8
841.1643	847.3175	5912.1	5049.35
841.3095	849.368	5846.2	4977.8
841.4546	851.4179	5802.45	4939
841.5997	853.467	5757	4891.4
841.7448	855.5155	5744.85	4880.3
841.8899	857.5633	5686.5	4822.4
842.0351	859.6105	5646	4780.4
842.1802	861.6569	5609.35	4741.85
842.3253	863.7027	5557.75	4690.45
842.4704	865.7478	5518.2	4650.8
842.6156	867.7922	5488.85	4622.7
842.7607	869.8359	5475.65	4606.45
842.9058	871.8789	5486.3	4618.1
843.0509	873.9212	5544.75	4642.35
843.1961	875.9629	5573.3	4704.2
843.3412	878.0039	5622.65	4753.25
843.4863	880.0441	5649.6	4782.65
843.6315	882.0837	5672.75	4803.05
843.7766	884.1226	5713.05	4844.35
843.9218	886.1609	5720.75	4853.4
844.0669	888.1984	5790.55	4923.45
844.212	890.2352	5842.15	4976.25
844.3572	892.2714	5838.55	4967.75
844.5023	894.3069	5812.25	4943.35
844.6475	896.3416	5734.55	4865.7
844.7926	898.3757	5650.65	4783.75
844.9377	900.4091	5617.05	4747.7
845.0829	902.4418	5605.3	4728.95
845.228	904.4739	5607.45	4737.7
845.3732	906.5052	5639.65	4770.55
845.5183	908.5358	5636.25	4768.7
845.6635	910.5658	5578.7	4706.85
845.8086	912.595	5446.85	4578.3
845.9538	914.6236	5347	4478
846.0989	916.6515	5283.05	4414.2
846.2441	918.6786	5231.2	4362.3
846.3892	920.7051	5217.2	4348.05
846.5344	922.7309	5241.05	4371.95
846.6795	924.756	5234.55	4364.15
846.8246	926.7804	5271.35	4398.4
846.9698	928.8041	5265.45	4390.55
847.1149	930.8272	5279.95	4408.8
847.2601	932.8495	5287.15	4413.4
847.4052	934.8711	5286.45	4414.9
847.5504	936.892	5244.55	4375.55
847.6955	938.9123	5248.45	4375.9
847.8407	940.9318	5245.15	4373.95
847.9858	942.9506	5251.6	4377.8
848.131	944.9688	5234.8	4364.4
848.2761	946.9862	5169.35	4295.4
848.4213	949.003	5090.15	4216.35
848.5664	951.019	5045.7	4173.15
848.7115	953.0344	5009.35	4136.55
848.8567	955.0491	5006.05	4133.8
849.0018	957.063	5021.2	4148.9
849.147	959.0763	5043.75	4171.65
849.2921	961.0888	5054.1	4182.5
849.4373	963.1007	5086.05	4212.2
849.5824	965.1119	5086.1	4214.45
849.7275	967.1223	5085.9	4212.1
849.8727	969.1321	5076.1	4203.05
850.0178	971.1412	5063.45	4190
850.1629	973.1495	5063.7	4190.85
850.3081	975.1572	5086.9	4181.45
850.4532	977.1641	5062.8	4192.2
850.5983	979.1704	5032.75	4159.65
850.7435	981.1759	5025.55	4148.65
850.8886	983.1808	5036.15	4161.6
851.0337	985.1849	5046.65	4161
851.1788	987.1884	5067.15	4190.55
851.324	989.1911	5117.95	4239.55
851.4691	991.1932	5145.45	4267.75
851.6142	993.1945	5174.3	4299.15
851.7593	995.1951	5151.2	4277.85
851.9045	997.1951	5130.75	4250
852.0496	999.1943	5107.9	4235.6
852.1947	1001.1928	5098.75	4222.75
852.3398	1003.1906	5122.35	4247.3
852.4849	1005.1877	5181.35	4307.85
852.63	1007.1841	5223.7	4349.9
852.7751	1009.1798	5222.6	4349.75
852.9202	1011.1748	5177.75	4303.75
853.0653	1013.1691	5108.25	4233.3
853.2104	1015.1627	5019.45	4143.1
853.3555	1017.1556	4897.55	4024.4
853.5006	1019.1477	4847.35	3971.3
853.6457	1021.1392	4791.15	3920.45
853.7908	1023.1299	4775.8	3899.9
853.9359	1025.12	4777.15	3900.2
854.081	1027.1093	4802.25	3926.8
854.2261	1029.0979	4871.85	3999.1
854.3712	1031.0859	4894.05	4016.75
854.5163	1033.0731	4936.35	4059.45
854.6613	1035.0596	4899.65	4027.7
854.8064	1037.0454	4843.3	3968.5
854.9515	1039.0304	4792.3	3917.2
855.0965	1041.0148	4719.25	3845.6
855.2416	1042.9985	4665.8	3789.5
855.3867	1044.9814	4644.65	3771.8
855.5317	1046.9636	4616.35	3739.8
855.6768	1048.9452	4610.9	3735.7
855.8219	1050.926	4628.1	3752.5
855.9669	1052.9061	4655.65	3783.7
856.112	1054.8855	4656.25	3782.15
856.257	1056.8642	4691.6	3816.75
856.4021	1058.8421	4688.95	3810.1
856.5471	1060.8194	4707.7	3832.4
856.6921	1062.7959	4708.8	3831.7
856.8372	1064.7717	4761.15	3884.5
856.9822	1066.7469	4784.05	3907.5
857.1272	1068.7213	4818.75	3939.15
857.2723	1070.695	4855.2	3980.15
857.4173	1072.6679	4869.25	3992.45
857.5623	1074.6402	4890.5	4013.65
857.7073	1076.6117	4875.9	3993.9
857.8523	1078.5826	4824.75	3948.8
857.9973	1080.5527	4758.4	3879.6
858.1423	1082.5221	4708.4	3831.55
858.2873	1084.4908	4678.35	3801.9
858.4323	1086.4587	4665.1	3788.1
858.5773	1088.426	4707.45	3830.55
858.7223	1090.3925	4710.85	3829.15
858.8673	1092.3584	4711.9	3839.8
859.0123	1094.3235	4724.95	3851.05
859.1573	1096.2879	4762.25	3883.5
859.3022	1098.2515	4818	3940.35
859.4472	1100.2145	4912.85	4036.6
859.5922	1102.1767	4980.05	4099.65
859.7371	1104.1382	5100.75	4223.6
859.8821	1106.099	5231.6	4352.45
860.027	1108.0591	5344.65	4467.55
860.172	1110.0185	5426.45	4549.65
860.3169	1111.9771	5454.6	4576.7
860.4619	1113.9351	5404.85	4525.95
860.6068	1115.8923	5348.9	4469.8
860.7517	1117.8488	5301.1	4422.85
860.8967	1119.8045	5178.75	4300.1
861.0416	1121.7596	5105.1	4229.95
861.1865	1123.7139	5049.75	4173.3
861.3314	1125.6675	5002.15	4123
861.4763	1127.6204	5017.55	4140.4
861.6212	1129.5726	5001.6	4122.15
861.7661	1131.524	4962.35	4087.25
861.911	1133.4748	4912.45	4033.45
862.0559	1135.4248	4802.75	3924.65
862.2008	1137.3741	4727	3848.65
862.3457	1139.3226	4660.95	3781.65
862.4905	1141.2705	4615.05	3738.55
862.6354	1143.2176	4598.6	3712.6
862.7803	1145.164	4569.9	3688.75
862.9251	1147.1097	4537.95	3657.85
863.07	1149.0546	4477.55	3594.9
863.2148	1150.9989	4419.25	3541.6
863.3597	1152.9424	4383.6	3502.55
863.5045	1154.8852	4324.75	3444.65
863.6493	1156.8272	4299.9	3419.95
863.7942	1158.7686	4317.45	3431.4
863.939	1160.7092	4321.7	3442.6
864.0838	1162.6491	4321.65	3441.25
864.2286	1164.5883	4392.8	3514.65
864.3734	1166.5267	4442.35	3563.7
864.5182	1168.4644	4524.6	3647.45
864.663	1170.4014	4624.7	3742.35
864.8078	1172.3377	4754	3876.65
864.9526	1174.2732	4886.9	4008.1
865.0974	1176.2081	5111.75	4232.3
865.2421	1178.1421	5342	4458.65
865.3869	1180.0755	5625.35	4749.25
865.5317	1182.0082	5813.25	4935.4
865.6764	1183.9401	5875.05	4994.85
865.8212	1185.8713	5814.4	4936.95
865.9659	1187.8017	5625.95	4747.7
866.1106	1189.7315	5427.4	4549.6
866.2554	1191.6605	5237.1	4328.1
866.4001	1193.5888	5072.15	4192.15
866.5448	1195.5163	4973.55	4094.85
866.6895	1197.4432	4936.45	4055.45
866.8342	1199.3693	4889.55	4009.15
866.9789	1201.2947	4870.95	3985.3
867.1236	1203.2193	4855.85	3976
867.2683	1205.1432	4849.2	3970.6
867.413	1207.0664	4841.4	3963.1
867.5576	1208.9889	4844.1	3960.7
867.7023	1210.9106	4828.25	3949.75
867.847	1212.8316	4825.1	3945.85
867.9916	1214.7519	4858.8	3968.65
868.1363	1216.6715	4872	3994.3
868.2809	1218.5903	4897.4	4018.8
868.4255	1220.5084	4948.1	4071.6
868.5701	1222.4257	5004.7	4124.2
868.7148	1224.3424	5014.75	4137.2
868.8594	1226.2583	5096.65	4212.6
869.004	1228.1735	5163.2	4283.9
869.1486	1230.0879	5260	4380.4
869.2932	1232.0016	5340.6	4460.05
869.4377	1233.9146	5411.35	4527.95
869.5823	1235.8269	5427.4	4548.6
869.7269	1237.7384	5399.45	4518.7
869.8715	1239.6492	5334.05	4454.75
870.016	1241.5592	5325.5	4445.55
870.1606	1243.4686	5346.8	4467.7
870.3051	1245.3772	5451.8	4572.6
870.4496	1247.285	5549.55	4669.75
870.5941	1249.1922	5656.5	4776.85
870.7387	1251.0986	5751.55	4873.95
870.8832	1253.0042	5788.4	4907.65
871.0277	1254.9092	5880.9	4999.7
871.1722	1256.8134	5909.6	5030.4
871.3167	1258.7169	5993.45	5111.65
871.4611	1260.6196	6052.1	5172.8
871.6056	1262.5216	6172.8	5290.3
871.7501	1264.4229	6270.8	5393.05
871.8945	1266.3234	6356	5476.6
872.039	1268.2232	6411.3	5530.4
872.1834	1270.1223	6458.85	5575.35
872.3278	1272.0207	6477.15	5596.85
872.4723	1273.9183	6450.85	5565.15
872.6167	1275.8151	6417.6	5539.6
872.7611	1277.7113	6415.9	5532.95
872.9055	1279.6067	6455.45	5575.7
873.0499	1281.5014	6603.25	5722.25
873.1943	1283.3953	6833.7	5950.1
873.3386	1285.2885	7080.55	6202.4
873.483	1287.181	7396.15	6517.3
873.6274	1289.0727	7654.55	6774.1
873.7717	1290.9637	7847.85	6966.6
873.9161	1292.854	7952.65	7071.65
874.0604	1294.7435	7956.85	7076.35
874.2047	1296.6323	7892.2	7012.15
874.349	1298.5204	7762.7	6877.95
874.4933	1300.4077	7645.45	6764.45
874.6376	1302.2943	7501.05	6620.95
874.7819	1304.1802	7315.55	6435.05
874.9262	1306.0653	7074.5	6191.05
875.0705	1307.9497	6817.8	5937.35
875.2147	1309.8333	6582.7	5702.6
875.359	1311.7162	6420.95	5540.4
875.5032	1313.5984	6297.7	5412.4
875.6475	1315.4798	6264.7	5372.85
875.7917	1317.3605	6230.3	5334.95
875.9359	1319.2405	6158.3	5277.25
876.0801	1321.1197	6020.05	5137.65
876.2243	1322.9982	5883.6	4998.8
876.3685	1324.876	5722.4	4842.35
876.5127	1326.753	5560.65	4677.7
876.6569	1328.6293	5428.5	4545.8
876.801	1330.5048	5349.9	4466.5
876.9452	1332.3796	5258	4375.65
877.0893	1334.2537	5220.15	4310.5
877.2335	1336.127	5163.8	4281.7
877.3776	1337.9996	5133.55	4252.15
877.5217	1339.8714	5126.6	4244.35
877.6658	1341.7426	5155.4	4231.1
877.8099	1343.6129	5127.05	4245.1
877.954	1345.4826	5136.25	4254.05
878.0981	1347.3515	5103.2	4219.9
878.2422	1349.2196	5114.85	4232.1
878.3862	1351.087	5130.3	4248
878.5303	1352.9537	5171.45	4289.9
878.6743	1354.8197	5216.9	4335.1
878.8184	1356.6849	5291.9	4409.7
878.9624	1358.5493	5366.85	4486.5
879.1064	1360.4131	5450.9	4568.85
879.2504	1362.276	5545.9	4668.15
879.3944	1364.1383	5556.1	4672.9
879.5384	1365.9998	5486.45	4598.5
879.6823	1367.8606	5328.15	4447.6
879.8263	1369.7206	5158.3	4277.8
879.9702	1371.5799	4998.75	4113.75
880.1142	1373.4384	4865.35	3983.1
880.2581	1375.2962	4740.65	3856.5
880.402	1377.1533	4579.8	3698
880.5459	1379.0096	4408.15	3523
880.6898	1380.8652	4253.6	3371.2
880.8337	1382.7201	4111.95	3230.35
880.9776	1384.5742	3988.9	3106.55
881.1215	1386.4275	3907	3025
881.2653	1388.2802	3833.05	2952.65
881.4092	1390.132	3782.9	2900.2
881.553	1391.9832	3729.45	2846.85
881.6968	1393.8336	3702.7	2818.95
881.8406	1395.6832	3695.5	2812.6
881.9844	1397.5322	3666.8	2784.25
882.1282	1399.3803	3644.6	2758.05
882.272	1401.2278	3626.15	2743.15
882.4158	1403.0745	3618.5	2736.6
882.5595	1404.9204	3604.1	2722.2
882.7033	1406.7656	3630.45	2748.4
882.847	1408.6101	3654.95	2771.3
882.9908	1410.4538	3655.15	2774.9
883.1345	1412.2968	3670.55	2788.45
883.2782	1414.139	3697.45	2817.65
883.4219	1415.9805	3720.6	2839.9
883.5656	1417.8213	3768.1	2877.5
883.7092	1419.6613	3824.3	2944.05
883.8529	1421.5006	3902.3	3018.45
883.9965	1423.3391	4009.25	3126.5
884.1402	1425.1769	4147.55	3265.1
884.2838	1427.0139	4355.05	3474.25
884.4274	1428.8502	4627.45	3744.5
884.571	1430.6858	4871.2	3987.8
884.7146	1432.5206	5072.6	4192.05
884.8582	1434.3547	5169.8	4285.5
885.0018	1436.188	5170.6	4288.9
885.1453	1438.0206	5116.4	4234.45
885.2889	1439.8524	5036.65	4155.8
885.4324	1441.6835	4988.25	4104.85
885.5759	1443.5139	4932.85	4047.6
885.7194	1445.3435	4909.95	4027.55
885.8629	1447.1724	4907.05	4026.95
886.0064	1449.0005	4875.85	3995.35
886.1499	1450.8279	4852.05	3968.4
886.2933	1452.6545	4834.65	3953.95
886.4368	1454.4804	4849.2	3969.05
886.5802	1456.3056	4851.5	3962.85
886.7237	1458.13	4829.65	3948
886.8671	1459.9536	4766.1	3883.7
887.0105	1461.7766	4617.25	3736.1
887.1539	1463.5987	4451.15	3566.45
887.2972	1465.4202	4288.75	3406.9
887.4406	1467.2409	4132.35	3248.55
887.584	1469.0608	4003.95	3122.2
887.7273	1470.88	3877.3	2992.65
887.8706	1472.6984	3770.35	2886.95
888.0139	1474.5161	3664.25	2777.05
888.1572	1476.3331	3602.15	2720.15
888.3005	1478.1493	3545.45	2662.25
888.4438	1479.9648	3509.65	2627.1
888.5871	1481.7795	3465.9	2581.6
888.7303	1483.5935	3435.85	2555.8
888.8736	1485.4067	3426.95	2542.75
889.0168	1487.2192	3396.45	2513.95
889.16	1489.031	3396.6	2513.2
889.3032	1490.842	3361.1	2476.7
889.4464	1492.6522	3338.6	2457.4
889.5896	1494.4618	3339.8	2456.45
889.7327	1496.2705	3312.35	2430.55
889.8759	1498.0785	3311.5	2426.55
890.019	1499.8858	3283.65	2399.65
890.1622	1501.6924	3263.2	2380.95
890.3053	1503.4981	3236.45	2355.65
890.4484	1505.3032	3222	2340.2
890.5914	1507.1075	3195.1	2313.15
890.7345	1508.911	3195.1	2312.45
890.8776	1510.7138	3159	2277.45
891.0206	1512.5159	3153.55	2273.15
891.1637	1514.3172	3126.85	2246.25
891.3067	1516.1178	3110.75	2227.1
891.4497	1517.9176	3101.95	2216.65
891.5927	1519.7166	3084.25	2201.3
891.7357	1521.515	3075.7	2186.7
891.8786	1523.3126	3056.3	2173.2
892.0216	1525.1094	3052.1	2167.05
892.1645	1526.9055	3039.8	2158.5
892.3074	1528.7008	3028.65	2146.15
892.4503	1530.4954	3024.15	2136.05
892.5932	1532.2893	3001.95	2119.7
892.7361	1534.0824	3004.95	2116.35
892.879	1535.8747	3003.5	2119.85
893.0218	1537.6663	2998.3	2115.1
893.1647	1539.4572	2991.9	2107
893.3075	1541.2473	3005.2	2122.05
893.4503	1543.0367	3008.3	2126.3
893.5931	1544.8253	2998.8	2111.75
893.7359	1546.6132	3023.5	2139.05
893.8787	1548.4003	3035.4	2142.55
894.0214	1550.1867	3060.65	2169.9
894.1642	1551.9723	3095.75	2208.15
894.3069	1553.7572	3122.3	2239.45
894.4496	1555.5414	3185	2302.45
894.5923	1557.3247	3261.85	2376.7
894.735	1559.1074	3331.95	2450.95
894.8777	1560.8893	3414.5	2533.9
895.0204	1562.6705	3517.2	2635.2
895.163	1564.4509	3577.3	2693.9
895.3056	1566.2305	3620.3	2740.35
895.4482	1568.0094	3642.35	2761.05
895.5908	1569.7876	3636.1	2753.85
895.7334	1571.565	3630.05	2747.85
895.876	1573.3417	3626.6	2747.6
896.0186	1575.1176	3619.95	2736.55
896.1611	1576.8928	3637.95	2753.6
896.3036	1578.6672	3635.45	2753.85
896.4461	1580.4409	3645.9	2765.05
896.5886	1582.2138	3676.7	2791.25
896.7311	1583.986	3705.1	2820.55
896.8736	1585.7575	3766.7	2885.75
897.0161	1587.5282	3803.55	2922.95
897.1585	1589.2981	3854.6	2973.75
897.3009	1591.0673	3900.65	3016.35
897.4433	1592.8358	3952.3	3071.55
897.5857	1594.6035	4012.85	3129.1
897.7281	1596.3704	4066.2	3182.7
897.8705	1598.1366	4102.55	3218.5
898.0128	1599.9021	4139.45	3256
898.1551	1601.6668	4162.9	3277.3
898.2975	1603.4308	4229.85	3347.65
898.4398	1605.194	4315.65	3427.15
898.5821	1606.9564	4401.3	3517.85
898.7243	1608.7182	4539.95	3653.05
898.8666	1610.4791	4690.7	3809.55
899.0088	1612.2394	4873.3	3990.7
899.1511	1613.9988	5024.45	4140.8
899.2933	1615.7576	5190.05	4307.8
899.4355	1617.5156	5303.95	4416.65
899.5776	1619.2728	5327.75	4446.65
899.7198	1621.0293	5283.05	4402.8
899.862	1622.785	5171.4	4284.5
900.0041	1624.54	5004.2	4121.85
900.1462	1626.2942	4810.9	3929.5
900.2883	1628.0477	4595.15	3709.55
900.4304	1629.8005	4392.1	3507.6
900.5725	1631.5525	4232.25	3349.8
900.7145	1633.3037	4076.2	3193.9
900.8566	1635.0542	3967.9	3085.5
900.9986	1636.804	3867.85	2985.5
901.1406	1638.553	3839.8	2908.1
901.2826	1640.3013	3743.8	2860.8
901.4245	1642.0488	3724	2840.7
901.5665	1643.7955	3741.25	2860.7
901.7085	1645.5416	3772.5	2888.75
901.8504	1647.2868	3799.1	2917.45
901.9923	1649.0313	3839.85	2958.5
902.1342	1650.7751	3917.3	3031.65
902.2761	1652.5181	3968.4	3086
902.4179	1654.2604	4044.1	3160.45
902.5598	1656.0019	4144.25	3265
902.7016	1657.7427	4260.2	3378.75
902.8434	1659.4828	4390.25	3509.7
902.9852	1661.222	4455.15	3571.95
903.127	1662.9606	4430.95	3550
903.2687	1664.6984	4352.95	3472.7
903.4105	1666.4354	4151.8	3269.6
903.5522	1668.1717	3907.1	3026.5
903.6939	1669.9072	3633.3	2750.5
903.8356	1671.642	3403.6	2520.5
903.9773	1673.3761	3240.05	2359.9
904.119	1675.1094	3073.7	2192.35
904.2606	1676.8419	2966.95	2086.4
904.4022	1678.5737	2884.65	2001.5
904.5439	1680.3048	2806.95	1926.8
904.6855	1682.0351	2747.85	1865.85
904.827	1683.7646	2707.95	1824.75
904.9686	1685.4934	2661.1	1780.25
905.1101	1687.2215	2637	1756.95
905.2517	1688.9488	2604.3	1724.35
905.3932	1690.6754	2577.35	1696.8
905.5347	1692.4012	2554	1673.1
905.6761	1694.1263	2531.05	1649.45
905.8176	1695.8506	2515.8	1632.5
905.9591	1697.5742	2496.8	1615.65
906.1005	1699.297	2483.35	1601.4
906.2419	1701.0191	2453.3	1572.35
906.3833	1702.7404	2445.15	1563.6
906.5246	1704.461	2421.6	1536.85
906.666	1706.1808	2421.25	1538
906.8073	1707.8999	2400.4	1516.25
906.9487	1709.6182	2387.15	1504.35
907.09	1711.3358	2375.3	1492.45
907.2313	1713.0527	2371.95	1490.7
907.3725	1714.7688	2351.85	1464.75
907.5138	1716.4841	2347.7	1465.9
907.655	1718.1987	2348.4	1462.55
907.7962	1719.9126	2331.8	1450.25
907.9374	1721.6257	2324.95	1440.6
908.0786	1723.338	2309.95	1426.8
908.2198	1725.0496	2306.65	1423.3
908.3609	1726.7605	2309.5	1429.65
908.502	1728.4706	2306.75	1422.4
908.6431	1730.18	2286.6	1404.25
908.7842	1731.8886	2279.7	1399.15
908.9253	1733.5964	2281.9	1394.3
909.0664	1735.3036	2273.9	1389.65
909.2074	1737.0099	2262.55	1381.05
909.3484	1738.7156	2254.5	1373.3
909.4894	1740.4204	2243.9	1359
909.6304	1742.1246	2236.35	1353.25
909.7714	1743.8279	2229.85	1348.9
909.9123	1745.5306	2227.5	1344.2
910.0532	1747.2325	2210.85	1330.45
910.1941	1748.9336	2199.75	1317.3
910.335	1750.634	2194.35	1311.6
910.4759	1752.3336	2189.55	1308.4
910.6168	1754.0325	2190.35	1308.3
910.7576	1755.7307	2184.55	1302.5
910.8984	1757.4281	2189.75	1308.05
911.0392	1759.1247	2188.3	1296.1
911.18	1760.8206	2177.05	1291.95
911.3208	1762.5158	2179.1	1295.1
911.4615	1764.2102	2164.4	1282.7
911.6022	1765.9039	2165	1283.75
911.7429	1767.5968	2154.65	1273.2
911.8836	1769.289	2148.5	1266.05
912.0243	1770.9804	2154.8	1272
912.1649	1772.6711	2155.7	1273.85
912.3056	1774.361	2133.95	1252.1
912.4462	1776.0502	2137.3	1256.95
912.5868	1777.7386	2138.9	1253.1
912.7274	1779.4263	2149	1267.2
912.8679	1781.1132	2121.6	1238.4
913.0084	1782.7994	2126.25	1244.05
913.149	1784.4849	2119.55	1238.1
913.2895	1786.1696	2136.85	1234.65
913.4299	1787.8535	2117.25	1236
913.5704	1789.5367	2106.45	1222.65
913.7108	1791.2192	2100.8	1220.1
913.8513	1792.9009	2108.75	1212.1
913.9917	1794.5818	2112.4	1229.1
914.132	1796.2621	2083.4	1202.75
914.2724	1797.9415	2090.35	1209.2
914.4128	1799.6202	2079.75	1198.3
914.5531	1801.2982	2086.85	1205.55
914.6934	1802.9755	2086.9	1203.4
914.8337	1804.6519	2077.75	1196.1
914.9739	1806.3277	2077.65	1195.65
915.1142	1808.0027	2063.85	1183.05
915.2544	1809.6769	2078.25	1193.85
915.3946	1811.3504	2065.05	1180.95
915.5348	1813.0231	2063.3	1181.65
915.675	1814.6951	2057.1	1176.65
915.8151	1816.3664	2060.05	1174.85
915.9553	1818.0369	2054.25	1172
916.0954	1819.7067	2044.7	1163.85
916.2355	1821.3757	2057.1	1174.6
916.3755	1823.044	2049.95	1168.25
916.5156	1824.7115	2047.7	1164.85
916.6556	1826.3783	2042.6	1162.1
916.7956	1828.0443	2026.35	1146.8
916.9356	1829.7096	2039.45	1158.1
917.0756	1831.3741	2042.1	1157.65
917.2155	1833.0379	2032	1152
917.3555	1834.701	2020.65	1136.45
917.4954	1836.3633	2027.35	1144.95
917.6353	1838.0248	2029.65	1146.45
917.7751	1839.6856	2013.6	1131.45
917.915	1841.3457	2018.05	1136.75
918.0548	1843.005	2020.85	1139.7
918.1946	1844.6636	2015	1135.15
918.3344	1846.3214	2014.6	1132.25
918.4742	1847.9785	2005.65	1124.85
918.6139	1849.6349	2013.85	1129.8
918.7537	1851.2904	2016.2	1125.5
918.8934	1852.9453	2005.35	1122.25
919.0331	1854.5994	2001.2	1117.6
919.1727	1856.2528	2007.55	1121.45
919.3124	1857.9054	2001.55	1120.6
919.452	1859.5572	2000.65	1121.05
919.5916	1861.2083	2003.7	1119.65
919.7312	1862.8587	1993.1	1113.15
919.8708	1864.5084	1995.85	1114.25
920.0103	1866.1572	1977.5	1096.35
920.1498	1867.8054	1975.9	1095.25
920.2893	1869.4528	1977.8	1094.4
920.4288	1871.0994	1976.9	1095.55
920.5683	1872.7453	1961.75	1079.5
920.7077	1874.3905	1986.95	1087.5
920.8471	1876.0349	1961.4	1078.65
920.9865	1877.6786	1964.65	1081.85
921.1259	1879.3215	1969.75	1087.05
921.2653	1880.9637	1963.1	1079.15
921.4046	1882.6051	1956.7	1074.9
921.5439	1884.2458	1961.3	1078.3
921.6832	1885.8858	1947.3	1065.55
921.8225	1887.525	1952.7	1070.05
921.9617	1889.1634	1943.95	1062.4
922.101	1890.8011	1941.8	1058.9
922.2402	1892.4381	1934.05	1052.8
922.3794	1894.0743	1945	1065.2
922.5185	1895.7098	1934.65	1053.4
922.6577	1897.3446	1932.5	1049.85
922.7968	1898.9786	1927.5	1041.8
922.9359	1900.6118	1924.5	1042.05
923.075	1902.2443	1912	1026.6
923.214	1903.8761	1923.2	1041.7
923.3531	1905.5071	1924.35	1042.55
923.4921	1907.1374	1916.2	1033.2
923.6311	1908.7669	1917.55	1036.2
923.77	1910.3957	1913.35	1030.05
923.909	1912.0237	1897.9	1016.85
924.0479	1913.651	1908.8	1024.65
924.1868	1915.2776	1894.1	1013.9
924.3257	1916.9034	1894.25	1011.75
924.4646	1918.5285	1886.05	1004.3
924.6034	1920.1528	1886.8	1004.25
924.7422	1921.7764	1884.3	1003.4
924.881	1923.3992	1886.55	1006.05
925.0198	1925.0213	1879	997.2
925.1586	1926.6427	1866.75	985.25
925.2973	1928.2633	2088.45	976.8
925.436	1929.8832	1886.85	1001.7
925.5747	1931.5023	1859.8	978.35
925.7134	1933.1207	1865.8	983.8
925.852	1934.7383	1858.45	974.85
925.9906	1936.3552	1857.35	976.65
926.1292	1937.9714	1853.5	970.9
926.2678	1939.5868	1852.9	969.35
926.4064	1941.2015	1844.75	963.05
926.5449	1942.8154	1841.25	958.7
926.6834	1944.4286	1831.3	949.4
926.8219	1946.041	1859.3	952.75
926.9604	1947.6528	1828.8	943.8
927.0988	1949.2637	1816.15	936.1
927.2372	1950.8739	1823.15	940.7
927.3756	1952.4834	1825.6	942.95
927.514	1954.0921	1821.95	940.75
927.6523	1955.7001	1821.25	933.65
927.7907	1957.3074	1828.1	946.55
927.929	1958.9139	1810.3	930.4
928.0673	1960.5197	1802.6	917.9
928.2055	1962.1247	1808.45	927.6
928.3438	1963.729	1794.35	912.8
928.482	1965.3325	1808.05	901.95
928.6202	1966.9353	1796.15	914.25
928.7584	1968.5374	1787.6	904.85
928.8965	1970.1387	1787.35	904.75
929.0346	1971.7393	1784	903.55
929.1727	1973.3392	1785.5	905.05
929.3108	1974.9383	1769.2	887.65
929.4489	1976.5366	1775.5	892.15
929.5869	1978.1342	1772.2	888.65
929.7249	1979.7311	1770.4	887.25
929.8629	1981.3273	1768.5	886
930.0009	1982.9227	1764.55	881.5
930.1388	1984.5173	1757.8	876.4
930.2767	1986.1112	1764.5	881.75
930.4146	1987.7044	1753.6	873.8
930.5525	1989.2968	1755.45	872.6
930.6904	1990.8885	1755.2	868.2
930.8282	1992.4795	1744.95	861.45
930.966	1994.0697	1747.2	865.65
931.1038	1995.6592	1745.4	864
931.2415	1997.2479	1738.9	856.95
931.3793	1998.8359	1744.5	862.8
931.517	2000.4232	1736	854.2
931.6547	2002.0097	1734.2	853.75
931.7923	2003.5955	1735.8	853.75
931.93	2005.1805	1733.05	848.05
932.0676	2006.7648	1731.05	850.05
932.2052	2008.3484	1723.25	838.2
932.3427	2009.9312	1736.7	852.8
932.4803	2011.5133	1716.65	834.75
932.6178	2013.0946	1719.3	838.6
932.7553	2014.6752	1710.4	830.75
932.8928	2016.2551	1718.45	835.9
933.0302	2017.8342	1720.95	840.65
933.1676	2019.4126	1710.2	828.8
933.305	2020.9902	1705.8	824.15
933.4424	2022.5672	1708.7	825.1
933.5798	2024.1433	1703.1	812.8
933.7171	2025.7188	1700.7	819.1
933.8544	2027.2935	1703.8	820.25
933.9917	2028.8674	1701.15	819
934.129	2030.4406	1698.4	816.65
934.2662	2032.0131	1689.35	807.2
934.4034	2033.5849	1694.9	808
934.5406	2035.1559	1698.15	818.15
934.6778	2036.7261	1685.15	804.8
934.8149	2038.2957	1683.3	802.65
934.952	2039.8645	1679.85	800.15
935.0891	2041.4325	1684.1	801.5
935.2262	2042.9998	1685.95	803
935.3632	2044.5664	1681.75	797.95
935.5002	2046.1323	1673.35	791.1
935.6372	2047.6974	1671.95	789.75
935.7742	2049.2617	1672.2	789.95
935.9111	2050.8254	1697.35	779.8
936.048	2052.3883	1669.25	787.75
936.1849	2053.9504	1663.15	781.2
936.3218	2055.5118	1668.4	787.3
936.4586	2057.0725	1661.45	776.3
936.5955	2058.6325	1664	781.2
936.7323	2060.1917	1656	772.85
936.869	2061.7502	1662.9	778.45
937.0058	2063.3079	1652.7	772.95
937.1425	2064.8649	1658.95	772.25
937.2792	2066.4212	1651.65	767.2
937.4159	2067.9767	1644.2	762.5
937.5525	2069.5315	1643.1	761.1
937.6891	2071.0856	1642.5	759.05
937.8257	2072.6389	1640.45	756.25
937.9623	2074.1915	1629.85	749.6
938.0989	2075.7433	1632.3	747.95
938.2354	2077.2945	1627.7	746.8
938.3719	2078.8448	1626.9	744.85
938.5084	2080.3945	1615.2	732.65
938.6448	2081.9434	1626.6	744.95
938.7812	2083.4916	1623.95	741.45
938.9176	2085.039	1621.8	739.35
939.054	2086.5857	1622.5	740.2
939.1903	2088.1317	1612.5	731.1
939.3267	2089.677	1615.05	734.25
939.463	2091.2215	1611.15	730.35
939.5992	2092.7652	1611.35	726.2
939.7355	2094.3083	1608.6	727.05
939.8717	2095.8506	1605.7	723.95
940.0079	2097.3921	1598.15	716.8
940.1441	2098.933	1606.4	723.6
940.2802	2100.4731	1599.65	717.35
940.4163	2102.0124	1615.95	713.4
940.5524	2103.5511	1597.05	715.5
940.6885	2105.089	1590.15	707.05
940.8245	2106.6261	1596.35	715.05
940.9606	2108.1626	1598.6	716.7
941.0965	2109.6983	1615.25	706.4
941.2325	2111.2332	1598.8	717.25
941.3684	2112.7675	1590.15	706.65
941.5044	2114.301	1585.8	703.35
941.6403	2115.8337	1589.15	707.05
941.7761	2117.3657	1587.15	705.65
941.912	2118.897	1593.6	710
942.0478	2120.4276	1591.45	702.5
942.1835	2121.9575	1574.3	691.9
942.3193	2123.4866	1592.95	697.55
942.455	2125.0149	1571.85	687.4
942.5907	2126.5426	1569.75	688.5
942.7264	2128.0695	1578	692.75
942.8621	2129.5956	1568.7	687.3
942.9977	2131.1211	1573	687.05
943.1333	2132.6458	1567.35	686.7
943.2689	2134.1698	1562.4	681.3
943.4044	2135.693	1564.25	679.25
943.54	2137.2155	1559.9	676.85
943.6755	2138.7373	1559.5	677.9
943.8109	2140.2584	1570.65	690.25
943.9464	2141.7787	1561.45	674.35
944.0818	2143.2983	1555.7	674.85
944.2172	2144.8171	1545.4	663.85
944.3526	2146.3353	1551.55	667.45
944.4879	2147.8527	1545.2	664.2
944.6232	2149.3693	1550.7	669.4
944.7585	2150.8853	1551.2	669.95
944.8938	2152.4005	1543.15	660.65
945.029	2153.9149	1543.35	660.6
945.1642	2155.4287	1537.85	657.1
945.2994	2156.9417	1543.2	659.35
945.4346	2158.454	1533.5	649.8
945.5697	2159.9655	1535.55	653.25
945.7048	2161.4764	1536.6	652.85
945.8399	2162.9865	1531.65	647.25
945.9749	2164.4958	1525.65	640.95
946.1099	2166.0045	1533.4	648.2
946.2449	2167.5124	1525.95	641.55
946.3799	2169.0195	1526.45	645.5
946.5148	2170.526	1516.15	634.85
946.6498	2172.0317	1527.15	643.5
946.7846	2173.5367	1518.5	635.8
946.9195	2175.0409	1515.1	632.5
947.0543	2176.5445	1515.6	633.85
947.1891	2178.0473	1517.45	635.05
947.3239	2179.5494	1516.05	630.45
947.4587	2181.0507	1515.7	632.65
947.5934	2182.5513	1506.2	623.9
947.7281	2184.0512	1507.85	626.55
947.8628	2185.5504	1504.1	622.3
947.9974	2187.0488	1504.65	621.5
948.132	2188.5465	1504.8	622.1
948.2666	2190.0435	1494.6	612.45
948.4012	2191.5397	1506.75	624.2
948.5357	2193.0353	1501.25	619.75
948.6702	2194.5301	1492.15	608.55
948.8047	2196.0241	1492.35	609.7
948.9392	2197.5175	1494.2	613.15
949.0736	2199.0101	1498.7	613.5
949.208	2200.502	1487.45	606.6
949.3424	2201.9931	1479.75	598.55
949.4767	2203.4835	1480.45	597.9
949.611	2204.9733	1500.1	601.85
949.7453	2206.4622	1485	603.8
949.8796	2207.9505	1479.85	593.3
950.0138	2209.438	1476.45	595.2
950.148	2210.9248	1477.65	593.8
950.2822	2212.4109	1469.35	589.15
950.4164	2213.8962	1472.4	587
950.5505	2215.3809	1478.05	595.1
950.6846	2216.8648	1464.55	582.85
950.8186	2218.3479	1465.35	578.2
950.9527	2219.8304	1469.2	584.6
951.0867	2221.3121	1452.45	570.3
951.2207	2222.7931	1451.15	568.5
951.3546	2224.2733	1454.3	573.2
951.4886	2225.7529	1462.85	578.55
951.6225	2227.2317	1457.2	572.75
951.7563	2228.7098	1449.05	567.55
951.8902	2230.1872	1446.85	564.25
952.024	2231.6638	1447.35	564.9
952.1578	2233.1397	1447.8	560.3
952.2916	2234.6149	1449.15	568.4
952.4253	2236.0894	1445.6	563.15
952.559	2237.5632	1451.4	558.55
952.6927	2239.0362	1446.15	564.75
952.8263	2240.5085	1435.4	551.55
952.9599	2241.9801	1432.3	547.75
953.0935	2243.4509	1429.1	549.2
953.2271	2244.921	1433.3	551.9
953.3606	2246.3904	1428.55	544
953.4941	2247.8591	1434.6	553.9
953.6276	2249.3271	1425.75	544.1
953.7611	2250.7943	1424.75	542.2
953.8945	2252.2608	1417.8	535.6
954.0279	2253.7266	1420.6	539.6
954.1612	2255.1917	1417.7	536.4
954.2946	2256.656	1415	532.1
954.4279	2258.1197	1421.15	541.05
954.5612	2259.5826	1421.45	536.85
954.6944	2261.0447	1420.05	535
954.8276	2262.5062	1413.7	529.05
954.9608	2263.9669	1414.8	531.6
955.094	2265.4269	1405	524.25
955.2271	2266.8862	1410.05	528.1
955.3602	2268.3448	1407.1	525.95
955.4933	2269.8026	1408.5	525.25
955.6264	2271.2598	1414.6	533.3
955.7594	2272.7162	1403.6	522.35
955.8924	2274.1719	1403	519.5
956.0253	2275.6268	1396.55	514.75
956.1583	2277.0811	1398.1	514.4
956.2912	2278.5346	1399.45	518.5
956.4241	2279.9874	1400.05	518.1
956.5569	2281.4395	1392.4	511.3
956.6897	2282.8908	1398.9	511.35
956.8225	2284.3414	1397.55	514.3
956.9553	2285.7914	1397.7	516.6
957.088	2287.2406	1398	513.4
957.2207	2288.689	1391.95	510.8
957.3534	2290.1368	1393.5	512.1
957.486	2291.5838	1393.15	509.55
957.6186	2293.0302	1394.65	512.3
957.7512	2294.4758	1384.05	503.15
957.8838	2295.9206	1389	502.95
958.0163	2297.3648	1378.15	497.05
958.1488	2298.8082	1386	503.05
958.2813	2300.251	1376.55	493.35
958.4137	2301.693	1384	499.3
958.5461	2303.1343	1383.4	500.75
958.6785	2304.5748	1371	490.1
958.8108	2306.0147	1368.2	484.9
958.9432	2307.4538	1380.1	494.4
959.0754	2308.8922	1374.25	493.95
959.2077	2310.3299	1370.9	488.35
959.3399	2311.7669	1364.05	484.85
959.4721	2313.2031	1375.15	493.35
959.6043	2314.6387	1365.2	483.7
959.7365	2316.0735	1364.4	481.3
959.8686	2317.5076	1368.5	484.9
960.0006	2318.941	1367.1	486.1
960.1327	2320.3737	1361.15	476.7
960.2647	2321.8056	1357.95	475.55
960.3967	2323.2369	1365.75	481.85
960.5287	2324.6674	1361	476.35
960.6606	2326.0972	1362.2	479.25
960.7925	2327.5263	1360.2	477.75
960.9244	2328.9547	1358	475.65
961.0562	2330.3823	1354.95	473.3
961.1881	2331.8092	1349.3	464.7
961.3198	2333.2355	1351.05	466.9
961.4516	2334.661	1354.4	471.55
961.5833	2336.0858	1354.3	468.9
961.715	2337.5098	1349.1	468
961.8467	2338.9332	1347.05	463.85
961.9783	2340.3558	1347.35	461.2
962.1099	2341.7778	1341.65	459.4
962.2415	2343.199	1342.5	456.2
962.373	2344.6195	1345.75	463.45
962.5045	2346.0393	1338.9	457.8
962.636	2347.4583	1346.55	464.05
962.7675	2348.8767	1339.6	456.55
962.8989	2350.2943	1337.55	454.8
963.0303	2351.7113	1337.2	453.05
963.1617	2353.1275	1331.15	448.55
963.293	2354.543	1338.55	448.5
963.4243	2355.9578	1334.05	452.9
963.5556	2357.3718	1331.7	450.85
963.6868	2358.7852	1327.65	443.05
963.818	2360.1978	1330.35	447.55
963.9492	2361.6098	1332.85	452.1
964.0803	2363.021	1338.6	453
964.2114	2364.4315	1323.65	442.6
964.3425	2365.8413	1326.15	442.7
964.4736	2367.2504	1324.1	443.7
964.6046	2368.6587	1322.8	439.35
964.7356	2370.0664	1318.1	435.8
964.8666	2371.4733	1316.7	437.2
964.9975	2372.8795	1314.7	432.45
965.1284	2374.285	1314.1	431.6
965.2593	2375.6899	1318.6	437.7
965.3901	2377.0939	1311.8	430.55
965.5209	2378.4973	1312.7	430.6
965.6517	2379.9	1310.6	427.05
965.7825	2381.3019	1307.8	427.55
965.9132	2382.7032	1303.85	422.9
966.0439	2384.1037	1303.2	421
966.1745	2385.5035	1307.85	427.65
966.3051	2386.9027	1306.3	423.85
966.4357	2388.3011	1305.25	419
966.5663	2389.6987	1295.15	411.75
966.6968	2391.0957	1301.15	420.15
966.8273	2392.492	1299.7	419
966.9578	2393.8876	1295.65	412.95
967.0882	2395.2824	1293.55	412.85
967.2186	2396.6765	1290.65	409.35
967.349	2398.07	1290.05	407.15
967.4793	2399.4627	1288.5	406.8
967.6097	2400.8547	1295.35	414.2
967.7399	2402.246	1292.95	407.3
967.8702	2403.6366	1287.6	406.3
968.0004	2405.0265	1285.6	403.05
968.1306	2406.4156	1293.9	408.95
968.2607	2407.8041	1286.65	401.55
968.3909	2409.1918	1281.3	395.9
968.521	2410.5789	1281.5	399.2
968.651	2411.9652	1281.25	397.1
968.781	2413.3508	1278.55	396.25
968.911	2414.7358	1270.25	387.25
969.041	2416.12	1274.4	392.4
969.1709	2417.5035	1271.4	391.05
969.3008	2418.8863	1271.05	388.3
969.4307	2420.2684	1268.8	387
969.5606	2421.6497	1269.75	385.75
969.6904	2423.0304	1276.15	394.8
969.8201	2424.4104	1271.15	387.2
969.9499	2425.7896	1274.3	384.95
970.0796	2427.1682	1269.55	387.75
970.2093	2428.546	1264.45	380.95
970.3389	2429.9232	1264.3	379.35
970.4685	2431.2996	1269.8	387.5
970.5981	2432.6753	1264.55	382.65
970.7277	2434.0503	1265.6	382.8
970.8572	2435.4246	1257.3	376.05
970.9867	2436.7982	1263.3	378.85
971.1161	2438.1711	1258.6	378.3
971.2456	2439.5433	1258.7	375.8
971.375	2440.9148	1259.6	372.8
971.5043	2442.2856	1248.1	368.1
971.6336	2443.6557	1254.25	369.35
971.7629	2445.025	1246.5	365.95
971.8922	2446.3937	1248.95	365.75
972.0214	2447.7617	1255.75	371.85
972.1506	2449.1289	1247.8	365.95
972.2798	2450.4955	1256.6	370.85
972.4089	2451.8613	1245.65	364.85
972.538	2453.2265	1248.65	363.95
972.6671	2454.5909	1246.8	363.4
972.7961	2455.9546	1250.4	368.75
972.9251	2457.3177	1243.75	362.4
973.0541	2458.68	1248.3	363.3
973.1831	2460.0416	1240.35	358.65
973.312	2461.4025	1247.95	363.65
973.4408	2462.7627	1253.75	359.2
973.5697	2464.1222	1236.35	355.35
973.6985	2465.4811	1235.2	351.95
973.8273	2466.8392	1236.85	353.1
973.956	2468.1966	1241.4	357.05
974.0847	2469.5533	1240.25	356.4
974.2134	2470.9093	1239.9	356.15
974.3421	2472.2645	1236.5	351.05
974.4707	2473.6191	1230.05	347.9
974.5993	2474.973	1236.4	353.85
974.7278	2476.3262	1235.3	350.95
974.8563	2477.6787	1239.3	357.65
974.9848	2479.0305	1232	348.45
975.1132	2480.3816	1232.75	350.65
975.2417	2481.7319	1236.3	354.05
975.37	2483.0816	1231.45	347.6
975.4984	2484.4306	1229.45	347.05
975.6267	2485.7789	1229.1	347.75
975.755	2487.1264	1228.1	346.1
975.8833	2488.4733	1226	345.55
976.0115	2489.8195	1242.6	342.8
976.1397	2491.165	1227.3	341.85
976.2678	2492.5097	1226.05	341.45
976.3959	2493.8538	1218.25	336.9
976.524	2495.1972	1215.55	330.9
976.6521	2496.5398	1215.2	330.95
976.7801	2497.8818	1225.8	342.25
976.9081	2499.2231	1214.25	333.65
977.036	2500.5637	1215.95	333.7
977.164	2501.9035	1211.9	329.6
977.2918	2503.2427	1214.4	328.05
977.4197	2504.5812	1213	330.55
977.5475	2505.919	1214.15	328.2
977.6753	2507.256	1215.65	333.85
977.8031	2508.5924	1209.95	326.35
977.9308	2509.9281	1215.65	326.9
978.0585	2511.2631	1204.45	323
978.1861	2512.5974	1209.65	329.5
978.3137	2513.9309	1208.95	327.1
978.4413	2515.2638	1230	316.85
978.5689	2516.596	1209.3	327.7
978.6964	2517.9275	1209.1	324.65
978.8239	2519.2583	1209.45	326
978.9513	2520.5884	1203.9	317.95
979.0788	2521.9178	1200.85	318.05
979.2062	2523.2465	1202.6	320.4
979.3335	2524.5745	1201.55	320.25
979.4608	2525.9018	1196.95	314.95
979.5881	2527.2284	1201.75	320.6
979.7154	2528.5543	1198.75	317.6
979.8426	2529.8796	1201.05	317.95
979.9698	2531.2041	1199.4	316.3
980.0969	2532.5279	1194.6	313.9
980.224	2533.851	1198.45	316.8
980.3511	2535.1735	1194.15	312.85
980.4781	2536.4952	1197.9	315.6
980.6052	2537.8163	1197.15	313.6
980.7321	2539.1366	1191.3	308.9
980.8591	2540.4562	1195.95	313.9
980.986	2541.7752	1190.85	310.05
981.1129	2543.0935	1188.3	305.55
981.2397	2544.411	1195.2	312.3
981.3665	2545.7279	1196.05	315
981.4933	2547.0441	1191.85	311.2
981.62	2548.3596	1192.45	307.7
981.7467	2549.6744	1190.55	308.8
981.8734	2550.9885	1191.6	300.25
982.0001	2552.3019	1190.85	310.05
982.1267	2553.6146	1186.6	303.2
982.2532	2554.9266	1190.95	309
982.3798	2556.2379	1190.05	306.3
982.5063	2557.5485	1186.8	304.7
982.6327	2558.8585	1197.65	310.9
982.7592	2560.1677	1193.05	309.05
982.8856	2561.4762	1186.65	304.35
983.0119	2562.7841	1185.6	301.7
983.1383	2564.0913	1180.3	299.65
983.2646	2565.3977	1187.85	305.25
983.3908	2566.7035	1182.7	299.55
983.517	2568.0086	1185.05	299.15
983.6432	2569.313	1183.25	301.95
983.7694	2570.6167	1188.05	301.4
983.8955	2571.9197	1180.55	299.65
984.0216	2573.222	1185.25	299.25
984.1476	2574.5236	1180.4	296.7
984.2737	2575.8246	1177.5	293.15
984.3996	2577.1248	1183.25	300.5
984.5256	2578.4244	1178.65	297.75
984.6515	2579.7232	1181.15	299.7
984.7774	2581.0214	1205.85	292.35
984.9032	2582.3189	1178.3	296.25
985.029	2583.6157	1181.2	294.6
985.1548	2584.9118	1178.3	297.25
985.2806	2586.2072	1183.7	301.75
985.4063	2587.5019	1178.55	296.45
985.5319	2588.7959	1181.05	299.85
985.6576	2590.0893	1182.1	299.15
985.7832	2591.3819	1180.15	299.8
985.9087	2592.6739	1183	304.2
986.0343	2593.9652	1183.2	300.75
986.1597	2595.2557	1174.3	291.9
986.2852	2596.5456	1184.6	300.7
986.4106	2597.8348	1178.15	297.25
986.536	2599.1234	1178.15	295.6
986.6614	2600.4112	1181.15	300.2
986.7867	2601.6983	1185.65	302.55
986.912	2602.9848	1176.85	295.6
987.0372	2604.2705	1181.95	292.8
987.1624	2605.5556	1177.35	294.05
987.2876	2606.84	1178.35	296.2
987.4128	2608.1237	1172.45	288.6
987.5379	2609.4067	1177.1	294.45
987.6629	2610.689	1186.75	293.45
987.788	2611.9707	1173.3	288.65
987.913	2613.2516	1174.65	288.45
988.0379	2614.5319	1169.4	286.8
988.1629	2615.8115	1170.25	288.65
988.2878	2617.0903	1172.25	288.5
988.4126	2618.3685	1167	285.75
988.5375	2619.6461	1161.75	281.35
988.6622	2620.9229	1162.15	281
988.787	2622.199	1162.65	279.95
988.9117	2623.4745	1166.7	284.15
989.0364	2624.7493	1166.05	285.2
989.161	2626.0234	1161.2	280.5
989.2857	2627.2968	1161.5	278.5
989.4102	2628.5695	1165.7	282.65
989.5348	2629.8415	1160.35	280.3
989.6593	2631.1128	1163.85	280.4
989.7837	2632.3835	1157.2	274.35
989.9082	2633.6535	1160.7	278.45
990.0326	2634.9228	1161.55	278.3
990.1569	2636.1914	1159.15	279
990.2812	2637.4593	1162.8	279.85
990.4055	2638.7265	1158.85	276.3
990.5298	2639.9931	1156.1	272.85
990.654	2641.259	1155.6	273.1
990.7782	2642.5242	1154.1	271.45
990.9023	2643.7887	1154.9	270.75
991.0264	2645.0525	1148.9	268.3
991.1505	2646.3156	1158.45	275.6
991.2745	2647.5781	1153.75	270.75
991.3985	2648.8398	1153.3	272
991.5225	2650.1009	1187.65	267.9
991.6464	2651.3613	1153.55	269.75
991.7703	2652.6211	1149.35	268.55
991.8942	2653.8801	1146.05	265.5
992.018	2655.1385	1151.7	269.05
992.1418	2656.3961	1149.35	266.4
992.2655	2657.6531	1148.5	267.25
992.3892	2658.9094	1142.9	259.7
992.5129	2660.1651	1148	267.25
992.6366	2661.42	1148.8	267.8
992.7602	2662.6743	1151.95	269.7
992.8837	2663.9279	1148.8	267.75
993.0073	2665.1808	1154.1	272.1
993.1307	2666.433	1153.8	271.1
993.2542	2667.6846	1154.1	273.85
993.3776	2668.9354	1157.7	270.85
993.501	2670.1856	1150.65	266.95
993.6244	2671.4351	1153.6	271.8
993.7477	2672.6839	1158.5	275.05
993.8709	2673.9321	1157.6	277.15
993.9942	2675.1795	1158	276
994.1174	2676.4263	1156.6	275
994.2405	2677.6724	1158	278.3
994.3637	2678.9179	1160.05	278
994.4868	2680.1626	1159.95	277.85
994.6098	2681.4067	1161.25	278.7
994.7328	2682.6501	1158.9	275.85
994.8558	2683.8928	1156.65	274.05
994.9788	2685.1348	1153.8	272.25
995.1017	2686.3761	1148	268.1
995.2245	2687.6168	1152	270.45
995.3474	2688.8568	1144.5	263.8
995.4702	2690.0961	1142.55	261.75
995.5929	2691.3348	1144.65	261.35
995.7156	2692.5727	1143.55	263.85
995.8383	2693.81	1144.6	261.35
995.961	2695.0466	1146.75	265.15
996.0836	2696.2826	1145.05	261.9
996.2062	2697.5178	1163	259.05
996.3287	2698.7524	1141.7	259.45
996.4512	2699.9863	1147.6	262.5
996.5737	2701.2195	1144.9	263.25
996.6961	2702.452	1150.2	268.4
996.8185	2703.6839	1149.2	265.85
996.9408	2704.9151	1150.35	270.05
997.0631	2706.1456	1155.25	272.5
997.1854	2707.3755	1153.75	271.2
997.3077	2708.6046	1166.05	281.55
997.4299	2709.8331	1164.85	283.8
997.552	2711.0609	1163.7	282.4
997.6742	2712.2881	1167.3	283.9
997.7963	2713.5145	1170.05	284.85
997.9183	2714.7403	1177.55	296.3
998.0403	2715.9654	1180.35	297.5
998.1623	2717.1899	1195.35	299.95
998.2842	2718.4136	1185.65	305.6
998.4062	2719.6367	1192.65	311.25
998.528	2720.8591	1208.45	319.3
998.6498	2722.0809	1199.7	317.15
998.7716	2723.3019	1211.25	324.85
998.8934	2724.5223	1212.1	329.45
999.0151	2725.7421	1209.4	325.7
999.1368	2726.9611	1214.4	330.7
999.2584	2728.1795	1218.35	333.6
999.38	2729.3972	1215.05	332.75
999.5016	2730.6142	1216.25	320
999.6231	2731.8306	1199.2	315.45
999.7446	2733.0462	1195.4	310.8
999.8661	2734.2612	1191.95	305.1
999.9875	2735.4756	1174.1	292.25
1000.1089	2736.6892	1172.9	289.7
1000.2302	2737.9022	1163.7	281.45
1000.3515	2739.1145	1155	271.65
1000.4728	2740.3262	1158.3	268.75
1000.594	2741.5372	1151.1	269.3
1000.7152	2742.7475	1142.9	260.9
1000.8363	2743.9571	1142.75	259.15
1000.9575	2745.1661	1139.75	255.3
1001.0785	2746.3744	1128.1	245.5
1001.1996	2747.582	1130.9	247.9
1001.3206	2748.7889	1125.2	241.4
1001.4415	2749.9952	1118.1	236.7
1001.5625	2751.2008	1119.1	234.9
1001.6833	2752.4057	1120.35	236.2
1001.8042	2753.61	1120.35	237.05
1001.925	2754.8136	1116.8	233.15
1002.0458	2756.0165	1111.45	229.85
1002.1665	2757.2188	1110.85	228.8
1002.2872	2758.4204	1117.3	232.3
1002.4078	2759.6213	1116.6	233.15
1002.5285	2760.8215	1113.55	226.75
1002.649	2762.0211	1118.35	236.5
1002.7696	2763.22	1112.1	226.8
1002.8901	2764.4182	1116.1	231.35
1003.0106	2765.6158	1110	226
1003.131	2766.8127	1109.45	228.95
1003.2514	2768.009	1111.2	229.95
1003.3717	2769.2045	1107.6	224.25
1003.492	2770.3994	1107.5	223.95
1003.6123	2771.5936	1105.85	221.95
1003.7325	2772.7872	1101.3	220.8
1003.8527	2773.9801	1107	222.6
1003.9729	2775.1723	1117.4	216.9
1004.093	2776.3639	1099.15	218.15
1004.2131	2777.5548	1100.6	216
1004.3331	2778.745	1101	216.9
1004.4531	2779.9346	1098.95	216.85
1004.5731	2781.1235	1100.75	218.45
1004.693	2782.3117	1101.65	219.65
1004.8129	2783.4992	1101.55	220.2
1004.9328	2784.6861	1098	216.4
1005.0526	2785.8723	1105.8	222.9
1005.1723	2787.0579	1104.25	221.65
1005.2921	2788.2428	1107.4	224.65
1005.4118	2789.427	1110.05	226.3
1005.5314	2790.6106	1112.8	231.3
1005.651	2791.7935	1120	235.35
1005.7706	2792.9757	1116.2	236
1005.8902	2794.1573	1128.4	244.15
1006.0097	2795.3382	1130.65	249.85
1006.1291	2796.5184	1126.1	245.5
1006.2485	2797.698	1134.95	249.9
1006.3679	2798.8769	1134.8	252.85
1006.4873	2800.0551	1141.05	260.05
1006.6066	2801.2327	1150.55	266.45
1006.7258	2802.4096	1154.25	272
1006.8451	2803.5859	1159.25	276.45
1006.9642	2804.7615	1170.95	287.9
1007.0834	2805.9364	1177.55	296.6
1007.2025	2807.1106	1188.3	307.65
1007.3216	2808.2842	1191.3	309.55
1007.4406	2809.4572	1209.4	326.2
1007.5596	2810.6294	1225.8	343.15
1007.6785	2811.801	1233.25	352.75
1007.7975	2812.972	1250.2	368.5
1007.9163	2814.1423	1268.7	386.75
1008.0352	2815.3119	1293.85	412.4
1008.154	2816.4808	1312.1	431.7
1008.2727	2817.6491	1333.25	450.5
1008.3914	2818.8167	1352.15	471.75
1008.5101	2819.9837	1382.15	496.65
1008.6288	2821.15	1404.9	524.2
1008.7474	2822.3157	1433.35	553.3
1008.8659	2823.4807	1464.35	582.8
1008.9844	2824.645	1482.25	597.1
1009.1029	2825.8086	1514.85	634.05
1009.2214	2826.9716	1534.55	653.6
1009.3398	2828.134	1565.2	684.25
1009.4581	2829.2957	1586.05	703.15
1009.5764	2830.4567	1596.05	714.7
1009.6947	2831.617	1608.25	724.6
1009.813	2832.7767	1615.9	734.55
1009.9312	2833.9358	1614.1	734.6
1010.0493	2835.0941	1610.95	727.85
1010.1675	2836.2519	1604.35	723.6
1010.2855	2837.4089	1587.25	703.15
1010.4036	2838.5653	1587	708
1010.5216	2839.7211	1574	691.4
1010.6396	2840.8761	1582.15	699.3
1010.7575	2842.0306	1580.25	698.15
1010.8754	2843.1843	1584.55	702.7
1010.9932	2844.3374	1600.75	719.5
1011.111	2845.4899	1622.2	739.2
1011.2288	2846.6417	1651.75	771.8
1011.3465	2847.7928	1668	784.55
1011.4642	2848.9433	1695.6	814.85
1011.5818	2850.0931	1721.5	841.55
1011.6995	2851.2422	1747.75	863.55
1011.817	2852.3907	1774.5	892.3
1011.9345	2853.5385	1796.8	910.95
1012.052	2854.6857	1846.4	938
1012.1695	2855.8323	1844.5	964.15
1012.2869	2856.9781	1865.4	982.95
1012.4042	2858.1233	1886.35	1005.4
1012.5216	2859.2679	1921.2	1037.25
1012.6389	2860.4118	1935.3	1053
1012.7561	2861.555	1964.55	1078.8
1012.8733	2862.6976	1975.8	1092
1012.9905	2863.8395	1984.7	1101.25
1013.1076	2864.9808	2002.3	1122.65
1013.2247	2866.1214	2016.2	1134.9
1013.3417	2867.2614	2008.1	1126.65
1013.4587	2868.4007	2039.1	1156.2
1013.5757	2869.5393	2040.4	1156.05
1013.6926	2870.6773	2049.75	1164.1
1013.8095	2871.8146	2052	1166.75
1013.9263	2872.9513	2052.5	1170.15
1014.0431	2874.0874	2049.9	1167.4
1014.1599	2875.2227	2051.15	1170.25
1014.2766	2876.3574	2030.65	1148.8
1014.3933	2877.4915	2013.5	1130.5
1014.51	2878.6249	1999.7	1120.6
1014.6266	2879.7577	1998.75	1114.85
1014.7431	2880.8898	1997	1105.55
1014.8596	2882.0212	1985.1	1104.15
1014.9761	2883.152	1981.15	1098
1015.0925	2884.2821	1973.9	1093
1015.2089	2885.4116	1977	1095.5
1015.3253	2886.5405	1968.1	1085.3
1015.4416	2887.6686	1986.2	1102.5
1015.5579	2888.7962	1974.15	1095.4
1015.6741	2889.923	1972.95	1091.3
1015.7903	2891.0493	1992.7	1112.55
1015.9065	2892.1748	1984.95	1102.7
1016.0226	2893.2997	1995.75	1112.45
1016.1387	2894.424	2010.3	1128.1
1016.2547	2895.5476	2007.75	1126.5
1016.3707	2896.6706	2012.75	1130.3
1016.4866	2897.7929	2034.65	1153.65
1016.6025	2898.9145	2039.35	1156.6
1016.7184	2900.0355	2056.05	1173.9
1016.8342	2901.1559	2061.05	1179.05
1016.95	2902.2756	2070.65	1189.9
1017.0658	2903.3946	2095.35	1213.1
1017.1815	2904.513	2106.85	1224.05
1017.2971	2905.6308	2104.65	1224.85
1017.4127	2906.7479	2114.15	1230.5
1017.5283	2907.8643	2138.4	1255.6
1017.6439	2908.9801	2138.95	1258.75
1017.7594	2910.0953	2139.45	1258.25
1017.8748	2911.2098	2143.1	1257.8
1017.9902	2912.3236	2144.2	1254.7
1018.1056	2913.4368	2129.35	1245.3
1018.2209	2914.5494	2119.15	1235.55
1018.3362	2915.6613	2111.4	1223.15
1018.4515	2916.7725	2088.3	1204.15
1018.5667	2917.8831	2073.15	1189.1
1018.6819	2918.9931	2068.1	1184.65
1018.797	2920.1024	2052.65	1169.1
1018.9121	2921.211	2039.45	1158.8
1019.0271	2922.319	2027.35	1144.25
1019.1421	2923.4264	2027.35	1144.4
1019.2571	2924.5331	2023.85	1143.1
1019.372	2925.6391	2020.15	1137.6
1019.4869	2926.7445	2023.05	1141.3
1019.6017	2927.8493	2030.4	1149.15
1019.7165	2928.9534	2029.05	1147.7
1019.8313	2930.0569	2031.65	1145.95
1019.946	2931.1597	2040.15	1156.5
1020.0606	2932.2619	2027.8	1145.1
1020.1753	2933.3634	2037.3	1154.95
1020.2899	2934.4643	2039.5	1150.9
1020.4044	2935.5645	2043.15	1154.45
1020.5189	2936.6641	2031.3	1145.4
1020.6334	2937.763	2015.85	1134.55
1020.7478	2938.8613	2002.65	1120.1
1020.8622	2939.959	1987.4	1099.1
1020.9765	2941.056	1950.85	1070.1
1021.0908	2942.1523	1916.6	1032.35
1021.2051	2943.248	1882	998.65
1021.3193	2944.3431	1845.9	963.55
1021.4334	2945.4375	1791.9	907.75
1021.5476	2946.5313	1754.3	874.75
1021.6617	2947.6244	1710.65	828.15
1021.7757	2948.7169	1669.95	787.2
1021.8897	2949.8087	1633.3	752.9
1022.0037	2950.8999	1595.65	712.85
1022.1176	2951.9904	1560.35	679.75
1022.2315	2953.0803	1528.75	646.2
1022.3453	2954.1696	1499.15	615.75
1022.4591	2955.2582	1472.1	590.1
1022.5728	2956.3462	1462.35	580.9
1022.6865	2957.4335	1447.05	565
1022.8002	2958.5202	1426.3	542.95
1022.9138	2959.6062	1418.55	536.85
1023.0274	2960.6916	1405.3	525.3
1023.141	2961.7764	1402.45	517.7
1023.2545	2962.8605	1393	510.5
1023.3679	2963.9439	1382.45	500.1
1023.4813	2965.0267	1382.75	499.35
1023.5947	2966.1089	1395.2	491.05
1023.708	2967.1905	1377	496.05
1023.8213	2968.2714	1372.7	490.85
1023.9346	2969.3516	1373.05	491.6
1024.0478	2970.4312	1382.45	493.4
1024.1609	2971.5102	1380.25	498.2
1024.274	2972.5885	1374.15	492.05
1024.3871	2973.6662	1382.6	495.45
1024.5002	2974.7432	1374.45	493.5
1024.6132	2975.8196	1381.8	500.55
1024.7261	2976.8954	1372	490.5
1024.839	2977.9705	1369.65	488.2
1024.9519	2979.045	1372.4	491.65
1025.0647	2980.1188	1360.05	478.2
1025.1775	2981.192	1350.25	469.85
1025.2902	2982.2645	1350.7	468.05
1025.4029	2983.3364	1334.95	453.15
1025.5156	2984.4077	1334.75	453.7
1025.6282	2985.4783	1320.5	431.75
1025.7407	2986.5483	1297.4	416.8
1025.8532	2987.6177	1282.4	400.7
1025.9657	2988.6864	1273.15	391.5
1026.0782	2989.7545	1257.9	376.1
1026.1906	2990.8219	1235.5	351.85
1026.3029	2991.8887	1229.35	344.4
1026.4152	2992.9548	1214.45	332.4
1026.5275	2994.0204	1197.75	316.7
1026.6397	2995.0852	1181.85	300.75
1026.7519	2996.1495	1174.95	289.35
1026.864	2997.2131	1161	279.9
1026.9761	2998.276	1153.25	270.55
1027.0882	2999.3383	1138.7	257.35
1027.2002	3000.4	1128.4	245.2
1027.3122	3001.4611	1120.45	240.85
1027.4241	3002.5215	1114.85	232.9
1027.536	3003.5812	1105.75	222.8
1027.6478	3004.6404	1098.65	216.9
1027.7596	3005.6989	1094.8	212.4
1027.8714	3006.7567	1090.9	209.5
1027.9831	3007.8139	1109.4	203.9
1028.0947	3008.8705	1080.45	201.4
1028.2064	3009.9264	1091.05	193.1
1028.3179	3010.9818	1069.25	189.3
1028.4295	3012.0364	1070.6	188.2
1028.541	3013.0905	1068.15	186.5
1028.6524	3014.1439	1066.25	183.3
1028.7638	3015.1966	1062.25	181.15
1028.8752	3016.2487	1056.6	174.15
1028.9865	3017.3002	1067.25	178.95
1029.0978	3018.3511	1052.65	172
1029.209	3019.4013	1052.2	171.3
1029.3202	3020.4509	1052.65	171.95
1029.4314	3021.4998	1057	173.25
1029.5425	3022.5481	1052.9	171.15
1029.6535	3023.5958	1050.4	168.75
1029.7645	3024.6428	1053.1	171
1029.8755	3025.6892	1054.7	171
1029.9864	3026.735	1054.6	172.35
1030.0973	3027.7802	1054.2	173.4
1030.2082	3028.8247	1049.7	167
1030.319	3029.8685	1048.8	166.65
1030.4297	3030.9118	1053.05	169.5
1030.5404	3031.9544	1052.25	171.05
1030.6511	3032.9963	1054	172
1030.7617	3034.0376	1055.15	174.65
1030.8723	3035.0783	1057.65	171.15
1030.9829	3036.1184	1056.45	173.85
1031.0934	3037.1578	1056.7	175.15
1031.2038	3038.1966	1057.3	175.55
1031.3142	3039.2348	1060.35	179.05
1031.4246	3040.2723	1067.7	177.7
1031.5349	3041.3092	1057.7	178.2
1031.6452	3042.3455	1060.8	177.35
1031.7554	3043.3811	1054.15	172.7
1031.8656	3044.4161	1059.7	177.55
1031.9758	3045.4505	1056.8	177.6
1032.0859	3046.4842	1056.55	175.95
1032.1959	3047.5173	1054.35	172.65
1032.3059	3048.5498	1052.9	171.5
1032.4159	3049.5816	1050.15	166.5
1032.5258	3050.6128	1050.95	168.35
1032.6357	3051.6434	1054.6	171.5
1032.7455	3052.6734	1048.05	165.55
1032.8553	3053.7027	1049.5	168.25
1032.9651	3054.7314	1044.45	162.5
1033.0748	3055.7594	1043.8	163.1
1033.1845	3056.7868	1045.65	163
1033.2941	3057.8136	1043.6	161.1
1033.4037	3058.8398	1041.9	161.1
1033.5132	3059.8653	1046.05	163.3
1033.6227	3060.8902	1035	155.4
1033.7321	3061.9145	1041.4	158.8
1033.8415	3062.9381	1040.9	160.05
1033.9509	3063.9612	1055.55	156.8
1034.0602	3064.9835	1034.65	150.4
1034.1694	3066.0053	1034.7	149.15
1034.2787	3067.0264	1033.5	152.3
1034.3878	3068.0469	1038.3	155
1034.497	3069.0668	1034.8	150.6
1034.6061	3070.086	1029.1	147.75
1034.7151	3071.1046	1029	145.95
1034.8241	3072.1226	1025.1	143.8
1034.9331	3073.1399	1021	139.4
1035.042	3074.1567	1017.25	137.95
1035.1508	3075.1727	1012.25	126.95
1035.2597	3076.1882	1012.15	132.5
1035.3684	3077.203	1008.7	125.05
1035.4772	3078.2173	1007.3	124.8
1035.5859	3079.2308	1005.05	122.05
1035.6945	3080.2438	1004.4	120.8
1035.8031	3081.2561	998.6	116.9
1035.9117	3082.2678	992.8	111.8
1036.0202	3083.2789	993.05	110.3
1036.1286	3084.2893	988	108.05
1036.2371	3085.2991	988.55	104.85
1036.3454	3086.3083	989.8	103.7
1036.4538	3087.3169	986.25	101.6
1036.562	3088.3248	985.7	102.75
1036.6703	3089.3321	980.05	96.05
1036.7785	3090.3388	972.25	90.65
1036.8866	3091.3449	976.6	93.9
1036.9948	3092.3503	976.85	93.2
1037.1028	3093.3551	970.6	87.45
1037.2108	3094.3593	968.15	87.3
1037.3188	3095.3629	969.5	88.6
1037.4267	3096.3658	969.1	85.65
1037.5346	3097.3681	968.45	86.85
1037.6425	3098.3698	969.25	83.7
1037.7503	3099.3708	971.9	83.45
1037.858	3100.3713	966.5	86.35
1037.9657	3101.3711	964	80.3
1038.0734	3102.3702	1107.6	88.35
1038.181	3103.3688	963.8	79.6
1038.2886	3104.3667	957.35	78.6
1038.3961	3105.364	959.9	78.05
1038.5036	3106.3607	961.2	76.45
1038.611	3107.3568	958	75.45
1038.7184	3108.3522	958.05	76.25
1038.8257	3109.347	956.15	71.8
1038.933	3110.3412	959.8	74.15
1039.0403	3111.3348	953.55	71.3
1039.1475	3112.3277	950.5	67.95
1039.2547	3113.32	949.35	67
1039.3618	3114.3117	949.8	67.5
1039.4689	3115.3028	949.25	67.2
1039.5759	3116.2932	952.95	68.65
1039.6829	3117.2831	954.45	67.7
1039.7898	3118.2723	949.95	67.65
1039.8967	3119.2608	947.55	66.1
1040.0035	3120.2488	944.35	61.6
1040.1103	3121.2361	947.5	64.65
1040.2171	3122.2229	943.35	61.5
1040.3238	3123.209	945.2	60.95
1040.4305	3124.1944	943.75	63.5
1040.5371	3125.1793	944.05	59.6
1040.6437	3126.1635	943.85	63.75
1040.7502	3127.1471	938.3	58.2
1040.8567	3128.1301	944.2	63.1
1040.9631	3129.1125	938.2	57.1
1041.0695	3130.0942	940.9	59.9
1041.1759	3131.0753	951.65	61.15
1041.2822	3132.0558	941.75	57.05
1041.3884	3133.0357	941.65	58.4
1041.4946	3134.015	937.3	55.65
1041.6008	3134.9936	937.75	55.4
1041.7069	3135.9716	956.35	52.5
1041.813	3136.949	936	54.45
1041.919	3137.9258	956.8	56.95
1042.025	3138.902	942.25	55.15
1042.1309	3139.8775	936.1	54.9
1042.2368	3140.8524	938.95	56
1042.3427	3141.8267	937.75	54.45
1042.4485	3142.8004	934.55	51.9
1042.5542	3143.7735	937.35	49.85
1042.6599	3144.7459	936.15	51.35
1042.7656	3145.7178	937.3	55.3
1042.8712	3146.689	933.75	53.05
1042.9768	3147.6596	932.35	47.75
1043.0823	3148.6295	934.4	50.65
1043.1878	3149.5989	930.25	48.7
1043.2932	3150.5676	931.95	50.4
1043.3986	3151.5357	927.6	49.35
1043.5039	3152.5032	930.6	51.05
1043.6092	3153.4701	930.35	48.2
1043.7145	3154.4364	931	47.3
1043.8197	3155.402	927.7	46.2
1043.9248	3156.367	927.3	43.7
1044.03	3157.3315	949.35	47.85
1044.135	3158.2952	930.2	47.15
1044.24	3159.2584	926	43.15
1044.345	3160.221	928.8	46.75
1044.4499	3161.1829	927.65	48.6
1044.5548	3162.1442	923.5	41.4
1044.6596	3163.105	926.55	44.15
1044.7644	3164.065	925.3	44.05
1044.8692	3165.0245	930.1	46.7
1044.9739	3165.9834	923.25	43.9
1045.0785	3166.9416	925.75	44.65
1045.1831	3167.8993	924.55	42.3
1045.2877	3168.8563	925.9	42.3
1045.3922	3169.8127	924.15	42.6
1045.4966	3170.7684	925.75	43.7
1045.6011	3171.7236	923	41.35
1045.7054	3172.6782	925.55	43.4
1045.8098	3173.6321	925.05	44.45
1045.914	3174.5854	928	41.15
1046.0183	3175.5381	924.25	43.95
1046.1224	3176.4902	922	41.8
1046.2266	3177.4417	923.3	43.5
1046.3307	3178.3926	920.9	40.35
1046.4347	3179.3428	921	40.7
1046.5387	3180.2924	918.65	37.15
1046.6427	3181.2415	921.65	39.05
1046.7466	3182.1899	922.45	40
1046.8504	3183.1377	919.7	38.9
1046.9542	3184.0848	924.75	39
1047.058	3185.0314	923.3	41.75
1047.1617	3185.9773	919.75	35.7
1047.2654	3186.9227	922	37.9
1047.369	3187.8674	919.3	37.65
1047.4726	3188.8115	921.95	34.6
1047.5761	3189.755	918.45	36.05
1047.6796	3190.6979	916.8	35.45
1047.783	3191.6402	915.65	35.35
1047.8864	3192.5818	919.7	38.65
1047.9898	3193.5229	941.35	38.3
1048.0931	3194.4633	915.6	34.55
1048.1963	3195.4031	918.05	35.9
1048.2995	3196.3423	920.45	38.65
1048.4027	3197.2809	916.3	34.05
1048.5058	3198.2189	918.6	36.4
1048.6089	3199.1563	925.15	37
1048.7119	3200.0931	917.2	39.15
1048.8148	3201.0292	914.25	33.2
1048.9178	3201.9648	918	35.5
1049.0206	3202.8997	917.05	32.65
1049.1235	3203.834	916.6	34.15
1049.2262	3204.7677	915.75	34.25
1049.329	3205.7008	917.65	34.3
1049.4317	3206.6333	915.1	34.95
1049.5343	3207.5652	917.8	34.4
1049.6369	3208.4964	915.95	33.75
1049.7394	3209.4271	914.45	35.25
1049.8419	3210.3571	914.3	32.75
1049.9444	3211.2865	917.6	34.9
1050.0468	3212.2154	917.65	36.6
1050.1491	3213.1436	915.3	31.45
1050.2514	3214.0712	920.05	33.6
1050.3537	3214.9982	914.4	31.2
1050.4559	3215.9246	912.9	30.25
1050.5581	3216.8503	913.45	32.25
1050.6602	3217.7755	912.95	31.8
1050.7623	3218.7001	911	29.25
1050.8643	3219.624	912.05	31.05
1050.9663	3220.5473	909.9	28.35
1051.0682	3221.4701	911.65	29.65
1051.1701	3222.3922	913.25	28.35
1051.2719	3223.3137	912.15	30.4
1051.3737	3224.2346	912.1	29
1051.4754	3225.1549	913.05	31.2
1051.5771	3226.0746	909.85	28.75
1051.6788	3226.9937	908.3	25.35
1051.7804	3227.9121	910.1	28.65
1051.8819	3228.83	908	27.8
1051.9834	3229.7473	910.65	28.75
1052.0849	3230.6639	911.25	28.35
1052.1863	3231.5799	909.65	28.45
1052.2876	3232.4954	911.15	28.15
1052.3889	3233.4102	909.35	28.05
1052.4902	3234.3244	912.75	31.45
1052.5914	3235.238	910.15	30.55
1052.6926	3236.151	934.3	29.7
1052.7937	3237.0634	910.45	29.55
1052.8948	3237.9752	907.7	25.5
1052.9958	3238.8864	909.45	26.85
1053.0968	3239.797	909.15	26.65
1053.1977	3240.7069	910.25	28.45
1053.2986	3241.6163	910.8	27.35
1053.3994	3242.5251	905.65	26.05
1053.5002	3243.4332	908.05	26.2
1053.6009	3244.3408	908.25	27.75
1053.7016	3245.2477	907.6	26.25
1053.8022	3246.154	909.25	26.75
1053.9028	3247.0598	908.65	25.55
1054.0034	3247.9649	906.9	23.8
1054.1039	3248.8694	906.4	24.55
1054.2043	3249.7733	908.45	25.95
1054.3047	3250.6766	907.95	26.75
1054.4051	3251.5793	907.15	26.7
1054.5054	3252.4814	904	22.4
1054.6056	3253.3829	906.6	25.4
1054.7058	3254.2838	906.2	25
1054.806	3255.1841	904.65	24.6
1054.9061	3256.0838	903.9	23.6
1055.0061	3256.9829	904.75	24.3
1055.1062	3257.8814	904.4	21.9
1055.2061	3258.7792	905.9	20.5
1055.306	3259.6765	907.45	24.8
1055.4059	3260.5731	904.3	24.7
1055.5057	3261.4692	904.4	22.15
1055.6055	3262.3647	903.9	20.65
1055.7052	3263.2595	904.75	22.65
1055.8049	3264.1538	901.15	20
1055.9045	3265.0474	901.45	18.55
1056.0041	3265.9404	900.9	20
1056.1036	3266.8329	901.3	19.45
1056.2031	3267.7247	910.6	18.65
1056.3025	3268.616	900.05	21.25
1056.4019	3269.5066	900.25	17.1
1056.5013	3270.3966	901.25	17.5
1056.6005	3271.286	899.65	19.9
