Software Version:	3.9.2.0
Unit SN:	10000200
Spectrometer SN:	6960
Date:	3/14/2024 12:48:41 PM
Data Line Index:	25
Spectral Points:	2048
Integration time (ms):	125
Averages:	20
Delay (ms):	30000
Sequence Number:	1
Processing:	dark subtract
Laser Power (mW):	300
Laser Current (mA):	823
Laser Diode Temp (C):	25.1
Laser Case Temp (C):	27.5
System Temp (C):	27.5
Spectrometer Temp (C):	25.2
CCD Temp (C):	0.009
Secondary Temp (C):	20.003
Heatsink Temp (C):	23.42
CCDPCB Temp (C):	37.063
SecondaryPCB Temp (C):	34.673

Wavelength	RamanShift	Raw Counts	Dark Subtracted
787.061	30.1047	416.35	4.55
787.2016	32.3739	416.25	6.85
787.3422	34.6426	418.5	6.65
787.4828	36.9109	418.45	4.55
787.6235	39.1787	424.3	7.6
787.7642	41.4461	426.95	5.7
787.9049	43.7131	432.45	6.7
788.0456	45.9796	436.15	7.35
788.1863	48.2456	439.4	7
788.3271	50.5112	447.5	7.95
788.4679	52.7764	448.05	7.7
788.6087	55.0411	451.75	8.2
788.7496	57.3054	457.75	10.4
788.8904	59.5692	461.25	11.65
789.0313	61.8326	465.45	11.8
789.1722	64.0955	473.2	16.7
789.3132	66.3579	478.2	16.5
789.4541	68.6199	484.35	19.4
789.5951	70.8815	493.9	26.2
789.7361	73.1426	507.3	35.55
789.8771	75.4032	537.2	61.3
790.0181	77.6634	596.4	116.2
790.1592	79.9231	733.2	249.3
790.3003	82.1824	1024.4	534
790.4414	84.4412	1520.9	1022.85
790.5825	86.6995	2152.1	1644.95
790.7237	88.9574	2802.3	2286.55
790.8648	91.2148	3245.05	2722.6
791.006	93.4717	3458.75	2931.1
791.1472	95.7282	3528.55	2998.85
791.2885	97.9842	3529.1	2998.95
791.4297	100.2398	3503.3	2968.7
791.571	102.4949	3488.85	2950.2
791.7123	104.7495	3470.45	2926.9
791.8536	107.0036	3444.8	2900.25
791.9949	109.2573	3388	2846.25
792.1363	111.5105	3351.35	2805.8
792.2777	113.7632	3308.1	2761.85
792.4191	116.0154	3249.15	2692.85
792.5605	118.2672	3183.4	2631.8
792.7019	120.5185	3118.85	2566.5
792.8434	122.7693	3055.65	2500.9
792.9849	125.0197	3016.1	2458.95
793.1264	127.2696	2973.3	2415.6
793.2679	129.519	2963.8	2402.65
793.4094	131.7679	2946.3	2383.15
793.551	134.0163	2930.55	2364.55
793.6926	136.2642	2923.45	2351.1
793.8342	138.5117	2931.6	2353.55
793.9758	140.7587	2904.55	2328.15
794.1175	143.0052	2880.6	2301.6
794.2591	145.2512	2838.8	2259.05
794.4008	147.4967	2806.85	2225.45
794.5425	149.7417	2802.8	2218.2
794.6842	151.9863	2771.45	2187
794.826	154.2304	2764.35	2175.55
794.9677	156.4739	2752.15	2158.55
795.1095	158.717	2757.7	2165.2
795.2513	160.9596	2767.95	2168.85
795.3931	163.2017	2786.85	2188.55
795.535	165.4433	2789.8	2185.1
795.6768	167.6844	2788.05	2182.35
795.8187	169.925	2766.3	2155.7
795.9606	172.1651	2735.4	2121.75
796.1025	174.4047	2705.4	2089.25
796.2445	176.6439	2685.15	2066.6
796.3864	178.8825	2657.8	2038.95
796.5284	181.1206	2659.9	2036.15
796.6704	183.3582	2645.55	2018.05
796.8124	185.5954	2654.15	2024.75
796.9544	187.832	2635	2001.95
797.0965	190.0681	2643.85	2009.85
797.2386	192.3037	2645.9	2006.65
797.3806	194.5388	2643.45	2003.75
797.5228	196.7734	2646.95	2001.8
797.6649	199.0075	2657.65	2008.15
797.807	201.2411	2669.3	2019.15
797.9492	203.4742	2681.8	2032.9
798.0914	205.7068	2691.6	2041.1
798.2336	207.9389	2704.6	2051.55
798.3758	210.1704	2725.35	2070.7
798.518	212.4015	2708.1	2050.75
798.6603	214.632	2719.55	2060
798.8025	216.862	2716.25	2059
798.9448	219.0915	2701.05	2051.9
799.0871	221.3205	2708.15	2062.5
799.2294	223.549	2706.65	2068.25
799.3718	225.777	2701.6	2063.9
799.5141	228.0044	2685.6	2042.65
799.6565	230.2314	2690.4	2051.85
799.7989	232.4578	2670.15	2034.2
799.9413	234.6837	2675	2028.3
800.0837	236.909	2656.1	2007.9
800.2262	239.1339	2671.25	1998.95
800.3687	241.3582	2656.8	2000.25
800.5111	243.582	2661.9	1979
800.6536	245.8053	2660.3	1983.2
800.7961	248.0281	2651.2	1980.7
800.9387	250.2503	2654.95	1979.5
801.0812	252.472	2668.05	1985.7
801.2238	254.6932	2677	1995.35
801.3664	256.9139	2664.45	1976.85
801.509	259.134	2680.5	1989.1
801.6516	261.3536	2694.65	2007.5
801.7942	263.5727	2721.05	2026.9
801.9369	265.7912	2737.2	2047.55
802.0795	268.0092	2763.4	2072.2
802.2222	270.2267	2781.15	2089.2
802.3649	272.4436	2806.9	2112
802.5076	274.6601	2831.85	2126.85
802.6504	276.8759	2838.2	2140.1
802.7931	279.0913	2861.8	2166.15
802.9359	281.3061	2860.7	2162.4
803.0787	283.5204	2877.5	2173.95
803.2215	285.7341	2887.5	2181.6
803.3643	287.9473	2897.8	2188.85
803.5071	290.16	2895.25	2181.8
803.6499	292.3721	2864.2	2156.55
803.7928	294.5837	2839.1	2129.3
803.9357	296.7947	2803.45	2095.9
804.0786	299.0052	2793.6	2086.15
804.2215	301.2152	2790	2078.1
804.3644	303.4246	2770.7	2061.4
804.5074	305.6334	2765.1	2057.2
804.6503	307.8418	2754.75	2041.3
804.7933	310.0495	2735.25	2023.5
804.9363	312.2568	2709.35	1994.5
805.0793	314.4635	2684.2	1968.25
805.2223	316.6696	2649	1932.9
805.3653	318.8752	2623.75	1899
805.5084	321.0802	2589.75	1872.4
805.6514	323.2847	2586.65	1867.7
805.7945	325.4887	2581.25	1862.6
805.9376	327.692	2592.3	1872.3
806.0807	329.8949	2617.8	1896.45
806.2238	332.0972	2636.45	1912.55
806.367	334.2989	2664.3	1934.8
806.5101	336.5001	2644.8	1916.05
806.6533	338.7007	2641	1913.15
806.7965	340.9008	2607.7	1878.15
806.9397	343.1003	2565.95	1831.95
807.0829	345.2992	2547.05	1814.25
807.2261	347.4976	2520.1	1784.55
807.3693	349.6955	2498	1760.05
807.5126	351.8927	2481.8	1741.1
807.6559	354.0895	2474.35	1726.15
807.7991	356.2856	2460.85	1717.85
807.9424	358.4812	2445	1704.6
808.0857	360.6763	2456.15	1713.9
808.2291	362.8707	2449.5	1706.45
808.3724	365.0646	2435.95	1688.6
808.5158	367.258	2447.05	1700.9
808.6591	369.4508	2449.3	1699.3
808.8025	371.643	2471.3	1721.35
808.9459	373.8346	2469.95	1716.05
809.0893	376.0257	2506.35	1750
809.2327	378.2162	2514.1	1757.65
809.3762	380.4062	2524.9	1764.6
809.5196	382.5956	2498.75	1738.55
809.6631	384.7844	2471.4	1708.9
809.8066	386.9726	2448.8	1686.5
809.9501	389.1603	2430.9	1667.55
810.0936	391.3474	2436.2	1639.6
810.2371	393.5339	2414.9	1652.4
810.3806	395.7199	2396.65	1637.25
810.5241	397.9052	2410.15	1653.2
810.6677	400.09	2428	1674.5
810.8113	402.2743	2456.45	1703.15
810.9548	404.4579	2474.15	1723.7
811.0984	406.641	2490.8	1736.9
811.2421	408.8235	2518.9	1762.9
811.3857	411.0054	2553.25	1798.05
811.5293	413.1868	2619.5	1860.75
811.673	415.3675	2688.6	1930.2
811.8166	417.5477	2709.8	1949.45
811.9603	419.7273	2637	1872.1
812.104	421.9064	2545.2	1775.7
812.2477	424.0848	2495.1	1727.85
812.3914	426.2627	2454.05	1683.7
812.5351	428.4399	2415.9	1643.9
812.6788	430.6166	2366.9	1591.25
812.8226	432.7928	2350.35	1572.95
812.9663	434.9683	2320.4	1544.7
813.1101	437.1432	2303.85	1526
813.2539	439.3176	2278.3	1495.95
813.3977	441.4914	2278.55	1497.45
813.5415	443.6645	2285.45	1501.25
813.6853	445.8371	2277.25	1492.95
813.8291	448.0091	2261.1	1479.7
813.973	450.1806	2257.25	1472.3
814.1168	452.3514	2246.85	1462.55
814.2607	454.5216	2249.55	1456.1
814.4046	456.6913	2248.75	1460.65
814.5485	458.8603	2248.65	1460.65
814.6924	461.0288	2236.95	1450.95
814.8363	463.1967	2244.35	1456.6
814.9802	465.3639	2239.25	1451.2
815.1241	467.5306	2235	1444.95
815.2681	469.6967	2222.1	1433.1
815.412	471.8622	2222.65	1431.2
815.556	474.0271	2222.2	1432.85
815.7	476.1914	2211.3	1418.05
815.844	478.3551	2208.55	1417.5
815.988	480.5182	2206.85	1413.6
816.132	482.6807	2210.65	1414.7
816.276	484.8426	2220.55	1427.35
816.4201	487.0039	2238.35	1445.15
816.5641	489.1647	2274.4	1480.55
816.7082	491.3248	2304.5	1509.5
816.8522	493.4843	2305.45	1512.65
816.9963	495.6432	2295.3	1500.85
817.1404	497.8015	2272.4	1472.4
817.2845	499.9592	2246.3	1448.55
817.4286	502.1163	2224.35	1427.45
817.5727	504.2728	2191.55	1390.4
817.7168	506.4287	2181.05	1382
817.861	508.5839	2167.05	1366.85
818.0051	510.7386	2161.2	1361.4
818.1493	512.8927	2161.1	1355.05
818.2935	515.0461	2168.2	1367.15
818.4377	517.199	2169.35	1368.95
818.5818	519.3512	2190.4	1388.35
818.726	521.5029	2235.9	1430.25
818.8703	523.6539	2264.75	1460.3
819.0145	525.8043	2260.75	1457.8
819.1587	527.9541	2234.6	1427.5
819.303	530.1033	2194.1	1389.25
819.4472	532.2519	2155.35	1348.25
819.5915	534.3999	2150.75	1341.6
819.7357	536.5472	2145.7	1338
819.88	538.694	2140.95	1333.65
820.0243	540.8401	2154.1	1345.4
820.1686	542.9856	2161.1	1349.5
820.3129	545.1305	2170.05	1358.2
820.4572	547.2748	2168.5	1356.3
820.6016	549.4185	2171	1357.55
820.7459	551.5615	2177.25	1366.05
820.8902	553.704	2195.7	1381.45
821.0346	555.8458	2194.2	1382.1
821.1789	557.987	2210.2	1396
821.3233	560.1276	2231.25	1416.1
821.4677	562.2675	2254.45	1440.4
821.6121	564.4069	2291.9	1479.65
821.7565	566.5456	2311.8	1498.35
821.9009	568.6837	2297.3	1482.5
822.0453	570.8212	2252.1	1438.35
822.1897	572.958	2212.9	1394.05
822.3342	575.0942	2187.4	1375.3
822.4786	577.2299	2169.4	1351.5
822.6231	579.3648	2142.25	1327.6
822.7675	581.4992	2127.35	1310
822.912	583.6329	2125.9	1308.9
823.0565	585.766	2135.8	1318.6
823.201	587.8985	2160.95	1343.95
823.3454	590.0304	2178.65	1350.2
823.4899	592.1616	2197.15	1378
823.6345	594.2922	2202.2	1385.75
823.779	596.4222	2175.45	1355.6
823.9235	598.5515	2123.7	1303.95
824.068	600.6802	2100.95	1281.55
824.2126	602.8083	2079.25	1257.45
824.3571	604.9358	2065.4	1243.15
824.5017	607.0626	2074.75	1251.9
824.6462	609.1888	2068.9	1246.2
824.7908	611.3144	2090.3	1265.2
824.9354	613.4393	2095.25	1272.35
825.08	615.5636	2124.9	1301.15
825.2246	617.6873	2162.55	1338.05
825.3692	619.8103	2177.15	1351.45
825.5138	621.9327	2182.65	1356.4
825.6584	624.0544	2147.15	1321.05
825.803	626.1756	2115.45	1290.3
825.9477	628.2961	2092.6	1264.2
826.0923	630.4159	2084.05	1258.5
826.237	632.5351	2072.05	1245.05
826.3816	634.6537	2062.2	1236.5
826.5263	636.7716	2051	1222.6
826.6709	638.8889	2059.2	1231.45
826.8156	641.0056	2058.05	1230.85
826.9603	643.1216	2063.65	1232.1
827.105	645.237	2080.45	1248.8
827.2497	647.3518	2046.85	1214.8
827.3944	649.4659	2043.4	1211.65
827.5391	651.5793	2026	1194.1
827.6838	653.6922	2013.8	1181.55
827.8285	655.8043	2001.15	1168.9
827.9733	657.9159	1995.2	1162.65
828.118	660.0268	1987.45	1151.45
828.2627	662.137	1982.85	1149.35
828.4075	664.2466	1991.65	1155.55
828.5522	666.3556	1981.15	1147.45
828.697	668.4639	1982.45	1146.25
828.8418	670.5716	1975.85	1140.15
828.9865	672.6786	1979.55	1144.9
829.1313	674.785	1966	1129
829.2761	676.8907	1964.75	1127.75
829.4209	678.9958	1965.25	1130.75
829.5657	681.1002	1967.1	1130.35
829.7105	683.204	1962	1119.6
829.8553	685.3072	1952.85	1115.95
830.0001	687.4097	1950.95	1114.2
830.1449	689.5115	1968.15	1127.3
830.2898	691.6127	1952.6	1114.2
830.4346	693.7132	1950.05	1111.8
830.5794	695.8131	1967.2	1113.35
830.7243	697.9123	1958	1118.05
830.8691	700.0109	1952.1	1112.7
831.014	702.1089	1960.85	1121.1
831.1588	704.2061	1964.7	1126.25
831.3037	706.3028	1986.4	1144.8
831.4486	708.3987	1990.6	1148.8
831.5935	710.4941	2005.15	1164.1
831.7383	712.5887	1997.35	1155.65
831.8832	714.6827	1991.4	1144.75
832.0281	716.7761	1995.85	1153.75
832.173	718.8688	1996.5	1153.9
832.3179	720.9608	1987.6	1139.95
832.4628	723.0522	2000.8	1153.2
832.6077	725.1429	2006.1	1162.8
832.7527	727.233	2033.25	1188.5
832.8976	729.3224	2074	1230
833.0425	731.4112	2090.45	1245.8
833.1874	733.4993	2118.15	1272.55
833.3324	735.5867	2090.55	1245.3
833.4773	737.6735	2040.35	1194.05
833.6222	739.7596	2005.55	1159
833.7672	741.845	1999.05	1152.3
833.9122	743.9298	2005.45	1155.95
834.0571	746.014	2010.7	1162.3
834.2021	748.0974	2023.5	1174.55
834.347	750.1802	2028.45	1180.35
834.492	752.2624	2011.9	1165.25
834.637	754.3439	2003.15	1155.15
834.782	756.4247	1981.75	1123.35
834.9269	758.5048	1967.45	1118.7
835.0719	760.5843	1974.6	1126.25
835.2169	762.6631	2001.3	1151.95
835.3619	764.7413	2025.55	1178.5
835.5069	766.8188	2070.8	1219.85
835.6519	768.8956	2111.4	1259.4
835.7969	770.9718	2146.9	1297.5
835.9419	773.0473	2129.1	1280.55
836.0869	775.1221	2106.8	1259.9
836.232	777.1962	2114.65	1265.3
836.377	779.2697	2137.35	1285.5
836.522	781.3426	2208.75	1347.25
836.667	783.4147	2243.7	1391.6
836.8121	785.4862	2227.25	1377.3
836.9571	787.557	2171	1320.25
837.1021	789.6271	2090.45	1236.25
837.2472	791.6966	2014.05	1162.45
837.3922	793.7654	1963.1	1110.05
837.5373	795.8335	1921.75	1070.6
837.6823	797.901	1910.8	1058.75
837.8274	799.9678	1910.6	1056.75
837.9724	802.0339	1911	1060.9
838.1175	804.0993	1919.95	1057.7
838.2626	806.1641	1907.65	1052.35
838.4076	808.2282	1892.3	1036.2
838.5527	810.2916	1875.85	1022.7
838.6978	812.3544	1875.5	1023.05
838.8428	814.4164	1853.25	1000.2
838.9879	816.4778	1871.8	1015.55
839.133	818.5385	1872.8	1017.25
839.2781	820.5986	1891.75	1038.55
839.4232	822.658	1921.15	1063.75
839.5682	824.7166	1952.1	1099.15
839.7133	826.7747	2012.5	1157.4
839.8584	828.832	2052.85	1195.35
840.0035	830.8886	2082.5	1225.2
840.1486	832.9446	2100.2	1242.45
840.2937	834.9999	2073.3	1220.15
840.4388	837.0545	2034.75	1174.25
840.5839	839.1085	1979	1122.55
840.729	841.1618	1937.15	1077.9
840.8741	843.2143	1904.6	1047.65
841.0192	845.2662	1879	1022.8
841.1643	847.3175	1875	1019.25
841.3095	849.368	1864.45	1008.4
841.4546	851.4179	1872.4	1017.8
841.5997	853.467	1860.95	1004.85
841.7448	855.5155	1872.65	1015.5
841.8899	857.5633	1864.7	1007.65
842.0351	859.6105	1862.65	1006.55
842.1802	861.6569	1847.8	990.1
842.3253	863.7027	1844.9	983.9
842.4704	865.7478	1827.55	967.85
842.6156	867.7922	1821.8	964.35
842.7607	869.8359	1823.5	964.35
842.9058	871.8789	1816.8	955.6
843.0509	873.9212	1854.25	960.55
843.1961	875.9629	1818.3	961
843.3412	878.0039	1823.05	962.85
843.4863	880.0441	1833.2	974
843.6315	882.0837	1842.35	980.3
843.7766	884.1226	1862.65	1000.6
843.9218	886.1609	1879.7	1020.55
844.0669	888.1984	1899.7	1040.3
844.212	890.2352	1930.5	1071.65
844.3572	892.2714	1932.05	1067.4
844.5023	894.3069	1918.6	1056.2
844.6475	896.3416	1889.15	1027.1
844.7926	898.3757	1856.6	994.65
844.9377	900.4091	1843	980.25
845.0829	902.4418	1847.75	982.15
845.228	904.4739	1856.65	994.5
845.3732	906.5052	1880.1	1017.85
845.5183	908.5358	1879.35	1017.95
845.6635	910.5658	1858.55	994.55
845.8086	912.595	1834	971.75
845.9538	914.6236	1805.65	942.85
846.0989	916.6515	1786.55	925.35
846.2441	918.6786	1780.25	914.85
846.3892	920.7051	1759.55	895.8
846.5344	922.7309	1774.2	911.6
846.6795	924.756	1770.75	907.95
846.8246	926.7804	1768.2	902.1
846.9698	928.8041	1773.55	907.8
847.1149	930.8272	1787.25	923.7
847.2601	932.8495	1789.8	923.55
847.4052	934.8711	1787.5	922.8
847.5504	936.892	1790.55	927.2
847.6955	938.9123	1806.15	942.15
847.8407	940.9318	1818.7	954.85
847.9858	942.9506	1824.15	958.65
848.131	944.9688	1822.1	957.8
848.2761	946.9862	1792.9	927.4
848.4213	949.003	1779.65	914.6
848.5664	951.019	1762.25	897.6
848.7115	953.0344	1759.75	893.2
848.8567	955.0491	1746.3	877.9
849.0018	957.063	1742.7	876.2
849.147	959.0763	1733.15	868.45
849.2921	961.0888	1725.85	859.1
849.4373	963.1007	1733.4	866.55
849.5824	965.1119	1720.15	852.95
849.7275	967.1223	1729.85	863.9
849.8727	969.1321	1721.85	857.1
850.0178	971.1412	1708.75	841.05
850.1629	973.1495	1714.8	848.85
850.3081	975.1572	1749.4	840.95
850.4532	977.1641	1706.7	839.25
850.5983	979.1704	1706.05	837.65
850.7435	981.1759	1703.55	833
850.8886	983.1808	1698.75	830.4
851.0337	985.1849	1702.3	823.7
851.1788	987.1884	1692.4	821.65
851.324	989.1911	1700.9	828.05
851.4691	991.1932	1699.75	832
851.6142	993.1945	1703.65	836.1
851.7593	995.1951	1692.4	823.45
851.9045	997.1951	1694.1	819.75
852.0496	999.1943	1681.05	813.35
852.1947	1001.1928	1684.9	813.95
852.3398	1003.1906	1694.9	826.75
852.4849	1005.1877	1703.2	834.8
852.63	1007.1841	1711.75	843.45
852.7751	1009.1798	1718.3	849.8
852.9202	1011.1748	1713.1	843.5
853.0653	1013.1691	1702.95	832.6
853.2104	1015.1627	1676.5	807.35
853.3555	1017.1556	1652.7	784.5
853.5006	1019.1477	1646.9	776.05
853.6457	1021.1392	1625.85	758.2
853.7908	1023.1299	1625.15	756.7
853.9359	1025.12	1625.8	754.25
854.081	1027.1093	1623.65	754.4
854.2261	1029.0979	1635.85	767.75
854.3712	1031.0859	1640.55	770.65
854.5163	1033.0731	1653.2	782.2
854.6613	1035.0596	1655.1	785.25
854.8064	1037.0454	1644	775
854.9515	1039.0304	1629.3	757.35
855.0965	1041.0148	1617.35	747.25
855.2416	1042.9985	1608.45	737.5
855.3867	1044.9814	1602.25	732.9
855.5317	1046.9636	1595.65	722.75
855.6768	1048.9452	1596	725.25
855.8219	1050.926	1605.8	736.95
855.9669	1052.9061	1614.7	744.35
856.112	1054.8855	1614.15	743.55
856.257	1056.8642	1617.35	746.7
856.4021	1058.8421	1616.65	740.85
856.5471	1060.8194	1611.55	740.85
856.6921	1062.7959	1610.65	739.15
856.8372	1064.7717	1601.05	728.8
856.9822	1066.7469	1603.7	732.05
857.1272	1068.7213	1604.9	731.85
857.2723	1070.695	1606.85	736.2
857.4173	1072.6679	1615.35	743.3
857.5623	1074.6402	1633.75	760.9
857.7073	1076.6117	1644.05	764.8
857.8523	1078.5826	1621.3	750
857.9973	1080.5527	1613.3	739.7
858.1423	1082.5221	1583.35	709.6
858.2873	1084.4908	1560.1	686.05
858.4323	1086.4587	1561.5	690.35
858.5773	1088.426	1546.6	673.5
858.7223	1090.3925	1547.6	668.9
858.8673	1092.3584	1552.65	678.7
859.0123	1094.3235	1545	672.8
859.1573	1096.2879	1568.55	694.85
859.3022	1098.2515	1571.8	698.6
859.4472	1100.2145	1588.7	717.35
859.5922	1102.1767	1601.15	726.55
859.7371	1104.1382	1626.5	752.3
859.8821	1106.099	1653.15	776.2
860.027	1108.0591	1677.8	805.95
860.172	1110.0185	1706.45	829.05
860.3169	1111.9771	1717.15	843.2
860.4619	1113.9351	1742.25	869.9
860.6068	1115.8923	1779.5	905.3
860.7517	1117.8488	1786.7	910.45
860.8967	1119.8045	1763.45	888.8
861.0416	1121.7596	1708.3	831.85
861.1865	1123.7139	1655.75	780.85
861.3314	1125.6675	1604.85	728.5
861.4763	1127.6204	1613.5	739.4
861.6212	1129.5726	1622.3	746.3
861.7661	1131.524	1626	752.2
861.911	1133.4748	1597.35	723
862.0559	1135.4248	1566.85	690.3
862.2008	1137.3741	1532.3	658.8
862.3457	1139.3226	1524	648
862.4905	1141.2705	1518.6	644.65
862.6354	1143.2176	1528.2	645.9
862.7803	1145.164	1529.1	652.9
862.9251	1147.1097	1525.3	650.8
863.07	1149.0546	1512.15	635.6
863.2148	1150.9989	1501.15	625.5
863.3597	1152.9424	1485.95	609.7
863.5045	1154.8852	1478.5	602.15
863.6493	1156.8272	1471.3	595.85
863.7942	1158.7686	1479.95	596.5
863.939	1160.7092	1474	600.05
864.0838	1162.6491	1473.05	593.85
864.2286	1164.5883	1480.4	605.2
864.3734	1166.5267	1485.2	608.05
864.5182	1168.4644	1503	626.95
864.663	1170.4014	1511.45	631.45
864.8078	1172.3377	1536.35	661.2
864.9526	1174.2732	1562.05	686.35
865.0974	1176.2081	1604.95	728.6
865.2421	1178.1421	1674.45	796.45
865.3869	1180.0755	1739.3	863.45
865.5317	1182.0082	1773.9	895.5
865.6764	1183.9401	1764.1	887.45
865.8212	1185.8713	1701.2	823.8
865.9659	1187.8017	1635	757.6
866.1106	1189.7315	1579	701.2
866.2554	1191.6605	1549.15	644.15
866.4001	1193.5888	1501.9	624.8
866.5448	1195.5163	1485.3	608.75
866.6895	1197.4432	1472.3	594.4
866.8342	1199.3693	1462.6	586.65
866.9789	1201.2947	1460.5	576.2
867.1236	1203.2193	1452.55	577.1
867.2683	1205.1432	1444.55	566.75
867.413	1207.0664	1439.1	561.15
867.5576	1208.9889	1447.45	566.45
867.7023	1210.9106	1440.6	563.9
867.847	1212.8316	1445.25	568.95
867.9916	1214.7519	1460.05	573.9
868.1363	1216.6715	1453.3	577
868.2809	1218.5903	1459.7	582.15
868.4255	1220.5084	1461.85	583.6
868.5701	1222.4257	1477.45	599.15
868.7148	1224.3424	1468.6	591.15
868.8594	1226.2583	1491.4	608.95
869.004	1228.1735	1497.35	618.8
869.1486	1230.0879	1514.8	635.8
869.2932	1232.0016	1544.7	665.15
869.4377	1233.9146	1555.5	675.85
869.5823	1235.8269	1563.6	686.7
869.7269	1237.7384	1558.4	680.65
869.8715	1239.6492	1555.2	678.25
870.016	1241.5592	1565.95	685.55
870.1606	1243.4686	1594.85	717.6
870.3051	1245.3772	1627.1	751.3
870.4496	1247.285	1677.7	799.9
870.5941	1249.1922	1727.9	847.1
870.7387	1251.0986	1761.55	885.15
870.8832	1253.0042	1795.35	916.15
871.0277	1254.9092	1839.8	959.6
871.1722	1256.8134	1892.45	1013.6
871.3167	1258.7169	1936.95	1056
871.4611	1260.6196	1946.85	1068.3
871.6056	1262.5216	1951.1	1071.2
871.7501	1264.4229	1948.75	1067.9
871.8945	1266.3234	1928.3	1048.95
872.039	1268.2232	1899.85	1020.55
872.1834	1270.1223	1872.85	992.45
872.3278	1272.0207	1845.25	965.15
872.4723	1273.9183	1845.4	959.65
872.6167	1275.8151	1842.45	962.95
872.7611	1277.7113	1857.95	977.45
872.9055	1279.6067	1914.1	1034.1
873.0499	1281.5014	1992.65	1111.9
873.1943	1283.3953	2078.7	1198.05
873.3386	1285.2885	2173.35	1295.55
873.483	1287.181	2253.85	1370.6
873.6274	1289.0727	2292.45	1412.9
873.7717	1290.9637	2256	1374.05
873.9161	1292.854	2206.9	1328.2
874.0604	1294.7435	2127.3	1247.15
874.2047	1296.6323	2065.3	1185.3
874.349	1298.5204	2018.6	1136.65
874.4933	1300.4077	1982.5	1103.5
874.6376	1302.2943	1943.95	1065.6
874.7819	1304.1802	1935.5	1054.45
874.9262	1306.0653	1912.75	1031.9
875.0705	1307.9497	1889	1008.1
875.2147	1309.8333	1876.9	996.95
875.359	1311.7162	1861.1	979.4
875.5032	1313.5984	1851.75	969.5
875.6475	1315.4798	1849.15	951.75
875.7917	1317.3605	1842.55	947.45
875.9359	1319.2405	1838.05	957.3
876.0801	1321.1197	1824.6	940.2
876.2243	1322.9982	1794.45	910.35
876.3685	1324.876	1760.4	878.4
876.5127	1326.753	1700.5	817.55
876.6569	1328.6293	1660.6	780.25
876.801	1330.5048	1623.9	740.9
876.9452	1332.3796	1576.3	697.45
877.0893	1334.2537	1564.05	656.3
877.2335	1336.127	1520.4	640.35
877.3776	1337.9996	1507.2	626.05
877.5217	1339.8714	1489.05	608.6
877.6658	1341.7426	1520.15	595.8
877.8099	1343.6129	1474.4	593.15
877.954	1345.4826	1464.4	584.65
878.0981	1347.3515	1463.25	578.75
878.2422	1349.2196	1453.5	571.05
878.3862	1351.087	1447.1	566.15
878.5303	1352.9537	1446.05	565.45
878.6743	1354.8197	1435.7	555.15
878.8184	1356.6849	1448.1	565.6
878.9624	1358.5493	1459.55	576.95
879.1064	1360.4131	1465.6	584.9
879.2504	1362.276	1495.35	616.4
879.3944	1364.1383	1504.55	625
879.5384	1365.9998	1511.3	623.35
879.6823	1367.8606	1507.45	626.7
879.8263	1369.7206	1499.15	617.5
879.9702	1371.5799	1506.15	623.5
880.1142	1373.4384	1495.15	613.75
880.2581	1375.2962	1480.85	600.25
880.402	1377.1533	1454.95	571.35
880.5459	1379.0096	1429.9	547.3
880.6898	1380.8652	1404.9	523.7
880.8337	1382.7201	1394.9	513.25
880.9776	1384.5742	1373.4	491.85
881.1215	1386.4275	1368.1	485.55
881.2653	1388.2802	1358.8	478.8
881.4092	1390.132	1352.05	471.2
881.553	1391.9832	1346.95	464.8
881.6968	1393.8336	1334.4	452.65
881.8406	1395.6832	1336.65	453.75
881.9844	1397.5322	1331.45	449.15
882.1282	1399.3803	1331.75	444.2
882.272	1401.2278	1319.45	439.15
882.4158	1403.0745	1310.4	428
882.5595	1404.9204	1305.75	424.95
882.7033	1406.7656	1307.6	424.6
882.847	1408.6101	1302	418.7
882.9908	1410.4538	1305.7	426.1
883.1345	1412.2968	1299.8	418.2
883.2782	1414.139	1298	415.45
883.4219	1415.9805	1306.6	425.4
883.5656	1417.8213	1315.15	423.8
883.7092	1419.6613	1317.3	435.45
883.8529	1421.5006	1332.45	449.35
883.9965	1423.3391	1353.25	471.05
884.1402	1425.1769	1373.3	491.65
884.2838	1427.0139	1414.2	531.1
884.4274	1428.8502	1462.5	579.2
884.571	1430.6858	1495.1	612.4
884.7146	1432.5206	1503.6	621.55
884.8582	1434.3547	1496.05	611.25
885.0018	1436.188	1497.15	613.9
885.1453	1438.0206	1487.3	603.65
885.2889	1439.8524	1478.6	595.95
885.4324	1441.6835	1472.05	589.6
885.5759	1443.5139	1466.45	580.4
885.7194	1445.3435	1480.95	597.75
885.8629	1447.1724	1472	589.1
886.0064	1449.0005	1481	598.15
886.1499	1450.8279	1469.95	586.35
886.2933	1452.6545	1460.45	576.3
886.4368	1454.4804	1467.75	586.95
886.5802	1456.3056	1471.9	583.35
886.7237	1458.13	1447.05	566.6
886.8671	1459.9536	1438.1	554.85
887.0105	1461.7766	1419.75	537.6
887.1539	1463.5987	1396.4	511.7
887.2972	1465.4202	1375.8	492.35
887.4406	1467.2409	1352.6	470.2
887.584	1469.0608	1336.85	454.1
887.7273	1470.88	1324.35	440.25
887.8706	1472.6984	1303.65	424.15
888.0139	1474.5161	1294.25	406.9
888.1572	1476.3331	1281.45	397.8
888.3005	1478.1493	1283.15	399.9
888.4438	1479.9648	1281.2	398.05
888.5871	1481.7795	1278.8	394.8
888.7303	1483.5935	1280.6	396.55
888.8736	1485.4067	1275.55	392.9
889.0168	1487.2192	1276.85	394.15
889.16	1489.031	1284	399.15
889.3032	1490.842	1273.7	392.3
889.4464	1492.6522	1274.2	391.45
889.5896	1494.4618	1276.85	393.85
889.7327	1496.2705	1268.15	386.25
889.8759	1498.0785	1267	380.95
890.019	1499.8858	1265.75	382.4
890.1622	1501.6924	1258.55	377
890.3053	1503.4981	1262.5	379
890.4484	1505.3032	1250.55	366.3
890.5914	1507.1075	1248.45	364.4
890.7345	1508.911	1247.25	363.6
890.8776	1510.7138	1241.4	356.2
891.0206	1512.5159	1238.6	355.75
891.1637	1514.3172	1237.35	354.8
891.3067	1516.1178	1228.2	347.1
891.4497	1517.9176	1236.1	349.2
891.5927	1519.7166	1225.35	341.8
891.7357	1521.515	1220.5	330.6
891.8786	1523.3126	1217.7	333.8
892.0216	1525.1094	1222.05	337.05
892.1645	1526.9055	1209.15	325.85
892.3074	1528.7008	1218.3	335.9
892.4503	1530.4954	1211.35	325.75
892.5932	1532.2893	1209.55	329.25
892.7361	1534.0824	1206.75	315.9
892.879	1535.8747	1202.35	318.8
893.0218	1537.6663	1201.15	316.9
893.1647	1539.4572	1203.25	318.75
893.3075	1541.2473	1197.85	312.8
893.4503	1543.0367	1191.05	307.2
893.5931	1544.8253	1201.55	313.15
893.7359	1546.6132	1196.5	309.85
893.8787	1548.4003	1212.25	317.3
894.0214	1550.1867	1211.05	316.25
894.1642	1551.9723	1213	324.15
894.3069	1553.7572	1214.25	331.35
894.4496	1555.5414	1221.6	337.85
894.5923	1557.3247	1235.85	350.3
894.735	1559.1074	1248.85	365.9
894.8777	1560.8893	1264.2	381.6
895.0204	1562.6705	1288.8	406.4
895.163	1564.4509	1300.75	416.7
895.3056	1566.2305	1300	416.3
895.4482	1568.0094	1303.85	420.45
895.5908	1569.7876	1298.75	414.3
895.7334	1571.565	1304.8	418.95
895.876	1573.3417	1300.2	414.85
896.0186	1575.1176	1304.45	421.3
896.1611	1576.8928	1308.9	424.75
896.3036	1578.6672	1311.95	427.8
896.4461	1580.4409	1325.65	441.6
896.5886	1582.2138	1343.4	457.65
896.7311	1583.986	1366.2	481.8
896.8736	1585.7575	1376.5	491.15
897.0161	1587.5282	1391.4	506.45
897.1585	1589.2981	1403.3	519.3
897.3009	1591.0673	1410.65	527.45
897.4433	1592.8358	1406.9	525.4
897.5857	1594.6035	1411.4	524.15
897.7281	1596.3704	1407.85	523.1
897.8705	1598.1366	1397.15	512.5
898.0128	1599.9021	1383.45	499.85
898.1551	1601.6668	1369.65	481.75
898.2975	1603.4308	1358.5	474.05
898.4398	1605.194	1364	473.3
898.5821	1606.9564	1371.25	487.9
898.7243	1608.7182	1408.4	519.85
898.8666	1610.4791	1443.6	559.95
899.0088	1612.2394	1492.2	607.35
899.1511	1613.9988	1531.45	647.05
899.2933	1615.7576	1570.05	687.6
899.4355	1617.5156	1586.2	696.25
899.5776	1619.2728	1564	680.7
899.7198	1621.0293	1519.4	635.6
899.862	1622.785	1465.75	576.75
900.0041	1624.54	1408.1	522.65
900.1462	1626.2942	1354.9	470.8
900.2883	1628.0477	1308.6	420.6
900.4304	1629.8005	1272.45	384.45
900.5725	1631.5525	1238.45	354.15
900.7145	1633.3037	1218.95	334.6
900.8566	1635.0542	1197.25	311.55
900.9986	1636.804	1189.7	305.45
901.1406	1638.553	1232.45	287.45
901.2826	1640.3013	1161.5	277.95
901.4245	1642.0488	1153.4	268.15
901.5665	1643.7955	1147.85	263.05
901.7085	1645.5416	1140.4	255.8
901.8504	1647.2868	1135.15	251.3
901.9923	1649.0313	1129.65	244.9
902.1342	1650.7751	1130.35	242.15
902.2761	1652.5181	1123.95	240.2
902.4179	1654.2604	1124.7	238
902.5598	1656.0019	1125.15	240.9
902.7016	1657.7427	1130.1	245.15
902.8434	1659.4828	1136.95	254.15
902.9852	1661.222	1146.35	260.95
903.127	1662.9606	1166.05	282.8
903.2687	1664.6984	1176.3	292.7
903.4105	1666.4354	1183.45	298.8
903.5522	1668.1717	1169.55	286
903.6939	1669.9072	1154.7	270.95
903.8356	1671.642	1135.75	249.4
903.9773	1673.3761	1113.7	231.25
904.119	1675.1094	1105.3	222.6
904.2606	1676.8419	1097.6	213.65
904.4022	1678.5737	1088.85	203.8
904.5439	1680.3048	1087.15	204.15
904.6855	1682.0351	1080.45	196.85
904.827	1683.7646	1075.5	187.5
904.9686	1685.4934	1074.8	190.55
905.1101	1687.2215	1070.05	184.15
905.2517	1688.9488	1069.6	185.8
905.3932	1690.6754	1067.1	182.7
905.5347	1692.4012	1067.55	184.25
905.6761	1694.1263	1066.75	183.15
905.8176	1695.8506	1067.15	182
905.9591	1697.5742	1059.85	174.5
906.1005	1699.297	1056	171.25
906.2419	1701.0191	1056.45	170.8
906.3833	1702.7404	1056.35	173.85
906.5246	1704.461	1057.75	172.85
906.666	1706.1808	1054.7	167
906.8073	1707.8999	1053.4	169.6
906.9487	1709.6182	1052.45	166.95
907.09	1711.3358	1050.9	165.4
907.2313	1713.0527	1051.45	166.9
907.3725	1714.7688	1055.5	163.9
907.5138	1716.4841	1051	164.8
907.655	1718.1987	1051.2	161.8
907.7962	1719.9126	1049.7	165.2
907.9374	1721.6257	1050.2	161.1
908.0786	1723.338	1045.65	159.55
908.2198	1725.0496	1047.25	159.55
908.3609	1726.7605	1049.2	164.15
908.502	1728.4706	1042.65	159.1
908.6431	1730.18	1044.15	157
908.7842	1731.8886	1042.3	156.75
908.9253	1733.5964	1045.35	155.8
909.0664	1735.3036	1046.6	158.5
909.2074	1737.0099	1037.55	152.45
909.3484	1738.7156	1042.55	158.75
909.4894	1740.4204	1041.7	154
909.6304	1742.1246	1042.35	155.4
909.7714	1743.8279	1042.1	158.1
909.9123	1745.5306	1040.9	157
910.0532	1747.2325	1044.2	159.45
910.1941	1748.9336	1039.45	153.15
910.335	1750.634	1043.15	157.2
910.4759	1752.3336	1039.3	153.9
910.6168	1754.0325	1037.95	153.3
910.7576	1755.7307	1038.45	152.7
910.8984	1757.4281	1036.5	150.9
911.0392	1759.1247	1046.1	152.6
911.18	1760.8206	1040.65	150.8
911.3208	1762.5158	1040.95	153.9
911.4615	1764.2102	1032.55	147.05
911.6022	1765.9039	1032.75	146.2
911.7429	1767.5968	1037.3	150.75
911.8836	1769.289	1033.75	147.15
912.0243	1770.9804	1032.7	146.5
912.1649	1772.6711	1037.8	152.9
912.3056	1774.361	1035.1	149.65
912.4462	1776.0502	1035.6	150.95
912.5868	1777.7386	1032.8	146.55
912.7274	1779.4263	1033.95	148.65
912.8679	1781.1132	1033.85	149.65
913.0084	1782.7994	1032.9	146.45
913.149	1784.4849	1030.35	147.1
913.2895	1786.1696	1047.55	143.4
913.4299	1787.8535	1031.3	145.85
913.5704	1789.5367	1032.3	149.25
913.7108	1791.2192	1031.45	148.4
913.8513	1792.9009	1041	141.1
913.9917	1794.5818	1029.85	144.6
914.132	1796.2621	1026.55	142.1
914.2724	1797.9415	1030.65	143.55
914.4128	1799.6202	1029.3	144.6
914.5531	1801.2982	1022.35	137.95
914.6934	1802.9755	1028	140.7
914.8337	1804.6519	1026.35	140.75
914.9739	1806.3277	1023.8	139.1
915.1142	1808.0027	1027.45	141.95
915.2544	1809.6769	1026.7	142.5
915.3946	1811.3504	1026.05	141.7
915.5348	1813.0231	1022.05	135.5
915.675	1814.6951	1023.7	136.95
915.8151	1816.3664	1022.45	136.45
915.9553	1818.0369	1024.65	140.45
916.0954	1819.7067	1026	141.7
916.2355	1821.3757	1024.05	137.55
916.3755	1823.044	1022.8	138.15
916.5156	1824.7115	1017.9	131.15
916.6556	1826.3783	1017.1	133.45
916.7956	1828.0443	1018.6	133.15
916.9356	1829.7096	1020.65	134.5
917.0756	1831.3741	1020.9	132
917.2155	1833.0379	1022.85	137.05
917.3555	1834.701	1020.35	133.2
917.4954	1836.3633	1021.65	135.15
917.6353	1838.0248	1019.05	131.75
917.7751	1839.6856	1021.3	135.45
917.915	1841.3457	1017.15	133.45
918.0548	1843.005	1016.95	133.7
918.1946	1844.6636	1017.65	134.85
918.3344	1846.3214	1017.45	132.45
918.4742	1847.9785	1016.05	131
918.6139	1849.6349	1019.35	132.35
918.7537	1851.2904	1024.2	131.3
918.8934	1852.9453	1016.7	129.95
919.0331	1854.5994	1014.1	127.05
919.1727	1856.2528	1020.25	129.15
919.3124	1857.9054	1013.85	126.85
919.452	1859.5572	1012.15	127.55
919.5916	1861.2083	1012.2	127.1
919.7312	1862.8587	1012.45	127.9
919.8708	1864.5084	1012.1	125.5
920.0103	1866.1572	1011.05	127.4
920.1498	1867.8054	1012.6	127.35
920.2893	1869.4528	1012.1	127.05
920.4288	1871.0994	1011.8	126.3
920.5683	1872.7453	1011.2	126.85
920.7077	1874.3905	1014.8	123
920.8471	1876.0349	1011.3	126.7
920.9865	1877.6786	1007.05	120.6
921.1259	1879.3215	1008.1	123
921.2653	1880.9637	1012.85	125.2
921.4046	1882.6051	1007.15	120.35
921.5439	1884.2458	1012.15	125.4
921.6832	1885.8858	1008.45	122.85
921.8225	1887.525	1010.55	127.2
921.9617	1889.1634	1009.9	123.3
922.101	1890.8011	1010.5	126.55
922.2402	1892.4381	1006.5	121.8
922.3794	1894.0743	1008.65	124.95
922.5185	1895.7098	1007.1	122.5
922.6577	1897.3446	1007.25	119.25
922.7968	1898.9786	1009.95	122
922.9359	1900.6118	1001.65	116.65
923.075	1902.2443	1009.4	120.75
923.214	1903.8761	1004.65	120.2
923.3531	1905.5071	1004.65	118.1
923.4921	1907.1374	1007.75	120.95
923.6311	1908.7669	1001.1	115.55
923.77	1910.3957	1004.45	120.55
923.909	1912.0237	1005.75	119.65
924.0479	1913.651	1006.95	119.55
924.1868	1915.2776	1004.15	118.75
924.3257	1916.9034	1002.05	118.15
924.4646	1918.5285	1002.7	118.95
924.6034	1920.1528	1004.4	117.4
924.7422	1921.7764	999.95	114.15
924.881	1923.3992	1002.55	119.1
925.0198	1925.0213	1002.45	117.3
925.1586	1926.6427	995.25	112.05
925.2973	1928.2633	1104.55	108.15
925.436	1929.8832	1000.65	115.05
925.5747	1931.5023	997.05	109.85
925.7134	1933.1207	997.9	112.8
925.852	1934.7383	996.55	111.75
925.9906	1936.3552	999.15	112.8
926.1292	1937.9714	998.2	112.6
926.2678	1939.5868	1001.25	113.95
926.4064	1941.2015	994.85	110.65
926.5449	1942.8154	997	112.8
926.6834	1944.4286	996.3	111.7
926.8219	1946.041	1020.15	111.35
926.9604	1947.6528	1001.05	111.25
927.0988	1949.2637	994.65	109.3
927.2372	1950.8739	996.75	112.6
927.3756	1952.4834	994.4	107.65
927.514	1954.0921	992.65	105.35
927.6523	1955.7001	1000.2	111.85
927.7907	1957.3074	995.75	111.4
927.929	1958.9139	990.5	105.25
928.0673	1960.5197	995.9	109.65
928.2055	1962.1247	996	109.9
928.3438	1963.729	991.7	107
928.482	1965.3325	1015.3	104.2
928.6202	1966.9353	995.15	111.55
928.7584	1968.5374	991.15	106.9
928.8965	1970.1387	993.2	107.5
929.0346	1971.7393	989.95	104.75
929.1727	1973.3392	992.7	107.6
929.3108	1974.9383	991.65	107.25
929.4489	1976.5366	985.8	101
929.5869	1978.1342	990.8	103.4
929.7249	1979.7311	991.5	105.7
929.8629	1981.3273	995.55	109.8
930.0009	1982.9227	991.8	104.7
930.1388	1984.5173	985.55	99.2
930.2767	1986.1112	988.1	103.35
930.4146	1987.7044	986.5	100.3
930.5525	1989.2968	994.5	108.85
930.6904	1990.8885	989.2	101.35
930.8282	1992.4795	993.5	104.75
930.966	1994.0697	989.45	103.4
931.1038	1995.6592	986.05	101.2
931.2415	1997.2479	984.65	97.55
931.3793	1998.8359	983.2	98
931.517	2000.4232	988	103.75
931.6547	2002.0097	986.4	99.85
931.7923	2003.5955	988.7	103.7
931.93	2005.1805	988.35	100.55
932.0676	2006.7648	988	103.2
932.2052	2008.3484	988.4	102.15
932.3427	2009.9312	992.7	104.4
932.4803	2011.5133	985.5	99
932.6178	2013.0946	988.75	103.25
932.7553	2014.6752	984	97.85
932.8928	2016.2551	987.5	99.45
933.0302	2017.8342	986.5	101.3
933.1676	2019.4126	983	99.05
933.305	2020.9902	984.1	99.15
933.4424	2022.5672	987.15	101.9
933.5798	2024.1433	991.95	102.7
933.7171	2025.7188	985.15	101.2
933.8544	2027.2935	988.65	101.8
933.9917	2028.8674	983.75	97.75
934.129	2030.4406	984.8	99.8
934.2662	2032.0131	984.1	98.8
934.4034	2033.5849	985.65	94.3
934.5406	2035.1559	983.8	98.4
934.6778	2036.7261	983.65	98
934.8149	2038.2957	984.65	101.15
934.952	2039.8645	978.65	95.6
935.0891	2041.4325	984.85	96.05
935.2262	2042.9998	983.55	99.3
935.3632	2044.5664	985.1	95.95
935.5002	2046.1323	984.25	97.7
935.6372	2047.6974	979.45	94.2
935.7742	2049.2617	982.9	94.15
935.9111	2050.8254	1016.65	96.6
936.048	2052.3883	985.45	100.45
936.1849	2053.9504	982.55	96.45
936.3218	2055.5118	984.85	97.8
936.4586	2057.0725	987.45	97.6
936.5955	2058.6325	982.35	95.15
936.7323	2060.1917	981.8	97.05
936.869	2061.7502	985.85	96.75
937.0058	2063.3079	977.85	90.6
937.1425	2064.8649	988.3	96.9
937.2792	2066.4212	985.3	97.5
937.4159	2067.9767	979.85	93.3
937.5525	2069.5315	983.1	98.4
937.6891	2071.0856	985.3	101.5
937.8257	2072.6389	984.8	99.2
937.9623	2074.1915	981.9	99.6
938.0989	2075.7433	980.6	91.75
938.2354	2077.2945	978.55	95.2
938.3719	2078.8448	983.8	96.95
938.5084	2080.3945	981.15	96.65
938.6448	2081.9434	980.9	96.85
938.7812	2083.4916	980.5	96
938.9176	2085.039	980.85	95.4
939.054	2086.5857	984.65	98.6
939.1903	2088.1317	981.3	94.4
939.3267	2089.677	979.05	93.75
939.463	2091.2215	981.25	96.75
939.5992	2092.7652	981.75	96.1
939.7355	2094.3083	984.4	98.3
939.8717	2095.8506	982.3	98.5
940.0079	2097.3921	980.45	97.95
940.1441	2098.933	979.6	94.9
940.2802	2100.4731	981.65	97.6
940.4163	2102.0124	1001.3	95.8
940.5524	2103.5511	979.4	94.8
940.6885	2105.089	979.85	95.1
940.8245	2106.6261	976.8	91.55
940.9606	2108.1626	984	97.65
941.0965	2109.6983	1010.45	94.85
941.2325	2111.2332	977.8	90.75
941.3684	2112.7675	979	93.8
941.5044	2114.301	981.5	93.2
941.6403	2115.8337	979.9	93.75
941.7761	2117.3657	978.5	93.3
941.912	2118.897	981.5	96.7
942.0478	2120.4276	987.6	96.65
942.1835	2121.9575	980.45	93.95
942.3193	2123.4866	991.85	93.55
942.455	2125.0149	982.4	92.4
942.5907	2126.5426	977.9	93.45
942.7264	2128.0695	983.35	94.3
942.8621	2129.5956	974.75	91.05
942.9977	2131.1211	984.05	96.05
943.1333	2132.6458	979.2	96.1
943.2689	2134.1698	975.95	90.25
943.4044	2135.693	980.9	93.5
943.54	2137.2155	976.05	86.7
943.6755	2138.7373	978.05	93.45
943.8109	2140.2584	977.8	91.85
943.9464	2141.7787	983.6	93.65
944.0818	2143.2983	978.5	95.7
944.2172	2144.8171	974.65	89.5
944.3526	2146.3353	981.6	96.2
944.4879	2147.8527	974.1	88.5
944.6232	2149.3693	976.35	91.4
944.7585	2150.8853	977.8	93.55
944.8938	2152.4005	977.15	91.25
945.029	2153.9149	975.7	90.55
945.1642	2155.4287	979.35	93.75
945.2994	2156.9417	979.1	92.8
945.4346	2158.454	981.6	93.25
945.5697	2159.9655	976.95	90.95
945.7048	2161.4764	977.75	92.95
945.8399	2162.9865	976.6	93.15
945.9749	2164.4958	977.25	90.3
946.1099	2166.0045	979.4	89.75
946.2449	2167.5124	977.1	90.05
946.3799	2169.0195	976.35	92.15
946.5148	2170.526	977.4	91.1
946.6498	2172.0317	978	91.65
946.7846	2173.5367	975.35	89.4
946.9195	2175.0409	978	91.35
947.0543	2176.5445	973.35	89.4
947.1891	2178.0473	973.1	88.1
947.3239	2179.5494	977.4	88.65
947.4587	2181.0507	975.2	88.1
947.5934	2182.5513	976.6	89.35
947.7281	2184.0512	975.6	91.15
947.8628	2185.5504	976	92.45
947.9974	2187.0488	974.45	89.2
948.132	2188.5465	972.65	85.65
948.2666	2190.0435	976.8	92.3
948.4012	2191.5397	972.45	85.9
948.5357	2193.0353	972.45	87.7
948.6702	2194.5301	971.75	85.9
948.8047	2196.0241	974.65	88.3
948.9392	2197.5175	974.55	89.8
949.0736	2199.0101	975.7	86.85
949.208	2200.502	973.65	90
949.3424	2201.9931	972.35	86.25
949.4767	2203.4835	974.4	87.35
949.611	2204.9733	978.2	84.8
949.7453	2206.4622	970.95	85.6
949.8796	2207.9505	974.4	85.15
950.0138	2209.438	970.1	85.6
950.148	2210.9248	970.3	81.3
950.2822	2212.4109	970.85	86.65
950.4164	2213.8962	972.9	84.8
950.5505	2215.3809	968.95	83.35
950.6846	2216.8648	968.25	83
950.8186	2218.3479	972.9	83.75
950.9527	2219.8304	972.7	85.6
951.0867	2221.3121	970.05	83.3
951.2207	2222.7931	968	82.85
951.3546	2224.2733	966.3	78.15
951.4886	2225.7529	970.2	84.15
951.6225	2227.2317	970.75	82.6
951.7563	2228.7098	966.15	80.15
951.8902	2230.1872	966.2	81.3
952.024	2231.6638	968.15	83.65
952.1578	2233.1397	974.8	84.4
952.2916	2234.6149	967.6	83.25
952.4253	2236.0894	964.35	77.45
952.559	2237.5632	975.75	80.5
952.6927	2239.0362	968.35	82.9
952.8263	2240.5085	965.35	79.2
952.9599	2241.9801	970.05	82.9
953.0935	2243.4509	965.75	79.95
953.2271	2244.921	964.35	79.4
953.3606	2246.3904	968.4	80
953.4941	2247.8591	964.85	81.4
953.6276	2249.3271	966.1	81.5
953.7611	2250.7943	965.3	80.6
953.8945	2252.2608	963.5	77.3
954.0279	2253.7266	965.2	79.6
954.1612	2255.1917	964.3	76.7
954.2946	2256.656	966.3	80.55
954.4279	2258.1197	963.75	79.3
954.5612	2259.5826	965.6	78.35
954.6944	2261.0447	965.6	77.65
954.8276	2262.5062	961.8	74.35
954.9608	2263.9669	964.6	78.6
955.094	2265.4269	964.5	80.7
955.2271	2266.8862	962.4	78.6
955.3602	2268.3448	963.35	77.85
955.4933	2269.8026	967.35	80.6
955.6264	2271.2598	961.7	75.15
955.7594	2272.7162	963.3	79.15
955.8924	2274.1719	962.15	76.8
956.0253	2275.6268	960.75	76.2
956.1583	2277.0811	961.55	74.2
956.2912	2278.5346	956.6	73.4
956.4241	2279.9874	962.7	77.1
956.5569	2281.4395	959.15	74.25
956.6897	2282.8908	966.65	76.8
956.8225	2284.3414	965.05	77.05
956.9553	2285.7914	959.45	75.55
957.088	2287.2406	963.5	77.3
957.2207	2288.689	960.05	76.3
957.3534	2290.1368	962.5	79.2
957.486	2291.5838	962.45	75.1
957.6186	2293.0302	961.25	73.95
957.7512	2294.4758	960.6	75.5
957.8838	2295.9206	961.15	72.9
958.0163	2297.3648	959.65	73.9
958.1488	2298.8082	961.25	74.7
958.2813	2300.251	961.05	76.2
958.4137	2301.693	958.25	71.6
958.5461	2303.1343	962.35	76.75
958.6785	2304.5748	959.9	76.15
958.8108	2306.0147	957.75	72.25
958.9432	2307.4538	962.05	73.65
959.0754	2308.8922	958.55	75.45
959.2077	2310.3299	957	70.65
959.3399	2311.7669	957.15	73.35
959.4721	2313.2031	960.35	74.55
959.6043	2314.6387	960.2	75.4
959.7365	2316.0735	957.15	71.6
959.8686	2317.5076	960.1	74.15
960.0006	2318.941	959.55	72.7
960.1327	2320.3737	956.95	73.6
960.2647	2321.8056	958.6	69.05
960.3967	2323.2369	961	75.75
960.5287	2324.6674	960.4	71.15
960.6606	2326.0972	963.4	77.75
960.7925	2327.5263	964.2	79.95
960.9244	2328.9547	966.8	80.75
961.0562	2330.3823	964.3	78.25
961.1881	2331.8092	966.55	79.5
961.3198	2333.2355	957.55	71.95
961.4516	2334.661	955.05	68
961.5833	2336.0858	959.5	72.4
961.715	2337.5098	953.95	66.9
961.8467	2338.9332	958.65	72
961.9783	2340.3558	959.4	70.65
962.1099	2341.7778	954.7	70.9
962.2415	2343.199	954.7	66.8
962.373	2344.6195	952.8	69.65
962.5045	2346.0393	953.15	67
962.636	2347.4583	953.3	65.45
962.7675	2348.8767	956.2	70.4
962.8989	2350.2943	955.7	69.65
963.0303	2351.7113	954.45	67.55
963.1617	2353.1275	950.45	64.6
963.293	2354.543	958.9	66.6
963.4243	2355.9578	953.95	68.75
963.5556	2357.3718	952.75	66.4
963.6868	2358.7852	956.5	66.85
963.818	2360.1978	954.65	68.95
963.9492	2361.6098	951.2	66.95
964.0803	2363.021	955.05	66.55
964.2114	2364.4315	950.35	64.3
964.3425	2365.8413	953.6	66.25
964.4736	2367.2504	949.7	65.25
964.6046	2368.6587	949.35	64.55
964.7356	2370.0664	950.55	65.95
964.8666	2371.4733	950.05	63.35
964.9975	2372.8795	948.2	64.4
965.1284	2374.285	954.05	68.55
965.2593	2375.6899	950.15	65
965.3901	2377.0939	947.25	61.05
965.5209	2378.4973	949.8	63.8
965.6517	2379.9	950.85	66.05
965.7825	2381.3019	948.3	62.45
965.9132	2382.7032	947.3	62.25
966.0439	2384.1037	948.05	64.15
966.1745	2385.5035	951.5	66.75
966.3051	2386.9027	950.25	64
966.4357	2388.3011	949.4	60.85
966.5663	2389.6987	945.75	58.95
966.6968	2391.0957	947.45	62.5
966.8273	2392.492	948	62.65
966.9578	2393.8876	947.3	60.5
967.0882	2395.2824	948.75	63.35
967.2186	2396.6765	946.3	60.7
967.349	2398.07	945.15	59.75
967.4793	2399.4627	947.8	61.1
967.6097	2400.8547	946.95	60.4
967.7399	2402.246	950.95	62
967.8702	2403.6366	949.2	64.75
968.0004	2405.0265	945.75	61.25
968.1306	2406.4156	949.45	59.8
968.2607	2407.8041	948.35	59.7
968.3909	2409.1918	945.3	58.9
968.521	2410.5789	944.85	59.65
968.651	2411.9652	948.25	58.85
968.781	2413.3508	943.95	56.8
968.911	2414.7358	942.15	55.9
969.041	2416.12	939.45	54.65
969.1709	2417.5035	942.7	56.75
969.3008	2418.8863	942.3	56.3
969.4307	2420.2684	944.7	59.3
969.5606	2421.6497	943.95	56.8
969.6904	2423.0304	941.75	59.2
969.8201	2424.4104	943	56.55
969.9499	2425.7896	949.05	54.9
970.0796	2427.1682	938.55	51.1
970.2093	2428.546	943.1	55.35
970.3389	2429.9232	942.1	55.6
970.4685	2431.2996	943.4	57.7
970.5981	2432.6753	939.6	54.05
970.7277	2434.0503	941.6	55.45
970.8572	2435.4246	940.85	56.95
970.9867	2436.7982	943.1	53.7
971.1161	2438.1711	938.7	53.3
971.2456	2439.5433	940.45	54.35
971.375	2440.9148	947.5	56.75
971.5043	2442.2856	941.25	56.45
971.6336	2443.6557	941.15	54.55
971.7629	2445.025	940	54.45
971.8922	2446.3937	937.2	51.9
972.0214	2447.7617	941.85	55.4
972.1506	2449.1289	942.65	55.45
972.2798	2450.4955	944.9	56.75
972.4089	2451.8613	938.95	53.85
972.538	2453.2265	938.75	52.35
972.6671	2454.5909	937.45	49.7
972.7961	2455.9546	939.1	53.7
972.9251	2457.3177	938.8	52.35
973.0541	2458.68	939.8	50.8
973.1831	2460.0416	937.05	51.85
973.312	2461.4025	941.35	53.65
973.4408	2462.7627	947.3	48.55
973.5697	2464.1222	935.75	49.85
973.6985	2465.4811	936.9	49.5
973.8273	2466.8392	937.65	51
973.956	2468.1966	943.2	56.25
974.0847	2469.5533	939.95	51.4
974.2134	2470.9093	938.35	52.1
974.3421	2472.2645	939.75	51.85
974.4707	2473.6191	934.4	49.1
974.5993	2474.973	939.15	54.85
974.7278	2476.3262	938.7	52.15
974.8563	2477.6787	938.9	54.2
974.9848	2479.0305	934.3	47.85
975.1132	2480.3816	935.8	48.55
975.2417	2481.7319	933.05	48.6
975.37	2483.0816	939.3	51.65
975.4984	2484.4306	935.15	46.75
975.6267	2485.7789	934.7	49.7
975.755	2487.1264	938.3	51.85
975.8833	2488.4733	935.75	52.5
976.0115	2489.8195	952.55	48.8
976.1397	2491.165	940.35	51.5
976.2678	2492.5097	936.85	49.7
976.3959	2493.8538	933.7	48
976.524	2495.1972	933.25	48.15
976.6521	2496.5398	938	49.2
976.7801	2497.8818	937.95	50
976.9081	2499.2231	934.05	48.85
977.036	2500.5637	936.7	47.3
977.164	2501.9035	934.85	50.15
977.2918	2503.2427	940.4	52.3
977.4197	2504.5812	931.4	48.4
977.5475	2505.919	936	48.3
977.6753	2507.256	933.85	48.9
977.8031	2508.5924	934.95	51.1
977.9308	2509.9281	942.15	48.55
978.0585	2511.2631	934.1	48.4
978.1861	2512.5974	932.65	46.35
978.3137	2513.9309	931.15	44.6
978.4413	2515.2638	966.4	47.35
978.5689	2516.596	934.15	49.05
978.6964	2517.9275	934.4	49.35
978.8239	2519.2583	934.65	49.1
978.9513	2520.5884	934.7	47.3
979.0788	2521.9178	933.05	47.15
979.2062	2523.2465	932.05	46.4
979.3335	2524.5745	931.2	46
979.4608	2525.9018	934.35	46.9
979.5881	2527.2284	930.65	45.45
979.7154	2528.5543	930.2	45.25
979.8426	2529.8796	933.05	47.75
979.9698	2531.2041	931	44.9
980.0969	2532.5279	930.95	46.3
980.224	2533.851	930.2	44.55
980.3511	2535.1735	930	46.1
980.4781	2536.4952	930.4	44.35
980.6052	2537.8163	929.25	42.8
980.7321	2539.1366	929	44.9
980.8591	2540.4562	930.75	43.8
980.986	2541.7752	929.6	44.1
981.1129	2543.0935	931.85	44.85
981.2397	2544.411	930.45	41.65
981.3665	2545.7279	930.05	44.35
981.4933	2547.0441	928.7	43.7
981.62	2548.3596	931.45	43.7
981.7467	2549.6744	930.25	45.4
981.8734	2550.9885	932.35	44.35
982.0001	2552.3019	927.8	43.85
982.1267	2553.6146	930.35	44.35
982.2532	2554.9266	927.7	42.6
982.3798	2556.2379	930.25	42.1
982.5063	2557.5485	928.45	44.55
982.6327	2558.8585	937.95	48.25
982.7592	2560.1677	936.1	45.25
982.8856	2561.4762	927.9	42.1
983.0119	2562.7841	932.75	43.5
983.1383	2564.0913	925.8	40.85
983.2646	2565.3977	925.95	41.15
983.3908	2566.7035	928.7	42.35
983.517	2568.0086	930.45	44.15
983.6432	2569.313	927.9	41.15
983.7694	2570.6167	929	41.75
983.8955	2571.9197	928.8	43.2
984.0216	2573.222	930.95	41.9
984.1476	2574.5236	928.35	42.05
984.2737	2575.8246	932.15	43.05
984.3996	2577.1248	931.7	42.35
984.5256	2578.4244	931.15	46.8
984.6515	2579.7232	926.3	39.45
984.7774	2581.0214	956.95	42.75
984.9032	2582.3189	926.5	41.95
985.029	2583.6157	931.4	40.5
985.1548	2584.9118	927.8	41.35
985.2806	2586.2072	926.8	39.9
985.4063	2587.5019	927	40.9
985.5319	2588.7959	929.65	43.5
985.6576	2590.0893	926.25	38.35
985.7832	2591.3819	924.45	41.4
985.9087	2592.6739	924	37.55
986.0343	2593.9652	928.6	40.8
986.1597	2595.2557	926.7	40.05
986.2852	2596.5456	929.9	43.45
986.4106	2597.8348	927.6	44.05
986.536	2599.1234	927.1	40.55
986.6614	2600.4112	926.5	41
986.7867	2601.6983	930.5	40.9
986.912	2602.9848	925.3	40.25
987.0372	2604.2705	935.2	41.35
987.1624	2605.5556	927.35	41.95
987.2876	2606.84	923.05	37.5
987.4128	2608.1237	926.85	41.7
987.5379	2609.4067	925.35	39.2
987.6629	2610.689	932.55	40.05
987.788	2611.9707	930.5	40.75
987.913	2613.2516	927.85	36.45
988.0379	2614.5319	922.5	38.15
988.1629	2615.8115	923.45	37.8
988.2878	2617.0903	925.2	36.85
988.4126	2618.3685	925.1	38.95
988.5375	2619.6461	924	37.25
988.6622	2620.9229	924.95	39.9
988.787	2622.199	926.55	42.15
988.9117	2623.4745	924.05	38.6
989.0364	2624.7493	925.35	40.65
989.161	2626.0234	922.9	38.35
989.2857	2627.2968	921.75	36.4
989.4102	2628.5695	923.35	33.85
989.5348	2629.8415	919.8	33.5
989.6593	2631.1128	925.55	38.15
989.7837	2632.3835	923.25	36.6
989.9082	2633.6535	923.45	39.3
990.0326	2634.9228	920.55	38.35
990.1569	2636.1914	918.35	32.25
990.2812	2637.4593	925.75	35.5
990.4055	2638.7265	922.7	35.3
990.5298	2639.9931	919	34.15
990.654	2641.259	922.9	35.35
990.7782	2642.5242	922.5	37.2
990.9023	2643.7887	917.7	32.4
991.0264	2645.0525	921.9	36
991.1505	2646.3156	921.25	34.15
991.2745	2647.5781	921.75	38.05
991.3985	2648.8398	919.45	32.65
991.5225	2650.1009	956.9	34.1
991.6464	2651.3613	922.35	36.15
991.7703	2652.6211	918.6	33.8
991.8942	2653.8801	918.15	34.75
992.018	2655.1385	921.2	34.45
992.1418	2656.3961	918.65	33.25
992.2655	2657.6531	919.95	34.4
992.3892	2658.9094	917.65	31.75
992.5129	2660.1651	918.3	34.4
992.6366	2661.42	920.3	34.95
992.7602	2662.6743	922.1	35.8
992.8837	2663.9279	919.6	33.85
993.0073	2665.1808	918.8	30.75
993.1307	2666.433	920.4	35
993.2542	2667.6846	917.9	31.5
993.3776	2668.9354	923.3	36.8
993.501	2670.1856	921.5	34.95
993.6244	2671.4351	918.35	32.55
993.7477	2672.6839	921.15	35.75
993.8709	2673.9321	919.55	34.45
993.9942	2675.1795	919.9	34.3
994.1174	2676.4263	919.5	35.15
994.2405	2677.6724	920.55	34.55
994.3637	2678.9179	918.9	32.8
994.4868	2680.1626	916.75	31.75
994.6098	2681.4067	918	32.75
994.7328	2682.6501	918.85	32.5
994.8558	2683.8928	918.9	34.15
994.9788	2685.1348	919.05	34
995.1017	2686.3761	919.15	35.4
995.2245	2687.6168	917.65	32.25
995.3474	2688.8568	917.55	32.15
995.4702	2690.0961	917.15	33.3
995.5929	2691.3348	918.1	31.05
995.7156	2692.5727	915.75	29
995.8383	2693.81	916.4	30.1
995.961	2695.0466	916.45	33.95
996.0836	2696.2826	916.1	27.55
996.2062	2697.5178	935.8	30.2
996.3287	2698.7524	919.15	32.1
996.4512	2699.9863	917.7	29.65
996.5737	2701.2195	917.75	34.95
996.6961	2702.452	916.9	29.6
996.8185	2703.6839	917.95	30.55
996.9408	2704.9151	914.8	30.6
997.0631	2706.1456	915.15	28.5
997.1854	2707.3755	917	32.05
997.3077	2708.6046	920.9	31.15
997.4299	2709.8331	916.45	30.95
997.552	2711.0609	920.65	33.9
997.6742	2712.2881	918.7	33.25
997.7963	2713.5145	921	32.3
997.9183	2714.7403	916.35	32.2
998.0403	2715.9654	921.25	36.25
998.1623	2717.1899	921.85	33.4
998.2842	2718.4136	919.7	35.25
998.4062	2719.6367	917.85	33.95
998.528	2720.8591	929.4	37.3
998.6498	2722.0809	920.85	35.55
998.7716	2723.3019	921	31.1
998.8934	2724.5223	922.35	34.65
999.0151	2725.7421	925.2	37.65
999.1368	2726.9611	922.55	34.45
999.2584	2728.1795	926.7	37.35
999.38	2729.3972	921.15	34.15
999.5016	2730.6142	930.45	31.65
999.6231	2731.8306	921.25	34.9
999.7446	2733.0462	920.35	33.15
999.8661	2734.2612	923.5	34.8
999.9875	2735.4756	920.3	35
1000.1089	2736.6892	919.05	33
1000.2302	2737.9022	917.45	33.25
1000.3515	2739.1145	915.2	26.75
1000.4728	2740.3262	923.15	28.95
1000.594	2741.5372	915	29.35
1000.7152	2742.7475	914.65	28.8
1000.8363	2743.9571	918.05	29.85
1000.9575	2745.1661	918.45	28.8
1001.0785	2746.3744	915.25	29
1001.1996	2747.582	915.4	31.8
1001.3206	2748.7889	914.5	26.65
1001.4415	2749.9952	911.5	26.5
1001.5625	2751.2008	912.2	25.5
1001.6833	2752.4057	914.05	25.1
1001.8042	2753.61	912.95	26.2
1001.925	2754.8136	913.95	26.25
1002.0458	2756.0165	910.1	25.4
1002.1665	2757.2188	912.15	27.45
1002.2872	2758.4204	908.45	22.35
1002.4078	2759.6213	912.35	26.95
1002.5285	2760.8215	918.25	25.9
1002.649	2762.0211	915.3	27.1
1002.7696	2763.22	916.95	29.45
1002.8901	2764.4182	911.85	24.5
1003.0106	2765.6158	911.6	24.3
1003.131	2766.8127	910.95	22.85
1003.2514	2768.009	909.45	22.8
1003.3717	2769.2045	911.3	24.35
1003.492	2770.3994	913.4	26.6
1003.6123	2771.5936	911.5	24.3
1003.7325	2772.7872	910.05	25.75
1003.8527	2773.9801	912.5	26.3
1003.9729	2775.1723	926.5	25.6
1004.093	2776.3639	907.95	23.9
1004.2131	2777.5548	912.35	22.85
1004.3331	2778.745	912.5	24
1004.4531	2779.9346	910.2	25.95
1004.5731	2781.1235	910.55	24.75
1004.693	2782.3117	908.15	21.85
1004.8129	2783.4992	910.85	23.8
1004.9328	2784.6861	909.3	22.8
1005.0526	2785.8723	909.65	21.45
1005.1723	2787.0579	912.25	24.2
1005.2921	2788.2428	908.15	21.55
1005.4118	2789.427	907.4	23.85
1005.5314	2790.6106	907.3	21.8
1005.651	2791.7935	907.9	20
1005.7706	2792.9757	908.1	23.45
1005.8902	2794.1573	912.2	24.9
1006.0097	2795.3382	908.05	23.5
1006.1291	2796.5184	908.1	22.7
1006.2485	2797.698	912.65	25.65
1006.3679	2798.8769	910.45	24.65
1006.4873	2800.0551	909.75	24.05
1006.6066	2801.2327	910.2	24.35
1006.7258	2802.4096	910.25	25.3
1006.8451	2803.5859	911.05	25.15
1006.9642	2804.7615	910.6	25.35
1007.0834	2805.9364	913.05	26.6
1007.2025	2807.1106	911.75	26.35
1007.3216	2808.2842	912.2	24.3
1007.4406	2809.4572	911.2	23.1
1007.5596	2810.6294	913.45	27.2
1007.6785	2811.801	909.25	24.55
1007.7975	2812.972	914.25	29.5
1007.9163	2814.1423	916.35	30.9
1008.0352	2815.3119	916.5	30.9
1008.154	2816.4808	915.25	30.9
1008.2727	2817.6491	916.75	30.3
1008.3914	2818.8167	919.5	36.15
1008.5101	2819.9837	927.65	38.55
1008.6288	2821.15	924.1	38.15
1008.7474	2822.3157	926.3	41.2
1008.8659	2823.4807	928.55	41.6
1008.9844	2824.645	930.95	44.2
1009.1029	2825.8086	937.7	52.8
1009.2214	2826.9716	934.65	50.35
1009.3398	2828.134	943.05	58.1
1009.4581	2829.2957	947.4	60.95
1009.5764	2830.4567	947.1	62.85
1009.6947	2831.617	957.15	71.3
1009.813	2832.7767	954.95	71.15
1009.9312	2833.9358	952.35	69
1010.0493	2835.0941	952.95	64.35
1010.1675	2836.2519	948.2	61.35
1010.2855	2837.4089	950.9	63.35
1010.4036	2838.5653	947.55	61.7
1010.5216	2839.7211	944.1	58.95
1010.6396	2840.8761	944.4	57.8
1010.7575	2842.0306	944.35	59.7
1010.8754	2843.1843	940.9	55.5
1010.9932	2844.3374	940.9	55.5
1011.111	2845.4899	943.1	58.5
1011.2288	2846.6417	946.8	61.65
1011.3465	2847.7928	943.05	56.6
1011.4642	2848.9433	944.1	58.65
1011.5818	2850.0931	943.55	56.4
1011.6995	2851.2422	946.15	58.45
1011.817	2852.3907	948.95	63.85
1011.9345	2853.5385	948	60.45
1012.052	2854.6857	975.2	62.6
1012.1695	2855.8323	947.05	63.5
1012.2869	2856.9781	948.85	63.45
1012.4042	2858.1233	948.95	65
1012.5216	2859.2679	949.6	65.4
1012.6389	2860.4118	956.25	69.75
1012.7561	2861.555	958.65	68.4
1012.8733	2862.6976	958.85	70.65
1012.9905	2863.8395	957.35	72.6
1013.1076	2864.9808	954.8	69.65
1013.2247	2866.1214	954.75	72
1013.3417	2867.2614	957.8	73
1013.4587	2868.4007	962.2	75.45
1013.5757	2869.5393	961.75	74.3
1013.6926	2870.6773	963	74.25
1013.8095	2871.8146	966.9	76.65
1013.9263	2872.9513	968.2	80.6
1014.0431	2874.0874	960.85	76
1014.1599	2875.2227	966.75	81.25
1014.2766	2876.3574	964.2	79.35
1014.3933	2877.4915	964.65	77.8
1014.51	2878.6249	966.65	80.5
1014.6266	2879.7577	970.25	83.45
1014.7431	2880.8898	980.8	83.45
1014.8596	2882.0212	970.25	85.95
1014.9761	2883.152	974.15	87.6
1015.0925	2884.2821	970.8	86.25
1015.2089	2885.4116	972.35	87.4
1015.3253	2886.5405	973.75	88.75
1015.4416	2887.6686	977.1	87.4
1015.5579	2888.7962	971.8	89.55
1015.6741	2889.923	972.8	87.4
1015.7903	2891.0493	971.5	86.45
1015.9065	2892.1748	975.4	89
1016.0226	2893.2997	974.8	88.35
1016.1387	2894.424	972.5	88.45
1016.2547	2895.5476	974.05	88.35
1016.3707	2896.6706	975.05	91.1
1016.4866	2897.7929	975.2	89.95
1016.6025	2898.9145	974	88.05
1016.7184	2900.0355	972.95	86.9
1016.8342	2901.1559	978.45	91.4
1016.95	2902.2756	977.85	91.05
1017.0658	2903.3946	972.95	87.1
1017.1815	2904.513	977.4	89.9
1017.2971	2905.6308	968.3	82.7
1017.4127	2906.7479	974.7	91.2
1017.5283	2907.8643	973.75	86.6
1017.6439	2908.9801	972.5	88.2
1017.7594	2910.0953	973.7	88.2
1017.8748	2911.2098	977.75	89.2
1017.9902	2912.3236	981.95	89.5
1018.1056	2913.4368	976.7	86.5
1018.2209	2914.5494	974.15	88.75
1018.3362	2915.6613	978.65	87.35
1018.4515	2916.7725	971.65	83.85
1018.5667	2917.8831	967.6	80.3
1018.6819	2918.9931	971.6	82.9
1018.797	2920.1024	969.6	82.8
1018.9121	2921.211	965.95	79.65
1019.0271	2922.319	961.5	76.05
1019.1421	2923.4264	962.65	75.5
1019.2571	2924.5331	959.75	75.8
1019.372	2925.6391	962.55	77.05
1019.4869	2926.7445	960.8	76.65
1019.6017	2927.8493	962.35	74.65
1019.7165	2928.9534	965.2	79.6
1019.8313	2930.0569	966.2	77.5
1019.946	2931.1597	966.2	79.15
1020.0606	2932.2619	965	80.15
1020.1753	2933.3634	965.5	78.95
1020.2899	2934.4643	974.1	81.85
1020.4044	2935.5645	972.45	80.2
1020.5189	2936.6641	972.8	82.55
1020.6334	2937.763	968.5	83.15
1020.7478	2938.8613	966.45	80.5
1020.8622	2939.959	971	81
1020.9765	2941.056	962	77.8
1021.0908	2942.1523	962.25	74.05
1021.2051	2943.248	959.75	73.7
1021.3193	2944.3431	954.25	70.85
1021.4334	2945.4375	952.65	66.6
1021.5476	2946.5313	948.15	63.4
1021.6617	2947.6244	943	55.6
1021.7757	2948.7169	942.65	56.7
1021.8897	2949.8087	936.9	48.15
1022.0037	2950.8999	938.05	52.1
1022.1176	2951.9904	932.4	46.3
1022.2315	2953.0803	933.1	47.65
1022.3453	2954.1696	931.25	45.45
1022.4591	2955.2582	927.75	44.15
1022.5728	2956.3462	926.05	40.65
1022.6865	2957.4335	926.55	40.55
1022.8002	2958.5202	929.9	39.85
1022.9138	2959.6062	925.75	40.3
1023.0274	2960.6916	926.8	41.9
1023.141	2961.7764	927.55	41.95
1023.2545	2962.8605	927.1	39.05
1023.3679	2963.9439	928.05	41.7
1023.4813	2965.0267	928.6	40
1023.5947	2966.1089	948.7	41.05
1023.708	2967.1905	925.4	38.8
1023.8213	2968.2714	924.35	39.75
1023.9346	2969.3516	924.05	39.25
1024.0478	2970.4312	932.75	40.6
1024.1609	2971.5102	924.8	39.05
1024.274	2972.5885	924.05	38.2
1024.3871	2973.6662	930.05	39.05
1024.5002	2974.7432	924.05	38.75
1024.6132	2975.8196	924.95	40.85
1024.7261	2976.8954	924.45	41
1024.839	2977.9705	924.85	40.35
1024.9519	2979.045	925.6	40.45
1025.0647	2980.1188	925.55	39.1
1025.1775	2981.192	924.4	40.2
1025.2902	2982.2645	926.85	41.05
1025.4029	2983.3364	924.9	39.35
1025.5156	2984.4077	923.6	38
1025.6282	2985.4783	927.05	37.3
1025.7407	2986.5483	921.15	37.25
1025.8532	2987.6177	921.05	34.15
1025.9657	2988.6864	919.05	33.85
1026.0782	2989.7545	917.95	30.95
1026.1906	2990.8219	915.3	29.25
1026.3029	2991.8887	917.15	29.05
1026.4152	2992.9548	916.15	30.3
1026.5275	2994.0204	911.5	27.95
1026.6397	2995.0852	909.7	26.1
1026.7519	2996.1495	914.35	28.55
1026.864	2997.2131	908.95	24.65
1026.9761	2998.276	910.5	26.05
1027.0882	2999.3383	909.3	22.15
1027.2002	3000.4	907.55	20.35
1027.3122	3001.4611	903.75	18.95
1027.4241	3002.5215	906.5	20.4
1027.536	3003.5812	905.5	18.95
1027.6478	3004.6404	905.75	18.8
1027.7596	3005.6989	906.25	18
1027.8714	3006.7567	902.2	18.65
1027.9831	3007.8139	933.25	18.25
1028.0947	3008.8705	903.2	15.65
1028.2064	3009.9264	918.05	16.1
1028.3179	3010.9818	903.7	16.75
1028.4295	3012.0364	903.75	17.95
1028.541	3013.0905	902.2	17.75
1028.6524	3014.1439	903.5	17.5
1028.7638	3015.1966	900.6	14.65
1028.8752	3016.2487	901.85	16.15
1028.9865	3017.3002	907.7	15.4
1029.0978	3018.3511	899.95	16.15
1029.209	3019.4013	900	13.9
1029.3202	3020.4509	900	16.25
1029.4314	3021.4998	899.35	13.05
1029.5425	3022.5481	898.55	14.3
1029.6535	3023.5958	899.8	14.9
1029.7645	3024.6428	903.15	16.55
1029.8755	3025.6892	900.85	16.6
1029.9864	3026.735	901.85	15.5
1030.0973	3027.7802	898.9	13.15
1030.2082	3028.8247	900.65	15.4
1030.319	3029.8685	900.9	15.85
1030.4297	3030.9118	899.95	12.5
1030.5404	3031.9544	900.25	16.55
1030.6511	3032.9963	898.9	14.2
1030.7617	3034.0376	900.55	13.85
1030.8723	3035.0783	901.25	11.15
1030.9829	3036.1184	901.85	13.2
1031.0934	3037.1578	902.05	18
1031.2038	3038.1966	898.55	11.85
1031.3142	3039.2348	898.55	12.7
1031.4246	3040.2723	908.7	13.1
1031.5349	3041.3092	899.05	14.3
1031.6452	3042.3455	899.05	13.3
1031.7554	3043.3811	900	14.5
1031.8656	3044.4161	899.85	14.35
1031.9758	3045.4505	901	15.8
1032.0859	3046.4842	901.55	14.85
1032.1959	3047.5173	899.5	14.55
1032.3059	3048.5498	899.45	14.5
1032.4159	3049.5816	900.2	15.35
1032.5258	3050.6128	902.1	16.65
1032.6357	3051.6434	902.95	17.1
1032.7455	3052.6734	901.85	14.45
1032.8553	3053.7027	900.4	16.85
1032.9651	3054.7314	898.3	13.35
1033.0748	3055.7594	899	16.1
1033.1845	3056.7868	900.95	13.7
1033.2941	3057.8136	901.1	15.15
1033.4037	3058.8398	896.75	11.65
1033.5132	3059.8653	900	12.85
1033.6227	3060.8902	900.2	15.05
1033.7321	3061.9145	900.85	14.3
1033.8415	3062.9381	901.8	16.95
1033.9509	3063.9612	916.8	14.6
1034.0602	3064.9835	902.2	16.9
1034.1694	3066.0053	903.1	16
1034.2787	3067.0264	899.9	16.6
1034.3878	3068.0469	901.05	15.45
1034.497	3069.0668	903.2	17.35
1034.6061	3070.086	902.15	15.15
1034.7151	3071.1046	903.25	13.9
1034.8241	3072.1226	901.55	14.35
1034.9331	3073.1399	900.8	16.2
1035.042	3074.1567	901.55	13.05
1035.1508	3075.1727	900.2	12.85
1035.2597	3076.1882	898.35	13.35
1035.3684	3077.203	899.55	15.15
1035.4772	3078.2173	901.5	14
1035.5859	3079.2308	900.2	11.45
1035.6945	3080.2438	902.25	15.05
1035.8031	3081.2561	897.85	11.35
1035.9117	3082.2678	897.2	13
1036.0202	3083.2789	896	11.45
1036.1286	3084.2893	897.2	9.9
1036.2371	3085.2991	898.8	14.1
1036.3454	3086.3083	900.35	9.5
1036.4538	3087.3169	899.35	11.75
1036.562	3088.3248	899.05	10.6
1036.6703	3089.3321	898.05	11.5
1036.7785	3090.3388	895.85	10.75
1036.8866	3091.3449	895.85	12.3
1036.9948	3092.3503	898.45	9.9
1037.1028	3093.3551	896.2	12.85
1037.2108	3094.3593	896.2	10.6
1037.3188	3095.3629	896.1	10.4
1037.4267	3096.3658	898.2	11.6
1037.5346	3097.3681	894.85	7.8
1037.6425	3098.3698	897.15	9
1037.7503	3099.3708	895.8	11.1
1037.858	3100.3713	895.6	10.85
1037.9657	3101.3711	894.25	7.8
1038.0734	3102.3702	1036.55	8.45
1038.181	3103.3688	897.8	11.4
1038.2886	3104.3667	894	10.15
1038.3961	3105.364	895.1	9.1
1038.5036	3106.3607	895.7	9.45
1038.611	3107.3568	894.75	8.05
1038.7184	3108.3522	894.65	11.25
1038.8257	3109.347	896.1	10.35
1038.933	3110.3412	899.75	10.2
1039.0403	3111.3348	894.5	9.2
1039.1475	3112.3277	894.35	9.1
1039.2547	3113.32	893.05	8
1039.3618	3114.3117	894.3	9
1039.4689	3115.3028	894.35	8.6
1039.5759	3116.2932	895.55	7.55
1039.6829	3117.2831	900.1	7.25
1039.7898	3118.2723	891.35	5.05
1039.8967	3119.2608	893.1	8.45
1040.0035	3120.2488	893.2	7.05
1040.1103	3121.2361	893.55	6.1
1040.2171	3122.2229	893.3	7.6
1040.3238	3123.209	894.7	8.8
1040.4305	3124.1944	895.5	10.95
1040.5371	3125.1793	894.8	7.05
1040.6437	3126.1635	892.1	7
1040.7502	3127.1471	892	7.35
1040.8567	3128.1301	893.55	9.1
1040.9631	3129.1125	892.95	7.9
1041.0695	3130.0942	893.3	8.7
1041.1759	3131.0753	901.2	7.75
1041.2822	3132.0558	895.05	5.9
1041.3884	3133.0357	893.35	7.2
1041.4946	3134.015	895.6	7.5
1041.6008	3134.9936	892.45	5.25
1041.7069	3135.9716	912.95	6.1
1041.813	3136.949	893.3	6.8
1041.919	3137.9258	910.95	8.35
1042.025	3138.902	899.2	7.1
1042.1309	3139.8775	892.05	3.95
1042.2368	3140.8524	893.5	9.3
1042.3427	3141.8267	893.9	5.5
1042.4485	3142.8004	893.6	6.1
1042.5542	3143.7735	897.9	5.75
1042.6599	3144.7459	896.6	8.6
1042.7656	3145.7178	893	6.75
1042.8712	3146.689	889.95	6.05
1042.9768	3147.6596	894.4	9.25
1043.0823	3148.6295	891.6	4.9
1043.1878	3149.5989	892.55	7.05
1043.2932	3150.5676	892	7.1
1043.3986	3151.5357	890.4	6.7
1043.5039	3152.5032	891.05	6.8
1043.6092	3153.4701	892.6	6.95
1043.7145	3154.4364	894.75	8.7
1043.8197	3155.402	890.95	7.3
1043.9248	3156.367	893.25	6.05
1044.03	3157.3315	908.75	3.95
1044.135	3158.2952	894.05	8.45
1044.24	3159.2584	889.65	4.85
1044.345	3160.221	890.5	4.3
1044.4499	3161.1829	891.35	4.65
1044.5548	3162.1442	891.05	7.4
1044.6596	3163.105	892.5	6.2
1044.7644	3164.065	892.65	6.25
1044.8692	3165.0245	896.55	6.8
1044.9739	3165.9834	890.35	5.1
1045.0785	3166.9416	892.75	7.6
1045.1831	3167.8993	892.45	7.85
1045.2877	3168.8563	891.3	4.2
1045.3922	3169.8127	892.4	4
1045.4966	3170.7684	892	8.45
1045.6011	3171.7236	891.25	4.65
1045.7054	3172.6782	890.35	5.15
1045.8098	3173.6321	891.75	5.85
1045.914	3174.5854	893.6	3.15
1046.0183	3175.5381	891.05	5.6
1046.1224	3176.4902	890.4	4.8
1046.2266	3177.4417	890.4	5.5
1046.3307	3178.3926	890.5	5.6
1046.4347	3179.3428	890.95	4.85
1046.5387	3180.2924	888.7	3.5
1046.6427	3181.2415	890.4	5.6
1046.7466	3182.1899	890.9	3.75
1046.8504	3183.1377	889.45	5.65
1046.9542	3184.0848	892.8	3.6
1047.058	3185.0314	891.15	7.05
1047.1617	3185.9773	891.4	4.5
1047.2654	3186.9227	893.9	5.4
1047.369	3187.8674	891.7	5.8
1047.4726	3188.8115	895.65	4.7
1047.5761	3189.755	890.65	5.75
1047.6796	3190.6979	891.15	6.4
1047.783	3191.6402	891.15	6.4
1047.8864	3192.5818	890.3	5.6
1047.9898	3193.5229	904.95	6.2
1048.0931	3194.4633	891.55	5.2
1048.1963	3195.4031	891.25	4.8
1048.2995	3196.3423	890	3.8
1048.4027	3197.2809	891.1	5.8
1048.5058	3198.2189	890.85	5.7
1048.6089	3199.1563	897.8	5.7
1048.7119	3200.0931	890.45	5.9
1048.8148	3201.0292	888.95	5.55
1048.9178	3201.9648	889.4	2.8
1049.0206	3202.8997	892	3.5
1049.1235	3203.834	891.2	4.9
1049.2262	3204.7677	889.85	4.35
1049.329	3205.7008	890.3	3.9
1049.4317	3206.6333	887.3	1.35
1049.5343	3207.5652	894.95	5.55
1049.6369	3208.4964	890.95	3.8
1049.7394	3209.4271	889.85	5.45
1049.8419	3210.3571	888.85	4.85
1049.9444	3211.2865	890.7	4.7
1050.0468	3212.2154	890	1.85
1050.1491	3213.1436	894.1	6.5
1050.2514	3214.0712	896.75	3.95
1050.3537	3214.9982	888.3	1.75
1050.4559	3215.9246	890.95	4.8
1050.5581	3216.8503	886.3	2.3
1050.6602	3217.7755	889.6	2.35
1050.7623	3218.7001	888.95	2.95
1050.8643	3219.624	891.8	7
1050.9663	3220.5473	891.15	6.1
1051.0682	3221.4701	889.9	3.2
1051.1701	3222.3922	892.25	3.65
1051.2719	3223.3137	888.9	4.15
1051.3737	3224.2346	890	4.85
1051.4754	3225.1549	888.35	3.25
1051.5771	3226.0746	888.5	4.6
1051.6788	3226.9937	890.25	4.5
1051.7804	3227.9121	889.85	3.5
1051.8819	3228.83	890.25	5.1
1051.9834	3229.7473	890.25	3.95
1052.0849	3230.6639	891.85	6.05
1052.1863	3231.5799	889.45	3.75
1052.2876	3232.4954	888.9	2.55
1052.3889	3233.4102	888.35	2.45
1052.4902	3234.3244	890.2	5.45
1052.5914	3235.238	889.85	4.05
1052.6926	3236.151	914.3	5.5
1052.7937	3237.0634	890.25	6.45
1052.8948	3237.9752	890.4	4.9
1052.9958	3238.8864	889.75	2.9
1053.0968	3239.797	889.45	2.9
1053.1977	3240.7069	891.45	4.15
1053.2986	3241.6163	890.8	4.3
1053.3994	3242.5251	888.7	4.5
1053.5002	3243.4332	888.6	3.9
1053.6009	3244.3408	889.85	1.65
1053.7016	3245.2477	887.65	2.6
1053.8022	3246.154	890.35	2.1
1053.9028	3247.0598	891.45	5.95
1054.0034	3247.9649	887.95	2.05
1054.1039	3248.8694	889.5	4.65
1054.2043	3249.7733	890.1	4.95
1054.3047	3250.6766	888.5	3.05
1054.4051	3251.5793	889.5	3.4
1054.5054	3252.4814	887.75	4.15
1054.6056	3253.3829	887.1	0.25
1054.7058	3254.2838	887.95	3.15
1054.806	3255.1841	890	3.6
1054.9061	3256.0838	888.9	4.05
1055.0061	3256.9829	889.75	4.65
1055.1062	3257.8814	889.3	0.45
1055.2061	3258.7792	891.5	3.45
1055.306	3259.6765	890.35	4.9
1055.4059	3260.5731	888.55	3.8
1055.5057	3261.4692	889.15	3.1
1055.6055	3262.3647	888.35	1.9
1055.7052	3263.2595	886.65	1.3
1055.8049	3264.1538	888.45	3.5
1055.9045	3265.0474	889.55	3.65
1056.0041	3265.9404	888.55	3.85
1056.1036	3266.8329	889.2	3.75
1056.2031	3267.7247	899	4.35
1056.3025	3268.616	888.55	2.85
1056.4019	3269.5066	887.85	1.8
1056.5013	3270.3966	889.1	2
1056.6005	3271.286	885.65	-0.5
