Software Version:	3.9.2.0
Unit SN:	10000200
Spectrometer SN:	6960
Date:	3/14/2024 2:07:02 PM
Data Line Index:	25
Spectral Points:	2048
Integration time (ms):	125
Averages:	20
Delay (ms):	30000
Sequence Number:	1
Processing:	dark subtract
Laser Power (mW):	300
Laser Current (mA):	824
Laser Diode Temp (C):	25.1
Laser Case Temp (C):	29
System Temp (C):	29
Spectrometer Temp (C):	26.9
CCD Temp (C):	0.01
Secondary Temp (C):	20.01
Heatsink Temp (C):	24.863
CCDPCB Temp (C):	38.063
SecondaryPCB Temp (C):	36.029

Wavelength	RamanShift	Raw Counts	Dark Subtracted
787.061	30.1047	451.5	40.2
787.2016	32.3739	450.9	44
787.3422	34.6426	455.05	45.75
787.4828	36.9109	462.6	53.05
787.6235	39.1787	469.85	53.65
787.7642	41.4461	478.35	60
787.9049	43.7131	485.9	62.3
788.0456	45.9796	494.75	67.15
788.1863	48.2456	504.65	71.15
788.3271	50.5112	513.1	77.25
788.4679	52.7764	520	83.1
788.6087	55.0411	530.95	89.35
788.7496	57.3054	538.8	94.2
788.8904	59.5692	550.25	100.05
789.0313	61.8326	559.7	105.45
789.1722	64.0955	574.05	115.2
789.3132	66.3579	586.15	122.1
789.4541	68.6199	604.5	139.25
789.5951	70.8815	632.35	164.45
789.7361	73.1426	696.05	223.25
789.8771	75.4032	866.3	386.85
790.0181	77.6634	1281.25	797
790.1592	79.9231	2248.6	1759.45
790.3003	82.1824	4378.8	3880.8
790.4414	84.4412	8300.55	7783.45
790.5825	86.6995	13905.8	13371.05
790.7237	88.9574	19512.05	18955.35
790.8648	91.2148	23560.7	22985.15
791.006	93.4717	25556.25	24972.75
791.1472	95.7282	26113.95	25526.75
791.2885	97.9842	26144.15	25553
791.4297	100.2398	25752.7	25159.95
791.571	102.4949	25280.15	24685.75
791.7123	104.7495	24614.2	24013.6
791.8536	107.0036	23935.95	23336.65
791.9949	109.2573	23161.6	22563.45
792.1363	111.5105	22460.85	21859.85
792.2777	113.7632	21746	21147.75
792.4191	116.0154	21162.6	20552.8
792.5605	118.2672	20690.7	20085.7
792.7019	120.5185	20158.75	19550.8
792.8434	122.7693	19820.2	19211.35
792.9849	125.0197	19552.75	18937.25
793.1264	127.2696	19266.05	18650.8
793.2679	129.519	19143.25	18521.95
793.4094	131.7679	18975.2	18354.65
793.551	134.0163	18872.45	18250.65
793.6926	136.2642	18736.9	18108.05
793.8342	138.5117	18627.8	17990.9
793.9758	140.7587	18431.1	17799.3
794.1175	143.0052	18307.9	17674
794.2591	145.2512	18103.6	17468.4
794.4008	147.4967	17910.3	17276.9
794.5425	149.7417	17801.55	17160
794.6842	151.9863	17669.1	17025.5
794.826	154.2304	17643.9	17002.8
794.9677	156.4739	17527.8	16876.9
795.1095	158.717	17460.7	16811.85
795.2513	160.9596	17300.55	16649.3
795.3931	163.2017	17044.35	16388.15
795.535	165.4433	16759.1	16103.35
795.6768	167.6844	16465.15	15802.9
795.8187	169.925	16142	15479.15
795.9606	172.1651	15786.45	15119.1
796.1025	174.4047	15517.95	14848.3
796.2445	176.6439	15250.45	14581.75
796.3864	178.8825	15025.45	14353.8
796.5284	181.1206	14852.6	14177.45
796.6704	183.3582	14702.45	14020.2
796.8124	185.5954	14601.45	13917.4
796.9544	187.832	14460.65	13775.25
797.0965	190.0681	14413.5	13724.65
797.2386	192.3037	14430.75	13739.15
797.3806	194.5388	14397.75	13704.1
797.5228	196.7734	14397	13697.25
797.6649	199.0075	14437.25	13737.5
797.807	201.2411	14551	13849.45
797.9492	203.4742	14610.5	13906.9
798.0914	205.7068	14720.4	14014.65
798.2336	207.9389	14793.95	14090.75
798.3758	210.1704	14891.95	14187.7
798.518	212.4015	15003.35	14293.3
798.6603	214.632	15176.8	14464.8
798.8025	216.862	15315.15	14608.75
798.9448	219.0915	15490.45	14793.05
799.0871	221.3205	15747.6	15056.1
799.2294	223.549	15989.4	15302.95
799.3718	225.777	16317.05	15629.8
799.5141	228.0044	16708.3	16016.2
799.6565	230.2314	17226.85	16538.9
799.7989	232.4578	17675.45	16985.4
799.9413	234.6837	18050.45	17356.2
800.0837	236.909	18269.45	17572.35
800.2262	239.1339	18199.1	17478.95
800.3687	241.3582	17901.5	17194.45
800.5111	243.582	17526.2	16792.3
800.6536	245.8053	17124.9	16397.45
800.7961	248.0281	16750.45	16028.3
800.9387	250.2503	16419.45	15698.05
801.0812	252.472	16228.95	15500.25
801.2238	254.6932	16135.8	15405.35
801.3664	256.9139	15954.15	15222.05
801.509	259.134	15874.95	15139.2
801.6516	261.3536	15786.15	15053.05
801.7942	263.5727	15722.55	14983.6
801.9369	265.7912	15562.3	14826
802.0795	268.0092	15527.1	14789.15
802.2222	270.2267	15435.1	14697.5
802.3649	272.4436	15351.2	14611.25
802.5076	274.6601	15299.7	14552.45
802.6504	276.8759	15249.8	14507.5
802.7931	279.0913	15229	14487.8
802.9359	281.3061	15266.35	14518.2
803.0787	283.5204	15365.55	14617.75
803.2215	285.7341	15455.7	14706.45
803.3643	287.9473	15640.05	14877.9
803.5071	290.16	15899	15140.45
803.6499	292.3721	16204.25	15450.8
803.7928	294.5837	16647.5	15893.2
803.9357	296.7947	16988.85	16236.5
804.0786	299.0052	17187.2	16434.75
804.2215	301.2152	17016.75	16262.3
804.3644	303.4246	16613.45	15863.3
804.5074	305.6334	16066	15313.55
804.6503	307.8418	15526.95	14770.8
804.7933	310.0495	15152.3	14394.85
804.9363	312.2568	14878.5	14123.35
805.0793	314.4635	14655.3	13897.45
805.2223	316.6696	14654	13894.8
805.3653	318.8752	14629.05	13861.45
805.5084	321.0802	14693.25	13934.35
805.6514	323.2847	14798.8	14037.85
805.7945	325.4887	14842.35	14078.65
805.9376	327.692	14784.55	14022
806.0807	329.8949	14669.15	13905.75
806.2238	332.0972	14415.45	13647.85
806.367	334.2989	14114.1	13344.5
806.5101	336.5001	13809.85	13038.85
806.6533	338.7007	13612.35	12842.15
806.7965	340.9008	13502.15	12729.85
806.9397	343.1003	13405.95	12631.55
807.0829	345.2992	13354.2	12579
807.2261	347.4976	13310.75	12533.35
807.3693	349.6955	13315.65	12538.05
807.5126	351.8927	13383.25	12605.3
807.6559	354.0895	13380.1	12588.25
807.7991	356.2856	13391.55	12611.45
807.9424	358.4812	13385.7	12607.75
808.0857	360.6763	13420.05	12636.95
808.2291	362.8707	13370.65	12586.75
808.3724	365.0646	13354.55	12572.1
808.5158	367.258	13354.7	12567.95
808.6591	369.4508	13383.4	12593.95
808.8025	371.643	13416.2	12628.05
808.9459	373.8346	13376.5	12586.3
809.0893	376.0257	13339.85	12543
809.2327	378.2162	13214.1	12420.95
809.3762	380.4062	13121.15	12323.9
809.5196	382.5956	12974.7	12176
809.6631	384.7844	12871.9	12071.85
809.8066	386.9726	12747.9	11944.9
809.9501	389.1603	12698.05	11894.8
810.0936	391.3474	12689.85	11857
810.2371	393.5339	12624.05	11825.9
810.3806	395.7199	12560.8	11771.45
810.5241	397.9052	12577.75	11790.15
810.6677	400.09	12582.8	11795.15
810.8113	402.2743	12603.2	11816.6
810.9548	404.4579	12647.85	11858.35
811.0984	406.641	12755.15	11968.45
811.2421	408.8235	12975.5	12184.05
811.3857	411.0054	13302	12511.55
811.5293	413.1868	13740	12944.9
811.673	415.3675	14121.25	13324.95
811.8166	417.5477	14336.45	13540.75
811.9603	419.7273	14340.15	13540.5
812.104	421.9064	14241.45	13435
812.2477	424.0848	14052.4	13251.6
812.3914	426.2627	13857.75	13054
812.5351	428.4399	13567.8	12762.6
812.6788	430.6166	13230.9	12418.95
812.8226	432.7928	12870.65	12059.3
812.9663	434.9683	12545.25	11736.4
813.1101	437.1432	12366.25	11551.95
813.2539	439.3176	12200.45	11387.95
813.3977	441.4914	12083.15	11268.4
813.5415	443.6645	12054.05	11234.75
813.6853	445.8371	11990.25	11173
813.8291	448.0091	11914.55	11100.65
813.973	450.1806	11865.05	11049.35
814.1168	452.3514	11804.35	10983.85
814.2607	454.5216	11771.8	10945.55
814.4046	456.6913	11680.1	10864.5
814.5485	458.8603	11713.9	10896.6
814.6924	461.0288	11776.05	10958.15
814.8363	463.1967	11793.5	10975
814.9802	465.3639	11911.3	11089
815.1241	467.5306	12045.2	11224.6
815.2681	469.6967	12193.2	11371.65
815.412	471.8622	12370.45	11550.1
815.556	474.0271	12519.1	11699.55
815.7	476.1914	12564.5	11741.1
815.844	478.3551	12527.35	11707.8
815.988	480.5182	12476.7	11653.2
816.132	482.6807	12438.3	11613.7
816.276	484.8426	12452.8	11631.15
816.4201	487.0039	12705.3	11880.45
816.5641	489.1647	13052.9	12227.15
816.7082	491.3248	13465.6	12643.05
816.8522	493.4843	13668.85	12845.7
816.9963	495.6432	13655.55	12831.6
817.1404	497.8015	13581.8	12752.65
817.2845	499.9592	13609.95	12783.75
817.4286	502.1163	13547.55	12722.8
817.5727	504.2728	13378.35	12551.75
817.7168	506.4287	13085.9	12260.75
817.861	508.5839	12681.9	11855.95
818.0051	510.7386	12335.95	11508.8
818.1493	512.8927	12118.75	11283.55
818.2935	515.0461	11969.05	11140.35
818.4377	517.199	11843.65	11016.95
818.5818	519.3512	11800.55	10971.55
818.726	521.5029	11753.9	10919.25
818.8703	523.6539	11758.85	10928.8
819.0145	525.8043	11770.45	10936.65
819.1587	527.9541	11792.45	10957.5
819.303	530.1033	11841.2	11007.25
819.4472	532.2519	11906.2	11074.3
819.5915	534.3999	12069.55	11235.8
819.7357	536.5472	12369.95	11538.7
819.88	538.694	12855	12022.1
820.0243	540.8401	13469.45	12634.5
820.1686	542.9856	13994.05	13157.7
820.3129	545.1305	14174.85	13339.25
820.4572	547.2748	13987.45	13151.25
820.6016	549.4185	13573.3	12735.9
820.7459	551.5615	13157.25	12321
820.8902	553.704	12984.4	12145.75
821.0346	555.8458	12849.6	12012.5
821.1789	557.987	12793.6	11955.3
821.3233	560.1276	12695.85	11856.35
821.4677	562.2675	12584.05	11744.95
821.6121	564.4069	12441.7	11604.75
821.7565	566.5456	12290.05	11451.55
821.9009	568.6837	12175.25	11337.75
822.0453	570.8212	11945.4	11108.05
822.1897	572.958	11740.7	10901.65
822.3342	575.0942	11599.6	10761.05
822.4786	577.2299	11481.9	10641.7
822.6231	579.3648	11534.65	10696.7
822.7675	581.4992	11628.6	10790.9
822.912	583.6329	11827.45	10988.95
823.0565	585.766	12043.95	11205.3
823.201	587.8985	12145.65	11307.25
823.3454	590.0304	12130.75	11279.45
823.4899	592.1616	12078.15	11234.2
823.6345	594.2922	11961.15	11120.55
823.779	596.4222	11858.9	11020.45
823.9235	598.5515	11676.8	10831.35
824.068	600.6802	11507.25	10662
824.2126	602.8083	11322.15	10478.9
824.3571	604.9358	11262.2	10417.8
824.5017	607.0626	11176.6	10333.15
824.6462	609.1888	11076.9	10234.5
824.7908	611.3144	10960.9	10117.05
824.9354	613.4393	10800.5	9955.4
825.08	615.5636	10660.55	9815.9
825.2246	617.6873	10511.25	9665.35
825.3692	619.8103	10475.85	9628.5
825.5138	621.9327	10420.55	9573.3
825.6584	624.0544	10404.65	9561.05
825.803	626.1756	10412.45	9570.35
825.9477	628.2961	10378.15	9530.25
826.0923	630.4159	10307.1	9461.3
826.237	632.5351	10268.25	9421.15
826.3816	634.6537	10222.05	9373.7
826.5263	636.7716	10186.15	9335.9
826.6709	638.8889	10163.55	9314.25
826.8156	641.0056	10176.1	9330
826.9603	643.1216	10163.7	9314.35
827.105	645.237	10184.85	9331.6
827.2497	647.3518	10167.2	9317.9
827.3944	649.4659	10197.85	9349.65
827.5391	651.5793	10196.3	9347.1
827.6838	653.6922	10174.2	9323.8
827.8285	655.8043	10136.2	9288.35
827.9733	657.9159	10106.8	9255
828.118	660.0268	10036.2	9180.15
828.2627	662.137	9973.35	9120.5
828.4075	664.2466	9907.95	9056.65
828.5522	666.3556	9882.5	9032.55
828.697	668.4639	9875.8	9020.55
828.8418	670.5716	9920.45	9066.3
828.9865	672.6786	10005.7	9147.2
829.1313	674.785	10077.9	9223.2
829.2761	676.8907	10139.55	9285.95
829.4209	678.9958	10210	9358.35
829.5657	681.1002	10167.8	9313.3
829.7105	683.204	10153.05	9295.25
829.8553	685.3072	10097.95	9244.05
830.0001	687.4097	10009.05	9153.75
830.1449	689.5115	9927.4	9069.8
830.2898	691.6127	9839.75	8983.35
830.4346	693.7132	9779.35	8924.1
830.5794	695.8131	9722.3	8841.3
830.7243	697.9123	9676.05	8820.3
830.8691	700.0109	9600.25	8741.6
831.014	702.1089	9570.55	8714.05
831.1588	704.2061	9569.65	8714.5
831.3037	706.3028	9584.7	8728.55
831.4486	708.3987	9655.65	8801.45
831.5935	710.4941	9739.7	8880.5
831.7383	712.5887	9888	9028.65
831.8832	714.6827	10169.4	9308.9
832.0281	716.7761	10543.9	9686.75
832.173	718.8688	10888.75	10030.1
832.3179	720.9608	11093.85	10229.9
832.4628	723.0522	11079.35	10216.3
832.6077	725.1429	10822.35	9963.4
832.7527	727.233	10441.3	9578.65
832.8976	729.3224	10113	9252.15
833.0425	731.4112	9806.3	8943.1
833.1874	733.4993	9616.5	8754.15
833.3324	735.5867	9486.2	8623.25
833.4773	737.6735	9367.15	8506.1
833.6222	739.7596	9379.4	8518.75
833.7672	741.845	9326.2	8465.25
833.9122	743.9298	9324.7	8463.05
834.0571	746.014	9324.3	8461.75
834.2021	748.0974	9322.8	8460.45
834.347	750.1802	9342.3	8480.35
834.492	752.2624	9301.85	8439.5
834.637	754.3439	9316.4	8455.75
834.782	756.4247	9371.8	8499.2
834.9269	758.5048	9445.7	8583.9
835.0719	760.5843	9599.6	8735.3
835.2169	762.6631	9850	8988.8
835.3619	764.7413	10188.95	9327.75
835.5069	766.8188	10711.75	9846.5
835.6519	768.8956	11122.85	10258.45
835.7969	770.9718	11389.5	10525.45
835.9419	773.0473	11264.2	10399.1
836.0869	775.1221	10953.8	10090.55
836.232	777.1962	10603.95	9740.35
836.377	779.2697	10427.75	9560.5
836.522	781.3426	10474.25	9601.3
836.667	783.4147	10786.7	9922.5
836.8121	785.4862	11087	10225.65
836.9571	787.557	11091.2	10224.75
837.1021	789.6271	10716.45	9849.45
837.2472	791.6966	10205.1	9339.05
837.3922	793.7654	9729.4	8864.6
837.5373	795.8335	9432.5	8569.25
837.6823	797.901	9265.65	8402
837.8274	799.9678	9196.8	8328.05
837.9724	802.0339	9219.2	8353.85
838.1175	804.0993	9317.25	8441.85
838.2626	806.1641	9290.55	8424
838.4076	808.2282	9229.05	8366
838.5527	810.2916	9150.65	8283.15
838.6978	812.3544	9029.25	8164.9
838.8428	814.4164	8924.9	8062.3
838.9879	816.4778	8913.5	8046.85
839.133	818.5385	8874.9	8010.35
839.2781	820.5986	8924.6	8058.55
839.4232	822.658	8933.75	8065.65
839.5682	824.7166	8962.75	8095.6
839.7133	826.7747	9088.4	8221.1
839.8584	828.832	9157.3	8288.95
840.0035	830.8886	9266.35	8399.45
840.1486	832.9446	9373.45	8503.65
840.2937	834.9999	9456.85	8593.05
840.4388	837.0545	9543.55	8672.2
840.5839	839.1085	9578	8710.25
840.729	841.1618	9607.85	8735.85
840.8741	843.2143	9594.95	8730.5
841.0192	845.2662	9519.4	8652.8
841.1643	847.3175	9446.4	8581.55
841.3095	849.368	9368.65	8503
841.4546	851.4179	9262.65	8395.55
841.5997	853.467	9113.1	8243.6
841.7448	855.5155	9013.15	8144.25
841.8899	857.5633	8892.1	8025.45
842.0351	859.6105	8768	7899.8
842.1802	861.6569	8693.1	7824.15
842.3253	863.7027	8632.95	7760.6
842.4704	865.7478	8613.65	7746.25
842.6156	867.7922	8609.2	7739.9
842.7607	869.8359	8668.35	7794.65
842.9058	871.8789	8768.05	7899.35
843.0509	873.9212	8976.45	8071.55
843.1961	875.9629	9110.45	8240.7
843.3412	878.0039	9244.8	8372.1
843.4863	880.0441	9334	8463.85
843.6315	882.0837	9314.75	8444.7
843.7766	884.1226	9214.5	8341.95
843.9218	886.1609	9019.55	8151
844.0669	888.1984	8900.2	8031.5
844.212	890.2352	8807.75	7937.4
844.3572	892.2714	8763.9	7892.45
844.5023	894.3069	8722.8	7851.9
844.6475	896.3416	8690.35	7818.25
844.7926	898.3757	8651.25	7781.8
844.9377	900.4091	8640	7768.4
845.0829	902.4418	8655.7	7780.4
845.228	904.4739	8659.05	7786.4
845.3732	906.5052	8629.2	7757.35
845.5183	908.5358	8537.45	7667.4
845.6635	910.5658	8385.2	7512.15
845.8086	912.595	8229.65	7357
845.9538	914.6236	8117.15	7246
846.0989	916.6515	8091.4	7220.75
846.2441	918.6786	8083.7	7212.05
846.3892	920.7051	8126.3	7253.55
846.5344	922.7309	8241.8	7369.25
846.6795	924.756	8313.7	7440.85
846.8246	926.7804	8390.8	7516.2
846.9698	928.8041	8346.5	7471.4
847.1149	930.8272	8367.3	7494.7
847.2601	932.8495	8290.65	7417.45
847.4052	934.8711	8231.65	7357.95
847.5504	936.892	8077.65	7206.85
847.6955	938.9123	7890	7016.15
847.8407	940.9318	7761.15	6890
847.9858	942.9506	7651.4	6777.8
848.131	944.9688	7562.5	6690.2
848.2761	946.9862	7535.85	6661.9
848.4213	949.003	7471.7	6597.7
848.5664	951.019	7492.55	6620.2
848.7115	953.0344	7512.85	6639.15
848.8567	955.0491	7541.85	6668.6
849.0018	957.063	7611.15	6738.05
849.147	959.0763	7710.85	6837.45
849.2921	961.0888	7732	6857.8
849.4373	963.1007	7797.1	6924.7
849.5824	965.1119	7824.25	6950.4
849.7275	967.1223	7862.45	6987.15
849.8727	969.1321	7855	6981.05
850.0178	971.1412	7890.9	7016.3
850.1629	973.1495	7936.35	7063.4
850.3081	975.1572	7989.05	7068.15
850.4532	977.1641	7973.15	7097.75
850.5983	979.1704	7971.5	7097.85
850.7435	981.1759	7936.1	7056.35
850.8886	983.1808	8017.8	7140.7
851.0337	985.1849	8107.7	7224.15
851.1788	987.1884	8250.65	7373.9
851.324	989.1911	8409.55	7533.35
851.4691	991.1932	8563	7686.85
851.6142	993.1945	8601.25	7727.45
851.7593	995.1951	8567.9	7692.95
851.9045	997.1951	8551.6	7671.1
852.0496	999.1943	8452.9	7576.6
852.1947	1001.1928	8392.1	7515.35
852.3398	1003.1906	8384.3	7509.9
852.4849	1005.1877	8414.2	7536.9
852.63	1007.1841	8372.85	7496.9
852.7751	1009.1798	8280.05	7406.7
852.9202	1011.1748	8066.2	7191.05
853.0653	1013.1691	7883.15	7004.65
853.2104	1015.1627	7695.15	6821.7
853.3555	1017.1556	7522.25	6646.85
853.5006	1019.1477	7449.4	6573.25
853.6457	1021.1392	7397.15	6522.1
853.7908	1023.1299	7402.4	6526.65
853.9359	1025.12	7423.45	6545.5
854.081	1027.1093	7462.3	6585.4
854.2261	1029.0979	7516.5	6640.85
854.3712	1031.0859	7599.35	6725.25
854.5163	1033.0731	7572.5	6694.5
854.6613	1035.0596	7494.4	6619.95
854.8064	1037.0454	7345.35	6470.45
854.9515	1039.0304	7243.3	6368.2
855.0965	1041.0148	7142.6	6267.45
855.2416	1042.9985	7052.45	6177.55
855.3867	1044.9814	7026	6151.4
855.5317	1046.9636	6978.1	6098.7
855.6768	1048.9452	6949.9	6075.4
855.8219	1050.926	6964.15	6088.3
855.9669	1052.9061	6965.5	6093.15
856.112	1054.8855	6919.8	6042.5
856.257	1056.8642	6950.5	6076.3
856.4021	1058.8421	6998.25	6119.9
856.5471	1060.8194	7011	6135
856.6921	1062.7959	7019.6	6142.1
856.8372	1064.7717	7006.6	6130.3
856.9822	1066.7469	7042	6164.1
857.1272	1068.7213	7006.2	6127.3
857.2723	1070.695	6954.05	6078.2
857.4173	1072.6679	6899.5	6022.4
857.5623	1074.6402	6857.95	5981.8
857.7073	1076.6117	6834.4	5953.15
857.8523	1078.5826	6851.85	5975.4
857.9973	1080.5527	6920.7	6041.55
858.1423	1082.5221	7060.5	6183.2
858.2873	1084.4908	7269.65	6394.1
858.4323	1086.4587	7470.15	6593.1
858.5773	1088.426	7622.9	6745.95
858.7223	1090.3925	7597.8	6716.15
858.8673	1092.3584	7508.75	6633.2
859.0123	1094.3235	7374.9	6498.6
859.1573	1096.2879	7256.1	6380.4
859.3022	1098.2515	7211.2	6336.8
859.4472	1100.2145	7223.9	6348.1
859.5922	1102.1767	7282.35	6402.35
859.7371	1104.1382	7402.35	6522.55
859.8821	1106.099	7586.85	6710.8
860.027	1108.0591	7751.1	6873.6
860.172	1110.0185	7891.55	7011.65
860.3169	1111.9771	7890.8	7014.55
860.4619	1113.9351	7684.6	6806.45
860.6068	1115.8923	7370.55	6493.65
860.7517	1117.8488	7069.65	6191.55
860.8967	1119.8045	6802.85	5923.2
861.0416	1121.7596	6673.35	5794.05
861.1865	1123.7139	6605.55	5728.35
861.3314	1125.6675	6627.25	5749.25
861.4763	1127.6204	6663.85	5786.6
861.6212	1129.5726	6710.2	5829.9
861.7661	1131.524	6744.1	5869.25
861.911	1133.4748	6766.3	5889.1
862.0559	1135.4248	6807.75	5928.7
862.2008	1137.3741	6842.5	5965.45
862.3457	1139.3226	6799.8	5919.6
862.4905	1141.2705	6765.2	5887.55
862.6354	1143.2176	6709.2	5823.05
862.7803	1145.164	6747.7	5869.45
862.9251	1147.1097	6762.65	5884.25
863.07	1149.0546	6766	5886.7
863.2148	1150.9989	6622.35	5746.45
863.3597	1152.9424	6480.2	5599.25
863.5045	1154.8852	6294.8	5413.95
863.6493	1156.8272	6172.45	5295.65
863.7942	1158.7686	6108.45	5220.4
863.939	1160.7092	6069.4	5192.1
864.0838	1162.6491	6083.85	5201.9
864.2286	1164.5883	6118.95	5241.1
864.3734	1166.5267	6184.15	5305
864.5182	1168.4644	6319.9	5441.6
864.663	1170.4014	6478	5592.85
864.8078	1172.3377	6670	5792.85
864.9526	1174.2732	6856.25	5978.35
865.0974	1176.2081	7050.3	6171.85
865.2421	1178.1421	7178.55	6292.95
865.3869	1180.0755	7282	6403.1
865.5317	1182.0082	7276.8	6397.65
865.6764	1183.9401	7214.05	6334.1
865.8212	1185.8713	7020.5	6141.6
865.9659	1187.8017	6787.45	5908.15
866.1106	1189.7315	6562.15	5683
866.2554	1191.6605	6371.5	5463.7
866.4001	1193.5888	6177.45	5298.8
866.5448	1195.5163	6081.15	5201.25
866.6895	1197.4432	5990.1	5109.05
866.8342	1199.3693	5912.3	5032.95
866.9789	1201.2947	5896.6	5013.95
867.1236	1203.2193	5873.75	4994.05
867.2683	1205.1432	5906.15	5027.8
867.413	1207.0664	5938.1	5060.4
867.5576	1208.9889	6014.6	5134.05
867.7023	1210.9106	6089.3	5209.95
867.847	1212.8316	6165.75	5287.3
867.9916	1214.7519	6242	5354.65
868.1363	1216.6715	6248.7	5370.75
868.2809	1218.5903	6229.55	5351.25
868.4255	1220.5084	6193.45	5314.45
868.5701	1222.4257	6133.95	5252
868.7148	1224.3424	6100.35	5220.1
868.8594	1226.2583	6140.8	5258.5
869.004	1228.1735	6231.1	5350.4
869.1486	1230.0879	6374.2	5494.5
869.2932	1232.0016	6493	5614.6
869.4377	1233.9146	6510.95	5629.95
869.5823	1235.8269	6428.5	5550.15
869.7269	1237.7384	6295.9	5418.3
869.8715	1239.6492	6153.7	5275.35
870.016	1241.5592	6067.25	5185.35
870.1606	1243.4686	5977.45	5099.25
870.3051	1245.3772	5908.75	5029.25
870.4496	1247.285	5844.5	4963.7
870.5941	1249.1922	5797.65	4919
870.7387	1251.0986	5806.3	4926.3
870.8832	1253.0042	5822.55	4942.65
871.0277	1254.9092	5881.25	5001.3
871.1722	1256.8134	5956.95	5078.6
871.3167	1258.7169	6092.95	5213.35
871.4611	1260.6196	6230.9	5351.8
871.6056	1262.5216	6382	5500.5
871.7501	1264.4229	6495.25	5617.15
871.8945	1266.3234	6585.05	5705.4
872.039	1268.2232	6655.95	5773.6
872.1834	1270.1223	6601.3	5718.95
872.3278	1272.0207	6566.95	5686.6
872.4723	1273.9183	6544.25	5657.9
872.6167	1275.8151	6489.8	5612.3
872.7611	1277.7113	6390.6	5509.9
872.9055	1279.6067	6244.1	5365.5
873.0499	1281.5014	6108.45	5225.3
873.1943	1283.3953	5980.9	5099.4
873.3386	1285.2885	5885.75	5003.7
873.483	1287.181	5823.25	4943.55
873.6274	1289.0727	5844.85	4967.75
873.7717	1290.9637	5883.85	5003.5
873.9161	1292.854	5977.85	5097.55
874.0604	1294.7435	6120.5	5240.15
874.2047	1296.6323	6326.35	5445.85
874.349	1298.5204	6543.9	5658.7
874.4933	1300.4077	6774.05	5893.7
874.6376	1302.2943	6956.3	6077
874.7819	1304.1802	7029	6148.6
874.9262	1306.0653	6956.2	6072.9
875.0705	1307.9497	6828	5947.85
875.2147	1309.8333	6777.25	5899.2
875.359	1311.7162	6771.75	5890.4
875.5032	1313.5984	6840.95	5957.45
875.6475	1315.4798	6991.5	6099.5
875.7917	1317.3605	7149.2	6251.55
875.9359	1319.2405	7282.75	6401.6
876.0801	1321.1197	7312.95	6430.85
876.2243	1322.9982	7295.45	6410.85
876.3685	1324.876	7272.4	6392.5
876.5127	1326.753	7243.55	6363.45
876.6569	1328.6293	7264.45	6382.85
876.801	1330.5048	7281.5	6397.05
876.9452	1332.3796	7251.95	6373.85
877.0893	1334.2537	7252.15	6343.85
877.2335	1336.127	7185.35	6303.6
877.3776	1337.9996	7161.05	6280.9
877.5217	1339.8714	7120.9	6239.4
877.6658	1341.7426	7083.35	6157.3
877.8099	1343.6129	6983.2	6102.45
877.954	1345.4826	6941.2	6061.85
878.0981	1347.3515	6880.45	5995.75
878.2422	1349.2196	6832.65	5951.55
878.3862	1351.087	6824	5945.25
878.5303	1352.9537	6860	5976.95
878.6743	1354.8197	6979	6099.3
878.8184	1356.6849	7136.2	6254.3
878.9624	1358.5493	7187.1	6304.8
879.1064	1360.4131	7180.65	6297.75
879.2504	1362.276	7094.7	6213.95
879.3944	1364.1383	6964.65	6083.8
879.5384	1365.9998	6785.95	5898.95
879.6823	1367.8606	6539.05	5654.65
879.8263	1369.7206	6330.5	5448.3
879.9702	1371.5799	6189.8	5307.6
880.1142	1373.4384	6086.55	5202.85
880.2581	1375.2962	5967.55	5085.95
880.402	1377.1533	5768.85	4887.45
880.5459	1379.0096	5525.65	4641.6
880.6898	1380.8652	5315.95	4435.15
880.8337	1382.7201	5105.95	4225.25
880.9776	1384.5742	4924.95	4045.65
881.1215	1386.4275	4817.4	3935.7
881.2653	1388.2802	4715.05	3833.95
881.4092	1390.132	4640.75	3758.65
881.553	1391.9832	4585.45	3702.2
881.6968	1393.8336	4533	3654.8
881.8406	1395.6832	4504.55	3622.3
881.9844	1397.5322	4488.95	3609
882.1282	1399.3803	4471.2	3584.55
882.272	1401.2278	4453.95	3572.25
882.4158	1403.0745	4445.3	3562.85
882.5595	1404.9204	4454.75	3574.7
882.7033	1406.7656	4468.05	3585.45
882.847	1408.6101	4487.8	3606.55
882.9908	1410.4538	4502.45	3620.6
883.1345	1412.2968	4537.05	3654.3
883.2782	1414.139	4604.35	3724.7
883.4219	1415.9805	4655.25	3776.15
883.5656	1417.8213	4760.9	3874.55
883.7092	1419.6613	4874.2	3994.65
883.8529	1421.5006	5031.9	4149.1
883.9965	1423.3391	5285.8	4403.1
884.1402	1425.1769	5608.75	4725.95
884.2838	1427.0139	6081.45	5197.6
884.4274	1428.8502	6610.7	5728
884.571	1430.6858	7166.4	6284.9
884.7146	1432.5206	7552.5	6671.55
884.8582	1434.3547	7762.45	6877.1
885.0018	1436.188	7819.65	6938.65
885.1453	1438.0206	7738.85	6856.25
885.2889	1439.8524	7620.75	6738.9
885.4324	1441.6835	7522.35	6639.5
885.5759	1443.5139	7441.25	6558.75
885.7194	1445.3435	7387.65	6508.15
885.8629	1447.1724	7356.45	6475.85
886.0064	1449.0005	7291.65	6410.2
886.1499	1450.8279	7206.8	6323.15
886.2933	1452.6545	7165.95	6284.75
886.4368	1454.4804	7185.95	6305.7
886.5802	1456.3056	7178.25	6288.9
886.7237	1458.13	7092.25	6211.45
886.8671	1459.9536	6887.25	6005.85
887.0105	1461.7766	6561.1	5678.6
887.1539	1463.5987	6195.3	5312.35
887.2972	1465.4202	5838.4	4954.55
887.4406	1467.2409	5528.4	4645.85
887.584	1469.0608	5291.95	4410.6
887.7273	1470.88	5062.75	4180.85
887.8706	1472.6984	4863.4	3982.8
888.0139	1474.5161	4688.15	3803.45
888.1572	1476.3331	4563.4	3681.25
888.3005	1478.1493	4453.5	3571
888.4438	1479.9648	4360.9	3478.95
888.5871	1481.7795	4273.15	3390.2
888.7303	1483.5935	4220.05	3340.3
888.8736	1485.4067	4183.4	3302.6
889.0168	1487.2192	4130.15	3248
889.16	1489.031	4117.7	3233.85
889.3032	1490.842	4065.7	3183.2
889.4464	1492.6522	4034.95	3154.75
889.5896	1494.4618	4007.95	3123.8
889.7327	1496.2705	3985.4	3105.05
889.8759	1498.0785	3966.75	3082.5
890.019	1499.8858	3945.75	3063.55
890.1622	1501.6924	3943.35	3063.1
890.3053	1503.4981	3930.45	3049.1
890.4484	1505.3032	3917.9	3038.9
890.5914	1507.1075	3899.55	3017.6
890.7345	1508.911	3876.7	2995.05
890.8776	1510.7138	3858.6	2977.35
891.0206	1512.5159	3826.05	2942.9
891.1637	1514.3172	3801.2	2920.95
891.3067	1516.1178	3759.35	2876.35
891.4497	1517.9176	3753.25	2868.5
891.5927	1519.7166	3721.95	2841.25
891.7357	1521.515	3713.6	2826.25
891.8786	1523.3126	3686.1	2803.05
892.0216	1525.1094	3688.85	2805.25
892.1645	1526.9055	3659.95	2780.2
892.3074	1528.7008	3645.95	2765.35
892.4503	1530.4954	3629.25	2745.95
892.5932	1532.2893	3625.55	2745.15
892.7361	1534.0824	3610.2	2724.85
892.879	1535.8747	3602.55	2722.2
893.0218	1537.6663	3591.2	2708.9
893.1647	1539.4572	3592.7	2711.85
893.3075	1541.2473	3574.35	2691.45
893.4503	1543.0367	3591.5	2711.4
893.5931	1544.8253	3565.75	2680.4
893.7359	1546.6132	3600.4	2715.4
893.8787	1548.4003	3595.1	2702.25
894.0214	1550.1867	3595.55	2705.65
894.1642	1551.9723	3621.8	2737.95
894.3069	1553.7572	3624	2742.95
894.4496	1555.5414	3652	2770.3
894.5923	1557.3247	3681.3	2799.55
894.735	1559.1074	3713	2833.45
894.8777	1560.8893	3760.6	2880.15
895.0204	1562.6705	3806.45	2926.95
895.163	1564.4509	3880.65	3001.05
895.3056	1566.2305	3936.9	3056
895.4482	1568.0094	4030.85	3150.15
895.5908	1569.7876	4111.95	3230.85
895.7334	1571.565	4163.7	3280.65
895.876	1573.3417	4217.9	3336.9
896.0186	1575.1176	4225.25	3345
896.1611	1576.8928	4202.9	3322.2
896.3036	1578.6672	4128.85	3250
896.4461	1580.4409	4039.9	3161.4
896.5886	1582.2138	3914.9	3033.1
896.7311	1583.986	3801.35	2917.75
896.8736	1585.7575	3740.4	2859.2
897.0161	1587.5282	3664.05	2782.95
897.1585	1589.2981	3601.55	2723.7
897.3009	1591.0673	3576.85	2694.05
897.4433	1592.8358	3552.65	2671.3
897.5857	1594.6035	3562.55	2679.5
897.7281	1596.3704	3549.95	2669.15
897.8705	1598.1366	3561.65	2680.5
898.0128	1599.9021	3575.35	2693.35
898.1551	1601.6668	3607.85	2725.3
898.2975	1603.4308	3637.65	2755.4
898.4398	1605.194	3703.5	2815.15
898.5821	1606.9564	3782.4	2902.15
898.7243	1608.7182	3867.65	2979.75
898.8666	1610.4791	3975.35	3095.9
899.0088	1612.2394	4114.45	3233.3
899.1511	1613.9988	4270.25	3389.2
899.2933	1615.7576	4480.05	3599.5
899.4355	1617.5156	4679.55	3792.55
899.5776	1619.2728	4903.5	4023.35
899.7198	1621.0293	5038.55	4159.15
899.862	1622.785	5120.8	4235.35
900.0041	1624.54	5074.55	4190.65
900.1462	1626.2942	4950.8	4066.7
900.2883	1628.0477	4749.85	3866.1
900.4304	1629.8005	4545.5	3661.55
900.5725	1631.5525	4340.1	3459.15
900.7145	1633.3037	4151.8	3270.35
900.8566	1635.0542	4003.75	3122.25
900.9986	1636.804	3889.8	3007.25
901.1406	1638.553	3880.2	2927.6
901.2826	1640.3013	3772.9	2893.6
901.4245	1642.0488	3748.3	2866.75
901.5665	1643.7955	3745.05	2864.2
901.7085	1645.5416	3748.85	2866.05
901.8504	1647.2868	3801.75	2919.95
901.9923	1649.0313	3862.05	2981.5
902.1342	1650.7751	3987.2	3103.3
902.2761	1652.5181	4146.45	3265.95
902.4179	1654.2604	4370	3489.65
902.5598	1656.0019	4656.1	3777
902.7016	1657.7427	4964.4	4085.2
902.8434	1659.4828	5284.9	4404.65
902.9852	1661.222	5482.75	4598.95
903.127	1662.9606	5504.7	4624
903.2687	1664.6984	5361.9	4479.25
903.4105	1666.4354	5060.8	4180.7
903.5522	1668.1717	4678.2	3796.6
903.6939	1669.9072	4285.5	3406.1
903.8356	1671.642	3971.15	3087.85
903.9773	1673.3761	3703.35	2822.8
904.119	1675.1094	3520.55	2639.55
904.2606	1676.8419	3409.1	2527.7
904.4022	1678.5737	3282.75	2402.45
904.5439	1680.3048	3204.35	2322.35
904.6855	1682.0351	3152.3	2273
904.827	1683.7646	3083.7	2201.85
904.9686	1685.4934	3056.3	2178.15
905.1101	1687.2215	3034.55	2151.2
905.2517	1688.9488	2992.25	2113.85
905.3932	1690.6754	2968.35	2089.7
905.5347	1692.4012	2951.1	2072.8
905.6761	1694.1263	2931.2	2052.4
905.8176	1695.8506	2928.4	2049.05
905.9591	1697.5742	2910.55	2029.8
906.1005	1699.297	2881.75	1999.15
906.2419	1701.0191	2864.6	1984.2
906.3833	1702.7404	2851.6	1972.2
906.5246	1704.461	2835.4	1953.45
906.666	1706.1808	2812.85	1930.15
906.8073	1707.8999	2813.35	1934.4
906.9487	1709.6182	2801.65	1920.05
907.09	1711.3358	2793.6	1913
907.2313	1713.0527	2779.1	1901.55
907.3725	1714.7688	2764.4	1876.8
907.5138	1716.4841	2766.35	1885.2
907.655	1718.1987	2759.25	1873.6
907.7962	1719.9126	2732.2	1853.6
907.9374	1721.6257	2739	1856.1
908.0786	1723.338	2723	1843.1
908.2198	1725.0496	2713.1	1833.4
908.3609	1726.7605	2711.85	1832.3
908.502	1728.4706	2691.65	1810.55
908.6431	1730.18	2691.8	1807.35
908.7842	1731.8886	2670.95	1789.2
908.9253	1733.5964	2671.7	1785.85
909.0664	1735.3036	2666.9	1783.75
909.2074	1737.0099	2651.7	1771.85
909.3484	1738.7156	2639.25	1760.4
909.4894	1740.4204	2647.7	1765.65
909.6304	1742.1246	2651.35	1769.4
909.7714	1743.8279	2644.1	1763.85
909.9123	1745.5306	2633.3	1752.1
910.0532	1747.2325	2616.4	1737.9
910.1941	1748.9336	2609.85	1731.1
910.335	1750.634	2594.85	1713.9
910.4759	1752.3336	2593.6	1715.75
910.6168	1754.0325	2598	1717.6
910.7576	1755.7307	2594.75	1714.65
910.8984	1757.4281	2586.2	1708.15
911.0392	1759.1247	2596.45	1707.85
911.18	1760.8206	2586.05	1703.4
911.3208	1762.5158	2577.55	1693.75
911.4615	1764.2102	2563.8	1684.45
911.6022	1765.9039	2557.95	1677.5
911.7429	1767.5968	2552.7	1673.1
911.8836	1769.289	2539.05	1658.75
912.0243	1770.9804	2536.65	1654.1
912.1649	1772.6711	2532.35	1652.1
912.3056	1774.361	2528.4	1647.4
912.4462	1776.0502	2535.35	1657.35
912.5868	1777.7386	2541.95	1658.95
912.7274	1779.4263	2515.75	1635
912.8679	1781.1132	2509.5	1629.6
913.0084	1782.7994	2507.9	1624.8
913.149	1784.4849	2503	1624.05
913.2895	1786.1696	2507.8	1607
913.4299	1787.8535	2497.3	1616.6
913.5704	1789.5367	2487.8	1606.95
913.7108	1791.2192	2490.8	1612.3
913.8513	1792.9009	2506.05	1599.5
913.9917	1794.5818	2477.75	1598.2
914.132	1796.2621	2467.35	1586.7
914.2724	1797.9415	2474.9	1595.05
914.4128	1799.6202	2479.1	1599.5
914.5531	1801.2982	2459.35	1581.4
914.6934	1802.9755	2452.65	1572.15
914.8337	1804.6519	2442.35	1563.75
914.9739	1806.3277	2437.95	1558.6
915.1142	1808.0027	2437.1	1559.4
915.2544	1809.6769	2446.4	1565.5
915.3946	1811.3504	2439.1	1557.15
915.5348	1813.0231	2436.35	1555.85
915.675	1814.6951	2444.8	1563.8
915.8151	1816.3664	2440.65	1558.4
915.9553	1818.0369	2421.9	1540.85
916.0954	1819.7067	2414.4	1536.1
916.2355	1821.3757	2416.8	1536.1
916.3755	1823.044	2414.3	1536.35
916.5156	1824.7115	2413.1	1533.45
916.6556	1826.3783	2397.55	1518.4
916.7956	1828.0443	2394.5	1515.1
916.9356	1829.7096	2391.4	1511.85
917.0756	1831.3741	2402.45	1519.85
917.2155	1833.0379	2391.25	1511.25
917.3555	1834.701	2381.95	1498.2
917.4954	1836.3633	2389.4	1508
917.6353	1838.0248	2387.75	1505.85
917.7751	1839.6856	2375.2	1496.7
917.915	1841.3457	2371.65	1491.95
918.0548	1843.005	2364.6	1482.5
918.1946	1844.6636	2368.65	1489.05
918.3344	1846.3214	2352.4	1471.8
918.4742	1847.9785	2362.75	1484.95
918.6139	1849.6349	2361.75	1481.05
918.7537	1851.2904	2353.75	1466.7
918.8934	1852.9453	2348.6	1470.1
919.0331	1854.5994	2353.2	1472.15
919.1727	1856.2528	2356.9	1470
919.3124	1857.9054	2340.95	1459.8
919.452	1859.5572	2342	1462.1
919.5916	1861.2083	2334.5	1455.7
919.7312	1862.8587	2334.1	1453.15
919.8708	1864.5084	2321.5	1441.6
920.0103	1866.1572	2324.85	1448.65
920.1498	1867.8054	2310.35	1431.3
920.2893	1869.4528	2323.5	1445.25
920.4288	1871.0994	2298.85	1420.3
920.5683	1872.7453	2301.3	1422.15
920.7077	1874.3905	2308.65	1421.85
920.8471	1876.0349	2295.1	1413.35
920.9865	1877.6786	2294.3	1411.65
921.1259	1879.3215	2284.85	1403.4
921.2653	1880.9637	2283.75	1401.65
921.4046	1882.6051	2282.9	1402.95
921.5439	1884.2458	2271.65	1387.7
921.6832	1885.8858	2269.3	1390
921.8225	1887.525	2275	1394.95
921.9617	1889.1634	2253	1373.3
922.101	1890.8011	2255.6	1374.85
922.2402	1892.4381	2263.5	1383.8
922.3794	1894.0743	2251	1370.6
922.5185	1895.7098	2254	1375.65
922.6577	1897.3446	2239.75	1360.15
922.7968	1898.9786	2254.65	1369
922.9359	1900.6118	2234.85	1358.25
923.075	1902.2443	2241.3	1359.55
923.214	1903.8761	2226.85	1348.75
923.3531	1905.5071	2232.7	1351.5
923.4921	1907.1374	2220.65	1341.45
923.6311	1908.7669	2221.8	1341.35
923.77	1910.3957	2212.8	1332.8
923.909	1912.0237	2208.15	1328
924.0479	1913.651	2201.8	1320.45
924.1868	1915.2776	2198.45	1321.1
924.3257	1916.9034	2203.2	1323.55
924.4646	1918.5285	2199.45	1319.4
924.6034	1920.1528	2181.65	1300.05
924.7422	1921.7764	2186.8	1306.75
924.881	1923.3992	2183.75	1305.65
925.0198	1925.0213	2166.55	1286.4
925.1586	1926.6427	2160.95	1282.6
925.2973	1928.2633	2254.95	1270.8
925.436	1929.8832	2165.55	1285.35
925.5747	1931.5023	2158.45	1279.6
925.7134	1933.1207	2159.4	1280.65
925.852	1934.7383	2149.15	1268.35
925.9906	1936.3552	2144.65	1267.2
926.1292	1937.9714	2129.75	1249.95
926.2678	1939.5868	2141.8	1261.85
926.4064	1941.2015	2114.2	1233.05
926.5449	1942.8154	2128.55	1247
926.6834	1944.4286	2115.7	1238.2
926.8219	1946.041	2142.3	1240.3
926.9604	1947.6528	2110.7	1226.25
927.0988	1949.2637	2100.05	1219.25
927.2372	1950.8739	2092.05	1212.55
927.3756	1952.4834	2099.1	1218.85
927.514	1954.0921	2100.85	1220.6
927.6523	1955.7001	2095.25	1211.1
927.7907	1957.3074	2084.2	1204.8
927.929	1958.9139	2082.25	1202.2
928.0673	1960.5197	2071.2	1188.75
928.2055	1962.1247	2067.65	1189.45
928.3438	1963.729	2051.4	1172.9
928.482	1965.3325	2080.3	1176.95
928.6202	1966.9353	2054.15	1175
928.7584	1968.5374	2047.4	1165.6
928.8965	1970.1387	2050.2	1170.95
929.0346	1971.7393	2046.1	1165.35
929.1727	1973.3392	2034.3	1153.4
929.3108	1974.9383	2026.3	1146.25
929.4489	1976.5366	2027.15	1147.85
929.5869	1978.1342	2028.65	1148.5
929.7249	1979.7311	2026.8	1146.65
929.8629	1981.3273	2020.05	1140.5
930.0009	1982.9227	2020.45	1138
930.1388	1984.5173	2010.6	1130.75
930.2767	1986.1112	2020.5	1140.7
930.4146	1987.7044	2006.75	1126.55
930.5525	1989.2968	2009.85	1129.45
930.6904	1990.8885	2018.55	1133.25
930.8282	1992.4795	2001	1119.9
930.966	1994.0697	2004.4	1124.3
931.1038	1995.6592	1993.7	1114.7
931.2415	1997.2479	1988.6	1109.25
931.3793	1998.8359	1977.7	1097.2
931.517	2000.4232	1977.85	1100.35
931.6547	2002.0097	1975	1097.15
931.7923	2003.5955	1974.3	1095.3
931.93	2005.1805	1978.55	1096.8
932.0676	2006.7648	1967.4	1087.6
932.2052	2008.3484	1964.45	1083.65
932.3427	2009.9312	1974	1094.1
932.4803	2011.5133	1955.4	1074.05
932.6178	2013.0946	1950.1	1069.55
932.7553	2014.6752	1940.75	1060.05
932.8928	2016.2551	1949.3	1068.75
933.0302	2017.8342	1955.4	1076.3
933.1676	2019.4126	1945.25	1065.5
933.305	2020.9902	1944.85	1064.7
933.4424	2022.5672	1939.65	1059.2
933.5798	2024.1433	1941.35	1055.9
933.7171	2025.7188	1940.5	1063.1
933.8544	2027.2935	1933.1	1051.5
933.9917	2028.8674	1935.5	1056.6
934.129	2030.4406	1917.8	1038.85
934.2662	2032.0131	1918.1	1038
934.4034	2033.5849	1923.3	1037.5
934.5406	2035.1559	1918.15	1040.2
934.6778	2036.7261	1911	1029.85
934.8149	2038.2957	1905.45	1026.15
934.952	2039.8645	1903.85	1023.85
935.0891	2041.4325	1904.65	1023.55
935.2262	2042.9998	1903.55	1023.5
935.3632	2044.5664	1899.9	1018.3
935.5002	2046.1323	1893.8	1016.05
935.6372	2047.6974	1888.45	1008
935.7742	2049.2617	1883	1004.4
935.9111	2050.8254	1906.4	1003.95
936.048	2052.3883	1891.35	1011.2
936.1849	2053.9504	1881.65	1002.5
936.3218	2055.5118	1876.1	994.65
936.4586	2057.0725	1875.65	990.1
936.5955	2058.6325	1869.5	987.35
936.7323	2060.1917	1872.95	995.7
936.869	2061.7502	1870.4	988
937.0058	2063.3079	1857.75	978.8
937.1425	2064.8649	1865	981.55
937.2792	2066.4212	1861	979.55
937.4159	2067.9767	1841.7	961.6
937.5525	2069.5315	1853.5	974.6
937.6891	2071.0856	1851.2	970.55
937.8257	2072.6389	1845	963.2
937.9623	2074.1915	1839.85	960.65
938.0989	2075.7433	1835.2	954
938.2354	2077.2945	1831.55	952.9
938.3719	2078.8448	1827.55	947.85
938.5084	2080.3945	1824.2	948.35
938.6448	2081.9434	1819.1	938.4
938.7812	2083.4916	1819	937.65
938.9176	2085.039	1817.4	936.4
939.054	2086.5857	1811.35	931.55
939.1903	2088.1317	1807.3	927.95
939.3267	2089.677	1809	929.6
939.463	2091.2215	1794.55	913.6
939.5992	2092.7652	1799	917.5
939.7355	2094.3083	1797.75	917.75
939.8717	2095.8506	1803.6	925.65
940.0079	2097.3921	1803.2	923.05
940.1441	2098.933	1796.25	917.6
940.2802	2100.4731	1792.45	914.75
940.4163	2102.0124	1798.15	911.2
940.5524	2103.5511	1792.05	915.15
940.6885	2105.089	1793.45	912.8
940.8245	2106.6261	1796.7	916.2
940.9606	2108.1626	1786.7	904.35
941.0965	2109.6983	1813.55	906.15
941.2325	2111.2332	1786.35	904.95
941.3684	2112.7675	1781	897.5
941.5044	2114.301	1774.95	892.6
941.6403	2115.8337	1775.35	895.3
941.7761	2117.3657	1765.55	886.3
941.912	2118.897	1770.65	890.3
942.0478	2120.4276	1765.3	878.7
942.1835	2121.9575	1759.25	878.7
942.3193	2123.4866	1772.7	876.15
942.455	2125.0149	1758.7	875.65
942.5907	2126.5426	1755.75	874.2
942.7264	2128.0695	1766.5	882.65
942.8621	2129.5956	1753.1	872.9
942.9977	2131.1211	1753.95	868.4
943.1333	2132.6458	1754.7	873.35
943.2689	2134.1698	1748.25	865.75
943.4044	2135.693	1743.95	862
943.54	2137.2155	1748	864.35
943.6755	2138.7373	1740.8	863.1
943.8109	2140.2584	1742.5	862.1
943.9464	2141.7787	1743.75	856.35
944.0818	2143.2983	1737.05	859.1
944.2172	2144.8171	1726.15	845.6
944.3526	2146.3353	1728.5	844.85
944.4879	2147.8527	1716	835.85
944.6232	2149.3693	1727.85	846.45
944.7585	2150.8853	1718.95	839.65
944.8938	2152.4005	1706.7	828.4
945.029	2153.9149	1721.1	840
945.1642	2155.4287	1711.85	831.75
945.2994	2156.9417	1707.75	825.8
945.4346	2158.454	1706.35	823.25
945.5697	2159.9655	1700.9	820.55
945.7048	2161.4764	1707.35	825.8
945.8399	2162.9865	1706.3	826.05
945.9749	2164.4958	1703.85	822.55
946.1099	2166.0045	1706.05	820.3
946.2449	2167.5124	1701.65	822.7
946.3799	2169.0195	1701.75	822.55
946.5148	2170.526	1694.3	813.25
946.6498	2172.0317	1694.5	813.75
946.7846	2173.5367	1689.35	808
946.9195	2175.0409	1681	800
947.0543	2176.5445	1690.4	811.65
947.1891	2178.0473	1684.2	802.55
947.3239	2179.5494	1678.35	794
947.4587	2181.0507	1673.05	793.3
947.5934	2182.5513	1671.55	790.55
947.7281	2184.0512	1670.65	788.9
947.8628	2185.5504	1670.95	791.45
947.9974	2187.0488	1667.8	788.55
948.132	2188.5465	1665.25	784.25
948.2666	2190.0435	1660.8	779.75
948.4012	2191.5397	1660.9	779
948.5357	2193.0353	1658.2	779.9
948.6702	2194.5301	1655.7	773.5
948.8047	2196.0241	1653.45	772.4
948.9392	2197.5175	1656.05	775.95
949.0736	2199.0101	1648.2	764.6
949.208	2200.502	1642.75	764.2
949.3424	2201.9931	1637.8	756.55
949.4767	2203.4835	1636.55	755.7
949.611	2204.9733	1640.2	752.25
949.7453	2206.4622	1640.45	760.25
949.8796	2207.9505	1637.5	755.15
950.0138	2209.438	1630.25	751.3
950.148	2210.9248	1629.65	747.3
950.2822	2212.4109	1629.05	750.9
950.4164	2213.8962	1624.55	741.65
950.5505	2215.3809	1617.8	736.05
950.6846	2216.8648	1616.95	735.4
950.8186	2218.3479	1619.6	734.65
950.9527	2219.8304	1621.55	739.2
951.0867	2221.3121	1612.35	730.55
951.2207	2222.7931	1606.4	729
951.3546	2224.2733	1607.85	727.85
951.4886	2225.7529	1603.25	719.45
951.6225	2227.2317	1603.75	721
951.7563	2228.7098	1604.3	725
951.8902	2230.1872	1605.1	725.85
952.024	2231.6638	1589.95	708.65
952.1578	2233.1397	1598.05	712.3
952.2916	2234.6149	1591.6	712.05
952.4253	2236.0894	1592.85	711.2
952.559	2237.5632	1593.45	702.3
952.6927	2239.0362	1582.45	701.55
952.8263	2240.5085	1583.5	703.1
952.9599	2241.9801	1576.6	698.15
953.0935	2243.4509	1576.55	694.45
953.2271	2244.921	1571.15	691.85
953.3606	2246.3904	1576.35	692.75
953.4941	2247.8591	1567.95	689.1
953.6276	2249.3271	1573.5	693.95
953.7611	2250.7943	1560.8	681
953.8945	2252.2608	1556.2	676.3
954.0279	2253.7266	1556.85	678.4
954.1612	2255.1917	1562.6	683.15
954.2946	2256.656	1555.15	673.5
954.4279	2258.1197	1557.25	676.95
954.5612	2259.5826	1560.35	678.4
954.6944	2261.0447	1546.75	665.75
954.8276	2262.5062	1557.8	675.2
954.9608	2263.9669	1551.1	667.3
955.094	2265.4269	1547.3	668.3
955.2271	2266.8862	1546.7	664.8
955.3602	2268.3448	1545.65	663.45
955.4933	2269.8026	1544.3	662.55
955.6264	2271.2598	1538.1	657.45
955.7594	2272.7162	1538.3	658.45
955.8924	2274.1719	1534.1	653.8
956.0253	2275.6268	1544.7	665.2
956.1583	2277.0811	1542.45	660.65
956.2912	2278.5346	1528	647.55
956.4241	2279.9874	1519.8	638.3
956.5569	2281.4395	1536.4	655.3
956.6897	2282.8908	1533.9	649
956.8225	2284.3414	1534.45	650.6
956.9553	2285.7914	1518.3	639.9
957.088	2287.2406	1522.2	638.45
957.2207	2288.689	1526.5	645.85
957.3534	2290.1368	1514.9	634.75
957.486	2291.5838	1518.05	637.25
957.6186	2293.0302	1529.1	648.35
957.7512	2294.4758	1516	632.8
957.8838	2295.9206	1519.75	638.8
958.0163	2297.3648	1506.75	626.9
958.1488	2298.8082	1516.3	635.2
958.2813	2300.251	1511.9	631.95
958.4137	2301.693	1504.7	621.9
958.5461	2303.1343	1509.4	630.25
958.6785	2304.5748	1498.95	618.95
958.8108	2306.0147	1510	627.9
958.9432	2307.4538	1507.05	622.7
959.0754	2308.8922	1490.45	610.6
959.2077	2310.3299	1498.05	618.35
959.3399	2311.7669	1487.6	608.55
959.4721	2313.2031	1491.05	609.8
959.6043	2314.6387	1487.95	607.8
959.7365	2316.0735	1491.85	611.05
959.8686	2317.5076	1486.1	604.9
960.0006	2318.941	1493.8	615.05
960.1327	2320.3737	1471.55	590.9
960.2647	2321.8056	1478.5	596.7
960.3967	2323.2369	1482.85	603.2
960.5287	2324.6674	1483.6	600.15
960.6606	2326.0972	1480.9	600
960.7925	2327.5263	1476	595.25
960.9244	2328.9547	1471.8	588.75
961.0562	2330.3823	1469.5	589.2
961.1881	2331.8092	1474.4	589.35
961.3198	2333.2355	1462.75	584.6
961.4516	2334.661	1466.95	584.75
961.5833	2336.0858	1467.7	586.8
961.715	2337.5098	1472.25	592.45
961.8467	2338.9332	1461.15	579.55
961.9783	2340.3558	1464.8	582.3
962.1099	2341.7778	1458.4	578.75
962.2415	2343.199	1458	573.9
962.373	2344.6195	1458.9	576.3
962.5045	2346.0393	1453.6	574.35
962.636	2347.4583	1460.2	578.1
962.7675	2348.8767	1456.85	576.6
962.8989	2350.2943	1456.4	576
963.0303	2351.7113	1461.7	582.3
963.1617	2353.1275	1456.95	576.3
963.293	2354.543	1473.1	566.7
963.4243	2355.9578	1452.8	572
963.5556	2357.3718	1448.15	567.55
963.6868	2358.7852	1449.75	566.2
963.818	2360.1978	1447.9	567.85
963.9492	2361.6098	1443.2	564.45
964.0803	2363.021	1446.75	561.15
964.2114	2364.4315	1439.5	558.2
964.3425	2365.8413	1440.35	561
964.4736	2367.2504	1438.6	558.4
964.6046	2368.6587	1431.35	551.1
964.7356	2370.0664	1432.8	553.55
964.8666	2371.4733	1433.15	551.55
964.9975	2372.8795	1437.45	557.35
965.1284	2374.285	1430.55	551.95
965.2593	2375.6899	1426.35	547.65
965.3901	2377.0939	1420.1	540.35
965.5209	2378.4973	1426.8	547
965.6517	2379.9	1417.55	537.65
965.7825	2381.3019	1423.75	542.6
965.9132	2382.7032	1420.15	540.1
966.0439	2384.1037	1415.1	538.45
966.1745	2385.5035	1415.85	535.55
966.3051	2386.9027	1412.7	534.6
966.4357	2388.3011	1409	526.25
966.5663	2389.6987	1404.05	525.15
966.6968	2391.0957	1403.2	523.95
966.8273	2392.492	1400.05	518.65
966.9578	2393.8876	1400.85	520.15
967.0882	2395.2824	1404.75	526.3
967.2186	2396.6765	1396.1	519.15
967.349	2398.07	1392.95	513.8
967.4793	2399.4627	1394.6	513.35
967.6097	2400.8547	1389.75	511.3
967.7399	2402.246	1398.25	512.85
967.8702	2403.6366	1389.2	510.25
968.0004	2405.0265	1380.55	499.35
968.1306	2406.4156	1386.2	502.45
968.2607	2407.8041	1390.65	508.5
968.3909	2409.1918	1383.1	500.3
968.521	2410.5789	1381.55	501.5
968.651	2411.9652	1386.6	502
968.781	2413.3508	1380.1	499.55
968.911	2414.7358	1381.4	501.55
969.041	2416.12	1375.65	497.5
969.1709	2417.5035	1374.3	496.2
969.3008	2418.8863	1379.35	500.3
969.4307	2420.2684	1375.95	495.95
969.5606	2421.6497	1377.35	498.35
969.6904	2423.0304	1366.45	487.6
969.8201	2424.4104	1374.6	495
969.9499	2425.7896	1373.85	491.8
970.0796	2427.1682	1369.85	491.2
970.2093	2428.546	1367.2	486.45
970.3389	2429.9232	1359.45	477.9
970.4685	2431.2996	1372.45	493.25
970.5981	2432.6753	1362.35	484.1
970.7277	2434.0503	1363.2	484.4
970.8572	2435.4246	1362.2	483.6
970.9867	2436.7982	1362.7	480
971.1161	2438.1711	1355.65	476.95
971.2456	2439.5433	1350.8	471.25
971.375	2440.9148	1356.45	471.7
971.5043	2442.2856	1353.65	474.35
971.6336	2443.6557	1348.8	466.35
971.7629	2445.025	1349.45	469.9
971.8922	2446.3937	1344.7	463.25
972.0214	2447.7617	1345.3	465.3
972.1506	2449.1289	1349.4	469.45
972.2798	2450.4955	1356.9	473.4
972.4089	2451.8613	1340.75	462.7
972.538	2453.2265	1349.55	469.45
972.6671	2454.5909	1341.75	460.4
972.7961	2455.9546	1337.85	458.05
972.9251	2457.3177	1339.05	458.35
973.0541	2458.68	1341.65	458.75
973.1831	2460.0416	1337.9	455.85
973.312	2461.4025	1337.55	456.35
973.4408	2462.7627	1351.5	458.95
973.5697	2464.1222	1333.65	455.95
973.6985	2465.4811	1347.9	466
973.8273	2466.8392	1339.8	459.6
973.956	2468.1966	1343.8	462.65
974.0847	2469.5533	1340.2	457.1
974.2134	2470.9093	1336.05	455.3
974.3421	2472.2645	1341	458.2
974.4707	2473.6191	1336	457.05
974.5993	2474.973	1333.4	453.3
974.7278	2476.3262	1339.35	457.45
974.8563	2477.6787	1326.2	446.05
974.9848	2479.0305	1330.35	448.85
975.1132	2480.3816	1325.5	444.4
975.2417	2481.7319	1325.15	444.45
975.37	2483.0816	1320.05	437.9
975.4984	2484.4306	1321.05	440.75
975.6267	2485.7789	1321	442.55
975.755	2487.1264	1321.05	436.25
975.8833	2488.4733	1318	438.9
976.0115	2489.8195	1332.9	436.25
976.1397	2491.165	1311.7	428.25
976.2678	2492.5097	1315	433.75
976.3959	2493.8538	1312.3	433.05
976.524	2495.1972	1305.05	424.75
976.6521	2496.5398	1313.6	429.45
976.7801	2497.8818	1307.55	427.1
976.9081	2499.2231	1311.5	431.7
977.036	2500.5637	1307.9	427.2
977.164	2501.9035	1306.35	424.2
977.2918	2503.2427	1304.4	421.05
977.4197	2504.5812	1301.85	421.65
977.5475	2505.919	1296.95	415.35
977.6753	2507.256	1302.25	422.1
977.8031	2508.5924	1303.6	421.8
977.9308	2509.9281	1302.75	416.8
978.0585	2511.2631	1304.85	426.3
978.1861	2512.5974	1301.9	422.45
978.3137	2513.9309	1295.8	417.25
978.4413	2515.2638	1332.5	420.15
978.5689	2516.596	1298.45	420.7
978.6964	2517.9275	1293.1	412.85
978.8239	2519.2583	1289.25	407.05
978.9513	2520.5884	1290.8	410.95
979.0788	2521.9178	1289.8	407.95
979.2062	2523.2465	1291.4	411.05
979.3335	2524.5745	1282.85	404
979.4608	2525.9018	1290.05	409.8
979.5881	2527.2284	1288.25	408.9
979.7154	2528.5543	1290.1	412
979.8426	2529.8796	1283.55	403
979.9698	2531.2041	1282.65	401.55
980.0969	2532.5279	1282.25	402.5
980.224	2533.851	1276.6	396.9
980.3511	2535.1735	1277.65	397.75
980.4781	2536.4952	1282.25	402.25
980.6052	2537.8163	1285.5	405.35
980.7321	2539.1366	1283.9	404.8
980.8591	2540.4562	1277.45	395.35
980.986	2541.7752	1273.65	394.3
981.1129	2543.0935	1274.85	394.15
981.2397	2544.411	1274.55	392.35
981.3665	2545.7279	1270.1	391.6
981.4933	2547.0441	1275.05	395.45
981.62	2548.3596	1274.85	394.75
981.7467	2549.6744	1270.05	389
981.8734	2550.9885	1274.85	386.55
982.0001	2552.3019	1272.35	391.9
982.1267	2553.6146	1271.45	392.45
982.2532	2554.9266	1265	384.35
982.3798	2556.2379	1271.3	389.2
982.5063	2557.5485	1264.25	384.1
982.6327	2558.8585	1268.85	381.15
982.7592	2560.1677	1260.85	378.75
982.8856	2561.4762	1260.95	381.85
983.0119	2562.7841	1266.65	383.45
983.1383	2564.0913	1266.45	387
983.2646	2565.3977	1258.2	378.4
983.3908	2566.7035	1257.95	376.8
983.517	2568.0086	1258.95	378.25
983.6432	2569.313	1253.4	372
983.7694	2570.6167	1263.7	380.2
983.8955	2571.9197	1259.35	380.45
984.0216	2573.222	1260.7	379
984.1476	2574.5236	1260.4	379.15
984.2737	2575.8246	1254	371.6
984.3996	2577.1248	1260.95	379
984.5256	2578.4244	1260.9	381.15
984.6515	2579.7232	1254.85	373.65
984.7774	2581.0214	1292.5	379.55
984.9032	2582.3189	1265.4	386.1
985.029	2583.6157	1265.4	381
985.1548	2584.9118	1261.7	380.55
985.2806	2586.2072	1257.35	376.4
985.4063	2587.5019	1260.15	382.4
985.5319	2588.7959	1258.4	376.95
985.6576	2590.0893	1268.05	388.5
985.7832	2591.3819	1264.75	382.75
985.9087	2592.6739	1265.75	386.05
986.0343	2593.9652	1266	385.9
986.1597	2595.2557	1269.15	387.4
986.2852	2596.5456	1266.45	381.05
986.4106	2597.8348	1265.05	385.3
986.536	2599.1234	1276.35	398.2
986.6614	2600.4112	1276.85	396.95
986.7867	2601.6983	1282.35	400.15
986.912	2602.9848	1281.2	401.05
987.0372	2604.2705	1290.2	402.4
987.1624	2605.5556	1277.2	397.75
987.2876	2606.84	1273.3	393.9
987.4128	2608.1237	1271.2	390.25
987.5379	2609.4067	1275.45	396.1
987.6629	2610.689	1280.25	390.65
987.788	2611.9707	1274.3	393.1
987.913	2613.2516	1278.8	393.85
988.0379	2614.5319	1266.2	386.3
988.1629	2615.8115	1263.95	382.95
988.2878	2617.0903	1263.1	382.65
988.4126	2618.3685	1266.1	386.3
988.5375	2619.6461	1265.5	386.15
988.6622	2620.9229	1262.15	382.8
988.787	2622.199	1267.75	385.4
988.9117	2623.4745	1268.65	387
989.0364	2624.7493	1261.05	380.4
989.161	2626.0234	1263.55	385.5
989.2857	2627.2968	1263.2	382.3
989.4102	2628.5695	1266.45	384.05
989.5348	2629.8415	1260.2	380.4
989.6593	2631.1128	1263.7	382.2
989.7837	2632.3835	1261.9	381.9
989.9082	2633.6535	1263.85	381.5
990.0326	2634.9228	1269	388.7
990.1569	2636.1914	1265.25	385.1
990.2812	2637.4593	1266.35	384.55
990.4055	2638.7265	1267.6	384.9
990.5298	2639.9931	1262.35	382
990.654	2641.259	1262.95	381.6
990.7782	2642.5242	1260.65	381.1
990.9023	2643.7887	1261.45	380.9
991.0264	2645.0525	1256.55	375.65
991.1505	2646.3156	1255.15	374.55
991.2745	2647.5781	1249.9	370.1
991.3985	2648.8398	1251.95	372.5
991.5225	2650.1009	1259.55	370.8
991.6464	2651.3613	1259.05	376.2
991.7703	2652.6211	1254	372.95
991.8942	2653.8801	1252.6	373.45
992.018	2655.1385	1254.65	369.7
992.1418	2656.3961	1253.6	375.3
992.2655	2657.6531	1254.7	375.05
992.3892	2658.9094	1256.1	376.1
992.5129	2660.1651	1250.95	373.15
992.6366	2661.42	1263.05	382.35
992.7602	2662.6743	1257.75	375.05
992.8837	2663.9279	1262	381.7
993.0073	2665.1808	1263.35	381.6
993.1307	2666.433	1261.45	378.65
993.2542	2667.6846	1263.35	385
993.3776	2668.9354	1266.7	384.9
993.501	2670.1856	1277.85	395.2
993.6244	2671.4351	1269.25	390
993.7477	2672.6839	1275.65	393.25
993.8709	2673.9321	1272.65	393.2
993.9942	2675.1795	1279.55	399.1
994.1174	2676.4263	1273.35	393.45
994.2405	2677.6724	1280.2	401.9
994.3637	2678.9179	1277.25	397.75
994.4868	2680.1626	1284.75	405.8
994.6098	2681.4067	1280.85	402.3
994.7328	2682.6501	1279.9	399.6
994.8558	2683.8928	1279.7	398.15
994.9788	2685.1348	1278.7	398.95
995.1017	2686.3761	1276.9	397.25
995.2245	2687.6168	1275.5	394.55
995.3474	2688.8568	1273	391.3
995.4702	2690.0961	1269.9	390.65
995.5929	2691.3348	1266.8	386.7
995.7156	2692.5727	1263.15	383.4
995.8383	2693.81	1260.75	378.8
995.961	2695.0466	1259.15	379.65
996.0836	2696.2826	1264.25	383.85
996.2062	2697.5178	1279.2	378.65
996.3287	2698.7524	1255.75	376.3
996.4512	2699.9863	1264.45	381.7
996.5737	2701.2195	1266.9	386.35
996.6961	2702.452	1273.35	390.35
996.8185	2703.6839	1269.25	388.15
996.9408	2704.9151	1265.85	387.4
997.0631	2706.1456	1285.85	406.1
997.1854	2707.3755	1291.1	410.85
997.3077	2708.6046	1297.45	412.6
997.4299	2709.8331	1300.65	419.45
997.552	2711.0609	1302.45	422.25
997.6742	2712.2881	1312.7	432.3
997.7963	2713.5145	1318.65	434.35
997.9183	2714.7403	1333.85	453.85
998.0403	2715.9654	1343.25	460.6
998.1623	2717.1899	1363.05	465.45
998.2842	2718.4136	1362.4	482.2
998.4062	2719.6367	1368.65	487.25
998.528	2720.8591	1392.55	503.85
998.6498	2722.0809	1391.85	512.5
998.7716	2723.3019	1406.15	522.25
998.8934	2724.5223	1409.8	528.45
999.0151	2725.7421	1406.9	523.75
999.1368	2726.9611	1418.1	534
999.2584	2728.1795	1418.7	532.8
999.38	2729.3972	1411.2	531.5
999.5016	2730.6142	1407.35	512.35
999.6231	2731.8306	1381	499.6
999.7446	2733.0462	1375.75	494.05
999.8661	2734.2612	1364.85	478.55
999.9875	2735.4756	1348.9	467
1000.1089	2736.6892	1334.8	453.4
1000.2302	2737.9022	1320.65	440.95
1000.3515	2739.1145	1311.45	431.25
1000.4728	2740.3262	1299.45	411.85
1000.594	2741.5372	1286.15	408.35
1000.7152	2742.7475	1277.45	396.9
1000.8363	2743.9571	1264.45	381.15
1000.9575	2745.1661	1268.95	385.45
1001.0785	2746.3744	1254	373
1001.1996	2747.582	1242.95	362.95
1001.3206	2748.7889	1246.1	362.5
1001.4415	2749.9952	1231	350.1
1001.5625	2751.2008	1230.55	349.05
1001.6833	2752.4057	1225.25	342.9
1001.8042	2753.61	1225.25	344.45
1001.925	2754.8136	1222.75	341.6
1002.0458	2756.0165	1230.55	351.8
1002.1665	2757.2188	1221.55	342.55
1002.2872	2758.4204	1228.3	346.7
1002.4078	2759.6213	1230.65	349.7
1002.5285	2760.8215	1235.15	348.7
1002.649	2762.0211	1225.95	345.95
1002.7696	2763.22	1226.9	343.3
1002.8901	2764.4182	1225.35	342.9
1003.0106	2765.6158	1222.45	342.15
1003.131	2766.8127	1212.45	332.5
1003.2514	2768.009	1212.95	332.9
1003.3717	2769.2045	1214.7	332.95
1003.492	2770.3994	1213.75	331.45
1003.6123	2771.5936	1201.8	319.6
1003.7325	2772.7872	1211.05	330.7
1003.8527	2773.9801	1204.75	322
1003.9729	2775.1723	1226.7	327.35
1004.093	2776.3639	1212.6	334.1
1004.2131	2777.5548	1212.8	327.65
1004.3331	2778.745	1217.25	334.75
1004.4531	2779.9346	1217.55	336.8
1004.5731	2781.1235	1214.7	333.55
1004.693	2782.3117	1217.85	339.75
1004.8129	2783.4992	1217.6	339.45
1004.9328	2784.6861	1229.65	347.65
1005.0526	2785.8723	1237.15	354.35
1005.1723	2787.0579	1243.75	363.15
1005.2921	2788.2428	1248.9	367.9
1005.4118	2789.427	1256.35	375.2
1005.5314	2790.6106	1265.1	386.5
1005.651	2791.7935	1273.5	393.45
1005.7706	2792.9757	1280.45	400.5
1005.8902	2794.1573	1299.15	416.05
1006.0097	2795.3382	1316.15	435.2
1006.1291	2796.5184	1325.95	448.45
1006.2485	2797.698	1339.85	456.95
1006.3679	2798.8769	1356.1	476.1
1006.4873	2800.0551	1377.35	496.3
1006.6066	2801.2327	1396.25	512.9
1006.7258	2802.4096	1412.2	533.2
1006.8451	2803.5859	1426.05	545.35
1006.9642	2804.7615	1445.35	564.5
1007.0834	2805.9364	1476.95	596.45
1007.2025	2807.1106	1488.35	608.15
1007.3216	2808.2842	1524.75	643.85
1007.4406	2809.4572	1545.4	662.75
1007.5596	2810.6294	1590.15	708.2
1007.6785	2811.801	1627.55	749.65
1007.7975	2812.972	1660.7	780.4
1007.9163	2814.1423	1700.5	820.1
1008.0352	2815.3119	1737.8	858.55
1008.154	2816.4808	1777.55	896.6
1008.2727	2817.6491	1835	955.4
1008.3914	2818.8167	1863.55	984
1008.5101	2819.9837	1916.55	1032.85
1008.6288	2821.15	1951.25	1073.3
1008.7474	2822.3157	2001.2	1120.7
1008.8659	2823.4807	2031.55	1151.55
1008.9844	2824.645	2074.4	1190.6
1009.1029	2825.8086	2100.75	1221.5
1009.2214	2826.9716	2146.2	1266.4
1009.3398	2828.134	2177.3	1295.15
1009.4581	2829.2957	2204.7	1323.35
1009.5764	2830.4567	2223.6	1344.25
1009.6947	2831.617	2239.6	1359.7
1009.813	2832.7767	2259	1380.15
1009.9312	2833.9358	2249.95	1368.95
1010.0493	2835.0941	2245.05	1362.85
1010.1675	2836.2519	2239.55	1359.35
1010.2855	2837.4089	2238.6	1357.75
1010.4036	2838.5653	2227.45	1346.4
1010.5216	2839.7211	2222.3	1341.9
1010.6396	2840.8761	2246.5	1364.35
1010.7575	2842.0306	2249.6	1370.45
1010.8754	2843.1843	2280.95	1399.7
1010.9932	2844.3374	2329.05	1450.15
1011.111	2845.4899	2386.8	1507.45
1011.2288	2846.6417	2452.2	1572.9
1011.3465	2847.7928	2518	1636.1
1011.4642	2848.9433	2585.4	1706.05
1011.5818	2850.0931	2656.2	1777.3
1011.6995	2851.2422	2737.5	1854.4
1011.817	2852.3907	2786.2	1905.45
1011.9345	2853.5385	2849.55	1965.55
1012.052	2854.6857	2940.35	2032.3
1012.1695	2855.8323	2955.95	2077.6
1012.2869	2856.9781	2994.25	2113.85
1012.4042	2858.1233	3036.25	2156.65
1012.5216	2859.2679	3071.2	2191.2
1012.6389	2860.4118	3120.8	2238.25
1012.7561	2861.555	3166.15	2279.65
1012.8733	2862.6976	3195.1	2311.7
1012.9905	2863.8395	3204	2325.05
1013.1076	2864.9808	3227.25	2345.55
1013.2247	2866.1214	3238.5	2358
1013.3417	2867.2614	3266.85	2386.5
1013.4587	2868.4007	3272.6	2390.65
1013.5757	2869.5393	3293.55	2411.65
1013.6926	2870.6773	3307.85	2423.4
1013.8095	2871.8146	3304.15	2418.1
1013.9263	2872.9513	3316.7	2435.65
1014.0431	2874.0874	3311.95	2431.85
1014.1599	2875.2227	3301.75	2421.4
1014.2766	2876.3574	3292.15	2410.55
1014.3933	2877.4915	3268.3	2386.85
1014.51	2878.6249	3249.5	2371.15
1014.6266	2879.7577	3237.75	2356.95
1014.7431	2880.8898	3225.65	2333.25
1014.8596	2882.0212	3197.05	2317.8
1014.9761	2883.152	3189.75	2307.95
1015.0925	2884.2821	3182.75	2302.5
1015.2089	2885.4116	3175.05	2295.3
1015.3253	2886.5405	3171	2289.05
1015.4416	2887.6686	3184.25	2301.6
1015.5579	2888.7962	3176.05	2295.9
1015.6741	2889.923	3189	2309.6
1015.7903	2891.0493	3195.95	2314.65
1015.9065	2892.1748	3204.85	2324.55
1016.0226	2893.2997	3220.4	2339.35
1016.1387	2894.424	3239.3	2359.95
1016.2547	2895.5476	3254.4	2374.8
1016.3707	2896.6706	3275.95	2397.15
1016.4866	2897.7929	3300.45	2420
1016.6025	2898.9145	3326.7	2447.15
1016.7184	2900.0355	3346.35	2466.8
1016.8342	2901.1559	3383.8	2501.7
1016.95	2902.2756	3412.1	2533.7
1017.0658	2903.3946	3447.3	2566.3
1017.1815	2904.513	3457.3	2570.85
1017.2971	2905.6308	3489.35	2608.9
1017.4127	2906.7479	3513.65	2632.2
1017.5283	2907.8643	3536.65	2656.2
1017.6439	2908.9801	3561.6	2679.35
1017.7594	2910.0953	3561.85	2683.2
1017.8748	2911.2098	3540.95	2657.2
1017.9902	2912.3236	3562.55	2674.95
1018.1056	2913.4368	3549.15	2664.6
1018.2209	2914.5494	3523.3	2642.85
1018.3362	2915.6613	3496.05	2608.1
1018.4515	2916.7725	3487.4	2604.9
1018.5667	2917.8831	3453.4	2571.65
1018.6819	2918.9931	3430.55	2547.9
1018.797	2920.1024	3402.9	2521.25
1018.9121	2921.211	3384.95	2505.4
1019.0271	2922.319	3373.1	2495.2
1019.1421	2923.4264	3348.8	2469.75
1019.2571	2924.5331	3340.95	2461.95
1019.372	2925.6391	3330	2451.25
1019.4869	2926.7445	3322.25	2443.4
1019.6017	2927.8493	3315.65	2435.3
1019.7165	2928.9534	3306.2	2424.4
1019.8313	2930.0569	3314.7	2431.2
1019.946	2931.1597	3296.55	2413.75
1020.0606	2932.2619	3287.8	2406.65
1020.1753	2933.3634	3283.5	2404.7
1020.2899	2934.4643	3283.05	2395.45
1020.4044	2935.5645	3258.25	2371.35
1020.5189	2936.6641	3225	2341.4
1020.6334	2937.763	3187.05	2309.5
1020.7478	2938.8613	3130.15	2250.2
1020.8622	2939.959	3100.95	2214.9
1020.9765	2941.056	3029.15	2150.75
1021.0908	2942.1523	2951.05	2069.9
1021.2051	2943.248	2865.6	1984.25
1021.3193	2944.3431	2773.6	1891.9
1021.4334	2945.4375	2696.9	1816.25
1021.5476	2946.5313	2591.25	1711.7
1021.6617	2947.6244	2523.3	1641.45
1021.7757	2948.7169	2424.8	1545.3
1021.8897	2949.8087	2334.95	1453.45
1022.0037	2950.8999	2261.4	1379.85
1022.1176	2951.9904	2182.6	1305.6
1022.2315	2953.0803	2121.85	1242.75
1022.3453	2954.1696	2074.3	1194.3
1022.4591	2955.2582	2023.5	1145.1
1022.5728	2956.3462	1980.2	1099.5
1022.6865	2957.4335	1950.65	1071.05
1022.8002	2958.5202	1922.15	1037.4
1022.9138	2959.6062	1899.65	1018.95
1023.0274	2960.6916	1881.3	1003.8
1023.141	2961.7764	1858.4	976.15
1023.2545	2962.8605	1848.75	967.55
1023.3679	2963.9439	1830.3	950.25
1023.4813	2965.0267	1827.85	945.65
1023.5947	2966.1089	1837.15	934.35
1023.708	2967.1905	1817.9	937.6
1023.8213	2968.2714	1817.5	939
1023.9346	2969.3516	1815.75	935.5
1024.0478	2970.4312	1830.2	941.1
1024.1609	2971.5102	1816.45	934.5
1024.274	2972.5885	1809.2	927.9
1024.3871	2973.6662	1826.3	940.8
1024.5002	2974.7432	1808.4	928.7
1024.6132	2975.8196	1815.65	934.55
1024.7261	2976.8954	1795.35	916.2
1024.839	2977.9705	1785.4	905
1024.9519	2979.045	1785.25	906.1
1025.0647	2980.1188	1762.05	880.9
1025.1775	2981.192	1738.65	860.65
1025.2902	2982.2645	1730.2	849.05
1025.4029	2983.3364	1707.3	827
1025.5156	2984.4077	1679.55	800.2
1025.6282	2985.4783	1653.55	766.55
1025.7407	2986.5483	1624.75	747
1025.8532	2987.6177	1593.95	713.05
1025.9657	2988.6864	1562.1	681.1
1026.0782	2989.7545	1535.65	654.45
1026.1906	2990.8219	1506.3	626.75
1026.3029	2991.8887	1488.25	605.3
1026.4152	2992.9548	1447.9	567.8
1026.5275	2994.0204	1423.2	544.4
1026.6397	2995.0852	1401.65	522.45
1026.7519	2996.1495	1379.4	498.5
1026.864	2997.2131	1362.35	482.8
1026.9761	2998.276	1343.95	464.5
1027.0882	2999.3383	1323.6	442.3
1027.2002	3000.4	1310.95	429
1027.3122	3001.4611	1303.8	423.65
1027.4241	3002.5215	1291	411.25
1027.536	3003.5812	1279.25	397
1027.6478	3004.6404	1266.2	388
1027.7596	3005.6989	1261.55	379.65
1027.8714	3006.7567	1252.75	371.15
1027.9831	3007.8139	1264.55	359.15
1028.0947	3008.8705	1242.7	363.2
1028.2064	3009.9264	1239.75	357.4
1028.3179	3010.9818	1234.95	353.45
1028.4295	3012.0364	1238.75	358.5
1028.541	3013.0905	1226.5	346.65
1028.6524	3014.1439	1231.75	349.65
1028.7638	3015.1966	1229.7	350.85
1028.8752	3016.2487	1225.3	344.7
1028.9865	3017.3002	1229.95	345.65
1029.0978	3018.3511	1232.65	353.05
1029.209	3019.4013	1227.9	348.8
1029.3202	3020.4509	1228	346.7
1029.4314	3021.4998	1232.95	351.6
1029.5425	3022.5481	1232.4	351.85
1029.6535	3023.5958	1229.25	349.3
1029.7645	3024.6428	1232.6	351.55
1029.8755	3025.6892	1229.75	351
1029.9864	3026.735	1236.15	357.3
1030.0973	3027.7802	1243.85	364.2
1030.2082	3028.8247	1236.6	356.5
1030.319	3029.8685	1247.4	366.95
1030.4297	3030.9118	1251.1	371.5
1030.5404	3031.9544	1257.7	379.05
1030.6511	3032.9963	1260.2	378.3
1030.7617	3034.0376	1260.05	381.1
1030.8723	3035.0783	1262.55	380.6
1030.9829	3036.1184	1268.75	389.05
1031.0934	3037.1578	1268.55	389.6
1031.2038	3038.1966	1275.65	393.75
1031.3142	3039.2348	1268.2	390.05
1031.4246	3040.2723	1279.8	389.5
1031.5349	3041.3092	1272.6	393.9
1031.6452	3042.3455	1267	386.9
1031.7554	3043.3811	1270.2	390.65
1031.8656	3044.4161	1264.1	383.15
1031.9758	3045.4505	1259.9	378.5
1032.0859	3046.4842	1254.6	372.55
1032.1959	3047.5173	1248.3	369.35
1032.3059	3048.5498	1244.8	363.7
1032.4159	3049.5816	1237.6	358.5
1032.5258	3050.6128	1233	350.75
1032.6357	3051.6434	1232.3	352.95
1032.7455	3052.6734	1226.35	345.95
1032.8553	3053.7027	1214.15	331.7
1032.9651	3054.7314	1215.85	334.4
1033.0748	3055.7594	1208	330.65
1033.1845	3056.7868	1204.45	323.7
1033.2941	3057.8136	1197.15	316.15
1033.4037	3058.8398	1193.6	314.2
1033.5132	3059.8653	1190.45	310.65
1033.6227	3060.8902	1184.15	304
1033.7321	3061.9145	1179.35	300.55
1033.8415	3062.9381	1177.7	299.1
1033.9509	3063.9612	1186.8	292.4
1034.0602	3064.9835	1164.85	285.05
1034.1694	3066.0053	1159.7	277
1034.2787	3067.0264	1152.05	270.75
1034.3878	3068.0469	1146.95	264.15
1034.497	3069.0668	1144.6	261.55
1034.6061	3070.086	1134.95	254.65
1034.7151	3071.1046	1129.2	245.75
1034.8241	3072.1226	1123.55	243.75
1034.9331	3073.1399	1109.5	229.55
1035.042	3074.1567	1104.9	225.65
1035.1508	3075.1727	1094.1	211.55
1035.2597	3076.1882	1085.5	206.35
1035.3684	3077.203	1079	198.55
1035.4772	3078.2173	1072.8	193.35
1035.5859	3079.2308	1070.5	187
1035.6945	3080.2438	1062.3	180.65
1035.8031	3081.2561	1050.6	171.2
1035.9117	3082.2678	1048.1	170.2
1036.0202	3083.2789	1038.2	159.05
1036.1286	3084.2893	1039	160.9
1036.2371	3085.2991	1029.9	148.8
1036.3454	3086.3083	1032.9	150.1
1036.4538	3087.3169	1026.35	144.6
1036.562	3088.3248	1023.15	138.5
1036.6703	3089.3321	1016.75	134.15
1036.7785	3090.3388	1010.8	130.95
1036.8866	3091.3449	1009.95	129
1036.9948	3092.3503	1009.45	126.4
1037.1028	3093.3551	999.4	119.6
1037.2108	3094.3593	998.65	119.7
1037.3188	3095.3629	993.75	114.15
1037.4267	3096.3658	997.1	117.15
1037.5346	3097.3681	992.35	110.55
1037.6425	3098.3698	993.35	113
1037.7503	3099.3708	994.75	108
1037.858	3100.3713	983.65	103.35
1037.9657	3101.3711	985.35	103.4
1038.0734	3102.3702	1124.9	109.25
1038.181	3103.3688	983.8	102.8
1038.2886	3104.3667	981.7	103.55
1038.3961	3105.364	975.85	96.45
1038.5036	3106.3607	981	99.4
1038.611	3107.3568	979.15	99.55
1038.7184	3108.3522	976.05	97.4
1038.8257	3109.347	974.5	94.3
1038.933	3110.3412	977.35	94.45
1039.0403	3111.3348	972.9	93.3
1039.1475	3112.3277	970.75	92.25
1039.2547	3113.32	967.45	90.15
1039.3618	3114.3117	970.3	90.8
1039.4689	3115.3028	972.45	93.25
1039.5759	3116.2932	970.25	89
1039.6829	3117.2831	973.8	88.8
1039.7898	3118.2723	968.05	88.7
1039.8967	3119.2608	962.3	82.5
1040.0035	3120.2488	964.5	85.3
1040.1103	3121.2361	963.85	85.45
1040.2171	3122.2229	962.3	82.8
1040.3238	3123.209	965.4	83.9
1040.4305	3124.1944	961.45	79.5
1040.5371	3125.1793	964.35	83.45
1040.6437	3126.1635	960.85	81.05
1040.7502	3127.1471	960.25	82.25
1040.8567	3128.1301	956.05	77.55
1040.9631	3129.1125	959.9	80.2
1041.0695	3130.0942	957.65	78.75
1041.1759	3131.0753	965.35	76.05
1041.2822	3132.0558	957.5	75.15
1041.3884	3133.0357	955.05	74.9
1041.4946	3134.015	953.05	73.85
1041.6008	3134.9936	950.8	70.45
1041.7069	3135.9716	973.1	72.25
1041.813	3136.949	954.45	74.5
1041.919	3137.9258	967.05	70.8
1042.025	3138.902	954.25	69.75
1042.1309	3139.8775	951.3	71.1
1042.2368	3140.8524	946.55	67.45
1042.3427	3141.8267	951.15	70.55
1042.4485	3142.8004	948.75	70.8
1042.5542	3143.7735	951.75	65.15
1042.6599	3144.7459	951.65	71.5
1042.7656	3145.7178	945.85	66.05
1042.8712	3146.689	943.6	66.75
1042.9768	3147.6596	945.5	66.2
1043.0823	3148.6295	944.25	63.55
1043.1878	3149.5989	941.25	62.15
1043.2932	3150.5676	940.15	63.5
1043.3986	3151.5357	939.75	62
1043.5039	3152.5032	942.75	61.95
1043.6092	3153.4701	940.9	62.2
1043.7145	3154.4364	944.45	61.4
1043.8197	3155.402	937.5	60.15
1043.9248	3156.367	940.55	58.1
1044.03	3157.3315	973.3	55.6
1044.135	3158.2952	935.4	55.3
1044.24	3159.2584	935.35	54.95
1044.345	3160.221	937.65	57.2
1044.4499	3161.1829	937.65	55.55
1044.5548	3162.1442	936.25	59.3
1044.6596	3163.105	936.3	55.95
1044.7644	3164.065	935.45	53.95
1044.8692	3165.0245	935.75	55.5
1044.9739	3165.9834	931.65	50.65
1045.0785	3166.9416	931.05	52.55
1045.1831	3167.8993	932.15	52.95
1045.2877	3168.8563	926.75	44.75
1045.3922	3169.8127	931.1	52.65
1045.4966	3170.7684	928.8	47.5
1045.6011	3171.7236	933.65	53.35
1045.7054	3172.6782	931.1	50.55
1045.8098	3173.6321	928.1	47
1045.914	3174.5854	935.75	49.65
1046.0183	3175.5381	929.45	51.3
1046.1224	3176.4902	927.85	50
1046.2266	3177.4417	927.65	49.55
1046.3307	3178.3926	929.3	50.5
1046.4347	3179.3428	925.75	46.5
1046.5387	3180.2924	927.45	47.7
1046.6427	3181.2415	929.05	51.35
1046.7466	3182.1899	929.35	47.75
1046.8504	3183.1377	928.45	47.9
1046.9542	3184.0848	931.35	49.5
1047.058	3185.0314	928.1	48.15
1047.1617	3185.9773	927.7	45.15
1047.2654	3186.9227	924.7	43.05
1047.369	3187.8674	924.85	45.35
1047.4726	3188.8115	926.85	42.5
1047.5761	3189.755	925.8	46.3
1047.6796	3190.6979	925.35	44.95
1047.783	3191.6402	923.7	44.7
1047.8864	3192.5818	923.5	43.9
1047.9898	3193.5229	952	46
1048.0931	3194.4633	923.3	41.75
1048.1963	3195.4031	922.1	40.55
1048.2995	3196.3423	922.75	44.05
1048.4027	3197.2809	923.85	43.15
1048.5058	3198.2189	921.35	43.15
1048.6089	3199.1563	938.65	40.95
1048.7119	3200.0931	918.75	40
1048.8148	3201.0292	918.8	39.5
1048.9178	3201.9648	919.3	38.85
1049.0206	3202.8997	922.75	40.45
1049.1235	3203.834	919.15	40.3
1049.2262	3204.7677	923.95	46.25
1049.329	3205.7008	922.25	40.2
1049.4317	3206.6333	922.1	43.4
1049.5343	3207.5652	919.95	39.2
1049.6369	3208.4964	922.05	42.95
1049.7394	3209.4271	919.2	39.45
1049.8419	3210.3571	921.25	42.95
1049.9444	3211.2865	921	38.95
1050.0468	3212.2154	919.05	38.55
1050.1491	3213.1436	923.65	42.75
1050.2514	3214.0712	924.8	39.5
1050.3537	3214.9982	916.5	36.95
1050.4559	3215.9246	917.05	37.6
1050.5581	3216.8503	915.55	35.25
1050.6602	3217.7755	918.2	37.95
1050.7623	3218.7001	919.6	40.2
1050.8643	3219.624	917.95	39.6
1050.9663	3220.5473	916.65	37.55
1051.0682	3221.4701	916.4	35.65
1051.1701	3222.3922	919.2	38.9
1051.2719	3223.3137	916.8	36.3
1051.3737	3224.2346	913.9	35.65
1051.4754	3225.1549	915	36.45
1051.5771	3226.0746	915.8	38.05
1051.6788	3226.9937	914.9	34.15
1051.7804	3227.9121	913	34
1051.8819	3228.83	915.45	36.65
1051.9834	3229.7473	916.25	36.6
1052.0849	3230.6639	917.95	37.8
1052.1863	3231.5799	916.25	37
1052.2876	3232.4954	915.4	35.5
1052.3889	3233.4102	913.95	36.75
1052.4902	3234.3244	913.15	33.4
1052.5914	3235.238	911.7	32.35
1052.6926	3236.151	936.15	33.1
1052.7937	3237.0634	913.95	35.55
1052.8948	3237.9752	915.15	35.45
1052.9958	3238.8864	911.25	29.65
1053.0968	3239.797	913.95	34.5
1053.1977	3240.7069	911.8	31.65
1053.2986	3241.6163	916.7	35.1
1053.3994	3242.5251	910	32.4
1053.5002	3243.4332	909.8	33.15
1053.6009	3244.3408	912.25	31.1
1053.7016	3245.2477	912.25	33.75
1053.8022	3246.154	912	30.85
1053.9028	3247.0598	910.45	31.85
1054.0034	3247.9649	912.45	32.8
1054.1039	3248.8694	912.1	31.7
1054.2043	3249.7733	909.35	30.6
1054.3047	3250.6766	909.25	29.6
1054.4051	3251.5793	908.5	28.65
1054.5054	3252.4814	908.2	30.1
1054.6056	3253.3829	912.05	32.75
1054.7058	3254.2838	907.85	32.8
1054.806	3255.1841	908.45	30.3
1054.9061	3256.0838	908.35	29.35
1055.0061	3256.9829	904	26.65
1055.1062	3257.8814	909.3	28.55
1055.2061	3258.7792	909	27.4
1055.306	3259.6765	907.1	26.9
1055.4059	3260.5731	904.85	26.55
1055.5057	3261.4692	906.25	25.65
1055.6055	3262.3647	908.1	27.65
1055.7052	3263.2595	902.65	24.6
1055.8049	3264.1538	902.95	24.85
1055.9045	3265.0474	906.85	25
1056.0041	3265.9404	900.9	22.9
1056.1036	3266.8329	901.5	22.2
1056.2031	3267.7247	913.05	22.4
1056.3025	3268.616	901.95	26
1056.4019	3269.5066	902.25	22
1056.5013	3270.3966	902.65	24.2
1056.6005	3271.286	898.25	18.5
