Software Version:	3.9.2.0
Unit SN:	10000200
Spectrometer SN:	6960
Date:	3/14/2024 1:49:41 PM
Data Line Index:	25
Spectral Points:	2048
Integration time (ms):	125
Averages:	20
Delay (ms):	30000
Sequence Number:	1
Processing:	dark subtract
Laser Power (mW):	305
Laser Current (mA):	824
Laser Diode Temp (C):	25
Laser Case Temp (C):	28.9
System Temp (C):	28.9
Spectrometer Temp (C):	26.7
CCD Temp (C):	0.009
Secondary Temp (C):	20.013
Heatsink Temp (C):	24.717
CCDPCB Temp (C):	38.041
SecondaryPCB Temp (C):	35.873

Wavelength	RamanShift	Raw Counts	Dark Subtracted
787.061	30.1047	463.85	53.55
787.2016	32.3739	462.2	53.8
787.3422	34.6426	468.05	59
787.4828	36.9109	477	67.25
787.6235	39.1787	484.1	69.35
787.7642	41.4461	491.35	72.9
787.9049	43.7131	504.7	81.9
788.0456	45.9796	512.6	85
788.1863	48.2456	527.8	97
788.3271	50.5112	537.35	102.4
788.4679	52.7764	545.8	110.1
788.6087	55.0411	558.6	118.9
788.7496	57.3054	568.6	123.7
788.8904	59.5692	582.6	133.9
789.0313	61.8326	594.4	142.6
789.1722	64.0955	613.25	156.05
789.3132	66.3579	628.85	167.65
789.4541	68.6199	652	186.4
789.5951	70.8815	680.2	211.7
789.7361	73.1426	762.95	290.2
789.8771	75.4032	974.25	497.5
790.0181	77.6634	1492.2	1008.05
790.1592	79.9231	2725.4	2236.25
790.3003	82.1824	5426.7	4928.3
790.4414	84.4412	10407.7	9892.3
790.5825	86.6995	17469.35	16932.15
790.7237	88.9574	24559.55	24000.15
790.8648	91.2148	29518.8	28946.45
791.006	93.4717	31993.15	31412.15
791.1472	95.7282	32572.55	31982.6
791.2885	97.9842	32569.7	31979.6
791.4297	100.2398	32078.8	31486.5
791.571	102.4949	31528.3	30932.65
791.7123	104.7495	30717.5	30117.1
791.8536	107.0036	29957.4	29357.25
791.9949	109.2573	29165.2	28565.65
792.1363	111.5105	28384.15	27782.15
792.2777	113.7632	27670.6	27065.9
792.4191	116.0154	26971.4	26357.9
792.5605	118.2672	26559.65	25952.85
792.7019	120.5185	26068.1	25457.7
792.8434	122.7693	25690.7	25078.05
792.9849	125.0197	25390.7	24777
793.1264	127.2696	25107	24493.05
793.2679	129.519	24970.55	24351.9
793.4094	131.7679	24764.1	24141.4
793.551	134.0163	24583.95	23958.9
793.6926	136.2642	24350.1	23717.3
793.8342	138.5117	24141.9	23500.5
793.9758	140.7587	23882.55	23247.85
794.1175	143.0052	23666.8	23029.7
794.2591	145.2512	23437.85	22802.3
794.4008	147.4967	23187.15	22550.95
794.5425	149.7417	23034.2	22396
794.6842	151.9863	22913.1	22271.65
794.826	154.2304	22843.45	22195.25
794.9677	156.4739	22692	22039.25
795.1095	158.717	22585.5	21939.5
795.2513	160.9596	22429.45	21774.45
795.3931	163.2017	22166.2	21510.05
795.535	165.4433	21863.45	21206.05
795.6768	167.6844	21451.55	20790.95
795.8187	169.925	21111.3	20450.5
795.9606	172.1651	20741.65	20077
796.1025	174.4047	20456.25	19789
796.2445	176.6439	20193.85	19520.85
796.3864	178.8825	19873.2	19198.35
796.5284	181.1206	19745.1	19066.8
796.6704	183.3582	19535.75	18855.25
796.8124	185.5954	19423.8	18741.75
796.9544	187.832	19331.1	18640.55
797.0965	190.0681	19298.95	18607.9
797.2386	192.3037	19265.2	18574.25
797.3806	194.5388	19235.8	18541.15
797.5228	196.7734	19306.5	18609.5
797.6649	199.0075	19356.2	18655.35
797.807	201.2411	19498.65	18792.6
797.9492	203.4742	19546.6	18838.85
798.0914	205.7068	19651.4	18943.75
798.2336	207.9389	19760.2	19055.85
798.3758	210.1704	19904.95	19199.55
798.518	212.4015	19981.05	19267.85
798.6603	214.632	20183.65	19469.5
798.8025	216.862	20379.55	19675.15
798.9448	219.0915	20503.05	19803.65
799.0871	221.3205	20729.35	20033.9
799.2294	223.549	20980.25	20291.4
799.3718	225.777	21231.8	20544.05
799.5141	228.0044	21602.4	20910.55
799.6565	230.2314	22067.55	21379.45
799.7989	232.4578	22477.5	21784.85
799.9413	234.6837	22851.7	22154.65
800.0837	236.909	23041.45	22343.75
800.2262	239.1339	23019.15	22303.3
800.3687	241.3582	22755.5	22047.4
800.5111	243.582	22445.45	21710
800.6536	245.8053	22094.5	21365.2
800.7961	248.0281	21729.25	21007.6
800.9387	250.2503	21491.7	20768.55
801.0812	252.472	21342.25	20610.6
801.2238	254.6932	21289.9	20556.85
801.3664	256.9139	21195.85	20458.55
801.509	259.134	21176.2	20436.1
801.6516	261.3536	21149.8	20411.6
801.7942	263.5727	21228.05	20490.15
801.9369	265.7912	21210.65	20471.3
802.0795	268.0092	21228.6	20491.2
802.2222	270.2267	21194.55	20455.35
802.3649	272.4436	21125.8	20384.5
802.5076	274.6601	21068.05	20320.2
802.6504	276.8759	20965.4	20220.35
802.7931	279.0913	20930.35	20186.1
802.9359	281.3061	20858.25	20110.1
803.0787	283.5204	20885.9	20134.45
803.2215	285.7341	20957.6	20207.2
803.3643	287.9473	21097.2	20333.6
803.5071	290.16	21336.55	20574.3
803.6499	292.3721	21629.85	20876.05
803.7928	294.5837	22037.2	21281.85
803.9357	296.7947	22427.35	21673.95
804.0786	299.0052	22605.3	21852.15
804.2215	301.2152	22448.45	21689.4
804.3644	303.4246	22064.95	21311.05
804.5074	305.6334	21481.15	20729.6
804.6503	307.8418	20920.25	20161.1
804.7933	310.0495	20461.75	19700.4
804.9363	312.2568	20103.75	19345.85
805.0793	314.4635	19844.15	19085.3
805.2223	316.6696	19739.3	18980
805.3653	318.8752	19643.65	18872.8
805.5084	321.0802	19729.6	18970.2
805.6514	323.2847	19817.7	19051.35
805.7945	325.4887	19832.3	19068.55
805.9376	327.692	19797.3	19030.4
806.0807	329.8949	19678.3	18908.2
806.2238	332.0972	19383.7	18616
806.367	334.2989	19079.35	18308.4
806.5101	336.5001	18775.45	18005.1
806.6533	338.7007	18569.05	17797.6
806.7965	340.9008	18431.65	17659.7
806.9397	343.1003	18303.45	17526.8
807.0829	345.2992	18220.3	17443.75
807.2261	347.4976	18199.5	17424.25
807.3693	349.6955	18173.85	17393.6
807.5126	351.8927	18242.95	17459.7
807.6559	354.0895	18198.3	17403.8
807.7991	356.2856	18206.35	17425.25
807.9424	358.4812	18221.75	17442.05
808.0857	360.6763	18206.1	17423.8
808.2291	362.8707	18189.5	17405.5
808.3724	365.0646	18183.7	17399.35
808.5158	367.258	18208.55	17420.3
808.6591	369.4508	18180.35	17389
808.8025	371.643	18289.45	17499.15
808.9459	373.8346	18248.6	17452.25
809.0893	376.0257	18206.85	17409.3
809.2327	378.2162	18119.25	17321.2
809.3762	380.4062	17999.5	17199.55
809.5196	382.5956	17841.35	17038.9
809.6631	384.7844	17728.35	16928.95
809.8066	386.9726	17576.6	16772.5
809.9501	389.1603	17533.45	16734.65
810.0936	391.3474	17459.25	16624
810.2371	393.5339	17422.6	16622.7
810.3806	395.7199	17337	16543.7
810.5241	397.9052	17357.55	16568
810.6677	400.09	17360.8	16568.2
810.8113	402.2743	17421.6	16632.55
810.9548	404.4579	17455.55	16663.85
811.0984	406.641	17640.9	16849.85
811.2421	408.8235	17869.65	17078.6
811.3857	411.0054	18173.5	17377.7
811.5293	413.1868	18627.6	17829.75
811.673	415.3675	18930.45	18133.45
811.8166	417.5477	19082.85	18286.5
811.9603	419.7273	19113.25	18311.95
812.104	421.9064	19015.45	18210.6
812.2477	424.0848	18843.3	18041.45
812.3914	426.2627	18637.2	17829.7
812.5351	428.4399	18311	17502.9
812.6788	430.6166	17914.4	17101.1
812.8226	432.7928	17510.15	16698.5
812.9663	434.9683	17169.3	16354.75
813.1101	437.1432	16924.2	16107.1
813.2539	439.3176	16732.6	15917.8
813.3977	441.4914	16603.45	15787.35
813.5415	443.6645	16557.1	15738.6
813.6853	445.8371	16453.75	15634.85
813.8291	448.0091	16398.2	15578.7
813.973	450.1806	16329.55	15509.9
814.1168	452.3514	16256.05	15435.95
814.2607	454.5216	16288.35	15458.65
814.4046	456.6913	16179.1	15360.1
814.5485	458.8603	16184.4	15363.1
814.6924	461.0288	16272.3	15451.8
814.8363	463.1967	16274.05	15450.3
814.9802	465.3639	16361.3	15537.35
815.1241	467.5306	16445.9	15624.25
815.2681	469.6967	16572.45	15747.8
815.412	471.8622	16674.45	15854.35
815.556	474.0271	16852.35	16032.65
815.7	476.1914	16898.8	16075.1
815.844	478.3551	16861.1	16037.05
815.988	480.5182	16841.4	16017.8
816.132	482.6807	16821	15997.05
816.276	484.8426	16950	16126.7
816.4201	487.0039	17244.75	16419.2
816.5641	489.1647	17622.8	16794.15
816.7082	491.3248	18063.45	17238.25
816.8522	493.4843	18209.65	17387.3
816.9963	495.6432	18185.45	17362.15
817.1404	497.8015	18070.05	17241.5
817.2845	499.9592	18077.6	17252.4
817.4286	502.1163	17960.25	17134
817.5727	504.2728	17712.65	16884.7
817.7168	506.4287	17396.45	16568.1
817.861	508.5839	16928.5	16099.5
818.0051	510.7386	16583.75	15754.65
818.1493	512.8927	16412.3	15572.4
818.2935	515.0461	16252.25	15420.8
818.4377	517.199	16183.5	15354.15
818.5818	519.3512	16169.25	15341.5
818.726	521.5029	16244.45	15408.05
818.8703	523.6539	16320.25	15485.3
819.0145	525.8043	16371.5	15537.9
819.1587	527.9541	16343.35	15505
819.303	530.1033	16342.8	15507.65
819.4472	532.2519	16311.15	15474.2
819.5915	534.3999	16457.05	15620.85
819.7357	536.5472	16693.85	15859.1
819.88	538.694	17170.4	16330.5
820.0243	540.8401	17724.7	16884.95
820.1686	542.9856	18225.5	17386.2
820.3129	545.1305	18338.55	17499.5
820.4572	547.2748	18188.85	17349.6
820.6016	549.4185	17814.1	16973.55
820.7459	551.5615	17397.85	16560.6
820.8902	553.704	17262.75	16424.7
821.0346	555.8458	17182.25	16341.65
821.1789	557.987	17146.6	16309.65
821.3233	560.1276	17149.4	16310.25
821.4677	562.2675	17192.35	16355
821.6121	564.4069	17210.15	16370.4
821.7565	566.5456	17232.7	16393.65
821.9009	568.6837	17130.55	16291.7
822.0453	570.8212	16816.75	15976.8
822.1897	572.958	16451.55	15608.45
822.3342	575.0942	16133.6	15293.6
822.4786	577.2299	15891.2	15049.1
822.6231	579.3648	15866.25	15023.05
822.7675	581.4992	15888.55	15049.15
822.912	583.6329	16109.55	15269.45
823.0565	585.766	16342.25	15501.5
823.201	587.8985	16457.75	15615.75
823.3454	590.0304	16465.85	15601.15
823.4899	592.1616	16334.75	15487.9
823.6345	594.2922	16218.6	15376.4
823.779	596.4222	16026.6	15181.7
823.9235	598.5515	15823.65	14980.6
824.068	600.6802	15648.65	14806.55
824.2126	602.8083	15478.85	14634.75
824.3571	604.9358	15392.65	14548.25
824.5017	607.0626	15343.95	14498.45
824.6462	609.1888	15260.05	14414
824.7908	611.3144	15220.95	14376.35
824.9354	613.4393	15087.25	14241.35
825.08	615.5636	15007.55	14161.4
825.2246	617.6873	14882.05	14035.55
825.3692	619.8103	14805.65	13955.5
825.5138	621.9327	14711.25	13864
825.6584	624.0544	14649	13800.5
825.803	626.1756	14607.65	13761.4
825.9477	628.2961	14540.7	13690.65
826.0923	630.4159	14453.55	13602.4
826.237	632.5351	14394.6	13545.15
826.3816	634.6537	14337	13489.4
826.5263	636.7716	14294.6	13442
826.6709	638.8889	14296.35	13446.4
826.8156	641.0056	14305.8	13456.3
826.9603	643.1216	14291.45	13441.65
827.105	645.237	14265.5	13411.8
827.2497	647.3518	14259.65	13407.45
827.3944	649.4659	14239.45	13388.65
827.5391	651.5793	14228.85	13374.9
827.6838	653.6922	14192.4	13340.2
827.8285	655.8043	14189.55	13339.6
827.9733	657.9159	14162.45	13307.35
828.118	660.0268	14089.05	13236.05
828.2627	662.137	13987.25	13131.65
828.4075	664.2466	13954.9	13100.45
828.5522	666.3556	13899.7	13045.6
828.697	668.4639	13898.15	13039.45
828.8418	670.5716	13936.25	13083.2
828.9865	672.6786	13985.6	13130.7
829.1313	674.785	14027.6	13171.95
829.2761	676.8907	14059.05	13203.65
829.4209	678.9958	14124.15	13269.75
829.5657	681.1002	14102.75	13245.7
829.7105	683.204	14064.35	13206.25
829.8553	685.3072	13998.85	13140.15
830.0001	687.4097	13926.1	13068.75
830.1449	689.5115	13849.6	12988.6
830.2898	691.6127	13789.4	12932.2
830.4346	693.7132	13696.15	12840.15
830.5794	695.8131	13650	12776.3
830.7243	697.9123	13633.3	12773.85
830.8691	700.0109	13555.25	12695.75
831.014	702.1089	13540.25	12681.3
831.1588	704.2061	13529.65	12670.2
831.3037	706.3028	13535.25	12674.25
831.4486	708.3987	13561.9	12699
831.5935	710.4941	13629.75	12771.45
831.7383	712.5887	13793.8	12932.55
831.8832	714.6827	14085.05	13219.05
832.0281	716.7761	14414.3	13553.05
832.173	718.8688	14756.7	13893.65
832.3179	720.9608	14958.55	14092.65
832.4628	723.0522	14984.1	14119.5
832.6077	725.1429	14781.7	13922.7
832.7527	727.233	14487.45	13625.65
832.8976	729.3224	14234.95	13373.95
833.0425	731.4112	13948.55	13085.6
833.1874	733.4993	13756.75	12893
833.3324	735.5867	13557.1	12694.35
833.4773	737.6735	13403.15	12536.1
833.6222	739.7596	13320.35	12456.4
833.7672	741.845	13237.45	12375.3
833.9122	743.9298	13190.3	12327.1
834.0571	746.014	13168.65	12306.55
834.2021	748.0974	13185.65	12319.25
834.347	750.1802	13156.25	12290.25
834.492	752.2624	13182.85	12318.4
834.637	754.3439	13200.95	12338.55
834.782	756.4247	13279.85	12405.5
834.9269	758.5048	13397.2	12532.2
835.0719	760.5843	13602.85	12736.25
835.2169	762.6631	13911.8	13046.15
835.3619	764.7413	14354.65	13490.4
835.5069	766.8188	14938.15	14072.05
835.6519	768.8956	15425.4	14560.6
835.7969	770.9718	15733.6	14867.3
835.9419	773.0473	15558.75	14696.2
836.0869	775.1221	15220.45	14353.65
836.232	777.1962	14827.25	13960.95
836.377	779.2697	14624.15	13755.55
836.522	781.3426	14673.6	13789.25
836.667	783.4147	14907.35	14042.55
836.8121	785.4862	15193.2	14330.45
836.9571	787.557	15176.3	14312.95
837.1021	789.6271	14766.7	13898
837.2472	791.6966	14216.6	13350.8
837.3922	793.7654	13614.6	12748.6
837.5373	795.8335	13264.75	12396.15
837.6823	797.901	13038.9	12175
837.8274	799.9678	12934.9	12064.65
837.9724	802.0339	12921.45	12057.65
838.1175	804.0993	12955.65	12078.3
838.2626	806.1641	12915.5	12048.2
838.4076	808.2282	12854.25	11985.8
838.5527	810.2916	12741.1	11870
838.6978	812.3544	12635.15	11768.5
838.8428	814.4164	12531.1	11661.8
838.9879	816.4778	12540.1	11671.2
839.133	818.5385	12525.35	11660.25
839.2781	820.5986	12551.1	11683.4
839.4232	822.658	12690	11820.25
839.5682	824.7166	12806.2	11940.2
839.7133	826.7747	13027.7	12159.45
839.8584	828.832	13232.2	12364.6
840.0035	830.8886	13379.5	12509.15
840.1486	832.9446	13517.2	12648.15
840.2937	834.9999	13512.2	12645.4
840.4388	837.0545	13501.5	12627.15
840.5839	839.1085	13445.55	12574.25
840.729	841.1618	13349.05	12475.75
840.8741	843.2143	13308.45	12441.35
841.0192	845.2662	13167.05	12297.7
841.1643	847.3175	13112.75	12243.9
841.3095	849.368	12963.9	12093.75
841.4546	851.4179	12858.65	11988.35
841.5997	853.467	12699.45	11831.25
841.7448	855.5155	12575.95	11705.8
841.8899	857.5633	12474.7	11604.7
842.0351	859.6105	12329.4	11457
842.1802	861.6569	12240.45	11371.2
842.3253	863.7027	12149.55	11275.75
842.4704	865.7478	12114.55	11242.4
842.6156	867.7922	12119.9	11249.1
842.7607	869.8359	12168.3	11295.8
842.9058	871.8789	12240.5	11371.55
843.0509	873.9212	12427.8	11522.15
843.1961	875.9629	12541.3	11670.15
843.3412	878.0039	12691.85	11816.3
843.4863	880.0441	12811.65	11940.1
843.6315	882.0837	12791.4	11919.1
843.7766	884.1226	12692.45	11818.3
843.9218	886.1609	12555.9	11685.65
844.0669	888.1984	12476.1	11605.8
844.212	890.2352	12455.6	11585.15
844.3572	892.2714	12410.95	11534.75
844.5023	894.3069	12334.25	11460
844.6475	896.3416	12248.7	11375.2
844.7926	898.3757	12173.7	11300.05
844.9377	900.4091	12154.75	11278.8
845.0829	902.4418	12172.85	11296.95
845.228	904.4739	12167	11294.85
845.3732	906.5052	12153.75	11278.4
845.5183	908.5358	12045.45	11172.8
845.6635	910.5658	11897	11021.4
845.8086	912.595	11686.95	10813
845.9538	914.6236	11557.8	10686.55
846.0989	916.6515	11497.9	10625.25
846.2441	918.6786	11442.3	10566.3
846.3892	920.7051	11522	10645.95
846.5344	922.7309	11574.1	10699.35
846.6795	924.756	11625.7	10748.85
846.8246	926.7804	11713.8	10836.9
846.9698	928.8041	11669.65	10792.4
847.1149	930.8272	11664.8	10790.05
847.2601	932.8495	11634.15	10758.15
847.4052	934.8711	11539.6	10665.35
847.5504	936.892	11392.45	10515.7
847.6955	938.9123	11217.75	10343.7
847.8407	940.9318	11104.5	10228.85
847.9858	942.9506	11004.05	10129.7
848.131	944.9688	10902.2	10028.6
848.2761	946.9862	10864.1	9988.3
848.4213	949.003	10782.8	9907.15
848.5664	951.019	10747.3	9871.65
848.7115	953.0344	10729.65	9854.25
848.8567	955.0491	10761.4	9882
849.0018	957.063	10857.3	9982.1
849.147	959.0763	10928.95	10055
849.2921	961.0888	10961.7	10082.45
849.4373	963.1007	11035.45	10160.25
849.5824	965.1119	11082.6	10206.2
849.7275	967.1223	11108.9	10231.95
849.8727	969.1321	11092.2	10217.35
850.0178	971.1412	11081.3	10201.65
850.1629	973.1495	11114.95	10239.15
850.3081	975.1572	11154.2	10246.55
850.4532	977.1641	11159.55	10285.2
850.5983	979.1704	11116.5	10238.9
850.7435	981.1759	11069.7	10192.8
850.8886	983.1808	11148.2	10271.4
851.0337	985.1849	11231.6	10345.35
851.1788	987.1884	11389.8	10506.95
851.324	989.1911	11526	10646.8
851.4691	991.1932	11649	10767.05
851.6142	993.1945	11695.3	10818
851.7593	995.1951	11631.75	10754
851.9045	997.1951	11600	10714.25
852.0496	999.1943	11523.05	10646.95
852.1947	1001.1928	11467.1	10589.85
852.3398	1003.1906	11464.7	10588.35
852.4849	1005.1877	11522.05	10641.7
852.63	1007.1841	11477.1	10600.1
852.7751	1009.1798	11394.05	10519.7
852.9202	1011.1748	11224.65	10345.5
853.0653	1013.1691	11006.7	10130.5
853.2104	1015.1627	10786.85	9907.5
853.3555	1017.1556	10567.05	9690.7
853.5006	1019.1477	10464.85	9586.05
853.6457	1021.1392	10368.35	9491.2
853.7908	1023.1299	10365.3	9488
853.9359	1025.12	10393.65	9512.9
854.081	1027.1093	10411.6	9532.45
854.2261	1029.0979	10504.5	9625.9
854.3712	1031.0859	10557.35	9682
854.5163	1033.0731	10545.35	9665.95
854.6613	1035.0596	10479.2	9601.65
854.8064	1037.0454	10328.4	9451.15
854.9515	1039.0304	10231.1	9352.95
855.0965	1041.0148	10085.35	9207.65
855.2416	1042.9985	9974.55	9094.9
855.3867	1044.9814	9913.65	9035.15
855.5317	1046.9636	9869	8989.75
855.6768	1048.9452	9822.15	8944.4
855.8219	1050.926	9821.5	8946.2
855.9669	1052.9061	9826.65	8949.2
856.112	1054.8855	9828.1	8948.65
856.257	1056.8642	9837.25	8959.1
856.4021	1058.8421	9875.2	8996.5
856.5471	1060.8194	9902.4	9025.35
856.6921	1062.7959	9925.4	9047.95
856.8372	1064.7717	9952	9073.1
856.9822	1066.7469	9947.15	9066.3
857.1272	1068.7213	9930.55	9049.75
857.2723	1070.695	9947.15	9069.6
857.4173	1072.6679	9908.8	9030.9
857.5623	1074.6402	9832.3	8952.7
857.7073	1076.6117	9811.55	8928
857.8523	1078.5826	9786.75	8906.55
857.9973	1080.5527	9805.7	8925.55
858.1423	1082.5221	9876.55	8997.15
858.2873	1084.4908	10052.95	9173.9
858.4323	1086.4587	10216.5	9336.15
858.5773	1088.426	10347.65	9467.5
858.7223	1090.3925	10343.45	9457.7
858.8673	1092.3584	10282.85	9404.55
859.0123	1094.3235	10154.15	9275.15
859.1573	1096.2879	10118.35	9235.55
859.3022	1098.2515	10079.4	9201.3
859.4472	1100.2145	10136.4	9257.3
859.5922	1102.1767	10235.7	9354.25
859.7371	1104.1382	10397.65	9517.9
859.8821	1106.099	10585.95	9705.15
860.027	1108.0591	10827.6	9945.55
860.172	1110.0185	10944.7	10062
860.3169	1111.9771	10990.8	10110.7
860.4619	1113.9351	10787.2	9907.85
860.6068	1115.8923	10483.1	9602.6
860.7517	1117.8488	10165.05	9284.6
860.8967	1119.8045	9892.8	9014.6
861.0416	1121.7596	9775.3	8897.05
861.1865	1123.7139	9688.5	8808.25
861.3314	1125.6675	9692.75	8813.65
861.4763	1127.6204	9732.2	8854.45
861.6212	1129.5726	9699.55	8816.3
861.7661	1131.524	9680.3	8800.6
861.911	1133.4748	9650.6	8770.45
862.0559	1135.4248	9645.65	8763.9
862.2008	1137.3741	9611.8	8733.55
862.3457	1139.3226	9522.6	8641.6
862.4905	1141.2705	9467.85	8590.4
862.6354	1143.2176	9397.75	8512.6
862.7803	1145.164	9397.4	8515.85
862.9251	1147.1097	9398.05	8517.45
863.07	1149.0546	9384.65	8503.8
863.2148	1150.9989	9272.45	8392.4
863.3597	1152.9424	9121.55	8240.05
863.5045	1154.8852	8941.75	8061.1
863.6493	1156.8272	8818	7937.65
863.7942	1158.7686	8776.8	7889.2
863.939	1160.7092	8747.95	7865.25
864.0838	1162.6491	8728.5	7845.35
864.2286	1164.5883	8836.5	7956.55
864.3734	1166.5267	8901.65	8020.95
864.5182	1168.4644	9022	8142
864.663	1170.4014	9214.2	8324.55
864.8078	1172.3377	9468.2	8587.7
864.9526	1174.2732	9702.75	8820.3
865.0974	1176.2081	9969.45	9090.3
865.2421	1178.1421	10217.5	9334.85
865.3869	1180.0755	10465.3	9586.65
865.5317	1182.0082	10565.85	9684.45
865.6764	1183.9401	10576.5	9695.05
865.8212	1185.8713	10429.25	9548.1
865.9659	1187.8017	10178.45	9298
866.1106	1189.7315	9894.1	9015.1
866.2554	1191.6605	9612	8700.7
866.4001	1193.5888	9390.75	8509.1
866.5448	1195.5163	9269.5	8389.15
866.6895	1197.4432	9174.7	8289.9
866.8342	1199.3693	9125.85	8243.7
866.9789	1201.2947	9096.25	8209.45
867.1236	1203.2193	9073.95	8193.15
867.2683	1205.1432	9082	8196.9
867.413	1207.0664	9130.25	8250
867.5576	1208.9889	9120.25	8235.7
867.7023	1210.9106	9154.9	8275.4
867.847	1212.8316	9227.6	8348.6
867.9916	1214.7519	9278	8388.85
868.1363	1216.6715	9282.95	8402.1
868.2809	1218.5903	9269.3	8388.6
868.4255	1220.5084	9256.45	8375.9
868.5701	1222.4257	9255.3	8372.9
868.7148	1224.3424	9234.8	8356.45
868.8594	1226.2583	9297.4	8410.95
869.004	1228.1735	9395.9	8513.65
869.1486	1230.0879	9478.6	8598.95
869.2932	1232.0016	9601.1	8721
869.4377	1233.9146	9642.25	8757.1
869.5823	1235.8269	9555.9	8675.75
869.7269	1237.7384	9424.7	8542.95
869.8715	1239.6492	9201.95	8320
870.016	1241.5592	9092.3	8210.55
870.1606	1243.4686	9036.45	8153.9
870.3051	1245.3772	9016.3	8134.5
870.4496	1247.285	8986.1	8105.8
870.5941	1249.1922	8995.4	8114.65
870.7387	1251.0986	8971.4	8091.4
870.8832	1253.0042	8956.75	8074.8
871.0277	1254.9092	8997.9	8116.15
871.1722	1256.8134	9082.4	8201.1
871.3167	1258.7169	9210.1	8327.15
871.4611	1260.6196	9396.45	8516.1
871.6056	1262.5216	9596.75	8713.4
871.7501	1264.4229	9785.9	8904.6
871.8945	1266.3234	9925.3	9043.7
872.039	1268.2232	10011.8	9127.35
872.1834	1270.1223	9988.9	9106.4
872.3278	1272.0207	9960.45	9076.3
872.4723	1273.9183	9937.85	9051.6
872.6167	1275.8151	9859.55	8980.05
872.7611	1277.7113	9781.05	8895.8
872.9055	1279.6067	9678.7	8800.75
873.0499	1281.5014	9609.05	8724.15
873.1943	1283.3953	9615.8	8731.8
873.3386	1285.2885	9592.3	8709.55
873.483	1287.181	9642.55	8760.5
873.6274	1289.0727	9727.85	8845.75
873.7717	1290.9637	9826.3	8942.25
873.9161	1292.854	9956.25	9074
874.0604	1294.7435	10043.65	9162.65
874.2047	1296.6323	10187.5	9304.8
874.349	1298.5204	10372.3	9487.4
874.4933	1300.4077	10511.85	9629.05
874.6376	1302.2943	10634.7	9754.2
874.7819	1304.1802	10665.4	9786.6
874.9262	1306.0653	10503.9	9619.45
875.0705	1307.9497	10318.9	9436.65
875.2147	1309.8333	10185.25	9305
875.359	1311.7162	10074.6	9194.3
875.5032	1313.5984	10084.35	9202.2
875.6475	1315.4798	10167.85	9274.05
875.7917	1317.3605	10267.9	9371.2
875.9359	1319.2405	10321.3	9436.2
876.0801	1321.1197	10308	9421.9
876.2243	1322.9982	10202.65	9316.05
876.3685	1324.876	10096.95	9215.15
876.5127	1326.753	10039	9155.3
876.6569	1328.6293	10008.05	9124.6
876.801	1330.5048	9993.6	9107.55
876.9452	1332.3796	9928.3	9045.45
877.0893	1334.2537	9899.3	8986.75
877.2335	1336.127	9870.2	8987.3
877.3776	1337.9996	9854.05	8972.05
877.5217	1339.8714	9831.9	8947.4
877.6658	1341.7426	9812.05	8888.9
877.8099	1343.6129	9791	8907.95
877.954	1345.4826	9708.55	8825.45
878.0981	1347.3515	9684.7	8799.85
878.2422	1349.2196	9653.85	8772.05
878.3862	1351.087	9646.05	8763.9
878.5303	1352.9537	9703.9	8820.45
878.6743	1354.8197	9829.55	8946.75
878.8184	1356.6849	9979.15	9098.75
878.9624	1358.5493	10102.65	9220.1
879.1064	1360.4131	10171.75	9288.2
879.2504	1362.276	10144.3	9261.1
879.3944	1364.1383	10006.85	9121.8
879.5384	1365.9998	9777.55	8890.55
879.6823	1367.8606	9433.9	8551
879.8263	1369.7206	9141.35	8257.6
879.9702	1371.5799	8900.05	8014.45
880.1142	1373.4384	8719.5	7835.85
880.2581	1375.2962	8570.7	7687.3
880.402	1377.1533	8308.95	7424.05
880.5459	1379.0096	8007.45	7124.45
880.6898	1380.8652	7710.75	6827.05
880.8337	1382.7201	7439	6556.15
880.9776	1384.5742	7219.6	6336.35
881.1215	1386.4275	7053.75	6167.3
881.2653	1388.2802	6935	6053.7
881.4092	1390.132	6830.15	5947.2
881.553	1391.9832	6766.7	5882.2
881.6968	1393.8336	6682.25	5798.8
881.8406	1395.6832	6674.1	5789.15
881.9844	1397.5322	6627	5744.05
882.1282	1399.3803	6605.35	5716
882.272	1401.2278	6587.15	5703.05
882.4158	1403.0745	6597	5715.1
882.5595	1404.9204	6577.8	5695.85
882.7033	1406.7656	6595.8	5713.75
882.847	1408.6101	6633.45	5747.4
882.9908	1410.4538	6643.4	5758.7
883.1345	1412.2968	6707.5	5824.95
883.2782	1414.139	6767.75	5885.6
883.4219	1415.9805	6849.8	5966.5
883.5656	1417.8213	6946.5	6060.6
883.7092	1419.6613	7056.65	6173.2
883.8529	1421.5006	7237.6	6352.8
883.9965	1423.3391	7487.8	6604.45
884.1402	1425.1769	7827.8	6943.2
884.2838	1427.0139	8316.95	7431.2
884.4274	1428.8502	8918.95	8031.8
884.571	1430.6858	9520.05	8636.15
884.7146	1432.5206	9923.75	9041.4
884.8582	1434.3547	10177.6	9294.45
885.0018	1436.188	10210.1	9326.8
885.1453	1438.0206	10107.35	9223.7
885.2889	1439.8524	9946.65	9060.6
885.4324	1441.6835	9819.75	8936.85
885.5759	1443.5139	9766.5	8877.65
885.7194	1445.3435	9671.9	8787.05
885.8629	1447.1724	9619.3	8735.7
886.0064	1449.0005	9544.45	8660.4
886.1499	1450.8279	9464.4	8580.35
886.2933	1452.6545	9441.2	8557.35
886.4368	1454.4804	9447.6	8564.65
886.5802	1456.3056	9457	8566.95
886.7237	1458.13	9343.95	8462
886.8671	1459.9536	9130.95	8247.15
887.0105	1461.7766	8769.5	7884.25
887.1539	1463.5987	8378.3	7492.75
887.2972	1465.4202	7995.75	7112.3
887.4406	1467.2409	7656.7	6774.45
887.584	1469.0608	7373.05	6488.4
887.7273	1470.88	7122.95	6238.55
887.8706	1472.6984	6877.55	5993.45
888.0139	1474.5161	6670.7	5783.05
888.1572	1476.3331	6522	5640.25
888.3005	1478.1493	6381.4	5499.65
888.4438	1479.9648	6315.4	5432.3
888.5871	1481.7795	6201.5	5318.1
888.7303	1483.5935	6122.8	5238.15
888.8736	1485.4067	6057.8	5174.75
889.0168	1487.2192	6017.4	5134.7
889.16	1489.031	5970.55	5084.45
889.3032	1490.842	5924.5	5042.6
889.4464	1492.6522	5903.2	5019.6
889.5896	1494.4618	5851.65	4966.45
889.7327	1496.2705	5824.7	4942.15
889.8759	1498.0785	5782.5	4897.6
890.019	1499.8858	5768	4882.45
890.1622	1501.6924	5750.35	4867
890.3053	1503.4981	5714.85	4831.35
890.4484	1505.3032	5712.55	4828.25
890.5914	1507.1075	5664.25	4780.9
890.7345	1508.911	5646.15	4764.25
890.8776	1510.7138	5615.6	4731.8
891.0206	1512.5159	5583.1	4700.3
891.1637	1514.3172	5541.7	4659.3
891.3067	1516.1178	5499.2	4614.55
891.4497	1517.9176	5498	4612.2
891.5927	1519.7166	5451.85	4569.6
891.7357	1521.515	5425.2	4534.6
891.8786	1523.3126	5399.4	4515.6
892.0216	1525.1094	5391.4	4506.55
892.1645	1526.9055	5354.9	4472.85
892.3074	1528.7008	5331.5	4448.65
892.4503	1530.4954	5318.25	4434.45
892.5932	1532.2893	5303.75	4423.55
892.7361	1534.0824	5262.95	4373.75
892.879	1535.8747	5271.9	4389.55
893.0218	1537.6663	5271.2	4386.2
893.1647	1539.4572	5268.5	4383
893.3075	1541.2473	5259.75	4375.3
893.4503	1543.0367	5239.4	4355.2
893.5931	1544.8253	5234.5	4345.8
893.7359	1546.6132	5270.05	4383.65
893.8787	1548.4003	5258.9	4365.65
894.0214	1550.1867	5283.5	4391.95
894.1642	1551.9723	5305.95	4418.8
894.3069	1553.7572	5346.3	4462.25
894.4496	1555.5414	5388.8	4504.45
894.5923	1557.3247	5452.4	4569.35
894.735	1559.1074	5518.35	4636
894.8777	1560.8893	5620.85	4740.2
895.0204	1562.6705	5695.7	4811.15
895.163	1564.4509	5789.25	4904.9
895.3056	1566.2305	5841.55	4958.9
895.4482	1568.0094	5915.8	5034.8
895.5908	1569.7876	5959.5	5076.95
895.7334	1571.565	5988.45	5105.7
895.876	1573.3417	6023.5	5141
896.0186	1575.1176	5996	5112.7
896.1611	1576.8928	5962.95	5080.5
896.3036	1578.6672	5901	5018.95
896.4461	1580.4409	5795.35	4913.65
896.5886	1582.2138	5705.05	4816.8
896.7311	1583.986	5596.85	4712.95
896.8736	1585.7575	5554.6	4672.1
897.0161	1587.5282	5507.45	4623
897.1585	1589.2981	5483.85	4601.9
897.3009	1591.0673	5485.55	4602.3
897.4433	1592.8358	5477.8	4594.15
897.5857	1594.6035	5495	4610.75
897.7281	1596.3704	5522.2	4639.1
897.8705	1598.1366	5552	4671.05
898.0128	1599.9021	5600.65	4718.65
898.1551	1601.6668	5648.1	4761.1
898.2975	1603.4308	5723.75	4840.15
898.4398	1605.194	5840.55	4951.9
898.5821	1606.9564	5963.8	5082.85
898.7243	1608.7182	6111.35	5223.4
898.8666	1610.4791	6296.25	5414.55
899.0088	1612.2394	6472	5588.95
899.1511	1613.9988	6681.85	5797.6
899.2933	1615.7576	6911	6028.3
899.4355	1617.5156	7108.5	6219.4
899.5776	1619.2728	7294.3	6412.8
899.7198	1621.0293	7423.65	6541.9
899.862	1622.785	7451.8	6563.7
900.0041	1624.54	7357.1	6471.1
900.1462	1626.2942	7200.8	6317.65
900.2883	1628.0477	6961.3	6074.45
900.4304	1629.8005	6724.95	5836.3
900.5725	1631.5525	6509.55	5626.25
900.7145	1633.3037	6333.75	5450.95
900.8566	1635.0542	6195.75	5314.1
900.9986	1636.804	6087.1	5202.5
901.1406	1638.553	6081.1	5117.9
901.2826	1640.3013	5983.75	5100.6
901.4245	1642.0488	5978.9	5095.05
901.5665	1643.7955	6016.65	5135.2
901.7085	1645.5416	6053.55	5170.25
901.8504	1647.2868	6131.6	5249.15
901.9923	1649.0313	6240.05	5358.05
902.1342	1650.7751	6396.4	5510.25
902.2761	1652.5181	6568.75	5688.65
902.4179	1654.2604	6782.5	5895.25
902.5598	1656.0019	7084.3	6202.9
902.7016	1657.7427	7409.25	6524.05
902.8434	1659.4828	7708.4	6827.35
902.9852	1661.222	7891.05	7006.05
903.127	1662.9606	7896.35	7014.5
903.2687	1664.6984	7678.95	6797.25
903.4105	1666.4354	7279.45	6397.5
903.5522	1668.1717	6755.45	5874.1
903.6939	1669.9072	6245.15	5361.25
903.8356	1671.642	5821.55	4936.7
903.9773	1673.3761	5474.35	4592.05
904.119	1675.1094	5212.3	4330.2
904.2606	1676.8419	5012.15	4131.5
904.4022	1678.5737	4849.05	3969.05
904.5439	1680.3048	4736.4	3854.95
904.6855	1682.0351	4631.85	3749.7
904.827	1683.7646	4557.65	3671.95
904.9686	1685.4934	4493.1	3610.85
905.1101	1687.2215	4450.5	3566.55
905.2517	1688.9488	4405.65	3523.7
905.3932	1690.6754	4352.3	3471.35
905.5347	1692.4012	4328.7	3447.25
905.6761	1694.1263	4301.4	3416.75
905.8176	1695.8506	4277.45	3396.15
905.9591	1697.5742	4252.9	3370.3
906.1005	1699.297	4215.7	3334.2
906.2419	1701.0191	4202.8	3321.15
906.3833	1702.7404	4167.2	3284.15
906.5246	1704.461	4137.85	3253.65
906.666	1706.1808	4115.6	3231.15
906.8073	1707.8999	4104.25	3221.35
906.9487	1709.6182	4083.85	3201.25
907.09	1711.3358	4062.1	3181.05
907.2313	1713.0527	4040.15	3158.9
907.3725	1714.7688	4030.85	3142.95
907.5138	1716.4841	4005.95	3119.75
907.655	1718.1987	3995.15	3107.4
907.7962	1719.9126	3989.4	3106
907.9374	1721.6257	3967.65	3082.45
908.0786	1723.338	3947.75	3065.6
908.2198	1725.0496	3929.65	3045.85
908.3609	1726.7605	3932.1	3050.05
908.502	1728.4706	3904.2	3019.65
908.6431	1730.18	3886.05	3000.9
908.7842	1731.8886	3878.25	2998
908.9253	1733.5964	3868.55	2981.3
909.0664	1735.3036	3864.1	2980.25
909.2074	1737.0099	3845.25	2962.05
909.3484	1738.7156	3822.95	2941.65
909.4894	1740.4204	3814.3	2928.65
909.6304	1742.1246	3794.55	2910.85
909.7714	1743.8279	3798.1	2915.8
909.9123	1745.5306	3766	2880.85
910.0532	1747.2325	3762.6	2881.75
910.1941	1748.9336	3745.25	2865.25
910.335	1750.634	3715.25	2832.85
910.4759	1752.3336	3718.3	2835.65
910.6168	1754.0325	3708.5	2826.1
910.7576	1755.7307	3709.7	2827.7
910.8984	1757.4281	3701.55	2818.25
911.0392	1759.1247	3695.85	2806
911.18	1760.8206	3685.95	2798.2
911.3208	1762.5158	3680.25	2795.5
911.4615	1764.2102	3667.5	2788.6
911.6022	1765.9039	3648	2766.65
911.7429	1767.5968	3629.8	2745.75
911.8836	1769.289	3639.7	2756.9
912.0243	1770.9804	3625.85	2742.2
912.1649	1772.6711	3619.2	2737.5
912.3056	1774.361	3601.4	2719.4
912.4462	1776.0502	3610.45	2727.65
912.5868	1777.7386	3599.35	2714.3
912.7274	1779.4263	3585.9	2704.25
912.8679	1781.1132	3586.6	2702.65
913.0084	1782.7994	3567.85	2684.9
913.149	1784.4849	3556.55	2673.1
913.2895	1786.1696	3580.35	2681.95
913.4299	1787.8535	3565.15	2683.7
913.5704	1789.5367	3555.55	2674.3
913.7108	1791.2192	3551.05	2670.7
913.8513	1792.9009	3534	2636.95
913.9917	1794.5818	3515.9	2632.45
914.132	1796.2621	3499.45	2617.35
914.2724	1797.9415	3516.8	2633.5
914.4128	1799.6202	3491.85	2608.85
914.5531	1801.2982	3484.55	2602.15
914.6934	1802.9755	3488.6	2604
914.8337	1804.6519	3487.1	2605.1
914.9739	1806.3277	3472.1	2589.5
915.1142	1808.0027	3453	2572.6
915.2544	1809.6769	3456.65	2573.6
915.3946	1811.3504	3454.55	2571.75
915.5348	1813.0231	3449	2566.1
915.675	1814.6951	3443.95	2559.85
915.8151	1816.3664	3451.7	2567.35
915.9553	1818.0369	3431.35	2547.85
916.0954	1819.7067	3417.2	2536.65
916.2355	1821.3757	3420.4	2538
916.3755	1823.044	3408.55	2525.75
916.5156	1824.7115	3397.3	2516.1
916.6556	1826.3783	3392.45	2512.05
916.7956	1828.0443	3376.55	2494.7
916.9356	1829.7096	3386.6	2503.05
917.0756	1831.3741	3390.7	2505.55
917.2155	1833.0379	3385.65	2503.7
917.3555	1834.701	3357.65	2471.95
917.4954	1836.3633	3355.65	2469.3
917.6353	1838.0248	3360.1	2476.95
917.7751	1839.6856	3341.5	2460.05
917.915	1841.3457	3350.3	2468.85
918.0548	1843.005	3341.55	2460.95
918.1946	1844.6636	3346.15	2463.45
918.3344	1846.3214	3328.7	2447.85
918.4742	1847.9785	3315.85	2435.65
918.6139	1849.6349	3333	2450
918.7537	1851.2904	3323.4	2432.95
918.8934	1852.9453	3315.9	2435.4
919.0331	1854.5994	3296.85	2411.9
919.1727	1856.2528	3297.15	2408
919.3124	1857.9054	3303.1	2421.65
919.452	1859.5572	3290	2408.55
919.5916	1861.2083	3288.2	2405.8
919.7312	1862.8587	3288.35	2407
919.8708	1864.5084	3282.65	2400.65
920.0103	1866.1572	3261.1	2380.8
920.1498	1867.8054	3237.4	2355.05
920.2893	1869.4528	3259.8	2378.7
920.4288	1871.0994	3232.35	2350.05
920.5683	1872.7453	3241.95	2360.35
920.7077	1874.3905	3250.65	2352.75
920.8471	1876.0349	3226.5	2344.75
920.9865	1877.6786	3223.15	2338.8
921.1259	1879.3215	3228.95	2347.7
921.2653	1880.9637	3207.35	2323.35
921.4046	1882.6051	3199.65	2318.85
921.5439	1884.2458	3200.2	2314.45
921.6832	1885.8858	3191.4	2311.25
921.8225	1887.525	3187.65	2304.2
921.9617	1889.1634	3178.05	2298.15
922.101	1890.8011	3165.75	2283.3
922.2402	1892.4381	3173.7	2293.05
922.3794	1894.0743	3164.65	2283.9
922.5185	1895.7098	3144.4	2263.25
922.6577	1897.3446	3153.15	2271.5
922.7968	1898.9786	3145.95	2258.65
922.9359	1900.6118	3139.4	2258.3
923.075	1902.2443	3116.2	2230.45
923.214	1903.8761	3118.45	2237.5
923.3531	1905.5071	3108.2	2223.8
923.4921	1907.1374	3102.3	2221.15
923.6311	1908.7669	3106.9	2224.85
923.77	1910.3957	3093.35	2212.15
923.909	1912.0237	3077	2193.9
924.0479	1913.651	3077.35	2193.2
924.1868	1915.2776	3078.75	2197.9
924.3257	1916.9034	3065	2184.25
924.4646	1918.5285	3054.9	2172.7
924.6034	1920.1528	3060.45	2177.75
924.7422	1921.7764	3039.5	2160.05
924.881	1923.3992	3035.7	2155.1
925.0198	1925.0213	3015.2	2135.25
925.1586	1926.6427	3006.8	2126.3
925.2973	1928.2633	3113.25	2108.25
925.436	1929.8832	3018.65	2135.5
925.5747	1931.5023	3005.8	2123.4
925.7134	1933.1207	2989.6	2108.15
925.852	1934.7383	2992.3	2110.5
925.9906	1936.3552	2976.25	2094.55
926.1292	1937.9714	2965.55	2083.05
926.2678	1939.5868	2960.6	2077.7
926.4064	1941.2015	2947.8	2065.8
926.5449	1942.8154	2943.9	2062.15
926.6834	1944.4286	2948.05	2067.45
926.8219	1946.041	2955	2049
926.9604	1947.6528	2933.8	2046.1
927.0988	1949.2637	2911.85	2031.75
927.2372	1950.8739	2909	2028.9
927.3756	1952.4834	2917.75	2035.3
927.514	1954.0921	2897.45	2013.65
927.6523	1955.7001	2893.25	2006.15
927.7907	1957.3074	2878.8	1999.45
927.929	1958.9139	2872	1990.45
928.0673	1960.5197	2869.4	1985.45
928.2055	1962.1247	2850.3	1970.3
928.3438	1963.729	2858.95	1977.8
928.482	1965.3325	2856.9	1951.45
928.6202	1966.9353	2838.75	1957.95
928.7584	1968.5374	2828.4	1946
928.8965	1970.1387	2826.3	1940.8
929.0346	1971.7393	2823.05	1942.15
929.1727	1973.3392	2816.65	1933.1
929.3108	1974.9383	2805.45	1926.55
929.4489	1976.5366	2790.6	1906.8
929.5869	1978.1342	2789.7	1908.75
929.7249	1979.7311	2795.5	1913.55
929.8629	1981.3273	2789.4	1908.45
930.0009	1982.9227	2778.8	1895.3
930.1388	1984.5173	2773.25	1891.7
930.2767	1986.1112	2759.7	1877.25
930.4146	1987.7044	2754.45	1872.85
930.5525	1989.2968	2754.05	1870.85
930.6904	1990.8885	2751.95	1865.35
930.8282	1992.4795	2744.85	1862.35
930.966	1994.0697	2743.1	1859
931.1038	1995.6592	2718.55	1836.4
931.2415	1997.2479	2714.15	1832.2
931.3793	1998.8359	2729.9	1847.1
931.517	2000.4232	2711.65	1831
931.6547	2002.0097	2712.55	1831.05
931.7923	2003.5955	2700.25	1817.8
931.93	2005.1805	2700.5	1815.9
932.0676	2006.7648	2693.65	1810.05
932.2052	2008.3484	2697.55	1813.4
932.3427	2009.9312	2684.25	1798.7
932.4803	2011.5133	2681.95	1800.5
932.6178	2013.0946	2668.75	1785.3
932.7553	2014.6752	2671.75	1790.65
932.8928	2016.2551	2685.45	1802.1
933.0302	2017.8342	2669.75	1789.4
933.1676	2019.4126	2654.25	1772.7
933.305	2020.9902	2641.55	1759.55
933.4424	2022.5672	2653.4	1769.35
933.5798	2024.1433	2665.3	1776.6
933.7171	2025.7188	2640.1	1759.5
933.8544	2027.2935	2631.9	1748.65
933.9917	2028.8674	2625.3	1743.8
934.129	2030.4406	2615.6	1734.05
934.2662	2032.0131	2613.8	1732.25
934.4034	2033.5849	2614.85	1724.8
934.5406	2035.1559	2601.35	1720.25
934.6778	2036.7261	2592.9	1711.1
934.8149	2038.2957	2587.45	1705.85
934.952	2039.8645	2581.05	1699.15
935.0891	2041.4325	2591.8	1707.1
935.2262	2042.9998	2588.35	1707.6
935.3632	2044.5664	2588.7	1703.95
935.5002	2046.1323	2575.55	1694.2
935.6372	2047.6974	2554.05	1671.05
935.7742	2049.2617	2560.15	1678.5
935.9111	2050.8254	2581.15	1662.7
936.048	2052.3883	2567.15	1682.8
936.1849	2053.9504	2549.5	1665.2
936.3218	2055.5118	2559.4	1677.55
936.4586	2057.0725	2539.75	1655.7
936.5955	2058.6325	2529.2	1647.2
936.7323	2060.1917	2527.3	1646.2
936.869	2061.7502	2542.65	1659.85
937.0058	2063.3079	2514.35	1630.35
937.1425	2064.8649	2520.9	1635.8
937.2792	2066.4212	2515.55	1630.75
937.4159	2067.9767	2498.5	1615.5
937.5525	2069.5315	2492.9	1610.55
937.6891	2071.0856	2497.6	1615.25
937.8257	2072.6389	2490	1608.25
937.9623	2074.1915	2484.7	1604.5
938.0989	2075.7433	2472.75	1588.25
938.2354	2077.2945	2467.9	1586.1
938.3719	2078.8448	2463.75	1581.55
938.5084	2080.3945	2458	1575.1
938.6448	2081.9434	2464.6	1583.7
938.7812	2083.4916	2454	1572.2
938.9176	2085.039	2444.55	1560.95
939.054	2086.5857	2441.45	1557.1
939.1903	2088.1317	2435	1552.3
939.3267	2089.677	2433.55	1550.95
939.463	2091.2215	2425.25	1545.25
939.5992	2092.7652	2422.35	1538.55
939.7355	2094.3083	2426.6	1547.15
939.8717	2095.8506	2415.8	1535.85
940.0079	2097.3921	2417.05	1534.7
940.1441	2098.933	2411.95	1531.2
940.2802	2100.4731	2407.05	1523.85
940.4163	2102.0124	2424.5	1524
940.5524	2103.5511	2410.3	1528.65
940.6885	2105.089	2395.75	1513.55
940.8245	2106.6261	2399.1	1516.85
940.9606	2108.1626	2382.7	1499.9
941.0965	2109.6983	2413.5	1503.3
941.2325	2111.2332	2387.95	1506.1
941.3684	2112.7675	2380.7	1499.15
941.5044	2114.301	2378.8	1495.3
941.6403	2115.8337	2371.35	1489.15
941.7761	2117.3657	2374.35	1492.2
941.912	2118.897	2370.8	1487.6
942.0478	2120.4276	2365.95	1477.6
942.1835	2121.9575	2353.4	1468.4
942.3193	2123.4866	2367.5	1471.35
942.455	2125.0149	2352.55	1464.3
942.5907	2126.5426	2350.15	1469.1
942.7264	2128.0695	2340.4	1454.4
942.8621	2129.5956	2329.8	1448.35
942.9977	2131.1211	2347	1460.45
943.1333	2132.6458	2337.35	1454.75
943.2689	2134.1698	2327.2	1445.25
943.4044	2135.693	2324.45	1439.95
943.54	2137.2155	2327.6	1442.3
943.6755	2138.7373	2317.95	1436.3
943.8109	2140.2584	2320.65	1438.05
943.9464	2141.7787	2309.95	1421.7
944.0818	2143.2983	2300.1	1417.9
944.2172	2144.8171	2289.25	1406.35
944.3526	2146.3353	2289.8	1403.65
944.4879	2147.8527	2291.35	1409.9
944.6232	2149.3693	2297.4	1410.9
944.7585	2150.8853	2287.05	1404.4
944.8938	2152.4005	2264.95	1382.65
945.029	2153.9149	2279.95	1397.9
945.1642	2155.4287	2268.95	1386.05
945.2994	2156.9417	2266.3	1382.3
945.4346	2158.454	2265.4	1380.7
945.5697	2159.9655	2258.45	1376.25
945.7048	2161.4764	2266.7	1382.45
945.8399	2162.9865	2257.15	1372.7
945.9749	2164.4958	2260.75	1372.9
946.1099	2166.0045	2248.1	1360.7
946.2449	2167.5124	2251.3	1369.4
946.3799	2169.0195	2238.45	1355.65
946.5148	2170.526	2246.2	1362.4
946.6498	2172.0317	2223.9	1341.7
946.7846	2173.5367	2229.15	1344.8
946.9195	2175.0409	2231.2	1349.55
947.0543	2176.5445	2220.45	1336.9
947.1891	2178.0473	2226.4	1342.95
947.3239	2179.5494	2211.55	1324.8
947.4587	2181.0507	2200.1	1316.2
947.5934	2182.5513	2204.55	1320.55
947.7281	2184.0512	2197.6	1314.2
947.8628	2185.5504	2199.05	1316.7
947.9974	2187.0488	2192.9	1309.85
948.132	2188.5465	2187.15	1306.7
948.2666	2190.0435	2202.25	1320.35
948.4012	2191.5397	2181.6	1300.25
948.5357	2193.0353	2180.95	1299.15
948.6702	2194.5301	2177.7	1291.55
948.8047	2196.0241	2170.8	1288.15
948.9392	2197.5175	2178.35	1296.75
949.0736	2199.0101	2165.7	1278.95
949.208	2200.502	2163.65	1282.25
949.3424	2201.9931	2143.75	1258.9
949.4767	2203.4835	2156.1	1271
949.611	2204.9733	2152.6	1263.35
949.7453	2206.4622	2139.75	1256.35
949.8796	2207.9505	2135.3	1250.1
950.0138	2209.438	2126.8	1245.85
950.148	2210.9248	2127.65	1243.2
950.2822	2212.4109	2120.4	1239.5
950.4164	2213.8962	2117.35	1232.5
950.5505	2215.3809	2113.9	1230.1
950.6846	2216.8648	2118.8	1235.3
950.8186	2218.3479	2111.9	1225.7
950.9527	2219.8304	2104.9	1221.25
951.0867	2221.3121	2111.3	1225.8
951.2207	2222.7931	2096.6	1213.95
951.3546	2224.2733	2102.95	1219.35
951.4886	2225.7529	2099.7	1214.85
951.6225	2227.2317	2089.3	1203.55
951.7563	2228.7098	2089.15	1207
951.8902	2230.1872	2078.15	1195.15
952.024	2231.6638	2076.55	1193.05
952.1578	2233.1397	2076.8	1186.25
952.2916	2234.6149	2071.65	1189.15
952.4253	2236.0894	2066.6	1183.95
952.559	2237.5632	2072.6	1180.55
952.6927	2239.0362	2054.6	1171.35
952.8263	2240.5085	2059.1	1176.35
952.9599	2241.9801	2049.5	1166.75
953.0935	2243.4509	2041.65	1159.05
953.2271	2244.921	2037.05	1154.85
953.3606	2246.3904	2043.4	1159.8
953.4941	2247.8591	2031.85	1149.25
953.6276	2249.3271	2018.85	1137.85
953.7611	2250.7943	2017.45	1135.05
953.8945	2252.2608	2023.85	1140.2
954.0279	2253.7266	2014.5	1131.1
954.1612	2255.1917	2015.4	1132.65
954.2946	2256.656	2001.3	1115.55
954.4279	2258.1197	1999.65	1118.3
954.5612	2259.5826	2002.45	1118.6
954.6944	2261.0447	2015.05	1133.7
954.8276	2262.5062	1991.35	1104.85
954.9608	2263.9669	1990.4	1107.6
955.094	2265.4269	1989.45	1107.6
955.2271	2266.8862	1993.75	1110.65
955.3602	2268.3448	1979.05	1094.4
955.4933	2269.8026	1987.55	1102.35
955.6264	2271.2598	1971.7	1088.25
955.7594	2272.7162	1972.6	1089.45
955.8924	2274.1719	1977.3	1094.05
956.0253	2275.6268	1958.95	1074.45
956.1583	2277.0811	1958.15	1073.55
956.2912	2278.5346	1963.25	1081.45
956.4241	2279.9874	1962.25	1076.85
956.5569	2281.4395	1966.55	1086.75
956.6897	2282.8908	1950.05	1061.7
956.8225	2284.3414	1963.25	1077.05
956.9553	2285.7914	1950.4	1069.7
957.088	2287.2406	1947.55	1062.85
957.2207	2288.689	1950.35	1068.2
957.3534	2290.1368	1950.1	1066.3
957.486	2291.5838	1940.85	1055.2
957.6186	2293.0302	1937.5	1054.5
957.7512	2294.4758	1938.15	1056
957.8838	2295.9206	1936.45	1052.3
958.0163	2297.3648	1935.15	1052.45
958.1488	2298.8082	1933.15	1048.6
958.2813	2300.251	1916.5	1034.1
958.4137	2301.693	1925.85	1042.85
958.5461	2303.1343	1916.15	1032.15
958.6785	2304.5748	1915.55	1032.3
958.8108	2306.0147	1910.15	1025.7
958.9432	2307.4538	1916.3	1029.45
959.0754	2308.8922	1909.2	1028.6
959.2077	2310.3299	1896.2	1012.6
959.3399	2311.7669	1901	1019.25
959.4721	2313.2031	1894.4	1011.7
959.6043	2314.6387	1893.55	1009.45
959.7365	2316.0735	1883.25	1001.35
959.8686	2317.5076	1881.6	996.25
960.0006	2318.941	1883.85	1002.55
960.1327	2320.3737	1881.3	997.7
960.2647	2321.8056	1877.1	989.8
960.3967	2323.2369	1872.45	986.7
960.5287	2324.6674	1893.7	1006.8
960.6606	2326.0972	1869.9	987.15
960.7925	2327.5263	1857.05	975.5
960.9244	2328.9547	1868.3	985.7
961.0562	2330.3823	1870.7	988.4
961.1881	2331.8092	1870.3	983.9
961.3198	2333.2355	1850.5	967.65
961.4516	2334.661	1855.35	971.9
961.5833	2336.0858	1859.2	973
961.715	2337.5098	1847.5	963.65
961.8467	2338.9332	1843	960.95
961.9783	2340.3558	1848.65	963
962.1099	2341.7778	1847.3	963.35
962.2415	2343.199	1840.55	954.2
962.373	2344.6195	1837.1	955.05
962.5045	2346.0393	1830.9	948.85
962.636	2347.4583	1839.05	955.6
962.7675	2348.8767	1828.7	943.85
962.8989	2350.2943	1831.5	947.3
963.0303	2351.7113	1837.1	954.15
963.1617	2353.1275	1827.8	946.7
963.293	2354.543	1849.85	941.7
963.4243	2355.9578	1817.5	933.75
963.5556	2357.3718	1811.6	928.95
963.6868	2358.7852	1826.3	942.85
963.818	2360.1978	1811.6	928.05
963.9492	2361.6098	1806.45	924.6
964.0803	2363.021	1804.55	918.95
964.2114	2364.4315	1804.65	920.4
964.3425	2365.8413	1811.2	926.65
964.4736	2367.2504	1805.35	922.7
964.6046	2368.6587	1796.5	914.15
964.7356	2370.0664	1798.35	918.75
964.8666	2371.4733	1786.05	902.05
964.9975	2372.8795	1791.2	909.55
965.1284	2374.285	1784.35	901.65
965.2593	2375.6899	1781.4	899.65
965.3901	2377.0939	1780.15	897.95
965.5209	2378.4973	1770.9	890.25
965.6517	2379.9	1773.45	891.7
965.7825	2381.3019	1767.15	884.85
965.9132	2382.7032	1767.95	885.85
966.0439	2384.1037	1757.05	876.7
966.1745	2385.5035	1763.15	880.1
966.3051	2386.9027	1759.2	876.2
966.4357	2388.3011	1763.05	876.1
966.5663	2389.6987	1747.6	864.85
966.6968	2391.0957	1745.4	862.65
966.8273	2392.492	1737.4	853.8
966.9578	2393.8876	1737.35	856.1
967.0882	2395.2824	1723.85	844
967.2186	2396.6765	1730.65	847.25
967.349	2398.07	1729.5	848.7
967.4793	2399.4627	1732.3	849.55
967.6097	2400.8547	1728.3	845.6
967.7399	2402.246	1721.8	834.6
967.8702	2403.6366	1720.15	837.75
968.0004	2405.0265	1716.4	832.9
968.1306	2406.4156	1718.1	831.05
968.2607	2407.8041	1718.8	834.6
968.3909	2409.1918	1718.2	832.05
968.521	2410.5789	1702.25	820.25
968.651	2411.9652	1715.95	830.5
968.781	2413.3508	1704.95	823.45
968.911	2414.7358	1701.4	820.35
969.041	2416.12	1695.6	813.35
969.1709	2417.5035	1694.65	812.65
969.3008	2418.8863	1696.8	812.85
969.4307	2420.2684	1700.9	819.4
969.5606	2421.6497	1693.45	811.5
969.6904	2423.0304	1684.6	804.2
969.8201	2424.4104	1677.85	794.55
969.9499	2425.7896	1681.1	796.8
970.0796	2427.1682	1679.35	797.8
970.2093	2428.546	1679.6	794.1
970.3389	2429.9232	1670.95	787
970.4685	2431.2996	1679.4	797.2
970.5981	2432.6753	1669.75	785.55
970.7277	2434.0503	1664.55	784.2
970.8572	2435.4246	1665.2	782.7
970.9867	2436.7982	1660.75	777.35
971.1161	2438.1711	1659.75	778.3
971.2456	2439.5433	1661.25	778
971.375	2440.9148	1656.15	768.15
971.5043	2442.2856	1649.3	768.75
971.6336	2443.6557	1645.35	760.45
971.7629	2445.025	1649.05	766.85
971.8922	2446.3937	1640.7	758.8
972.0214	2447.7617	1637.45	754.7
972.1506	2449.1289	1641.9	758.6
972.2798	2450.4955	1640.3	752.8
972.4089	2451.8613	1638	755.9
972.538	2453.2265	1640.2	757.15
972.6671	2454.5909	1635.2	753.2
972.7961	2455.9546	1633.7	751.4
972.9251	2457.3177	1629.95	747.85
973.0541	2458.68	1634.2	749.5
973.1831	2460.0416	1626.6	744.05
973.312	2461.4025	1627.7	744.25
973.4408	2462.7627	1646.05	750.85
973.5697	2464.1222	1623.2	742
973.6985	2465.4811	1623.75	739.2
973.8273	2466.8392	1615.6	732.55
973.956	2468.1966	1617.95	731.9
974.0847	2469.5533	1624	740.3
974.2134	2470.9093	1617.35	734.7
974.3421	2472.2645	1617.75	732.05
974.4707	2473.6191	1610.15	727.95
974.5993	2474.973	1612.5	729.4
974.7278	2476.3262	1609.15	724.75
974.8563	2477.6787	1605.1	722.35
974.9848	2479.0305	1608.65	725.35
975.1132	2480.3816	1608.35	724.55
975.2417	2481.7319	1600.6	717.55
975.37	2483.0816	1605.6	719.5
975.4984	2484.4306	1592.3	710.15
975.6267	2485.7789	1591.5	709.85
975.755	2487.1264	1593.05	709.05
975.8833	2488.4733	1581.5	700.7
976.0115	2489.8195	1605.95	704.35
976.1397	2491.165	1588.35	701.75
976.2678	2492.5097	1587.05	704.5
976.3959	2493.8538	1575.9	692.45
976.524	2495.1972	1584.15	701.55
976.6521	2496.5398	1576.05	691.65
976.7801	2497.8818	1578.15	695.25
976.9081	2499.2231	1562.1	679.05
977.036	2500.5637	1564.9	679.9
977.164	2501.9035	1565.95	681.6
977.2918	2503.2427	1573.95	687.25
977.4197	2504.5812	1570.05	687.3
977.5475	2505.919	1565.8	680.35
977.6753	2507.256	1556.9	675.2
977.8031	2508.5924	1558.55	676.5
977.9308	2509.9281	1557.5	666.6
978.0585	2511.2631	1548.5	666.35
978.1861	2512.5974	1546.3	665.6
978.3137	2513.9309	1555.75	672.15
978.4413	2515.2638	1581.7	670.6
978.5689	2516.596	1548.85	665.45
978.6964	2517.9275	1544.35	659.45
978.8239	2519.2583	1537.3	652.6
978.9513	2520.5884	1540.65	655.4
979.0788	2521.9178	1546.9	664.3
979.2062	2523.2465	1535.6	654.2
979.3335	2524.5745	1541	658.55
979.4608	2525.9018	1533.3	649.6
979.5881	2527.2284	1534	653.85
979.7154	2528.5543	1532.8	651.55
979.8426	2529.8796	1527.65	642.95
979.9698	2531.2041	1530.7	649.65
980.0969	2532.5279	1533.05	651.95
980.224	2533.851	1527.1	645.7
980.3511	2535.1735	1525.15	642.55
980.4781	2536.4952	1525.95	642.9
980.6052	2537.8163	1528.2	645.45
980.7321	2539.1366	1515.5	633.35
980.8591	2540.4562	1516.15	632.4
980.986	2541.7752	1517.6	635.6
981.1129	2543.0935	1512.55	631.6
981.2397	2544.411	1516.85	633.85
981.3665	2545.7279	1513	630.95
981.4933	2547.0441	1521.45	637.65
981.62	2548.3596	1510.9	628.4
981.7467	2549.6744	1512.25	629.45
981.8734	2550.9885	1506.95	623.2
982.0001	2552.3019	1500.15	619.45
982.1267	2553.6146	1505.35	622.05
982.2532	2554.9266	1504.8	620
982.3798	2556.2379	1494.25	609.6
982.5063	2557.5485	1502.65	620.95
982.6327	2558.8585	1511.3	619.95
982.7592	2560.1677	1504.6	618.35
982.8856	2561.4762	1500.05	617.95
983.0119	2562.7841	1500.15	615.45
983.1383	2564.0913	1494.1	614.05
983.2646	2565.3977	1495.8	613.8
983.3908	2566.7035	1488.95	605.3
983.517	2568.0086	1491.2	607.5
983.6432	2569.313	1489.6	605.25
983.7694	2570.6167	1491.15	604.8
983.8955	2571.9197	1485.1	604.65
984.0216	2573.222	1491.05	603.55
984.1476	2574.5236	1487.95	605
984.2737	2575.8246	1481.5	593.7
984.3996	2577.1248	1493.2	606.7
984.5256	2578.4244	1487.25	603.8
984.6515	2579.7232	1487.4	603.7
984.7774	2581.0214	1515.4	599.95
984.9032	2582.3189	1480.9	600.25
985.029	2583.6157	1482.9	594.5
985.1548	2584.9118	1485.5	603.35
985.2806	2586.2072	1489.15	606.5
985.4063	2587.5019	1489.6	606.95
985.5319	2588.7959	1481.9	598
985.6576	2590.0893	1496.55	611.8
985.7832	2591.3819	1491.25	609.7
985.9087	2592.6739	1484.95	605.3
986.0343	2593.9652	1490.35	606.95
986.1597	2595.2557	1493.9	611.2
986.2852	2596.5456	1495.35	608.3
986.4106	2597.8348	1491.9	609.05
986.536	2599.1234	1488.25	604.5
986.6614	2600.4112	1485.1	603.85
986.7867	2601.6983	1497.7	612.45
986.912	2602.9848	1494	610
987.0372	2604.2705	1494.1	607.1
987.1624	2605.5556	1491.7	610.35
987.2876	2606.84	1489.45	606
987.4128	2608.1237	1485.55	603.35
987.5379	2609.4067	1476	591.4
987.6629	2610.689	1487.95	598.05
987.788	2611.9707	1480	589.75
987.913	2613.2516	1474.85	586.75
988.0379	2614.5319	1469.3	588.6
988.1629	2615.8115	1464.65	582.8
988.2878	2617.0903	1462.3	578.3
988.4126	2618.3685	1460.3	578.5
988.5375	2619.6461	1470.65	586.65
988.6622	2620.9229	1470.85	588.9
988.787	2622.199	1472.2	586.75
988.9117	2623.4745	1468.4	585.8
989.0364	2624.7493	1463.35	579.7
989.161	2626.0234	1462.3	580.4
989.2857	2627.2968	1461.4	579.95
989.4102	2628.5695	1472.75	586.05
989.5348	2629.8415	1466.4	585.55
989.6593	2631.1128	1468.65	584.55
989.7837	2632.3835	1465.65	584.25
989.9082	2633.6535	1460.15	577.2
990.0326	2634.9228	1459.65	576.3
990.1569	2636.1914	1461.65	579.75
990.2812	2637.4593	1461.95	579.55
990.4055	2638.7265	1464.2	579.3
990.5298	2639.9931	1457.1	575.5
990.654	2641.259	1458.05	573.9
990.7782	2642.5242	1447.05	563.15
990.9023	2643.7887	1453.55	570
991.0264	2645.0525	1444.8	560.85
991.1505	2646.3156	1447.55	564.8
991.2745	2647.5781	1442.6	561.5
991.3985	2648.8398	1448.2	566.5
991.5225	2650.1009	1479.4	560
991.6464	2651.3613	1437.4	554.25
991.7703	2652.6211	1437.7	556.4
991.8942	2653.8801	1439.05	556.85
992.018	2655.1385	1437.75	551.6
992.1418	2656.3961	1440.65	557.3
992.2655	2657.6531	1440.45	556.1
992.3892	2658.9094	1437.6	556.2
992.5129	2660.1651	1436.95	554.15
992.6366	2661.42	1439.7	556.7
992.7602	2662.6743	1448.5	564.75
992.8837	2663.9279	1443.5	561.05
993.0073	2665.1808	1434.8	552.45
993.1307	2666.433	1446.7	562.3
993.2542	2667.6846	1453.75	571.55
993.3776	2668.9354	1447.25	560.55
993.501	2670.1856	1455.45	571.65
993.6244	2671.4351	1450.9	569.3
993.7477	2672.6839	1454.5	571.25
993.8709	2673.9321	1456.35	574.2
993.9942	2675.1795	1459	578.25
994.1174	2676.4263	1459.1	575.7
994.2405	2677.6724	1465.85	583.15
994.3637	2678.9179	1466.65	582.55
994.4868	2680.1626	1462.75	580.35
994.6098	2681.4067	1465.35	582.05
994.7328	2682.6501	1463.75	579.05
994.8558	2683.8928	1464.3	580.8
994.9788	2685.1348	1452.75	568.9
995.1017	2686.3761	1460.2	576.95
995.2245	2687.6168	1445.05	565.15
995.3474	2688.8568	1444.5	561.95
995.4702	2690.0961	1441.8	561.5
995.5929	2691.3348	1441.8	560
995.7156	2692.5727	1430.95	546.65
995.8383	2693.81	1438.85	554.9
995.961	2695.0466	1430.35	548.5
996.0836	2696.2826	1433.6	549.25
996.2062	2697.5178	1445.8	558.85
996.3287	2698.7524	1436.35	552.3
996.4512	2699.9863	1442.1	558.55
996.5737	2701.2195	1441.35	559.05
996.6961	2702.452	1438.85	555
996.8185	2703.6839	1446.15	562.65
996.9408	2704.9151	1450.95	568.2
997.0631	2706.1456	1450.05	566.05
997.1854	2707.3755	1458.55	575.5
997.3077	2708.6046	1466.6	579.95
997.4299	2709.8331	1471.65	588.5
997.552	2711.0609	1475.35	590.4
997.6742	2712.2881	1488.1	606.9
997.7963	2713.5145	1495.75	610.1
997.9183	2714.7403	1509	625.25
998.0403	2715.9654	1512.25	628.15
998.1623	2717.1899	1542.75	644.35
998.2842	2718.4136	1535.7	653.15
998.4062	2719.6367	1551.7	667.6
998.528	2720.8591	1567.5	676.35
998.6498	2722.0809	1572.55	689.35
998.7716	2723.3019	1577.55	690.95
998.8934	2724.5223	1584.25	700.4
999.0151	2725.7421	1600.6	717.45
999.1368	2726.9611	1600.6	714.3
999.2584	2728.1795	1597	708.4
999.38	2729.3972	1591.8	709.25
999.5016	2730.6142	1585.2	688.25
999.6231	2731.8306	1560.75	676.45
999.7446	2733.0462	1548.15	663.15
999.8661	2734.2612	1538.5	650.9
999.9875	2735.4756	1521.35	636.6
1000.1089	2736.6892	1500.4	619.45
1000.2302	2737.9022	1475.85	593.7
1000.3515	2739.1145	1473.1	588.35
1000.4728	2740.3262	1471.6	580.9
1000.594	2741.5372	1453.25	569.9
1000.7152	2742.7475	1441.4	556
1000.8363	2743.9571	1431.3	545.7
1000.9575	2745.1661	1430.85	543.65
1001.0785	2746.3744	1408.8	523.7
1001.1996	2747.582	1402.7	517.5
1001.3206	2748.7889	1397.95	513.15
1001.4415	2749.9952	1391.05	507.45
1001.5625	2751.2008	1387.25	502.6
1001.6833	2752.4057	1382.5	499.65
1001.8042	2753.61	1375.7	490.75
1001.925	2754.8136	1382.1	498.1
1002.0458	2756.0165	1367.5	485.65
1002.1665	2757.2188	1365.65	484.35
1002.2872	2758.4204	1371.1	488.7
1002.4078	2759.6213	1362.95	477.5
1002.5285	2760.8215	1376	484.65
1002.649	2762.0211	1376	489.1
1002.7696	2763.22	1370.1	484.25
1002.8901	2764.4182	1371.35	486.1
1003.0106	2765.6158	1368.25	484.7
1003.131	2766.8127	1360.7	478.4
1003.2514	2768.009	1351.5	467.7
1003.3717	2769.2045	1353.15	470.3
1003.492	2770.3994	1358.65	472.75
1003.6123	2771.5936	1352.15	468.15
1003.7325	2772.7872	1344.75	463.95
1003.8527	2773.9801	1351.3	465.65
1003.9729	2775.1723	1365.1	465
1004.093	2776.3639	1344.25	461.55
1004.2131	2777.5548	1346.35	460.95
1004.3331	2778.745	1353.55	468.95
1004.4531	2779.9346	1353.4	469.4
1004.5731	2781.1235	1347.9	462.35
1004.693	2782.3117	1350.2	466.3
1004.8129	2783.4992	1358.45	476.6
1004.9328	2784.6861	1362.4	480
1005.0526	2785.8723	1368.75	486
1005.1723	2787.0579	1376.1	492.65
1005.2921	2788.2428	1390.35	505.55
1005.4118	2789.427	1384	503.5
1005.5314	2790.6106	1400.5	517
1005.651	2791.7935	1409.75	527.2
1005.7706	2792.9757	1420.15	537.25
1005.8902	2794.1573	1426.2	541.6
1006.0097	2795.3382	1444.5	561.8
1006.1291	2796.5184	1455.1	574.2
1006.2485	2797.698	1476.05	590.05
1006.3679	2798.8769	1486.55	603.6
1006.4873	2800.0551	1507.15	624.5
1006.6066	2801.2327	1521.65	636.25
1006.7258	2802.4096	1533.4	652.55
1006.8451	2803.5859	1562.5	678.2
1006.9642	2804.7615	1580.25	696.5
1007.0834	2805.9364	1610.65	729.25
1007.2025	2807.1106	1636.25	754
1007.3216	2808.2842	1661.85	779
1007.4406	2809.4572	1691	807.4
1007.5596	2810.6294	1730.9	846.05
1007.6785	2811.801	1762.9	881.65
1007.7975	2812.972	1807.4	924.4
1007.9163	2814.1423	1849.85	967.6
1008.0352	2815.3119	1899.5	1016.5
1008.154	2816.4808	1942.9	1062.9
1008.2727	2817.6491	1996.35	1113.25
1008.3914	2818.8167	2051.7	1170.25
1008.5101	2819.9837	2102	1213.25
1008.6288	2821.15	2149.7	1267
1008.7474	2822.3157	2200.75	1319.65
1008.8659	2823.4807	2245.55	1362.55
1008.9844	2824.645	2302.75	1419.1
1009.1029	2825.8086	2323.75	1441.4
1009.2214	2826.9716	2378.35	1495.65
1009.3398	2828.134	2431.85	1548.5
1009.4581	2829.2957	2463.95	1580.75
1009.5764	2830.4567	2502.9	1620.4
1009.6947	2831.617	2513.15	1631.55
1009.813	2832.7767	2526	1645
1009.9312	2833.9358	2526.6	1643.8
1010.0493	2835.0941	2527.95	1643.5
1010.1675	2836.2519	2496.15	1614.2
1010.2855	2837.4089	2490.35	1606.1
1010.4036	2838.5653	2486.2	1601.75
1010.5216	2839.7211	2472	1589.45
1010.6396	2840.8761	2481.5	1597.4
1010.7575	2842.0306	2502.6	1624.1
1010.8754	2843.1843	2538.45	1655.65
1010.9932	2844.3374	2576.7	1693.8
1011.111	2845.4899	2636.8	1753
1011.2288	2846.6417	2698.25	1816.35
1011.3465	2847.7928	2769.45	1886.85
1011.4642	2848.9433	2847.6	1965.45
1011.5818	2850.0931	2933.9	2051.3
1011.6995	2851.2422	3017.7	2133.65
1011.817	2852.3907	3067	2184.6
1011.9345	2853.5385	3137.4	2253.6
1012.052	2854.6857	3218.5	2308.5
1012.1695	2855.8323	3250.95	2368.3
1012.2869	2856.9781	3294.85	2412
1012.4042	2858.1233	3348.7	2465.85
1012.5216	2859.2679	3404.55	2520.95
1012.6389	2860.4118	3438.15	2553.95
1012.7561	2861.555	3496.7	2607.45
1012.8733	2862.6976	3532.65	2648.15
1012.9905	2863.8395	3561.15	2679.75
1013.1076	2864.9808	3577.4	2695.65
1013.2247	2866.1214	3601.2	2720.3
1013.3417	2867.2614	3612	2728.85
1013.4587	2868.4007	3630.75	2745.85
1013.5757	2869.5393	3648.6	2766.75
1013.6926	2870.6773	3647.4	2761.25
1013.8095	2871.8146	3669.2	2783.6
1013.9263	2872.9513	3664.55	2777.7
1014.0431	2874.0874	3660.85	2778.1
1014.1599	2875.2227	3673.9	2788.9
1014.2766	2876.3574	3648.3	2765.5
1014.3933	2877.4915	3618.6	2736.9
1014.51	2878.6249	3591.05	2709.05
1014.6266	2879.7577	3570.35	2686.6
1014.7431	2880.8898	3572.7	2677.8
1014.8596	2882.0212	3527.55	2646.8
1014.9761	2883.152	3516.75	2634.2
1015.0925	2884.2821	3508.4	2625.3
1015.2089	2885.4116	3509.1	2627.95
1015.3253	2886.5405	3494.7	2612.85
1015.4416	2887.6686	3502.4	2617.85
1015.5579	2888.7962	3513.05	2630.7
1015.6741	2889.923	3522.5	2640.45
1015.7903	2891.0493	3536.6	2654.85
1015.9065	2892.1748	3547.95	2664.8
1016.0226	2893.2997	3565.75	2681.4
1016.1387	2894.424	3564.3	2682.8
1016.2547	2895.5476	3574.1	2689.75
1016.3707	2896.6706	3612.85	2729.45
1016.4866	2897.7929	3637	2753.85
1016.6025	2898.9145	3668.4	2785.35
1016.7184	2900.0355	3690.15	2806.7
1016.8342	2901.1559	3725.25	2840.05
1016.95	2902.2756	3759.5	2878.8
1017.0658	2903.3946	3789.05	2905.7
1017.1815	2904.513	3828.3	2942.5
1017.2971	2905.6308	3847.85	2964.3
1017.4127	2906.7479	3876.75	2993.2
1017.5283	2907.8643	3910.1	3025.8
1017.6439	2908.9801	3914.25	3030.2
1017.7594	2910.0953	3909.75	3026.85
1017.8748	2911.2098	3922.25	3034.8
1017.9902	2912.3236	3923.8	3033.5
1018.1056	2913.4368	3912.3	3027.8
1018.2209	2914.5494	3904.65	3021.95
1018.3362	2915.6613	3868.05	2980.85
1018.4515	2916.7725	3835	2949.05
1018.5667	2917.8831	3809.1	2924.1
1018.6819	2918.9931	3781	2896
1018.797	2920.1024	3752.95	2867.6
1018.9121	2921.211	3724.05	2840.8
1019.0271	2922.319	3700.75	2818.55
1019.1421	2923.4264	3694.85	2813.2
1019.2571	2924.5331	3677.15	2794.05
1019.372	2925.6391	3652.15	2771.25
1019.4869	2926.7445	3649.4	2768.2
1019.6017	2927.8493	3647	2764.55
1019.7165	2928.9534	3657.8	2774.1
1019.8313	2930.0569	3662.2	2775.4
1019.946	2931.1597	3648.15	2764
1020.0606	2932.2619	3626.9	2743.9
1020.1753	2933.3634	3622.15	2737.9
1020.2899	2934.4643	3628.4	2738.45
1020.4044	2935.5645	3599.95	2711.7
1020.5189	2936.6641	3581.6	2693.7
1020.6334	2937.763	3536.55	2655.35
1020.7478	2938.8613	3496.35	2613.65
1020.8622	2939.959	3429.75	2541.3
1020.9765	2941.056	3356.75	2476.15
1021.0908	2942.1523	3286.05	2400.85
1021.2051	2943.248	3189.65	2306.55
1021.3193	2944.3431	3093.45	2210.55
1021.4334	2945.4375	3008.95	2126.1
1021.5476	2946.5313	2898.3	2016.65
1021.6617	2947.6244	2793.1	1909.45
1021.7757	2948.7169	2697.6	1814.4
1021.8897	2949.8087	2592.6	1708.65
1022.0037	2950.8999	2516.05	1633.7
1022.1176	2951.9904	2425.05	1541.9
1022.2315	2953.0803	2356.65	1473.2
1022.3453	2954.1696	2290.7	1407.9
1022.4591	2955.2582	2233.6	1351.95
1022.5728	2956.3462	2186.7	1302.15
1022.6865	2957.4335	2146.4	1262.95
1022.8002	2958.5202	2117.3	1230.6
1022.9138	2959.6062	2093.5	1211
1023.0274	2960.6916	2059.95	1177.85
1023.141	2961.7764	2037.7	1152.65
1023.2545	2962.8605	2029.5	1146.65
1023.3679	2963.9439	2019.45	1137.4
1023.4813	2965.0267	1997.05	1112.85
1023.5947	2966.1089	2012.95	1108.3
1023.708	2967.1905	1987.75	1105.65
1023.8213	2968.2714	1991.5	1108.4
1023.9346	2969.3516	1994.95	1112.2
1024.0478	2970.4312	2000.4	1110.15
1024.1609	2971.5102	1995.15	1113.9
1024.274	2972.5885	1987.8	1105.85
1024.3871	2973.6662	1995.9	1108.75
1024.5002	2974.7432	1992.65	1108.65
1024.6132	2975.8196	1990	1109.8
1024.7261	2976.8954	1975.3	1095.7
1024.839	2977.9705	1966.55	1083.7
1024.9519	2979.045	1957.5	1075.35
1025.0647	2980.1188	1937.5	1055.7
1025.1775	2981.192	1921.75	1040.8
1025.2902	2982.2645	1903.95	1020.25
1025.4029	2983.3364	1874.65	991.7
1025.5156	2984.4077	1847.05	964.95
1025.6282	2985.4783	1822.55	933.9
1025.7407	2986.5483	1788.15	905.75
1025.8532	2987.6177	1754.05	871.95
1025.9657	2988.6864	1712.5	827.55
1026.0782	2989.7545	1682.55	798.7
1026.1906	2990.8219	1655.3	772.6
1026.3029	2991.8887	1609.85	726.55
1026.4152	2992.9548	1583.05	698.95
1026.5275	2994.0204	1560.95	680.8
1026.6397	2995.0852	1529.55	649.25
1026.7519	2996.1495	1509.85	625.4
1026.864	2997.2131	1475.45	591.55
1026.9761	2998.276	1455.85	572
1027.0882	2999.3383	1430.9	548.75
1027.2002	3000.4	1418.95	535.7
1027.3122	3001.4611	1401.75	520.1
1027.4241	3002.5215	1393.5	509.4
1027.536	3003.5812	1368.75	487
1027.6478	3004.6404	1354.4	472.25
1027.7596	3005.6989	1353.75	469.45
1027.8714	3006.7567	1345.6	464.2
1027.9831	3007.8139	1357.9	446.9
1028.0947	3008.8705	1329.4	445.15
1028.2064	3009.9264	1338.15	438.85
1028.3179	3010.9818	1313.85	432.05
1028.4295	3012.0364	1305.65	421.75
1028.541	3013.0905	1307.6	424.15
1028.6524	3014.1439	1305.3	423.15
1028.7638	3015.1966	1297.3	412.75
1028.8752	3016.2487	1306.45	422.3
1028.9865	3017.3002	1302.6	416.65
1029.0978	3018.3511	1295.8	415.15
1029.209	3019.4013	1298.4	415.6
1029.3202	3020.4509	1300.6	417.9
1029.4314	3021.4998	1292.8	409.65
1029.5425	3022.5481	1300.3	418.9
1029.6535	3023.5958	1301.7	418.15
1029.7645	3024.6428	1303.3	422.2
1029.8755	3025.6892	1306.35	425.5
1029.9864	3026.735	1308.2	425.15
1030.0973	3027.7802	1303.65	420.95
1030.2082	3028.8247	1296.6	412.75
1030.319	3029.8685	1303.35	420.75
1030.4297	3030.9118	1319.1	433.5
1030.5404	3031.9544	1318.75	439.05
1030.6511	3032.9963	1316.1	434.9
1030.7617	3034.0376	1321.15	438.6
1030.8723	3035.0783	1334	449.1
1030.9829	3036.1184	1336.65	452.85
1031.0934	3037.1578	1335.65	451.9
1031.2038	3038.1966	1341.65	456.35
1031.3142	3039.2348	1337	453.65
1031.4246	3040.2723	1353.15	463.95
1031.5349	3041.3092	1339.75	458.25
1031.6452	3042.3455	1331.05	449.5
1031.7554	3043.3811	1334.15	452.65
1031.8656	3044.4161	1326.95	444.5
1031.9758	3045.4505	1326.25	445.55
1032.0859	3046.4842	1321.25	437.2
1032.1959	3047.5173	1310.85	429.25
1032.3059	3048.5498	1309.3	426
1032.4159	3049.5816	1307.65	424.7
1032.5258	3050.6128	1304	421
1032.6357	3051.6434	1295.25	410.5
1032.7455	3052.6734	1284.15	402.3
1032.8553	3053.7027	1280.8	396.4
1032.9651	3054.7314	1272.7	391.65
1033.0748	3055.7594	1268.6	386.9
1033.1845	3056.7868	1266.4	381.15
1033.2941	3057.8136	1264	381.4
1033.4037	3058.8398	1255.2	374.15
1033.5132	3059.8653	1258.2	376
1033.6227	3060.8902	1251.65	370.45
1033.7321	3061.9145	1245.7	362.2
1033.8415	3062.9381	1241.25	359.55
1033.9509	3063.9612	1251.5	354.05
1034.0602	3064.9835	1235.5	352.1
1034.1694	3066.0053	1227.9	343.05
1034.2787	3067.0264	1218.6	333.8
1034.3878	3068.0469	1210.7	326.65
1034.497	3069.0668	1209.65	325.2
1034.6061	3070.086	1197.35	314.65
1034.7151	3071.1046	1195.5	311.35
1034.8241	3072.1226	1185.9	302.45
1034.9331	3073.1399	1172.5	292.65
1035.042	3074.1567	1170	287.15
1035.1508	3075.1727	1158.7	273.7
1035.2597	3076.1882	1148.85	266.4
1035.3684	3077.203	1139.25	256
1035.4772	3078.2173	1131.45	247.8
1035.5859	3079.2308	1125.9	240.05
1035.6945	3080.2438	1121.75	235.35
1035.8031	3081.2561	1112.75	231.25
1035.9117	3082.2678	1101.05	219.95
1036.0202	3083.2789	1099.45	217.4
1036.1286	3084.2893	1090.9	210.35
1036.2371	3085.2991	1086.45	204.1
1036.3454	3086.3083	1086.05	201.4
1036.4538	3087.3169	1081.75	198.45
1036.562	3088.3248	1078.95	195.35
1036.6703	3089.3321	1073.45	189.1
1036.7785	3090.3388	1060.95	179
1036.8866	3091.3449	1063.35	181.15
1036.9948	3092.3503	1055.75	171.5
1037.1028	3093.3551	1053.8	173.9
1037.2108	3094.3593	1050.1	168.85
1037.3188	3095.3629	1047.85	164.7
1037.4267	3096.3658	1042.85	161.65
1037.5346	3097.3681	1044.9	163
1037.6425	3098.3698	1040.9	156.95
1037.7503	3099.3708	1047.35	158.7
1037.858	3100.3713	1037.25	154.1
1037.9657	3101.3711	1035.7	150.6
1038.0734	3102.3702	1170	146.7
1038.181	3103.3688	1031.75	147.4
1038.2886	3104.3667	1027.7	148.25
1038.3961	3105.364	1022.85	141.4
1038.5036	3106.3607	1026.05	143.45
1038.611	3107.3568	1023	140.3
1038.7184	3108.3522	1018.6	136.95
1038.8257	3109.347	1018.15	135.1
1038.933	3110.3412	1025.05	138.15
1039.0403	3111.3348	1016.85	134.2
1039.1475	3112.3277	1014	131.2
1039.2547	3113.32	1010.2	127.8
1039.3618	3114.3117	1013.45	129.45
1039.4689	3115.3028	1009.75	128.45
1039.5759	3116.2932	1013.9	128.6
1039.6829	3117.2831	1016.4	129.9
1039.7898	3118.2723	1006.65	124.6
1039.8967	3119.2608	1005.1	122.4
1040.0035	3120.2488	1007.35	124.8
1040.1103	3121.2361	1002.9	119.95
1040.2171	3122.2229	1002.95	121.9
1040.3238	3123.209	1005.15	123.1
1040.4305	3124.1944	1002.75	121.5
1040.5371	3125.1793	1000.45	116.8
1040.6437	3126.1635	999.75	117.55
1040.7502	3127.1471	995.15	113.9
1040.8567	3128.1301	995.4	113.8
1040.9631	3129.1125	995.5	115.15
1041.0695	3130.0942	995.85	114.15
1041.1759	3131.0753	1003.1	110.7
1041.2822	3132.0558	997.5	114.55
1041.3884	3133.0357	993.3	109.55
1041.4946	3134.015	993.7	109.8
1041.6008	3134.9936	989.7	106.7
1041.7069	3135.9716	1012.35	109.2
1041.813	3136.949	987.5	104.8
1041.919	3137.9258	1006.7	106.7
1042.025	3138.902	991.1	102.35
1042.1309	3139.8775	986.5	102.85
1042.2368	3140.8524	982.4	99.75
1042.3427	3141.8267	984.8	99.8
1042.4485	3142.8004	984.9	101.1
1042.5542	3143.7735	987.05	98
1042.6599	3144.7459	980.75	98
1042.7656	3145.7178	983.6	100.1
1042.8712	3146.689	975.1	94.85
1042.9768	3147.6596	979.1	94.6
1043.0823	3148.6295	980.3	98.1
1043.1878	3149.5989	973.3	93.15
1043.2932	3150.5676	973	92.1
1043.3986	3151.5357	969.95	88.8
1043.5039	3152.5032	971.4	92.15
1043.6092	3153.4701	969.9	89.1
1043.7145	3154.4364	971.05	87.2
1043.8197	3155.402	969.75	87.85
1043.9248	3156.367	973.05	87
1044.03	3157.3315	1005.25	86.5
1044.135	3158.2952	967.05	83.9
1044.24	3159.2584	965.75	83.35
1044.345	3160.221	967.4	83.05
1044.4499	3161.1829	968.4	87
1044.5548	3162.1442	963.3	82.2
1044.6596	3163.105	962.65	80.1
1044.7644	3164.065	961.45	79.6
1044.8692	3165.0245	966.35	80.65
1044.9739	3165.9834	961.25	82.95
1045.0785	3166.9416	960.25	78.3
1045.1831	3167.8993	958.5	74.75
1045.2877	3168.8563	962.1	79.55
1045.3922	3169.8127	963.05	82.2
1045.4966	3170.7684	961.35	80.7
1045.6011	3171.7236	959.85	76.7
1045.7054	3172.6782	957.9	75.2
1045.8098	3173.6321	961.4	78.4
1045.914	3174.5854	961.65	74.3
1046.0183	3175.5381	960.6	80.05
1046.1224	3176.4902	956.5	75.45
1046.2266	3177.4417	956.8	75.85
1046.3307	3178.3926	955.05	74.85
1046.4347	3179.3428	955.65	76.3
1046.5387	3180.2924	953.5	72.75
1046.6427	3181.2415	955.9	74.5
1046.7466	3182.1899	957.65	73.7
1046.8504	3183.1377	954.2	73.45
1046.9542	3184.0848	958.9	73.85
1047.058	3185.0314	950.95	66.85
1047.1617	3185.9773	951.8	68.75
1047.2654	3186.9227	955	73.55
1047.369	3187.8674	953.3	69.8
1047.4726	3188.8115	955.1	67.9
1047.5761	3189.755	951.9	71.7
1047.6796	3190.6979	952.15	71.1
1047.783	3191.6402	949.65	68.2
1047.8864	3192.5818	949.5	67.05
1047.9898	3193.5229	970.8	66.1
1048.0931	3194.4633	949.8	68.4
1048.1963	3195.4031	948	65.35
1048.2995	3196.3423	949.35	68.95
1048.4027	3197.2809	946.9	65.9
1048.5058	3198.2189	947.5	66.85
1048.6089	3199.1563	961.1	64.4
1048.7119	3200.0931	947.95	68.45
1048.8148	3201.0292	948.25	66.9
1048.9178	3201.9648	943	59.85
1049.0206	3202.8997	948.7	63.2
1049.1235	3203.834	946.5	63.35
1049.2262	3204.7677	942.35	60.6
1049.329	3205.7008	942.9	58.45
1049.4317	3206.6333	944.35	66.6
1049.5343	3207.5652	946	60.95
1049.6369	3208.4964	942.55	59.25
1049.7394	3209.4271	946.3	66.55
1049.8419	3210.3571	941.85	59.65
1049.9444	3211.2865	945.25	62.4
1050.0468	3212.2154	940.9	59.3
1050.1491	3213.1436	946.55	62.55
1050.2514	3214.0712	947.6	60.05
1050.3537	3214.9982	942.1	61.1
1050.4559	3215.9246	940.75	58.05
1050.5581	3216.8503	940.8	59.7
1050.6602	3217.7755	943.5	62.15
1050.7623	3218.7001	942.3	61.5
1050.8643	3219.624	940.55	58.4
1050.9663	3220.5473	938.35	58.45
1051.0682	3221.4701	940.5	56.1
1051.1701	3222.3922	938.55	56.35
1051.2719	3223.3137	938.7	57.25
1051.3737	3224.2346	939.45	56.3
1051.4754	3225.1549	937.95	58.15
1051.5771	3226.0746	937.1	54.6
1051.6788	3226.9937	938.4	56.4
1051.7804	3227.9121	935.95	54.9
1051.8819	3228.83	935.05	53.85
1051.9834	3229.7473	940.5	58.5
1052.0849	3230.6639	936.4	55.85
1052.1863	3231.5799	936.25	55.7
1052.2876	3232.4954	933.6	49.75
1052.3889	3233.4102	935.35	54.7
1052.4902	3234.3244	935.25	53.45
1052.5914	3235.238	932.4	51.05
1052.6926	3236.151	958.2	53.15
1052.7937	3237.0634	937.7	57.75
1052.8948	3237.9752	935.5	54.3
1052.9958	3238.8864	933.25	48.5
1053.0968	3239.797	934	53.5
1053.1977	3240.7069	932.75	49
1053.2986	3241.6163	934.75	52.3
1053.3994	3242.5251	930.8	51.65
1053.5002	3243.4332	931	50
1053.6009	3244.3408	933.15	51.55
1053.7016	3245.2477	930.85	50.2
1053.8022	3246.154	929.8	46.05
1053.9028	3247.0598	931.5	50.5
1054.0034	3247.9649	928.95	45.1
1054.1039	3248.8694	929.3	47.55
1054.2043	3249.7733	931.1	49.6
1054.3047	3250.6766	928.65	45.65
1054.4051	3251.5793	927.8	45.75
1054.5054	3252.4814	926.75	47
1054.6056	3253.3829	928.1	46.7
1054.7058	3254.2838	926.5	45.9
1054.806	3255.1841	922.7	41.75
1054.9061	3256.0838	925	44.5
1055.0061	3256.9829	924.85	43.45
1055.1062	3257.8814	925	42.3
1055.2061	3258.7792	924.6	40.35
1055.306	3259.6765	922.05	39.6
1055.4059	3260.5731	921.8	40.25
1055.5057	3261.4692	923.15	40.75
1055.6055	3262.3647	923.85	41.3
1055.7052	3263.2595	920.85	40.6
1055.8049	3264.1538	921.8	40.4
1055.9045	3265.0474	920.5	40.05
1056.0041	3265.9404	917.1	36.95
1056.1036	3266.8329	918.4	37.05
1056.2031	3267.7247	928.35	35.4
1056.3025	3268.616	915.8	34.95
1056.4019	3269.5066	915	33.45
1056.5013	3270.3966	917.65	34.9
1056.6005	3271.286	911.2	30.1
