Software Version:	3.9.2.0
Unit SN:	10000200
Spectrometer SN:	6960
Date:	3/14/2024 12:36:06 PM
Data Line Index:	25
Spectral Points:	2048
Integration time (ms):	125
Averages:	20
Delay (ms):	30000
Sequence Number:	1
Processing:	dark subtract
Laser Power (mW):	300
Laser Current (mA):	823
Laser Diode Temp (C):	25.1
Laser Case Temp (C):	26.6
System Temp (C):	26.6
Spectrometer Temp (C):	24.2
CCD Temp (C):	0.005
Secondary Temp (C):	20.004
Heatsink Temp (C):	22.926
CCDPCB Temp (C):	36.696
SecondaryPCB Temp (C):	34.017

Wavelength	RamanShift	Raw Counts	Dark Subtracted
787.061	30.1047	416.65	5.15
787.2016	32.3739	415.9	6.65
787.3422	34.6426	416.85	6.25
787.4828	36.9109	420.15	8.25
787.6235	39.1787	424.8	7.2
787.7642	41.4461	429.25	8.55
787.9049	43.7131	435.3	9.65
788.0456	45.9796	438.6	9.7
788.1863	48.2456	442.55	11.05
788.3271	50.5112	447.2	8.65
788.4679	52.7764	448.5	8.5
788.6087	55.0411	454.8	11.95
788.7496	57.3054	460.95	13.65
788.8904	59.5692	461.65	12.2
789.0313	61.8326	467	13.8
789.1722	64.0955	472.55	16.25
789.3132	66.3579	482.45	19.5
789.4541	68.6199	485	20.75
789.5951	70.8815	493.8	27.5
789.7361	73.1426	510.4	39.9
789.8771	75.4032	541.1	64.95
790.0181	77.6634	607.4	129.45
790.1592	79.9231	754.75	269.65
790.3003	82.1824	1064.15	574.9
790.4414	84.4412	1589.65	1096
790.5825	86.6995	2274.8	1773.25
790.7237	88.9574	2938.75	2428.15
790.8648	91.2148	3409.65	2896
791.006	93.4717	3642.35	3125.85
791.1472	95.7282	3700.1	3180.1
791.2885	97.9842	3717.95	3195.9
791.4297	100.2398	3697.8	3174.6
791.571	102.4949	3670	3141.15
791.7123	104.7495	3638.5	3103.55
791.8536	107.0036	3616.6	3083.25
791.9949	109.2573	3574.8	3042.25
792.1363	111.5105	3503.45	2969.95
792.2777	113.7632	3451.35	2915.8
792.4191	116.0154	3376.2	2829.85
792.5605	118.2672	3320.05	2780.1
792.7019	120.5185	3244.75	2703.6
792.8434	122.7693	3184.65	2641.15
792.9849	125.0197	3116.9	2570.05
793.1264	127.2696	3041.1	2490.7
793.2679	129.519	3023.6	2472.65
793.4094	131.7679	2995.15	2442.55
793.551	134.0163	2981.8	2425.35
793.6926	136.2642	2970.2	2408.2
793.8342	138.5117	2976.6	2410.45
793.9758	140.7587	2954.65	2386.5
794.1175	143.0052	2943.65	2372.1
794.2591	145.2512	2889.55	2318.65
794.4008	147.4967	2851.15	2278.15
794.5425	149.7417	2813.65	2239.75
794.6842	151.9863	2795.25	2218.4
794.826	154.2304	2787.85	2208
794.9677	156.4739	2770.5	2183.4
795.1095	158.717	2777.15	2193.35
795.2513	160.9596	2786.25	2195.55
795.3931	163.2017	2803.85	2213.6
795.535	165.4433	2833.1	2237.55
795.6768	167.6844	2834.1	2235.95
795.8187	169.925	2817.4	2217.9
795.9606	172.1651	2778.45	2175.1
796.1025	174.4047	2741.55	2135.55
796.2445	176.6439	2706.7	2098.95
796.3864	178.8825	2681.65	2071.4
796.5284	181.1206	2668.25	2054.6
796.6704	183.3582	2659.2	2041.95
796.8124	185.5954	2660.55	2039.4
796.9544	187.832	2650.45	2024.95
797.0965	190.0681	2646.5	2022.15
797.2386	192.3037	2652.9	2023.5
797.3806	194.5388	2653.95	2020.55
797.5228	196.7734	2662.9	2029.85
797.6649	199.0075	2672.1	2032.75
797.807	201.2411	2691.15	2048.95
797.9492	203.4742	2709.2	2067.95
798.0914	205.7068	2719.65	2077.05
798.2336	207.9389	2754.85	2110.35
798.3758	210.1704	2743.35	2097.05
798.518	212.4015	2750.1	2097.5
798.6603	214.632	2750.95	2097.15
798.8025	216.862	2750.55	2103.95
798.9448	219.0915	2736.65	2099.15
799.0871	221.3205	2740.6	2104.65
799.2294	223.549	2739.1	2109.15
799.3718	225.777	2750.15	2120.55
799.5141	228.0044	2738.45	2106.25
799.6565	230.2314	2731.4	2102.45
799.7989	232.4578	2725.5	2093.6
799.9413	234.6837	2713.75	2074.95
800.0837	236.909	2700.05	2061.8
800.2262	239.1339	2711.15	2050.2
800.3687	241.3582	2693.4	2046.3
800.5111	243.582	2705.25	2030.15
800.6536	245.8053	2703.7	2037
800.7961	248.0281	2698.8	2037.35
800.9387	250.2503	2716.85	2051.45
801.0812	252.472	2720.45	2047.85
801.2238	254.6932	2721.55	2044.7
801.3664	256.9139	2721.7	2042.45
801.509	259.134	2732.8	2051.5
801.6516	261.3536	2736.4	2058.8
801.7942	263.5727	2757.8	2077.45
801.9369	265.7912	2788.6	2107.9
802.0795	268.0092	2832.45	2150
802.2222	270.2267	2870.8	2186
802.3649	272.4436	2906.25	2219.35
802.5076	274.6601	2935.45	2239.35
802.6504	276.8759	2944.95	2258.25
802.7931	279.0913	2951.45	2263.7
802.9359	281.3061	2963.35	2271.6
803.0787	283.5204	2986.8	2293.15
803.2215	285.7341	3013.75	2314.65
803.3643	287.9473	3035.9	2336.2
803.5071	290.16	3016.1	2312.95
803.6499	292.3721	2983.45	2284.8
803.7928	294.5837	2943.5	2241.8
803.9357	296.7947	2911.05	2208.9
804.0786	299.0052	2889.35	2189.1
804.2215	301.2152	2879.95	2175.7
804.3644	303.4246	2863.6	2162.85
804.5074	305.6334	2846.8	2144.05
804.6503	307.8418	2851.45	2142.2
804.7933	310.0495	2835.3	2130.65
804.9363	312.2568	2809.45	2104.75
805.0793	314.4635	2778.45	2072.15
805.2223	316.6696	2742.15	2033.05
805.3653	318.8752	2706.3	1986.75
805.5084	321.0802	2678.35	1970
805.6514	323.2847	2672.05	1961
805.7945	325.4887	2663.75	1950.5
805.9376	327.692	2666.25	1953.3
806.0807	329.8949	2706.65	1991.85
806.2238	332.0972	2744.9	2028.85
806.367	334.2989	2761.55	2041.05
806.5101	336.5001	2765.9	2044.35
806.6533	338.7007	2753.75	2033.65
806.7965	340.9008	2717.15	1995.85
806.9397	343.1003	2660.4	1934.25
807.0829	345.2992	2619.5	1894.5
807.2261	347.4976	2583.2	1856.05
807.3693	349.6955	2578.6	1846.5
807.5126	351.8927	2554.9	1823
807.6559	354.0895	2540.1	1798.5
807.7991	356.2856	2532.2	1798.45
807.9424	358.4812	2513.4	1782.2
808.0857	360.6763	2521	1785.55
808.2291	362.8707	2497.6	1762.9
808.3724	365.0646	2504.1	1765.25
808.5158	367.258	2510.45	1770.65
808.6591	369.4508	2515.7	1773.2
808.8025	371.643	2529.75	1788.65
808.9459	373.8346	2552.7	1806.65
809.0893	376.0257	2588.6	1836.7
809.2327	378.2162	2609	1857.05
809.3762	380.4062	2622.45	1868.55
809.5196	382.5956	2608.45	1853.8
809.6631	384.7844	2572.4	1821.05
809.8066	386.9726	2542.05	1785.55
809.9501	389.1603	2498.55	1743.15
810.0936	391.3474	2504.75	1723.05
810.2371	393.5339	2484.65	1726.25
810.3806	395.7199	2473.6	1720.9
810.5241	397.9052	2481.4	1730.2
810.6677	400.09	2515.4	1767.75
810.8113	402.2743	2553.4	1807.35
810.9548	404.4579	2567.6	1823.5
811.0984	406.641	2599.3	1852
811.2421	408.8235	2657.65	1908.65
811.3857	411.0054	2672	1922.55
811.5293	413.1868	2744.95	1991.1
811.673	415.3675	2816.5	2060.9
811.8166	417.5477	2837.15	2081.55
811.9603	419.7273	2779.05	2021.05
812.104	421.9064	2693.05	1926.7
812.2477	424.0848	2612.3	1851.9
812.3914	426.2627	2557.4	1789.75
812.5351	428.4399	2511.3	1743.85
812.6788	430.6166	2482.75	1711.75
812.8226	432.7928	2447.05	1674.7
812.9663	434.9683	2407.6	1634.8
813.1101	437.1432	2376.15	1602.8
813.2539	439.3176	2358.6	1586.3
813.3977	441.4914	2347.8	1573.8
813.5415	443.6645	2349.6	1570.3
813.6853	445.8371	2339.9	1561.25
813.8291	448.0091	2338.45	1560.3
813.973	450.1806	2341.35	1565.55
814.1168	452.3514	2331.8	1551.65
814.2607	454.5216	2336.6	1550.25
814.4046	456.6913	2334.85	1552.35
814.5485	458.8603	2326.7	1544.95
814.6924	461.0288	2334.65	1554.5
814.8363	463.1967	2332.65	1549.7
814.9802	465.3639	2340.8	1558.1
815.1241	467.5306	2314.4	1528.3
815.2681	469.6967	2314.6	1528.5
815.412	471.8622	2308.8	1524.6
815.556	474.0271	2291.4	1508.2
815.7	476.1914	2299.5	1513.7
815.844	478.3551	2286.95	1501.3
815.988	480.5182	2306.85	1519.25
816.132	482.6807	2298.2	1510.85
816.276	484.8426	2302.4	1514.25
816.4201	487.0039	2339.6	1549.6
816.5641	489.1647	2384.6	1595
816.7082	491.3248	2411.35	1621.75
816.8522	493.4843	2441.1	1651.65
816.9963	495.6432	2418.7	1628.3
817.1404	497.8015	2393.55	1598
817.2845	499.9592	2359.9	1568.75
817.4286	502.1163	2321.8	1530.25
817.5727	504.2728	2292.4	1497.7
817.7168	506.4287	2265	1470.4
817.861	508.5839	2255.75	1460.8
818.0051	510.7386	2251.35	1456.55
818.1493	512.8927	2255.85	1456.35
818.2935	515.0461	2258.35	1460.9
818.4377	517.199	2268.15	1471.7
818.5818	519.3512	2293.7	1498.15
818.726	521.5029	2357.9	1556.05
818.8703	523.6539	2387.15	1587.45
819.0145	525.8043	2395.6	1594.85
819.1587	527.9541	2364.65	1561.3
819.303	530.1033	2305.5	1504.35
819.4472	532.2519	2269.7	1467.6
819.5915	534.3999	2246.45	1442.5
819.7357	536.5472	2242.05	1439.95
819.88	538.694	2233.35	1431.55
820.0243	540.8401	2240	1433.6
820.1686	542.9856	2267.45	1462.05
820.3129	545.1305	2278.25	1471.8
820.4572	547.2748	2281.35	1474.25
820.6016	549.4185	2280	1470.35
820.7459	551.5615	2289.1	1480.9
820.8902	553.704	2293.9	1485.6
821.0346	555.8458	2298.65	1492.8
821.1789	557.987	2306.45	1498.4
821.3233	560.1276	2333	1525.4
821.4677	562.2675	2386.15	1577
821.6121	564.4069	2450.35	1640.35
821.7565	566.5456	2489.65	1680.9
821.9009	568.6837	2461.75	1650.7
822.0453	570.8212	2406.2	1596.55
822.1897	572.958	2329.25	1516.35
822.3342	575.0942	2302	1490.75
822.4786	577.2299	2283	1471.95
822.6231	579.3648	2253.35	1441.3
822.7675	581.4992	2228	1416.45
822.912	583.6329	2227.8	1415.85
823.0565	585.766	2238.6	1423.9
823.201	587.8985	2281.65	1469.25
823.3454	590.0304	2312.8	1486.65
823.4899	592.1616	2345.2	1529.9
823.6345	594.2922	2351	1539.1
823.779	596.4222	2322.55	1506.1
823.9235	598.5515	2264.85	1449.9
824.068	600.6802	2232.5	1419
824.2126	602.8083	2182.95	1364.8
824.3571	604.9358	2182	1361.6
824.5017	607.0626	2172.45	1352.1
824.6462	609.1888	2179.6	1358.55
824.7908	611.3144	2200.5	1379
824.9354	613.4393	2219	1400
825.08	615.5636	2263.2	1441.75
825.2246	617.6873	2290.3	1471.6
825.3692	619.8103	2318.75	1496.45
825.5138	621.9327	2335.5	1510.75
825.6584	624.0544	2304.9	1485.05
825.803	626.1756	2259.45	1436.05
825.9477	628.2961	2212.5	1388.1
826.0923	630.4159	2183.55	1359.95
826.237	632.5351	2183.25	1357.6
826.3816	634.6537	2191.9	1368.7
826.5263	636.7716	2177.4	1350.3
826.6709	638.8889	2170.35	1346.9
826.8156	641.0056	2169.9	1344.5
826.9603	643.1216	2183.4	1357.1
827.105	645.237	2187.6	1360
827.2497	647.3518	2180.8	1352.8
827.3944	649.4659	2164.4	1337.8
827.5391	651.5793	2145.2	1317.2
827.6838	653.6922	2118.7	1289.85
827.8285	655.8043	2115.7	1285.95
827.9733	657.9159	2107.6	1277.35
828.118	660.0268	2094.2	1260.95
828.2627	662.137	2083.7	1253.55
828.4075	664.2466	2099.3	1267
828.5522	666.3556	2102.45	1271.5
828.697	668.4639	2094.7	1261.35
828.8418	670.5716	2084.6	1252.9
828.9865	672.6786	2077.5	1246
829.1313	674.785	2071	1237.7
829.2761	676.8907	2065.55	1233.5
829.4209	678.9958	2067.65	1235.65
829.5657	681.1002	2068.7	1233.8
829.7105	683.204	2076.35	1240
829.8553	685.3072	2063.15	1228.2
830.0001	687.4097	2067.45	1233.6
830.1449	689.5115	2074.7	1238.35
830.2898	691.6127	2056.75	1222.2
830.4346	693.7132	2066.95	1230.05
830.5794	695.8131	2060.35	1213.15
830.7243	697.9123	2065.1	1227.2
830.8691	700.0109	2061.45	1225
831.014	702.1089	2072.55	1235.35
831.1588	704.2061	2083	1244.75
831.3037	706.3028	2096.35	1257.6
831.4486	708.3987	2113.7	1275.85
831.5935	710.4941	2125.35	1286.15
831.7383	712.5887	2136.55	1295.9
831.8832	714.6827	2135.6	1292.7
832.0281	716.7761	2117.7	1276.75
832.173	718.8688	2117.05	1275.7
832.3179	720.9608	2130.8	1287.25
832.4628	723.0522	2124.95	1280.25
832.6077	725.1429	2132.9	1293.3
832.7527	727.233	2161.7	1320.85
832.8976	729.3224	2209.35	1366.95
833.0425	731.4112	2245.5	1403.25
833.1874	733.4993	2268.05	1421.25
833.3324	735.5867	2242.35	1397.7
833.4773	737.6735	2196.9	1352.45
833.6222	739.7596	2150.4	1305.5
833.7672	741.845	2120.5	1276.5
833.9122	743.9298	2119.65	1270.6
834.0571	746.014	2120.05	1276.4
834.2021	748.0974	2127.85	1280.55
834.347	750.1802	2146.6	1300.85
834.492	752.2624	2127.65	1282.7
834.637	754.3439	2106.15	1260.4
834.782	756.4247	2098	1242.35
834.9269	758.5048	2099.1	1251.65
835.0719	760.5843	2102.55	1255.1
835.2169	762.6631	2119.7	1273.75
835.3619	764.7413	2153.8	1308.95
835.5069	766.8188	2229.1	1380.6
835.6519	768.8956	2272.1	1422.3
835.7969	770.9718	2337.35	1489.35
835.9419	773.0473	2315.2	1468.55
836.0869	775.1221	2278.45	1428.75
836.232	777.1962	2264.6	1415
836.377	779.2697	2314.4	1462.6
836.522	781.3426	2405.1	1542.9
836.667	783.4147	2452.95	1603.6
836.8121	785.4862	2452.6	1603.65
836.9571	787.557	2383.4	1533.3
837.1021	789.6271	2285.5	1435.55
837.2472	791.6966	2183.65	1333.25
837.3922	793.7654	2110.35	1259.55
837.5373	795.8335	2049	1196.9
837.6823	797.901	2043.55	1190.85
837.8274	799.9678	2025.4	1171.35
837.9724	802.0339	2029.75	1178.55
838.1175	804.0993	2025.75	1165.05
838.2626	806.1641	2031.85	1178.3
838.4076	808.2282	2013.35	1162.45
838.5527	810.2916	2001.7	1146.3
838.6978	812.3544	1979.4	1127.35
838.8428	814.4164	1979.6	1130.2
838.9879	816.4778	1991.4	1138.2
839.133	818.5385	1986.4	1133.8
839.2781	820.5986	2023.45	1170.3
839.4232	822.658	2048.8	1193.8
839.5682	824.7166	2105.7	1253.6
839.7133	826.7747	2158.4	1305.75
839.8584	828.832	2229.9	1375.5
840.0035	830.8886	2272.5	1418.4
840.1486	832.9446	2286.65	1429.25
840.2937	834.9999	2263.1	1410.05
840.4388	837.0545	2212.35	1353.7
840.5839	839.1085	2154.35	1296.3
840.729	841.1618	2094.5	1234.8
840.8741	843.2143	2038.65	1186.35
841.0192	845.2662	2012.3	1159.35
841.1643	847.3175	1994.5	1140.9
841.3095	849.368	1978.2	1120.85
841.4546	851.4179	1986.2	1129.1
841.5997	853.467	1982.75	1128.75
841.7448	855.5155	1992.85	1135.55
841.8899	857.5633	1985.95	1127.75
842.0351	859.6105	1983.85	1127
842.1802	861.6569	1982.7	1127.65
842.3253	863.7027	1960.95	1102.15
842.4704	865.7478	1967.15	1110.35
842.6156	867.7922	1943.45	1085.8
842.7607	869.8359	1933.1	1073.85
842.9058	871.8789	1924.9	1065.2
843.0509	873.9212	1955.25	1062.1
843.1961	875.9629	1925.8	1067.5
843.3412	878.0039	1940.55	1079.25
843.4863	880.0441	1958.15	1098.8
843.6315	882.0837	1963.1	1102.35
843.7766	884.1226	1984.75	1124.65
843.9218	886.1609	2009.55	1149.35
844.0669	888.1984	2036.45	1179.6
844.212	890.2352	2087.75	1229.25
844.3572	892.2714	2106.05	1242.2
844.5023	894.3069	2074.65	1213.1
844.6475	896.3416	2028	1167.05
844.7926	898.3757	1991.3	1130.2
844.9377	900.4091	1977.5	1116.8
845.0829	902.4418	1977.3	1111.95
845.228	904.4739	1990.6	1129.45
845.3732	906.5052	2006.9	1145.3
845.5183	908.5358	1994.95	1134.2
845.6635	910.5658	1997.45	1134.3
845.8086	912.595	1954.95	1092.4
845.9538	914.6236	1935.15	1072.75
846.0989	916.6515	1911.75	1050.75
846.2441	918.6786	1888.2	1023.45
846.3892	920.7051	1884.4	1019.95
846.5344	922.7309	1882.3	1020.65
846.6795	924.756	1879.35	1018.3
846.8246	926.7804	1886.25	1021.9
846.9698	928.8041	1895.25	1028.3
847.1149	930.8272	1899.05	1035.95
847.2601	932.8495	1910.25	1044.65
847.4052	934.8711	1914.55	1050.2
847.5504	936.892	1924.65	1062.55
847.6955	938.9123	1936.25	1071.6
847.8407	940.9318	1947.4	1083.9
847.9858	942.9506	1960.85	1095.6
848.131	944.9688	1947.4	1082.1
848.2761	946.9862	1937.85	1072.95
848.4213	949.003	1904.55	1038.95
848.5664	951.019	1891.25	1025.6
848.7115	953.0344	1876.2	1010.55
848.8567	955.0491	1860.75	996.15
849.0018	957.063	1853.75	987.95
849.147	959.0763	1851.4	986
849.2921	961.0888	1849.8	981.1
849.4373	963.1007	1845.3	979.25
849.5824	965.1119	1837.05	970.85
849.7275	967.1223	1831.65	965.85
849.8727	969.1321	1828.9	964.95
850.0178	971.1412	1826.9	962.1
850.1629	973.1495	1828.2	963.75
850.3081	975.1572	1871.5	949.45
850.4532	977.1641	1823.5	955.3
850.5983	979.1704	1811.45	944.3
850.7435	981.1759	1816.95	946.8
850.8886	983.1808	1811.2	943.55
851.0337	985.1849	1813.9	936.35
851.1788	987.1884	1808.1	938.05
851.324	989.1911	1808.55	938.55
851.4691	991.1932	1806.95	938.35
851.6142	993.1945	1817.05	951.4
851.7593	995.1951	1800.9	932.4
851.9045	997.1951	1803.8	931.25
852.0496	999.1943	1790	922.35
852.1947	1001.1928	1790.35	919.15
852.3398	1003.1906	1802.95	933.05
852.4849	1005.1877	1822.85	952.95
852.63	1007.1841	1840.85	973.4
852.7751	1009.1798	1844.6	976.2
852.9202	1011.1748	1836.95	969.15
853.0653	1013.1691	1824.4	955.5
853.2104	1015.1627	1795.65	928.3
853.3555	1017.1556	1767.85	899
853.5006	1019.1477	1743.75	872.7
853.6457	1021.1392	1734.6	865.4
853.7908	1023.1299	1734.4	864.7
853.9359	1025.12	1732.6	860.15
854.081	1027.1093	1735.75	866.75
854.2261	1029.0979	1747.45	878.05
854.3712	1031.0859	1751.5	880.9
854.5163	1033.0731	1766.1	895.2
854.6613	1035.0596	1766.2	895.25
854.8064	1037.0454	1763.75	893.05
854.9515	1039.0304	1758.2	888.65
855.0965	1041.0148	1726.7	855.7
855.2416	1042.9985	1713.55	841.7
855.3867	1044.9814	1708.35	838.15
855.5317	1046.9636	1695.7	822.55
855.6768	1048.9452	1701.25	831.4
855.8219	1050.926	1717	847.1
855.9669	1052.9061	1728.85	857
856.112	1054.8855	1726.15	855.65
856.257	1056.8642	1731.65	860.55
856.4021	1058.8421	1729.45	855.6
856.5471	1060.8194	1719.55	846.9
856.6921	1062.7959	1720.55	849.6
856.8372	1064.7717	1716.15	842.5
856.9822	1066.7469	1708.35	835.85
857.1272	1068.7213	1721.1	847.65
857.2723	1070.695	1725.2	852.95
857.4173	1072.6679	1741.5	870.8
857.5623	1074.6402	1757.4	883.45
857.7073	1076.6117	1777.7	900
857.8523	1078.5826	1762.55	890.2
857.9973	1080.5527	1718.85	842.9
858.1423	1082.5221	1689.5	816.15
858.2873	1084.4908	1669.35	794.85
858.4323	1086.4587	1654.35	781.05
858.5773	1088.426	1655	782.1
858.7223	1090.3925	1655.55	777.45
858.8673	1092.3584	1651.3	777.05
859.0123	1094.3235	1654.2	780.9
859.1573	1096.2879	1670.6	797.05
859.3022	1098.2515	1682.1	805.6
859.4472	1100.2145	1696.5	823.4
859.5922	1102.1767	1721.3	846.2
859.7371	1104.1382	1745.25	871.9
859.8821	1106.099	1799.95	923.7
860.027	1108.0591	1820.45	947.1
860.172	1110.0185	1849.95	974.3
860.3169	1111.9771	1877.25	1004.1
860.4619	1113.9351	1916.05	1042.3
860.6068	1115.8923	1961.15	1085.75
860.7517	1117.8488	2004.8	1127.7
860.8967	1119.8045	1972.8	1099.7
861.0416	1121.7596	1902.6	1027.45
861.1865	1123.7139	1802.6	927.9
861.3314	1125.6675	1763.45	887.35
861.4763	1127.6204	1747.8	874.15
861.6212	1129.5726	1770.2	892.7
861.7661	1131.524	1772.85	898.9
861.911	1133.4748	1749.5	875
862.0559	1135.4248	1693.2	816.3
862.2008	1137.3741	1660.3	786.25
862.3457	1139.3226	1631.25	756.85
862.4905	1141.2705	1628.65	753.85
862.6354	1143.2176	1639.1	756.6
862.7803	1145.164	1642.85	765.45
862.9251	1147.1097	1650.2	775.4
863.07	1149.0546	1631.55	754.35
863.2148	1150.9989	1607.95	731.55
863.3597	1152.9424	1591.9	713.6
863.5045	1154.8852	1576.35	701.7
863.6493	1156.8272	1563.7	688.05
863.7942	1158.7686	1582.25	699.3
863.939	1160.7092	1577.3	700.6
864.0838	1162.6491	1573.3	693.4
864.2286	1164.5883	1580.7	705.95
864.3734	1166.5267	1587.1	709.25
864.5182	1168.4644	1606.7	730.35
864.663	1170.4014	1629.85	747.55
864.8078	1172.3377	1649.45	772.9
864.9526	1174.2732	1688.75	812.3
865.0974	1176.2081	1753.5	877.5
865.2421	1178.1421	1830.25	950.9
865.3869	1180.0755	1927.5	1051.25
865.5317	1182.0082	1987.55	1111.3
865.6764	1183.9401	1990.4	1112.1
865.8212	1185.8713	1929.6	1053.2
865.9659	1187.8017	1826.8	950
866.1106	1189.7315	1729.45	853.8
866.2554	1191.6605	1702.2	798.45
866.4001	1193.5888	1635.8	758.2
866.5448	1195.5163	1604.4	726.9
866.6895	1197.4432	1592.1	712.35
866.8342	1199.3693	1577.15	700.25
866.9789	1201.2947	1570.65	686.2
867.1236	1203.2193	1557.25	681.2
867.2683	1205.1432	1550.3	672.35
867.413	1207.0664	1545.9	666.5
867.5576	1208.9889	1554.35	672.9
867.7023	1210.9106	1551.85	676.25
867.847	1212.8316	1552.05	674.75
867.9916	1214.7519	1562.5	674.25
868.1363	1216.6715	1557.05	678.85
868.2809	1218.5903	1569.6	692.85
868.4255	1220.5084	1572.55	691.5
868.5701	1222.4257	1589.05	710.9
868.7148	1224.3424	1590.65	712.8
868.8594	1226.2583	1616.05	731.95
869.004	1228.1735	1622.1	743
869.1486	1230.0879	1640.2	760.75
869.2932	1232.0016	1667.85	790.65
869.4377	1233.9146	1699	817.9
869.5823	1235.8269	1711.6	832.35
869.7269	1237.7384	1711.25	831.75
869.8715	1239.6492	1705.85	827.05
870.016	1241.5592	1717.25	838.2
870.1606	1243.4686	1746.7	866.65
870.3051	1245.3772	1792.2	915.15
870.4496	1247.285	1852.05	972.9
870.5941	1249.1922	1902.8	1023.25
870.7387	1251.0986	1959.55	1080.25
870.8832	1253.0042	2004.3	1124.5
871.0277	1254.9092	2065.7	1184.3
871.1722	1256.8134	2136.15	1256.8
871.3167	1258.7169	2203.4	1323.5
871.4611	1260.6196	2251.55	1373.55
871.6056	1262.5216	2288.95	1408.2
871.7501	1264.4229	2285.2	1407.25
871.8945	1266.3234	2270.8	1390.4
872.039	1268.2232	2223.4	1342.6
872.1834	1270.1223	2181.35	1300.5
872.3278	1272.0207	2153.1	1273.8
872.4723	1273.9183	2133.15	1244.7
872.6167	1275.8151	2120.25	1241.05
872.7611	1277.7113	2147.15	1264.95
872.9055	1279.6067	2201.8	1323.2
873.0499	1281.5014	2300.45	1417.95
873.1943	1283.3953	2440.55	1556.4
873.3386	1285.2885	2589.05	1710.4
873.483	1287.181	2719.2	1836.95
873.6274	1289.0727	2767.9	1889.3
873.7717	1290.9637	2733.8	1853.05
873.9161	1292.854	2653.7	1773.7
874.0604	1294.7435	2534.15	1651.95
874.2047	1296.6323	2444.55	1563.05
874.349	1298.5204	2359.85	1476.9
874.4933	1300.4077	2289.45	1408.75
874.6376	1302.2943	2250.1	1367.1
874.7819	1304.1802	2209.95	1331.55
874.9262	1306.0653	2196.3	1313.4
875.0705	1307.9497	2158.2	1276.45
875.2147	1309.8333	2149.55	1268.45
875.359	1311.7162	2127.5	1247.15
875.5032	1313.5984	2119.95	1236.7
875.6475	1315.4798	2104.25	1211.75
875.7917	1317.3605	2119.85	1223.1
875.9359	1319.2405	2112.85	1230.2
876.0801	1321.1197	2115.05	1230.75
876.2243	1322.9982	2096.35	1210.1
876.3685	1324.876	2050	1168.95
876.5127	1326.753	1987.15	1105.2
876.6569	1328.6293	1911	1028.7
876.801	1330.5048	1843.95	961.35
876.9452	1332.3796	1778.9	899
877.0893	1334.2537	1756.25	849.6
877.2335	1336.127	1690.85	807.1
877.3776	1337.9996	1671	791
877.5217	1339.8714	1650.45	770.5
877.6658	1341.7426	1677.55	750.05
877.8099	1343.6129	1618.55	736.9
877.954	1345.4826	1614.45	731.1
878.0981	1347.3515	1606.35	721.85
878.2422	1349.2196	1585.1	702.45
878.3862	1351.087	1582.85	700.3
878.5303	1352.9537	1571.1	687.2
878.6743	1354.8197	1580.55	698.35
878.8184	1356.6849	1588.2	707.65
878.9624	1358.5493	1594.55	711.1
879.1064	1360.4131	1615.35	733.8
879.2504	1362.276	1633.85	752.05
879.3944	1364.1383	1664.4	782.95
879.5384	1365.9998	1679.55	793.85
879.6823	1367.8606	1672.5	790.15
879.8263	1369.7206	1657.4	773.95
879.9702	1371.5799	1663.75	780.7
880.1142	1373.4384	1663.35	781.9
880.2581	1375.2962	1644.45	760.2
880.402	1377.1533	1606.35	724.2
880.5459	1379.0096	1566.15	681.75
880.6898	1380.8652	1550.15	665.7
880.8337	1382.7201	1522	641.25
880.9776	1384.5742	1507.3	623.55
881.1215	1386.4275	1485.05	602.2
881.2653	1388.2802	1472	591.35
881.4092	1390.132	1456.4	574.95
881.553	1391.9832	1454.7	570.25
881.6968	1393.8336	1451.8	569.55
881.8406	1395.6832	1443.85	561.3
881.9844	1397.5322	1436.15	554.55
882.1282	1399.3803	1434.65	546.5
882.272	1401.2278	1424.55	540.5
882.4158	1403.0745	1426.5	542.9
882.5595	1404.9204	1409.8	526
882.7033	1406.7656	1404.75	522.05
882.847	1408.6101	1394.6	511.85
882.9908	1410.4538	1396.9	514.05
883.1345	1412.2968	1402.1	519.9
883.2782	1414.139	1397.85	516.65
883.4219	1415.9805	1411.4	529.75
883.5656	1417.8213	1424.95	534.9
883.7092	1419.6613	1422.05	542
883.8529	1421.5006	1445.4	560.4
883.9965	1423.3391	1463.95	581.5
884.1402	1425.1769	1508.5	624.2
884.2838	1427.0139	1563.8	679.9
884.4274	1428.8502	1628.85	743.7
884.571	1430.6858	1675.8	791.6
884.7146	1432.5206	1699.65	817.95
884.8582	1434.3547	1685.35	802.35
885.0018	1436.188	1674.3	791.85
885.1453	1438.0206	1654.4	771.1
885.2889	1439.8524	1650.85	767.2
885.4324	1441.6835	1645.05	761.85
885.5759	1443.5139	1653.25	765.9
885.7194	1445.3435	1653.3	770.6
885.8629	1447.1724	1652.2	770.25
886.0064	1449.0005	1645.7	761.35
886.1499	1450.8279	1651.45	765.15
886.2933	1452.6545	1643.75	759.55
886.4368	1454.4804	1638.2	755.4
886.5802	1456.3056	1639.5	747.5
886.7237	1458.13	1621.65	739
886.8671	1459.9536	1601.15	715.25
887.0105	1461.7766	1579.25	696.6
887.1539	1463.5987	1546	660.1
887.2972	1465.4202	1526.45	641.35
887.4406	1467.2409	1493.5	609.45
887.584	1469.0608	1464.65	582
887.7273	1470.88	1443.8	560.9
887.8706	1472.6984	1425.55	542.7
888.0139	1474.5161	1418.3	532.5
888.1572	1476.3331	1399.05	515.7
888.3005	1478.1493	1392.55	506.4
888.4438	1479.9648	1386.55	503.2
888.5871	1481.7795	1384.1	499.5
888.7303	1483.5935	1384.35	502.45
888.8736	1485.4067	1383.6	499.35
889.0168	1487.2192	1385.3	498.65
889.16	1489.031	1382.85	497.35
889.3032	1490.842	1381.45	498.1
889.4464	1492.6522	1382.25	498.2
889.5896	1494.4618	1380.7	495.05
889.7327	1496.2705	1384.3	500.6
889.8759	1498.0785	1377.25	492.1
890.019	1499.8858	1368.3	485.7
890.1622	1501.6924	1371.85	489.45
890.3053	1503.4981	1366.55	482.85
890.4484	1505.3032	1361.6	479.25
890.5914	1507.1075	1352.5	467.5
890.7345	1508.911	1355.85	473.35
890.8776	1510.7138	1343.55	457.9
891.0206	1512.5159	1337.55	453.4
891.1637	1514.3172	1331.15	446.05
891.3067	1516.1178	1333.3	451.65
891.4497	1517.9176	1328.5	440.15
891.5927	1519.7166	1323.55	439.5
891.7357	1521.515	1327.75	437.3
891.8786	1523.3126	1315	430.65
892.0216	1525.1094	1310.45	423.4
892.1645	1526.9055	1309.55	425.9
892.3074	1528.7008	1305.2	419.9
892.4503	1530.4954	1304.5	414.2
892.5932	1532.2893	1295.5	412.85
892.7361	1534.0824	1302.05	412.65
892.879	1535.8747	1301.25	416.2
893.0218	1537.6663	1291.75	405.8
893.1647	1539.4572	1299.8	412.15
893.3075	1541.2473	1294.4	409.8
893.4503	1543.0367	1291.1	407.5
893.5931	1544.8253	1290.7	403.3
893.7359	1546.6132	1292.35	404.85
893.8787	1548.4003	1303.8	411.15
894.0214	1550.1867	1310.05	416.3
894.1642	1551.9723	1312.85	422.8
894.3069	1553.7572	1316.35	429.6
894.4496	1555.5414	1322.7	436.75
894.5923	1557.3247	1337.95	452.5
894.735	1559.1074	1369.8	486
894.8777	1560.8893	1377.1	493
895.0204	1562.6705	1422.75	536.95
895.163	1564.4509	1443.1	558.75
895.3056	1566.2305	1447.9	564.45
895.4482	1568.0094	1453.75	570.75
895.5908	1569.7876	1445.5	559.2
895.7334	1571.565	1453	567.2
895.876	1573.3417	1445.9	559.35
896.0186	1575.1176	1447.25	565.05
896.1611	1576.8928	1458.55	573.15
896.3036	1578.6672	1466.55	580.4
896.4461	1580.4409	1483.6	600.45
896.5886	1582.2138	1522.95	635.95
896.7311	1583.986	1541.15	655.5
896.8736	1585.7575	1575.65	691.7
897.0161	1587.5282	1597.9	714.6
897.1585	1589.2981	1616.25	731.35
897.3009	1591.0673	1625.65	740.9
897.4433	1592.8358	1624.7	740.6
897.5857	1594.6035	1631.2	742.8
897.7281	1596.3704	1620.5	735.8
897.8705	1598.1366	1598.3	714.1
898.0128	1599.9021	1580.25	694.8
898.1551	1601.6668	1565.55	677.45
898.2975	1603.4308	1540.8	655.65
898.4398	1605.194	1545.35	655.05
898.5821	1606.9564	1555.6	670.9
898.7243	1608.7182	1597.5	705
898.8666	1610.4791	1641.4	756.25
899.0088	1612.2394	1710.9	825.75
899.1511	1613.9988	1784.9	898.95
899.2933	1615.7576	1863.15	978.5
899.4355	1617.5156	1896.7	1002.9
899.5776	1619.2728	1875.65	989
899.7198	1621.0293	1818.9	933
899.862	1622.785	1749.9	861.7
900.0041	1624.54	1652.65	764.1
900.1462	1626.2942	1574.35	686.05
900.2883	1628.0477	1499.85	609.3
900.4304	1629.8005	1436.4	547.65
900.5725	1631.5525	1387.5	502.45
900.7145	1633.3037	1356.8	471.05
900.8566	1635.0542	1320.4	435.35
900.9986	1636.804	1302.3	415.35
901.1406	1638.553	1347.45	399.8
901.2826	1640.3013	1270.5	383.9
901.4245	1642.0488	1257	369.65
901.5665	1643.7955	1241	356.35
901.7085	1645.5416	1234.3	347.75
901.8504	1647.2868	1222.35	338.5
901.9923	1649.0313	1217.9	331.5
902.1342	1650.7751	1220.45	331.65
902.2761	1652.5181	1212.85	328.1
902.4179	1654.2604	1209.95	322.95
902.5598	1656.0019	1210.55	325.4
902.7016	1657.7427	1214.75	328.75
902.8434	1659.4828	1229.85	344.45
902.9852	1661.222	1251.55	364.9
903.127	1662.9606	1269.65	383.75
903.2687	1664.6984	1297.5	411.65
903.4105	1666.4354	1311.7	425.6
903.5522	1668.1717	1306.2	420.95
903.6939	1669.9072	1277.45	392.7
903.8356	1671.642	1250.85	364.15
903.9773	1673.3761	1217.25	333.05
904.119	1675.1094	1198.1	313.3
904.2606	1676.8419	1184.4	299.25
904.4022	1678.5737	1169.55	284.05
904.5439	1680.3048	1162.85	276.05
904.6855	1682.0351	1155.2	268.75
904.827	1683.7646	1148.6	260.9
904.9686	1685.4934	1147.55	260.85
905.1101	1687.2215	1147.35	259.25
905.2517	1688.9488	1138.2	250.25
905.3932	1690.6754	1135.2	251.4
905.5347	1692.4012	1135.8	250.65
905.6761	1694.1263	1136.1	250.45
905.8176	1695.8506	1136.95	251.15
905.9591	1697.5742	1130.25	244.95
906.1005	1699.297	1129.4	241.5
906.2419	1701.0191	1125.3	238.35
906.3833	1702.7404	1126.05	238.65
906.5246	1704.461	1128.8	241.55
906.666	1706.1808	1121.6	232.95
906.8073	1707.8999	1121.4	232.8
906.9487	1709.6182	1121.2	234.55
907.09	1711.3358	1119.4	232.8
907.2313	1713.0527	1118.25	233.65
907.3725	1714.7688	1123.2	230.95
907.5138	1716.4841	1122.6	236.15
907.655	1718.1987	1120.5	229.35
907.7962	1719.9126	1113.95	228.25
907.9374	1721.6257	1117.05	228.35
908.0786	1723.338	1114.1	227
908.2198	1725.0496	1113.8	226.25
908.3609	1726.7605	1108.55	220.3
908.502	1728.4706	1114	226.95
908.6431	1730.18	1110.2	220.85
908.7842	1731.8886	1101.2	217.25
908.9253	1733.5964	1125.55	219.1
909.0664	1735.3036	1105.35	217
909.2074	1737.0099	1104.85	217.05
909.3484	1738.7156	1102.45	217.2
909.4894	1740.4204	1100.9	210.8
909.6304	1742.1246	1103.5	216
909.7714	1743.8279	1099	214.7
909.9123	1745.5306	1108.25	222.55
910.0532	1747.2325	1101.15	214.15
910.1941	1748.9336	1101.5	215.3
910.335	1750.634	1103.35	213.7
910.4759	1752.3336	1096.1	210.2
910.6168	1754.0325	1098.8	213.45
910.7576	1755.7307	1099.25	212.2
910.8984	1757.4281	1103.65	217.9
911.0392	1759.1247	1109	213.6
911.18	1760.8206	1103.7	213.3
911.3208	1762.5158	1098.4	209
911.4615	1764.2102	1091.85	207.05
911.6022	1765.9039	1092.75	206.9
911.7429	1767.5968	1091.15	204.55
911.8836	1769.289	1092	205.25
912.0243	1770.9804	1095.95	210.3
912.1649	1772.6711	1091.7	205.2
912.3056	1774.361	1090.65	204.5
912.4462	1776.0502	1094.5	207.9
912.5868	1777.7386	1093.35	202.5
912.7274	1779.4263	1094.35	207.9
912.8679	1781.1132	1089	200.7
913.0084	1782.7994	1092.1	202.85
913.149	1784.4849	1092.4	205.15
913.2895	1786.1696	1108.4	202.55
913.4299	1787.8535	1089.85	203.7
913.5704	1789.5367	1086.25	200.15
913.7108	1791.2192	1082.1	195.6
913.8513	1792.9009	1099.9	199.05
913.9917	1794.5818	1085.85	198.9
914.132	1796.2621	1085.45	200.05
914.2724	1797.9415	1079.1	192.4
914.4128	1799.6202	1081.6	196.7
914.5531	1801.2982	1087.65	199.85
914.6934	1802.9755	1084.45	195.8
914.8337	1804.6519	1082.2	195.2
914.9739	1806.3277	1080.15	192.75
915.1142	1808.0027	1079.3	192.55
915.2544	1809.6769	1078.3	191.1
915.3946	1811.3504	1081.9	193.2
915.5348	1813.0231	1083.7	196.6
915.675	1814.6951	1077	188.4
915.8151	1816.3664	1080.35	190.1
915.9553	1818.0369	1076.15	188.85
916.0954	1819.7067	1074.35	189.1
916.2355	1821.3757	1080.05	191.85
916.3755	1823.044	1077.75	193.35
916.5156	1824.7115	1076.8	189.65
916.6556	1826.3783	1076.45	189.95
916.7956	1828.0443	1072.95	187.7
916.9356	1829.7096	1073.8	186.65
917.0756	1831.3741	1077.5	187.1
917.2155	1833.0379	1072.7	185.75
917.3555	1834.701	1076.4	186.2
917.4954	1836.3633	1071.95	184.45
917.6353	1838.0248	1073.9	185.85
917.7751	1839.6856	1073.55	187.55
917.915	1841.3457	1067.8	179.95
918.0548	1843.005	1069.85	184.95
918.1946	1844.6636	1069.8	183.35
918.3344	1846.3214	1065.85	179.4
918.4742	1847.9785	1069.5	183.05
918.6139	1849.6349	1069.1	180.7
918.7537	1851.2904	1078	183.6
918.8934	1852.9453	1067.8	183.75
919.0331	1854.5994	1067.95	177.35
919.1727	1856.2528	1072.45	180.55
919.3124	1857.9054	1064.05	177.55
919.452	1859.5572	1066.45	183.1
919.5916	1861.2083	1068.1	182
919.7312	1862.8587	1067.25	181.1
919.8708	1864.5084	1066.45	178.85
920.0103	1866.1572	1063.5	179.3
920.1498	1867.8054	1064.8	178.05
920.2893	1869.4528	1064.05	180.85
920.4288	1871.0994	1064.95	177.45
920.5683	1872.7453	1062.7	176.1
920.7077	1874.3905	1071.7	177.7
920.8471	1876.0349	1063.35	175.05
920.9865	1877.6786	1064.05	174.5
921.1259	1879.3215	1058.8	173.25
921.2653	1880.9637	1064.35	177.6
921.4046	1882.6051	1059.25	172.7
921.5439	1884.2458	1063.75	175.8
921.6832	1885.8858	1058.4	170.1
921.8225	1887.525	1058.75	170.9
921.9617	1889.1634	1056.9	172.15
922.101	1890.8011	1058.3	171.95
922.2402	1892.4381	1059.95	175.2
922.3794	1894.0743	1056.55	170.8
922.5185	1895.7098	1055.65	169.6
922.6577	1897.3446	1056.4	170.3
922.7968	1898.9786	1060.45	168.8
922.9359	1900.6118	1057.1	171.8
923.075	1902.2443	1055	166.95
923.214	1903.8761	1055.6	168.05
923.3531	1905.5071	1055.35	166.55
923.4921	1907.1374	1054.85	167.9
923.6311	1908.7669	1055.75	168.05
923.77	1910.3957	1055.65	168.3
923.909	1912.0237	1046.35	160.6
924.0479	1913.651	1056.05	169.1
924.1868	1915.2776	1053.1	167.05
924.3257	1916.9034	1053.65	168.25
924.4646	1918.5285	1050.8	166
924.6034	1920.1528	1052.1	164.15
924.7422	1921.7764	1044.35	157.3
924.881	1923.3992	1048.7	162.75
925.0198	1925.0213	1052.5	165.75
925.1586	1926.6427	1042.25	155.2
925.2973	1928.2633	1131.45	162.7
925.436	1929.8832	1047.3	159.85
925.5747	1931.5023	1048.25	161
925.7134	1933.1207	1047.15	160.25
925.852	1934.7383	1043	154.6
925.9906	1936.3552	1036.2	149.35
926.1292	1937.9714	1047.7	159.55
926.2678	1939.5868	1044.1	157.2
926.4064	1941.2015	1039.6	152.3
926.5449	1942.8154	1039	150.7
926.6834	1944.4286	1046.5	158.7
926.8219	1946.041	1062.6	151
926.9604	1947.6528	1046.85	153.5
927.0988	1949.2637	1040.6	154.15
927.2372	1950.8739	1044.3	158.2
927.3756	1952.4834	1037.2	150.7
927.514	1954.0921	1039.8	152.1
927.6523	1955.7001	1038.3	146.7
927.7907	1957.3074	1035.95	150.6
927.929	1958.9139	1037.7	150.45
928.0673	1960.5197	1037.15	147.75
928.2055	1962.1247	1039.25	152.7
928.3438	1963.729	1039.1	153.7
928.482	1965.3325	1058.9	148.7
928.6202	1966.9353	1037.2	151.4
928.7584	1968.5374	1037.6	149.7
928.8965	1970.1387	1038.45	150.7
929.0346	1971.7393	1035.3	148
929.1727	1973.3392	1036.15	148.3
929.3108	1974.9383	1029.9	143.4
929.4489	1976.5366	1038.45	150.4
929.5869	1978.1342	1038.8	151.45
929.7249	1979.7311	1029.95	142.55
929.8629	1981.3273	1032.85	144.85
930.0009	1982.9227	1036.7	145.7
930.1388	1984.5173	1032.15	143.55
930.2767	1986.1112	1033.45	146.05
930.4146	1987.7044	1028.5	144.75
930.5525	1989.2968	1032.25	143.3
930.6904	1990.8885	1034.1	144.65
930.8282	1992.4795	1032.95	146.15
930.966	1994.0697	1032.7	147.3
931.1038	1995.6592	1030.75	143.55
931.2415	1997.2479	1027.15	140.55
931.3793	1998.8359	1025.45	137.45
931.517	2000.4232	1026.6	138.8
931.6547	2002.0097	1028.05	142.65
931.7923	2003.5955	1027.85	140.3
931.93	2005.1805	1029.8	139.6
932.0676	2006.7648	1026.05	141
932.2052	2008.3484	1025.05	136.95
932.3427	2009.9312	1032.75	143.25
932.4803	2011.5133	1026.1	139.4
932.6178	2013.0946	1026	139.5
932.7553	2014.6752	1023.2	137.6
932.8928	2016.2551	1022.65	134.85
933.0302	2017.8342	1023.55	136.15
933.1676	2019.4126	1024.7	136.25
933.305	2020.9902	1025.95	138.5
933.4424	2022.5672	1023.4	133.5
933.5798	2024.1433	1027.8	135.15
933.7171	2025.7188	1023.5	137.6
933.8544	2027.2935	1023.05	135
933.9917	2028.8674	1023.6	136.35
934.129	2030.4406	1019.55	134.4
934.2662	2032.0131	1019.75	134.65
934.4034	2033.5849	1026.9	132.6
934.5406	2035.1559	1022.45	136.3
934.6778	2036.7261	1020.2	132.05
934.8149	2038.2957	1024.05	137
934.952	2039.8645	1019.25	129
935.0891	2041.4325	1025.2	134.7
935.2262	2042.9998	1022.35	135.7
935.3632	2044.5664	1026.6	136.25
935.5002	2046.1323	1021.1	134.65
935.6372	2047.6974	1020.85	132.75
935.7742	2049.2617	1019.6	130.2
935.9111	2050.8254	1053.85	135
936.048	2052.3883	1025.85	135.95
936.1849	2053.9504	1019.8	133.15
936.3218	2055.5118	1021.5	133.9
936.4586	2057.0725	1022.45	132.45
936.5955	2058.6325	1021.45	133.85
936.7323	2060.1917	1017.75	129.7
936.869	2061.7502	1024.3	134.15
937.0058	2063.3079	1017.45	130.95
937.1425	2064.8649	1021.25	129.65
937.2792	2066.4212	1022.35	133.4
937.4159	2067.9767	1020.25	134.35
937.5525	2069.5315	1019.3	132.8
937.6891	2071.0856	1019.35	131.55
937.8257	2072.6389	1021.1	132.35
937.9623	2074.1915	1014.65	129.3
938.0989	2075.7433	1020.05	130.1
938.2354	2077.2945	1016.25	130.5
938.3719	2078.8448	1011.45	124.8
938.5084	2080.3945	1014.4	128.45
938.6448	2081.9434	1020.25	133.95
938.7812	2083.4916	1014.7	127.3
938.9176	2085.039	1018.2	130.8
939.054	2086.5857	1016.05	127.9
939.1903	2088.1317	1014.8	128.15
939.3267	2089.677	1014.35	127.15
939.463	2091.2215	1013	126.05
939.5992	2092.7652	1012.75	123.75
939.7355	2094.3083	1012.55	124.3
939.8717	2095.8506	1014.6	127.35
940.0079	2097.3921	1010.05	125.05
940.1441	2098.933	1011.4	124.25
940.2802	2100.4731	1013.75	128.75
940.4163	2102.0124	1019.45	125
940.5524	2103.5511	1014.9	128.1
940.6885	2105.089	1015.75	131.35
940.8245	2106.6261	1014.5	129.5
940.9606	2108.1626	1012.05	124.2
941.0965	2109.6983	1041.85	125.8
941.2325	2111.2332	1015.35	128.3
941.3684	2112.7675	1012.15	124.35
941.5044	2114.301	1013.8	124.7
941.6403	2115.8337	1014.65	127.65
941.7761	2117.3657	1008.95	122.8
941.912	2118.897	1013.2	125.05
942.0478	2120.4276	1018.4	124.8
942.1835	2121.9575	1008.1	121.8
942.3193	2123.4866	1023.45	123.35
942.455	2125.0149	1017.95	126.25
942.5907	2126.5426	1011.6	124.6
942.7264	2128.0695	1016.4	124.95
942.8621	2129.5956	1012.35	126.1
942.9977	2131.1211	1016.8	124.65
943.1333	2132.6458	1013.05	127
943.2689	2134.1698	1007.6	121.3
943.4044	2135.693	1014.4	123.9
943.54	2137.2155	1011.6	123.05
943.6755	2138.7373	1010.3	123.15
943.8109	2140.2584	1011.9	126.15
943.9464	2141.7787	1017.85	125
944.0818	2143.2983	1007.8	122.45
944.2172	2144.8171	1008.1	122.95
944.3526	2146.3353	1006.1	115.65
944.4879	2147.8527	1005.2	119.55
944.6232	2149.3693	1010.95	123
944.7585	2150.8853	1011.95	124.3
944.8938	2152.4005	1004.9	116.7
945.029	2153.9149	1008.45	120.3
945.1642	2155.4287	1007.75	121.25
945.2994	2156.9417	1008.15	121.9
945.4346	2158.454	1008.55	119.05
945.5697	2159.9655	1007	121.65
945.7048	2161.4764	1005.4	115.7
945.8399	2162.9865	1008.45	120.9
945.9749	2164.4958	1009.45	121.15
946.1099	2166.0045	1008.3	117.05
946.2449	2167.5124	1007.4	120.2
946.3799	2169.0195	1003.55	118.7
946.5148	2170.526	1002.85	116.35
946.6498	2172.0317	1002.8	113.95
946.7846	2173.5367	1008.2	120.05
946.9195	2175.0409	1004.15	116.25
947.0543	2176.5445	1001.9	115.15
947.1891	2178.0473	1003.45	116.05
947.3239	2179.5494	1009.15	118
947.4587	2181.0507	1002.6	114.95
947.5934	2182.5513	1003.2	116.9
947.7281	2184.0512	1004.25	118.3
947.8628	2185.5504	1002.75	115.55
947.9974	2187.0488	1001.65	114.4
948.132	2188.5465	1007.9	121.25
948.2666	2190.0435	1000.25	111.85
948.4012	2191.5397	997.8	111.15
948.5357	2193.0353	1000.7	113.15
948.6702	2194.5301	1004.95	115.8
948.8047	2196.0241	1002.25	114.35
948.9392	2197.5175	1004.75	119.8
949.0736	2199.0101	1005.85	114.7
949.208	2200.502	999.75	114.2
949.3424	2201.9931	998.9	112.45
949.4767	2203.4835	1000.35	111.6
949.611	2204.9733	1004.95	112.2
949.7453	2206.4622	999.85	112
949.8796	2207.9505	1004	113.05
950.0138	2209.438	996.5	110.55
950.148	2210.9248	999.4	111.6
950.2822	2212.4109	996.95	110.55
950.4164	2213.8962	998.7	107.25
950.5505	2215.3809	1000.8	113.85
950.6846	2216.8648	998.65	112.6
950.8186	2218.3479	999.05	108.5
950.9527	2219.8304	997.2	107.45
951.0867	2221.3121	996.45	109.6
951.2207	2222.7931	995.1	108.95
951.3546	2224.2733	994.35	106.1
951.4886	2225.7529	997.35	109.2
951.6225	2227.2317	999.5	112.55
951.7563	2228.7098	995.5	109.6
951.8902	2230.1872	995.15	106.85
952.024	2231.6638	992.65	106.4
952.1578	2233.1397	995.75	106.05
952.2916	2234.6149	992.95	105.9
952.4253	2236.0894	993.05	105.35
952.559	2237.5632	1003.15	105.55
952.6927	2239.0362	995.3	106.45
952.8263	2240.5085	996.65	109.2
952.9599	2241.9801	992.05	106
953.0935	2243.4509	989.25	103.9
953.2271	2244.921	992.3	104.4
953.3606	2246.3904	992.75	104.2
953.4941	2247.8591	993.5	106.9
953.6276	2249.3271	988.2	102.05
953.7611	2250.7943	992.25	105.1
953.8945	2252.2608	985.95	99.45
954.0279	2253.7266	986.15	100.25
954.1612	2255.1917	990.2	102.8
954.2946	2256.656	989.4	101.8
954.4279	2258.1197	987.8	101.5
954.5612	2259.5826	988.05	100.05
954.6944	2261.0447	988.8	98.85
954.8276	2262.5062	985.5	96.15
954.9608	2263.9669	990.75	103.15
955.094	2265.4269	984.95	97.7
955.2271	2266.8862	986.05	98.7
955.3602	2268.3448	988.6	100.3
955.4933	2269.8026	991	103.2
955.6264	2271.2598	988.5	102.9
955.7594	2272.7162	985.2	99.15
955.8924	2274.1719	986.5	98.15
956.0253	2275.6268	984.75	96.9
956.1583	2277.0811	987.15	99.95
956.2912	2278.5346	987.3	102.1
956.4241	2279.9874	984.45	96.5
956.5569	2281.4395	983.35	95.95
956.6897	2282.8908	990.55	98.75
956.8225	2284.3414	986.05	96.7
956.9553	2285.7914	984.7	97.65
957.088	2287.2406	986.9	98.7
957.2207	2288.689	985.5	98.2
957.3534	2290.1368	985.35	99.15
957.486	2291.5838	987.05	99.45
957.6186	2293.0302	981.25	93.6
957.7512	2294.4758	986.5	101.1
957.8838	2295.9206	983.8	94.95
958.0163	2297.3648	981.7	95.8
958.1488	2298.8082	982.4	93
958.2813	2300.251	985.05	98.15
958.4137	2301.693	986.4	97.5
958.5461	2303.1343	982.9	95.3
958.6785	2304.5748	981.95	96.15
958.8108	2306.0147	985.45	100.15
958.9432	2307.4538	984.1	93.75
959.0754	2308.8922	976.85	90.9
959.2077	2310.3299	980	92.55
959.3399	2311.7669	980.1	91.95
959.4721	2313.2031	981.95	95
959.6043	2314.6387	977.25	89.85
959.7365	2316.0735	983.1	94.8
959.8686	2317.5076	980.45	91.5
960.0006	2318.941	978.6	91.1
960.1327	2320.3737	980.35	92.3
960.2647	2321.8056	984.55	96.95
960.3967	2323.2369	979.15	91.75
960.5287	2324.6674	983	95.35
960.6606	2326.0972	984.3	94
960.7925	2327.5263	983.95	98.3
960.9244	2328.9547	988.75	100.35
961.0562	2330.3823	987.15	99.75
961.1881	2331.8092	987.05	97.85
961.3198	2333.2355	978.25	91.2
961.4516	2334.661	975.6	88.45
961.5833	2336.0858	978.25	89.7
961.715	2337.5098	979.35	92.6
961.8467	2338.9332	977.5	89.45
961.9783	2340.3558	981.5	91.8
962.1099	2341.7778	975.9	89.35
962.2415	2343.199	978.5	89.05
962.373	2344.6195	976.5	91.45
962.5045	2346.0393	977.45	93
962.636	2347.4583	977.85	89.8
962.7675	2348.8767	974.6	84.7
962.8989	2350.2943	976.8	89.15
963.0303	2351.7113	975.05	86.4
963.1617	2353.1275	972.75	84.6
963.293	2354.543	995.85	84.25
963.4243	2355.9578	977.8	91.45
963.5556	2357.3718	974.05	87.05
963.6868	2358.7852	975.4	86
963.818	2360.1978	973.1	84.55
963.9492	2361.6098	973.6	87.85
964.0803	2363.021	975.15	84.6
964.2114	2364.4315	971.7	85.3
964.3425	2365.8413	974.2	84.95
964.4736	2367.2504	973.3	87.75
964.6046	2368.6587	972.75	84.9
964.7356	2370.0664	972.95	85.85
964.8666	2371.4733	972.25	86.6
964.9975	2372.8795	972.3	85.15
965.1284	2374.285	970.55	82.45
965.2593	2375.6899	972.95	85.4
965.3901	2377.0939	972.75	87.05
965.5209	2378.4973	968.55	81.5
965.6517	2379.9	971.5	83.85
965.7825	2381.3019	971	84.3
965.9132	2382.7032	970	82.65
966.0439	2384.1037	966.1	80.8
966.1745	2385.5035	969.75	84.4
966.3051	2386.9027	968.55	81.4
966.4357	2388.3011	972	82.6
966.5663	2389.6987	969.5	80.85
966.6968	2391.0957	966.95	80.85
966.8273	2392.492	967.4	79.55
966.9578	2393.8876	966.95	80.8
967.0882	2395.2824	966.25	78.95
967.2186	2396.6765	965.95	79.65
967.349	2398.07	965.85	78.7
967.4793	2399.4627	968	81.05
967.6097	2400.8547	965.7	79.25
967.7399	2402.246	970.8	78.45
967.8702	2403.6366	964.65	77.6
968.0004	2405.0265	968.75	80.35
968.1306	2406.4156	967.5	74.5
968.2607	2407.8041	969.35	78.1
968.3909	2409.1918	965.75	76.6
968.521	2410.5789	965.15	77.55
968.651	2411.9652	964.9	72.75
968.781	2413.3508	963.65	77.9
968.911	2414.7358	962.65	75.2
969.041	2416.12	963.2	76.15
969.1709	2417.5035	961.5	73.1
969.3008	2418.8863	966.55	78.05
969.4307	2420.2684	961.35	74.5
969.5606	2421.6497	962.25	73.95
969.6904	2423.0304	963.85	78.8
969.8201	2424.4104	965.15	77.6
969.9499	2425.7896	968.15	73.35
970.0796	2427.1682	960.85	74.05
970.2093	2428.546	963.95	74.7
970.3389	2429.9232	965.35	77
970.4685	2431.2996	961.15	75.05
970.5981	2432.6753	958.95	72.9
970.7277	2434.0503	961.25	76.65
970.8572	2435.4246	961.1	74.85
970.9867	2436.7982	962.45	74.05
971.1161	2438.1711	957.8	71.95
971.2456	2439.5433	959.65	70.25
971.375	2440.9148	963.7	68.95
971.5043	2442.2856	958.45	69.7
971.6336	2443.6557	958.75	70.3
971.7629	2445.025	958.6	72.05
971.8922	2446.3937	957.65	71.2
972.0214	2447.7617	959.2	72.7
972.1506	2449.1289	958.95	72.7
972.2798	2450.4955	961.65	71.05
972.4089	2451.8613	955.4	68.85
972.538	2453.2265	957.05	67.8
972.6671	2454.5909	956.85	70.75
972.7961	2455.9546	955.9	69.6
972.9251	2457.3177	957	70.2
973.0541	2458.68	956.45	68.4
973.1831	2460.0416	959.05	71.8
973.312	2461.4025	954.55	64.5
973.4408	2462.7627	968.3	67.5
973.5697	2464.1222	957.3	70.5
973.6985	2465.4811	954.15	65.65
973.8273	2466.8392	958.85	71.25
973.956	2468.1966	955.95	63.9
974.0847	2469.5533	959.95	70.8
974.2134	2470.9093	957.6	67.1
974.3421	2472.2645	960.2	71
974.4707	2473.6191	955.55	67.15
974.5993	2474.973	956.55	69.15
974.7278	2476.3262	954.7	65.05
974.8563	2477.6787	953.9	67.35
974.9848	2479.0305	952.55	65.25
975.1132	2480.3816	956.2	67.6
975.2417	2481.7319	953.9	66.5
975.37	2483.0816	958.05	67.95
975.4984	2484.4306	955.9	69.1
975.6267	2485.7789	953.75	67.25
975.755	2487.1264	954.3	64.7
975.8833	2488.4733	952.7	65.75
976.0115	2489.8195	970.3	66.15
976.1397	2491.165	957.95	67.5
976.2678	2492.5097	955.15	66.95
976.3959	2493.8538	950.3	63.95
976.524	2495.1972	952.75	64.9
976.6521	2496.5398	953.4	65.3
976.7801	2497.8818	953.65	63.3
976.9081	2499.2231	953.35	65.4
977.036	2500.5637	956.05	66.65
977.164	2501.9035	952.6	64.55
977.2918	2503.2427	958.3	66.95
977.4197	2504.5812	953.25	67.3
977.5475	2505.919	954.3	65.45
977.6753	2507.256	950.75	64.45
977.8031	2508.5924	950.85	64.6
977.9308	2509.9281	957.75	65.65
978.0585	2511.2631	952.1	68.3
978.1861	2512.5974	951.2	64
978.3137	2513.9309	946.75	59.9
978.4413	2515.2638	982.25	62.75
978.5689	2516.596	948.95	62
978.6964	2517.9275	950.1	61.1
978.8239	2519.2583	952.1	64.55
978.9513	2520.5884	949.15	59.3
979.0788	2521.9178	950.45	62.25
979.2062	2523.2465	946.9	59.4
979.3335	2524.5745	946.8	60.95
979.4608	2525.9018	951.4	65.1
979.5881	2527.2284	944.4	59.25
979.7154	2528.5543	945.6	58.6
979.8426	2529.8796	948.85	59.75
979.9698	2531.2041	949.45	62.05
980.0969	2532.5279	945	58.85
980.224	2533.851	949.9	62.4
980.3511	2535.1735	944.15	57.5
980.4781	2536.4952	943.4	57.7
980.6052	2537.8163	950.6	65.2
980.7321	2539.1366	945	58.05
980.8591	2540.4562	946.8	58.7
980.986	2541.7752	949.5	62.9
981.1129	2543.0935	946.35	59.2
981.2397	2544.411	947.1	58.55
981.3665	2545.7279	943.85	58.2
981.4933	2547.0441	946.5	60.1
981.62	2548.3596	950.55	59.45
981.7467	2549.6744	944.6	57.4
981.8734	2550.9885	946.85	58
982.0001	2552.3019	945.2	58.45
982.1267	2553.6146	945.95	57.9
982.2532	2554.9266	946	58.95
982.3798	2556.2379	946.45	59.5
982.5063	2557.5485	944.35	58.2
982.6327	2558.8585	950.05	53.45
982.7592	2560.1677	950.35	57.9
982.8856	2561.4762	943.65	57.35
983.0119	2562.7841	949.75	58.75
983.1383	2564.0913	945.1	60.15
983.2646	2565.3977	945.6	59.9
983.3908	2566.7035	945.35	59.25
983.517	2568.0086	945.9	55.25
983.6432	2569.313	944.05	55.95
983.7694	2570.6167	947.2	56.15
983.8955	2571.9197	942.35	56.25
984.0216	2573.222	947.05	57
984.1476	2574.5236	946.65	59
984.2737	2575.8246	945.2	55.75
984.3996	2577.1248	944.5	55.95
984.5256	2578.4244	943.5	56.7
984.6515	2579.7232	940.75	54.1
984.7774	2581.0214	975.45	55.25
984.9032	2582.3189	940.3	53.45
985.029	2583.6157	947.6	55.45
985.1548	2584.9118	942.45	55.65
985.2806	2586.2072	940.8	54.65
985.4063	2587.5019	943.3	56.95
985.5319	2588.7959	945.05	58.45
985.6576	2590.0893	943.15	53.9
985.7832	2591.3819	942.65	56.3
985.9087	2592.6739	943.65	58.1
986.0343	2593.9652	946.2	59.2
986.1597	2595.2557	941.45	53
986.2852	2596.5456	943.35	55.8
986.4106	2597.8348	939.65	54.1
986.536	2599.1234	938.25	50.1
986.6614	2600.4112	942.75	55.75
986.7867	2601.6983	947.7	58.1
986.912	2602.9848	942.65	55.35
987.0372	2604.2705	950.7	57.25
987.1624	2605.5556	940.75	52.55
987.2876	2606.84	940.2	53.05
987.4128	2608.1237	941.65	54.1
987.5379	2609.4067	938.9	51.45
987.6629	2610.689	945.95	50.85
987.788	2611.9707	945.35	55.9
987.913	2613.2516	944.85	53.15
988.0379	2614.5319	940.9	54.15
988.1629	2615.8115	941	52.75
988.2878	2617.0903	939.4	50.55
988.4126	2618.3685	938.3	50.7
988.5375	2619.6461	938.15	51.1
988.6622	2620.9229	938.05	50.7
988.787	2622.199	937.2	48.8
988.9117	2623.4745	939.1	51.2
989.0364	2624.7493	939.9	53.5
989.161	2626.0234	936.15	51
989.2857	2627.2968	936.3	50
989.4102	2628.5695	938.25	49.8
989.5348	2629.8415	937.45	51.75
989.6593	2631.1128	938.95	50.2
989.7837	2632.3835	935.15	49.6
989.9082	2633.6535	938.85	53.05
990.0326	2634.9228	937	49.7
990.1569	2636.1914	935.5	48.1
990.2812	2637.4593	942.9	49.25
990.4055	2638.7265	936.3	46.6
990.5298	2639.9931	936.2	49.35
990.654	2641.259	936.75	48.3
990.7782	2642.5242	933.85	45.45
990.9023	2643.7887	936.5	46.8
991.0264	2645.0525	933.85	48.25
991.1505	2646.3156	935.8	48.1
991.2745	2647.5781	935.5	49.6
991.3985	2648.8398	934.7	47.15
991.5225	2650.1009	971.45	45.9
991.6464	2651.3613	934.65	46.05
991.7703	2652.6211	934.15	46.2
991.8942	2653.8801	933.45	47.8
992.018	2655.1385	937.4	47.6
992.1418	2656.3961	934.3	46.75
992.2655	2657.6531	932.95	46.1
992.3892	2658.9094	933.9	44.9
992.5129	2660.1651	932.4	45.45
992.6366	2661.42	935.1	50.2
992.7602	2662.6743	934.1	46.7
992.8837	2663.9279	931.1	44.55
993.0073	2665.1808	933.8	45.05
993.1307	2666.433	933.9	44.5
993.2542	2667.6846	933.85	46.15
993.3776	2668.9354	936.4	45.95
993.501	2670.1856	937.45	49.1
993.6244	2671.4351	933.35	46.1
993.7477	2672.6839	934.1	45.6
993.8709	2673.9321	933.35	47.85
993.9942	2675.1795	934.9	47.1
994.1174	2676.4263	934.9	47.6
994.2405	2677.6724	934.95	47.45
994.3637	2678.9179	936.2	47.4
994.4868	2680.1626	932.3	43.8
994.6098	2681.4067	933.3	46.25
994.7328	2682.6501	933.4	46.25
994.8558	2683.8928	932.3	44.65
994.9788	2685.1348	933.7	46
995.1017	2686.3761	932	44
995.2245	2687.6168	932	44.7
995.3474	2688.8568	931.55	44.3
995.4702	2690.0961	929.05	43.25
995.5929	2691.3348	932.15	43.5
995.7156	2692.5727	928.8	42.45
995.8383	2693.81	931.55	43.8
995.961	2695.0466	928.2	43.05
996.0836	2696.2826	931.55	43.6
996.2062	2697.5178	935.3	44.85
996.3287	2698.7524	931.4	44
996.4512	2699.9863	931.5	41.35
996.5737	2701.2195	929.25	44.35
996.6961	2702.452	932.1	44
996.8185	2703.6839	932.2	45.75
996.9408	2704.9151	930.1	42.55
997.0631	2706.1456	931.8	44
997.1854	2707.3755	933.9	46.8
997.3077	2708.6046	932.3	43.75
997.4299	2709.8331	933.3	45.75
997.552	2711.0609	932.8	45.35
997.6742	2712.2881	929.75	42.2
997.7963	2713.5145	933.7	41.8
997.9183	2714.7403	930.5	43.65
998.0403	2715.9654	935.3	47.6
998.1623	2717.1899	935.95	46.75
998.2842	2718.4136	935	48.5
998.4062	2719.6367	936.95	49.65
998.528	2720.8591	943	50.2
998.6498	2722.0809	937.65	51
998.7716	2723.3019	939.1	49.4
998.8934	2724.5223	939.5	51.8
999.0151	2725.7421	940.9	52.7
999.1368	2726.9611	938.6	50.35
999.2584	2728.1795	942	49.85
999.38	2729.3972	934.1	44.75
999.5016	2730.6142	947.35	46.2
999.6231	2731.8306	932	43.15
999.7446	2733.0462	933.7	44.55
999.8661	2734.2612	937.1	43.55
999.9875	2735.4756	933.5	45.3
1000.1089	2736.6892	929.75	42.7
1000.2302	2737.9022	929.3	44.95
1000.3515	2739.1145	929.6	41.95
1000.4728	2740.3262	936.95	41.35
1000.594	2741.5372	928.1	40.15
1000.7152	2742.7475	926.3	39.15
1000.8363	2743.9571	927.7	39.7
1000.9575	2745.1661	929.75	39.3
1001.0785	2746.3744	926.75	38.95
1001.1996	2747.582	926.4	40.2
1001.3206	2748.7889	926.55	39.2
1001.4415	2749.9952	926.4	39.55
1001.5625	2751.2008	925.2	36.7
1001.6833	2752.4057	927.1	36.35
1001.8042	2753.61	925.2	35.9
1001.925	2754.8136	925.25	34.95
1002.0458	2756.0165	925.3	38.5
1002.1665	2757.2188	921.6	35.65
1002.2872	2758.4204	923.35	36.15
1002.4078	2759.6213	927	35.85
1002.5285	2760.8215	928.45	35.6
1002.649	2762.0211	923.55	34.05
1002.7696	2763.22	927.05	36.7
1002.8901	2764.4182	927.45	38.85
1003.0106	2765.6158	925.8	39.05
1003.131	2766.8127	921.8	32.95
1003.2514	2768.009	923.5	36
1003.3717	2769.2045	920.85	32.55
1003.492	2770.3994	926.1	36.7
1003.6123	2771.5936	923.55	35.5
1003.7325	2772.7872	919.7	32.6
1003.8527	2773.9801	923.2	33.05
1003.9729	2775.1723	936.1	30.15
1004.093	2776.3639	923.75	37.7
1004.2131	2777.5548	922.9	33.3
1004.3331	2778.745	921.05	33.05
1004.4531	2779.9346	922.6	36.85
1004.5731	2781.1235	920.75	31.55
1004.693	2782.3117	919.65	34.6
1004.8129	2783.4992	920.6	33.2
1004.9328	2784.6861	921.9	35.65
1005.0526	2785.8723	923.4	33.75
1005.1723	2787.0579	922.9	34.1
1005.2921	2788.2428	920.75	33.7
1005.4118	2789.427	922.3	36.75
1005.5314	2790.6106	921.25	34.85
1005.651	2791.7935	922.9	32.85
1005.7706	2792.9757	919.25	33.15
1005.8902	2794.1573	924	32.9
1006.0097	2795.3382	922.95	35.85
1006.1291	2796.5184	920.5	35.45
1006.2485	2797.698	923.25	33.95
1006.3679	2798.8769	922.65	35.25
1006.4873	2800.0551	920.75	33.1
1006.6066	2801.2327	924.7	32.85
1006.7258	2802.4096	919.75	33.3
1006.8451	2803.5859	923.75	35.9
1006.9642	2804.7615	923.95	36.85
1007.0834	2805.9364	923.25	36.35
1007.2025	2807.1106	923.85	36.45
1007.3216	2808.2842	923.75	35.85
1007.4406	2809.4572	924.05	35.85
1007.5596	2810.6294	923.85	34
1007.6785	2811.801	925.55	36.9
1007.7975	2812.972	926.1	40.05
1007.9163	2814.1423	929.15	40.65
1008.0352	2815.3119	928.6	41.55
1008.154	2816.4808	927.05	40.9
1008.2727	2817.6491	933.55	45.9
1008.3914	2818.8167	931.5	45.95
1008.5101	2819.9837	943.55	53.6
1008.6288	2821.15	942.75	54.55
1008.7474	2822.3157	944.45	57.5
1008.8659	2823.4807	951	62.35
1008.9844	2824.645	958.75	69.6
1009.1029	2825.8086	961	75.65
1009.2214	2826.9716	963.65	77.85
1009.3398	2828.134	970.55	84.45
1009.4581	2829.2957	977.8	93.2
1009.5764	2830.4567	980.8	95.4
1009.6947	2831.617	983.35	95.3
1009.813	2832.7767	984.2	96.7
1009.9312	2833.9358	986.85	100.2
1010.0493	2835.0941	983.55	94.3
1010.1675	2836.2519	985.8	99.25
1010.2855	2837.4089	981.55	93.7
1010.4036	2838.5653	973.05	86.1
1010.5216	2839.7211	972	86.1
1010.6396	2840.8761	973.2	83.35
1010.7575	2842.0306	972.6	85.6
1010.8754	2843.1843	971	83.95
1010.9932	2844.3374	972.35	83.15
1011.111	2845.4899	971.85	81.55
1011.2288	2846.6417	974.8	87.4
1011.3465	2847.7928	973.3	86.8
1011.4642	2848.9433	974.1	86.2
1011.5818	2850.0931	976.35	91.55
1011.6995	2851.2422	982	92.3
1011.817	2852.3907	971.1	83.35
1011.9345	2853.5385	979.35	91.9
1012.052	2854.6857	1005.9	92.15
1012.1695	2855.8323	980.35	92
1012.2869	2856.9781	980.6	92.25
1012.4042	2858.1233	983.25	96.8
1012.5216	2859.2679	985.1	96.45
1012.6389	2860.4118	987.65	100.05
1012.7561	2861.555	996.45	103.7
1012.8733	2862.6976	993	101.65
1012.9905	2863.8395	992.55	106.1
1013.1076	2864.9808	991.65	105.85
1013.2247	2866.1214	994.4	110.45
1013.3417	2867.2614	996.15	110.35
1013.4587	2868.4007	1001.9	114.45
1013.5757	2869.5393	999.6	109.8
1013.6926	2870.6773	1006.15	115.45
1013.8095	2871.8146	1006.65	116.1
1013.9263	2872.9513	1005.75	117.5
1014.0431	2874.0874	1005.7	118.5
1014.1599	2875.2227	1007.3	120
1014.2766	2876.3574	1010.4	123.45
1014.3933	2877.4915	1009.8	121.85
1014.51	2878.6249	1009.3	123.65
1014.6266	2879.7577	1013.95	125.8
1014.7431	2880.8898	1023.1	123.65
1014.8596	2882.0212	1015.05	125.8
1014.9761	2883.152	1018.4	131.95
1015.0925	2884.2821	1019.9	134.45
1015.2089	2885.4116	1019.3	132.8
1015.3253	2886.5405	1023.4	135.85
1015.4416	2887.6686	1024.45	133.65
1015.5579	2888.7962	1023.25	138.55
1015.6741	2889.923	1018.3	134.05
1015.7903	2891.0493	1019.15	131.5
1015.9065	2892.1748	1026.9	140
1016.0226	2893.2997	1023.45	135.25
1016.1387	2894.424	1025.05	139.35
1016.2547	2895.5476	1018.85	132.2
1016.3707	2896.6706	1020.35	134.3
1016.4866	2897.7929	1023.1	135.3
1016.6025	2898.9145	1023.1	136.1
1016.7184	2900.0355	1023.05	135.65
1016.8342	2901.1559	1023.1	134.7
1016.95	2902.2756	1025.75	138.65
1017.0658	2903.3946	1016.25	130.1
1017.1815	2904.513	1020.6	130.95
1017.2971	2905.6308	1019.55	131.7
1017.4127	2906.7479	1018.75	130.9
1017.5283	2907.8643	1020.8	132.9
1017.6439	2908.9801	1017.75	129.15
1017.7594	2910.0953	1016	127.95
1017.8748	2911.2098	1018.45	127.5
1017.9902	2912.3236	1026.1	130.15
1018.1056	2913.4368	1022.15	131.05
1018.2209	2914.5494	1020.05	135
1018.3362	2915.6613	1024.3	132.05
1018.4515	2916.7725	1017.7	128.8
1018.5667	2917.8831	1012.25	124.9
1018.6819	2918.9931	1014.1	123.15
1018.797	2920.1024	1011.55	122.1
1018.9121	2921.211	1004.25	117.8
1019.0271	2922.319	1008.7	119.5
1019.1421	2923.4264	1001.6	115.2
1019.2571	2924.5331	997.6	110.8
1019.372	2925.6391	1005.25	117.3
1019.4869	2926.7445	998.6	114.25
1019.6017	2927.8493	1003.95	117.1
1019.7165	2928.9534	1003.5	116.9
1019.8313	2930.0569	1006.95	117.25
1019.946	2931.1597	1006.15	117.3
1020.0606	2932.2619	1002.95	116.55
1020.1753	2933.3634	1007.45	119.35
1020.2899	2934.4643	1013.45	119.15
1020.4044	2935.5645	1012.35	117
1020.5189	2936.6641	1017.95	125.45
1020.6334	2937.763	1007.55	123.1
1020.7478	2938.8613	1007.9	120.7
1020.8622	2939.959	1014	120.95
1020.9765	2941.056	1006.6	119.65
1021.0908	2942.1523	1005.6	117.15
1021.2051	2943.248	997.05	111.1
1021.3193	2944.3431	993.1	107.2
1021.4334	2945.4375	987.95	99.4
1021.5476	2946.5313	983.5	99.5
1021.6617	2947.6244	978.75	89.7
1021.7757	2948.7169	974	86.25
1021.8897	2949.8087	968.1	81
1022.0037	2950.8999	962.55	74.5
1022.1176	2951.9904	961.4	74.35
1022.2315	2953.0803	959.7	69.6
1022.3453	2954.1696	953.45	67.4
1022.4591	2955.2582	951.3	63.3
1022.5728	2956.3462	952.05	63.9
1022.6865	2957.4335	952.3	65.95
1022.8002	2958.5202	953.35	61.15
1022.9138	2959.6062	947.95	62.1
1023.0274	2960.6916	946.6	59.3
1023.141	2961.7764	947.75	59.75
1023.2545	2962.8605	949.1	61.6
1023.3679	2963.9439	950.4	63.95
1023.4813	2965.0267	947.75	60.05
1023.5947	2966.1089	971.85	59.2
1023.708	2967.1905	946.2	58.75
1023.8213	2968.2714	946.95	61.9
1023.9346	2969.3516	944.9	58.85
1024.0478	2970.4312	953.85	58.85
1024.1609	2971.5102	945.3	57.4
1024.274	2972.5885	944.55	57.5
1024.3871	2973.6662	953.4	59.25
1024.5002	2974.7432	945.6	57.6
1024.6132	2975.8196	948.15	62.05
1024.7261	2976.8954	945.55	58.7
1024.839	2977.9705	945.35	58.4
1024.9519	2979.045	947.6	61.9
1025.0647	2980.1188	945.45	58.2
1025.1775	2981.192	944.9	58.55
1025.2902	2982.2645	945.05	57.1
1025.4029	2983.3364	942.65	53.7
1025.5156	2984.4077	943	55.65
1025.6282	2985.4783	946.5	54
1025.7407	2986.5483	939.05	51.25
1025.8532	2987.6177	936.95	51.2
1025.9657	2988.6864	937.95	50.95
1026.0782	2989.7545	937.85	49.85
1026.1906	2990.8219	934.1	49.9
1026.3029	2991.8887	935.95	45.6
1026.4152	2992.9548	928.8	39.5
1026.5275	2994.0204	927.65	40.95
1026.6397	2995.0852	923.95	37.9
1026.7519	2996.1495	924.45	34.75
1026.864	2997.2131	925	37
1026.9761	2998.276	919.8	33.8
1027.0882	2999.3383	920.7	33
1027.2002	3000.4	919.7	32.25
1027.3122	3001.4611	918.6	30.75
1027.4241	3002.5215	915.9	28.6
1027.536	3003.5812	917.05	30.4
1027.6478	3004.6404	914.45	27.6
1027.7596	3005.6989	915.85	25.45
1027.8714	3006.7567	913.35	26.15
1027.9831	3007.8139	943.55	26.3
1028.0947	3008.8705	911.3	23.25
1028.2064	3009.9264	929.6	24.95
1028.3179	3010.9818	911	24
1028.4295	3012.0364	912.85	24.9
1028.541	3013.0905	910.35	21.65
1028.6524	3014.1439	908.8	23.35
1028.7638	3015.1966	909.1	20.75
1028.8752	3016.2487	911.05	22.7
1028.9865	3017.3002	912.75	21.7
1029.0978	3018.3511	907.6	21.5
1029.209	3019.4013	909.05	21.35
1029.3202	3020.4509	909.15	22.1
1029.4314	3021.4998	909.65	23.3
1029.5425	3022.5481	908.6	21
1029.6535	3023.5958	909.35	21.2
1029.7645	3024.6428	908	18.75
1029.8755	3025.6892	906.65	18.9
1029.9864	3026.735	909.55	21.25
1030.0973	3027.7802	906.8	16.95
1030.2082	3028.8247	907.2	21.45
1030.319	3029.8685	907.7	18.65
1030.4297	3030.9118	906.9	21.9
1030.5404	3031.9544	907.65	20.85
1030.6511	3032.9963	906.7	19.45
1030.7617	3034.0376	905.65	18.2
1030.8723	3035.0783	910.5	20.5
1030.9829	3036.1184	907.9	17.45
1031.0934	3037.1578	904.35	16.4
1031.2038	3038.1966	908.8	21.2
1031.3142	3039.2348	908	19.4
1031.4246	3040.2723	917.3	21.35
1031.5349	3041.3092	906.55	20.65
1031.6452	3042.3455	907.65	21.45
1031.7554	3043.3811	908.9	22.2
1031.8656	3044.4161	908.35	20.95
1031.9758	3045.4505	908.3	20.2
1032.0859	3046.4842	910.05	22.4
1032.1959	3047.5173	907.55	23.1
1032.3059	3048.5498	906.3	19.9
1032.4159	3049.5816	907.8	19.55
1032.5258	3050.6128	907.7	19.05
1032.6357	3051.6434	909.6	21.15
1032.7455	3052.6734	909.65	20.4
1032.8553	3053.7027	908.35	20.9
1032.9651	3054.7314	905.6	19.2
1033.0748	3055.7594	904.9	18.7
1033.1845	3056.7868	906.45	18.85
1033.2941	3057.8136	906.25	18.25
1033.4037	3058.8398	908	20.5
1033.5132	3059.8653	909.2	20.7
1033.6227	3060.8902	910.25	22.65
1033.7321	3061.9145	910	23.1
1033.8415	3062.9381	908	20.75
1033.9509	3063.9612	923	20.75
1034.0602	3064.9835	909.5	24.4
1034.1694	3066.0053	909.5	19.8
1034.2787	3067.0264	909.4	21.9
1034.3878	3068.0469	910.9	23.15
1034.497	3069.0668	911.4	19.35
1034.6061	3070.086	910.75	23.45
1034.7151	3071.1046	912.2	23.45
1034.8241	3072.1226	908.05	19.8
1034.9331	3073.1399	909.2	22.65
1035.042	3074.1567	907.3	19.05
1035.1508	3075.1727	909.35	23.3
1035.2597	3076.1882	907.8	21.75
1035.3684	3077.203	905.85	17.7
1035.4772	3078.2173	907.65	18.3
1035.5859	3079.2308	910	19
1035.6945	3080.2438	906.35	16.9
1035.8031	3081.2561	904.4	15.4
1035.9117	3082.2678	903.15	15.4
1036.0202	3083.2789	905.05	19.85
1036.1286	3084.2893	904.8	19.35
1036.2371	3085.2991	906.45	18.85
1036.3454	3086.3083	907.75	16.95
1036.4538	3087.3169	906.05	17.15
1036.562	3088.3248	906.1	17.05
1036.6703	3089.3321	904.35	14.95
1036.7785	3090.3388	901.8	17
1036.8866	3091.3449	904.15	16.75
1036.9948	3092.3503	904.4	14
1037.1028	3093.3551	902.35	17.1
1037.2108	3094.3593	900.8	15.95
1037.3188	3095.3629	901.5	14.9
1037.4267	3096.3658	905.9	15.1
1037.5346	3097.3681	903.55	17.2
1037.6425	3098.3698	904	14.95
1037.7503	3099.3708	901.15	14.95
1037.858	3100.3713	902.55	15.7
1037.9657	3101.3711	902.15	14.35
1038.0734	3102.3702	1043.65	16
1038.181	3103.3688	902.3	11.9
1038.2886	3104.3667	902	15.9
1038.3961	3105.364	899.8	13.65
1038.5036	3106.3607	901.7	12.05
1038.611	3107.3568	901	13.45
1038.7184	3108.3522	898.45	12.35
1038.8257	3109.347	902.75	16.1
1038.933	3110.3412	903.9	14
1039.0403	3111.3348	900.1	12.7
1039.1475	3112.3277	899.05	11.25
1039.2547	3113.32	900.6	14.25
1039.3618	3114.3117	901.8	15.5
1039.4689	3115.3028	897.1	8.45
1039.5759	3116.2932	900.5	11.65
1039.6829	3117.2831	903.7	9.45
1039.7898	3118.2723	900.1	12.95
1039.8967	3119.2608	899.1	11.4
1040.0035	3120.2488	898.55	10.85
1040.1103	3121.2361	901.3	15.65
1040.2171	3122.2229	897.6	11.25
1040.3238	3123.209	898.05	9.1
1040.4305	3124.1944	899.15	11.95
1040.5371	3125.1793	899.2	8.5
1040.6437	3126.1635	899.9	13.9
1040.7502	3127.1471	898.3	11
1040.8567	3128.1301	897.6	11.75
1040.9631	3129.1125	896.15	10.05
1041.0695	3130.0942	898.25	10.65
1041.1759	3131.0753	905.7	9.55
1041.2822	3132.0558	899.55	8.8
1041.3884	3133.0357	899.35	10.6
1041.4946	3134.015	900.85	12.2
1041.6008	3134.9936	896.45	7.5
1041.7069	3135.9716	919.6	11.6
1041.813	3136.949	898.2	10.05
1041.919	3137.9258	914.2	8.65
1042.025	3138.902	903.15	12.15
1042.1309	3139.8775	895.8	9.65
1042.2368	3140.8524	897.75	11.15
1042.3427	3141.8267	896.95	5.85
1042.4485	3142.8004	898.1	11.45
1042.5542	3143.7735	902.45	7.85
1042.6599	3144.7459	900.35	9.95
1042.7656	3145.7178	898.7	10.3
1042.8712	3146.689	895	8.55
1042.9768	3147.6596	896.65	8.75
1043.0823	3148.6295	897.65	9.25
1043.1878	3149.5989	896.05	8.6
1043.2932	3150.5676	895.45	9.25
1043.3986	3151.5357	894	5.6
1043.5039	3152.5032	894.4	9.15
1043.6092	3153.4701	892.8	6.5
1043.7145	3154.4364	899.75	9.2
1043.8197	3155.402	895.7	8.2
1043.9248	3156.367	897.7	9.3
1044.03	3157.3315	933.75	8
1044.135	3158.2952	896.6	8
1044.24	3159.2584	895.45	7.4
1044.345	3160.221	896.5	6.75
1044.4499	3161.1829	896.65	11.65
1044.5548	3162.1442	894.3	8.35
1044.6596	3163.105	894.9	9.1
1044.7644	3164.065	895.9	9.05
1044.8692	3165.0245	898.3	7
1044.9739	3165.9834	896.35	11.7
1045.0785	3166.9416	893.75	5.8
1045.1831	3167.8993	894.65	5.55
1045.2877	3168.8563	896.65	9.2
1045.3922	3169.8127	895.45	7.7
1045.4966	3170.7684	895.4	8.1
1045.6011	3171.7236	897.1	9.5
1045.7054	3172.6782	895	6.6
1045.8098	3173.6321	895	7.7
1045.914	3174.5854	897.85	6.45
1046.0183	3175.5381	895.75	9.9
1046.1224	3176.4902	893.1	6.25
1046.2266	3177.4417	894.7	7.95
1046.3307	3178.3926	894.45	7.85
1046.4347	3179.3428	894.25	9.65
1046.5387	3180.2924	894.95	7.45
1046.6427	3181.2415	894.95	8.05
1046.7466	3182.1899	897.55	9.05
1046.8504	3183.1377	893.95	4.85
1046.9542	3184.0848	897.55	7.7
1047.058	3185.0314	896.35	10.15
1047.1617	3185.9773	895.4	6.4
1047.2654	3186.9227	894.4	6.35
1047.369	3187.8674	895	8.4
1047.4726	3188.8115	898.65	6.5
1047.5761	3189.755	895.7	7.65
1047.6796	3190.6979	893.5	6.5
1047.783	3191.6402	892.05	5
1047.8864	3192.5818	893.55	7.15
1047.9898	3193.5229	901.1	9.9
1048.0931	3194.4633	894.65	7.7
1048.1963	3195.4031	893.75	5.3
1048.2995	3196.3423	894.45	7.85
1048.4027	3197.2809	894.35	7.45
1048.5058	3198.2189	893.85	5.1
1048.6089	3199.1563	899.1	7.75
1048.7119	3200.0931	892.95	9
1048.8148	3201.0292	892.7	6.3
1048.9178	3201.9648	893.05	7
1049.0206	3202.8997	894.7	4.55
1049.1235	3203.834	894.35	7.7
1049.2262	3204.7677	893.6	6.55
1049.329	3205.7008	894.65	4.5
1049.4317	3206.6333	894	6.45
1049.5343	3207.5652	897.3	7.75
1049.6369	3208.4964	894	6.85
1049.7394	3209.4271	893.2	5.85
1049.8419	3210.3571	893.05	8.1
1049.9444	3211.2865	894.25	6.85
1050.0468	3212.2154	894.15	5.9
1050.1491	3213.1436	896.65	7.45
1050.2514	3214.0712	901.95	7.8
1050.3537	3214.9982	893.1	4.95
1050.4559	3215.9246	894.55	6.6
1050.5581	3216.8503	893.05	8.05
1050.6602	3217.7755	892.8	3.95
1050.7623	3218.7001	894.05	7.85
1050.8643	3219.624	893.75	7.5
1050.9663	3220.5473	894.8	7.95
1051.0682	3221.4701	895.4	6.7
1051.1701	3222.3922	895.85	7.2
1051.2719	3223.3137	893.85	7.5
1051.3737	3224.2346	892.65	7.15
1051.4754	3225.1549	892.2	5
1051.5771	3226.0746	893.65	6.45
1051.6788	3226.9937	893.05	3.5
1051.7804	3227.9121	893.45	7.8
1051.8819	3228.83	891.8	6.1
1051.9834	3229.7473	892.5	5.1
1052.0849	3230.6639	892.65	3.8
1052.1863	3231.5799	891.05	4.6
1052.2876	3232.4954	893.7	6.8
1052.3889	3233.4102	892.35	5.1
1052.4902	3234.3244	893.35	4.45
1052.5914	3235.238	892.45	6.4
1052.6926	3236.151	915.8	2.85
1052.7937	3237.0634	890.6	4.25
1052.8948	3237.9752	890.95	3.6
1052.9958	3238.8864	892.8	6.25
1053.0968	3239.797	893.55	6.3
1053.1977	3240.7069	895.25	6.95
1053.2986	3241.6163	896.1	8.55
1053.3994	3242.5251	891.55	4.85
1053.5002	3243.4332	891.6	5.7
1053.6009	3244.3408	893.9	4.4
1053.7016	3245.2477	890.65	4.4
1053.8022	3246.154	892.9	4.4
1053.9028	3247.0598	893.8	5.75
1054.0034	3247.9649	893.05	4.05
1054.1039	3248.8694	892.85	5.6
1054.2043	3249.7733	893.85	4.4
1054.3047	3250.6766	893.6	6.05
1054.4051	3251.5793	893.15	3.8
1054.5054	3252.4814	890.6	3.95
1054.6056	3253.3829	890.8	4.6
1054.7058	3254.2838	891.4	3.85
1054.806	3255.1841	892.4	4.95
1054.9061	3256.0838	891.1	4.3
1055.0061	3256.9829	890.65	3
1055.1062	3257.8814	895.65	6.5
1055.2061	3258.7792	894.8	5.85
1055.306	3259.6765	894.1	6.55
1055.4059	3260.5731	892.2	5.8
1055.5057	3261.4692	891.75	2.05
1055.6055	3262.3647	890.3	2.1
1055.7052	3263.2595	891.65	5.25
1055.8049	3264.1538	892.7	4.45
1055.9045	3265.0474	891.75	3.8
1056.0041	3265.9404	888.8	2.75
1056.1036	3266.8329	891.05	5.5
1056.2031	3267.7247	900.5	2.35
1056.3025	3268.616	891.7	3.35
1056.4019	3269.5066	892.45	4.85
1056.5013	3270.3966	891.25	1.5
1056.6005	3271.286	892.35	5.15
