Software Version:	3.9.2.0
Unit SN:	10000200
Spectrometer SN:	6960
Date:	3/14/2024 1:45:45 PM
Data Line Index:	25
Spectral Points:	2048
Integration time (ms):	125
Averages:	20
Delay (ms):	30000
Sequence Number:	1
Processing:	dark subtract
Laser Power (mW):	305
Laser Current (mA):	824
Laser Diode Temp (C):	25.1
Laser Case Temp (C):	28.8
System Temp (C):	28.8
Spectrometer Temp (C):	26.6
CCD Temp (C):	0.004
Secondary Temp (C):	20.004
Heatsink Temp (C):	24.661
CCDPCB Temp (C):	38.219
SecondaryPCB Temp (C):	35.784

Wavelength	RamanShift	Raw Counts	Dark Subtracted
787.061	30.1047	467.4	55.2
787.2016	32.3739	469.85	60.4
787.3422	34.6426	473.3	63
787.4828	36.9109	482.25	69.4
787.6235	39.1787	491	74.55
787.7642	41.4461	498.55	76.85
787.9049	43.7131	512.3	87.4
788.0456	45.9796	521.05	93.2
788.1863	48.2456	526.85	94
788.3271	50.5112	539.45	103.6
788.4679	52.7764	549	109.35
788.6087	55.0411	562.2	119.7
788.7496	57.3054	576.7	127.95
788.8904	59.5692	588.5	139.45
789.0313	61.8326	599.25	147.2
789.1722	64.0955	612.3	155.3
789.3132	66.3579	631	167.35
789.4541	68.6199	655.9	192.15
789.5951	70.8815	690.1	221.15
789.7361	73.1426	773.25	301.75
789.8771	75.4032	995.2	514.7
790.0181	77.6634	1531.7	1048.9
790.1592	79.9231	2789.45	2302.05
790.3003	82.1824	5609.6	5109.3
790.4414	84.4412	10769.1	10251.6
790.5825	86.6995	18047	17507.9
790.7237	88.9574	25357.9	24795.25
790.8648	91.2148	30488.45	29913.05
791.006	93.4717	32943.45	32357.4
791.1472	95.7282	33531.6	32942.6
791.2885	97.9842	33506.85	32911.95
791.4297	100.2398	32943.9	32346.2
791.571	102.4949	32319.8	31720.05
791.7123	104.7495	31552.95	30947.75
791.8536	107.0036	30709.85	30104.9
791.9949	109.2573	29887.65	29288.5
792.1363	111.5105	29143.05	28537.05
792.2777	113.7632	28425.2	27817.5
792.4191	116.0154	27846	27226.15
792.5605	118.2672	27373.4	26762
792.7019	120.5185	26877.8	26264.55
792.8434	122.7693	26535.85	25922.25
792.9849	125.0197	26232	25615.25
793.1264	127.2696	25921.95	25301.9
793.2679	129.519	25779.75	25152.95
793.4094	131.7679	25542.75	24917.55
793.551	134.0163	25330.55	24701.95
793.6926	136.2642	25124.5	24491.5
793.8342	138.5117	24859.2	24213.45
793.9758	140.7587	24598.5	23961.9
794.1175	143.0052	24369.35	23728.7
794.2591	145.2512	24076.25	23436.8
794.4008	147.4967	23797.55	23157.55
794.5425	149.7417	23632.7	22991
794.6842	151.9863	23490.25	22844.7
794.826	154.2304	23402.35	22753.6
794.9677	156.4739	23256.45	22600.7
795.1095	158.717	23189.45	22535.65
795.2513	160.9596	23012.35	22356.15
795.3931	163.2017	22701.7	22041.6
795.535	165.4433	22398.8	21735.25
795.6768	167.6844	22040.65	21375.05
795.8187	169.925	21714.15	21049.2
795.9606	172.1651	21309.35	20642.4
796.1025	174.4047	20994.15	20320.7
796.2445	176.6439	20723.25	20045.8
796.3864	178.8825	20462.65	19783.45
796.5284	181.1206	20275.85	19594.4
796.6704	183.3582	20074.95	19390.6
796.8124	185.5954	19958.95	19272.3
796.9544	187.832	19885.1	19194.85
797.0965	190.0681	19909.25	19219
797.2386	192.3037	19861.95	19167.85
797.3806	194.5388	19801.3	19106.1
797.5228	196.7734	19875.45	19173.8
797.6649	199.0075	19943.15	19237.7
797.807	201.2411	20078.7	19374.4
797.9492	203.4742	20125.85	19421.15
798.0914	205.7068	20285.75	19580.65
798.2336	207.9389	20377.4	19667.8
798.3758	210.1704	20505.75	19792.05
798.518	212.4015	20601.9	19888.1
798.6603	214.632	20772.05	20058.85
798.8025	216.862	20940.6	20238.75
798.9448	219.0915	21082.85	20385.15
799.0871	221.3205	21254.3	20559.95
799.2294	223.549	21460.25	20769.1
799.3718	225.777	21724	21034.2
799.5141	228.0044	22069.15	21374.5
799.6565	230.2314	22446.3	21752
799.7989	232.4578	22839.05	22143.45
799.9413	234.6837	23132.8	22433.45
800.0837	236.909	23332.3	22630.95
800.2262	239.1339	23348.45	22618
800.3687	241.3582	23147.65	22434.3
800.5111	243.582	22796.9	22062.65
800.6536	245.8053	22500.55	21770.5
800.7961	248.0281	22251.45	21528.15
800.9387	250.2503	22019.5	21289.5
801.0812	252.472	21914.45	21180.75
801.2238	254.6932	21864.55	21127.35
801.3664	256.9139	21791.75	21054.65
801.509	259.134	21873.05	21132.15
801.6516	261.3536	21910.05	21171.75
801.7942	263.5727	22023.55	21284.5
801.9369	265.7912	21998.05	21259.05
802.0795	268.0092	22111.65	21371.75
802.2222	270.2267	22113.15	21370.25
802.3649	272.4436	22077.15	21333.05
802.5076	274.6601	22017.1	21263.1
802.6504	276.8759	21904.2	21158.45
802.7931	279.0913	21839.15	21090.8
802.9359	281.3061	21751.8	21002.8
803.0787	283.5204	21755.45	21005.65
803.2215	285.7341	21790.3	21036.2
803.3643	287.9473	21917.5	21151.8
803.5071	290.16	22133.45	21371.95
803.6499	292.3721	22421.25	21662.65
803.7928	294.5837	22792.55	22037.9
803.9357	296.7947	23105.25	22350.1
804.0786	299.0052	23287.2	22530.05
804.2215	301.2152	23178.5	22417.85
804.3644	303.4246	22807.1	22050.75
804.5074	305.6334	22273.9	21518.5
804.6503	307.8418	21727.05	20966.3
804.7933	310.0495	21292.9	20533.35
804.9363	312.2568	20864.65	20103.35
805.0793	314.4635	20550.25	19790.35
805.2223	316.6696	20425.8	19662.7
805.3653	318.8752	20335.25	19564.15
805.5084	321.0802	20349.1	19582.3
805.6514	323.2847	20398.65	19630.3
805.7945	325.4887	20479.9	19711.1
805.9376	327.692	20417.1	19650.1
806.0807	329.8949	20295.45	19527.75
806.2238	332.0972	20036.25	19267.7
806.367	334.2989	19738.15	18962.7
806.5101	336.5001	19434.5	18663.45
806.6533	338.7007	19209.05	18437.15
806.7965	340.9008	19104.35	18329.25
806.9397	343.1003	18938.8	18161.9
807.0829	345.2992	18874.2	18094
807.2261	347.4976	18814.8	18038.6
807.3693	349.6955	18757.1	17974.85
807.5126	351.8927	18822.25	18038.45
807.6559	354.0895	18772.7	17973.85
807.7991	356.2856	18799.7	18012
807.9424	358.4812	18767.05	17983.7
808.0857	360.6763	18761.85	17977
808.2291	362.8707	18719.1	17931.75
808.3724	365.0646	18779.25	17990.5
808.5158	367.258	18794.25	18001.85
808.6591	369.4508	18781.15	17989.1
808.8025	371.643	18873.3	18078.8
808.9459	373.8346	18860.45	18064.45
809.0893	376.0257	18816.6	18017.25
809.2327	378.2162	18751.65	17953.3
809.3762	380.4062	18647.45	17841.4
809.5196	382.5956	18470.35	17666.3
809.6631	384.7844	18365.5	17565.35
809.8066	386.9726	18226.6	17424.4
809.9501	389.1603	18144.3	17343.35
810.0936	391.3474	18129.1	17294.8
810.2371	393.5339	18047.65	17244.8
810.3806	395.7199	17977.1	17180.8
810.5241	397.9052	18007.35	17214.6
810.6677	400.09	18007.2	17215.6
810.8113	402.2743	18035.85	17243.1
810.9548	404.4579	18122.9	17328.8
811.0984	406.641	18293.85	17500.6
811.2421	408.8235	18508.9	17715.05
811.3857	411.0054	18783.45	17988.35
811.5293	413.1868	19170.6	18373.3
811.673	415.3675	19459.6	18658.05
811.8166	417.5477	19643.55	18842.05
811.9603	419.7273	19649.9	18843.75
812.104	421.9064	19494.2	18684.1
812.2477	424.0848	19396.15	18589.65
812.3914	426.2627	19186.95	18376.7
812.5351	428.4399	18835.05	18022.35
812.6788	430.6166	18483.8	17672.3
812.8226	432.7928	18091	17276.8
812.9663	434.9683	17734.75	16922.35
813.1101	437.1432	17472.95	16655.55
813.2539	439.3176	17255.2	16436.95
813.3977	441.4914	17163.75	16345.2
813.5415	443.6645	17095.15	16272.65
813.6853	445.8371	17032.2	16215.15
813.8291	448.0091	16970.6	16154.7
813.973	450.1806	16902.1	16084
814.1168	452.3514	16814.45	15993.2
814.2607	454.5216	16790.25	15959.75
814.4046	456.6913	16734.25	15909.55
814.5485	458.8603	16754.4	15931.3
814.6924	461.0288	16831.5	16008.25
814.8363	463.1967	16797.9	15976.9
814.9802	465.3639	16907.4	16084.45
815.1241	467.5306	16982.2	16157.75
815.2681	469.6967	17059.7	16236.25
815.412	471.8622	17177.65	16355.15
815.556	474.0271	17325.7	16499.15
815.7	476.1914	17351.95	16525.05
815.844	478.3551	17338.9	16514.9
815.988	480.5182	17325.25	16503.95
816.132	482.6807	17307.5	16481.25
816.276	484.8426	17431.45	16606.75
816.4201	487.0039	17735.6	16908.15
816.5641	489.1647	18119.4	17291.85
816.7082	491.3248	18567	17737.85
816.8522	493.4843	18736.7	17907.75
816.9963	495.6432	18688.05	17859
817.1404	497.8015	18541.1	17709.1
817.2845	499.9592	18519.25	17692.75
817.4286	502.1163	18429	17598.15
817.5727	504.2728	18108	17274.7
817.7168	506.4287	17831.35	17001.1
817.861	508.5839	17380.6	16548.8
818.0051	510.7386	17058.9	16228.65
818.1493	512.8927	16862.95	16022.5
818.2935	515.0461	16752.3	15919.7
818.4377	517.199	16704.95	15873.35
818.5818	519.3512	16739	15906.3
818.726	521.5029	16841.65	16001.85
818.8703	523.6539	16909	16074.95
819.0145	525.8043	16973.55	16137.35
819.1587	527.9541	16952.2	16117.45
819.303	530.1033	16883.95	16048.45
819.4472	532.2519	16843.45	16006.7
819.5915	534.3999	16952.35	16113.15
819.7357	536.5472	17157.9	16319.5
819.88	538.694	17553	16715.35
820.0243	540.8401	18102.75	17262.45
820.1686	542.9856	18564.45	17723.3
820.3129	545.1305	18653	17810.15
820.4572	547.2748	18512.7	17672.25
820.6016	549.4185	18163.85	17323.5
820.7459	551.5615	17831.4	16990.15
820.8902	553.704	17690.45	16851.05
821.0346	555.8458	17623.2	16782.25
821.1789	557.987	17676.55	16837.75
821.3233	560.1276	17659.95	16817.6
821.4677	562.2675	17768	16927.2
821.6121	564.4069	17914.6	17071.85
821.7565	566.5456	17979.05	17136.6
821.9009	568.6837	17932.4	17090
822.0453	570.8212	17614.1	16771.8
822.1897	572.958	17177.85	16335.05
822.3342	575.0942	16786	15946.3
822.4786	577.2299	16504.95	15663.8
822.6231	579.3648	16382.75	15539.3
822.7675	581.4992	16451.55	15609.95
822.912	583.6329	16605.9	15762.95
823.0565	585.766	16830.05	15989.25
823.201	587.8985	16945.5	16102.35
823.3454	590.0304	16937.8	16070.6
823.4899	592.1616	16863.95	16021.35
823.6345	594.2922	16738.9	15894.5
823.779	596.4222	16513.3	15666.5
823.9235	598.5515	16323	15474
824.068	600.6802	16143.45	15298.05
824.2126	602.8083	15943.65	15097.95
824.3571	604.9358	15895.35	15046.1
824.5017	607.0626	15794.15	14944.25
824.6462	609.1888	15775.8	14927
824.7908	611.3144	15777.6	14931.55
824.9354	613.4393	15697.7	14848.05
825.08	615.5636	15620.75	14772.9
825.2246	617.6873	15566.35	14717.95
825.3692	619.8103	15467.15	14616.2
825.5138	621.9327	15350.85	14496.95
825.6584	624.0544	15250.2	14399.6
825.803	626.1756	15190.8	14343.4
825.9477	628.2961	15090.9	14238.45
826.0923	630.4159	14986.8	14136.85
826.237	632.5351	14959.7	14108.3
826.3816	634.6537	14901.35	14049.95
826.5263	636.7716	14887.2	14035.8
826.6709	638.8889	14837.05	13983.4
826.8156	641.0056	14863.1	14010.8
826.9603	643.1216	14817	13964
827.105	645.237	14832.05	13977.1
827.2497	647.3518	14761.6	13908.15
827.3944	649.4659	14768.4	13917.2
827.5391	651.5793	14762.9	13906.8
827.6838	653.6922	14720.9	13870.05
827.8285	655.8043	14683.15	13828.7
827.9733	657.9159	14670	13813.6
828.118	660.0268	14568.8	13710.25
828.2627	662.137	14514.7	13658.55
828.4075	664.2466	14500	13639.55
828.5522	666.3556	14450.45	13594.05
828.697	668.4639	14436.65	13574.5
828.8418	670.5716	14439.95	13583.45
828.9865	672.6786	14497.25	13638.9
829.1313	674.785	14497.85	13638.65
829.2761	676.8907	14503.9	13644.8
829.4209	678.9958	14585.25	13729.35
829.5657	681.1002	14533.75	13674.9
829.7105	683.204	14493.55	13632.7
829.8553	685.3072	14418.6	13559.75
830.0001	687.4097	14378.25	13519.3
830.1449	689.5115	14314.1	13452.55
830.2898	691.6127	14285.4	13425.65
830.4346	693.7132	14178.95	13317.6
830.5794	695.8131	14168.1	13291.85
830.7243	697.9123	14125.55	13263.95
830.8691	700.0109	14084.2	13224.35
831.014	702.1089	14069.7	13210.3
831.1588	704.2061	14058.6	13200
831.3037	706.3028	14050.1	13187.2
831.4486	708.3987	14059.9	13200.85
831.5935	710.4941	14146.45	13285.35
831.7383	712.5887	14322.6	13461.05
831.8832	714.6827	14543.05	13679.95
832.0281	716.7761	14838.1	13976.2
832.173	718.8688	15135.6	14275.1
832.3179	720.9608	15313.15	14447.7
832.4628	723.0522	15381.1	14514.05
832.6077	725.1429	15219.75	14355.55
832.7527	727.233	15013	14150
832.8976	729.3224	14834.1	13969.45
833.0425	731.4112	14584.85	13721.35
833.1874	733.4993	14338.35	13468.5
833.3324	735.5867	14151.8	13287.75
833.4773	737.6735	14004.1	13137.9
833.6222	739.7596	13882.15	13014.5
833.7672	741.845	13792.2	12928.5
833.9122	743.9298	13745.9	12878.15
834.0571	746.014	13695.7	12829.45
834.2021	748.0974	13704.65	12838.3
834.347	750.1802	13671.45	12805.1
834.492	752.2624	13706.15	12842.65
834.637	754.3439	13692.35	12824.1
834.782	756.4247	13791.7	12914
834.9269	758.5048	13896.4	13029.85
835.0719	760.5843	14129.1	13262.3
835.2169	762.6631	14457.05	13589.95
835.3619	764.7413	14949.95	14085.3
835.5069	766.8188	15584.6	14716.35
835.6519	768.8956	16059.8	15191.8
835.7969	770.9718	16380.25	15514.15
835.9419	773.0473	16248	15381.45
836.0869	775.1221	15918.5	15052.8
836.232	777.1962	15506	14636.5
836.377	779.2697	15342.65	14474.95
836.522	781.3426	15371.2	14494.15
836.667	783.4147	15571.65	14702.35
836.8121	785.4862	15783.6	14918
836.9571	787.557	15760.15	14894.05
837.1021	789.6271	15363.05	14492.15
837.2472	791.6966	14748.3	13881.45
837.3922	793.7654	14160.85	13290.4
837.5373	795.8335	13819.85	12951.2
837.6823	797.901	13531.2	12663.5
837.8274	799.9678	13417.45	12544.85
837.9724	802.0339	13373.15	12504.7
838.1175	804.0993	13398.25	12519.55
838.2626	806.1641	13363.35	12492.6
838.4076	808.2282	13307.05	12439.6
838.5527	810.2916	13200.2	12326.35
838.6978	812.3544	13097.3	12229.75
838.8428	814.4164	12992.65	12123.25
838.9879	816.4778	12989.1	12118.3
839.133	818.5385	12985.2	12116.2
839.2781	820.5986	13081.2	12210
839.4232	822.658	13212.15	12340.35
839.5682	824.7166	13349.1	12481.5
839.7133	826.7747	13627.05	12759.2
839.8584	828.832	13926.5	13055.7
840.0035	830.8886	14109.35	13237.35
840.1486	832.9446	14264.35	13392.35
840.2937	834.9999	14224.2	13354
840.4388	837.0545	14150.95	13276.7
840.5839	839.1085	14042.35	13169.75
840.729	841.1618	13908.2	13032.6
840.8741	843.2143	13785.7	12914
841.0192	845.2662	13617.75	12746.6
841.1643	847.3175	13565.75	12692.6
841.3095	849.368	13427.8	12558.4
841.4546	851.4179	13300.9	12428.5
841.5997	853.467	13154.95	12283.75
841.7448	855.5155	13043.25	12171
841.8899	857.5633	12938.65	12068.6
842.0351	859.6105	12823.5	11950.75
842.1802	861.6569	12714.2	11841
842.3253	863.7027	12634.7	11759.65
842.4704	865.7478	12614.2	11742.15
842.6156	867.7922	12590.3	11718
842.7607	869.8359	12607.75	11732
842.9058	871.8789	12671.45	11796.95
843.0509	873.9212	12823.85	11918.4
843.1961	875.9629	12932.05	12058.15
843.3412	878.0039	13114.15	12239.95
843.4863	880.0441	13204.95	12333.85
843.6315	882.0837	13186.15	12311.85
843.7766	884.1226	13109.45	12234.6
843.9218	886.1609	13053.95	12182.65
844.0669	888.1984	12967.85	12093.95
844.212	890.2352	12965.6	12094.2
844.3572	892.2714	12893.6	12017.25
844.5023	894.3069	12860.3	11985
844.6475	896.3416	12771.7	11896.75
844.7926	898.3757	12665.7	11792
844.9377	900.4091	12639.2	11765.8
845.0829	902.4418	12624.75	11746.55
845.228	904.4739	12602.8	11727.7
845.3732	906.5052	12648.85	11774.75
845.5183	908.5358	12540.35	11669.8
845.6635	910.5658	12397.6	11518.6
845.8086	912.595	12195.1	11319.55
845.9538	914.6236	12040.05	11164.9
846.0989	916.6515	11944.5	11068.75
846.2441	918.6786	11858.7	10981.95
846.3892	920.7051	11919.7	11042.15
846.5344	922.7309	12011.4	11136.1
846.6795	924.756	12050.9	11175.2
846.8246	926.7804	12119.55	11240.4
846.9698	928.8041	12036.55	11157.35
847.1149	930.8272	12080.1	11205.45
847.2601	932.8495	12009.6	11131.95
847.4052	934.8711	11965.45	11088.15
847.5504	936.892	11847	10970.9
847.6955	938.9123	11705.4	10830.75
847.8407	940.9318	11594.45	10717.65
847.9858	942.9506	11510.6	10632.3
848.131	944.9688	11412.4	10534.3
848.2761	946.9862	11333.1	10456.05
848.4213	949.003	11228.5	10351.5
848.5664	951.019	11187.25	10310.7
848.7115	953.0344	11176.65	10298.75
848.8567	955.0491	11198.1	10319.85
849.0018	957.063	11247.85	10372.65
849.147	959.0763	11348.5	10471.8
849.2921	961.0888	11385.8	10507.5
849.4373	963.1007	11431.75	10554.8
849.5824	965.1119	11468.9	10592.8
849.7275	967.1223	11495	10615.3
849.8727	969.1321	11470.65	10593.6
850.0178	971.1412	11485.9	10604.8
850.1629	973.1495	11505.9	10629.15
850.3081	975.1572	11531.9	10624.05
850.4532	977.1641	11547	10673.45
850.5983	979.1704	11489	10610.35
850.7435	981.1759	11443.15	10562.85
850.8886	983.1808	11493.3	10611.9
851.0337	985.1849	11591.25	10709.4
851.1788	987.1884	11692.8	10812.05
851.324	989.1911	11854.8	10973.35
851.4691	991.1932	11986.05	11105.6
851.6142	993.1945	12010.1	11130.15
851.7593	995.1951	11945.6	11065.05
851.9045	997.1951	11923.55	11037.85
852.0496	999.1943	11866.9	10988.05
852.1947	1001.1928	11797.2	10918.5
852.3398	1003.1906	11808.35	10930.75
852.4849	1005.1877	11856.25	10975.95
852.63	1007.1841	11841	10961.9
852.7751	1009.1798	11811	10932.8
852.9202	1011.1748	11630.3	10753.4
853.0653	1013.1691	11442	10562.45
853.2104	1015.1627	11197.3	10319.6
853.3555	1017.1556	10960.9	10082.25
853.5006	1019.1477	10842.6	9963.5
853.6457	1021.1392	10758.35	9880.9
853.7908	1023.1299	10733.9	9857.55
853.9359	1025.12	10764.5	9882.85
854.081	1027.1093	10777.3	9898.15
854.2261	1029.0979	10877.6	9998.6
854.3712	1031.0859	10929.45	10050.4
854.5163	1033.0731	10939.45	10057.4
854.6613	1035.0596	10851.35	9972.15
854.8064	1037.0454	10719.65	9840.85
854.9515	1039.0304	10586.6	9705.25
855.0965	1041.0148	10465.25	9587.2
855.2416	1042.9985	10351.1	9472.7
855.3867	1044.9814	10300.1	9421.35
855.5317	1046.9636	10223.7	9341.45
855.6768	1048.9452	10223.55	9343.5
855.8219	1050.926	10224.3	9346.45
855.9669	1052.9061	10222.6	9342.95
856.112	1054.8855	10211.75	9331.8
856.257	1056.8642	10248.95	9370.35
856.4021	1058.8421	10295.15	9413
856.5471	1060.8194	10315.5	9435.15
856.6921	1062.7959	10328.6	9448.8
856.8372	1064.7717	10340.55	9459.65
856.9822	1066.7469	10372.1	9492.4
857.1272	1068.7213	10393.95	9512.35
857.2723	1070.695	10408.85	9529.35
857.4173	1072.6679	10354.65	9472.35
857.5623	1074.6402	10304.5	9424.2
857.7073	1076.6117	10290.7	9403.9
857.8523	1078.5826	10240.3	9359.75
857.9973	1080.5527	10198	9314.6
858.1423	1082.5221	10263.95	9383.45
858.2873	1084.4908	10402.7	9519.75
858.4323	1086.4587	10554.45	9674.15
858.5773	1088.426	10657.15	9776.15
858.7223	1090.3925	10678.1	9793.15
858.8673	1092.3584	10616.4	9736.9
859.0123	1094.3235	10501.8	9621.3
859.1573	1096.2879	10450.8	9568.25
859.3022	1098.2515	10486.9	9606.2
859.4472	1100.2145	10554.6	9675.6
859.5922	1102.1767	10660.9	9777.4
859.7371	1104.1382	10827.1	9946.65
859.8821	1106.099	11043.75	10161.25
860.027	1108.0591	11260.95	10382.55
860.172	1110.0185	11452.15	10569.35
860.3169	1111.9771	11446.2	10566.4
860.4619	1113.9351	11271.3	10390.55
860.6068	1115.8923	11020.8	10139.75
860.7517	1117.8488	10723.85	9841.7
860.8967	1119.8045	10446.45	9564.15
861.0416	1121.7596	10306.75	9425.9
861.1865	1123.7139	10203.25	9322.8
861.3314	1125.6675	10188.9	9308
861.4763	1127.6204	10260.45	9382.1
861.6212	1129.5726	10249	9365.55
861.7661	1131.524	10196.75	9315.25
861.911	1133.4748	10131.3	9249.55
862.0559	1135.4248	10074.8	9192.15
862.2008	1137.3741	10046.85	9167.75
862.3457	1139.3226	9958.1	9075.7
862.4905	1141.2705	9913.2	9030.95
862.6354	1143.2176	9821.3	8933.8
862.7803	1145.164	9797.75	8913.05
862.9251	1147.1097	9764.5	8883.55
863.07	1149.0546	9723.5	8840.85
863.2148	1150.9989	9630.15	8748.95
863.3597	1152.9424	9479	8597.45
863.5045	1154.8852	9334.75	8452.45
863.6493	1156.8272	9226.4	8345
863.7942	1158.7686	9164.2	8277.7
863.939	1160.7092	9162.7	8279
864.0838	1162.6491	9166.5	8285.1
864.2286	1164.5883	9259.3	8380
864.3734	1166.5267	9333.85	8451.4
864.5182	1168.4644	9479.8	8598.45
864.663	1170.4014	9676.85	8792.25
864.8078	1172.3377	9907.75	9027.3
864.9526	1174.2732	10156.45	9277
865.0974	1176.2081	10470.8	9588.9
865.2421	1178.1421	10754.7	9868.85
865.3869	1180.0755	11016.9	10134.55
865.5317	1182.0082	11203.6	10320.25
865.6764	1183.9401	11280.35	10398.3
865.8212	1185.8713	11133.05	10255
865.9659	1187.8017	10896.4	10015.2
866.1106	1189.7315	10577.55	9696.35
866.2554	1191.6605	10285.7	9374.7
866.4001	1193.5888	10025.25	9142.8
866.5448	1195.5163	9871.7	8989.4
866.6895	1197.4432	9813.8	8928.75
866.8342	1199.3693	9746.25	8865.15
866.9789	1201.2947	9729.95	8840.15
867.1236	1203.2193	9676.2	8793.75
867.2683	1205.1432	9702.3	8817.35
867.413	1207.0664	9715.65	8833.4
867.5576	1208.9889	9735.35	8849.3
867.7023	1210.9106	9768.1	8884.65
867.847	1212.8316	9769.05	8887.1
867.9916	1214.7519	9851.9	8959.75
868.1363	1216.6715	9855.1	8974.1
868.2809	1218.5903	9866.25	8983.1
868.4255	1220.5084	9865.25	8982.75
868.5701	1222.4257	9894.45	9012.75
868.7148	1224.3424	9860.55	8978.05
868.8594	1226.2583	9936.6	9050.2
869.004	1228.1735	10029	9144.65
869.1486	1230.0879	10117.2	9235.05
869.2932	1232.0016	10253.25	9374.8
869.4377	1233.9146	10284.65	9399.5
869.5823	1235.8269	10188.6	9305.7
869.7269	1237.7384	10098.25	9218.25
869.8715	1239.6492	9902.9	9021.9
870.016	1241.5592	9800.95	8919.3
870.1606	1243.4686	9754.55	8869.8
870.3051	1245.3772	9746	8864.8
870.4496	1247.285	9748.6	8864.6
870.5941	1249.1922	9771.55	8889.15
870.7387	1251.0986	9779.05	8895.85
870.8832	1253.0042	9805.1	8920.65
871.0277	1254.9092	9838.65	8957.5
871.1722	1256.8134	9913.65	9032.75
871.3167	1258.7169	10074.3	9190.8
871.4611	1260.6196	10216.55	9334.85
871.6056	1262.5216	10449	9565.75
871.7501	1264.4229	10662.65	9779.85
871.8945	1266.3234	10790.75	9911.45
872.039	1268.2232	10878.9	9997.7
872.1834	1270.1223	10893.15	10007.5
872.3278	1272.0207	10888.25	10004.3
872.4723	1273.9183	10851.85	9961.4
872.6167	1275.8151	10801.95	9918.3
872.7611	1277.7113	10733	9850.1
872.9055	1279.6067	10632.7	9753.2
873.0499	1281.5014	10588.25	9703.1
873.1943	1283.3953	10631.85	9746.45
873.3386	1285.2885	10763.6	9880.9
873.483	1287.181	10874.6	9990.8
873.6274	1289.0727	11037.35	10154.95
873.7717	1290.9637	11180.3	10296.85
873.9161	1292.854	11304.5	10421.85
874.0604	1294.7435	11387.9	10506.1
874.2047	1296.6323	11499.95	10616
874.349	1298.5204	11621.95	10735.3
874.4933	1300.4077	11728.85	10845.1
874.6376	1302.2943	11756.45	10872.8
874.7819	1304.1802	11741.85	10859.6
874.9262	1306.0653	11536.85	10651.5
875.0705	1307.9497	11299.15	10416.55
875.2147	1309.8333	11080.35	10197
875.359	1311.7162	10950.6	10066.7
875.5032	1313.5984	10903.5	10021
875.6475	1315.4798	10929.55	10043.65
875.7917	1317.3605	11022.45	10121.05
875.9359	1319.2405	11017.35	10130.25
876.0801	1321.1197	10986.7	10101.3
876.2243	1322.9982	10848.7	9962
876.3685	1324.876	10703.6	9819.9
876.5127	1326.753	10575.85	9693.95
876.6569	1328.6293	10528.75	9644.95
876.801	1330.5048	10492.25	9606.3
876.9452	1332.3796	10421	9539
877.0893	1334.2537	10409.55	9499
877.2335	1336.127	10349	9465.65
877.3776	1337.9996	10325.1	9440
877.5217	1339.8714	10307.4	9423.6
877.6658	1341.7426	10320.35	9391.95
877.8099	1343.6129	10272.8	9388.05
877.954	1345.4826	10236.25	9350.05
878.0981	1347.3515	10221.2	9333.05
878.2422	1349.2196	10197.95	9313.9
878.3862	1351.087	10203.85	9320.45
878.5303	1352.9537	10229.2	9346.1
878.6743	1354.8197	10386.45	9502.55
878.8184	1356.6849	10539.55	9654.95
878.9624	1358.5493	10665.25	9780.35
879.1064	1360.4131	10738.85	9854.8
879.2504	1362.276	10756.05	9871.35
879.3944	1364.1383	10646.6	9763.9
879.5384	1365.9998	10429.4	9540.6
879.6823	1367.8606	10095.05	9209.75
879.8263	1369.7206	9773.4	8889.75
879.9702	1371.5799	9495.4	8608.05
880.1142	1373.4384	9273.75	8389.35
880.2581	1375.2962	9099.8	8213.65
880.402	1377.1533	8807.85	7923.8
880.5459	1379.0096	8500.95	7615.7
880.6898	1380.8652	8166.6	7282.5
880.8337	1382.7201	7886.6	7001.1
880.9776	1384.5742	7653.55	6768.1
881.1215	1386.4275	7504.85	6620
881.2653	1388.2802	7358.55	6474.9
881.4092	1390.132	7243.75	6360
881.553	1391.9832	7170.8	6283.7
881.6968	1393.8336	7097.85	6214.35
881.8406	1395.6832	7047.6	6162.4
881.9844	1397.5322	7012.45	6130.35
882.1282	1399.3803	7013.3	6124.65
882.272	1401.2278	6962.5	6079.6
882.4158	1403.0745	6971.1	6088.45
882.5595	1404.9204	6948.75	6065.1
882.7033	1406.7656	6992.5	6105.9
882.847	1408.6101	7009.85	6126.4
882.9908	1410.4538	7048.05	6162.7
883.1345	1412.2968	7100.5	6216.85
883.2782	1414.139	7152.15	6269.3
883.4219	1415.9805	7231	6346.2
883.5656	1417.8213	7331.5	6440.55
883.7092	1419.6613	7460.1	6576.45
883.8529	1421.5006	7636.8	6750.95
883.9965	1423.3391	7871.8	6988.4
884.1402	1425.1769	8202.75	7314.5
884.2838	1427.0139	8682.4	7798.85
884.4274	1428.8502	9273.05	8387.55
884.571	1430.6858	9853.75	8970.3
884.7146	1432.5206	10272.25	9386.95
884.8582	1434.3547	10522.3	9636.55
885.0018	1436.188	10516.9	9632.6
885.1453	1438.0206	10477.55	9592.2
885.2889	1439.8524	10309	9423.4
885.4324	1441.6835	10186.35	9301.8
885.5759	1443.5139	10080.1	9191.5
885.7194	1445.3435	9995.1	9108.5
885.8629	1447.1724	9955.65	9072.25
886.0064	1449.0005	9899.65	9016.1
886.1499	1450.8279	9824.6	8937.7
886.2933	1452.6545	9784.65	8899.85
886.4368	1454.4804	9797.2	8912.7
886.5802	1456.3056	9801.75	8907.4
886.7237	1458.13	9691.35	8806.35
886.8671	1459.9536	9492.7	8608.35
887.0105	1461.7766	9168.85	8285.45
887.1539	1463.5987	8777.1	7891.4
887.2972	1465.4202	8407.1	7523.05
887.4406	1467.2409	8037.95	7152.9
887.584	1469.0608	7738.7	6854.25
887.7273	1470.88	7484.15	6597.5
887.8706	1472.6984	7239.15	6353.45
888.0139	1474.5161	7042.25	6153.55
888.1572	1476.3331	6870.8	5987
888.3005	1478.1493	6751.45	5866.5
888.4438	1479.9648	6646.1	5764.4
888.5871	1481.7795	6568.15	5683.1
888.7303	1483.5935	6481.65	5598.5
888.8736	1485.4067	6427.4	5543.6
889.0168	1487.2192	6375.7	5489.4
889.16	1489.031	6327.7	5441.95
889.3032	1490.842	6281	5396.7
889.4464	1492.6522	6240.75	5353.95
889.5896	1494.4618	6201.2	5314.65
889.7327	1496.2705	6173.55	5288.5
889.8759	1498.0785	6126.65	5242.75
890.019	1499.8858	6095.9	5209.25
890.1622	1501.6924	6086.2	5203.85
890.3053	1503.4981	6045.8	5160.3
890.4484	1505.3032	6030.35	5146.75
890.5914	1507.1075	5990.5	5106.55
890.7345	1508.911	5968.4	5082.8
890.8776	1510.7138	5926.85	5043.15
891.0206	1512.5159	5901.5	5016.5
891.1637	1514.3172	5844.85	4959.75
891.3067	1516.1178	5815.75	4931.2
891.4497	1517.9176	5794.95	4908.05
891.5927	1519.7166	5764.3	4881.2
891.7357	1521.515	5745	4854.9
891.8786	1523.3126	5699.8	4812.8
892.0216	1525.1094	5698.6	4813.85
892.1645	1526.9055	5656.45	4772.5
892.3074	1528.7008	5638.25	4753.35
892.4503	1530.4954	5613.7	4728.7
892.5932	1532.2893	5603.25	4720.25
892.7361	1534.0824	5598.35	4708.3
892.879	1535.8747	5583.8	4700.25
893.0218	1537.6663	5552.85	4666.85
893.1647	1539.4572	5568.25	4681.65
893.3075	1541.2473	5566.9	4681.1
893.4503	1543.0367	5555.25	4672.85
893.5931	1544.8253	5557.55	4669.3
893.7359	1546.6132	5559.55	4673.75
893.8787	1548.4003	5591.15	4694.85
894.0214	1550.1867	5603	4707.95
894.1642	1551.9723	5628.65	4738.6
894.3069	1553.7572	5678.9	4794.75
894.4496	1555.5414	5746.2	4860.65
894.5923	1557.3247	5822.7	4936.85
894.735	1559.1074	5899.6	5015.5
894.8777	1560.8893	5997.65	5115.65
895.0204	1562.6705	6108.45	5223
895.163	1564.4509	6210.65	5325.45
895.3056	1566.2305	6276.15	5393.05
895.4482	1568.0094	6340.2	5456.95
895.5908	1569.7876	6371.05	5486.25
895.7334	1571.565	6389.85	5506.3
895.876	1573.3417	6395.95	5514.95
896.0186	1575.1176	6381.75	5498.25
896.1611	1576.8928	6348.75	5465
896.3036	1578.6672	6297.65	5414.85
896.4461	1580.4409	6212.45	5329.05
896.5886	1582.2138	6134.9	5248.35
896.7311	1583.986	6074.8	5190.4
896.8736	1585.7575	6039	5155.1
897.0161	1587.5282	6001.45	5119.15
897.1585	1589.2981	6010.55	5129.05
897.3009	1591.0673	6005.9	5122.3
897.4433	1592.8358	6024.6	5141.7
897.5857	1594.6035	6067	5181.25
897.7281	1596.3704	6097.6	5214.65
897.8705	1598.1366	6134.5	5251.05
898.0128	1599.9021	6204	5319.45
898.1551	1601.6668	6281.3	5394
898.2975	1603.4308	6381	5496.15
898.4398	1605.194	6500.45	5612.4
898.5821	1606.9564	6624.8	5741
898.7243	1608.7182	6780.75	5893.15
898.8666	1610.4791	7004.6	6119.05
899.0088	1612.2394	7219.6	6336.7
899.1511	1613.9988	7445.8	6561.5
899.2933	1615.7576	7676.75	6794.3
899.4355	1617.5156	7905.35	7019.25
899.5776	1619.2728	8058	7174.3
899.7198	1621.0293	8142.25	7261.6
899.862	1622.785	8129.6	7241.55
900.0041	1624.54	8013.6	7125.95
900.1462	1626.2942	7834.95	6947.75
900.2883	1628.0477	7566.4	6678.2
900.4304	1629.8005	7347.55	6459.75
900.5725	1631.5525	7096.5	6212.05
900.7145	1633.3037	6910.7	6026.45
900.8566	1635.0542	6734.2	5853.25
900.9986	1636.804	6628.15	5743.65
901.1406	1638.553	6606.15	5644
901.2826	1640.3013	6519.45	5636.2
901.4245	1642.0488	6507.95	5622.55
901.5665	1643.7955	6549.35	5665.85
901.7085	1645.5416	6595.4	5710.55
901.8504	1647.2868	6701.8	5819.65
901.9923	1649.0313	6795.3	5914.2
902.1342	1650.7751	6968.15	6081.25
902.2761	1652.5181	7151.9	6266.85
902.4179	1654.2604	7348.2	6464.1
902.5598	1656.0019	7619.5	6737.2
902.7016	1657.7427	7929.9	7048
902.8434	1659.4828	8205.85	7323.95
902.9852	1661.222	8386.55	7503.15
903.127	1662.9606	8367.45	7485.5
903.2687	1664.6984	8171.3	7288.6
903.4105	1666.4354	7740.65	6858.75
903.5522	1668.1717	7228.1	6343.9
903.6939	1669.9072	6696.8	5814.25
903.8356	1671.642	6224.05	5337.35
903.9773	1673.3761	5871.95	4990.8
904.119	1675.1094	5574.05	4690.4
904.2606	1676.8419	5347.45	4464.65
904.4022	1678.5737	5179.55	4296.95
904.5439	1680.3048	5067.85	4182.9
904.6855	1682.0351	4939.6	4056.6
904.827	1683.7646	4858.1	3972.4
904.9686	1685.4934	4784.65	3901.9
905.1101	1687.2215	4718.4	3835.4
905.2517	1688.9488	4667.15	3782.6
905.3932	1690.6754	4615.55	3734.1
905.5347	1692.4012	4599.8	3715.25
905.6761	1694.1263	4554.25	3673.65
905.8176	1695.8506	4525.35	3641.75
905.9591	1697.5742	4481.85	3600.35
906.1005	1699.297	4456.4	3573.25
906.2419	1701.0191	4421.75	3539.7
906.3833	1702.7404	4403.2	3519.4
906.5246	1704.461	4370.8	3485.75
906.666	1706.1808	4336.15	3451.7
906.8073	1707.8999	4344.6	3460
906.9487	1709.6182	4313	3428.65
907.09	1711.3358	4299.35	3416.75
907.2313	1713.0527	4271.5	3390.1
907.3725	1714.7688	4243.65	3357.35
907.5138	1716.4841	4215.5	3330.1
907.655	1718.1987	4216.15	3328.55
907.7962	1719.9126	4196.65	3315.4
907.9374	1721.6257	4168.85	3283.85
908.0786	1723.338	4163	3279.85
908.2198	1725.0496	4151.9	3266.55
908.3609	1726.7605	4147.05	3264
908.502	1728.4706	4127.8	3244.4
908.6431	1730.18	4114.05	3228.25
908.7842	1731.8886	4091.35	3208.55
908.9253	1733.5964	4086.45	3199.2
909.0664	1735.3036	4061.75	3179.2
909.2074	1737.0099	4062.6	3179.9
909.3484	1738.7156	4037.25	3156.1
909.4894	1740.4204	4003.3	3118.25
909.6304	1742.1246	3997.85	3114.1
909.7714	1743.8279	3986.65	3106.25
909.9123	1745.5306	3971.6	3087.6
910.0532	1747.2325	3952.7	3071.3
910.1941	1748.9336	3942.45	3060.35
910.335	1750.634	3915.15	3031.25
910.4759	1752.3336	3908.95	3026.5
910.6168	1754.0325	3893.8	3012.3
910.7576	1755.7307	3893.25	3010.5
910.8984	1757.4281	3883.35	3001.4
911.0392	1759.1247	3884.2	2990.05
911.18	1760.8206	3863.05	2977
911.3208	1762.5158	3861.9	2976.25
911.4615	1764.2102	3841	2957.65
911.6022	1765.9039	3818.75	2937.6
911.7429	1767.5968	3813.35	2929.25
911.8836	1769.289	3820.25	2937.4
912.0243	1770.9804	3811.1	2927.8
912.1649	1772.6711	3803.25	2920.25
912.3056	1774.361	3786	2902.3
912.4462	1776.0502	3796.85	2915.35
912.5868	1777.7386	3786.6	2901.3
912.7274	1779.4263	3767.85	2884.65
912.8679	1781.1132	3768.3	2885.65
913.0084	1782.7994	3752.2	2868.4
913.149	1784.4849	3745.2	2863
913.2895	1786.1696	3742.5	2840.55
913.4299	1787.8535	3726.65	2843.9
913.5704	1789.5367	3731.55	2848.4
913.7108	1791.2192	3712.25	2830.55
913.8513	1792.9009	3713.15	2816.85
913.9917	1794.5818	3696.8	2813.9
914.132	1796.2621	3679.85	2797.85
914.2724	1797.9415	3672	2790.2
914.4128	1799.6202	3674.6	2792.8
914.5531	1801.2982	3679.7	2795
914.6934	1802.9755	3651.1	2767.05
914.8337	1804.6519	3655.35	2771.8
914.9739	1806.3277	3647.25	2764.5
915.1142	1808.0027	3624.35	2741.75
915.2544	1809.6769	3636.25	2752.1
915.3946	1811.3504	3622.65	2738
915.5348	1813.0231	3610.45	2728.65
915.675	1814.6951	3608.45	2726.85
915.8151	1816.3664	3620.45	2735.65
915.9553	1818.0369	3604.55	2723.25
916.0954	1819.7067	3584.85	2701.35
916.2355	1821.3757	3594.7	2710.75
916.3755	1823.044	3579.45	2697.8
916.5156	1824.7115	3580	2698.1
916.6556	1826.3783	3565.15	2684.55
916.7956	1828.0443	3545	2664.1
916.9356	1829.7096	3549.1	2666.1
917.0756	1831.3741	3548.95	2663
917.2155	1833.0379	3543.25	2659.95
917.3555	1834.701	3524.15	2641
917.4954	1836.3633	3526	2642.1
917.6353	1838.0248	3529.95	2645.55
917.7751	1839.6856	3517.55	2635.05
917.915	1841.3457	3514.85	2631.7
918.0548	1843.005	3494.65	2613.5
918.1946	1844.6636	3500.65	2619.2
918.3344	1846.3214	3496	2611.7
918.4742	1847.9785	3488.7	2608.8
918.6139	1849.6349	3487.3	2605.35
918.7537	1851.2904	3491.95	2601.25
918.8934	1852.9453	3460.15	2577.05
919.0331	1854.5994	3455.1	2570.75
919.1727	1856.2528	3477.7	2590.1
919.3124	1857.9054	3454.75	2571.4
919.452	1859.5572	3444.45	2564.1
919.5916	1861.2083	3441.6	2557.65
919.7312	1862.8587	3441.75	2559.7
919.8708	1864.5084	3448.65	2567.9
920.0103	1866.1572	3426.6	2545.3
920.1498	1867.8054	3419.55	2536.55
920.2893	1869.4528	3407.35	2525.65
920.4288	1871.0994	3400.45	2517.75
920.5683	1872.7453	3403	2519.2
920.7077	1874.3905	3398.1	2497.35
920.8471	1876.0349	3394.55	2510.1
920.9865	1877.6786	3384	2500.05
921.1259	1879.3215	3372.65	2491
921.2653	1880.9637	3375.45	2493.05
921.4046	1882.6051	3360.2	2476.45
921.5439	1884.2458	3358.85	2474.85
921.6832	1885.8858	3345.6	2462.35
921.8225	1887.525	3331.85	2447.05
921.9617	1889.1634	3320.8	2440.2
922.101	1890.8011	3326.6	2442.65
922.2402	1892.4381	3318.3	2436.45
922.3794	1894.0743	3314.75	2433.6
922.5185	1895.7098	3294.35	2410.95
922.6577	1897.3446	3313.3	2430.95
922.7968	1898.9786	3298.3	2412.7
922.9359	1900.6118	3300.05	2418.95
923.075	1902.2443	3277.05	2391.25
923.214	1903.8761	3282.65	2400.75
923.3531	1905.5071	3261.9	2378.9
923.4921	1907.1374	3256.2	2373.65
923.6311	1908.7669	3250.9	2367.15
923.77	1910.3957	3245.5	2363.65
923.909	1912.0237	3237.6	2352.25
924.0479	1913.651	3239.45	2357.55
924.1868	1915.2776	3214.8	2332.35
924.3257	1916.9034	3195	2314.55
924.4646	1918.5285	3201.8	2323.15
924.6034	1920.1528	3193.6	2310.4
924.7422	1921.7764	3189.8	2307.85
924.881	1923.3992	3179.5	2298.1
925.0198	1925.0213	3165.3	2283.1
925.1586	1926.6427	3160.1	2279.9
925.2973	1928.2633	3258.05	2250.6
925.436	1929.8832	3161.75	2278.75
925.5747	1931.5023	3134.5	2253.05
925.7134	1933.1207	3128.75	2246.4
925.852	1934.7383	3135.75	2254.2
925.9906	1936.3552	3128.1	2248.3
926.1292	1937.9714	3102.25	2219.75
926.2678	1939.5868	3100.1	2215.05
926.4064	1941.2015	3094.85	2211.75
926.5449	1942.8154	3089.05	2208.1
926.6834	1944.4286	3073.75	2192.5
926.8219	1946.041	3093.15	2187.35
926.9604	1947.6528	3065.8	2179.65
927.0988	1949.2637	3052.1	2168.95
927.2372	1950.8739	3050.75	2168.25
927.3756	1952.4834	3049.6	2166.2
927.514	1954.0921	3041.55	2157.45
927.6523	1955.7001	3026.95	2140.85
927.7907	1957.3074	3016.75	2135.95
927.929	1958.9139	3014.35	2134.15
928.0673	1960.5197	3004.7	2120.2
928.2055	1962.1247	2985.95	2102.95
928.3438	1963.729	2982.2	2101.5
928.482	1965.3325	3000.2	2091.7
928.6202	1966.9353	2965.55	2082.1
928.7584	1968.5374	2963.1	2078.2
928.8965	1970.1387	2956.95	2074.3
929.0346	1971.7393	2952.6	2068.85
929.1727	1973.3392	2944.4	2060.5
929.3108	1974.9383	2936.8	2054.4
929.4489	1976.5366	2919.15	2037.35
929.5869	1978.1342	2925.75	2042.8
929.7249	1979.7311	2921.45	2036.65
929.8629	1981.3273	2907.5	2023.7
930.0009	1982.9227	2910.2	2024.75
930.1388	1984.5173	2887.25	2003.75
930.2767	1986.1112	2884.95	2003.95
930.4146	1987.7044	2891.85	2009.6
930.5525	1989.2968	2876.35	1995.2
930.6904	1990.8885	2877.15	1990.4
930.8282	1992.4795	2868.2	1986
930.966	1994.0697	2858.55	1976.4
931.1038	1995.6592	2853.4	1971.35
931.2415	1997.2479	2850.9	1966.85
931.3793	1998.8359	2845.35	1962.4
931.517	2000.4232	2829.75	1947.15
931.6547	2002.0097	2818.9	1938.3
931.7923	2003.5955	2830.6	1949.6
931.93	2005.1805	2828.25	1944.95
932.0676	2006.7648	2823.15	1941.2
932.2052	2008.3484	2810.85	1926
932.3427	2009.9312	2808.1	1922.8
932.4803	2011.5133	2807.15	1926
932.6178	2013.0946	2797.15	1914.65
932.7553	2014.6752	2791.75	1909
932.8928	2016.2551	2792.05	1909
933.0302	2017.8342	2792.75	1910.3
933.1676	2019.4126	2769.95	1887.75
933.305	2020.9902	2775.55	1892.95
933.4424	2022.5672	2764.65	1880.5
933.5798	2024.1433	2775	1883.7
933.7171	2025.7188	2754.1	1871.7
933.8544	2027.2935	2752.5	1868.1
933.9917	2028.8674	2758.9	1873.7
934.129	2030.4406	2730.9	1848.85
934.2662	2032.0131	2731.45	1850.05
934.4034	2033.5849	2729.9	1842.35
934.5406	2035.1559	2722.2	1839.95
934.6778	2036.7261	2716.35	1833.45
934.8149	2038.2957	2707.2	1824.65
934.952	2039.8645	2709.75	1828.15
935.0891	2041.4325	2706.15	1821.95
935.2262	2042.9998	2703.95	1821.75
935.3632	2044.5664	2694.1	1809
935.5002	2046.1323	2695.05	1811.35
935.6372	2047.6974	2677.3	1795.4
935.7742	2049.2617	2673.8	1791.4
935.9111	2050.8254	2695.5	1779.35
936.048	2052.3883	2667.9	1784.6
936.1849	2053.9504	2670.05	1788
936.3218	2055.5118	2673.7	1789.9
936.4586	2057.0725	2650.35	1764.8
936.5955	2058.6325	2638.25	1755.15
936.7323	2060.1917	2650.25	1767.8
936.869	2061.7502	2643.05	1757.25
937.0058	2063.3079	2635.95	1752.5
937.1425	2064.8649	2637.65	1750.65
937.2792	2066.4212	2643.1	1759.35
937.4159	2067.9767	2628.1	1745.9
937.5525	2069.5315	2616.25	1735.25
937.6891	2071.0856	2606.5	1721.25
937.8257	2072.6389	2598.8	1716
937.9623	2074.1915	2589.5	1706.65
938.0989	2075.7433	2581.15	1696.6
938.2354	2077.2945	2574.45	1693.8
938.3719	2078.8448	2571.65	1691.4
938.5084	2080.3945	2565.9	1683.9
938.6448	2081.9434	2559.3	1677.15
938.7812	2083.4916	2566.1	1683.15
938.9176	2085.039	2551.2	1666.25
939.054	2086.5857	2546.85	1664.6
939.1903	2088.1317	2533.85	1649.4
939.3267	2089.677	2537.25	1654.75
939.463	2091.2215	2538.9	1657.35
939.5992	2092.7652	2527.05	1642.15
939.7355	2094.3083	2520.6	1636.95
939.8717	2095.8506	2523.85	1641.75
940.0079	2097.3921	2530.95	1650
940.1441	2098.933	2511.6	1629.5
940.2802	2100.4731	2505.65	1624.95
940.4163	2102.0124	2527	1625.9
940.5524	2103.5511	2496.95	1614.15
940.6885	2105.089	2511.45	1628.3
940.8245	2106.6261	2485.7	1602.45
940.9606	2108.1626	2509.35	1625.55
941.0965	2109.6983	2524.15	1611.85
941.2325	2111.2332	2497.65	1614.55
941.3684	2112.7675	2495	1612
941.5044	2114.301	2489.2	1607.25
941.6403	2115.8337	2482.35	1599.4
941.7761	2117.3657	2478.4	1595.15
941.912	2118.897	2480.05	1596.45
942.0478	2120.4276	2480.55	1592.45
942.1835	2121.9575	2448.6	1564.65
942.3193	2123.4866	2462.9	1566
942.455	2125.0149	2451.65	1567.25
942.5907	2126.5426	2437.55	1554.2
942.7264	2128.0695	2437.45	1550.7
942.8621	2129.5956	2431.95	1550.85
942.9977	2131.1211	2433.4	1545.5
943.1333	2132.6458	2439.9	1557.7
943.2689	2134.1698	2422.55	1537.85
943.4044	2135.693	2422.4	1538.7
943.54	2137.2155	2420.25	1535.65
943.6755	2138.7373	2415.35	1530.85
943.8109	2140.2584	2410.65	1527
943.9464	2141.7787	2406.7	1519.1
944.0818	2143.2983	2393.65	1510.45
944.2172	2144.8171	2388.2	1505.75
944.3526	2146.3353	2390.8	1504.85
944.4879	2147.8527	2378.8	1497.25
944.6232	2149.3693	2387.45	1503.65
944.7585	2150.8853	2376.45	1493.05
944.8938	2152.4005	2364.75	1479.1
945.029	2153.9149	2362.05	1478.75
945.1642	2155.4287	2361.5	1478.95
945.2994	2156.9417	2363.35	1480.3
945.4346	2158.454	2359	1474.1
945.5697	2159.9655	2346.25	1462.55
945.7048	2161.4764	2348.45	1465.2
945.8399	2162.9865	2349.35	1466.1
945.9749	2164.4958	2344	1459.65
946.1099	2166.0045	2340	1454.05
946.2449	2167.5124	2338.5	1454.45
946.3799	2169.0195	2339.3	1456.9
946.5148	2170.526	2335.2	1452.1
946.6498	2172.0317	2323.05	1438.85
946.7846	2173.5367	2323.75	1439.2
946.9195	2175.0409	2309.15	1427.5
947.0543	2176.5445	2314.75	1433.5
947.1891	2178.0473	2313.85	1430.35
947.3239	2179.5494	2305.8	1419.2
947.4587	2181.0507	2299.65	1415.3
947.5934	2182.5513	2301.15	1417.2
947.7281	2184.0512	2294.45	1410.05
947.8628	2185.5504	2286	1403.2
947.9974	2187.0488	2285.85	1401.9
948.132	2188.5465	2287.3	1405.5
948.2666	2190.0435	2276.8	1392.7
948.4012	2191.5397	2266.45	1383.35
948.5357	2193.0353	2257.75	1375.95
948.6702	2194.5301	2254.05	1370.35
948.8047	2196.0241	2265.95	1382.65
948.9392	2197.5175	2253.6	1372.35
949.0736	2199.0101	2245.1	1359.1
949.208	2200.502	2241.4	1360.45
949.3424	2201.9931	2240.05	1355.1
949.4767	2203.4835	2238.1	1352.8
949.611	2204.9733	2234	1343.85
949.7453	2206.4622	2222	1339.85
949.8796	2207.9505	2225.7	1339.65
950.0138	2209.438	2210.8	1327.8
950.148	2210.9248	2215.7	1329.95
950.2822	2212.4109	2211.65	1329.35
950.4164	2213.8962	2208.15	1322.85
950.5505	2215.3809	2200.4	1317.45
950.6846	2216.8648	2214.1	1332.5
950.8186	2218.3479	2201.4	1313.8
950.9527	2219.8304	2190.05	1304.7
951.0867	2221.3121	2185.75	1301.1
951.2207	2222.7931	2178.95	1295.15
951.3546	2224.2733	2181.65	1297.1
951.4886	2225.7529	2165	1281.1
951.6225	2227.2317	2166.2	1278.85
951.7563	2228.7098	2164.25	1282.15
951.8902	2230.1872	2156.45	1272.3
952.024	2231.6638	2160.5	1275.9
952.1578	2233.1397	2153.05	1263.95
952.2916	2234.6149	2151.65	1269.1
952.4253	2236.0894	2142.5	1255.7
952.559	2237.5632	2136.5	1242.55
952.6927	2239.0362	2124.55	1241.2
952.8263	2240.5085	2130.35	1245.9
952.9599	2241.9801	2117.8	1234
953.0935	2243.4509	2117.65	1234.6
953.2271	2244.921	2103.3	1220.65
953.3606	2246.3904	2115.1	1230.3
953.4941	2247.8591	2109.2	1228.3
953.6276	2249.3271	2111.3	1228.9
953.7611	2250.7943	2097.55	1213.5
953.8945	2252.2608	2098.6	1216.5
954.0279	2253.7266	2083.4	1201.95
954.1612	2255.1917	2088.35	1202.8
954.2946	2256.656	2081.5	1198.65
954.4279	2258.1197	2085.1	1201.85
954.5612	2259.5826	2076.9	1192.2
954.6944	2261.0447	2073.45	1189.05
954.8276	2262.5062	2069	1182.1
954.9608	2263.9669	2073.65	1189.75
955.094	2265.4269	2065.7	1181.55
955.2271	2266.8862	2066	1181.9
955.3602	2268.3448	2058.75	1174.4
955.4933	2269.8026	2061.6	1180.2
955.6264	2271.2598	2053.55	1170.9
955.7594	2272.7162	2047.85	1166.05
955.8924	2274.1719	2044.45	1162.45
956.0253	2275.6268	2045.15	1161.8
956.1583	2277.0811	2039.6	1155.75
956.2912	2278.5346	2040.5	1158.65
956.4241	2279.9874	2038.05	1155.95
956.5569	2281.4395	2044.55	1163
956.6897	2282.8908	2032.8	1144.5
956.8225	2284.3414	2022.35	1136.05
956.9553	2285.7914	2025.8	1142.15
957.088	2287.2406	2021.1	1135.85
957.2207	2288.689	2019.8	1138.4
957.3534	2290.1368	2020.2	1136.8
957.486	2291.5838	2016.75	1133.3
957.6186	2293.0302	2017.05	1132.7
957.7512	2294.4758	2002	1119
957.8838	2295.9206	2004.45	1118.8
958.0163	2297.3648	2000.8	1116.65
958.1488	2298.8082	2001.9	1118.2
958.2813	2300.251	1989.8	1106.85
958.4137	2301.693	1991.85	1106.7
958.5461	2303.1343	1982.8	1097.35
958.6785	2304.5748	1981	1096.8
958.8108	2306.0147	1979.55	1096.5
958.9432	2307.4538	1969.2	1083.95
959.0754	2308.8922	1979.8	1098.45
959.2077	2310.3299	1971.2	1087.2
959.3399	2311.7669	1962	1078.65
959.4721	2313.2031	1960.1	1075.5
959.6043	2314.6387	1971.4	1089.75
959.7365	2316.0735	1959.6	1077
959.8686	2317.5076	1951.3	1067.5
960.0006	2318.941	1952.95	1070.5
960.1327	2320.3737	1944.05	1059.4
960.2647	2321.8056	1941.85	1056.8
960.3967	2323.2369	1951.85	1069.7
960.5287	2324.6674	1941.75	1056.8
960.6606	2326.0972	1931.8	1046.3
960.7925	2327.5263	1927.5	1045.35
960.9244	2328.9547	1928.1	1043.65
961.0562	2330.3823	1931.4	1046.5
961.1881	2331.8092	1933.85	1048.05
961.3198	2333.2355	1917.35	1034.4
961.4516	2334.661	1920.8	1036.1
961.5833	2336.0858	1919.05	1033.85
961.715	2337.5098	1919.9	1036.7
961.8467	2338.9332	1913.9	1029.95
961.9783	2340.3558	1904.3	1016.75
962.1099	2341.7778	1904.2	1020.45
962.2415	2343.199	1894.3	1009
962.373	2344.6195	1895.25	1011.15
962.5045	2346.0393	1906.6	1023.4
962.636	2347.4583	1902.6	1018.95
962.7675	2348.8767	1897.15	1011.7
962.8989	2350.2943	1894.65	1010.9
963.0303	2351.7113	1904.25	1019.85
963.1617	2353.1275	1902.05	1019.3
963.293	2354.543	1910.4	1002.4
963.4243	2355.9578	1896.2	1013.45
963.5556	2357.3718	1881.95	999.1
963.6868	2358.7852	1884.05	999.45
963.818	2360.1978	1871.9	987
963.9492	2361.6098	1877	996.1
964.0803	2363.021	1871.25	982.45
964.2114	2364.4315	1863.15	980.95
964.3425	2365.8413	1868.7	982.05
964.4736	2367.2504	1868.7	987.45
964.6046	2368.6587	1853.3	969.45
964.7356	2370.0664	1853.15	967.9
964.8666	2371.4733	1855.1	972.4
964.9975	2372.8795	1850.25	967.25
965.1284	2374.285	1849.8	966.35
965.2593	2375.6899	1840.8	957.15
965.3901	2377.0939	1828.8	947.6
965.5209	2378.4973	1830.35	949.05
965.6517	2379.9	1830.05	947
965.7825	2381.3019	1832.85	950.9
965.9132	2382.7032	1824.15	942.25
966.0439	2384.1037	1820.1	940.15
966.1745	2385.5035	1816.25	934.25
966.3051	2386.9027	1814.45	931.9
966.4357	2388.3011	1818.8	931.55
966.5663	2389.6987	1807.85	925.3
966.6968	2391.0957	1803.75	920.75
966.8273	2392.492	1795.6	914.95
966.9578	2393.8876	1793.45	910.15
967.0882	2395.2824	1803.45	919.45
967.2186	2396.6765	1791.6	911.3
967.349	2398.07	1786.55	904.3
967.4793	2399.4627	1783.9	901.95
967.6097	2400.8547	1777.85	895.8
967.7399	2402.246	1786.05	897.15
967.8702	2403.6366	1777.9	896.2
968.0004	2405.0265	1771.85	887.2
968.1306	2406.4156	1773.4	884.4
968.2607	2407.8041	1772.65	886.6
968.3909	2409.1918	1764.3	878.5
968.521	2410.5789	1766.45	882.5
968.651	2411.9652	1771.75	883.4
968.781	2413.3508	1762.75	879.4
968.911	2414.7358	1760.2	877.45
969.041	2416.12	1756.3	872.65
969.1709	2417.5035	1759.8	877.35
969.3008	2418.8863	1748.75	865.95
969.4307	2420.2684	1748.25	866.45
969.5606	2421.6497	1744.8	862.55
969.6904	2423.0304	1734.5	853.1
969.8201	2424.4104	1738.95	856.85
969.9499	2425.7896	1737.9	852.9
970.0796	2427.1682	1733.05	851.1
970.2093	2428.546	1728.5	847.8
970.3389	2429.9232	1742.8	859.05
970.4685	2431.2996	1724.6	840.8
970.5981	2432.6753	1728.7	845.5
970.7277	2434.0503	1722.85	838.55
970.8572	2435.4246	1719.95	839
970.9867	2436.7982	1725.35	839.85
971.1161	2438.1711	1711.85	831
971.2456	2439.5433	1711.55	827.1
971.375	2440.9148	1709.9	819.25
971.5043	2442.2856	1699.85	817.75
971.6336	2443.6557	1702.55	818.95
971.7629	2445.025	1702.1	820.55
971.8922	2446.3937	1700.25	818.65
972.0214	2447.7617	1692.25	809.75
972.1506	2449.1289	1691.1	807.9
972.2798	2450.4955	1697.25	811.15
972.4089	2451.8613	1686	805.4
972.538	2453.2265	1691.4	808.8
972.6671	2454.5909	1680.85	799.65
972.7961	2455.9546	1682.65	799.15
972.9251	2457.3177	1677.75	795
973.0541	2458.68	1677.95	795.45
973.1831	2460.0416	1682.3	798.65
973.312	2461.4025	1683.15	799.05
973.4408	2462.7627	1689.6	796.3
973.5697	2464.1222	1672.1	791.05
973.6985	2465.4811	1676.3	792
973.8273	2466.8392	1667.05	783.1
973.956	2468.1966	1666.5	781.55
974.0847	2469.5533	1677.4	794.7
974.2134	2470.9093	1674.9	790.55
974.3421	2472.2645	1668.75	784.2
974.4707	2473.6191	1665.2	782.05
974.5993	2474.973	1658.6	774.4
974.7278	2476.3262	1667.95	782.5
974.8563	2477.6787	1649.9	768.25
974.9848	2479.0305	1651.9	768.8
975.1132	2480.3816	1657.15	774.25
975.2417	2481.7319	1648.1	765.05
975.37	2483.0816	1647.7	764.1
975.4984	2484.4306	1646.7	761.1
975.6267	2485.7789	1646.8	763.65
975.755	2487.1264	1640.1	756.65
975.8833	2488.4733	1636.05	755.45
976.0115	2489.8195	1656.25	757.95
976.1397	2491.165	1629.6	743.6
976.2678	2492.5097	1633.05	747.55
976.3959	2493.8538	1629.7	748.05
976.524	2495.1972	1619.65	733.75
976.6521	2496.5398	1618.15	734.05
976.7801	2497.8818	1617.2	734.8
976.9081	2499.2231	1606.2	723.1
977.036	2500.5637	1604.1	719.1
977.164	2501.9035	1607.2	724.1
977.2918	2503.2427	1612.15	724.6
977.4197	2504.5812	1606.05	722.95
977.5475	2505.919	1610.05	723.95
977.6753	2507.256	1611.05	728.25
977.8031	2508.5924	1611	727.8
977.9308	2509.9281	1605.1	716.05
978.0585	2511.2631	1596.2	713.35
978.1861	2512.5974	1597.9	714.75
978.3137	2513.9309	1599.35	717.55
978.4413	2515.2638	1614.6	703
978.5689	2516.596	1593.1	711.05
978.6964	2517.9275	1588.5	703.7
978.8239	2519.2583	1592.4	709.2
978.9513	2520.5884	1587.45	704.35
979.0788	2521.9178	1578	695.85
979.2062	2523.2465	1580.25	695.4
979.3335	2524.5745	1587.75	704.3
979.4608	2525.9018	1573.7	689.15
979.5881	2527.2284	1571.55	688.65
979.7154	2528.5543	1573.3	691.7
979.8426	2529.8796	1576.35	692.95
979.9698	2531.2041	1559.95	676.25
980.0969	2532.5279	1568.15	688.4
980.224	2533.851	1582.45	697.85
980.3511	2535.1735	1568.8	683.3
980.4781	2536.4952	1564.55	683.25
980.6052	2537.8163	1569.75	685.8
980.7321	2539.1366	1563.95	683.15
980.8591	2540.4562	1571.65	688.95
980.986	2541.7752	1558.3	676.7
981.1129	2543.0935	1559.95	676.95
981.2397	2544.411	1557.45	674.4
981.3665	2545.7279	1555.65	672.15
981.4933	2547.0441	1555.3	673.2
981.62	2548.3596	1555.3	669.5
981.7467	2549.6744	1550.95	667.4
981.8734	2550.9885	1548.6	663.1
982.0001	2552.3019	1547.5	666.5
982.1267	2553.6146	1546.15	663.35
982.2532	2554.9266	1552.55	668.4
982.3798	2556.2379	1533.4	648.65
982.5063	2557.5485	1542.6	660.7
982.6327	2558.8585	1547.2	655.95
982.7592	2560.1677	1540.05	651.5
982.8856	2561.4762	1534.55	649.25
983.0119	2562.7841	1532.65	648.2
983.1383	2564.0913	1535.65	653.5
983.2646	2565.3977	1535.5	655.25
983.3908	2566.7035	1528.15	644.45
983.517	2568.0086	1522.4	640.25
983.6432	2569.313	1532.1	650.35
983.7694	2570.6167	1533.1	645.55
983.8955	2571.9197	1522.1	639.2
984.0216	2573.222	1525.3	638.45
984.1476	2574.5236	1538.35	654.55
984.2737	2575.8246	1519.7	634
984.3996	2577.1248	1520.35	634.05
984.5256	2578.4244	1519.1	638.4
984.6515	2579.7232	1528.15	646.05
984.7774	2581.0214	1558.1	645.7
984.9032	2582.3189	1522.65	640.3
985.029	2583.6157	1525.1	635.95
985.1548	2584.9118	1528.8	648.2
985.2806	2586.2072	1527.1	643.85
985.4063	2587.5019	1517.2	634.9
985.5319	2588.7959	1528.2	644
985.6576	2590.0893	1532.6	648.35
985.7832	2591.3819	1522.9	638.85
985.9087	2592.6739	1525.9	644.5
986.0343	2593.9652	1531.4	645.95
986.1597	2595.2557	1528.8	647.3
986.2852	2596.5456	1524.25	638.85
986.4106	2597.8348	1538.25	655.1
986.536	2599.1234	1527.25	645.8
986.6614	2600.4112	1520.75	636.95
986.7867	2601.6983	1530.4	642.45
986.912	2602.9848	1528.85	644.25
987.0372	2604.2705	1529.85	640.6
987.1624	2605.5556	1528.3	643.5
987.2876	2606.84	1521.75	639.65
987.4128	2608.1237	1518.85	635.4
987.5379	2609.4067	1516.6	632.75
987.6629	2610.689	1519.15	626.6
987.788	2611.9707	1520.2	636.55
987.913	2613.2516	1515.9	627.35
988.0379	2614.5319	1511.35	626.85
988.1629	2615.8115	1502.9	618.9
988.2878	2617.0903	1507.6	624.4
988.4126	2618.3685	1506.8	622.95
988.5375	2619.6461	1501.1	617.7
988.6622	2620.9229	1506.1	620.1
988.787	2622.199	1503.85	618.85
988.9117	2623.4745	1511.7	629.5
989.0364	2624.7493	1497.15	614.1
989.161	2626.0234	1496.55	616.1
989.2857	2627.2968	1497.25	614.25
989.4102	2628.5695	1500.9	616.2
989.5348	2629.8415	1501.5	619.95
989.6593	2631.1128	1496.45	611.9
989.7837	2632.3835	1494.8	611.85
989.9082	2633.6535	1496.3	613
990.0326	2634.9228	1491.95	610.4
990.1569	2636.1914	1498.35	615.7
990.2812	2637.4593	1491.1	606.7
990.4055	2638.7265	1482.7	598.5
990.5298	2639.9931	1485.5	603.25
990.654	2641.259	1484.2	599.05
990.7782	2642.5242	1485.6	601.15
990.9023	2643.7887	1477.95	594.85
991.0264	2645.0525	1479.25	597.45
991.1505	2646.3156	1473.3	590.5
991.2745	2647.5781	1471.5	589.45
991.3985	2648.8398	1473.15	591.2
991.5225	2650.1009	1509.75	588.4
991.6464	2651.3613	1477.9	596.4
991.7703	2652.6211	1475	591.65
991.8942	2653.8801	1464.7	583.7
992.018	2655.1385	1476.95	590.9
992.1418	2656.3961	1465.6	583.3
992.2655	2657.6531	1469	586.95
992.3892	2658.9094	1478.2	594.5
992.5129	2660.1651	1466.85	586.45
992.6366	2661.42	1467.5	583.35
992.7602	2662.6743	1476.6	591.95
992.8837	2663.9279	1477	593.75
993.0073	2665.1808	1475.8	593
993.1307	2666.433	1480.8	598.65
993.2542	2667.6846	1477.25	595.75
993.3776	2668.9354	1480.9	594.35
993.501	2670.1856	1480.5	596
993.6244	2671.4351	1477.1	595.15
993.7477	2672.6839	1489.8	605.6
993.8709	2673.9321	1489.1	608.05
993.9942	2675.1795	1487.6	602.55
994.1174	2676.4263	1496.15	612.85
994.2405	2677.6724	1483.4	602.7
994.3637	2678.9179	1485	599.7
994.4868	2680.1626	1493.95	611.7
994.6098	2681.4067	1493.1	608.9
994.7328	2682.6501	1493	609.4
994.8558	2683.8928	1490.25	608.1
994.9788	2685.1348	1486.4	605.2
995.1017	2686.3761	1478.7	596.05
995.2245	2687.6168	1473.6	591.55
995.3474	2688.8568	1474.85	592.15
995.4702	2690.0961	1470.25	588.95
995.5929	2691.3348	1465.1	580.85
995.7156	2692.5727	1468.1	585.15
995.8383	2693.81	1466.95	583.55
995.961	2695.0466	1456.2	572.7
996.0836	2696.2826	1461.25	576.05
996.2062	2697.5178	1476.25	570.9
996.3287	2698.7524	1460.65	578.4
996.4512	2699.9863	1468.4	584.15
996.5737	2701.2195	1465.5	583.95
996.6961	2702.452	1472.2	586
996.8185	2703.6839	1476.6	593.05
996.9408	2704.9151	1473.45	590.8
997.0631	2706.1456	1479.45	597.3
997.1854	2707.3755	1489.35	604.4
997.3077	2708.6046	1495.85	609.7
997.4299	2709.8331	1504.5	620.35
997.552	2711.0609	1503.15	621.05
997.6742	2712.2881	1515.05	631.05
997.7963	2713.5145	1516.7	630.5
997.9183	2714.7403	1532.35	651
998.0403	2715.9654	1536.55	651.8
998.1623	2717.1899	1571.3	674.45
998.2842	2718.4136	1559	676.65
998.4062	2719.6367	1573.7	688.4
998.528	2720.8591	1594.05	704.45
998.6498	2722.0809	1595.3	710.8
998.7716	2723.3019	1614.85	730.1
998.8934	2724.5223	1623.75	739.9
999.0151	2725.7421	1623.75	738.55
999.1368	2726.9611	1633	747.05
999.2584	2728.1795	1623.95	733.7
999.38	2729.3972	1605	721.2
999.5016	2730.6142	1618.35	721.05
999.6231	2731.8306	1587.85	704
999.7446	2733.0462	1579.55	693.75
999.8661	2734.2612	1572.35	684.15
999.9875	2735.4756	1549.4	664.45
1000.1089	2736.6892	1524.5	642.25
1000.2302	2737.9022	1512.75	629.85
1000.3515	2739.1145	1497.2	614.2
1000.4728	2740.3262	1485.9	594.75
1000.594	2741.5372	1482.8	598.5
1000.7152	2742.7475	1465.2	581.05
1000.8363	2743.9571	1458.15	571.7
1000.9575	2745.1661	1445.1	557
1001.0785	2746.3744	1442.25	558.35
1001.1996	2747.582	1431.6	549.95
1001.3206	2748.7889	1417.75	531.45
1001.4415	2749.9952	1422.1	537.6
1001.5625	2751.2008	1409.2	526.3
1001.6833	2752.4057	1406.5	520.8
1001.8042	2753.61	1399.25	514.25
1001.925	2754.8136	1402.35	516.1
1002.0458	2756.0165	1396	513.35
1002.1665	2757.2188	1396.4	512.4
1002.2872	2758.4204	1399.8	518.05
1002.4078	2759.6213	1396.6	511.4
1002.5285	2760.8215	1397.05	508.95
1002.649	2762.0211	1394	508.9
1002.7696	2763.22	1399	512.8
1002.8901	2764.4182	1387.3	503.8
1003.0106	2765.6158	1386.4	500.6
1003.131	2766.8127	1377.7	493.9
1003.2514	2768.009	1384.45	502.05
1003.3717	2769.2045	1379.1	494.15
1003.492	2770.3994	1372.65	489.35
1003.6123	2771.5936	1374.9	491.55
1003.7325	2772.7872	1369.15	487.6
1003.8527	2773.9801	1368	480.6
1003.9729	2775.1723	1389.2	489.45
1004.093	2776.3639	1364.55	479.9
1004.2131	2777.5548	1368.65	482.3
1004.3331	2778.745	1372.7	489
1004.4531	2779.9346	1370.2	487.5
1004.5731	2781.1235	1374.65	491.8
1004.693	2782.3117	1370.55	488.6
1004.8129	2783.4992	1373.35	488.95
1004.9328	2784.6861	1380.35	495.8
1005.0526	2785.8723	1388.55	504.15
1005.1723	2787.0579	1396.8	512.1
1005.2921	2788.2428	1401.45	518.8
1005.4118	2789.427	1409.75	526.45
1005.5314	2790.6106	1421.2	538.15
1005.651	2791.7935	1420.85	537.8
1005.7706	2792.9757	1435.6	552.85
1005.8902	2794.1573	1440.4	556.8
1006.0097	2795.3382	1457.7	572.7
1006.1291	2796.5184	1464.85	581.9
1006.2485	2797.698	1482.6	594.95
1006.3679	2798.8769	1498.2	613.05
1006.4873	2800.0551	1516	632.3
1006.6066	2801.2327	1534.65	648.6
1006.7258	2802.4096	1551.15	670.45
1006.8451	2803.5859	1567.8	682.85
1006.9642	2804.7615	1591.15	707.8
1007.0834	2805.9364	1610.6	726.9
1007.2025	2807.1106	1638.45	755.3
1007.3216	2808.2842	1665.7	780.4
1007.4406	2809.4572	1697.8	813.3
1007.5596	2810.6294	1731.65	848.8
1007.6785	2811.801	1772.8	891.6
1007.7975	2812.972	1797.7	916.15
1007.9163	2814.1423	1856.05	973
1008.0352	2815.3119	1897.85	1015.1
1008.154	2816.4808	1946.85	1062.45
1008.2727	2817.6491	1998.1	1113.7
1008.3914	2818.8167	2046.85	1163.85
1008.5101	2819.9837	2103.9	1216.6
1008.6288	2821.15	2142.5	1259.55
1008.7474	2822.3157	2201.2	1320.2
1008.8659	2823.4807	2245.75	1361.15
1008.9844	2824.645	2297.55	1413.4
1009.1029	2825.8086	2356.25	1472.5
1009.2214	2826.9716	2392.65	1509.1
1009.3398	2828.134	2442.1	1560.75
1009.4581	2829.2957	2490.85	1607.1
1009.5764	2830.4567	2515.55	1634.95
1009.6947	2831.617	2550.4	1665.5
1009.813	2832.7767	2555.95	1675.85
1009.9312	2833.9358	2553.85	1671.8
1010.0493	2835.0941	2550	1663.4
1010.1675	2836.2519	2534.25	1653
1010.2855	2837.4089	2521.5	1636.55
1010.4036	2838.5653	2510.8	1629.3
1010.5216	2839.7211	2503.85	1621.45
1010.6396	2840.8761	2504.95	1617.8
1010.7575	2842.0306	2522.8	1642.05
1010.8754	2843.1843	2551.8	1668.55
1010.9932	2844.3374	2596.9	1713.6
1011.111	2845.4899	2635.85	1754.2
1011.2288	2846.6417	2705.5	1821.65
1011.3465	2847.7928	2785.6	1904.65
1011.4642	2848.9433	2860.65	1978.6
1011.5818	2850.0931	2923.45	2041.7
1011.6995	2851.2422	2993.65	2107.4
1011.817	2852.3907	3067.05	2183.4
1011.9345	2853.5385	3131.9	2247.7
1012.052	2854.6857	3216.7	2305.7
1012.1695	2855.8323	3250.95	2369.35
1012.2869	2856.9781	3279.95	2395.05
1012.4042	2858.1233	3336.75	2452.4
1012.5216	2859.2679	3391.55	2509.65
1012.6389	2860.4118	3449.7	2565.5
1012.7561	2861.555	3488.05	2597.9
1012.8733	2862.6976	3526.3	2642.85
1012.9905	2863.8395	3573.1	2687.95
1013.1076	2864.9808	3584.25	2700.45
1013.2247	2866.1214	3608.15	2726.05
1013.3417	2867.2614	3623.3	2738.45
1013.4587	2868.4007	3637.65	2753.3
1013.5757	2869.5393	3668	2779.7
1013.6926	2870.6773	3660.95	2774.85
1013.8095	2871.8146	3683.05	2797.2
1013.9263	2872.9513	3691.25	2804.85
1014.0431	2874.0874	3668.75	2786.8
1014.1599	2875.2227	3681	2797.2
1014.2766	2876.3574	3658.95	2777.05
1014.3933	2877.4915	3630.65	2747.95
1014.51	2878.6249	3611.25	2728.55
1014.6266	2879.7577	3572.65	2688.5
1014.7431	2880.8898	3566.05	2673.2
1014.8596	2882.0212	3537.7	2654.75
1014.9761	2883.152	3532.15	2651.7
1015.0925	2884.2821	3503.95	2620.45
1015.2089	2885.4116	3515.3	2636.35
1015.3253	2886.5405	3510.15	2627.25
1015.4416	2887.6686	3516.6	2627.6
1015.5579	2888.7962	3518.1	2636.55
1015.6741	2889.923	3528.6	2645.7
1015.7903	2891.0493	3525.6	2642.7
1015.9065	2892.1748	3552.65	2670.05
1016.0226	2893.2997	3565.15	2680.05
1016.1387	2894.424	3569.5	2687.25
1016.2547	2895.5476	3589.7	2704.85
1016.3707	2896.6706	3612.65	2731.5
1016.4866	2897.7929	3651.25	2767.45
1016.6025	2898.9145	3677.5	2793.75
1016.7184	2900.0355	3699.15	2815.05
1016.8342	2901.1559	3714.7	2831.4
1016.95	2902.2756	3769.25	2887.2
1017.0658	2903.3946	3801.15	2918.55
1017.1815	2904.513	3827.95	2941.1
1017.2971	2905.6308	3854.7	2973.15
1017.4127	2906.7479	3885.05	3000
1017.5283	2907.8643	3896.4	3013.05
1017.6439	2908.9801	3904.6	3021.4
1017.7594	2910.0953	3919.55	3036
1017.8748	2911.2098	3936.35	3051.25
1017.9902	2912.3236	3929.75	3039.65
1018.1056	2913.4368	3922.35	3035.7
1018.2209	2914.5494	3893	3008.8
1018.3362	2915.6613	3864.75	2977.25
1018.4515	2916.7725	3839	2953.35
1018.5667	2917.8831	3814.85	2931.2
1018.6819	2918.9931	3785.05	2897.3
1018.797	2920.1024	3728.25	2843
1018.9121	2921.211	3721.35	2837.85
1019.0271	2922.319	3713.75	2828.45
1019.1421	2923.4264	3687.3	2807
1019.2571	2924.5331	3681.1	2798.95
1019.372	2925.6391	3667.65	2783.15
1019.4869	2926.7445	3659.3	2778.6
1019.6017	2927.8493	3665.1	2780.7
1019.7165	2928.9534	3659.65	2777.3
1019.8313	2930.0569	3654.3	2768.15
1019.946	2931.1597	3653.2	2771.55
1020.0606	2932.2619	3645.95	2762.55
1020.1753	2933.3634	3635.45	2752.1
1020.2899	2934.4643	3646.2	2756.55
1020.4044	2935.5645	3629.1	2740.2
1020.5189	2936.6641	3606.3	2720.2
1020.6334	2937.763	3560.6	2676.6
1020.7478	2938.8613	3513.9	2629.1
1020.8622	2939.959	3455.35	2566.55
1020.9765	2941.056	3385.3	2505.1
1021.0908	2942.1523	3306.3	2422.45
1021.2051	2943.248	3227.25	2343.55
1021.3193	2944.3431	3131.6	2249.8
1021.4334	2945.4375	3026.95	2143.45
1021.5476	2946.5313	2931	2047.05
1021.6617	2947.6244	2821.75	1938.15
1021.7757	2948.7169	2719.2	1836.4
1021.8897	2949.8087	2630.65	1746.5
1022.0037	2950.8999	2535.7	1652.95
1022.1176	2951.9904	2441.8	1557.4
1022.2315	2953.0803	2380.75	1496.7
1022.3453	2954.1696	2326.5	1444.4
1022.4591	2955.2582	2266.65	1385.95
1022.5728	2956.3462	2212.7	1331.25
1022.6865	2957.4335	2171.35	1287.05
1022.8002	2958.5202	2139.3	1252.4
1022.9138	2959.6062	2104.5	1221.75
1023.0274	2960.6916	2088.9	1205.25
1023.141	2961.7764	2061.05	1177.8
1023.2545	2962.8605	2042.6	1157.4
1023.3679	2963.9439	2026.85	1145.75
1023.4813	2965.0267	2031.65	1146.9
1023.5947	2966.1089	2037.1	1129.4
1023.708	2967.1905	2012.25	1128.3
1023.8213	2968.2714	2009.6	1127.65
1023.9346	2969.3516	2007.75	1125.35
1024.0478	2970.4312	2015.4	1125.4
1024.1609	2971.5102	1997.65	1114.8
1024.274	2972.5885	2001.9	1119
1024.3871	2973.6662	2011.1	1123.4
1024.5002	2974.7432	2009.75	1126.4
1024.6132	2975.8196	1996.3	1114.45
1024.7261	2976.8954	1996.15	1112.7
1024.839	2977.9705	1981	1096.85
1024.9519	2979.045	1984.4	1101.35
1025.0647	2980.1188	1964	1081.6
1025.1775	2981.192	1939.2	1054.85
1025.2902	2982.2645	1915.3	1030.45
1025.4029	2983.3364	1889.1	1006.25
1025.5156	2984.4077	1861.75	980.05
1025.6282	2985.4783	1840.8	950.05
1025.7407	2986.5483	1799.7	918.45
1025.8532	2987.6177	1770	887.65
1025.9657	2988.6864	1734.2	851.4
1026.0782	2989.7545	1705.9	822
1026.1906	2990.8219	1666.2	786
1026.3029	2991.8887	1643.2	759.5
1026.4152	2992.9548	1599.5	715.35
1026.5275	2994.0204	1574.85	693.85
1026.6397	2995.0852	1538.65	656.4
1026.7519	2996.1495	1520.75	634.85
1026.864	2997.2131	1497.45	614.7
1026.9761	2998.276	1482.55	599.8
1027.0882	2999.3383	1455.55	572.55
1027.2002	3000.4	1439.45	556.65
1027.3122	3001.4611	1416.4	533.7
1027.4241	3002.5215	1400.7	519.15
1027.536	3003.5812	1387.9	504.1
1027.6478	3004.6404	1370.95	488.85
1027.7596	3005.6989	1370.25	484.55
1027.8714	3006.7567	1350.45	467.6
1027.9831	3007.8139	1366.9	460.8
1028.0947	3008.8705	1333.05	450.15
1028.2064	3009.9264	1348.05	447.85
1028.3179	3010.9818	1316.4	433.2
1028.4295	3012.0364	1315.1	431.75
1028.541	3013.0905	1314.85	431.7
1028.6524	3014.1439	1309.8	428.05
1028.7638	3015.1966	1310.1	427.85
1028.8752	3016.2487	1305.3	422.1
1028.9865	3017.3002	1308.75	423.25
1029.0978	3018.3511	1297.4	415.45
1029.209	3019.4013	1301.85	419.2
1029.3202	3020.4509	1300.1	417.75
1029.4314	3021.4998	1309.95	427.15
1029.5425	3022.5481	1298.75	415.3
1029.6535	3023.5958	1305.5	421.55
1029.7645	3024.6428	1301.65	420.2
1029.8755	3025.6892	1304.4	420.2
1029.9864	3026.735	1300.15	418.95
1030.0973	3027.7802	1301.35	418.85
1030.2082	3028.8247	1310.6	428.4
1030.319	3029.8685	1314.9	430.85
1030.4297	3030.9118	1313.4	428.5
1030.5404	3031.9544	1318.05	436.4
1030.6511	3032.9963	1317.25	435.95
1030.7617	3034.0376	1319.6	435.15
1030.8723	3035.0783	1330.55	444.55
1030.9829	3036.1184	1333.05	447.3
1031.0934	3037.1578	1336.35	454.55
1031.2038	3038.1966	1332.05	447.6
1031.3142	3039.2348	1332.7	452.65
1031.4246	3040.2723	1346.15	454.9
1031.5349	3041.3092	1336	456.15
1031.6452	3042.3455	1337.9	454.35
1031.7554	3043.3811	1339.05	454.85
1031.8656	3044.4161	1330	445.55
1031.9758	3045.4505	1329.75	447.55
1032.0859	3046.4842	1318.55	436.25
1032.1959	3047.5173	1319.7	439.6
1032.3059	3048.5498	1311.2	428.05
1032.4159	3049.5816	1308.65	425.7
1032.5258	3050.6128	1307.75	423.2
1032.6357	3051.6434	1304.2	420.6
1032.7455	3052.6734	1292.45	409.05
1032.8553	3053.7027	1280.15	397.25
1032.9651	3054.7314	1279.85	396.55
1033.0748	3055.7594	1276.2	395.15
1033.1845	3056.7868	1279.15	394.25
1033.2941	3057.8136	1264.95	381.75
1033.4037	3058.8398	1263	380.25
1033.5132	3059.8653	1257.2	375
1033.6227	3060.8902	1255.9	373.45
1033.7321	3061.9145	1252.35	369.2
1033.8415	3062.9381	1245.1	360.65
1033.9509	3063.9612	1258.95	360.1
1034.0602	3064.9835	1242.5	359.3
1034.1694	3066.0053	1235.65	351.4
1034.2787	3067.0264	1233.05	351.05
1034.3878	3068.0469	1220.75	335.85
1034.497	3069.0668	1216.05	331.05
1034.6061	3070.086	1203.35	321.55
1034.7151	3071.1046	1200.45	315.6
1034.8241	3072.1226	1194.8	310.6
1034.9331	3073.1399	1189.05	308.8
1035.042	3074.1567	1179.95	296.8
1035.1508	3075.1727	1166.65	282.35
1035.2597	3076.1882	1163.85	280.95
1035.3684	3077.203	1154.05	269.55
1035.4772	3078.2173	1146.6	263.1
1035.5859	3079.2308	1140.85	255.4
1035.6945	3080.2438	1131.55	247.65
1035.8031	3081.2561	1124.55	243.5
1035.9117	3082.2678	1120.25	238.1
1036.0202	3083.2789	1108.2	225.75
1036.1286	3084.2893	1106.8	225.7
1036.2371	3085.2991	1101.6	217.2
1036.3454	3086.3083	1102.45	214.85
1036.4538	3087.3169	1092	208.4
1036.562	3088.3248	1085.95	203.4
1036.6703	3089.3321	1085.05	200.15
1036.7785	3090.3388	1074.45	194.25
1036.8866	3091.3449	1072.7	188.75
1036.9948	3092.3503	1069.25	184.55
1037.1028	3093.3551	1063.95	184.25
1037.2108	3094.3593	1063.6	181.25
1037.3188	3095.3629	1059.45	178.3
1037.4267	3096.3658	1057.05	173.55
1037.5346	3097.3681	1055.4	173.9
1037.6425	3098.3698	1054.8	172.5
1037.7503	3099.3708	1056.4	166.05
1037.858	3100.3713	1047.95	165.7
1037.9657	3101.3711	1045.95	162.5
1038.0734	3102.3702	1177.55	154.4
1038.181	3103.3688	1042.6	156.8
1038.2886	3104.3667	1034.9	153.65
1038.3961	3105.364	1036.95	153
1038.5036	3106.3607	1035.45	153.7
1038.611	3107.3568	1032.75	150.05
1038.7184	3108.3522	1024.2	143.8
1038.8257	3109.347	1029.1	146.4
1038.933	3110.3412	1033.2	144.7
1039.0403	3111.3348	1022.75	141.3
1039.1475	3112.3277	1021.2	138.05
1039.2547	3113.32	1019.25	138.4
1039.3618	3114.3117	1020.3	136.85
1039.4689	3115.3028	1024.8	141.7
1039.5759	3116.2932	1024.2	141.55
1039.6829	3117.2831	1024.25	137.1
1039.7898	3118.2723	1014.7	134.75
1039.8967	3119.2608	1012.6	129.8
1040.0035	3120.2488	1011.15	128.25
1040.1103	3121.2361	1013.1	131.7
1040.2171	3122.2229	1010.7	128.5
1040.3238	3123.209	1009.6	126.25
1040.4305	3124.1944	1008.15	128.45
1040.5371	3125.1793	1007.95	125.05
1040.6437	3126.1635	1001.4	120.9
1040.7502	3127.1471	1010.35	129
1040.8567	3128.1301	1004.3	122.8
1040.9631	3129.1125	1003.6	122.1
1041.0695	3130.0942	1002.3	118.1
1041.1759	3131.0753	1006.75	114.9
1041.2822	3132.0558	1001.15	115
1041.3884	3133.0357	997.6	113.6
1041.4946	3134.015	998.3	115.9
1041.6008	3134.9936	997.7	112.45
1041.7069	3135.9716	1016.25	114.5
1041.813	3136.949	996.6	115.6
1041.919	3137.9258	1010.85	108.15
1042.025	3138.902	997.4	109.25
1042.1309	3139.8775	990.55	107.75
1042.2368	3140.8524	990.05	107.95
1042.3427	3141.8267	992.35	107.4
1042.4485	3142.8004	989.65	105.3
1042.5542	3143.7735	993.5	105.3
1042.6599	3144.7459	991.85	107.9
1042.7656	3145.7178	986.2	103.4
1042.8712	3146.689	984.6	104.95
1042.9768	3147.6596	987.9	105.25
1043.0823	3148.6295	981.85	99.35
1043.1878	3149.5989	982.85	100
1043.2932	3150.5676	976.8	95
1043.3986	3151.5357	979.1	97.7
1043.5039	3152.5032	978.35	97.55
1043.6092	3153.4701	976.9	95.4
1043.7145	3154.4364	979.75	96
1043.8197	3155.402	977.9	98
1043.9248	3156.367	980.55	96.5
1044.03	3157.3315	1010.15	91.85
1044.135	3158.2952	974.5	91
1044.24	3159.2584	971.2	88.8
1044.345	3160.221	971.8	88.45
1044.4499	3161.1829	974.05	91.6
1044.5548	3162.1442	972.5	91.85
1044.6596	3163.105	973.8	92.5
1044.7644	3164.065	969.45	85.3
1044.8692	3165.0245	971.2	85.75
1044.9739	3165.9834	966.8	85.7
1045.0785	3166.9416	969.15	88.55
1045.1831	3167.8993	970.45	88.75
1045.2877	3168.8563	963.4	80.15
1045.3922	3169.8127	964.1	80.6
1045.4966	3170.7684	963.55	82.65
1045.6011	3171.7236	964.8	81.75
1045.7054	3172.6782	966.45	86.7
1045.8098	3173.6321	965.85	81.5
1045.914	3174.5854	967.95	79.9
1046.0183	3175.5381	963.35	82.45
1046.1224	3176.4902	962.8	80.15
1046.2266	3177.4417	965.2	83.95
1046.3307	3178.3926	962.3	77.75
1046.4347	3179.3428	958.95	78.5
1046.5387	3180.2924	961	79.5
1046.6427	3181.2415	963.15	81.3
1046.7466	3182.1899	956.6	73.65
1046.8504	3183.1377	958.15	75.8
1046.9542	3184.0848	962.35	75.05
1047.058	3185.0314	960.3	79.15
1047.1617	3185.9773	958.85	75.3
1047.2654	3186.9227	959.3	77
1047.369	3187.8674	959.1	76.65
1047.4726	3188.8115	963.3	76.65
1047.5761	3189.755	952.25	68.65
1047.6796	3190.6979	954.65	72.8
1047.783	3191.6402	954.8	73.65
1047.8864	3192.5818	954.15	71.5
1047.9898	3193.5229	973.5	71.3
1048.0931	3194.4633	957.1	75.35
1048.1963	3195.4031	952.35	71.55
1048.2995	3196.3423	952.5	70.4
1048.4027	3197.2809	953.7	70.45
1048.5058	3198.2189	952.7	70.3
1048.6089	3199.1563	971.6	72.45
1048.7119	3200.0931	948.95	68.75
1048.8148	3201.0292	949.8	67.15
1048.9178	3201.9648	951	70
1049.0206	3202.8997	952.75	67.4
1049.1235	3203.834	948.5	66.25
1049.2262	3204.7677	950.3	69.8
1049.329	3205.7008	950.85	66.4
1049.4317	3206.6333	945.5	64.35
1049.5343	3207.5652	952.4	68.25
1049.6369	3208.4964	952.05	71.15
1049.7394	3209.4271	944.9	64.6
1049.8419	3210.3571	943.9	63.3
1049.9444	3211.2865	945.95	61.95
1050.0468	3212.2154	946.85	63.85
1050.1491	3213.1436	947.85	61.5
1050.2514	3214.0712	951.2	63
1050.3537	3214.9982	945.15	63.7
1050.4559	3215.9246	946.15	62.6
1050.5581	3216.8503	945.75	64.85
1050.6602	3217.7755	943.1	60.55
1050.7623	3218.7001	944.85	63.2
1050.8643	3219.624	948.5	63.95
1050.9663	3220.5473	943.35	60.85
1051.0682	3221.4701	946.4	64.05
1051.1701	3222.3922	946.55	62.2
1051.2719	3223.3137	941.95	60.7
1051.3737	3224.2346	943.3	59.95
1051.4754	3225.1549	939.7	58.5
1051.5771	3226.0746	941.2	58.15
1051.6788	3226.9937	941.6	58.75
1051.7804	3227.9121	942	61.5
1051.8819	3228.83	940.55	59.3
1051.9834	3229.7473	941.4	61.2
1052.0849	3230.6639	939.25	58
1052.1863	3231.5799	940.1	59.75
1052.2876	3232.4954	939.15	57.25
1052.3889	3233.4102	938.95	55.2
1052.4902	3234.3244	938.15	54.05
1052.5914	3235.238	941.1	59.95
1052.6926	3236.151	965.65	59.2
1052.7937	3237.0634	938.05	57.05
1052.8948	3237.9752	936.95	53.65
1052.9958	3238.8864	938.25	54.2
1053.0968	3239.797	935.85	53.75
1053.1977	3240.7069	936.3	53.65
1053.2986	3241.6163	937.85	53.55
1053.3994	3242.5251	933.6	52
1053.5002	3243.4332	932.4	50.8
1053.6009	3244.3408	935.1	53.85
1053.7016	3245.2477	933.7	51.8
1053.8022	3246.154	934.25	50.45
1053.9028	3247.0598	934.85	49.6
1054.0034	3247.9649	937.1	55.9
1054.1039	3248.8694	934.3	51.85
1054.2043	3249.7733	930	47.5
1054.3047	3250.6766	930.7	49.05
1054.4051	3251.5793	931.05	46.95
1054.5054	3252.4814	928.35	46.85
1054.6056	3253.3829	930.1	46.65
1054.7058	3254.2838	930.3	50.05
1054.806	3255.1841	930.2	51.1
1054.9061	3256.0838	928.65	48.3
1055.0061	3256.9829	925.35	46.35
1055.1062	3257.8814	930.4	46.9
1055.2061	3258.7792	928.15	42.75
1055.306	3259.6765	930.95	46.75
1055.4059	3260.5731	925.9	40.85
1055.5057	3261.4692	926.95	43.65
1055.6055	3262.3647	926.45	44.75
1055.7052	3263.2595	922.8	41.25
1055.8049	3264.1538	922.5	41.4
1055.9045	3265.0474	925.05	43.4
1056.0041	3265.9404	922.4	41.15
1056.1036	3266.8329	919.4	39.45
1056.2031	3267.7247	927	34.2
1056.3025	3268.616	918.85	39.85
1056.4019	3269.5066	919.7	38.2
1056.5013	3270.3966	917.95	33.55
1056.6005	3271.286	916.8	36.85
