Software Version:	3.9.2.0
Unit SN:	10000200
Spectrometer SN:	6960
Date:	3/14/2024 1:52:03 PM
Data Line Index:	25
Spectral Points:	2048
Integration time (ms):	125
Averages:	20
Delay (ms):	30000
Sequence Number:	1
Processing:	dark subtract
Laser Power (mW):	305
Laser Current (mA):	825
Laser Diode Temp (C):	25
Laser Case Temp (C):	28.9
System Temp (C):	28.9
Spectrometer Temp (C):	26.7
CCD Temp (C):	0.005
Secondary Temp (C):	20.007
Heatsink Temp (C):	24.786
CCDPCB Temp (C):	38.341
SecondaryPCB Temp (C):	35.84

Wavelength	RamanShift	Raw Counts	Dark Subtracted
787.061	30.1047	463.65	52.1
787.2016	32.3739	462.65	53.05
787.3422	34.6426	470.5	59.85
787.4828	36.9109	478.7	66.65
787.6235	39.1787	490.15	74.95
787.7642	41.4461	497.4	77.4
787.9049	43.7131	504.7	80.4
788.0456	45.9796	517	90.35
788.1863	48.2456	527.35	94.6
788.3271	50.5112	537.65	100.35
788.4679	52.7764	543.55	104.7
788.6087	55.0411	557.6	115.75
788.7496	57.3054	568.45	122
788.8904	59.5692	582.65	133.95
789.0313	61.8326	594.8	141.05
789.1722	64.0955	607.55	150.7
789.3132	66.3579	626.85	165
789.4541	68.6199	648.7	184.35
789.5951	70.8815	683.4	215
789.7361	73.1426	763.85	291.35
789.8771	75.4032	967.95	488.85
790.0181	77.6634	1480.7	998.1
790.1592	79.9231	2705.15	2218.35
790.3003	82.1824	5390.85	4889.9
790.4414	84.4412	10346.5	9827.4
790.5825	86.6995	17404.75	16862.1
790.7237	88.9574	24441.65	23871.95
790.8648	91.2148	29426.65	28839.7
791.006	93.4717	31916.35	31323
791.1472	95.7282	32550.05	31949.35
791.2885	97.9842	32569.9	31966.8
791.4297	100.2398	32054.15	31447.5
791.571	102.4949	31523.4	30914.9
791.7123	104.7495	30801.85	30189.55
791.8536	107.0036	29969.95	29359.25
791.9949	109.2573	29175.5	28563.65
792.1363	111.5105	28432.95	27817.7
792.2777	113.7632	27658.75	27045.25
792.4191	116.0154	27005.45	26377.15
792.5605	118.2672	26549.35	25931.15
792.7019	120.5185	26060.45	25440.05
792.8434	122.7693	25691.4	25068.4
792.9849	125.0197	25363.6	24735.25
793.1264	127.2696	25039.4	24410.45
793.2679	129.519	24934.55	24302.25
793.4094	131.7679	24745.8	24111.2
793.551	134.0163	24601.1	23967.1
793.6926	136.2642	24408.4	23768.2
793.8342	138.5117	24185.6	23533.2
793.9758	140.7587	23923.5	23273.6
794.1175	143.0052	23716.4	23065.3
794.2591	145.2512	23536.85	22887.65
794.4008	147.4967	23296.3	22646
794.5425	149.7417	23124.2	22473.9
794.6842	151.9863	23009.25	22352.85
794.826	154.2304	22913.8	22254.1
794.9677	156.4739	22787.4	22123.2
795.1095	158.717	22714.2	22050.2
795.2513	160.9596	22541.85	21873.05
795.3931	163.2017	22232.6	21563.5
795.535	165.4433	21958.5	21286.6
795.6768	167.6844	21593.15	20919.25
795.8187	169.925	21271.95	20592.35
795.9606	172.1651	20843.65	20163.25
796.1025	174.4047	20528.7	19844.25
796.2445	176.6439	20231.9	19546
796.3864	178.8825	19976	19288.6
796.5284	181.1206	19830.45	19138.8
796.6704	183.3582	19631.9	18939.5
796.8124	185.5954	19511.15	18814.15
796.9544	187.832	19390.1	18689.3
797.0965	190.0681	19341.1	18634.95
797.2386	192.3037	19369.35	18664.4
797.3806	194.5388	19359.1	18646.8
797.5228	196.7734	19356.85	18647.1
797.6649	199.0075	19446.15	18731.2
797.807	201.2411	19566.65	18851.75
797.9492	203.4742	19603.7	18884.7
798.0914	205.7068	19713.4	18996.5
798.2336	207.9389	19803.75	19084.4
798.3758	210.1704	20002.9	19283.65
798.518	212.4015	20080.5	19356.8
798.6603	214.632	20244.35	19519.45
798.8025	216.862	20447.6	19730.7
798.9448	219.0915	20612.25	19900.9
799.0871	221.3205	20812.85	20101.05
799.2294	223.549	21076.75	20375.7
799.3718	225.777	21401.3	20694.15
799.5141	228.0044	21777.35	21070.15
799.6565	230.2314	22271.75	21568.55
799.7989	232.4578	22728.1	22024.65
799.9413	234.6837	23106.3	22397.7
800.0837	236.909	23293.25	22581.9
800.2262	239.1339	23263.7	22531.65
800.3687	241.3582	22986.4	22267.15
800.5111	243.582	22613.25	21863.35
800.6536	245.8053	22233.05	21493.7
800.7961	248.0281	21898.8	21162.5
800.9387	250.2503	21591.3	20850.25
801.0812	252.472	21450.35	20705.3
801.2238	254.6932	21397.8	20649.7
801.3664	256.9139	21267.8	20518.75
801.509	259.134	21204	20447.8
801.6516	261.3536	21171.05	20419.3
801.7942	263.5727	21222.8	20471.75
801.9369	265.7912	21179.95	20429.6
802.0795	268.0092	21139.85	20386.5
802.2222	270.2267	21124.6	20370.3
802.3649	272.4436	21040.9	20285.55
802.5076	274.6601	20950.9	20187.5
802.6504	276.8759	20846.2	20089.55
802.7931	279.0913	20815.5	20060.1
802.9359	281.3061	20771.9	20011.75
803.0787	283.5204	20851.35	20087.35
803.2215	285.7341	20928.05	20161.45
803.3643	287.9473	21081.15	20304.05
803.5071	290.16	21312	20539.1
803.6499	292.3721	21636.2	20865.75
803.7928	294.5837	22071.55	21304.05
803.9357	296.7947	22441.3	21671.55
804.0786	299.0052	22626.45	21858.6
804.2215	301.2152	22443.2	21672.15
804.3644	303.4246	22093.75	21325.45
804.5074	305.6334	21479.5	20709.6
804.6503	307.8418	20871.7	20098.25
804.7933	310.0495	20436.15	19663.95
804.9363	312.2568	20101.05	19332.15
805.0793	314.4635	19863.7	19089.5
805.2223	316.6696	19756.65	18981.8
805.3653	318.8752	19712.25	18927.2
805.5084	321.0802	19733.7	18958.35
805.6514	323.2847	19854.8	19076.3
805.7945	325.4887	19890.25	19112.15
805.9376	327.692	19812.25	19029.1
806.0807	329.8949	19721.2	18940.35
806.2238	332.0972	19410.35	18625.95
806.367	334.2989	19111.55	18326.5
806.5101	336.5001	18805.45	18019.55
806.6533	338.7007	18582.2	17796.65
806.7965	340.9008	18477.1	17690.3
806.9397	343.1003	18354.55	17566.15
807.0829	345.2992	18288.8	17497.55
807.2261	347.4976	18267.2	17476.05
807.3693	349.6955	18218.9	17425.15
807.5126	351.8927	18298.7	17503.2
807.6559	354.0895	18266.7	17457.6
807.7991	356.2856	18319.75	17524.55
807.9424	358.4812	18250.6	17453.25
808.0857	360.6763	18279.75	17483.7
808.2291	362.8707	18237.1	17439.8
808.3724	365.0646	18257.8	17459.1
808.5158	367.258	18221.95	17415.75
808.6591	369.4508	18245.6	17441.65
808.8025	371.643	18321.35	17515.65
808.9459	373.8346	18282.9	17474.15
809.0893	376.0257	18239.15	17427.2
809.2327	378.2162	18119.4	17308.4
809.3762	380.4062	18013.75	17199.6
809.5196	382.5956	17842.6	17027.75
809.6631	384.7844	17741.15	16927.3
809.8066	386.9726	17584.35	16769.25
809.9501	389.1603	17518.55	16700.95
810.0936	391.3474	17495.4	16646.6
810.2371	393.5339	17450.3	16634.2
810.3806	395.7199	17381	16572.5
810.5241	397.9052	17394.9	16584
810.6677	400.09	17347.8	16542
810.8113	402.2743	17403.45	16594.15
810.9548	404.4579	17460.3	16653.25
811.0984	406.641	17625.65	16817.9
811.2421	408.8235	17862.55	17055.2
811.3857	411.0054	18196.1	17388.7
811.5293	413.1868	18638.45	17831.6
811.673	415.3675	18969.8	18157.55
811.8166	417.5477	19147.95	18338.45
811.9603	419.7273	19201.5	18384.95
812.104	421.9064	19058.1	18234.2
812.2477	424.0848	18908.15	18089.75
812.3914	426.2627	18686.85	17866.75
812.5351	428.4399	18358.5	17535.75
812.6788	430.6166	17975.25	17148.6
812.8226	432.7928	17560.8	16736.8
812.9663	434.9683	17218.45	16389.55
813.1101	437.1432	16988.25	16155.6
813.2539	439.3176	16777.65	15949.15
813.3977	441.4914	16685.55	15856.95
813.5415	443.6645	16617.8	15787.15
813.6853	445.8371	16511.65	15678.75
813.8291	448.0091	16426.45	15595.8
813.973	450.1806	16379.15	15551
814.1168	452.3514	16329.9	15496.5
814.2607	454.5216	16292.3	15448.65
814.4046	456.6913	16224.25	15390.4
814.5485	458.8603	16238.75	15406.55
814.6924	461.0288	16298.9	15466.85
814.8363	463.1967	16309.3	15477.7
814.9802	465.3639	16411.95	15578.55
815.1241	467.5306	16520.35	15683.7
815.2681	469.6967	16638.25	15804.55
815.412	471.8622	16793.7	15957.65
815.556	474.0271	16927.25	16092.55
815.7	476.1914	16998.5	16161.2
815.844	478.3551	16959.7	16123.7
815.988	480.5182	16919.2	16084.7
816.132	482.6807	16866.4	16027.65
816.276	484.8426	16967.65	16130.35
816.4201	487.0039	17257.2	16423.9
816.5641	489.1647	17668.9	16831.75
816.7082	491.3248	18112.05	17276.9
816.8522	493.4843	18326.95	17489.8
816.9963	495.6432	18318	17477.15
817.1404	497.8015	18197.6	17357.4
817.2845	499.9592	18172.3	17331.75
817.4286	502.1163	18116.5	17275.2
817.5727	504.2728	17838.45	16994.35
817.7168	506.4287	17506.4	16668.5
817.861	508.5839	17050.3	16207.8
818.0051	510.7386	16689.55	15849.3
818.1493	512.8927	16492.05	15640.4
818.2935	515.0461	16327.25	15482.8
818.4377	517.199	16268.1	15426.4
818.5818	519.3512	16228.8	15386.1
818.726	521.5029	16259.05	15407.4
818.8703	523.6539	16316	15468.4
819.0145	525.8043	16309.8	15464.65
819.1587	527.9541	16352.55	15502.2
819.303	530.1033	16318.7	15471.15
819.4472	532.2519	16372	15525.85
819.5915	534.3999	16509.35	15659.85
819.7357	536.5472	16806.5	15953.65
819.88	538.694	17259.4	16409.75
820.0243	540.8401	17879	17026.05
820.1686	542.9856	18384.55	17527.7
820.3129	545.1305	18527.45	17668.95
820.4572	547.2748	18380.4	17527.9
820.6016	549.4185	17938.95	17081.5
820.7459	551.5615	17548.05	16693
820.8902	553.704	17367.35	16510.35
821.0346	555.8458	17276.15	16420.75
821.1789	557.987	17249.2	16394.25
821.3233	560.1276	17220.75	16363.9
821.4677	562.2675	17196.4	16342.35
821.6121	564.4069	17180.5	16324.45
821.7565	566.5456	17145.05	16289.35
821.9009	568.6837	17026.4	16176.65
822.0453	570.8212	16757.7	15906.15
822.1897	572.958	16393.45	15540.7
822.3342	575.0942	16105.5	15254.5
822.4786	577.2299	15914.25	15061.05
822.6231	579.3648	15879.2	15028.4
822.7675	581.4992	15962.95	15109.7
822.912	583.6329	16174.1	15324
823.0565	585.766	16376	15528.05
823.201	587.8985	16525.15	15672.65
823.3454	590.0304	16520.45	15639.95
823.4899	592.1616	16411.95	15554.85
823.6345	594.2922	16290.55	15435.05
823.779	596.4222	16102.65	15242.65
823.9235	598.5515	15925.05	15063.95
824.068	600.6802	15745.2	14883
824.2126	602.8083	15550.75	14693.65
824.3571	604.9358	15471.7	14610.55
824.5017	607.0626	15359.95	14498.4
824.6462	609.1888	15299.55	14438.4
824.7908	611.3144	15203.05	14339.9
824.9354	613.4393	15062.05	14202.6
825.08	615.5636	14937.9	14078.25
825.2246	617.6873	14853.55	13990.05
825.3692	619.8103	14767.15	13902.85
825.5138	621.9327	14680.1	13814.9
825.6584	624.0544	14657.15	13795.3
825.803	626.1756	14606.65	13747.25
825.9477	628.2961	14572.2	13709.55
826.0923	630.4159	14478.4	13615.75
826.237	632.5351	14407.05	13543
826.3816	634.6537	14348.9	13482.7
826.5263	636.7716	14304	13440.05
826.6709	638.8889	14276.5	13411.35
826.8156	641.0056	14278.95	13409.25
826.9603	643.1216	14261.7	13396.75
827.105	645.237	14292.65	13423.85
827.2497	647.3518	14275.05	13408.6
827.3944	649.4659	14279.4	13416.1
827.5391	651.5793	14271.6	13404.65
827.6838	653.6922	14229.65	13362.85
827.8285	655.8043	14205.05	13339.3
827.9733	657.9159	14147.55	13280.3
828.118	660.0268	14056.8	13187.8
828.2627	662.137	14010.7	13142.85
828.4075	664.2466	13961.7	13092.25
828.5522	666.3556	13941.35	13073.3
828.697	668.4639	13881.45	13009.15
828.8418	670.5716	13925.6	13058
828.9865	672.6786	14028.6	13161.2
829.1313	674.785	14054.35	13181.2
829.2761	676.8907	14099.25	13230.95
829.4209	678.9958	14190.1	13323.3
829.5657	681.1002	14161.7	13292
829.7105	683.204	14124.15	13249.4
829.8553	685.3072	14070.95	13200.7
830.0001	687.4097	13973.05	13101.6
830.1449	689.5115	13865.65	12992.75
830.2898	691.6127	13800.3	12928.7
830.4346	693.7132	13709.95	12838.75
830.5794	695.8131	13657.4	12771.8
830.7243	697.9123	13611.65	12737.65
830.8691	700.0109	13572.65	12697.65
831.014	702.1089	13534	12656.65
831.1588	704.2061	13543.55	12669.95
831.3037	706.3028	13540.8	12663.85
831.4486	708.3987	13590.8	12716.75
831.5935	710.4941	13671.85	12797.35
831.7383	712.5887	13838.35	12962.4
831.8832	714.6827	14101.1	13223.25
832.0281	716.7761	14462.75	13590.25
832.173	718.8688	14819.6	13945.9
832.3179	720.9608	15007.3	14128.75
832.4628	723.0522	15062.95	14186.05
832.6077	725.1429	14842.55	13968.2
832.7527	727.233	14504.25	13628.35
832.8976	729.3224	14212.85	13335.75
833.0425	731.4112	13915.6	13037.25
833.1874	733.4993	13683.4	12803.25
833.3324	735.5867	13490.95	12614.3
833.4773	737.6735	13357.7	12481.25
833.6222	739.7596	13281.7	12399.5
833.7672	741.845	13222.4	12340.8
833.9122	743.9298	13194.5	12314.55
834.0571	746.014	13190.3	12311.4
834.2021	748.0974	13170.95	12291
834.347	750.1802	13191.55	12309.65
834.492	752.2624	13178.1	12300.5
834.637	754.3439	13184.2	12301.4
834.782	756.4247	13230.4	12341.5
834.9269	758.5048	13339.6	12461.85
835.0719	760.5843	13549.7	12672.8
835.2169	762.6631	13827.85	12947.6
835.3619	764.7413	14286.45	13410.45
835.5069	766.8188	14910.7	14027.7
835.6519	768.8956	15364.8	14481.8
835.7969	770.9718	15668.45	14790.2
835.9419	773.0473	15505	14625.15
836.0869	775.1221	15161.15	14280.05
836.232	777.1962	14743.2	13861
836.377	779.2697	14538.1	13656.5
836.522	781.3426	14550.95	13651.8
836.667	783.4147	14850.4	13968.35
836.8121	785.4862	15120.05	14239.15
836.9571	787.557	15108.2	14226.8
837.1021	789.6271	14732	13851.8
837.2472	791.6966	14140.6	13258.95
837.3922	793.7654	13575.9	12693.25
837.5373	795.8335	13213.25	12332.45
837.6823	797.901	13010.95	12132.8
837.8274	799.9678	12913.5	12032.25
837.9724	802.0339	12919.1	12039.45
838.1175	804.0993	12972.45	12079.05
838.2626	806.1641	12932.55	12048.8
838.4076	808.2282	12865.3	11981.7
838.5527	810.2916	12778	11892
838.6978	812.3544	12668.2	11787.8
838.8428	814.4164	12543.2	11661.1
838.9879	816.4778	12561.6	11680.4
839.133	818.5385	12525.65	11641.7
839.2781	820.5986	12593.35	11709.5
839.4232	822.658	12662.8	11775.25
839.5682	824.7166	12745.45	11862.9
839.7133	826.7747	12976.7	12093.65
839.8584	828.832	13121.6	12235.3
840.0035	830.8886	13250.95	12367.5
840.1486	832.9446	13364.5	12479.2
840.2937	834.9999	13415.3	12534.15
840.4388	837.0545	13404.6	12519.85
840.5839	839.1085	13395.25	12511.75
840.729	841.1618	13344.2	12456.65
840.8741	843.2143	13295.55	12411.2
841.0192	845.2662	13168.05	12286
841.1643	847.3175	13130.95	12248.1
841.3095	849.368	12978.9	12094.9
841.4546	851.4179	12825.55	11943
841.5997	853.467	12690.4	11806.9
841.7448	855.5155	12559.45	11672.3
841.8899	857.5633	12463.05	11578.2
842.0351	859.6105	12309.95	11425
842.1802	861.6569	12217.25	11330.9
842.3253	863.7027	12142.35	11254.2
842.4704	865.7478	12112	11227.25
842.6156	867.7922	12088.1	11202.45
842.7607	869.8359	12160.3	11269.95
842.9058	871.8789	12295.9	11408.35
843.0509	873.9212	12450.5	11529.85
843.1961	875.9629	12573.4	11687.7
843.3412	878.0039	12741.95	11853.6
843.4863	880.0441	12834.6	11949.2
843.6315	882.0837	12822.55	11934.75
843.7766	884.1226	12698.65	11810.05
843.9218	886.1609	12554.75	11667
844.0669	888.1984	12468.1	11580
844.212	890.2352	12427.05	11540.7
844.3572	892.2714	12374.75	11482.6
844.5023	894.3069	12298	11408.4
844.6475	896.3416	12216.5	11327.55
844.7926	898.3757	12170.9	11282.45
844.9377	900.4091	12134.65	11248.15
845.0829	902.4418	12139.7	11244.3
845.228	904.4739	12157.9	11267.95
845.3732	906.5052	12143.7	11255.95
845.5183	908.5358	12029.65	11142.95
845.6635	910.5658	11873.8	10982.5
845.8086	912.595	11667.2	10776.9
845.9538	914.6236	11499	10609.25
846.0989	916.6515	11440	10550.2
846.2441	918.6786	11447.25	10556.6
846.3892	920.7051	11501.85	10613.65
846.5344	922.7309	11583.1	10691.55
846.6795	924.756	11628.75	10737.7
846.8246	926.7804	11714.8	10823.85
846.9698	928.8041	11684.7	10791.8
847.1149	930.8272	11697.5	10808.85
847.2601	932.8495	11612.05	10720.45
847.4052	934.8711	11545.55	10655.7
847.5504	936.892	11367.1	10477
847.6955	938.9123	11234.6	10344.55
847.8407	940.9318	11097.45	10208
847.9858	942.9506	10948	10059.1
848.131	944.9688	10861.65	9975.7
848.2761	946.9862	10781.65	9891.05
848.4213	949.003	10710.6	9820.8
848.5664	951.019	10691.2	9799.05
848.7115	953.0344	10704.9	9811
848.8567	955.0491	10747.05	9857.05
849.0018	957.063	10805.65	9915.55
849.147	959.0763	10908.05	10016.75
849.2921	961.0888	10918.55	10025.25
849.4373	963.1007	11024.2	10134.2
849.5824	965.1119	11031.9	10143.5
849.7275	967.1223	11050.25	10162.4
849.8727	969.1321	11059.7	10171.9
850.0178	971.1412	11092	10202.4
850.1629	973.1495	11087.8	10198.15
850.3081	975.1572	11163.1	10238.55
850.4532	977.1641	11147.85	10254.45
850.5983	979.1704	11107.3	10214
850.7435	981.1759	11087.4	10192.8
850.8886	983.1808	11139.25	10245.95
851.0337	985.1849	11253.5	10350.85
851.1788	987.1884	11390.2	10497
851.324	989.1911	11549.55	10656.2
851.4691	991.1932	11678.85	10788.15
851.6142	993.1945	11693.9	10803.8
851.7593	995.1951	11667.75	10774.1
851.9045	997.1951	11622.45	10722.8
852.0496	999.1943	11527.05	10634.9
852.1947	1001.1928	11497.95	10604.65
852.3398	1003.1906	11467.95	10575.5
852.4849	1005.1877	11513.8	10618.8
852.63	1007.1841	11490.35	10598.25
852.7751	1009.1798	11405	10514.75
852.9202	1011.1748	11201.45	10309.55
853.0653	1013.1691	10977.05	10086.55
853.2104	1015.1627	10751.75	9857.7
853.3555	1017.1556	10536.4	9645.45
853.5006	1019.1477	10429.8	9536.2
853.6457	1021.1392	10335.45	9446.15
853.7908	1023.1299	10327.2	9437.05
853.9359	1025.12	10355.55	9463.75
854.081	1027.1093	10399.05	9512.05
854.2261	1029.0979	10486.15	9601.05
854.3712	1031.0859	10536.55	9650.35
854.5163	1033.0731	10531.8	9642.7
854.6613	1035.0596	10444.6	9556.65
854.8064	1037.0454	10310.15	9419
854.9515	1039.0304	10167.9	9274.05
855.0965	1041.0148	10038.8	9146.75
855.2416	1042.9985	9942.25	9046.7
855.3867	1044.9814	9880.6	8989.3
855.5317	1046.9636	9819.95	8925.6
855.6768	1048.9452	9783.4	8892
855.8219	1050.926	9792.3	8899.35
855.9669	1052.9061	9761.95	8872.95
856.112	1054.8855	9753.15	8858.45
856.257	1056.8642	9771.05	8879.9
856.4021	1058.8421	9828.05	8934
856.5471	1060.8194	9838.75	8945.25
856.6921	1062.7959	9881.15	8986.4
856.8372	1064.7717	9927.75	9035.05
856.9822	1066.7469	9903.75	9009.25
857.1272	1068.7213	9895.55	9000.05
857.2723	1070.695	9878.65	8983.65
857.4173	1072.6679	9793	8898.1
857.5623	1074.6402	9748.8	8856.2
857.7073	1076.6117	9713.65	8818.1
857.8523	1078.5826	9704.1	8810
857.9973	1080.5527	9763.9	8868
858.1423	1082.5221	9850.55	8956.55
858.2873	1084.4908	10035.1	9142.85
858.4323	1086.4587	10204.5	9308.1
858.5773	1088.426	10333.9	9439.6
858.7223	1090.3925	10360.2	9461.25
858.8673	1092.3584	10292.35	9399.95
859.0123	1094.3235	10138.35	9245.6
859.1573	1096.2879	10061.75	9167.1
859.3022	1098.2515	10033.5	9139.95
859.4472	1100.2145	10076.25	9183.5
859.5922	1102.1767	10136.35	9239.2
859.7371	1104.1382	10309.65	9418.2
859.8821	1106.099	10523.95	9628.9
860.027	1108.0591	10740.45	9846.8
860.172	1110.0185	10876.05	9983.2
860.3169	1111.9771	10881.3	9989.2
860.4619	1113.9351	10671.95	9780.15
860.6068	1115.8923	10375.65	9480.8
860.7517	1117.8488	10028.35	9132.55
860.8967	1119.8045	9736.2	8842.75
861.0416	1121.7596	9606.65	8711.95
861.1865	1123.7139	9513.85	8620
861.3314	1125.6675	9541	8647.3
861.4763	1127.6204	9587.85	8696.7
861.6212	1129.5726	9572	8677.1
861.7661	1131.524	9567.05	8673.65
861.911	1133.4748	9563.9	8669.85
862.0559	1135.4248	9509.9	8615.55
862.2008	1137.3741	9502.2	8610.85
862.3457	1139.3226	9458.55	8562.7
862.4905	1141.2705	9425.85	8533.65
862.6354	1143.2176	9338.35	8440.2
862.7803	1145.164	9356.15	8459.5
862.9251	1147.1097	9348.55	8454.25
863.07	1149.0546	9321.95	8426.75
863.2148	1150.9989	9227.85	8333.6
863.3597	1152.9424	9065.95	8170.55
863.5045	1154.8852	8889.3	7997.1
863.6493	1156.8272	8748.15	7854.75
863.7942	1158.7686	8701.25	7800.3
863.939	1160.7092	8660.55	7765.15
864.0838	1162.6491	8676.15	7783.05
864.2286	1164.5883	8732.7	7839.65
864.3734	1166.5267	8803.35	7907.35
864.5182	1168.4644	8955.35	8063.15
864.663	1170.4014	9143.7	8246.2
864.8078	1172.3377	9382.3	8491.8
864.9526	1174.2732	9586.85	8692.5
865.0974	1176.2081	9840.45	8947.6
865.2421	1178.1421	10084.15	9185.7
865.3869	1180.0755	10270.1	9378.1
865.5317	1182.0082	10367.7	9473
865.6764	1183.9401	10355.2	9462.65
865.8212	1185.8713	10165	9271.7
865.9659	1187.8017	9917.65	9028.8
866.1106	1189.7315	9642.95	8753.9
866.2554	1191.6605	9396.9	8480.65
866.4001	1193.5888	9168.85	8278.45
866.5448	1195.5163	9042.5	8150.55
866.6895	1197.4432	8950.4	8056.15
866.8342	1199.3693	8896.45	8004.8
866.9789	1201.2947	8878.7	7980.25
867.1236	1203.2193	8846.7	7954.4
867.2683	1205.1432	8872	7979.55
867.413	1207.0664	8879	7985.8
867.5576	1208.9889	8936.55	8039.1
867.7023	1210.9106	8968.9	8074.6
867.847	1212.8316	9018.4	8123.5
867.9916	1214.7519	9099	8196.2
868.1363	1216.6715	9091.3	8197
868.2809	1218.5903	9105.65	8213.9
868.4255	1220.5084	9054	8159.35
868.5701	1222.4257	9054.15	8163
868.7148	1224.3424	9014.9	8123.2
868.8594	1226.2583	9058.65	8160.5
869.004	1228.1735	9163.6	8269
869.1486	1230.0879	9255.45	8360.95
869.2932	1232.0016	9385.3	8491.55
869.4377	1233.9146	9420.15	8524.85
869.5823	1235.8269	9332.95	8438.6
869.7269	1237.7384	9182.65	8291.7
869.8715	1239.6492	8996.85	8102.9
870.016	1241.5592	8863.3	7968.95
870.1606	1243.4686	8804.05	7911
870.3051	1245.3772	8749.6	7855.6
870.4496	1247.285	8692.8	7799.45
870.5941	1249.1922	8697.15	7803.85
870.7387	1251.0986	8673	7780.4
870.8832	1253.0042	8657.4	7763.75
871.0277	1254.9092	8717.65	7826.7
871.1722	1256.8134	8788.9	7897.5
871.3167	1258.7169	8933.75	8037.7
871.4611	1260.6196	9116.4	8223.7
871.6056	1262.5216	9323.75	8427.3
871.7501	1264.4229	9469.05	8575.4
871.8945	1266.3234	9593.85	8701.55
872.039	1268.2232	9647	8754.9
872.1834	1270.1223	9653.6	8756.9
872.3278	1272.0207	9637.6	8744.85
872.4723	1273.9183	9605.4	8703.7
872.6167	1275.8151	9523.2	8629.65
872.7611	1277.7113	9440.95	8547.95
872.9055	1279.6067	9320.45	8426.5
873.0499	1281.5014	9189.8	8294.2
873.1943	1283.3953	9118	8221.3
873.3386	1285.2885	9106.55	8214.35
873.483	1287.181	9126.15	8233.5
873.6274	1289.0727	9183.15	8290.9
873.7717	1290.9637	9276.25	8381.9
873.9161	1292.854	9358.65	8466.05
874.0604	1294.7435	9500.4	8606.4
874.2047	1296.6323	9658.6	8763.75
874.349	1298.5204	9845.2	8947.7
874.4933	1300.4077	10074.45	9179.3
874.6376	1302.2943	10200.35	9306.8
874.7819	1304.1802	10254.8	9361.75
874.9262	1306.0653	10135	9240.95
875.0705	1307.9497	9959.2	9063.45
875.2147	1309.8333	9819.75	8926.8
875.359	1311.7162	9724.9	8831.9
875.5032	1313.5984	9786.5	8890.1
875.6475	1315.4798	9899.05	8995.15
875.7917	1317.3605	10022.3	9112.05
875.9359	1319.2405	10111.6	9215.85
876.0801	1321.1197	10096.9	9201.25
876.2243	1322.9982	10004.45	9108.65
876.3685	1324.876	9968.05	9074.7
876.5127	1326.753	9871.7	8976.65
876.6569	1328.6293	9879.5	8983.95
876.801	1330.5048	9868.9	8971.9
876.9452	1332.3796	9826.15	8932
877.0893	1334.2537	9812.15	8894.15
877.2335	1336.127	9738.7	8843.45
877.3776	1337.9996	9713.8	8818.6
877.5217	1339.8714	9669.95	8776.5
877.6658	1341.7426	9676.1	8736.25
877.8099	1343.6129	9609.6	8715.25
877.954	1345.4826	9563.3	8668.7
878.0981	1347.3515	9537.65	8640.55
878.2422	1349.2196	9497.25	8602.05
878.3862	1351.087	9480.65	8588.25
878.5303	1352.9537	9535.65	8641.65
878.6743	1354.8197	9670.8	8775.75
878.8184	1356.6849	9802.3	8908.5
878.9624	1358.5493	9906.1	9011.1
879.1064	1360.4131	9970.45	9075.2
879.2504	1362.276	9925.65	9031.85
879.3944	1364.1383	9758.3	8863.4
879.5384	1365.9998	9516.8	8618.35
879.6823	1367.8606	9199.9	8303.15
879.8263	1369.7206	8912.65	8017.5
879.9702	1371.5799	8708.6	7812.55
880.1142	1373.4384	8553.45	7658
880.2581	1375.2962	8387.25	7492
880.402	1377.1533	8163.45	7270.1
880.5459	1379.0096	7843.8	6949.5
880.6898	1380.8652	7557.25	6663.75
880.8337	1382.7201	7326.3	6432.35
880.9776	1384.5742	7075.35	6179.95
881.1215	1386.4275	6909.8	6014.4
881.2653	1388.2802	6812.75	5917.85
881.4092	1390.132	6704.15	5808.75
881.553	1391.9832	6635.7	5739.3
881.6968	1393.8336	6565.55	5671.45
881.8406	1395.6832	6525.7	5631.15
881.9844	1397.5322	6494.8	5599.25
882.1282	1399.3803	6488.9	5588.75
882.272	1401.2278	6467.65	5572.65
882.4158	1403.0745	6461.55	5566.75
882.5595	1404.9204	6454.6	5561.75
882.7033	1406.7656	6472.85	5578.5
882.847	1408.6101	6481.65	5584
882.9908	1410.4538	6504.65	5610.95
883.1345	1412.2968	6580.2	5682.85
883.2782	1414.139	6634.25	5737.4
883.4219	1415.9805	6740.05	5846.8
883.5656	1417.8213	6809.05	5908.95
883.7092	1419.6613	6934.6	6040.9
883.8529	1421.5006	7121	6225.6
883.9965	1423.3391	7385.55	6490.3
884.1402	1425.1769	7737.75	6842.35
884.2838	1427.0139	8234.6	7340.8
884.4274	1428.8502	8849.95	7957.3
884.571	1430.6858	9432.7	8537.7
884.7146	1432.5206	9846.4	8950.6
884.8582	1434.3547	10121.2	9227.6
885.0018	1436.188	10114.45	9220
885.1453	1438.0206	10059	9164.8
885.2889	1439.8524	9888.5	8991.55
885.4324	1441.6835	9782.45	8885.75
885.5759	1443.5139	9682	8784.3
885.7194	1445.3435	9616.45	8723.8
885.8629	1447.1724	9591.2	8698.65
886.0064	1449.0005	9492.05	8599.1
886.1499	1450.8279	9403	8509
886.2933	1452.6545	9366.35	8472
886.4368	1454.4804	9384.45	8491.65
886.5802	1456.3056	9399.45	8496.6
886.7237	1458.13	9259.8	8364.6
886.8671	1459.9536	9062.9	8167.55
887.0105	1461.7766	8716.7	7824.1
887.1539	1463.5987	8281.2	7385.65
887.2972	1465.4202	7921	7028.15
887.4406	1467.2409	7525.65	6632.85
887.584	1469.0608	7260.35	6365.95
887.7273	1470.88	6998.9	6104.1
887.8706	1472.6984	6772.9	5880.65
888.0139	1474.5161	6565.75	5668
888.1572	1476.3331	6404.35	5510.25
888.3005	1478.1493	6275.4	5380.5
888.4438	1479.9648	6183.9	5290.7
888.5871	1481.7795	6088.05	5191.95
888.7303	1483.5935	6014.65	5121.9
888.8736	1485.4067	5957.65	5064.85
889.0168	1487.2192	5888.2	4993.35
889.16	1489.031	5857.5	4962.95
889.3032	1490.842	5815.6	4921.4
889.4464	1492.6522	5775.3	4882.25
889.5896	1494.4618	5756.95	4862.25
889.7327	1496.2705	5743.6	4849
889.8759	1498.0785	5695.2	4799.7
890.019	1499.8858	5659	4761.85
890.1622	1501.6924	5636.1	4742.95
890.3053	1503.4981	5629.45	4736.45
890.4484	1505.3032	5603.05	4710.45
890.5914	1507.1075	5578.2	4684.55
890.7345	1508.911	5540.1	4648.15
890.8776	1510.7138	5506.25	4614.3
891.0206	1512.5159	5475.55	4580.7
891.1637	1514.3172	5429.1	4535.45
891.3067	1516.1178	5392.8	4499.7
891.4497	1517.9176	5381.75	4485.5
891.5927	1519.7166	5335.7	4445.9
891.7357	1521.515	5328.3	4428.75
891.8786	1523.3126	5304.4	4410.7
892.0216	1525.1094	5291.15	4397.45
892.1645	1526.9055	5255.35	4364.25
892.3074	1528.7008	5226.7	4334.7
892.4503	1530.4954	5213.2	4320.25
892.5932	1532.2893	5207.35	4317.1
892.7361	1534.0824	5187	4288.95
892.879	1535.8747	5181.95	4287.2
893.0218	1537.6663	5178.9	4285.3
893.1647	1539.4572	5158.95	4265.3
893.3075	1541.2473	5155.55	4261.65
893.4503	1543.0367	5140.75	4248.9
893.5931	1544.8253	5145.65	4250.45
893.7359	1546.6132	5173	4278.4
893.8787	1548.4003	5143.6	4241.9
894.0214	1550.1867	5190.2	4287.65
894.1642	1551.9723	5200.1	4303.3
894.3069	1553.7572	5227.6	4335.8
894.4496	1555.5414	5261.45	4369.1
894.5923	1557.3247	5319.5	4426.2
894.735	1559.1074	5398.3	4505.5
894.8777	1560.8893	5464.35	4573.45
895.0204	1562.6705	5557.1	4665.25
895.163	1564.4509	5620.2	4728.4
895.3056	1566.2305	5699.55	4808.75
895.4482	1568.0094	5773.9	4882.8
895.5908	1569.7876	5831.2	4939.85
895.7334	1571.565	5854.15	4961.05
895.876	1573.3417	5871.85	4980.75
896.0186	1575.1176	5873.35	4982.05
896.1611	1576.8928	5826.45	4932.15
896.3036	1578.6672	5758	4868.95
896.4461	1580.4409	5660.55	4768.55
896.5886	1582.2138	5562.7	4669
896.7311	1583.986	5452.75	4562.45
896.8736	1585.7575	5387.8	4496.8
897.0161	1587.5282	5320.05	4430.35
897.1585	1589.2981	5282.65	4391.85
897.3009	1591.0673	5273.85	4384.8
897.4433	1592.8358	5281.35	4392.9
897.5857	1594.6035	5293.25	4401.15
897.7281	1596.3704	5302.6	4411.2
897.8705	1598.1366	5310.45	4420.25
898.0128	1599.9021	5346.95	4456.1
898.1551	1601.6668	5409.45	4516.85
898.2975	1603.4308	5483.8	4594.8
898.4398	1605.194	5582.55	4688.15
898.5821	1606.9564	5687.5	4800
898.7243	1608.7182	5819.8	4928.25
898.8666	1610.4791	5972.8	5084.2
899.0088	1612.2394	6151.85	5262.6
899.1511	1613.9988	6381.4	5491.15
899.2933	1615.7576	6577.3	5688.65
899.4355	1617.5156	6797.65	5903.15
899.5776	1619.2728	7010.15	6119.65
899.7198	1621.0293	7145.2	6256.6
899.862	1622.785	7195.75	6302.05
900.0041	1624.54	7103.05	6209.55
900.1462	1626.2942	6958.55	6068
900.2883	1628.0477	6729.45	5837.35
900.4304	1629.8005	6514	5622.05
900.5725	1631.5525	6278.15	5388.75
900.7145	1633.3037	6108.6	5221
900.8566	1635.0542	5964.65	5076.55
900.9986	1636.804	5873.85	4987.5
901.1406	1638.553	5851.9	4882.6
901.2826	1640.3013	5763.9	4874
901.4245	1642.0488	5734.2	4844.4
901.5665	1643.7955	5745.4	4857.35
901.7085	1645.5416	5798.95	4909.65
901.8504	1647.2868	5896.4	5007.2
901.9923	1649.0313	5992.75	5106.05
902.1342	1650.7751	6153.9	5263.2
902.2761	1652.5181	6335.5	5447.9
902.4179	1654.2604	6550.2	5660.7
902.5598	1656.0019	6836.3	5947.3
902.7016	1657.7427	7162.6	6273.6
902.8434	1659.4828	7491.1	6604.6
902.9852	1661.222	7675.3	6783.9
903.127	1662.9606	7664.6	6775.05
903.2687	1664.6984	7489.55	6601.75
903.4105	1666.4354	7076.05	6186.1
903.5522	1668.1717	6582.95	5694.95
903.6939	1669.9072	6095.65	5206.8
903.8356	1671.642	5681.05	4790.05
903.9773	1673.3761	5354.35	4466.35
904.119	1675.1094	5072.25	4182.7
904.2606	1676.8419	4870.1	3980.9
904.4022	1678.5737	4724.05	3835.55
904.5439	1680.3048	4630.45	3741.05
904.6855	1682.0351	4531	3644.2
904.827	1683.7646	4464.2	3573.55
904.9686	1685.4934	4398.55	3513.6
905.1101	1687.2215	4361.6	3471.35
905.2517	1688.9488	4297.3	3410.35
905.3932	1690.6754	4251.6	3362.4
905.5347	1692.4012	4247.5	3360.25
905.6761	1694.1263	4208.95	3323.45
905.8176	1695.8506	4186.55	3296.8
905.9591	1697.5742	4168.8	3281.1
906.1005	1699.297	4143.5	3254.65
906.2419	1701.0191	4104.85	3218.85
906.3833	1702.7404	4094.3	3208.95
906.5246	1704.461	4048.7	3159.9
906.666	1706.1808	4037.8	3147.7
906.8073	1707.8999	4028.3	3138.6
906.9487	1709.6182	4012.15	3123.55
907.09	1711.3358	3994.5	3108.85
907.2313	1713.0527	3955.55	3070.95
907.3725	1714.7688	3946.65	3054.4
907.5138	1716.4841	3921.15	3031.5
907.655	1718.1987	3923.9	3032.8
907.7962	1719.9126	3893.3	3007.45
907.9374	1721.6257	3879.65	2989.75
908.0786	1723.338	3871.9	2984.4
908.2198	1725.0496	3851.15	2965.25
908.3609	1726.7605	3849.75	2962.1
908.502	1728.4706	3842.9	2956.4
908.6431	1730.18	3819.5	2928.7
908.7842	1731.8886	3815.6	2928.45
908.9253	1733.5964	3810.65	2921.1
909.0664	1735.3036	3800.8	2910.5
909.2074	1737.0099	3773.55	2889.4
909.3484	1738.7156	3766.05	2882.75
909.4894	1740.4204	3734.05	2846.15
909.6304	1742.1246	3730.45	2843.35
909.7714	1743.8279	3711.8	2826.6
909.9123	1745.5306	3705.35	2817.65
910.0532	1747.2325	3689.75	2803.15
910.1941	1748.9336	3681.4	2794.35
910.335	1750.634	3668.2	2778.5
910.4759	1752.3336	3659.9	2772.65
910.6168	1754.0325	3655.4	2770.1
910.7576	1755.7307	3636.05	2747.85
910.8984	1757.4281	3632.2	2745.2
911.0392	1759.1247	3642.1	2749.15
911.18	1760.8206	3621.55	2728.8
911.3208	1762.5158	3629.55	2739.65
911.4615	1764.2102	3602.4	2718.15
911.6022	1765.9039	3593.8	2706.5
911.7429	1767.5968	3577.45	2691.65
911.8836	1769.289	3569.5	2683.95
912.0243	1770.9804	3569.1	2680.8
912.1649	1772.6711	3559.35	2671.6
912.3056	1774.361	3532.15	2642.45
912.4462	1776.0502	3558	2671.6
912.5868	1777.7386	3540.65	2651
912.7274	1779.4263	3519.6	2631.8
912.8679	1781.1132	3523.9	2639.45
913.0084	1782.7994	3512.8	2625.05
913.149	1784.4849	3497.75	2612.35
913.2895	1786.1696	3501.85	2595.55
913.4299	1787.8535	3497.75	2610.25
913.5704	1789.5367	3490.65	2604.1
913.7108	1791.2192	3491.75	2605.3
913.8513	1792.9009	3484.45	2585.8
913.9917	1794.5818	3468.2	2581.55
914.132	1796.2621	3460.6	2575.95
914.2724	1797.9415	3459.15	2572.3
914.4128	1799.6202	3429.65	2543.75
914.5531	1801.2982	3435.4	2549.7
914.6934	1802.9755	3434.4	2547.55
914.8337	1804.6519	3433.85	2547.75
914.9739	1806.3277	3408.85	2522.1
915.1142	1808.0027	3405.9	2519.05
915.2544	1809.6769	3392.55	2507.5
915.3946	1811.3504	3400.6	2513.85
915.5348	1813.0231	3403.6	2515.5
915.675	1814.6951	3391.15	2505.45
915.8151	1816.3664	3395.2	2507.1
915.9553	1818.0369	3378.45	2490.95
916.0954	1819.7067	3388.7	2503.3
916.2355	1821.3757	3363.6	2476.3
916.3755	1823.044	3356.6	2471
916.5156	1824.7115	3363.65	2478.7
916.6556	1826.3783	3348.95	2464.55
916.7956	1828.0443	3328.55	2444.55
916.9356	1829.7096	3340.1	2453.05
917.0756	1831.3741	3317.2	2428.45
917.2155	1833.0379	3315.15	2429.7
917.3555	1834.701	3306.9	2419.35
917.4954	1836.3633	3312.6	2425.75
917.6353	1838.0248	3312.65	2423.3
917.7751	1839.6856	3297.35	2412.3
917.915	1841.3457	3300.5	2415.85
918.0548	1843.005	3294.2	2407.7
918.1946	1844.6636	3289.2	2405.7
918.3344	1846.3214	3283.1	2396.45
918.4742	1847.9785	3280.5	2396.35
918.6139	1849.6349	3277.45	2390.6
918.7537	1851.2904	3280.8	2384.65
918.8934	1852.9453	3258.85	2374
919.0331	1854.5994	3251.35	2362.4
919.1727	1856.2528	3261.9	2370.4
919.3124	1857.9054	3237.6	2351.55
919.452	1859.5572	3245.9	2361.7
919.5916	1861.2083	3244.05	2358
919.7312	1862.8587	3250.75	2363
919.8708	1864.5084	3224.65	2338.65
920.0103	1866.1572	3220.7	2334.75
920.1498	1867.8054	3197.4	2312.4
920.2893	1869.4528	3206.3	2322.15
920.4288	1871.0994	3187.85	2300.6
920.5683	1872.7453	3186.55	2300.85
920.7077	1874.3905	3193.55	2289.9
920.8471	1876.0349	3176.65	2289.1
920.9865	1877.6786	3166.15	2280.05
921.1259	1879.3215	3166.2	2281.65
921.2653	1880.9637	3164.25	2279.4
921.4046	1882.6051	3151.8	2267.3
921.5439	1884.2458	3145.3	2256.55
921.6832	1885.8858	3145.15	2259.3
921.8225	1887.525	3138.95	2251.6
921.9617	1889.1634	3116.5	2231.05
922.101	1890.8011	3128.15	2240.4
922.2402	1892.4381	3124.9	2236.25
922.3794	1894.0743	3107.45	2222.75
922.5185	1895.7098	3106.2	2220.2
922.6577	1897.3446	3101.35	2214.2
922.7968	1898.9786	3099.45	2210.95
922.9359	1900.6118	3094.2	2209.1
923.075	1902.2443	3081.6	2194.65
923.214	1903.8761	3068.85	2183.3
923.3531	1905.5071	3064.05	2176.15
923.4921	1907.1374	3056.8	2171.05
923.6311	1908.7669	3051.3	2164.05
923.77	1910.3957	3051.65	2166.1
923.909	1912.0237	3040.05	2154.3
924.0479	1913.651	3032.35	2144.4
924.1868	1915.2776	3029.95	2145
924.3257	1916.9034	3013.55	2129.35
924.4646	1918.5285	3004	2119.6
924.6034	1920.1528	2993.1	2105.75
924.7422	1921.7764	3008.65	2122.65
924.881	1923.3992	2999.65	2115.7
925.0198	1925.0213	2979.7	2094.25
925.1586	1926.6427	2971.85	2088.2
925.2973	1928.2633	3078.05	2069.95
925.436	1929.8832	2983.2	2094.35
925.5747	1931.5023	2955.85	2069.3
925.7134	1933.1207	2949.55	2065.35
925.852	1934.7383	2945.35	2060.75
925.9906	1936.3552	2940.45	2054.4
926.1292	1937.9714	2935.95	2049.35
926.2678	1939.5868	2926.1	2039.55
926.4064	1941.2015	2909.9	2021.85
926.5449	1942.8154	2906.8	2021.15
926.6834	1944.4286	2897.3	2012.85
926.8219	1946.041	2904.75	1996
926.9604	1947.6528	2884.1	1993.9
927.0988	1949.2637	2881	1994.35
927.2372	1950.8739	2864.7	1978.2
927.3756	1952.4834	2867.65	1983.3
927.514	1954.0921	2860.45	1976.05
927.6523	1955.7001	2853.85	1964.45
927.7907	1957.3074	2838.9	1952.7
927.929	1958.9139	2818.8	1933.25
928.0673	1960.5197	2821	1934.65
928.2055	1962.1247	2826.5	1940.55
928.3438	1963.729	2806.7	1923.75
928.482	1965.3325	2823.05	1912
928.6202	1966.9353	2799.55	1915.1
928.7584	1968.5374	2799.45	1914.25
928.8965	1970.1387	2789.35	1904.15
929.0346	1971.7393	2779.6	1894.95
929.1727	1973.3392	2785.2	1900.35
929.3108	1974.9383	2762.7	1877.9
929.4489	1976.5366	2741.05	1855.4
929.5869	1978.1342	2742.75	1855.25
929.7249	1979.7311	2753.65	1868.3
929.8629	1981.3273	2740.85	1854.3
930.0009	1982.9227	2744	1858.95
930.1388	1984.5173	2737.8	1855.3
930.2767	1986.1112	2725.3	1840.9
930.4146	1987.7044	2719.05	1836
930.5525	1989.2968	2714	1828.8
930.6904	1990.8885	2705.75	1816.4
930.8282	1992.4795	2706.4	1821.6
930.966	1994.0697	2707.2	1821.75
931.1038	1995.6592	2685.8	1801.45
931.2415	1997.2479	2683.8	1799.5
931.3793	1998.8359	2687	1802.5
931.517	2000.4232	2672.3	1789.35
931.6547	2002.0097	2665.5	1781.6
931.7923	2003.5955	2660.65	1776.8
931.93	2005.1805	2664.15	1778.75
932.0676	2006.7648	2657.25	1772.75
932.2052	2008.3484	2646.1	1760.5
932.3427	2009.9312	2650.35	1763.95
932.4803	2011.5133	2634.55	1751.25
932.6178	2013.0946	2640.2	1755.95
932.7553	2014.6752	2642.4	1758.2
932.8928	2016.2551	2627.05	1741.1
933.0302	2017.8342	2619.45	1733.85
933.1676	2019.4126	2610.75	1728.35
933.305	2020.9902	2599.15	1713.3
933.4424	2022.5672	2617.45	1731.9
933.5798	2024.1433	2602.75	1712.3
933.7171	2025.7188	2589.3	1706.65
933.8544	2027.2935	2588.9	1705.75
933.9917	2028.8674	2576.7	1694.6
934.129	2030.4406	2564.85	1681.75
934.2662	2032.0131	2572.4	1690.4
934.4034	2033.5849	2568.35	1680.95
934.5406	2035.1559	2566.25	1682.2
934.6778	2036.7261	2564.05	1678.95
934.8149	2038.2957	2561.25	1675.55
934.952	2039.8645	2557.85	1671.9
935.0891	2041.4325	2556.2	1669.6
935.2262	2042.9998	2555.8	1672.4
935.3632	2044.5664	2543.45	1657.5
935.5002	2046.1323	2533	1648.2
935.6372	2047.6974	2525.35	1642.7
935.7742	2049.2617	2514.1	1628.35
935.9111	2050.8254	2553.4	1636.6
936.048	2052.3883	2522	1634.35
936.1849	2053.9504	2520.55	1633.85
936.3218	2055.5118	2511.05	1625.75
936.4586	2057.0725	2502.25	1613.5
936.5955	2058.6325	2513.3	1629.25
936.7323	2060.1917	2491	1607.75
936.869	2061.7502	2492.35	1605.3
937.0058	2063.3079	2481.45	1597.3
937.1425	2064.8649	2494.05	1609.25
937.2792	2066.4212	2490.15	1602.75
937.4159	2067.9767	2472.4	1587.55
937.5525	2069.5315	2456.05	1571.4
937.6891	2071.0856	2449.05	1563.8
937.8257	2072.6389	2437.5	1551.5
937.9623	2074.1915	2446.4	1564.2
938.0989	2075.7433	2432.65	1547.65
938.2354	2077.2945	2435.9	1551.55
938.3719	2078.8448	2423.8	1539.8
938.5084	2080.3945	2418.3	1533.55
938.6448	2081.9434	2417.65	1531.1
938.7812	2083.4916	2418.5	1533.35
938.9176	2085.039	2403.65	1515.2
939.054	2086.5857	2413.3	1527.65
939.1903	2088.1317	2406.65	1521.4
939.3267	2089.677	2400.95	1514.2
939.463	2091.2215	2398.95	1514.75
939.5992	2092.7652	2399.7	1511.7
939.7355	2094.3083	2395.45	1509.1
939.8717	2095.8506	2375.75	1489.75
940.0079	2097.3921	2389.7	1503.15
940.1441	2098.933	2367.25	1480.9
940.2802	2100.4731	2363.2	1476.55
940.4163	2102.0124	2374.7	1482.15
940.5524	2103.5511	2375.35	1489.55
940.6885	2105.089	2365.35	1478.6
940.8245	2106.6261	2361.05	1476.55
940.9606	2108.1626	2365.95	1478.85
941.0965	2109.6983	2385.1	1472.45
941.2325	2111.2332	2363.1	1476.95
941.3684	2112.7675	2349.55	1462
941.5044	2114.301	2344.3	1457.6
941.6403	2115.8337	2344.5	1457.55
941.7761	2117.3657	2334.2	1449.2
941.912	2118.897	2347.45	1461.7
942.0478	2120.4276	2337.75	1445.65
942.1835	2121.9575	2326.45	1441
942.3193	2123.4866	2336.35	1434.7
942.455	2125.0149	2320.3	1431.9
942.5907	2126.5426	2319.45	1435.8
942.7264	2128.0695	2313.55	1424.35
942.8621	2129.5956	2303.35	1418.85
942.9977	2131.1211	2309.05	1421.55
943.1333	2132.6458	2301.95	1415.25
943.2689	2134.1698	2295.8	1409.95
943.4044	2135.693	2298	1410.8
943.54	2137.2155	2298.25	1409.75
943.6755	2138.7373	2288.65	1402.1
943.8109	2140.2584	2277.75	1392.65
943.9464	2141.7787	2278.55	1389.95
944.0818	2143.2983	2264.85	1381.35
944.2172	2144.8171	2265.8	1380.4
944.3526	2146.3353	2256.5	1368.8
944.4879	2147.8527	2257.05	1374
944.6232	2149.3693	2266.95	1381.25
944.7585	2150.8853	2253.3	1366.75
944.8938	2152.4005	2241.65	1355.45
945.029	2153.9149	2245.9	1360.35
945.1642	2155.4287	2246.45	1360.85
945.2994	2156.9417	2244.45	1357.8
945.4346	2158.454	2227.9	1341.35
945.5697	2159.9655	2224.95	1339.7
945.7048	2161.4764	2230	1344.5
945.8399	2162.9865	2228.6	1342.6
945.9749	2164.4958	2228.4	1344.25
946.1099	2166.0045	2218.8	1331.15
946.2449	2167.5124	2211.9	1326.75
946.3799	2169.0195	2202.7	1318.4
946.5148	2170.526	2203.85	1317.1
946.6498	2172.0317	2201.2	1315.6
946.7846	2173.5367	2200.15	1314.75
946.9195	2175.0409	2195.45	1310.2
947.0543	2176.5445	2199	1313.35
947.1891	2178.0473	2187.65	1299.45
947.3239	2179.5494	2180.65	1292.8
947.4587	2181.0507	2167.75	1281.55
947.5934	2182.5513	2176.8	1289.35
947.7281	2184.0512	2182.55	1295.85
947.8628	2185.5504	2166.55	1281.35
947.9974	2187.0488	2157.3	1274.45
948.132	2188.5465	2156.5	1269.55
948.2666	2190.0435	2159.1	1273.15
948.4012	2191.5397	2149.2	1265.3
948.5357	2193.0353	2143.3	1258.9
948.6702	2194.5301	2140.15	1253.65
948.8047	2196.0241	2132.55	1245.4
948.9392	2197.5175	2131.8	1243.35
949.0736	2199.0101	2133.15	1245.6
949.208	2200.502	2132	1244.6
949.3424	2201.9931	2122.05	1235.9
949.4767	2203.4835	2110.7	1225.1
949.611	2204.9733	2118.3	1224.15
949.7453	2206.4622	2116.15	1233.8
949.8796	2207.9505	2113.5	1224.75
950.0138	2209.438	2100.45	1217.75
950.148	2210.9248	2095.5	1208.85
950.2822	2212.4109	2095.9	1209.8
950.4164	2213.8962	2099.55	1212.1
950.5505	2215.3809	2090.3	1202.45
950.6846	2216.8648	2089.95	1203.4
950.8186	2218.3479	2085	1194.4
950.9527	2219.8304	2075.4	1186.35
951.0867	2221.3121	2073.95	1186.05
951.2207	2222.7931	2065.65	1179.6
951.3546	2224.2733	2075.9	1188.6
951.4886	2225.7529	2064.05	1176.9
951.6225	2227.2317	2059.9	1172.2
951.7563	2228.7098	2062.6	1178.3
951.8902	2230.1872	2050.25	1164.7
952.024	2231.6638	2043.1	1156.8
952.1578	2233.1397	2045.05	1156.2
952.2916	2234.6149	2036.1	1149.6
952.4253	2236.0894	2033.2	1146.45
952.559	2237.5632	2045.6	1149.7
952.6927	2239.0362	2037.25	1151.75
952.8263	2240.5085	2026.85	1141.4
952.9599	2241.9801	2013.8	1127.3
953.0935	2243.4509	2020.3	1135.25
953.2271	2244.921	2009.05	1122.35
953.3606	2246.3904	2007.5	1119.55
953.4941	2247.8591	2000	1113.25
953.6276	2249.3271	2006.25	1119.2
953.7611	2250.7943	2000.65	1114.1
953.8945	2252.2608	1990.5	1104.05
954.0279	2253.7266	1983.9	1097.6
954.1612	2255.1917	1986.7	1100.65
954.2946	2256.656	1971.4	1084.1
954.4279	2258.1197	1975.25	1090.35
954.5612	2259.5826	1974.9	1087.95
954.6944	2261.0447	1971.5	1084.7
954.8276	2262.5062	1962.95	1075.6
954.9608	2263.9669	1975.7	1089
955.094	2265.4269	1965.45	1080.5
955.2271	2266.8862	1959	1073.2
955.3602	2268.3448	1957.85	1069.9
955.4933	2269.8026	1953.25	1068.3
955.6264	2271.2598	1952.95	1067.95
955.7594	2272.7162	1946.65	1061.15
955.8924	2274.1719	1956.3	1072.8
956.0253	2275.6268	1950.3	1064.5
956.1583	2277.0811	1944.15	1056.95
956.2912	2278.5346	1940.25	1054.25
956.4241	2279.9874	1944.4	1060.25
956.5569	2281.4395	1934.55	1049.95
956.6897	2282.8908	1942.15	1049.65
956.8225	2284.3414	1932.1	1043.25
956.9553	2285.7914	1931.95	1046.85
957.088	2287.2406	1935.75	1048.75
957.2207	2288.689	1920.1	1034.3
957.3534	2290.1368	1925.8	1038.65
957.486	2291.5838	1923.55	1036.35
957.6186	2293.0302	1915.05	1025.9
957.7512	2294.4758	1899.05	1013.25
957.8838	2295.9206	1900.75	1014.1
958.0163	2297.3648	1898.7	1011.05
958.1488	2298.8082	1904.5	1018.65
958.2813	2300.251	1899.4	1012.15
958.4137	2301.693	1903.8	1015.15
958.5461	2303.1343	1899.75	1013.3
958.6785	2304.5748	1888.1	1001.9
958.8108	2306.0147	1903.5	1017.35
958.9432	2307.4538	1885.7	998.15
959.0754	2308.8922	1879	995.45
959.2077	2310.3299	1882.2	995.95
959.3399	2311.7669	1881.8	996.15
959.4721	2313.2031	1874.2	986.7
959.6043	2314.6387	1871.3	984.8
959.7365	2316.0735	1859.25	972.9
959.8686	2317.5076	1872.65	984.2
960.0006	2318.941	1864.8	978.15
960.1327	2320.3737	1857.95	972.05
960.2647	2321.8056	1861.7	973.4
960.3967	2323.2369	1842.15	953.65
960.5287	2324.6674	1850.6	960.5
960.6606	2326.0972	1846.3	958.55
960.7925	2327.5263	1845.6	959.8
960.9244	2328.9547	1844.9	957.55
961.0562	2330.3823	1844.2	955.7
961.1881	2331.8092	1839.35	950.25
961.3198	2333.2355	1823.1	936.1
961.4516	2334.661	1829.5	942.05
961.5833	2336.0858	1835.85	945.9
961.715	2337.5098	1822.7	935.45
961.8467	2338.9332	1816.25	929.75
961.9783	2340.3558	1815.45	926.65
962.1099	2341.7778	1819.8	934.45
962.2415	2343.199	1814.8	928.05
962.373	2344.6195	1814	929.35
962.5045	2346.0393	1819.65	934.2
962.636	2347.4583	1813.85	926.25
962.7675	2348.8767	1815.9	930.25
962.8989	2350.2943	1797.3	911.15
963.0303	2351.7113	1816.35	929.05
963.1617	2353.1275	1798.95	912.65
963.293	2354.543	1825.55	915.6
963.4243	2355.9578	1806.6	920.95
963.5556	2357.3718	1798.8	913.2
963.6868	2358.7852	1797.05	909.25
963.818	2360.1978	1784.75	898.2
963.9492	2361.6098	1793.3	908.35
964.0803	2363.021	1794.05	906.05
964.2114	2364.4315	1785.3	900.4
964.3425	2365.8413	1784.85	899.5
964.4736	2367.2504	1776	893.15
964.6046	2368.6587	1773.3	888.35
964.7356	2370.0664	1768.85	884.05
964.8666	2371.4733	1763.05	879
964.9975	2372.8795	1770.8	885.75
965.1284	2374.285	1760.65	878.65
965.2593	2375.6899	1753.6	868.05
965.3901	2377.0939	1752.8	869.55
965.5209	2378.4973	1756.45	871.05
965.6517	2379.9	1748.15	862.75
965.7825	2381.3019	1750.95	866.35
965.9132	2382.7032	1739.45	855.85
966.0439	2384.1037	1741.65	859.35
966.1745	2385.5035	1739.35	855.5
966.3051	2386.9027	1736.85	853.2
966.4357	2388.3011	1740.65	854.2
966.5663	2389.6987	1727.6	844.6
966.6968	2391.0957	1719.5	838.05
966.8273	2392.492	1720.5	837.1
966.9578	2393.8876	1716.7	832.9
967.0882	2395.2824	1717.55	832.35
967.2186	2396.6765	1704.45	823.9
967.349	2398.07	1710.7	827.1
967.4793	2399.4627	1709.05	824.35
967.6097	2400.8547	1710.55	826.7
967.7399	2402.246	1717.45	827.3
967.8702	2403.6366	1697.65	815.4
968.0004	2405.0265	1697.55	812.1
968.1306	2406.4156	1695.95	808.1
968.2607	2407.8041	1697.15	810.1
968.3909	2409.1918	1695.95	810.75
968.521	2410.5789	1681.25	798
968.651	2411.9652	1685.05	796.95
968.781	2413.3508	1686.6	801.95
968.911	2414.7358	1687.3	802.9
969.041	2416.12	1686.9	804.7
969.1709	2417.5035	1678.25	794.25
969.3008	2418.8863	1673.1	787.65
969.4307	2420.2684	1676.35	793
969.5606	2421.6497	1673.8	790
969.6904	2423.0304	1669.85	789.65
969.8201	2424.4104	1666.1	781.6
969.9499	2425.7896	1662.15	777.2
970.0796	2427.1682	1665.65	782.35
970.2093	2428.546	1665.25	780.55
970.3389	2429.9232	1655.35	771.9
970.4685	2431.2996	1659.25	774.9
970.5981	2432.6753	1653.25	769.45
970.7277	2434.0503	1642.25	759.35
970.8572	2435.4246	1645.8	760.75
970.9867	2436.7982	1650.2	764.2
971.1161	2438.1711	1645	761
971.2456	2439.5433	1640.3	752.85
971.375	2440.9148	1640.65	753.5
971.5043	2442.2856	1631.1	746.3
971.6336	2443.6557	1628.85	741.85
971.7629	2445.025	1630.3	745.75
971.8922	2446.3937	1630.35	746.3
972.0214	2447.7617	1632.3	748.75
972.1506	2449.1289	1630.2	746.8
972.2798	2450.4955	1627.8	740.6
972.4089	2451.8613	1618.8	737.25
972.538	2453.2265	1617.5	732.5
972.6671	2454.5909	1617.05	732.15
972.7961	2455.9546	1609.75	723.85
972.9251	2457.3177	1609.2	726.15
973.0541	2458.68	1607.1	720.2
973.1831	2460.0416	1610.15	725.05
973.312	2461.4025	1611.85	728.1
973.4408	2462.7627	1622.75	728.2
973.5697	2464.1222	1609.35	724.65
973.6985	2465.4811	1612.75	728.05
973.8273	2466.8392	1600.15	713.75
973.956	2468.1966	1606.55	719.6
974.0847	2469.5533	1598.4	710.6
974.2134	2470.9093	1611	726.1
974.3421	2472.2645	1607.35	720.35
974.4707	2473.6191	1604.2	720.65
974.5993	2474.973	1595.5	713.05
974.7278	2476.3262	1597.15	708.65
974.8563	2477.6787	1597.5	714.65
974.9848	2479.0305	1588.55	703.9
975.1132	2480.3816	1592.75	706.15
975.2417	2481.7319	1594.6	709.8
975.37	2483.0816	1590.1	706.4
975.4984	2484.4306	1582.25	696.6
975.6267	2485.7789	1577.3	694.05
975.755	2487.1264	1572.4	685.6
975.8833	2488.4733	1583.65	700.1
976.0115	2489.8195	1591.2	688.15
976.1397	2491.165	1574.05	687.55
976.2678	2492.5097	1567	682
976.3959	2493.8538	1565.95	680.8
976.524	2495.1972	1558.5	674.55
976.6521	2496.5398	1556.1	671.55
976.7801	2497.8818	1554.1	666.65
976.9081	2499.2231	1559.25	674.1
977.036	2500.5637	1546.85	659.75
977.164	2501.9035	1552.45	666.75
977.2918	2503.2427	1551.65	663.45
977.4197	2504.5812	1544.65	660.6
977.5475	2505.919	1551.3	662.7
977.6753	2507.256	1542.7	658.45
977.8031	2508.5924	1544.85	660.25
977.9308	2509.9281	1548.05	657.55
978.0585	2511.2631	1535.1	651
978.1861	2512.5974	1539.65	655.7
978.3137	2513.9309	1543.4	658.55
978.4413	2515.2638	1563.6	652.9
978.5689	2516.596	1533	648.95
978.6964	2517.9275	1528.7	642.8
978.8239	2519.2583	1525.7	640.05
978.9513	2520.5884	1528.45	641.2
979.0788	2521.9178	1526.95	642.35
979.2062	2523.2465	1525.1	640.4
979.3335	2524.5745	1524.5	640.8
979.4608	2525.9018	1528.25	642.55
979.5881	2527.2284	1518.65	634.9
979.7154	2528.5543	1514.15	631.15
979.8426	2529.8796	1511.95	627.45
979.9698	2531.2041	1512.55	627.7
980.0969	2532.5279	1513.45	629.45
980.224	2533.851	1508.3	624.8
980.3511	2535.1735	1514.95	631.25
980.4781	2536.4952	1511.6	627.65
980.6052	2537.8163	1510.1	624.25
980.7321	2539.1366	1500.45	615.2
980.8591	2540.4562	1514.05	627.4
980.986	2541.7752	1508.45	623.25
981.1129	2543.0935	1502.15	618.25
981.2397	2544.411	1505.45	620.25
981.3665	2545.7279	1496.45	612.9
981.4933	2547.0441	1502.5	618.75
981.62	2548.3596	1506.35	618
981.7467	2549.6744	1495.45	610.95
981.8734	2550.9885	1488.35	601.25
982.0001	2552.3019	1495.8	610.95
982.1267	2553.6146	1496.4	611.6
982.2532	2554.9266	1491.65	604.2
982.3798	2556.2379	1486.35	600
982.5063	2557.5485	1481.35	598.25
982.6327	2558.8585	1493.9	603.75
982.7592	2560.1677	1487.95	600.8
982.8856	2561.4762	1477.35	594
983.0119	2562.7841	1487.2	600.6
983.1383	2564.0913	1482.5	598.85
983.2646	2565.3977	1482.5	598.55
983.3908	2566.7035	1479.25	594.95
983.517	2568.0086	1480.7	593.75
983.6432	2569.313	1474	588.75
983.7694	2570.6167	1484.85	595.95
983.8955	2571.9197	1472.7	587
984.0216	2573.222	1480.4	593.7
984.1476	2574.5236	1467.95	582.35
984.2737	2575.8246	1476.15	589.95
984.3996	2577.1248	1466.95	578.8
984.5256	2578.4244	1474.55	591.3
984.6515	2579.7232	1465.75	580.7
984.7774	2581.0214	1500.35	584.8
984.9032	2582.3189	1475.3	591.8
985.029	2583.6157	1469.65	580.45
985.1548	2584.9118	1476.65	591.75
985.2806	2586.2072	1469.65	587
985.4063	2587.5019	1465.15	580.45
985.5319	2588.7959	1476.45	588.6
985.6576	2590.0893	1475.75	588.8
985.7832	2591.3819	1468.75	584.35
985.9087	2592.6739	1480	596.7
986.0343	2593.9652	1473.55	589.3
986.1597	2595.2557	1479.4	594.8
986.2852	2596.5456	1476.85	589.4
986.4106	2597.8348	1476.55	593.9
986.536	2599.1234	1474.05	590.5
986.6614	2600.4112	1479.85	593.55
986.7867	2601.6983	1484.15	593.5
986.912	2602.9848	1485.15	601.1
987.0372	2604.2705	1484.55	592.5
987.1624	2605.5556	1478.7	594.3
987.2876	2606.84	1467.95	584.6
987.4128	2608.1237	1478.15	595.05
987.5379	2609.4067	1471.6	587.4
987.6629	2610.689	1474.65	579.4
987.788	2611.9707	1471.35	585.1
987.913	2613.2516	1468.95	579.7
988.0379	2614.5319	1468.4	584.75
988.1629	2615.8115	1465.85	581.4
988.2878	2617.0903	1452.4	566.6
988.4126	2618.3685	1465.6	582.5
988.5375	2619.6461	1456.65	574.25
988.6622	2620.9229	1453.9	569.45
988.787	2622.199	1456.4	570.25
988.9117	2623.4745	1461.8	576.3
989.0364	2624.7493	1448	563.85
989.161	2626.0234	1446.8	563.7
989.2857	2627.2968	1457.65	573.35
989.4102	2628.5695	1453.15	568.45
989.5348	2629.8415	1449.8	564.3
989.6593	2631.1128	1455.95	568.85
989.7837	2632.3835	1450.7	565.9
989.9082	2633.6535	1451.5	567.95
990.0326	2634.9228	1450.65	566.65
990.1569	2636.1914	1452.85	568.8
990.2812	2637.4593	1457.35	572.25
990.4055	2638.7265	1448.95	564.95
990.5298	2639.9931	1445.05	560.4
990.654	2641.259	1448.5	563.2
990.7782	2642.5242	1447	561.45
990.9023	2643.7887	1439.9	555.15
991.0264	2645.0525	1443.7	558.1
991.1505	2646.3156	1438.6	552.9
991.2745	2647.5781	1436.1	553.8
991.3985	2648.8398	1430.75	547.1
991.5225	2650.1009	1477.65	556.35
991.6464	2651.3613	1433.75	551.2
991.7703	2652.6211	1431.15	545.55
991.8942	2653.8801	1429.85	545.6
992.018	2655.1385	1432.75	543.5
992.1418	2656.3961	1422.9	538.25
992.2655	2657.6531	1424.25	540.15
992.3892	2658.9094	1426.3	540.95
992.5129	2660.1651	1430.3	547.2
992.6366	2661.42	1428.5	544.05
992.7602	2662.6743	1429.5	542.6
992.8837	2663.9279	1431.85	548.6
993.0073	2665.1808	1435.2	550.8
993.1307	2666.433	1435.55	551.15
993.2542	2667.6846	1440.45	558.1
993.3776	2668.9354	1444	556.2
993.501	2670.1856	1438.25	554.85
993.6244	2671.4351	1448.6	564.15
993.7477	2672.6839	1451	565.2
993.8709	2673.9321	1450.6	567.4
993.9942	2675.1795	1450.7	566.2
994.1174	2676.4263	1453.75	570.35
994.2405	2677.6724	1450.25	564.25
994.3637	2678.9179	1454.2	570.5
994.4868	2680.1626	1447.5	563.6
994.6098	2681.4067	1457.1	575.25
994.7328	2682.6501	1455.1	568.5
994.8558	2683.8928	1464.4	580.6
994.9788	2685.1348	1444.65	561.15
995.1017	2686.3761	1439.4	555.95
995.2245	2687.6168	1440.2	554.15
995.3474	2688.8568	1437.1	553.35
995.4702	2690.0961	1433.05	549.6
995.5929	2691.3348	1430.9	546.75
995.7156	2692.5727	1424.55	541.85
995.8383	2693.81	1428.4	545.55
995.961	2695.0466	1426.75	541.65
996.0836	2696.2826	1427.1	541.05
996.2062	2697.5178	1433.1	543.2
996.3287	2698.7524	1423.3	537.85
996.4512	2699.9863	1429.4	542.25
996.5737	2701.2195	1430.75	547.05
996.6961	2702.452	1434.5	548.45
996.8185	2703.6839	1438.4	554.25
996.9408	2704.9151	1438.25	555.65
997.0631	2706.1456	1449.1	564.75
997.1854	2707.3755	1453.25	568.35
997.3077	2708.6046	1455.9	568.8
997.4299	2709.8331	1462.35	578.25
997.552	2711.0609	1476.05	593.45
997.6742	2712.2881	1478.95	593.25
997.7963	2713.5145	1493.95	605.9
997.9183	2714.7403	1501.45	618.8
998.0403	2715.9654	1517.5	631.9
998.1623	2717.1899	1530.55	633.35
998.2842	2718.4136	1532.05	650.75
998.4062	2719.6367	1535.85	651.35
998.528	2720.8591	1563.55	672.7
998.6498	2722.0809	1575.55	691.4
998.7716	2723.3019	1575.3	687.05
998.8934	2724.5223	1586.6	702.5
999.0151	2725.7421	1593.4	708.25
999.1368	2726.9611	1593.95	706.65
999.2584	2728.1795	1599.2	710.75
999.38	2729.3972	1578.45	692
999.5016	2730.6142	1585.5	689.4
999.6231	2731.8306	1551.6	666.65
999.7446	2733.0462	1544.55	658.15
999.8661	2734.2612	1532.9	644
999.9875	2735.4756	1508.6	624.3
1000.1089	2736.6892	1493.6	608.75
1000.2302	2737.9022	1477.85	593.7
1000.3515	2739.1145	1467.7	583.15
1000.4728	2740.3262	1462.75	571.35
1000.594	2741.5372	1442.4	558.35
1000.7152	2742.7475	1432.85	549.05
1000.8363	2743.9571	1418.05	530.35
1000.9575	2745.1661	1413.35	523.75
1001.0785	2746.3744	1405.15	518.5
1001.1996	2747.582	1386.3	502.3
1001.3206	2748.7889	1380.45	492.65
1001.4415	2749.9952	1381.3	496.8
1001.5625	2751.2008	1373.3	489.05
1001.6833	2752.4057	1376.35	487.65
1001.8042	2753.61	1371.35	485.5
1001.925	2754.8136	1370.3	485.8
1002.0458	2756.0165	1371.6	487.7
1002.1665	2757.2188	1360.4	477.65
1002.2872	2758.4204	1367.5	483.1
1002.4078	2759.6213	1362.4	476.8
1002.5285	2760.8215	1376.65	485.35
1002.649	2762.0211	1362	475.1
1002.7696	2763.22	1361.2	473.4
1002.8901	2764.4182	1363.85	479.2
1003.0106	2765.6158	1356.2	472.2
1003.131	2766.8127	1357.4	473.1
1003.2514	2768.009	1348.85	464.45
1003.3717	2769.2045	1346.75	463.6
1003.492	2770.3994	1346.7	460.45
1003.6123	2771.5936	1343.1	456.55
1003.7325	2772.7872	1337.1	450.85
1003.8527	2773.9801	1344.15	457.45
1003.9729	2775.1723	1362	461.6
1004.093	2776.3639	1345	461.6
1004.2131	2777.5548	1338.45	450.25
1004.3331	2778.745	1338.05	452.1
1004.4531	2779.9346	1344.2	460.25
1004.5731	2781.1235	1343.3	456.8
1004.693	2782.3117	1344.75	462.2
1004.8129	2783.4992	1351.9	466.7
1004.9328	2784.6861	1358.1	473.55
1005.0526	2785.8723	1368.85	484.1
1005.1723	2787.0579	1372.85	488.05
1005.2921	2788.2428	1373.3	487.75
1005.4118	2789.427	1387.95	504.15
1005.5314	2790.6106	1393.15	506.7
1005.651	2791.7935	1405.35	519.85
1005.7706	2792.9757	1421.35	537
1005.8902	2794.1573	1429.05	540.85
1006.0097	2795.3382	1447.1	562.05
1006.1291	2796.5184	1453.8	569.45
1006.2485	2797.698	1474.8	589.45
1006.3679	2798.8769	1489.8	606.2
1006.4873	2800.0551	1501.8	615.65
1006.6066	2801.2327	1526.75	640.05
1006.7258	2802.4096	1537	653.6
1006.8451	2803.5859	1563.85	678.55
1006.9642	2804.7615	1589.15	704.5
1007.0834	2805.9364	1610.05	727.05
1007.2025	2807.1106	1642.1	759.65
1007.3216	2808.2842	1663.15	779.5
1007.4406	2809.4572	1693.15	808.15
1007.5596	2810.6294	1738.35	856.2
1007.6785	2811.801	1773.9	891.35
1007.7975	2812.972	1820.6	937.55
1007.9163	2814.1423	1862.8	977.9
1008.0352	2815.3119	1917	1032.3
1008.154	2816.4808	1954.45	1070.9
1008.2727	2817.6491	1998.7	1111.65
1008.3914	2818.8167	2054.5	1172.3
1008.5101	2819.9837	2111.95	1223.9
1008.6288	2821.15	2152.25	1268.75
1008.7474	2822.3157	2201	1318.85
1008.8659	2823.4807	2253.65	1368.6
1008.9844	2824.645	2288.25	1402.6
1009.1029	2825.8086	2333.8	1450.2
1009.2214	2826.9716	2382.1	1496.9
1009.3398	2828.134	2438.3	1553.55
1009.4581	2829.2957	2467.35	1582.8
1009.5764	2830.4567	2484.7	1603.95
1009.6947	2831.617	2509.45	1624.05
1009.813	2832.7767	2523.35	1638.6
1009.9312	2833.9358	2515.8	1634.35
1010.0493	2835.0941	2524.6	1638.55
1010.1675	2836.2519	2507.35	1625.75
1010.2855	2837.4089	2503.65	1618.7
1010.4036	2838.5653	2488.6	1606.1
1010.5216	2839.7211	2472.55	1591.4
1010.6396	2840.8761	2480.15	1593.1
1010.7575	2842.0306	2507.65	1623.7
1010.8754	2843.1843	2540.8	1659.45
1010.9932	2844.3374	2590.15	1705.7
1011.111	2845.4899	2650.5	1767.5
1011.2288	2846.6417	2716.65	1834.9
1011.3465	2847.7928	2791.25	1906.9
1011.4642	2848.9433	2873.7	1990.25
1011.5818	2850.0931	2945.5	2060.2
1011.6995	2851.2422	3007.7	2122.55
1011.817	2852.3907	3100	2215.95
1011.9345	2853.5385	3161.05	2275.7
1012.052	2854.6857	3235.05	2325.1
1012.1695	2855.8323	3267.75	2384.2
1012.2869	2856.9781	3327.5	2444.25
1012.4042	2858.1233	3372.35	2488.9
1012.5216	2859.2679	3415	2532.3
1012.6389	2860.4118	3478.4	2591.65
1012.7561	2861.555	3519.95	2632.4
1012.8733	2862.6976	3566.75	2681.2
1012.9905	2863.8395	3574.8	2691.05
1013.1076	2864.9808	3612.4	2728.8
1013.2247	2866.1214	3619.35	2736.45
1013.3417	2867.2614	3644.4	2759.2
1013.4587	2868.4007	3645.9	2760.75
1013.5757	2869.5393	3649.95	2765.45
1013.6926	2870.6773	3679.45	2792.1
1013.8095	2871.8146	3690.4	2804
1013.9263	2872.9513	3695.45	2808.95
1014.0431	2874.0874	3679.6	2794.7
1014.1599	2875.2227	3661.1	2777.7
1014.2766	2876.3574	3666.9	2781.9
1014.3933	2877.4915	3644.4	2761.65
1014.51	2878.6249	3616.45	2732.6
1014.6266	2879.7577	3592.25	2706.5
1014.7431	2880.8898	3586.95	2693.6
1014.8596	2882.0212	3554.5	2671
1014.9761	2883.152	3544.4	2661.1
1015.0925	2884.2821	3528.35	2647.2
1015.2089	2885.4116	3529.9	2646.95
1015.3253	2886.5405	3521.6	2639.4
1015.4416	2887.6686	3520.15	2632.3
1015.5579	2888.7962	3535.4	2653.9
1015.6741	2889.923	3548.8	2667.25
1015.7903	2891.0493	3554.55	2671.2
1015.9065	2892.1748	3564.9	2682.45
1016.0226	2893.2997	3593.15	2707.25
1016.1387	2894.424	3600.55	2719.8
1016.2547	2895.5476	3624.75	2741.45
1016.3707	2896.6706	3636.45	2753.75
1016.4866	2897.7929	3661.15	2778.6
1016.6025	2898.9145	3694.4	2811.85
1016.7184	2900.0355	3736.05	2851.35
1016.8342	2901.1559	3753.85	2871
1016.95	2902.2756	3793	2909.2
1017.0658	2903.3946	3834.6	2952.1
1017.1815	2904.513	3867.65	2980.5
1017.2971	2905.6308	3883.85	3000.85
1017.4127	2906.7479	3898.2	3014.45
1017.5283	2907.8643	3929.8	3046.05
1017.6439	2908.9801	3953.25	3069.05
1017.7594	2910.0953	3949.25	3066.15
1017.8748	2911.2098	3968.65	3082.4
1017.9902	2912.3236	3957.5	3065.15
1018.1056	2913.4368	3939.1	3053.35
1018.2209	2914.5494	3918.1	3034
1018.3362	2915.6613	3872.75	2982.85
1018.4515	2916.7725	3857.6	2970.85
1018.5667	2917.8831	3826.7	2944
1018.6819	2918.9931	3799.75	2912.25
1018.797	2920.1024	3774.15	2888.65
1018.9121	2921.211	3741.7	2856.95
1019.0271	2922.319	3724.65	2840.6
1019.1421	2923.4264	3707.9	2826.9
1019.2571	2924.5331	3694.55	2811.9
1019.372	2925.6391	3690.3	2807
1019.4869	2926.7445	3680.4	2797.85
1019.6017	2927.8493	3669.7	2786.65
1019.7165	2928.9534	3667.9	2784.5
1019.8313	2930.0569	3675.85	2790.35
1019.946	2931.1597	3657.25	2773.55
1020.0606	2932.2619	3651.65	2769
1020.1753	2933.3634	3646.35	2762.55
1020.2899	2934.4643	3653.8	2764.95
1020.4044	2935.5645	3630.8	2741.05
1020.5189	2936.6641	3589.55	2701.55
1020.6334	2937.763	3537.25	2656.2
1020.7478	2938.8613	3482.25	2597.4
1020.8622	2939.959	3452.8	2564
1020.9765	2941.056	3366.2	2482.95
1021.0908	2942.1523	3290.4	2406.95
1021.2051	2943.248	3195.65	2311.3
1021.3193	2944.3431	3108.05	2224.55
1021.4334	2945.4375	3004.95	2121.35
1021.5476	2946.5313	2898.75	2016.85
1021.6617	2947.6244	2794.85	1910.75
1021.7757	2948.7169	2695.75	1811.5
1021.8897	2949.8087	2603.25	1717.75
1022.0037	2950.8999	2507.55	1625.5
1022.1176	2951.9904	2429.35	1546.85
1022.2315	2953.0803	2365.05	1481
1022.3453	2954.1696	2293.35	1410.9
1022.4591	2955.2582	2225.95	1341.55
1022.5728	2956.3462	2182.55	1299.4
1022.6865	2957.4335	2141.65	1259.55
1022.8002	2958.5202	2119.35	1234.65
1022.9138	2959.6062	2077.15	1195.75
1023.0274	2960.6916	2069.5	1185.8
1023.141	2961.7764	2039.45	1154.95
1023.2545	2962.8605	2031.75	1148.85
1023.3679	2963.9439	2027.05	1144.8
1023.4813	2965.0267	2010.15	1125.95
1023.5947	2966.1089	2021.1	1115.2
1023.708	2967.1905	2003.8	1119.6
1023.8213	2968.2714	1999.3	1116.4
1023.9346	2969.3516	1990.95	1110.2
1024.0478	2970.4312	1997.95	1107.3
1024.1609	2971.5102	2003.5	1120.85
1024.274	2972.5885	2006.25	1125.5
1024.3871	2973.6662	1997	1108.2
1024.5002	2974.7432	1994	1111.45
1024.6132	2975.8196	1989.65	1105.4
1024.7261	2976.8954	1976.7	1094.75
1024.839	2977.9705	1964.25	1081.2
1024.9519	2979.045	1957	1074.25
1025.0647	2980.1188	1932.85	1048.25
1025.1775	2981.192	1914.55	1031.8
1025.2902	2982.2645	1901.05	1019.2
1025.4029	2983.3364	1873.85	992.65
1025.5156	2984.4077	1839.6	956.4
1025.6282	2985.4783	1816.95	928.65
1025.7407	2986.5483	1776.4	895.3
1025.8532	2987.6177	1743.75	859.05
1025.9657	2988.6864	1712.25	828.3
1026.0782	2989.7545	1683.35	799.95
1026.1906	2990.8219	1646.4	763.05
1026.3029	2991.8887	1607	723.4
1026.4152	2992.9548	1587.25	706.65
1026.5275	2994.0204	1548.1	665
1026.6397	2995.0852	1517.4	635.1
1026.7519	2996.1495	1495.05	611.35
1026.864	2997.2131	1479	593.45
1026.9761	2998.276	1442	558.3
1027.0882	2999.3383	1428.8	543.85
1027.2002	3000.4	1419.25	535.05
1027.3122	3001.4611	1403	521.4
1027.4241	3002.5215	1389.45	506.7
1027.536	3003.5812	1366.95	484.35
1027.6478	3004.6404	1358.9	475.8
1027.7596	3005.6989	1346.3	462.05
1027.8714	3006.7567	1335.25	452.1
1027.9831	3007.8139	1357.5	447.45
1028.0947	3008.8705	1324.6	440.15
1028.2064	3009.9264	1334.1	433.25
1028.3179	3010.9818	1309.85	427.05
1028.4295	3012.0364	1310.25	426.4
1028.541	3013.0905	1308.45	423.7
1028.6524	3014.1439	1304.7	422.45
1028.7638	3015.1966	1307.65	425.15
1028.8752	3016.2487	1306.6	424.25
1028.9865	3017.3002	1303	414.9
1029.0978	3018.3511	1301.7	418.4
1029.209	3019.4013	1297.6	416.2
1029.3202	3020.4509	1297.75	415.65
1029.4314	3021.4998	1305.25	422.05
1029.5425	3022.5481	1306.25	422.75
1029.6535	3023.5958	1300.85	419.5
1029.7645	3024.6428	1301.9	418.75
1029.8755	3025.6892	1302.4	418.3
1029.9864	3026.735	1309.45	424.65
1030.0973	3027.7802	1301.85	420
1030.2082	3028.8247	1305.3	423.6
1030.319	3029.8685	1312.25	428.8
1030.4297	3030.9118	1318.95	436.45
1030.5404	3031.9544	1317	433.85
1030.6511	3032.9963	1319.75	437.15
1030.7617	3034.0376	1322.95	441.35
1030.8723	3035.0783	1328.95	441.15
1030.9829	3036.1184	1343.2	456.35
1031.0934	3037.1578	1342.7	461.85
1031.2038	3038.1966	1346.2	463.45
1031.3142	3039.2348	1342.65	459.7
1031.4246	3040.2723	1353.1	461.3
1031.5349	3041.3092	1344.4	463.7
1031.6452	3042.3455	1341.4	457.4
1031.7554	3043.3811	1343.55	459.95
1031.8656	3044.4161	1337.55	454.4
1031.9758	3045.4505	1333.3	451.45
1032.0859	3046.4842	1327.15	443.95
1032.1959	3047.5173	1317.95	435.5
1032.3059	3048.5498	1316.4	433.2
1032.4159	3049.5816	1309.95	427.8
1032.5258	3050.6128	1308.05	424.15
1032.6357	3051.6434	1297.25	415.55
1032.7455	3052.6734	1293.8	409.5
1032.8553	3053.7027	1284.1	401.25
1032.9651	3054.7314	1277.1	394.9
1033.0748	3055.7594	1272.75	389.7
1033.1845	3056.7868	1271.7	389.05
1033.2941	3057.8136	1269.6	387.25
1033.4037	3058.8398	1260.5	378.4
1033.5132	3059.8653	1254.05	371.9
1033.6227	3060.8902	1248.9	365.65
1033.7321	3061.9145	1244.6	362.15
1033.8415	3062.9381	1240.65	356.9
1033.9509	3063.9612	1256.7	359.4
1034.0602	3064.9835	1227.15	345.5
1034.1694	3066.0053	1227.45	342.85
1034.2787	3067.0264	1220.65	337.35
1034.3878	3068.0469	1217.6	335.05
1034.497	3069.0668	1209.65	322.9
1034.6061	3070.086	1194.3	311.4
1034.7151	3071.1046	1187.1	301.25
1034.8241	3072.1226	1178.5	295.25
1034.9331	3073.1399	1166.75	284.9
1035.042	3074.1567	1161.85	278.95
1035.1508	3075.1727	1154.4	270.3
1035.2597	3076.1882	1147.8	266.6
1035.3684	3077.203	1138.95	256.5
1035.4772	3078.2173	1130.15	246.5
1035.5859	3079.2308	1124.5	238.65
1035.6945	3080.2438	1114.45	230.35
1035.8031	3081.2561	1104.1	222.15
1035.9117	3082.2678	1099.55	217.75
1036.0202	3083.2789	1095.55	211.7
1036.1286	3084.2893	1093.95	213
1036.2371	3085.2991	1085.75	202.15
1036.3454	3086.3083	1086.15	198.1
1036.4538	3087.3169	1072.85	188.9
1036.562	3088.3248	1074.15	189.2
1036.6703	3089.3321	1066.65	181.15
1036.7785	3090.3388	1061.65	179.25
1036.8866	3091.3449	1058.4	176.85
1036.9948	3092.3503	1056.45	171.25
1037.1028	3093.3551	1054.75	174.7
1037.2108	3094.3593	1048.2	164.45
1037.3188	3095.3629	1042.7	160.2
1037.4267	3096.3658	1044.65	161.75
1037.5346	3097.3681	1042.25	160.35
1037.6425	3098.3698	1039.25	155.15
1037.7503	3099.3708	1042.75	153.55
1037.858	3100.3713	1027.25	145.1
1037.9657	3101.3711	1032.3	149.2
1038.0734	3102.3702	1169.6	144.85
1038.181	3103.3688	1027.35	142.1
1038.2886	3104.3667	1021.25	140.2
1038.3961	3105.364	1023.45	143.15
1038.5036	3106.3607	1025.45	140.6
1038.611	3107.3568	1021.65	138.95
1038.7184	3108.3522	1019.3	140.55
1038.8257	3109.347	1016.95	134.5
1038.933	3110.3412	1019.45	133
1039.0403	3111.3348	1014	134.15
1039.1475	3112.3277	1008.2	123.15
1039.2547	3113.32	1011.25	130.15
1039.3618	3114.3117	1012.95	128.9
1039.4689	3115.3028	1009.9	129.05
1039.5759	3116.2932	1010.25	126.35
1039.6829	3117.2831	1012.85	125.4
1039.7898	3118.2723	1006.95	124.65
1039.8967	3119.2608	1006.35	124.3
1040.0035	3120.2488	1002.2	117.4
1040.1103	3121.2361	1001.65	120.95
1040.2171	3122.2229	1002.75	120.7
1040.3238	3123.209	1002.25	117.6
1040.4305	3124.1944	995.8	113.85
1040.5371	3125.1793	996.5	113.3
1040.6437	3126.1635	997.45	116.2
1040.7502	3127.1471	996.65	114.95
1040.8567	3128.1301	994.5	114.45
1040.9631	3129.1125	996.2	113
1041.0695	3130.0942	992.2	108.45
1041.1759	3131.0753	1002.1	111.35
1041.2822	3132.0558	997.75	115.2
1041.3884	3133.0357	988.3	105.45
1041.4946	3134.015	990.55	108.45
1041.6008	3134.9936	987.4	103.7
1041.7069	3135.9716	1008.5	104.75
1041.813	3136.949	987.45	105.5
1041.919	3137.9258	1001.85	100.7
1042.025	3138.902	988.6	100.35
1042.1309	3139.8775	980	99.35
1042.2368	3140.8524	978.55	95.4
1042.3427	3141.8267	981.4	96.5
1042.4485	3142.8004	978.65	94.6
1042.5542	3143.7735	986.7	96.8
1042.6599	3144.7459	977.25	93.7
1042.7656	3145.7178	976.65	91.45
1042.8712	3146.689	978.85	98.35
1042.9768	3147.6596	975.75	91.9
1043.0823	3148.6295	973.2	90.65
1043.1878	3149.5989	975.8	92.35
1043.2932	3150.5676	970.85	90.25
1043.3986	3151.5357	970.4	90.25
1043.5039	3152.5032	973.2	91.25
1043.6092	3153.4701	970.85	88.45
1043.7145	3154.4364	973	87.1
1043.8197	3155.402	969.2	88.7
1043.9248	3156.367	967.3	82.65
1044.03	3157.3315	1002.2	83.05
1044.135	3158.2952	968.3	87.1
1044.24	3159.2584	965.7	83.5
1044.345	3160.221	961.65	77.35
1044.4499	3161.1829	964.9	82.95
1044.5548	3162.1442	964.4	82.6
1044.6596	3163.105	964.7	85.65
1044.7644	3164.065	961.95	79
1044.8692	3165.0245	963.15	78.15
1044.9739	3165.9834	962	81.6
1045.0785	3166.9416	960.85	79.4
1045.1831	3167.8993	959.85	77.55
1045.2877	3168.8563	958.1	74.85
1045.3922	3169.8127	957.6	75.8
1045.4966	3170.7684	954.7	74
1045.6011	3171.7236	957.1	72.6
1045.7054	3172.6782	957	73.65
1045.8098	3173.6321	959.7	78.55
1045.914	3174.5854	960.75	73.5
1046.0183	3175.5381	956.45	73.9
1046.1224	3176.4902	955	70.3
1046.2266	3177.4417	953.25	72.2
1046.3307	3178.3926	954.15	71.95
1046.4347	3179.3428	953.15	71.1
1046.5387	3180.2924	952.55	70.85
1046.6427	3181.2415	954.35	73
1046.7466	3182.1899	955.5	71.8
1046.8504	3183.1377	950.55	69.95
1046.9542	3184.0848	954.4	68.5
1047.058	3185.0314	951.1	67.85
1047.1617	3185.9773	950.35	65.3
1047.2654	3186.9227	950.05	67.95
1047.369	3187.8674	950.8	69.95
1047.4726	3188.8115	954.15	67.05
1047.5761	3189.755	949.15	67.8
1047.6796	3190.6979	950.05	69.05
1047.783	3191.6402	948.55	67.2
1047.8864	3192.5818	949.4	68
1047.9898	3193.5229	970.6	67.25
1048.0931	3194.4633	948.1	65.25
1048.1963	3195.4031	949.1	63.8
1048.2995	3196.3423	949.05	66.8
1048.4027	3197.2809	945.5	62.6
1048.5058	3198.2189	943.05	59.9
1048.6089	3199.1563	963.6	63.7
1048.7119	3200.0931	944.55	64.1
1048.8148	3201.0292	943.15	63.6
1048.9178	3201.9648	944.25	61.5
1049.0206	3202.8997	947.4	63.05
1049.1235	3203.834	944.4	61.9
1049.2262	3204.7677	944.2	61.5
1049.329	3205.7008	943.8	61.1
1049.4317	3206.6333	939.7	61.4
1049.5343	3207.5652	942.25	58.85
1049.6369	3208.4964	942.55	59.45
1049.7394	3209.4271	940.75	59.75
1049.8419	3210.3571	938.95	57.2
1049.9444	3211.2865	940.1	58.85
1050.0468	3212.2154	942.8	60.3
1050.1491	3213.1436	944.85	59.45
1050.2514	3214.0712	947.8	58.05
1050.3537	3214.9982	940.6	59.35
1050.4559	3215.9246	941.5	58.1
1050.5581	3216.8503	937.2	56.75
1050.6602	3217.7755	939.9	57.8
1050.7623	3218.7001	937.95	57.55
1050.8643	3219.624	938.85	56.75
1050.9663	3220.5473	938.55	55.35
1051.0682	3221.4701	939.45	55.4
1051.1701	3222.3922	936.9	52.05
1051.2719	3223.3137	938.45	56.35
1051.3737	3224.2346	937.05	54.5
1051.4754	3225.1549	937.1	55.1
1051.5771	3226.0746	935.1	52.95
1051.6788	3226.9937	934.85	55.4
1051.7804	3227.9121	933.9	52.3
1051.8819	3228.83	930.9	50.05
1051.9834	3229.7473	934.7	52.15
1052.0849	3230.6639	935.8	53.9
1052.1863	3231.5799	935.8	54.4
1052.2876	3232.4954	933.6	50.65
1052.3889	3233.4102	934.35	52.35
1052.4902	3234.3244	933.35	50.7
1052.5914	3235.238	935.45	52.65
1052.6926	3236.151	956.35	51.55
1052.7937	3237.0634	932.6	53.15
1052.8948	3237.9752	929.7	47.95
1052.9958	3238.8864	932.35	51.7
1053.0968	3239.797	929.3	48
1053.1977	3240.7069	931.85	49.7
1053.2986	3241.6163	932.1	48.75
1053.3994	3242.5251	930.15	47.95
1053.5002	3243.4332	930.6	49.95
1053.6009	3244.3408	931.45	49.85
1053.7016	3245.2477	927	45.6
1053.8022	3246.154	931.45	49
1053.9028	3247.0598	931.7	49.9
1054.0034	3247.9649	932.05	50.05
1054.1039	3248.8694	926.9	43.3
1054.2043	3249.7733	929	46.55
1054.3047	3250.6766	928.3	47.4
1054.4051	3251.5793	927.6	45.35
1054.5054	3252.4814	926.25	46.25
1054.6056	3253.3829	924.95	44.85
1054.7058	3254.2838	922.75	43.1
1054.806	3255.1841	926.55	44.55
1054.9061	3256.0838	923.4	44.25
1055.0061	3256.9829	923.35	40.3
1055.1062	3257.8814	923.9	40.25
1055.2061	3258.7792	923.6	39.5
1055.306	3259.6765	924.3	39.45
1055.4059	3260.5731	921.35	41.7
1055.5057	3261.4692	920.55	38.15
1055.6055	3262.3647	920.8	38.9
1055.7052	3263.2595	917.3	36.45
1055.8049	3264.1538	919.6	38.45
1055.9045	3265.0474	918.7	38.5
1056.0041	3265.9404	917.5	37.6
1056.1036	3266.8329	916.4	35.3
1056.2031	3267.7247	926.75	35.1
1056.3025	3268.616	915.35	34.95
1056.4019	3269.5066	914.9	33.7
1056.5013	3270.3966	917.05	33.25
1056.6005	3271.286	912.55	33.9
