Software Version:	3.9.2.0
Unit SN:	10000200
Spectrometer SN:	6960
Date:	3/14/2024 2:26:42 PM
Data Line Index:	25
Spectral Points:	2048
Integration time (ms):	125
Averages:	20
Delay (ms):	30000
Sequence Number:	1
Processing:	dark subtract
Laser Power (mW):	305
Laser Current (mA):	824
Laser Diode Temp (C):	25
Laser Case Temp (C):	29.2
System Temp (C):	29.2
Spectrometer Temp (C):	27
CCD Temp (C):	0.01
Secondary Temp (C):	20.004
Heatsink Temp (C):	25.161
CCDPCB Temp (C):	38.241
SecondaryPCB Temp (C):	36.151

Wavelength	RamanShift	Raw Counts	Dark Subtracted
787.061	30.1047	456	47.05
787.2016	32.3739	454.75	47.6
787.3422	34.6426	460.8	51.75
787.4828	36.9109	468.75	57.95
787.6235	39.1787	477.45	61.25
787.7642	41.4461	484.45	63.8
787.9049	43.7131	493.2	69.25
788.0456	45.9796	503.65	76.45
788.1863	48.2456	513	80.75
788.3271	50.5112	521.45	84.35
788.4679	52.7764	530.75	93.5
788.6087	55.0411	537.9	97.1
788.7496	57.3054	550.85	103.35
788.8904	59.5692	560.9	111.55
789.0313	61.8326	573.95	118.95
789.1722	64.0955	583.85	125.35
789.3132	66.3579	599.7	135.7
789.4541	68.6199	618.1	153.7
789.5951	70.8815	648.6	179.4
789.7361	73.1426	719.1	245.85
789.8771	75.4032	909.55	432.65
790.0181	77.6634	1366.8	884.05
790.1592	79.9231	2438.5	1950.85
790.3003	82.1824	4806.55	4309.15
790.4414	84.4412	9172.95	8658.6
790.5825	86.6995	15356.9	14820.55
790.7237	88.9574	21567.95	21013.5
790.8648	91.2148	25990	25423.45
791.006	93.4717	28179.65	27604.6
791.1472	95.7282	28760.35	28179.75
791.2885	97.9842	28760.55	28174.95
791.4297	100.2398	28291.95	27706.6
791.571	102.4949	27678.2	27087.25
791.7123	104.7495	26980.05	26385.5
791.8536	107.0036	26122.35	25526
791.9949	109.2573	25328.2	24735.05
792.1363	111.5105	24498.3	23899.85
792.2777	113.7632	23652.1	23054.6
792.4191	116.0154	22901.45	22294.6
792.5605	118.2672	22368.85	21766.85
792.7019	120.5185	21816.35	21215.55
792.8434	122.7693	21358.9	20756.2
792.9849	125.0197	21014.45	20405.85
793.1264	127.2696	20713.7	20106.2
793.2679	129.519	20543.65	19931.8
793.4094	131.7679	20368.7	19750.8
793.551	134.0163	20257.25	19638.05
793.6926	136.2642	20124.25	19499.55
793.8342	138.5117	19929.1	19295.45
793.9758	140.7587	19757	19129.5
794.1175	143.0052	19578.45	18949.7
794.2591	145.2512	19357.45	18726.45
794.4008	147.4967	19165.5	18534.05
794.5425	149.7417	19009.8	18374.6
794.6842	151.9863	18859.55	18225.05
794.826	154.2304	18784.65	18144.7
794.9677	156.4739	18673.6	18028.4
795.1095	158.717	18573.4	17930.95
795.2513	160.9596	18429.55	17778.25
795.3931	163.2017	18184.45	17532.75
795.535	165.4433	17874.05	17222.05
795.6768	167.6844	17493.75	16840.8
795.8187	169.925	17150.5	16488.65
795.9606	172.1651	16749	16088.5
796.1025	174.4047	16408.95	15742.6
796.2445	176.6439	16118.55	15452.35
796.3864	178.8825	15852.45	15184.5
796.5284	181.1206	15638.95	14964.95
796.6704	183.3582	15452.75	14776
796.8124	185.5954	15317.35	14638
796.9544	187.832	15170.85	14488.55
797.0965	190.0681	15148.9	14464.6
797.2386	192.3037	15138.65	14452.55
797.3806	194.5388	15096.3	14411.6
797.5228	196.7734	15103.45	14414.5
797.6649	199.0075	15170.65	14473.8
797.807	201.2411	15308.3	14609.7
797.9492	203.4742	15338.8	14641.7
798.0914	205.7068	15480.15	14785.2
798.2336	207.9389	15557.75	14858.7
798.3758	210.1704	15715.1	15014.5
798.518	212.4015	15825.7	15122.75
798.6603	214.632	16003.25	15296.8
798.8025	216.862	16184.35	15488.95
798.9448	219.0915	16393.1	15700.2
799.0871	221.3205	16655.05	15964.2
799.2294	223.549	16968.9	16285.65
799.3718	225.777	17326.45	16645.9
799.5141	228.0044	17806.5	17120.3
799.6565	230.2314	18352.15	17671.1
799.7989	232.4578	18929.8	18240.8
799.9413	234.6837	19394.7	18702.8
800.0837	236.909	19634.55	18942.4
800.2262	239.1339	19620.8	18903.2
800.3687	241.3582	19299.25	18596.95
800.5111	243.582	18846.3	18114.85
800.6536	245.8053	18377.45	17655.35
800.7961	248.0281	17937.55	17221.65
800.9387	250.2503	17582.95	16859.3
801.0812	252.472	17314.4	16589.35
801.2238	254.6932	17180.95	16449.8
801.3664	256.9139	16991.3	16262.45
801.509	259.134	16911.6	16179.7
801.6516	261.3536	16766.4	16037.5
801.7942	263.5727	16722.25	15989.3
801.9369	265.7912	16567.85	15835.6
802.0795	268.0092	16504.85	15771
802.2222	270.2267	16380.85	15645.8
802.3649	272.4436	16304.25	15567.9
802.5076	274.6601	16241.6	15499.25
802.6504	276.8759	16171.5	15429.15
802.7931	279.0913	16162.9	15422.55
802.9359	281.3061	16216	15476.05
803.0787	283.5204	16303.85	15559.9
803.2215	285.7341	16455.35	15708.45
803.3643	287.9473	16678.35	15920.25
803.5071	290.16	16960.95	16207.9
803.6499	292.3721	17305.8	16560.85
803.7928	294.5837	17806.7	17056.85
803.9357	296.7947	18183.95	17436.15
804.0786	299.0052	18434	17684.8
804.2215	301.2152	18261.1	17509.3
804.3644	303.4246	17858.15	17108.65
804.5074	305.6334	17229.65	16481.6
804.6503	307.8418	16622.4	15871.5
804.7933	310.0495	16172.85	15418.1
804.9363	312.2568	15822.8	15068.35
805.0793	314.4635	15584.4	14830.35
805.2223	316.6696	15524.45	14769.2
805.3653	318.8752	15514.2	14752.55
805.5084	321.0802	15584.95	14829.05
805.6514	323.2847	15680	14920.7
805.7945	325.4887	15747.5	14989.35
805.9376	327.692	15698.25	14936.6
806.0807	329.8949	15555.65	14795.15
806.2238	332.0972	15261.3	14497.9
806.367	334.2989	14946.6	14181.55
806.5101	336.5001	14634.95	13871.75
806.6533	338.7007	14393.7	13628
806.7965	340.9008	14250.75	13483.05
806.9397	343.1003	14122.4	13351.5
807.0829	345.2992	14055.05	13284
807.2261	347.4976	14048.85	13277.5
807.3693	349.6955	13995.75	13217.5
807.5126	351.8927	14081.7	13306.1
807.6559	354.0895	14068.9	13285.1
807.7991	356.2856	14142.3	13366.6
807.9424	358.4812	14090.75	13313.7
808.0857	360.6763	14140.5	13360.5
808.2291	362.8707	14086.95	13309
808.3724	365.0646	14083.4	13301.15
808.5158	367.258	14084.1	13299.75
808.6591	369.4508	14122.2	13335.3
808.8025	371.643	14131.1	13345.45
808.9459	373.8346	14085.3	13296.85
809.0893	376.0257	14060.25	13268.45
809.2327	378.2162	13938.85	13144
809.3762	380.4062	13820.25	13026.8
809.5196	382.5956	13652.35	12854.45
809.6631	384.7844	13548.25	12754.15
809.8066	386.9726	13413.3	12618.05
809.9501	389.1603	13322.6	12527.95
810.0936	391.3474	13289.95	12454.05
810.2371	393.5339	13270.6	12478.6
810.3806	395.7199	13181.1	12392.45
810.5241	397.9052	13190.05	12403.05
810.6677	400.09	13173.95	12388.5
810.8113	402.2743	13223.35	12437.25
810.9548	404.4579	13284.15	12497.2
811.0984	406.641	13399.45	12613.65
811.2421	408.8235	13639.45	12850.85
811.3857	411.0054	13990.5	13200.85
811.5293	413.1868	14499.2	13708.7
811.673	415.3675	14954.8	14163.45
811.8166	417.5477	15222.55	14426.5
811.9603	419.7273	15263.35	14466.05
812.104	421.9064	15145.15	14341
812.2477	424.0848	14977.8	14174.8
812.3914	426.2627	14725.25	13924.25
812.5351	428.4399	14400.9	13599.2
812.6788	430.6166	14021.6	13217.25
812.8226	432.7928	13609.75	12800.5
812.9663	434.9683	13249.85	12441.4
813.1101	437.1432	13003.95	12191.45
813.2539	439.3176	12804.5	11992.6
813.3977	441.4914	12692.55	11881.75
813.5415	443.6645	12650.2	11839.85
813.6853	445.8371	12574.5	11760.55
813.8291	448.0091	12482.9	11671.95
813.973	450.1806	12425.2	11611.4
814.1168	452.3514	12366.55	11553.85
814.2607	454.5216	12350.3	11529.25
814.4046	456.6913	12275.45	11460.65
814.5485	458.8603	12265.05	11450.5
814.6924	461.0288	12312.55	11499.05
814.8363	463.1967	12347.7	11536.35
814.9802	465.3639	12490.4	11671.25
815.1241	467.5306	12647.1	11829.6
815.2681	469.6967	12817.15	12000.1
815.412	471.8622	13008.25	12190.15
815.556	474.0271	13207.05	12389.8
815.7	476.1914	13287.15	12466.05
815.844	478.3551	13227.55	12408.2
815.988	480.5182	13176.65	12357.65
816.132	482.6807	13105.8	12282.9
816.276	484.8426	13156.45	12335.65
816.4201	487.0039	13387.6	12566.1
816.5641	489.1647	13797.1	12974.45
816.7082	491.3248	14294.35	13472.9
816.8522	493.4843	14498.6	13678
816.9963	495.6432	14560.2	13738.55
817.1404	497.8015	14474	13650.15
817.2845	499.9592	14500.05	13679.6
817.4286	502.1163	14482.85	13659.45
817.5727	504.2728	14268.1	13440.35
817.7168	506.4287	13959.65	13135.4
817.861	508.5839	13472.25	12647.8
818.0051	510.7386	13074	12251.35
818.1493	512.8927	12805.3	11978.5
818.2935	515.0461	12604.65	11778.35
818.4377	517.199	12472.65	11646.25
818.5818	519.3512	12380.9	11553.3
818.726	521.5029	12349.4	11513.6
818.8703	523.6539	12362.95	11532.75
819.0145	525.8043	12365.25	11535.65
819.1587	527.9541	12410.5	11578.95
819.303	530.1033	12439.9	11608
819.4472	532.2519	12528.1	11697.5
819.5915	534.3999	12717.4	11884.05
819.7357	536.5472	13029.25	12196.4
819.88	538.694	13564.3	12732.6
820.0243	540.8401	14290.55	13455.9
820.1686	542.9856	14898.15	14063.2
820.3129	545.1305	15133.85	14298.8
820.4572	547.2748	14955	14119.05
820.6016	549.4185	14513.9	13676.9
820.7459	551.5615	14069	13235.15
820.8902	553.704	13825.8	12987.1
821.0346	555.8458	13689.5	12853.8
821.1789	557.987	13604.15	12770.65
821.3233	560.1276	13444.45	12607.5
821.4677	562.2675	13340.55	12507.15
821.6121	564.4069	13169.85	12333.2
821.7565	566.5456	13004.55	12169.9
821.9009	568.6837	12842.95	12008.45
822.0453	570.8212	12598.75	11764.4
822.1897	572.958	12374.8	11538.9
822.3342	575.0942	12179.25	11342.15
822.4786	577.2299	12086.3	11248.1
822.6231	579.3648	12096.1	11259.8
822.7675	581.4992	12205.8	11367.05
822.912	583.6329	12412.9	11573.9
823.0565	585.766	12704.55	11868.4
823.201	587.8985	12832.8	11997.35
823.3454	590.0304	12868.1	12004.5
823.4899	592.1616	12797.45	11955.15
823.6345	594.2922	12683.15	11842.6
823.779	596.4222	12525.65	11686.3
823.9235	598.5515	12336.05	11495.4
824.068	600.6802	12177.5	11335.2
824.2126	602.8083	11969.65	11127.05
824.3571	604.9358	11862.05	11019.85
824.5017	607.0626	11775.7	10935.3
824.6462	609.1888	11655.55	10811.7
824.7908	611.3144	11534.95	10694
824.9354	613.4393	11331.95	10487.2
825.08	615.5636	11171.95	10330
825.2246	617.6873	11028.4	10184.6
825.3692	619.8103	10939.15	10094.35
825.5138	621.9327	10875.25	10028.25
825.6584	624.0544	10860.65	10015.35
825.803	626.1756	10877	10031.7
825.9477	628.2961	10833.9	9988.95
826.0923	630.4159	10781.3	9935.05
826.237	632.5351	10700.65	9857.25
826.3816	634.6537	10628.1	9782.2
826.5263	636.7716	10590.2	9743.25
826.6709	638.8889	10577.4	9730.1
826.8156	641.0056	10604.9	9756.05
826.9603	643.1216	10575.8	9728.2
827.105	645.237	10602.4	9752.8
827.2497	647.3518	10592.95	9743
827.3944	649.4659	10602.75	9753.05
827.5391	651.5793	10632.6	9782.75
827.6838	653.6922	10603.45	9754.4
827.8285	655.8043	10607.4	9760.25
827.9733	657.9159	10540.1	9688.3
828.118	660.0268	10459.9	9606.9
828.2627	662.137	10389.1	9540.15
828.4075	664.2466	10291.1	9440.35
828.5522	666.3556	10271.65	9420.9
828.697	668.4639	10263.7	9409.4
828.8418	670.5716	10310.3	9457.75
828.9865	672.6786	10435.45	9584.05
829.1313	674.785	10465.3	9611.45
829.2761	676.8907	10565.2	9713.05
829.4209	678.9958	10666.9	9815.8
829.5657	681.1002	10608.8	9756.7
829.7105	683.204	10615.85	9757
829.8553	685.3072	10534.6	9681.05
830.0001	687.4097	10435	9580.85
830.1449	689.5115	10349.1	9492.15
830.2898	691.6127	10261.3	9409.5
830.4346	693.7132	10160.65	9305.15
830.5794	695.8131	10103.85	9225.9
830.7243	697.9123	10062.15	9204.35
830.8691	700.0109	9957.85	9103.05
831.014	702.1089	9955.75	9100.7
831.1588	704.2061	9926.6	9070.4
831.3037	706.3028	9966.05	9108.4
831.4486	708.3987	10013.75	9157.9
831.5935	710.4941	10094.7	9238.5
831.7383	712.5887	10254.35	9396.95
831.8832	714.6827	10609.35	9747.65
832.0281	716.7761	11018.1	10160.5
832.173	718.8688	11442.8	10583.4
832.3179	720.9608	11684.25	10824.4
832.4628	723.0522	11703.6	10842.1
832.6077	725.1429	11417.3	10556.05
832.7527	727.233	11004.5	10147.3
832.8976	729.3224	10620.45	9761.2
833.0425	731.4112	10271.95	9413.2
833.1874	733.4993	10029.9	9165.7
833.3324	735.5867	9873.85	9013.3
833.4773	737.6735	9763.8	8903.5
833.6222	739.7596	9701.5	8841.65
833.7672	741.845	9647.9	8787.4
833.9122	743.9298	9641	8780.15
834.0571	746.014	9638.9	8781.25
834.2021	748.0974	9648.4	8787.45
834.347	750.1802	9664.5	8802.05
834.492	752.2624	9681.2	8819.95
834.637	754.3439	9669.7	8805.7
834.782	756.4247	9728.35	8857.25
834.9269	758.5048	9808.25	8945.25
835.0719	760.5843	9976	9115.65
835.2169	762.6631	10260.45	9400.45
835.3619	764.7413	10662.05	9799.8
835.5069	766.8188	11241.75	10376.65
835.6519	768.8956	11752.1	10886.85
835.7969	770.9718	12097.85	11236.1
835.9419	773.0473	11993.05	11132.35
836.0869	775.1221	11662.85	10800.05
836.232	777.1962	11251.7	10387.2
836.377	779.2697	11064.5	10197.55
836.522	781.3426	11108.15	10225.95
836.667	783.4147	11394.45	10529.05
836.8121	785.4862	11722.05	10859.6
836.9571	787.557	11758.8	10894.9
837.1021	789.6271	11423.85	10559.05
837.2472	791.6966	10836.8	9973.25
837.3922	793.7654	10307.05	9442.2
837.5373	795.8335	9927.9	9064.3
837.6823	797.901	9734.55	8870.4
837.8274	799.9678	9673.55	8808.4
837.9724	802.0339	9678	8813.65
838.1175	804.0993	9740.5	8866.35
838.2626	806.1641	9719.1	8856.25
838.4076	808.2282	9648.6	8784.1
838.5527	810.2916	9560.5	8692.6
838.6978	812.3544	9451.3	8589.95
838.8428	814.4164	9329.15	8466.1
838.9879	816.4778	9284.25	8418.45
839.133	818.5385	9265.7	8402.05
839.2781	820.5986	9294.65	8430.75
839.4232	822.658	9326.5	8460.35
839.5682	824.7166	9384.65	8515.6
839.7133	826.7747	9466.1	8602.3
839.8584	828.832	9581.35	8714.85
840.0035	830.8886	9681.7	8813.35
840.1486	832.9446	9837.35	8971.75
840.2937	834.9999	9939.35	9075.2
840.4388	837.0545	10048.35	9177.45
840.5839	839.1085	10108.25	9240.95
840.729	841.1618	10137.4	9267.3
840.8741	843.2143	10115.95	9249.55
841.0192	845.2662	10060.3	9192.5
841.1643	847.3175	10006.25	9142.65
841.3095	849.368	9901.65	9033.85
841.4546	851.4179	9753.35	8886
841.5997	853.467	9589.95	8722.5
841.7448	855.5155	9464.05	8595.8
841.8899	857.5633	9331	8463.45
842.0351	859.6105	9197.1	8330.7
842.1802	861.6569	9149.05	8281.2
842.3253	863.7027	9066.35	8199.6
842.4704	865.7478	9032.1	8166
842.6156	867.7922	9028.85	8161.55
842.7607	869.8359	9087.45	8219.05
842.9058	871.8789	9208.75	8339.9
843.0509	873.9212	9408.65	8506.55
843.1961	875.9629	9585.5	8716.1
843.3412	878.0039	9753.85	8883.2
843.4863	880.0441	9885.5	9017
843.6315	882.0837	9853.55	8983.65
843.7766	884.1226	9730.45	8861.4
843.9218	886.1609	9558.8	8690.75
844.0669	888.1984	9404.9	8536.9
844.212	890.2352	9284.85	8416.9
844.3572	892.2714	9219.2	8342.7
844.5023	894.3069	9174.55	8304.7
844.6475	896.3416	9126.75	8255.1
844.7926	898.3757	9069.85	8198
844.9377	900.4091	9091.5	8223.05
845.0829	902.4418	9128.6	8251.7
845.228	904.4739	9113.8	8241.55
845.3732	906.5052	9099.35	8229.8
845.5183	908.5358	8970.65	8100.2
845.6635	910.5658	8820.45	7949.15
845.8086	912.595	8654.2	7784.2
845.9538	914.6236	8518	7647.9
846.0989	916.6515	8465.3	7594.7
846.2441	918.6786	8464.3	7592.25
846.3892	920.7051	8525.7	7652.65
846.5344	922.7309	8655.95	7785.25
846.6795	924.756	8715.45	7844.05
846.8246	926.7804	8798.15	7924.6
846.9698	928.8041	8781.3	7905.75
847.1149	930.8272	8802.7	7930.4
847.2601	932.8495	8739	7864.25
847.4052	934.8711	8664.8	7793.1
847.5504	936.892	8501.35	7629.45
847.6955	938.9123	8306.7	7431
847.8407	940.9318	8156.6	7284.4
847.9858	942.9506	8012.8	7137.35
848.131	944.9688	7923.1	7052.25
848.2761	946.9862	7856.6	6983.55
848.4213	949.003	7819.6	6946.55
848.5664	951.019	7834	6961.35
848.7115	953.0344	7843.05	6969.55
848.8567	955.0491	7899.55	7026.4
849.0018	957.063	7970.7	7097.4
849.147	959.0763	8049.85	7179.1
849.2921	961.0888	8132.15	7256.95
849.4373	963.1007	8215.9	7341.1
849.5824	965.1119	8229.5	7355.85
849.7275	967.1223	8269.2	7396.25
849.8727	969.1321	8289.15	7415.75
850.0178	971.1412	8356.7	7483.75
850.1629	973.1495	8364.2	7491.15
850.3081	975.1572	8433.7	7527
850.4532	977.1641	8427.1	7555.15
850.5983	979.1704	8417.7	7541.7
850.7435	981.1759	8424.05	7547.35
850.8886	983.1808	8458.4	7583.1
851.0337	985.1849	8572.75	7688.4
851.1788	987.1884	8747.7	7872.9
851.324	989.1911	8965.05	8088.25
851.4691	991.1932	9119.05	8242.8
851.6142	993.1945	9172.9	8297.6
851.7593	995.1951	9148.85	8272.85
851.9045	997.1951	9124.15	8243.85
852.0496	999.1943	9025.75	8151.7
852.1947	1001.1928	8978.55	8103.85
852.3398	1003.1906	8957.4	8083.5
852.4849	1005.1877	8963.3	8088.8
852.63	1007.1841	8942.35	8067
852.7751	1009.1798	8831.65	7958
852.9202	1011.1748	8608.4	7731.8
853.0653	1013.1691	8412.9	7538.1
853.2104	1015.1627	8189.55	7312.9
853.3555	1017.1556	7997.75	7123
853.5006	1019.1477	7906.5	7031.65
853.6457	1021.1392	7831.45	6956.7
853.7908	1023.1299	7842.35	6965.45
853.9359	1025.12	7861.85	6984.7
854.081	1027.1093	7940.95	7065.1
854.2261	1029.0979	7997.1	7123.3
854.3712	1031.0859	8049.2	7173.45
854.5163	1033.0731	8052.1	7174.65
854.6613	1035.0596	7973.3	7096.55
854.8064	1037.0454	7834.6	6958.95
854.9515	1039.0304	7700.3	6825.4
855.0965	1041.0148	7562.7	6685.6
855.2416	1042.9985	7507.25	6631.05
855.3867	1044.9814	7461.7	6586.25
855.5317	1046.9636	7405.4	6528
855.6768	1048.9452	7359.85	6484.25
855.8219	1050.926	7362.35	6485.45
855.9669	1052.9061	7373.8	6499.15
856.112	1054.8855	7344.15	6468.45
856.257	1056.8642	7372	6496.85
856.4021	1058.8421	7433.2	6553.35
856.5471	1060.8194	7437.25	6559.35
856.6921	1062.7959	7451.65	6575.75
856.8372	1064.7717	7483.95	6605.85
856.9822	1066.7469	7474.9	6597.25
857.1272	1068.7213	7439.3	6560.25
857.2723	1070.695	7402.05	6524.65
857.4173	1072.6679	7342.8	6464.45
857.5623	1074.6402	7290.75	6412.05
857.7073	1076.6117	7261.55	6378.45
857.8523	1078.5826	7289.3	6412.05
857.9973	1080.5527	7344.4	6464.35
858.1423	1082.5221	7506.05	6625.75
858.2873	1084.4908	7737.9	6861
858.4323	1086.4587	8006.85	7128.6
858.5773	1088.426	8173.3	7294.75
858.7223	1090.3925	8171.05	7287.5
858.8673	1092.3584	8081.65	7205.45
859.0123	1094.3235	7914.55	7037.35
859.1573	1096.2879	7801.05	6924.15
859.3022	1098.2515	7735.15	6857.35
859.4472	1100.2145	7792.4	6917.4
859.5922	1102.1767	7856.85	6978.65
859.7371	1104.1382	7979.05	7100.3
859.8821	1106.099	8166.6	7285.5
860.027	1108.0591	8373.75	7497.25
860.172	1110.0185	8522.45	7642.25
860.3169	1111.9771	8557.4	7677.8
860.4619	1113.9351	8326.1	7447
860.6068	1115.8923	7969.25	7091.8
860.7517	1117.8488	7616.6	6736.6
860.8967	1119.8045	7315.75	6438.25
861.0416	1121.7596	7176.2	6296
861.1865	1123.7139	7084.8	6206.85
861.3314	1125.6675	7076.95	6198.7
861.4763	1127.6204	7144.85	6269.45
861.6212	1129.5726	7178.7	6297.55
861.7661	1131.524	7206.95	6328.9
861.911	1133.4748	7257.9	6379.85
862.0559	1135.4248	7284.35	6402.4
862.2008	1137.3741	7334.85	6459.5
862.3457	1139.3226	7312.6	6432.6
862.4905	1141.2705	7280.75	6403.05
862.6354	1143.2176	7240.3	6354.85
862.7803	1145.164	7236.4	6357.7
862.9251	1147.1097	7265.35	6387.95
863.07	1149.0546	7277.3	6396.95
863.2148	1150.9989	7148.75	6270.9
863.3597	1152.9424	6952.9	6072.35
863.5045	1154.8852	6772.45	5892.45
863.6493	1156.8272	6620.6	5743.1
863.7942	1158.7686	6532.6	5645.1
863.939	1160.7092	6487.4	5608.65
864.0838	1162.6491	6490.3	5610.1
864.2286	1164.5883	6538.8	5660.6
864.3734	1166.5267	6617.65	5736.5
864.5182	1168.4644	6757.6	5878.3
864.663	1170.4014	6949.6	6065.1
864.8078	1172.3377	7164.85	6287.8
864.9526	1174.2732	7368.95	6489.6
865.0974	1176.2081	7573.95	6697
865.2421	1178.1421	7762.1	6880
865.3869	1180.0755	7895.5	7017.2
865.5317	1182.0082	7909.25	7029.8
865.6764	1183.9401	7850.65	6972.2
865.8212	1185.8713	7625.65	6747.3
865.9659	1187.8017	7361.85	6480.85
866.1106	1189.7315	7104.25	6225.65
866.2554	1191.6605	6879.15	5969.7
866.4001	1193.5888	6671.25	5791.4
866.5448	1195.5163	6541.3	5661
866.6895	1197.4432	6443.9	5563.25
866.8342	1199.3693	6374.9	5495.05
866.9789	1201.2947	6327.4	5448
867.1236	1203.2193	6297.05	5418.3
867.2683	1205.1432	6335.45	5456.7
867.413	1207.0664	6384.65	5504.05
867.5576	1208.9889	6446.9	5563.05
867.7023	1210.9106	6541.05	5661.85
867.847	1212.8316	6639.6	5759.05
867.9916	1214.7519	6740.95	5848.85
868.1363	1216.6715	6761.95	5884.95
868.2809	1218.5903	6715.35	5835.7
868.4255	1220.5084	6673.8	5795.15
868.5701	1222.4257	6629.2	5749.2
868.7148	1224.3424	6600	5720.75
868.8594	1226.2583	6646.5	5761.1
869.004	1228.1735	6763.85	5884.1
869.1486	1230.0879	6864.9	5985
869.2932	1232.0016	7013.9	6134.55
869.4377	1233.9146	7079.4	6197.1
869.5823	1235.8269	7002.75	6122.7
869.7269	1237.7384	6868.05	5988.45
869.8715	1239.6492	6674.45	5796.15
870.016	1241.5592	6557.6	5676.3
870.1606	1243.4686	6459.3	5578.75
870.3051	1245.3772	6383.45	5502.2
870.4496	1247.285	6321.65	5440.9
870.5941	1249.1922	6273.85	5393.05
870.7387	1251.0986	6268.7	5390.2
870.8832	1253.0042	6299.55	5419.55
871.0277	1254.9092	6345.65	5463.8
871.1722	1256.8134	6444.2	5563.8
871.3167	1258.7169	6588.95	5706.9
871.4611	1260.6196	6747.65	5869.7
871.6056	1262.5216	6947.1	6065.65
871.7501	1264.4229	7105	6224.25
871.8945	1266.3234	7186.4	6307.55
872.039	1268.2232	7214.5	6334.75
872.1834	1270.1223	7215.55	6336.25
872.3278	1272.0207	7211.1	6331.5
872.4723	1273.9183	7149.05	6262.6
872.6167	1275.8151	7077.35	6197.95
872.7611	1277.7113	6980.1	6100.35
872.9055	1279.6067	6817.1	5937.55
873.0499	1281.5014	6674.1	5792.85
873.1943	1283.3953	6523.95	5643.8
873.3386	1285.2885	6415	5535.8
873.483	1287.181	6359.5	5479.35
873.6274	1289.0727	6336.4	5456
873.7717	1290.9637	6356.35	5476.35
873.9161	1292.854	6497.5	5616.4
874.0604	1294.7435	6632.25	5751.3
874.2047	1296.6323	6861.35	5982.05
874.349	1298.5204	7116	6229.5
874.4933	1300.4077	7393.3	6511.1
874.6376	1302.2943	7586.15	6708.3
874.7819	1304.1802	7688.55	6806.2
874.9262	1306.0653	7644.25	6763.7
875.0705	1307.9497	7545	6662.7
875.2147	1309.8333	7480.8	6600.9
875.359	1311.7162	7472.65	6591.55
875.5032	1313.5984	7543.8	6659.45
875.6475	1315.4798	7689.15	6794.05
875.7917	1317.3605	7885.2	6988.45
875.9359	1319.2405	8044.85	7160.2
876.0801	1321.1197	8096.55	7212.55
876.2243	1322.9982	8095.9	7209.6
876.3685	1324.876	8074.45	7193.85
876.5127	1326.753	8047.8	7168.5
876.6569	1328.6293	8057.1	7174.15
876.801	1330.5048	8075.55	7194.35
876.9452	1332.3796	8046.15	7167.85
877.0893	1334.2537	8052.75	7144.5
877.2335	1336.127	7988.8	7109.2
877.3776	1337.9996	7926.3	7044.5
877.5217	1339.8714	7893.6	7012.95
877.6658	1341.7426	7849.6	6922.45
877.8099	1343.6129	7762.8	6881.4
877.954	1345.4826	7672.1	6789.65
878.0981	1347.3515	7627.2	6743.05
878.2422	1349.2196	7548.1	6668.05
878.3862	1351.087	7566.05	6684.5
878.5303	1352.9537	7592.95	6710.9
878.6743	1354.8197	7721.9	6840.2
878.8184	1356.6849	7874.9	6993.2
878.9624	1358.5493	7953.45	7073.55
879.1064	1360.4131	7963.3	7082.4
879.2504	1362.276	7892.7	7011.55
879.3944	1364.1383	7725.75	6846.2
879.5384	1365.9998	7502.7	6614.3
879.6823	1367.8606	7242.8	6359.55
879.8263	1369.7206	6998.45	6118.45
879.9702	1371.5799	6825.95	5941.4
880.1142	1373.4384	6709.45	5827.6
880.2581	1375.2962	6588.8	5703.75
880.402	1377.1533	6356.75	5475.45
880.5459	1379.0096	6099.75	5217
880.6898	1380.8652	5799.9	4918.15
880.8337	1382.7201	5574.9	4693.2
880.9776	1384.5742	5388.4	4505.45
881.1215	1386.4275	5265.45	4383.7
881.2653	1388.2802	5140.55	4260.85
881.4092	1390.132	5042.85	4161.4
881.553	1391.9832	4981.25	4099.05
881.6968	1393.8336	4915.05	4033.25
881.8406	1395.6832	4895.75	4012.85
881.9844	1397.5322	4870	3989.25
882.1282	1399.3803	4854.65	3968.65
882.272	1401.2278	4810.8	3927.45
882.4158	1403.0745	4831.85	3950.95
882.5595	1404.9204	4816.6	3937.35
882.7033	1406.7656	4832.8	3948.6
882.847	1408.6101	4847.8	3964.7
882.9908	1410.4538	4872.95	3994.7
883.1345	1412.2968	4917.05	4034.55
883.2782	1414.139	4962.45	4080.6
883.4219	1415.9805	5049.1	4166.4
883.5656	1417.8213	5161.7	4270.95
883.7092	1419.6613	5290.9	4410.6
883.8529	1421.5006	5496.2	4612.8
883.9965	1423.3391	5771.05	4889.65
884.1402	1425.1769	6167.3	5284.85
884.2838	1427.0139	6680.85	5797.6
884.4274	1428.8502	7299.25	6417.6
884.571	1430.6858	7936.15	7054.2
884.7146	1432.5206	8412.5	7530.95
884.8582	1434.3547	8679.6	7796.4
885.0018	1436.188	8739.15	7858.6
885.1453	1438.0206	8701.65	7816.8
885.2889	1439.8524	8558.85	7675.1
885.4324	1441.6835	8464.25	7578.75
885.5759	1443.5139	8368.15	7483.45
885.7194	1445.3435	8303.45	7420.7
885.8629	1447.1724	8229	7344.5
886.0064	1449.0005	8164.05	7281.7
886.1499	1450.8279	8061.95	7176.3
886.2933	1452.6545	8022	7142.6
886.4368	1454.4804	8038.55	7157.15
886.5802	1456.3056	8039.65	7149.35
886.7237	1458.13	7918.55	7038.45
886.8671	1459.9536	7719.15	6836.65
887.0105	1461.7766	7345.2	6464.75
887.1539	1463.5987	6930.75	6048.1
887.2972	1465.4202	6534.05	5652.5
887.4406	1467.2409	6175.25	5292.55
887.584	1469.0608	5876.05	4994.45
887.7273	1470.88	5608.15	4726
887.8706	1472.6984	5387.35	4506.2
888.0139	1474.5161	5174.65	4287.75
888.1572	1476.3331	5019.9	4137.9
888.3005	1478.1493	4886.55	4005.15
888.4438	1479.9648	4758.45	3875.95
888.5871	1481.7795	4664.4	3785.95
888.7303	1483.5935	4609.15	3728.15
888.8736	1485.4067	4549.75	3667.35
889.0168	1487.2192	4492.65	3611.45
889.16	1489.031	4469.75	3585.9
889.3032	1490.842	4429.2	3548.25
889.4464	1492.6522	4399.4	3514
889.5896	1494.4618	4348.9	3465.35
889.7327	1496.2705	4335.55	3454.8
889.8759	1498.0785	4321.8	3437.65
890.019	1499.8858	4298.75	3415.95
890.1622	1501.6924	4285	3403.85
890.3053	1503.4981	4270.55	3389.55
890.4484	1505.3032	4239.35	3356.25
890.5914	1507.1075	4236.1	3351.85
890.7345	1508.911	4203.3	3321.8
890.8776	1510.7138	4177.4	3293.1
891.0206	1512.5159	4152.35	3271.15
891.1637	1514.3172	4110.7	3227.4
891.3067	1516.1178	4079.45	3199.45
891.4497	1517.9176	4049.75	3165.05
891.5927	1519.7166	4047.8	3166.35
891.7357	1521.515	4018.65	3129.1
891.8786	1523.3126	3986.4	3105.8
892.0216	1525.1094	3990.4	3106.95
892.1645	1526.9055	3956.55	3076.3
892.3074	1528.7008	3946.15	3062.25
892.4503	1530.4954	3914.35	3025.85
892.5932	1532.2893	3919.35	3038.7
892.7361	1534.0824	3889.45	3003.85
892.879	1535.8747	3907.95	3025.95
893.0218	1537.6663	3888.85	3005.4
893.1647	1539.4572	3887.8	3003.3
893.3075	1541.2473	3884.4	3001.75
893.4503	1543.0367	3882.4	2999.75
893.5931	1544.8253	3880.45	2992.85
893.7359	1546.6132	3895.35	3010.35
893.8787	1548.4003	3892.5	3002.55
894.0214	1550.1867	3899.5	3009.65
894.1642	1551.9723	3916.4	3029.85
894.3069	1553.7572	3931.7	3049.2
894.4496	1555.5414	3951.25	3067.2
894.5923	1557.3247	3996.25	3111.55
894.735	1559.1074	4011.6	3131.3
894.8777	1560.8893	4063.45	3181.95
895.0204	1562.6705	4137.65	3256.15
895.163	1564.4509	4216.65	3334.8
895.3056	1566.2305	4300.95	3420.95
895.4482	1568.0094	4408.25	3527.8
895.5908	1569.7876	4489	3607
895.7334	1571.565	4567	3684.75
895.876	1573.3417	4606	3723.4
896.0186	1575.1176	4629.25	3748.7
896.1611	1576.8928	4605.15	3723.6
896.3036	1578.6672	4534.1	3653.9
896.4461	1580.4409	4429.9	3549.05
896.5886	1582.2138	4285.6	3402.05
896.7311	1583.986	4179.95	3298.55
896.8736	1585.7575	4077.9	3196.65
897.0161	1587.5282	4001.8	3120.7
897.1585	1589.2981	3941.45	3058.45
897.3009	1591.0673	3875.45	2994
897.4433	1592.8358	3864.7	2981
897.5857	1594.6035	3868.8	2985.3
897.7281	1596.3704	3859.35	2975.5
897.8705	1598.1366	3859.45	2977.35
898.0128	1599.9021	3884.35	3005.2
898.1551	1601.6668	3926.85	3042.1
898.2975	1603.4308	3967.25	3088.5
898.4398	1605.194	4035.85	3149.9
898.5821	1606.9564	4123.75	3241.75
898.7243	1608.7182	4225.65	3338.95
898.8666	1610.4791	4343.8	3461.75
899.0088	1612.2394	4510.85	3629.95
899.1511	1613.9988	4683.9	3802.9
899.2933	1615.7576	4916	4036.8
899.4355	1617.5156	5164.6	4277.05
899.5776	1619.2728	5423.15	4541.9
899.7198	1621.0293	5588	4707.2
899.862	1622.785	5693.2	4810.6
900.0041	1624.54	5642.35	4758.4
900.1462	1626.2942	5510.3	4628.05
900.2883	1628.0477	5288.2	4403.45
900.4304	1629.8005	5031.5	4146.65
900.5725	1631.5525	4812	3929.15
900.7145	1633.3037	4581	3698.8
900.8566	1635.0542	4419.1	3537.65
900.9986	1636.804	4281.1	3397.85
901.1406	1638.553	4251.9	3291.3
901.2826	1640.3013	4132.1	3251.75
901.4245	1642.0488	4097.95	3213.2
901.5665	1643.7955	4082.7	3203.8
901.7085	1645.5416	4099.1	3217.6
901.8504	1647.2868	4169	3289.9
901.9923	1649.0313	4227.95	3347.8
902.1342	1650.7751	4368	3482.8
902.2761	1652.5181	4575.9	3695.35
902.4179	1654.2604	4799.45	3916.3
902.5598	1656.0019	5108.1	4227.85
902.7016	1657.7427	5491.75	4611.3
902.8434	1659.4828	5831.15	4949.1
902.9852	1661.222	6095.8	5213
903.127	1662.9606	6151.3	5271.45
903.2687	1664.6984	6009.45	5128.5
903.4105	1666.4354	5664.75	4782.5
903.5522	1668.1717	5235.25	4354.3
903.6939	1669.9072	4796.2	3916.1
903.8356	1671.642	4412.95	3530.95
903.9773	1673.3761	4122.3	3243
904.119	1675.1094	3891.3	3010.05
904.2606	1676.8419	3722.9	2841.35
904.4022	1678.5737	3580.05	2699.4
904.5439	1680.3048	3485.6	2604.6
904.6855	1682.0351	3410.25	2528.45
904.827	1683.7646	3355.9	2475.15
904.9686	1685.4934	3310.6	2429.1
905.1101	1687.2215	3292.7	2409.9
905.2517	1688.9488	3247.6	2368.35
905.3932	1690.6754	3226.15	2347.35
905.5347	1692.4012	3208.95	2328.1
905.6761	1694.1263	3175.1	2295.1
905.8176	1695.8506	3155.2	2273.2
905.9591	1697.5742	3145.15	2266.7
906.1005	1699.297	3113.7	2232.05
906.2419	1701.0191	3103.3	2221.75
906.3833	1702.7404	3082.85	2202.8
906.5246	1704.461	3060.05	2178.3
906.666	1706.1808	3050.2	2166.6
906.8073	1707.8999	3024.05	2144.4
906.9487	1709.6182	3021.2	2139.45
907.09	1711.3358	3017.15	2136.8
907.2313	1713.0527	3005.5	2126.4
907.3725	1714.7688	2986.1	2100.3
907.5138	1716.4841	2979.35	2096.35
907.655	1718.1987	2978.4	2092.6
907.7962	1719.9126	2955.6	2076.7
907.9374	1721.6257	2949	2064.95
908.0786	1723.338	2940.85	2059.8
908.2198	1725.0496	2913.75	2032.55
908.3609	1726.7605	2914.55	2033.7
908.502	1728.4706	2898.75	2017.5
908.6431	1730.18	2879.2	1994.25
908.7842	1731.8886	2871.65	1990.65
908.9253	1733.5964	2883.9	1997.75
909.0664	1735.3036	2878.65	1996.2
909.2074	1737.0099	2870.85	1991.45
909.3484	1738.7156	2866.25	1984.45
909.4894	1740.4204	2845.3	1961.6
909.6304	1742.1246	2840.85	1958.25
909.7714	1743.8279	2827	1945.95
909.9123	1745.5306	2829.9	1946.75
910.0532	1747.2325	2817.55	1937.55
910.1941	1748.9336	2809.8	1929.3
910.335	1750.634	2804.65	1922.45
910.4759	1752.3336	2800.75	1920.95
910.6168	1754.0325	2789.05	1908.8
910.7576	1755.7307	2791.4	1909.85
910.8984	1757.4281	2782.05	1902.35
911.0392	1759.1247	2788.05	1898.65
911.18	1760.8206	2779.55	1896
911.3208	1762.5158	2784.95	1899.45
911.4615	1764.2102	2753.35	1875.15
911.6022	1765.9039	2741.1	1860.05
911.7429	1767.5968	2750.25	1870.2
911.8836	1769.289	2740.2	1859.75
912.0243	1770.9804	2733.65	1852.05
912.1649	1772.6711	2739.35	1856.7
912.3056	1774.361	2736.7	1855.55
912.4462	1776.0502	2719	1838.5
912.5868	1777.7386	2711.9	1829.6
912.7274	1779.4263	2713.95	1834.85
912.8679	1781.1132	2708.95	1827.95
913.0084	1782.7994	2682.8	1799.1
913.149	1784.4849	2698.25	1818.45
913.2895	1786.1696	2707.75	1805.45
913.4299	1787.8535	2691.2	1809.1
913.5704	1789.5367	2664.3	1782.65
913.7108	1791.2192	2665.95	1787
913.8513	1792.9009	2689.85	1779.95
913.9917	1794.5818	2657.7	1774.15
914.132	1796.2621	2659.05	1778.85
914.2724	1797.9415	2644.4	1762.45
914.4128	1799.6202	2632.8	1753.4
914.5531	1801.2982	2642.9	1763.95
914.6934	1802.9755	2633.15	1751.45
914.8337	1804.6519	2642.85	1764.95
914.9739	1806.3277	2634.4	1754
915.1142	1808.0027	2626.65	1744.2
915.2544	1809.6769	2610.8	1729.25
915.3946	1811.3504	2620.05	1738.55
915.5348	1813.0231	2621	1738.8
915.675	1814.6951	2611.35	1728.3
915.8151	1816.3664	2621.7	1739.65
915.9553	1818.0369	2604.85	1723.6
916.0954	1819.7067	2590.5	1711.3
916.2355	1821.3757	2596.65	1714.55
916.3755	1823.044	2588.15	1708.5
916.5156	1824.7115	2586.8	1706.25
916.6556	1826.3783	2586.1	1706.25
916.7956	1828.0443	2589.6	1710.2
916.9356	1829.7096	2567.8	1686.25
917.0756	1831.3741	2566.35	1684.55
917.2155	1833.0379	2549.35	1668.9
917.3555	1834.701	2556.65	1672.3
917.4954	1836.3633	2563.6	1680.8
917.6353	1838.0248	2549.7	1666.45
917.7751	1839.6856	2540.7	1660.8
917.915	1841.3457	2530.5	1650.6
918.0548	1843.005	2538.2	1656.95
918.1946	1844.6636	2542.95	1665.25
918.3344	1846.3214	2547.2	1666.6
918.4742	1847.9785	2532.85	1653.05
918.6139	1849.6349	2539	1658.1
918.7537	1851.2904	2533.35	1643.65
918.8934	1852.9453	2523.9	1644.6
919.0331	1854.5994	2510.05	1628.5
919.1727	1856.2528	2522.4	1636.9
919.3124	1857.9054	2509.05	1629.25
919.452	1859.5572	2516.3	1633.15
919.5916	1861.2083	2500.35	1619.2
919.7312	1862.8587	2506.4	1626.3
919.8708	1864.5084	2502	1620.2
920.0103	1866.1572	2501.25	1623.6
920.1498	1867.8054	2485.55	1604.35
920.2893	1869.4528	2476.4	1596.1
920.4288	1871.0994	2467.3	1587.85
920.5683	1872.7453	2460.3	1576.6
920.7077	1874.3905	2484.05	1585.9
920.8471	1876.0349	2465.9	1584.2
920.9865	1877.6786	2461.55	1580.95
921.1259	1879.3215	2448.9	1569.8
921.2653	1880.9637	2454.25	1572.65
921.4046	1882.6051	2442.15	1563.1
921.5439	1884.2458	2438.2	1554.5
921.6832	1885.8858	2433.2	1552.35
921.8225	1887.525	2433.6	1554.2
921.9617	1889.1634	2425.95	1544.55
922.101	1890.8011	2416.7	1536.85
922.2402	1892.4381	2409.2	1528.3
922.3794	1894.0743	2408.55	1529.1
922.5185	1895.7098	2409.1	1529.75
922.6577	1897.3446	2412.05	1533.1
922.7968	1898.9786	2404.45	1521.15
922.9359	1900.6118	2387.75	1509.45
923.075	1902.2443	2395.1	1512.35
923.214	1903.8761	2385.4	1504.65
923.3531	1905.5071	2381.9	1500.05
923.4921	1907.1374	2381.3	1501.7
923.6311	1908.7669	2390.5	1510.2
923.77	1910.3957	2379.35	1498.3
923.909	1912.0237	2364.5	1485.4
924.0479	1913.651	2368.75	1488.1
924.1868	1915.2776	2351.8	1474.5
924.3257	1916.9034	2342.3	1462.05
924.4646	1918.5285	2336.45	1454.55
924.6034	1920.1528	2329.15	1447.65
924.7422	1921.7764	2336.35	1454.85
924.881	1923.3992	2325.3	1444.95
925.0198	1925.0213	2312.65	1431
925.1586	1926.6427	2315.75	1435.7
925.2973	1928.2633	2387.65	1432.1
925.436	1929.8832	2317.05	1435.75
925.5747	1931.5023	2303.8	1424.25
925.7134	1933.1207	2310.45	1429.45
925.852	1934.7383	2289.9	1409.15
925.9906	1936.3552	2294.3	1413.7
926.1292	1937.9714	2296.5	1415.9
926.2678	1939.5868	2280.9	1396.6
926.4064	1941.2015	2285.85	1406.45
926.5449	1942.8154	2272.65	1392.9
926.6834	1944.4286	2263.3	1382.25
926.8219	1946.041	2287.55	1383.8
926.9604	1947.6528	2246.95	1362.85
927.0988	1949.2637	2249.65	1369.5
927.2372	1950.8739	2237.6	1358.1
927.3756	1952.4834	2251	1371.25
927.514	1954.0921	2239.5	1358.4
927.6523	1955.7001	2233.7	1350.6
927.7907	1957.3074	2241.3	1361.75
927.929	1958.9139	2218.5	1337.8
928.0673	1960.5197	2212.05	1329.7
928.2055	1962.1247	2211.8	1332.05
928.3438	1963.729	2211.25	1333.2
928.482	1965.3325	2225.6	1323.1
928.6202	1966.9353	2198.2	1318.75
928.7584	1968.5374	2186.3	1304.4
928.8965	1970.1387	2180.6	1300.35
929.0346	1971.7393	2177.2	1295.6
929.1727	1973.3392	2180	1298.8
929.3108	1974.9383	2168.25	1288.15
929.4489	1976.5366	2164	1284.3
929.5869	1978.1342	2163.9	1283.8
929.7249	1979.7311	2165.3	1282.75
929.8629	1981.3273	2158.4	1276.8
930.0009	1982.9227	2153.75	1272
930.1388	1984.5173	2148.9	1268.9
930.2767	1986.1112	2139.65	1259.05
930.4146	1987.7044	2147.6	1268.7
930.5525	1989.2968	2138.25	1258.15
930.6904	1990.8885	2138.5	1255.15
930.8282	1992.4795	2133.25	1251.05
930.966	1994.0697	2131.15	1249.65
931.1038	1995.6592	2126.2	1245.85
931.2415	1997.2479	2124.1	1243.35
931.3793	1998.8359	2112.1	1231.25
931.517	2000.4232	2119.95	1240.8
931.6547	2002.0097	2105.5	1226.7
931.7923	2003.5955	2100.85	1220.85
931.93	2005.1805	2100.15	1219.7
932.0676	2006.7648	2104.3	1224
932.2052	2008.3484	2098.15	1217
932.3427	2009.9312	2094.95	1212.55
932.4803	2011.5133	2091.7	1211.25
932.6178	2013.0946	2083.1	1202.75
932.7553	2014.6752	2083.75	1203.1
932.8928	2016.2551	2074.85	1195.35
933.0302	2017.8342	2079.6	1197.65
933.1676	2019.4126	2062.35	1181.05
933.305	2020.9902	2071.6	1192.25
933.4424	2022.5672	2070.4	1187.85
933.5798	2024.1433	2068.3	1182.5
933.7171	2025.7188	2054.2	1174.35
933.8544	2027.2935	2065.05	1182.95
933.9917	2028.8674	2062.2	1181.55
934.129	2030.4406	2049.5	1168.9
934.2662	2032.0131	2046.45	1167.3
934.4034	2033.5849	2047	1157.5
934.5406	2035.1559	2032.7	1151.05
934.6778	2036.7261	2028.3	1148
934.8149	2038.2957	2036.35	1156.9
934.952	2039.8645	2032.8	1151.3
935.0891	2041.4325	2029.5	1148.65
935.2262	2042.9998	2024.3	1143.05
935.3632	2044.5664	2025.3	1141.55
935.5002	2046.1323	2012.65	1133.85
935.6372	2047.6974	2016.95	1136.1
935.7742	2049.2617	2015.45	1135.1
935.9111	2050.8254	2018.65	1133.45
936.048	2052.3883	2007.95	1127.6
936.1849	2053.9504	2000	1119.7
936.3218	2055.5118	1998.3	1115.6
936.4586	2057.0725	1996.6	1112.05
936.5955	2058.6325	1994.55	1114.1
936.7323	2060.1917	1994.05	1109.85
936.869	2061.7502	1987.95	1103.7
937.0058	2063.3079	1986.65	1106.4
937.1425	2064.8649	1984.25	1099.9
937.2792	2066.4212	1980	1097.9
937.4159	2067.9767	1971.25	1090.3
937.5525	2069.5315	1970.55	1090.15
937.6891	2071.0856	1965.65	1085.05
937.8257	2072.6389	1952.35	1070.3
937.9623	2074.1915	1952.85	1073.95
938.0989	2075.7433	1952	1069.3
938.2354	2077.2945	1950.75	1071.5
938.3719	2078.8448	1945.5	1063.25
938.5084	2080.3945	1929.45	1047.85
938.6448	2081.9434	1936.95	1054.7
938.7812	2083.4916	1931.65	1048.4
938.9176	2085.039	1924.05	1042
939.054	2086.5857	1919.9	1039.55
939.1903	2088.1317	1918.8	1039.4
939.3267	2089.677	1925.45	1045
939.463	2091.2215	1921.05	1040.85
939.5992	2092.7652	1912	1029.95
939.7355	2094.3083	1912.15	1029.2
939.8717	2095.8506	1909.9	1030.8
940.0079	2097.3921	1918.65	1040.75
940.1441	2098.933	1909.1	1027.15
940.2802	2100.4731	1910.8	1031.35
940.4163	2102.0124	1913.5	1027.95
940.5524	2103.5511	1908.95	1029.4
940.6885	2105.089	1900.45	1019.9
940.8245	2106.6261	1897.95	1017.7
940.9606	2108.1626	1890.5	1010.25
941.0965	2109.6983	1922.95	1011.95
941.2325	2111.2332	1897.1	1016.85
941.3684	2112.7675	1886.2	1003.85
941.5044	2114.301	1878.1	996.5
941.6403	2115.8337	1879.6	997.15
941.7761	2117.3657	1876.35	996.95
941.912	2118.897	1878	995.05
942.0478	2120.4276	1880.25	995.3
942.1835	2121.9575	1871.35	989.45
942.3193	2123.4866	1873.6	978.95
942.455	2125.0149	1869.9	987.1
942.5907	2126.5426	1863.6	981.3
942.7264	2128.0695	1870.25	986
942.8621	2129.5956	1861.1	980.05
942.9977	2131.1211	1855.5	969.9
943.1333	2132.6458	1858.1	977.35
943.2689	2134.1698	1852.05	971.3
943.4044	2135.693	1845.95	962.7
943.54	2137.2155	1850	967
943.6755	2138.7373	1851.25	969.1
943.8109	2140.2584	1852.3	970.95
943.9464	2141.7787	1852.45	965.45
944.0818	2143.2983	1834.8	955.1
944.2172	2144.8171	1828.1	947.9
944.3526	2146.3353	1832.7	950.95
944.4879	2147.8527	1818.85	938.75
944.6232	2149.3693	1823.45	939.7
944.7585	2150.8853	1824.25	942.8
944.8938	2152.4005	1819.75	937.3
945.029	2153.9149	1821.55	941.9
945.1642	2155.4287	1813	930.95
945.2994	2156.9417	1815.1	931.65
945.4346	2158.454	1811.7	928.65
945.5697	2159.9655	1808.1	927.25
945.7048	2161.4764	1811.7	929.55
945.8399	2162.9865	1805.15	922.9
945.9749	2164.4958	1802.5	918.7
946.1099	2166.0045	1796.35	912.8
946.2449	2167.5124	1806.4	925
946.3799	2169.0195	1794.85	914.3
946.5148	2170.526	1787.2	905.9
946.6498	2172.0317	1786.3	905.65
946.7846	2173.5367	1785.7	902.75
946.9195	2175.0409	1797.05	919.35
947.0543	2176.5445	1787.95	908.2
947.1891	2178.0473	1778	896.35
947.3239	2179.5494	1779.05	894.45
947.4587	2181.0507	1773.75	892.25
947.5934	2182.5513	1770.3	891.45
947.7281	2184.0512	1781.05	900.65
947.8628	2185.5504	1771.65	890.15
947.9974	2187.0488	1764.6	881.6
948.132	2188.5465	1764.65	884.45
948.2666	2190.0435	1759.6	879.6
948.4012	2191.5397	1754.6	873.6
948.5357	2193.0353	1755.7	876.3
948.6702	2194.5301	1754.5	873.05
948.8047	2196.0241	1744.15	863.65
948.9392	2197.5175	1746.6	866.75
949.0736	2199.0101	1751.6	866.4
949.208	2200.502	1743.05	863.3
949.3424	2201.9931	1739.75	858.85
949.4767	2203.4835	1729.9	849.6
949.611	2204.9733	1738	849.45
949.7453	2206.4622	1741.05	860.7
949.8796	2207.9505	1730.2	845.55
950.0138	2209.438	1719.9	839.9
950.148	2210.9248	1724.55	842.25
950.2822	2212.4109	1717.35	838.2
950.4164	2213.8962	1724.05	840.55
950.5505	2215.3809	1721.6	839.75
950.6846	2216.8648	1718	839.6
950.8186	2218.3479	1714.3	830.15
950.9527	2219.8304	1711.05	828.75
951.0867	2221.3121	1694	811.15
951.2207	2222.7931	1709.3	828.05
951.3546	2224.2733	1705.35	823.4
951.4886	2225.7529	1689.6	808.3
951.6225	2227.2317	1692	807.3
951.7563	2228.7098	1692.3	811.9
951.8902	2230.1872	1688.1	806.45
952.024	2231.6638	1688.45	807.6
952.1578	2233.1397	1686.55	801.1
952.2916	2234.6149	1683.45	802.2
952.4253	2236.0894	1680.1	798.1
952.559	2237.5632	1671.6	788.9
952.6927	2239.0362	1671.55	789.5
952.8263	2240.5085	1669.5	791.1
952.9599	2241.9801	1672.2	789.65
953.0935	2243.4509	1656.05	776.2
953.2271	2244.921	1664.85	784.6
953.3606	2246.3904	1661.8	777.3
953.4941	2247.8591	1658.1	778.25
953.6276	2249.3271	1655.25	774.6
953.7611	2250.7943	1647.75	766.3
953.8945	2252.2608	1643.4	763.4
954.0279	2253.7266	1646	764.85
954.1612	2255.1917	1637	756.8
954.2946	2256.656	1640.35	756.4
954.4279	2258.1197	1644.05	761
954.5612	2259.5826	1639.95	757.65
954.6944	2261.0447	1640.4	760.05
954.8276	2262.5062	1634.1	749.1
954.9608	2263.9669	1627.9	745.4
955.094	2265.4269	1629.85	749.5
955.2271	2266.8862	1628.65	747.95
955.3602	2268.3448	1626.65	742.55
955.4933	2269.8026	1634.2	753.15
955.6264	2271.2598	1632.05	751.35
955.7594	2272.7162	1632.35	751.45
955.8924	2274.1719	1617.55	735.8
956.0253	2275.6268	1619.1	738.1
956.1583	2277.0811	1624.8	744.35
956.2912	2278.5346	1614.7	733.85
956.4241	2279.9874	1620.85	739.25
956.5569	2281.4395	1615.55	734.6
956.6897	2282.8908	1615.45	728.6
956.8225	2284.3414	1613	729.05
956.9553	2285.7914	1603.75	723.35
957.088	2287.2406	1608.4	724.95
957.2207	2288.689	1608.05	726.45
957.3534	2290.1368	1605.25	725.45
957.486	2291.5838	1598.8	715.4
957.6186	2293.0302	1600.35	718.25
957.7512	2294.4758	1594.55	711.05
957.8838	2295.9206	1595.05	710.25
958.0163	2297.3648	1597.35	717.8
958.1488	2298.8082	1588.85	706.6
958.2813	2300.251	1585.65	705.55
958.4137	2301.693	1588.4	704.65
958.5461	2303.1343	1586.95	704.2
958.6785	2304.5748	1597	714.95
958.8108	2306.0147	1584.6	703.4
958.9432	2307.4538	1581.8	698.85
959.0754	2308.8922	1578.7	698.55
959.2077	2310.3299	1575.7	693.4
959.3399	2311.7669	1570.65	690.35
959.4721	2313.2031	1572.6	691.35
959.6043	2314.6387	1561.85	681.9
959.7365	2316.0735	1567	684.5
959.8686	2317.5076	1568.5	687.25
960.0006	2318.941	1567.3	687.2
960.1327	2320.3737	1557.3	674.45
960.2647	2321.8056	1560.65	677.6
960.3967	2323.2369	1555.1	672.3
960.5287	2324.6674	1553.6	668.6
960.6606	2326.0972	1558.25	674.9
960.7925	2327.5263	1543.4	663.4
960.9244	2328.9547	1547.75	663.1
961.0562	2330.3823	1546.3	664.15
961.1881	2331.8092	1553.2	668.1
961.3198	2333.2355	1543.4	663.35
961.4516	2334.661	1544.05	664.2
961.5833	2336.0858	1539.5	656.25
961.715	2337.5098	1541.55	663.4
961.8467	2338.9332	1539.55	656.65
961.9783	2340.3558	1533.95	649.85
962.1099	2341.7778	1526.85	647.65
962.2415	2343.199	1541	656.3
962.373	2344.6195	1534.7	654.05
962.5045	2346.0393	1534.95	652.35
962.636	2347.4583	1534.95	652.8
962.7675	2348.8767	1533.85	651.65
962.8989	2350.2943	1520.85	640.2
963.0303	2351.7113	1530.45	647.95
963.1617	2353.1275	1529.8	649
963.293	2354.543	1545.35	642.6
963.4243	2355.9578	1525.25	645.75
963.5556	2357.3718	1522.65	640.8
963.6868	2358.7852	1522.55	638.75
963.818	2360.1978	1516.4	633.75
963.9492	2361.6098	1514.8	634.6
964.0803	2363.021	1527.15	643
964.2114	2364.4315	1511	630.8
964.3425	2365.8413	1518.65	632.95
964.4736	2367.2504	1518.75	640.05
964.6046	2368.6587	1509.7	629.4
964.7356	2370.0664	1498.35	617.85
964.8666	2371.4733	1502.8	621.7
964.9975	2372.8795	1502.25	622.6
965.1284	2374.285	1496.6	616.95
965.2593	2375.6899	1500.35	620.6
965.3901	2377.0939	1492.8	610.9
965.5209	2378.4973	1491.45	611.15
965.6517	2379.9	1486.6	606.8
965.7825	2381.3019	1492.7	611.55
965.9132	2382.7032	1479.8	599.4
966.0439	2384.1037	1481.25	602.65
966.1745	2385.5035	1487.9	606.7
966.3051	2386.9027	1478.8	599.6
966.4357	2388.3011	1490.65	607.95
966.5663	2389.6987	1476.05	598.1
966.6968	2391.0957	1470.75	589.1
966.8273	2392.492	1464.85	585.35
966.9578	2393.8876	1462.1	579.95
967.0882	2395.2824	1465.25	584.1
967.2186	2396.6765	1461.7	582.45
967.349	2398.07	1456.15	576.2
967.4793	2399.4627	1458.05	576.7
967.6097	2400.8547	1462.15	581.85
967.7399	2402.246	1463.45	577.55
967.8702	2403.6366	1459.2	578.05
968.0004	2405.0265	1455.45	575.4
968.1306	2406.4156	1462.15	576.05
968.2607	2407.8041	1448.3	564.8
968.3909	2409.1918	1451.35	568.2
968.521	2410.5789	1444.55	563.05
968.651	2411.9652	1454.7	571.4
968.781	2413.3508	1446.3	565.6
968.911	2414.7358	1443.2	561.7
969.041	2416.12	1437.15	555.65
969.1709	2417.5035	1442	563.1
969.3008	2418.8863	1445.8	564.9
969.4307	2420.2684	1445.5	565.8
969.5606	2421.6497	1438.1	559.2
969.6904	2423.0304	1437.35	558.3
969.8201	2424.4104	1432.85	552.4
969.9499	2425.7896	1438.5	552.05
970.0796	2427.1682	1433.6	554.45
970.2093	2428.546	1425.6	544.4
970.3389	2429.9232	1434.4	553.9
970.4685	2431.2996	1429.3	547.75
970.5981	2432.6753	1430.65	548.65
970.7277	2434.0503	1425.7	545.3
970.8572	2435.4246	1423.15	543.55
970.9867	2436.7982	1429.65	546.75
971.1161	2438.1711	1417.35	539.3
971.2456	2439.5433	1414.7	535.55
971.375	2440.9148	1419.55	534.6
971.5043	2442.2856	1417.4	540
971.6336	2443.6557	1411.3	527.6
971.7629	2445.025	1407.2	525.6
971.8922	2446.3937	1416.85	536.25
972.0214	2447.7617	1407.15	526.15
972.1506	2449.1289	1411.6	529.55
972.2798	2450.4955	1409.25	525.65
972.4089	2451.8613	1403.95	524.8
972.538	2453.2265	1403.85	524.6
972.6671	2454.5909	1406.75	524.2
972.7961	2455.9546	1407.4	528.95
972.9251	2457.3177	1399.1	518.4
973.0541	2458.68	1396	512.8
973.1831	2460.0416	1413.55	533.55
973.312	2461.4025	1406.1	525.1
973.4408	2462.7627	1409.7	518.45
973.5697	2464.1222	1401.35	522.05
973.6985	2465.4811	1396.1	513.2
973.8273	2466.8392	1391.15	509.3
973.956	2468.1966	1399.85	518.7
974.0847	2469.5533	1398.7	514.25
974.2134	2470.9093	1400.65	519.75
974.3421	2472.2645	1401.5	519.55
974.4707	2473.6191	1391	511.65
974.5993	2474.973	1395.95	513.4
974.7278	2476.3262	1394.35	512.1
974.8563	2477.6787	1393.05	512.7
974.9848	2479.0305	1396.1	514.95
975.1132	2480.3816	1383.45	500.05
975.2417	2481.7319	1384.95	504.05
975.37	2483.0816	1393.5	511
975.4984	2484.4306	1387.35	505.95
975.6267	2485.7789	1381.9	500.5
975.755	2487.1264	1377.1	496.25
975.8833	2488.4733	1384.1	505.8
976.0115	2489.8195	1386.65	490.15
976.1397	2491.165	1378.65	495.6
976.2678	2492.5097	1375.25	492.1
976.3959	2493.8538	1370.35	491.9
976.524	2495.1972	1376.25	494
976.6521	2496.5398	1366.85	486.1
976.7801	2497.8818	1370.45	484.3
976.9081	2499.2231	1360.25	478.35
977.036	2500.5637	1361.4	477.6
977.164	2501.9035	1362.4	480.45
977.2918	2503.2427	1362.7	478.1
977.4197	2504.5812	1357.1	476.45
977.5475	2505.919	1363.8	479.85
977.6753	2507.256	1360	479.05
977.8031	2508.5924	1355.75	477.1
977.9308	2509.9281	1368.6	481.55
978.0585	2511.2631	1356	476.1
978.1861	2512.5974	1354.8	474.3
978.3137	2513.9309	1349.85	467.55
978.4413	2515.2638	1383.25	473.25
978.5689	2516.596	1355.55	474.45
978.6964	2517.9275	1348.45	466.8
978.8239	2519.2583	1348.7	466.2
978.9513	2520.5884	1354.8	473.05
979.0788	2521.9178	1351.45	467.65
979.2062	2523.2465	1344.3	463.65
979.3335	2524.5745	1350.2	470.45
979.4608	2525.9018	1342.8	462.45
979.5881	2527.2284	1342.15	462.2
979.7154	2528.5543	1342.65	462.15
979.8426	2529.8796	1344.6	465.25
979.9698	2531.2041	1348.55	466.85
980.0969	2532.5279	1342.65	462.7
980.224	2533.851	1340.45	459.9
980.3511	2535.1735	1343.95	462.55
980.4781	2536.4952	1338.65	456.7
980.6052	2537.8163	1335.75	454.25
980.7321	2539.1366	1334.55	454.9
980.8591	2540.4562	1333.1	450.05
980.986	2541.7752	1326.15	447.55
981.1129	2543.0935	1330.75	449.3
981.2397	2544.411	1327.8	447.95
981.3665	2545.7279	1331.3	450.45
981.4933	2547.0441	1332.9	452.1
981.62	2548.3596	1331.15	446.9
981.7467	2549.6744	1328.85	447.6
981.8734	2550.9885	1328.05	444.35
982.0001	2552.3019	1330	451.45
982.1267	2553.6146	1321.15	441.35
982.2532	2554.9266	1324.15	443.05
982.3798	2556.2379	1321.9	438.6
982.5063	2557.5485	1314.95	435.2
982.6327	2558.8585	1322.3	432.3
982.7592	2560.1677	1322	435.4
982.8856	2561.4762	1320.85	438.75
983.0119	2562.7841	1321.6	436.45
983.1383	2564.0913	1313.25	434.5
983.2646	2565.3977	1310.8	430.1
983.3908	2566.7035	1314.4	432.8
983.517	2568.0086	1312.95	429.15
983.6432	2569.313	1318.65	438.1
983.7694	2570.6167	1314.85	431.85
983.8955	2571.9197	1315.05	435.3
984.0216	2573.222	1316.65	431.85
984.1476	2574.5236	1306.6	424.8
984.2737	2575.8246	1312.3	427.95
984.3996	2577.1248	1322.3	438.35
984.5256	2578.4244	1313.9	433.55
984.6515	2579.7232	1317.95	438.4
984.7774	2581.0214	1344.7	431.7
984.9032	2582.3189	1312.15	432.8
985.029	2583.6157	1320.25	435.95
985.1548	2584.9118	1316.3	434.7
985.2806	2586.2072	1314.15	432.2
985.4063	2587.5019	1312.45	432.75
985.5319	2588.7959	1318	435.5
985.6576	2590.0893	1320.15	437.95
985.7832	2591.3819	1317.5	439.2
985.9087	2592.6739	1326.8	446.5
986.0343	2593.9652	1325.15	441.8
986.1597	2595.2557	1330.85	452.15
986.2852	2596.5456	1331.9	446.8
986.4106	2597.8348	1321.85	440.55
986.536	2599.1234	1331.95	450.35
986.6614	2600.4112	1332.7	453
986.7867	2601.6983	1341.55	458.75
986.912	2602.9848	1334.75	454.85
987.0372	2604.2705	1335.2	447.95
987.1624	2605.5556	1339.8	459.1
987.2876	2606.84	1330.45	449.85
987.4128	2608.1237	1329.85	448.9
987.5379	2609.4067	1333.8	452.8
987.6629	2610.689	1331.35	441
987.788	2611.9707	1327.4	442.15
987.913	2613.2516	1328.15	442.85
988.0379	2614.5319	1328.8	451.1
988.1629	2615.8115	1325.45	445.3
988.2878	2617.0903	1329.7	447.9
988.4126	2618.3685	1318.15	437.4
988.5375	2619.6461	1322.75	442.25
988.6622	2620.9229	1322.55	439.65
988.787	2622.199	1326.05	446.3
988.9117	2623.4745	1326.5	446.35
989.0364	2624.7493	1316.35	436.4
989.161	2626.0234	1321.8	441.1
989.2857	2627.2968	1317.9	434.5
989.4102	2628.5695	1323.5	439.75
989.5348	2629.8415	1320.05	440.05
989.6593	2631.1128	1329.15	447.05
989.7837	2632.3835	1319.3	438.1
989.9082	2633.6535	1319.4	437.7
990.0326	2634.9228	1326.45	447.5
990.1569	2636.1914	1326.05	445.8
990.2812	2637.4593	1324.6	441.25
990.4055	2638.7265	1319.2	438.3
990.5298	2639.9931	1319.85	439.1
990.654	2641.259	1318.2	435.8
990.7782	2642.5242	1318.95	436.65
990.9023	2643.7887	1316.3	435.9
991.0264	2645.0525	1312.7	431.6
991.1505	2646.3156	1316	435.3
991.2745	2647.5781	1303.5	422.8
991.3985	2648.8398	1313.1	433.55
991.5225	2650.1009	1313.85	424.65
991.6464	2651.3613	1309.35	428.45
991.7703	2652.6211	1308.25	426.25
991.8942	2653.8801	1308.9	428.9
992.018	2655.1385	1312.1	427.85
992.1418	2656.3961	1303.7	422.1
992.2655	2657.6531	1313.25	433.15
992.3892	2658.9094	1306.95	424.15
992.5129	2660.1651	1306.85	426.15
992.6366	2661.42	1306.4	422.15
992.7602	2662.6743	1315.7	434.8
992.8837	2663.9279	1312.95	434.25
993.0073	2665.1808	1315.4	433.9
993.1307	2666.433	1314.55	431.1
993.2542	2667.6846	1315.1	434.5
993.3776	2668.9354	1326	439.6
993.501	2670.1856	1327.15	447
993.6244	2671.4351	1326.7	446.1
993.7477	2672.6839	1329.9	446.35
993.8709	2673.9321	1330.6	451.3
993.9942	2675.1795	1332.25	451.95
994.1174	2676.4263	1338.55	458.5
994.2405	2677.6724	1336.05	456.1
994.3637	2678.9179	1343	461.55
994.4868	2680.1626	1336	455.8
994.6098	2681.4067	1344.05	464.45
994.7328	2682.6501	1346.25	466
994.8558	2683.8928	1342.05	462.3
994.9788	2685.1348	1339.6	456.75
995.1017	2686.3761	1341.05	461.6
995.2245	2687.6168	1336.45	454.6
995.3474	2688.8568	1325.35	444.05
995.4702	2690.0961	1331.1	451.05
995.5929	2691.3348	1325.6	441.35
995.7156	2692.5727	1325.55	444.55
995.8383	2693.81	1318.65	436.15
995.961	2695.0466	1320.7	440.95
996.0836	2696.2826	1317.2	436.85
996.2062	2697.5178	1321.2	437.7
996.3287	2698.7524	1317	435
996.4512	2699.9863	1322.75	438.95
996.5737	2701.2195	1327.25	445.6
996.6961	2702.452	1326.55	443.4
996.8185	2703.6839	1335.05	452.75
996.9408	2704.9151	1343.3	460.95
997.0631	2706.1456	1342.3	461.05
997.1854	2707.3755	1349.9	469.5
997.3077	2708.6046	1352.05	469.55
997.4299	2709.8331	1358.35	476.85
997.552	2711.0609	1371.1	488.6
997.6742	2712.2881	1375.15	495.1
997.7963	2713.5145	1391.65	506.65
997.9183	2714.7403	1401.05	520.5
998.0403	2715.9654	1410.65	527.65
998.1623	2717.1899	1437.65	541.7
998.2842	2718.4136	1435.1	554.95
998.4062	2719.6367	1448.2	564.9
998.528	2720.8591	1465.85	579.15
998.6498	2722.0809	1467.45	584.8
998.7716	2723.3019	1486.6	601.85
998.8934	2724.5223	1490.65	607.1
999.0151	2725.7421	1498.15	615.05
999.1368	2726.9611	1491.85	609.2
999.2584	2728.1795	1496.35	610.35
999.38	2729.3972	1492.3	609.65
999.5016	2730.6142	1492.15	599.1
999.6231	2731.8306	1468.85	585.95
999.7446	2733.0462	1453.4	569.3
999.8661	2734.2612	1438.6	552.1
999.9875	2735.4756	1428.2	544.1
1000.1089	2736.6892	1409.4	527.6
1000.2302	2737.9022	1389.25	510.15
1000.3515	2739.1145	1378.35	496.85
1000.4728	2740.3262	1374.5	485.95
1000.594	2741.5372	1351.7	470.8
1000.7152	2742.7475	1344.3	464.2
1000.8363	2743.9571	1339.45	457.85
1000.9575	2745.1661	1322.5	435.9
1001.0785	2746.3744	1313.6	431.4
1001.1996	2747.582	1305	423.65
1001.3206	2748.7889	1298.7	416.15
1001.4415	2749.9952	1292.15	411
1001.5625	2751.2008	1286.95	406.1
1001.6833	2752.4057	1289.2	405.6
1001.8042	2753.61	1288.45	408.9
1001.925	2754.8136	1280.55	397.7
1002.0458	2756.0165	1279.7	399.75
1002.1665	2757.2188	1277.45	396.65
1002.2872	2758.4204	1278.4	396.85
1002.4078	2759.6213	1276.5	391.2
1002.5285	2760.8215	1281.1	392.95
1002.649	2762.0211	1274.05	392.6
1002.7696	2763.22	1277.65	395.15
1002.8901	2764.4182	1276.85	394.65
1003.0106	2765.6158	1269.85	389.05
1003.131	2766.8127	1270.2	388.6
1003.2514	2768.009	1265.85	385.4
1003.3717	2769.2045	1267.2	385.2
1003.492	2770.3994	1268.2	383.45
1003.6123	2771.5936	1263	379.95
1003.7325	2772.7872	1259.55	377.05
1003.8527	2773.9801	1266.4	382.8
1003.9729	2775.1723	1278.15	380.1
1004.093	2776.3639	1264.55	384
1004.2131	2777.5548	1267	385.15
1004.3331	2778.745	1262.25	378.45
1004.4531	2779.9346	1267.05	386
1004.5731	2781.1235	1271.35	388.9
1004.693	2782.3117	1275.2	396.75
1004.8129	2783.4992	1277.05	397.95
1004.9328	2784.6861	1282.5	399.95
1005.0526	2785.8723	1293.65	410.8
1005.1723	2787.0579	1300.9	419.95
1005.2921	2788.2428	1313.2	432.2
1005.4118	2789.427	1315.8	436.6
1005.5314	2790.6106	1317.8	434.65
1005.651	2791.7935	1337.55	455.1
1005.7706	2792.9757	1347.55	464.4
1005.8902	2794.1573	1371.55	486.75
1006.0097	2795.3382	1382.65	502
1006.1291	2796.5184	1395.5	515.8
1006.2485	2797.698	1410.4	528
1006.3679	2798.8769	1431.25	547.8
1006.4873	2800.0551	1448.4	567.95
1006.6066	2801.2327	1473.5	588.2
1006.7258	2802.4096	1492	612.1
1006.8451	2803.5859	1516.45	634.75
1006.9642	2804.7615	1530	648.7
1007.0834	2805.9364	1564.75	684.6
1007.2025	2807.1106	1586.45	706.55
1007.3216	2808.2842	1621.75	740.7
1007.4406	2809.4572	1659.2	777.85
1007.5596	2810.6294	1697.4	814.8
1007.6785	2811.801	1732.9	852.35
1007.7975	2812.972	1781.45	901
1007.9163	2814.1423	1831.55	949.1
1008.0352	2815.3119	1864.55	981.65
1008.154	2816.4808	1919.15	1040
1008.2727	2817.6491	1980.3	1100
1008.3914	2818.8167	2038.15	1159.2
1008.5101	2819.9837	2090.45	1204.85
1008.6288	2821.15	2131.45	1252
1008.7474	2822.3157	2179.3	1299.75
1008.8659	2823.4807	2224.2	1344.4
1008.9844	2824.645	2270.2	1387.95
1009.1029	2825.8086	2303.3	1422.95
1009.2214	2826.9716	2344.15	1462
1009.3398	2828.134	2392.3	1512.15
1009.4581	2829.2957	2426	1543.9
1009.5764	2830.4567	2447.5	1567.35
1009.6947	2831.617	2471.85	1592.9
1009.813	2832.7767	2476.2	1595.35
1009.9312	2833.9358	2484.55	1604.9
1010.0493	2835.0941	2482.05	1598.05
1010.1675	2836.2519	2484.6	1605.45
1010.2855	2837.4089	2462	1579.55
1010.4036	2838.5653	2454.4	1575.05
1010.5216	2839.7211	2451.95	1572.15
1010.6396	2840.8761	2469.3	1586.1
1010.7575	2842.0306	2487.1	1606.7
1010.8754	2843.1843	2527.45	1644.15
1010.9932	2844.3374	2582.4	1701.5
1011.111	2845.4899	2623.15	1740.4
1011.2288	2846.6417	2697.45	1816.05
1011.3465	2847.7928	2787.05	1907.35
1011.4642	2848.9433	2865.85	1985.4
1011.5818	2850.0931	2952.45	2070.75
1011.6995	2851.2422	3026.7	2143.8
1011.817	2852.3907	3095.2	2211.75
1011.9345	2853.5385	3168.15	2285.7
1012.052	2854.6857	3250.55	2339.35
1012.1695	2855.8323	3291.35	2411.25
1012.2869	2856.9781	3345.35	2463.9
1012.4042	2858.1233	3402.35	2520.65
1012.5216	2859.2679	3448.65	2568.85
1012.6389	2860.4118	3507.25	2626.25
1012.7561	2861.555	3542.25	2656.7
1012.8733	2862.6976	3575.9	2692.75
1012.9905	2863.8395	3594.45	2712
1013.1076	2864.9808	3623.2	2743
1013.2247	2866.1214	3648.15	2767.7
1013.3417	2867.2614	3661.35	2779.9
1013.4587	2868.4007	3675.35	2795.5
1013.5757	2869.5393	3684.9	2801.85
1013.6926	2870.6773	3697.2	2816.35
1013.8095	2871.8146	3720.1	2834.3
1013.9263	2872.9513	3737.1	2852.6
1014.0431	2874.0874	3729	2847.25
1014.1599	2875.2227	3715.4	2833
1014.2766	2876.3574	3695.4	2814.6
1014.3933	2877.4915	3684.45	2803.95
1014.51	2878.6249	3660.35	2778.9
1014.6266	2879.7577	3643.75	2762.15
1014.7431	2880.8898	3611.85	2718.6
1014.8596	2882.0212	3591.2	2712.65
1014.9761	2883.152	3576.35	2694.95
1015.0925	2884.2821	3564.85	2684.3
1015.2089	2885.4116	3548.65	2667.85
1015.3253	2886.5405	3563.9	2682.15
1015.4416	2887.6686	3575.95	2692.85
1015.5579	2888.7962	3577.05	2697.5
1015.6741	2889.923	3575	2693.15
1015.7903	2891.0493	3595.9	2715
1015.9065	2892.1748	3598.2	2715.8
1016.0226	2893.2997	3606.6	2724.75
1016.1387	2894.424	3637.2	2758.2
1016.2547	2895.5476	3637.45	2756.45
1016.3707	2896.6706	3681.2	2800.9
1016.4866	2897.7929	3698.9	2817.55
1016.6025	2898.9145	3746.05	2863.3
1016.7184	2900.0355	3768.35	2885.5
1016.8342	2901.1559	3799.35	2917.85
1016.95	2902.2756	3827.55	2948.4
1017.0658	2903.3946	3865.35	2984.85
1017.1815	2904.513	3891.25	3006.65
1017.2971	2905.6308	3937.65	3058.55
1017.4127	2906.7479	3954.2	3072.4
1017.5283	2907.8643	3971.7	3090.7
1017.6439	2908.9801	3991.15	3110.05
1017.7594	2910.0953	4000.3	3119.15
1017.8748	2911.2098	4001.05	3118.1
1017.9902	2912.3236	4020.35	3131.2
1018.1056	2913.4368	4016.2	3133.2
1018.2209	2914.5494	3987.7	3106.1
1018.3362	2915.6613	3951.3	3064.05
1018.4515	2916.7725	3927.35	3042.4
1018.5667	2917.8831	3891.95	3008.85
1018.6819	2918.9931	3853.6	2969.05
1018.797	2920.1024	3839.8	2956.85
1018.9121	2921.211	3820.65	2938.25
1019.0271	2922.319	3807.55	2926
1019.1421	2923.4264	3787.15	2907.55
1019.2571	2924.5331	3763.95	2883.1
1019.372	2925.6391	3751.35	2869.5
1019.4869	2926.7445	3744.05	2864.6
1019.6017	2927.8493	3734.7	2853.4
1019.7165	2928.9534	3732.5	2849.4
1019.8313	2930.0569	3730.35	2848.15
1019.946	2931.1597	3731.75	2848.5
1020.0606	2932.2619	3712.1	2828.9
1020.1753	2933.3634	3697.75	2816.35
1020.2899	2934.4643	3697.1	2808.35
1020.4044	2935.5645	3667.85	2779.15
1020.5189	2936.6641	3636.35	2750.1
1020.6334	2937.763	3578	2695.25
1020.7478	2938.8613	3528.6	2645.45
1020.8622	2939.959	3481.2	2594.85
1020.9765	2941.056	3387.45	2505.85
1021.0908	2942.1523	3308.55	2425.6
1021.2051	2943.248	3225.35	2343.7
1021.3193	2944.3431	3141.55	2261.15
1021.4334	2945.4375	3035.85	2154.85
1021.5476	2946.5313	2930.15	2049.45
1021.6617	2947.6244	2812.25	1931.35
1021.7757	2948.7169	2713.75	1829.3
1021.8897	2949.8087	2608.55	1727.5
1022.0037	2950.8999	2522.65	1640.2
1022.1176	2951.9904	2429.4	1549.8
1022.2315	2953.0803	2354.05	1472.85
1022.3453	2954.1696	2290.45	1410
1022.4591	2955.2582	2231.7	1353.1
1022.5728	2956.3462	2176.1	1294.95
1022.6865	2957.4335	2137.85	1254.45
1022.8002	2958.5202	2105	1222.6
1022.9138	2959.6062	2077.7	1196.85
1023.0274	2960.6916	2055.5	1176.7
1023.141	2961.7764	2031.6	1150.2
1023.2545	2962.8605	2014.5	1133.45
1023.3679	2963.9439	2008.05	1129.45
1023.4813	2965.0267	1982.9	1099.1
1023.5947	2966.1089	2005.25	1101.35
1023.708	2967.1905	1975.65	1093.5
1023.8213	2968.2714	1969.25	1088.3
1023.9346	2969.3516	1974.05	1091.7
1024.0478	2970.4312	1978.35	1088.6
1024.1609	2971.5102	1983.35	1104.6
1024.274	2972.5885	1984.9	1104.9
1024.3871	2973.6662	1977.95	1090.4
1024.5002	2974.7432	1968.9	1088.15
1024.6132	2975.8196	1966.2	1085.85
1024.7261	2976.8954	1956.3	1076.45
1024.839	2977.9705	1939	1057.45
1024.9519	2979.045	1932.65	1052.15
1025.0647	2980.1188	1908.15	1029.55
1025.1775	2981.192	1895.5	1015
1025.2902	2982.2645	1878.7	997.55
1025.4029	2983.3364	1858.7	978.55
1025.5156	2984.4077	1822.45	941.2
1025.6282	2985.4783	1797.1	909.7
1025.7407	2986.5483	1752.55	872.05
1025.8532	2987.6177	1719.45	838.9
1025.9657	2988.6864	1686.85	806.75
1026.0782	2989.7545	1652	771.6
1026.1906	2990.8219	1610	730.9
1026.3029	2991.8887	1586.25	702.65
1026.4152	2992.9548	1558	677.8
1026.5275	2994.0204	1516	635.6
1026.6397	2995.0852	1494.4	614.35
1026.7519	2996.1495	1470.95	589.05
1026.864	2997.2131	1453.85	572.7
1026.9761	2998.276	1425.4	543.9
1027.0882	2999.3383	1405.65	524.9
1027.2002	3000.4	1386.4	504.9
1027.3122	3001.4611	1376.85	495.9
1027.4241	3002.5215	1361.6	480.25
1027.536	3003.5812	1343.35	462.9
1027.6478	3004.6404	1332.35	449.95
1027.7596	3005.6989	1323.25	441
1027.8714	3006.7567	1320.8	441.65
1027.9831	3007.8139	1325.35	428.3
1028.0947	3008.8705	1295.25	414.55
1028.2064	3009.9264	1304.25	421.65
1028.3179	3010.9818	1294.45	416
1028.4295	3012.0364	1294.15	411.8
1028.541	3013.0905	1283.25	402.4
1028.6524	3014.1439	1290.85	410.8
1028.7638	3015.1966	1286.6	406.35
1028.8752	3016.2487	1280.25	398.4
1028.9865	3017.3002	1283.7	398.9
1029.0978	3018.3511	1284.3	404.25
1029.209	3019.4013	1282.6	400.3
1029.3202	3020.4509	1286.65	405.9
1029.4314	3021.4998	1292.15	411.55
1029.5425	3022.5481	1290.85	409.1
1029.6535	3023.5958	1296.45	415.5
1029.7645	3024.6428	1291.95	410.75
1029.8755	3025.6892	1293.25	413.35
1029.9864	3026.735	1294.45	412.7
1030.0973	3027.7802	1291.8	410.5
1030.2082	3028.8247	1294.4	412
1030.319	3029.8685	1305.7	423.85
1030.4297	3030.9118	1308.25	427.95
1030.5404	3031.9544	1316.95	437
1030.6511	3032.9963	1313.15	431.65
1030.7617	3034.0376	1319.85	440.5
1030.8723	3035.0783	1331.05	447.1
1030.9829	3036.1184	1335.65	454.7
1031.0934	3037.1578	1340.2	460.05
1031.2038	3038.1966	1341.05	459
1031.3142	3039.2348	1339.4	459.15
1031.4246	3040.2723	1350.9	461.2
1031.5349	3041.3092	1348.55	470.95
1031.6452	3042.3455	1335.25	454.55
1031.7554	3043.3811	1338	457.05
1031.8656	3044.4161	1330.85	448.6
1031.9758	3045.4505	1320.15	440.35
1032.0859	3046.4842	1326.2	443.9
1032.1959	3047.5173	1319.35	439.4
1032.3059	3048.5498	1310	428.35
1032.4159	3049.5816	1304.45	421.95
1032.5258	3050.6128	1296	413.65
1032.6357	3051.6434	1292.65	412.1
1032.7455	3052.6734	1282.5	401.15
1032.8553	3053.7027	1276.2	393.6
1032.9651	3054.7314	1268.5	386.9
1033.0748	3055.7594	1268.35	387.3
1033.1845	3056.7868	1259.25	379
1033.2941	3057.8136	1251.35	369.2
1033.4037	3058.8398	1243.55	363.15
1033.5132	3059.8653	1240.65	359
1033.6227	3060.8902	1237.9	356.9
1033.7321	3061.9145	1233.3	352.8
1033.8415	3062.9381	1224.65	341.95
1033.9509	3063.9612	1239.3	344.2
1034.0602	3064.9835	1224.3	344.45
1034.1694	3066.0053	1214.95	330.65
1034.2787	3067.0264	1202.45	320.9
1034.3878	3068.0469	1194.05	311.25
1034.497	3069.0668	1188.6	304.05
1034.6061	3070.086	1177.45	297.8
1034.7151	3071.1046	1173.9	290.25
1034.8241	3072.1226	1163.3	282.4
1034.9331	3073.1399	1152.35	272.15
1035.042	3074.1567	1145.1	263.25
1035.1508	3075.1727	1133.7	252.9
1035.2597	3076.1882	1123.75	244.75
1035.3684	3077.203	1123.8	241.7
1035.4772	3078.2173	1114.25	230.35
1035.5859	3079.2308	1103.65	219.7
1035.6945	3080.2438	1089.05	206.35
1035.8031	3081.2561	1082.65	200.95
1035.9117	3082.2678	1077.5	195.8
1036.0202	3083.2789	1072.5	191.2
1036.1286	3084.2893	1066.2	184.7
1036.2371	3085.2991	1058.25	178.3
1036.3454	3086.3083	1061.8	177.35
1036.4538	3087.3169	1048.95	165.15
1036.562	3088.3248	1042.3	160.4
1036.6703	3089.3321	1039.25	156
1036.7785	3090.3388	1033.45	154.3
1036.8866	3091.3449	1029.55	148.1
1036.9948	3092.3503	1031.8	149.25
1037.1028	3093.3551	1022.85	143.5
1037.2108	3094.3593	1019.85	140.55
1037.3188	3095.3629	1016.35	136.8
1037.4267	3096.3658	1016.85	135.9
1037.5346	3097.3681	1012.7	131.4
1037.6425	3098.3698	1012.7	130.65
1037.7503	3099.3708	1008.2	127.75
1037.858	3100.3713	1002.85	122.9
1037.9657	3101.3711	1005.85	123.25
1038.0734	3102.3702	1144.3	122.2
1038.181	3103.3688	1001.65	121.2
1038.2886	3104.3667	999.55	120.35
1038.3961	3105.364	995	115.85
1038.5036	3106.3607	994.35	110.35
1038.611	3107.3568	997.7	116.9
1038.7184	3108.3522	991.8	111.15
1038.8257	3109.347	993.8	111.55
1038.933	3110.3412	993.85	110.7
1039.0403	3111.3348	992.05	112.85
1039.1475	3112.3277	983.45	102.9
1039.2547	3113.32	986.55	106.65
1039.3618	3114.3117	987.15	106.4
1039.4689	3115.3028	982.4	102.75
1039.5759	3116.2932	985.25	104.95
1039.6829	3117.2831	987.25	100.45
1039.7898	3118.2723	983.5	105.65
1039.8967	3119.2608	980.2	99.15
1040.0035	3120.2488	979.15	100.4
1040.1103	3121.2361	978.1	97.8
1040.2171	3122.2229	974.9	94.8
1040.3238	3123.209	980.25	100.7
1040.4305	3124.1944	975.9	96.1
1040.5371	3125.1793	976.55	96.2
1040.6437	3126.1635	975.15	97.2
1040.7502	3127.1471	972.2	91.8
1040.8567	3128.1301	971.15	90.1
1040.9631	3129.1125	972.05	90.8
1041.0695	3130.0942	970.75	88.5
1041.1759	3131.0753	977.6	89.8
1041.2822	3132.0558	971.15	87.75
1041.3884	3133.0357	969.45	87.7
1041.4946	3134.015	968.65	87.15
1041.6008	3134.9936	966	84.75
1041.7069	3135.9716	987.75	87.1
1041.813	3136.949	962.3	79.65
1041.919	3137.9258	982.6	82.35
1042.025	3138.902	970.2	84.2
1042.1309	3139.8775	959.95	80.45
1042.2368	3140.8524	959.2	76.2
1042.3427	3141.8267	961.45	80.9
1042.4485	3142.8004	959.05	79.35
1042.5542	3143.7735	963.35	76.95
1042.6599	3144.7459	958.75	76.05
1042.7656	3145.7178	956.05	76.45
1042.8712	3146.689	958.95	79.3
1042.9768	3147.6596	958.75	76.25
1043.0823	3148.6295	958.95	79.15
1043.1878	3149.5989	953.75	71.75
1043.2932	3150.5676	951.05	71.9
1043.3986	3151.5357	951.65	72.3
1043.5039	3152.5032	951.75	71.8
1043.6092	3153.4701	951.35	72.6
1043.7145	3154.4364	951.8	71.8
1043.8197	3155.402	946.15	68.05
1043.9248	3156.367	948.75	65.05
1044.03	3157.3315	989.7	64.5
1044.135	3158.2952	946.05	66.75
1044.24	3159.2584	945.55	63.95
1044.345	3160.221	945.55	64
1044.4499	3161.1829	944.2	64.15
1044.5548	3162.1442	945.7	66.15
1044.6596	3163.105	941.55	62.65
1044.7644	3164.065	944.55	62.65
1044.8692	3165.0245	945.35	62.85
1044.9739	3165.9834	940.7	60.5
1045.0785	3166.9416	940.55	60.55
1045.1831	3167.8993	940.5	59.8
1045.2877	3168.8563	939.1	56.65
1045.3922	3169.8127	939.9	61.65
1045.4966	3170.7684	938.3	59.5
1045.6011	3171.7236	939.45	59.35
1045.7054	3172.6782	941.05	60.35
1045.8098	3173.6321	940.15	56.65
1045.914	3174.5854	943.2	58.9
1046.0183	3175.5381	941.3	61.85
1046.1224	3176.4902	935.35	53.2
1046.2266	3177.4417	934.8	55.8
1046.3307	3178.3926	934.75	54.55
1046.4347	3179.3428	936.35	58.4
1046.5387	3180.2924	935.6	56.55
1046.6427	3181.2415	936.25	53.55
1046.7466	3182.1899	937.7	58.55
1046.8504	3183.1377	935.25	56.1
1046.9542	3184.0848	939.05	54.95
1047.058	3185.0314	933.7	53.75
1047.1617	3185.9773	934.9	54.85
1047.2654	3186.9227	934	52.65
1047.369	3187.8674	933.35	53.8
1047.4726	3188.8115	938.65	54.05
1047.5761	3189.755	932.6	52.7
1047.6796	3190.6979	932.25	52.1
1047.783	3191.6402	932.65	54.7
1047.8864	3192.5818	933	53.8
1047.9898	3193.5229	951.2	49.35
1048.0931	3194.4633	931.75	51.5
1048.1963	3195.4031	931.9	48.65
1048.2995	3196.3423	931.15	51.65
1048.4027	3197.2809	930.6	50.2
1048.5058	3198.2189	930.45	50
1048.6089	3199.1563	945.15	46.4
1048.7119	3200.0931	927.1	47
1048.8148	3201.0292	930.3	50.2
1048.9178	3201.9648	928.4	47.4
1049.0206	3202.8997	931.9	48.6
1049.1235	3203.834	930.8	48.4
1049.2262	3204.7677	925.45	45.5
1049.329	3205.7008	928.1	45.5
1049.4317	3206.6333	926.05	46.55
1049.5343	3207.5652	926.55	45.1
1049.6369	3208.4964	925.65	44.8
1049.7394	3209.4271	927.75	48.5
1049.8419	3210.3571	925.4	45.65
1049.9444	3211.2865	926.35	45.5
1050.0468	3212.2154	925.85	43.05
1050.1491	3213.1436	926.05	42.8
1050.2514	3214.0712	929.6	43.45
1050.3537	3214.9982	926.3	46.45
1050.4559	3215.9246	924.6	45.05
1050.5581	3216.8503	922.55	42.15
1050.6602	3217.7755	920	37.65
1050.7623	3218.7001	925.65	47.25
1050.8643	3219.624	925.2	44.75
1050.9663	3220.5473	923.25	41.55
1051.0682	3221.4701	924.6	41.05
1051.1701	3222.3922	926.8	46.8
1051.2719	3223.3137	922.95	42.2
1051.3737	3224.2346	920.45	39.85
1051.4754	3225.1549	922.4	44
1051.5771	3226.0746	921.4	41.1
1051.6788	3226.9937	921.7	43.95
1051.7804	3227.9121	921.35	42.35
1051.8819	3228.83	917.95	38.35
1051.9834	3229.7473	924.45	45.7
1052.0849	3230.6639	922.4	42.4
1052.1863	3231.5799	922.4	42.1
1052.2876	3232.4954	920.7	39.6
1052.3889	3233.4102	920.5	40.1
1052.4902	3234.3244	921.55	41.8
1052.5914	3235.238	920	42.55
1052.6926	3236.151	946.35	44.05
1052.7937	3237.0634	918.15	40.25
1052.8948	3237.9752	919.85	38.5
1052.9958	3238.8864	920.45	39.85
1053.0968	3239.797	914.95	33.7
1053.1977	3240.7069	919.8	38.95
1053.2986	3241.6163	919.65	36.45
1053.3994	3242.5251	918.7	39.2
1053.5002	3243.4332	918.45	38.65
1053.6009	3244.3408	917.3	38
1053.7016	3245.2477	916.25	36.45
1053.8022	3246.154	916.05	37.35
1053.9028	3247.0598	916.45	34.25
1054.0034	3247.9649	914.5	36.9
1054.1039	3248.8694	917.45	36.65
1054.2043	3249.7733	915.2	34.55
1054.3047	3250.6766	915.75	34.65
1054.4051	3251.5793	915.25	36
1054.5054	3252.4814	911.5	32.9
1054.6056	3253.3829	912	32.8
1054.7058	3254.2838	914.65	35.55
1054.806	3255.1841	914.6	36.75
1054.9061	3256.0838	911.65	31.35
1055.0061	3256.9829	911.05	32.05
1055.1062	3257.8814	912.85	29.85
1055.2061	3258.7792	911.35	29.7
1055.306	3259.6765	913.3	33.75
1055.4059	3260.5731	912.65	30.9
1055.5057	3261.4692	910.4	32
1055.6055	3262.3647	910.8	28.95
1055.7052	3263.2595	908.55	30
1055.8049	3264.1538	907.55	27.7
1055.9045	3265.0474	908.45	27.85
1056.0041	3265.9404	909.05	29.5
1056.1036	3266.8329	904.2	24.4
1056.2031	3267.7247	918.9	27.65
1056.3025	3268.616	904.55	26.8
1056.4019	3269.5066	904.4	23.75
1056.5013	3270.3966	907.15	26.25
1056.6005	3271.286	904.55	24.75
