Software Version:	3.9.2.0
Unit SN:	10000200
Spectrometer SN:	6960
Date:	3/14/2024 12:35:19 PM
Data Line Index:	25
Spectral Points:	2048
Integration time (ms):	125
Averages:	20
Delay (ms):	30000
Sequence Number:	1
Processing:	dark subtract
Laser Power (mW):	300
Laser Current (mA):	822
Laser Diode Temp (C):	25.1
Laser Case Temp (C):	26.6
System Temp (C):	26.6
Spectrometer Temp (C):	24.1
CCD Temp (C):	0.004
Secondary Temp (C):	20.01
Heatsink Temp (C):	22.876
CCDPCB Temp (C):	36.551
SecondaryPCB Temp (C):	33.939

Wavelength	RamanShift	Raw Counts	Dark Subtracted
787.061	30.1047	416.6	3.55
787.2016	32.3739	416.75	6.4
787.3422	34.6426	418	7.95
787.4828	36.9109	421.8	7.25
787.6235	39.1787	426.5	9.05
787.7642	41.4461	431.35	9.25
787.9049	43.7131	434.55	8.95
788.0456	45.9796	438.7	10.4
788.1863	48.2456	442.3	9.75
788.3271	50.5112	448.95	11.95
788.4679	52.7764	451.05	13.95
788.6087	55.0411	452.7	10.5
788.7496	57.3054	457.8	11.85
788.8904	59.5692	462.1	13.6
789.0313	61.8326	465.9	15.35
789.1722	64.0955	473.8	16.2
789.3132	66.3579	479.75	16.8
789.4541	68.6199	484.2	19.45
789.5951	70.8815	493.05	25.4
789.7361	73.1426	509.1	38.75
789.8771	75.4032	538.05	62
790.0181	77.6634	601.2	117.35
790.1592	79.9231	747.05	263.8
790.3003	82.1824	1052.35	563.2
790.4414	84.4412	1565.7	1072.65
790.5825	86.6995	2237.4	1736.2
790.7237	88.9574	2906.6	2398.15
790.8648	91.2148	3356.7	2842.6
791.006	93.4717	3585.7	3070.35
791.1472	95.7282	3655.9	3136.4
791.2885	97.9842	3663.1	3142.05
791.4297	100.2398	3650.75	3126.45
791.571	102.4949	3619.8	3093.85
791.7123	104.7495	3606.5	3076.45
791.8536	107.0036	3578	3044.45
791.9949	109.2573	3518.05	2989.75
792.1363	111.5105	3454.05	2919.25
792.2777	113.7632	3406	2870.6
792.4191	116.0154	3357.2	2809.75
792.5605	118.2672	3295.4	2756
792.7019	120.5185	3216.5	2676.95
792.8434	122.7693	3153.85	2611.75
792.9849	125.0197	3085.5	2540.15
793.1264	127.2696	3040.05	2494.75
793.2679	129.519	3011.45	2461.05
793.4094	131.7679	2966.25	2411
793.551	134.0163	2964.6	2405.8
793.6926	136.2642	2967.8	2405.6
793.8342	138.5117	2966.65	2399.75
793.9758	140.7587	2945.6	2379.85
794.1175	143.0052	2925.25	2356.85
794.2591	145.2512	2884.95	2317.45
794.4008	147.4967	2851.05	2282.25
794.5425	149.7417	2819.4	2247
794.6842	151.9863	2782.8	2207.85
794.826	154.2304	2775.75	2196
794.9677	156.4739	2764.8	2177.1
795.1095	158.717	2776.15	2190.95
795.2513	160.9596	2785.15	2194.9
795.3931	163.2017	2798.7	2205.35
795.535	165.4433	2829.55	2233.95
795.6768	167.6844	2825.15	2227.8
795.8187	169.925	2805.6	2205.2
795.9606	172.1651	2777.15	2175.25
796.1025	174.4047	2732.9	2124.25
796.2445	176.6439	2709	2101.4
796.3864	178.8825	2688.85	2077.75
796.5284	181.1206	2669.4	2055.35
796.6704	183.3582	2659.95	2042.6
796.8124	185.5954	2660.95	2040.6
796.9544	187.832	2651.85	2028.85
797.0965	190.0681	2644.65	2016.95
797.2386	192.3037	2657.5	2029.95
797.3806	194.5388	2643.8	2012.3
797.5228	196.7734	2665.5	2030.35
797.6649	199.0075	2669.65	2031.15
797.807	201.2411	2684.55	2044.75
797.9492	203.4742	2698.25	2057.8
798.0914	205.7068	2719.35	2079.75
798.2336	207.9389	2726.9	2083.5
798.3758	210.1704	2745.35	2099.75
798.518	212.4015	2741.9	2091.05
798.6603	214.632	2736.4	2086.55
798.8025	216.862	2736.55	2097.8
798.9448	219.0915	2724.6	2090.75
799.0871	221.3205	2746.05	2115.85
799.2294	223.549	2727.25	2101.35
799.3718	225.777	2732	2104.1
799.5141	228.0044	2738.85	2107.15
799.6565	230.2314	2732	2101.8
799.7989	232.4578	2712.35	2081.55
799.9413	234.6837	2702.7	2063.6
800.0837	236.909	2701.5	2061.05
800.2262	239.1339	2709	2046.3
800.3687	241.3582	2687.6	2036.05
800.5111	243.582	2702.75	2026.95
800.6536	245.8053	2697	2029
800.7961	248.0281	2708.35	2042.6
800.9387	250.2503	2705.5	2035.85
801.0812	252.472	2711.6	2034.8
801.2238	254.6932	2704.45	2028.05
801.3664	256.9139	2704.85	2026.1
801.509	259.134	2716.6	2036
801.6516	261.3536	2721.2	2044.8
801.7942	263.5727	2747.35	2064.9
801.9369	265.7912	2775.9	2094.65
802.0795	268.0092	2814.85	2133.8
802.2222	270.2267	2849.55	2166.7
802.3649	272.4436	2882.35	2196
802.5076	274.6601	2911.55	2216.45
802.6504	276.8759	2912.45	2226.45
802.7931	279.0913	2935.75	2247.75
802.9359	281.3061	2943.3	2251.2
803.0787	283.5204	2944.55	2250.15
803.2215	285.7341	2967.35	2272.8
803.3643	287.9473	2996.15	2297
803.5071	290.16	2984.15	2279.35
803.6499	292.3721	2950.45	2252.4
803.7928	294.5837	2918.4	2218.5
803.9357	296.7947	2901.65	2201.75
804.0786	299.0052	2879.55	2177.85
804.2215	301.2152	2857.5	2152.3
804.3644	303.4246	2850.65	2150.85
804.5074	305.6334	2843.6	2142.95
804.6503	307.8418	2834.15	2131.15
804.7933	310.0495	2806.9	2102.6
804.9363	312.2568	2788.35	2084.4
805.0793	314.4635	2754.65	2046.1
805.2223	316.6696	2709.35	1999.85
805.3653	318.8752	2691.2	1975.8
805.5084	321.0802	2653.55	1942.75
805.6514	323.2847	2650.45	1938.5
805.7945	325.4887	2653.95	1942.2
805.9376	327.692	2654.8	1942.05
806.0807	329.8949	2690.1	1973.95
806.2238	332.0972	2718.8	2005.05
806.367	334.2989	2753.2	2033.3
806.5101	336.5001	2751.2	2032.05
806.6533	338.7007	2737.55	2016.4
806.7965	340.9008	2706.55	1985.4
806.9397	343.1003	2662.6	1938.25
807.0829	345.2992	2618.95	1893.15
807.2261	347.4976	2580.65	1851.6
807.3693	349.6955	2556.15	1825.75
807.5126	351.8927	2544.95	1813.1
807.6559	354.0895	2537.55	1794
807.7991	356.2856	2519.15	1785.65
807.9424	358.4812	2513.25	1780.75
808.0857	360.6763	2513.75	1778.25
808.2291	362.8707	2489.6	1753.3
808.3724	365.0646	2492.9	1753.85
808.5158	367.258	2489.45	1747.8
808.6591	369.4508	2508.15	1763.3
808.8025	371.643	2523.6	1781.9
808.9459	373.8346	2540.6	1792.55
809.0893	376.0257	2568	1817.15
809.2327	378.2162	2601.1	1850.45
809.3762	380.4062	2608.05	1856.05
809.5196	382.5956	2587.65	1833.65
809.6631	384.7844	2562.8	1811.95
809.8066	386.9726	2513.3	1758.25
809.9501	389.1603	2493.35	1743.4
810.0936	391.3474	2485.05	1708.15
810.2371	393.5339	2472.3	1720.45
810.3806	395.7199	2466.35	1719.25
810.5241	397.9052	2478.45	1733.05
810.6677	400.09	2506.45	1759.15
810.8113	402.2743	2528.3	1781.4
810.9548	404.4579	2559.75	1812.75
811.0984	406.641	2583.3	1834.1
811.2421	408.8235	2615.2	1866.75
811.3857	411.0054	2658.6	1908.5
811.5293	413.1868	2720.4	1966.55
811.673	415.3675	2792.45	2036.55
811.8166	417.5477	2820.35	2062.55
811.9603	419.7273	2760.85	1999.1
812.104	421.9064	2665.7	1896.2
812.2477	424.0848	2604.85	1840
812.3914	426.2627	2560.9	1793.35
812.5351	428.4399	2504.5	1738.05
812.6788	430.6166	2465.1	1694.45
812.8226	432.7928	2440.25	1668.95
812.9663	434.9683	2396.25	1623.95
813.1101	437.1432	2378.45	1602.55
813.2539	439.3176	2359.75	1584.55
813.3977	441.4914	2351.55	1577.85
813.5415	443.6645	2341.25	1563.8
813.6853	445.8371	2339.15	1561.4
813.8291	448.0091	2337.3	1560.25
813.973	450.1806	2333.75	1556.05
814.1168	452.3514	2332.15	1552.45
814.2607	454.5216	2329.85	1541.95
814.4046	456.6913	2324	1542.95
814.5485	458.8603	2318.75	1538.45
814.6924	461.0288	2319.6	1537.9
814.8363	463.1967	2322.75	1538.95
814.9802	465.3639	2323.2	1539.4
815.1241	467.5306	2312.85	1529.35
815.2681	469.6967	2308.75	1523.8
815.412	471.8622	2301.3	1517.35
815.556	474.0271	2292.4	1509.15
815.7	476.1914	2287.4	1500.25
815.844	478.3551	2284.8	1498.2
815.988	480.5182	2289.1	1500.35
816.132	482.6807	2289.05	1500.25
816.276	484.8426	2303.5	1517.05
816.4201	487.0039	2320.5	1532.55
816.5641	489.1647	2369.75	1580.85
816.7082	491.3248	2402.3	1614
816.8522	493.4843	2408.6	1622
816.9963	495.6432	2403.3	1613.55
817.1404	497.8015	2379.75	1586.15
817.2845	499.9592	2350.55	1559.25
817.4286	502.1163	2296.9	1505.1
817.5727	504.2728	2271.8	1476.2
817.7168	506.4287	2262.05	1469.35
817.861	508.5839	2243.4	1450.3
818.0051	510.7386	2241.2	1445.15
818.1493	512.8927	2233.85	1435.05
818.2935	515.0461	2252.1	1456.8
818.4377	517.199	2243.7	1448.9
818.5818	519.3512	2282.95	1486.65
818.726	521.5029	2337.35	1536
818.8703	523.6539	2372.65	1570.55
819.0145	525.8043	2387.7	1588.8
819.1587	527.9541	2346.75	1544.8
819.303	530.1033	2293.85	1492.2
819.4472	532.2519	2260.4	1457.75
819.5915	534.3999	2230.75	1427.15
819.7357	536.5472	2228.1	1424.15
819.88	538.694	2237.45	1436.65
820.0243	540.8401	2243.55	1439.2
820.1686	542.9856	2258.4	1454.05
820.3129	545.1305	2269.4	1465.1
820.4572	547.2748	2272	1466.25
820.6016	549.4185	2269.95	1462.9
820.7459	551.5615	2275.3	1467.65
820.8902	553.704	2286.4	1478.95
821.0346	555.8458	2286.25	1478.45
821.1789	557.987	2312.25	1504.25
821.3233	560.1276	2340.2	1528.05
821.4677	562.2675	2365.55	1558.35
821.6121	564.4069	2431.15	1620.8
821.7565	566.5456	2454.05	1642.65
821.9009	568.6837	2441.4	1631.1
822.0453	570.8212	2380.9	1571.7
822.1897	572.958	2313.75	1501.5
822.3342	575.0942	2288.6	1477.5
822.4786	577.2299	2264.85	1453.5
822.6231	579.3648	2236.8	1423.3
822.7675	581.4992	2217.75	1404.3
822.912	583.6329	2216.35	1403.75
823.0565	585.766	2231.05	1419.05
823.201	587.8985	2262.25	1450.8
823.3454	590.0304	2301.8	1476.25
823.4899	592.1616	2321.3	1507.75
823.6345	594.2922	2329.75	1516.75
823.779	596.4222	2300.25	1484.05
823.9235	598.5515	2264.75	1448.9
824.068	600.6802	2227.35	1411.1
824.2126	602.8083	2177.15	1357.9
824.3571	604.9358	2175.75	1356
824.5017	607.0626	2167.5	1349.45
824.6462	609.1888	2162.35	1342.7
824.7908	611.3144	2184.6	1365
824.9354	613.4393	2201.3	1384
825.08	615.5636	2246.75	1428.5
825.2246	617.6873	2273.55	1453.7
825.3692	619.8103	2307.8	1486.15
825.5138	621.9327	2322.8	1498.65
825.6584	624.0544	2292.25	1473.5
825.803	626.1756	2244.8	1422.7
825.9477	628.2961	2200.85	1377.15
826.0923	630.4159	2178.35	1352.95
826.237	632.5351	2173.4	1348.9
826.3816	634.6537	2166.9	1343.5
826.5263	636.7716	2167.85	1341.9
826.6709	638.8889	2156.45	1329.9
826.8156	641.0056	2167.5	1342.7
826.9603	643.1216	2180.25	1352.65
827.105	645.237	2182.1	1352.5
827.2497	647.3518	2160.55	1333.25
827.3944	649.4659	2146.5	1320.15
827.5391	651.5793	2129.9	1301.9
827.6838	653.6922	2105.45	1277.15
827.8285	655.8043	2100.45	1272.5
827.9733	657.9159	2089.5	1258.9
828.118	660.0268	2102.45	1269.9
828.2627	662.137	2078.7	1248.9
828.4075	664.2466	2086.1	1253.3
828.5522	666.3556	2082.65	1251.55
828.697	668.4639	2080.8	1246.95
828.8418	670.5716	2081.95	1250
828.9865	672.6786	2075	1241.75
829.1313	674.785	2065.4	1231.9
829.2761	676.8907	2059.95	1227.75
829.4209	678.9958	2063.6	1231
829.5657	681.1002	2062.35	1230.2
829.7105	683.204	2071.05	1235.05
829.8553	685.3072	2052.85	1218.3
830.0001	687.4097	2058.95	1225.4
830.1449	689.5115	2057.75	1221.2
830.2898	691.6127	2058.2	1221.2
830.4346	693.7132	2054.45	1217.65
830.5794	695.8131	2058.45	1214.5
830.7243	697.9123	2052.3	1213.85
830.8691	700.0109	2052.35	1215
831.014	702.1089	2067.6	1230.35
831.1588	704.2061	2065	1225.8
831.3037	706.3028	2085.05	1243.35
831.4486	708.3987	2103.85	1266.15
831.5935	710.4941	2107.3	1271.45
831.7383	712.5887	2115.15	1274.1
831.8832	714.6827	2122.85	1280
832.0281	716.7761	2109.65	1269.85
832.173	718.8688	2102.55	1262.7
832.3179	720.9608	2102.5	1258.35
832.4628	723.0522	2109.3	1265.45
832.6077	725.1429	2121.45	1279.7
832.7527	727.233	2144.95	1304.05
832.8976	729.3224	2187.15	1344.05
833.0425	731.4112	2224.85	1380.65
833.1874	733.4993	2251.15	1404.8
833.3324	735.5867	2218.45	1376.05
833.4773	737.6735	2165.25	1319.1
833.6222	739.7596	2127.85	1285.35
833.7672	741.845	2100.75	1256.05
833.9122	743.9298	2101.65	1255.25
834.0571	746.014	2111.35	1267.1
834.2021	748.0974	2132.1	1287.05
834.347	750.1802	2120.05	1273.75
834.492	752.2624	2116.9	1273.2
834.637	754.3439	2107.65	1261.3
834.782	756.4247	2099.05	1243.3
834.9269	758.5048	2080.5	1235.95
835.0719	760.5843	2088.4	1241.65
835.2169	762.6631	2115.15	1269
835.3619	764.7413	2137.55	1291.9
835.5069	766.8188	2204.8	1356.25
835.6519	768.8956	2259.75	1410.4
835.7969	770.9718	2296.1	1448.05
835.9419	773.0473	2292.75	1446.5
836.0869	775.1221	2261	1412.6
836.232	777.1962	2240.9	1390.5
836.377	779.2697	2295.75	1447.45
836.522	781.3426	2381.9	1522.4
836.667	783.4147	2431.8	1579.9
836.8121	785.4862	2411.7	1562
836.9571	787.557	2355.85	1504.95
837.1021	789.6271	2264.15	1414.35
837.2472	791.6966	2165.75	1315.4
837.3922	793.7654	2086.2	1235.2
837.5373	795.8335	2046.8	1196.8
837.6823	797.901	2017.8	1167.6
837.8274	799.9678	2015.45	1163.55
837.9724	802.0339	2012.4	1163.1
838.1175	804.0993	2025.3	1164.15
838.2626	806.1641	2010.2	1156.2
838.4076	808.2282	1999.6	1145.05
838.5527	810.2916	1981.85	1129
838.6978	812.3544	1970.85	1119.7
838.8428	814.4164	1955.3	1104.8
838.9879	816.4778	1971	1118.15
839.133	818.5385	1975.5	1122
839.2781	820.5986	1998.35	1147.65
839.4232	822.658	2026.45	1171.5
839.5682	824.7166	2084.45	1231.6
839.7133	826.7747	2141.7	1287.55
839.8584	828.832	2193.8	1339.75
840.0035	830.8886	2228.4	1374.4
840.1486	832.9446	2268.65	1413.35
840.2937	834.9999	2241.7	1389.65
840.4388	837.0545	2194.65	1336.7
840.5839	839.1085	2126.45	1269.85
840.729	841.1618	2065.55	1206.4
840.8741	843.2143	2030.05	1176.1
841.0192	845.2662	1997.7	1142.25
841.1643	847.3175	1988.5	1135.9
841.3095	849.368	1976.55	1120.65
841.4546	851.4179	1973.45	1117.4
841.5997	853.467	1967	1110.65
841.7448	855.5155	1981.95	1126.2
841.8899	857.5633	1980.2	1122.25
842.0351	859.6105	1978.15	1120.35
842.1802	861.6569	1967.85	1111.95
842.3253	863.7027	1948.8	1091.75
842.4704	865.7478	1941.15	1083.35
842.6156	867.7922	1931.1	1073.3
842.7607	869.8359	1915.65	1057.2
842.9058	871.8789	1915.05	1057.1
843.0509	873.9212	1952.7	1060.7
843.1961	875.9629	1921.65	1063.35
843.3412	878.0039	1930	1072.25
843.4863	880.0441	1932.9	1072.9
843.6315	882.0837	1949.95	1090.5
843.7766	884.1226	1975.9	1115.55
843.9218	886.1609	1992.6	1133.75
844.0669	888.1984	2027.1	1170.65
844.212	890.2352	2060.05	1199.65
844.3572	892.2714	2072.05	1207.95
844.5023	894.3069	2056.8	1194.8
844.6475	896.3416	2011.6	1150.7
844.7926	898.3757	1970.8	1110.9
844.9377	900.4091	1969	1109.1
845.0829	902.4418	1963.55	1097.85
845.228	904.4739	1970.8	1110.2
845.3732	906.5052	2000.5	1138.9
845.5183	908.5358	1992.85	1131.1
845.6635	910.5658	1980.85	1116
845.8086	912.595	1950.1	1089.15
845.9538	914.6236	1919.95	1059.6
846.0989	916.6515	1887.6	1026.2
846.2441	918.6786	1879	1015.65
846.3892	920.7051	1874.45	1009.1
846.5344	922.7309	1877.95	1016.45
846.6795	924.756	1873.4	1007.85
846.8246	926.7804	1874.25	1007.85
846.9698	928.8041	1882.75	1017.4
847.1149	930.8272	1897.7	1034.25
847.2601	932.8495	1897.85	1032.7
847.4052	934.8711	1893.05	1028.65
847.5504	936.892	1895.75	1031.8
847.6955	938.9123	1915.4	1049.65
847.8407	940.9318	1938.35	1074.85
847.9858	942.9506	1952.85	1086.6
848.131	944.9688	1944	1080.45
848.2761	946.9862	1927.45	1064.1
848.4213	949.003	1899.4	1034.45
848.5664	951.019	1880.5	1014.6
848.7115	953.0344	1865.6	998.65
848.8567	955.0491	1858.8	993.4
849.0018	957.063	1842	975.7
849.147	959.0763	1855.5	992.2
849.2921	961.0888	1831.8	964.7
849.4373	963.1007	1842.95	976.25
849.5824	965.1119	1831.15	965.9
849.7275	967.1223	1828.7	962
849.8727	969.1321	1821.6	957.45
850.0178	971.1412	1820.75	954.75
850.1629	973.1495	1813.05	947.95
850.3081	975.1572	1849.55	929.35
850.4532	977.1641	1815.8	947.7
850.5983	979.1704	1818.6	952.6
850.7435	981.1759	1805.85	936.2
850.8886	983.1808	1806.6	937.85
851.0337	985.1849	1804	927.4
851.1788	987.1884	1784.55	913.5
851.324	989.1911	1791.3	920.95
851.4691	991.1932	1803	933.85
851.6142	993.1945	1798.45	930.8
851.7593	995.1951	1792.5	924.6
851.9045	997.1951	1790.05	917.1
852.0496	999.1943	1781.4	913.85
852.1947	1001.1928	1789.15	920.25
852.3398	1003.1906	1792.3	922.95
852.4849	1005.1877	1809.4	939.6
852.63	1007.1841	1815.2	945.2
852.7751	1009.1798	1823.75	956.15
852.9202	1011.1748	1821.9	953.4
853.0653	1013.1691	1804.4	934.6
853.2104	1015.1627	1786.3	918.05
853.3555	1017.1556	1750.65	882.2
853.5006	1019.1477	1744.05	874
853.6457	1021.1392	1723.45	854.95
853.7908	1023.1299	1716.45	846.75
853.9359	1025.12	1719.15	847.5
854.081	1027.1093	1730	860.15
854.2261	1029.0979	1737.55	868.1
854.3712	1031.0859	1748	879.95
854.5163	1033.0731	1756.65	886.9
854.6613	1035.0596	1759.95	890.95
854.8064	1037.0454	1758.45	889.35
854.9515	1039.0304	1744.45	874.85
855.0965	1041.0148	1723.9	853.5
855.2416	1042.9985	1706.35	832.3
855.3867	1044.9814	1699.05	828.75
855.5317	1046.9636	1691.6	819.55
855.6768	1048.9452	1690.8	820.5
855.8219	1050.926	1709.7	840.95
855.9669	1052.9061	1710.65	839.95
856.112	1054.8855	1720.8	849.4
856.257	1056.8642	1723.75	851.7
856.4021	1058.8421	1725.7	847.8
856.5471	1060.8194	1712.55	841.45
856.6921	1062.7959	1708.65	838.2
856.8372	1064.7717	1712.5	839.2
856.9822	1066.7469	1700.55	829.35
857.1272	1068.7213	1699.25	823.6
857.2723	1070.695	1717.2	845.4
857.4173	1072.6679	1722.55	849.7
857.5623	1074.6402	1743.25	871.3
857.7073	1076.6117	1756.35	879.5
857.8523	1078.5826	1743.75	870.6
857.9973	1080.5527	1715.3	840.25
858.1423	1082.5221	1687.35	813.15
858.2873	1084.4908	1666.6	791.6
858.4323	1086.4587	1650.5	776.8
858.5773	1088.426	1635.45	763.35
858.7223	1090.3925	1635.85	759.25
858.8673	1092.3584	1640.05	766.55
859.0123	1094.3235	1639.65	765.8
859.1573	1096.2879	1651.35	777.85
859.3022	1098.2515	1671.5	796.2
859.4472	1100.2145	1686.9	813.55
859.5922	1102.1767	1703.55	828
859.7371	1104.1382	1737.2	862.75
859.8821	1106.099	1769.2	893.25
860.027	1108.0591	1801.55	926.4
860.172	1110.0185	1832.55	957.7
860.3169	1111.9771	1856.7	982.4
860.4619	1113.9351	1885.45	1011.75
860.6068	1115.8923	1927.85	1054.5
860.7517	1117.8488	1978.65	1101.7
860.8967	1119.8045	1950.55	1074.95
861.0416	1121.7596	1879.15	1003.55
861.1865	1123.7139	1787.2	912.9
861.3314	1125.6675	1732.9	857.55
861.4763	1127.6204	1734.15	858.4
861.6212	1129.5726	1748.2	871.65
861.7661	1131.524	1752.65	878.5
861.911	1133.4748	1728.5	853.2
862.0559	1135.4248	1677.7	800.7
862.2008	1137.3741	1640.7	765.5
862.3457	1139.3226	1620.25	742.65
862.4905	1141.2705	1627.75	753
862.6354	1143.2176	1627.2	744.6
862.7803	1145.164	1640.2	763.95
862.9251	1147.1097	1638	761.5
863.07	1149.0546	1615.85	739.6
863.2148	1150.9989	1606.75	730.6
863.3597	1152.9424	1580.7	703.2
863.5045	1154.8852	1567.4	693.8
863.6493	1156.8272	1565.9	691.05
863.7942	1158.7686	1570.3	686.65
863.939	1160.7092	1561.95	687.65
864.0838	1162.6491	1568.4	689.9
864.2286	1164.5883	1567.25	692.95
864.3734	1166.5267	1577.5	698.7
864.5182	1168.4644	1597.9	719.55
864.663	1170.4014	1613.8	733.2
864.8078	1172.3377	1641.4	765.85
864.9526	1174.2732	1661.4	785.4
865.0974	1176.2081	1728.15	851.8
865.2421	1178.1421	1810.2	929.5
865.3869	1180.0755	1893.95	1017.5
865.5317	1182.0082	1961.95	1085.25
865.6764	1183.9401	1956.5	1078.45
865.8212	1185.8713	1892.25	1017.5
865.9659	1187.8017	1795.95	916.9
866.1106	1189.7315	1717.45	840.3
866.2554	1191.6605	1686.5	780.5
866.4001	1193.5888	1618.9	740.9
866.5448	1195.5163	1591.3	713.4
866.6895	1197.4432	1583.95	704.15
866.8342	1199.3693	1561.8	685.15
866.9789	1201.2947	1562.1	677.65
867.1236	1203.2193	1536.35	659.15
867.2683	1205.1432	1541.75	661.3
867.413	1207.0664	1539.2	658.95
867.5576	1208.9889	1545.3	664.3
867.7023	1210.9106	1533.95	656.55
867.847	1212.8316	1539.3	661.45
867.9916	1214.7519	1547.1	659.75
868.1363	1216.6715	1542.45	665.35
868.2809	1218.5903	1552.5	675.6
868.4255	1220.5084	1566.35	689.7
868.5701	1222.4257	1573.45	694.85
868.7148	1224.3424	1580.25	702.55
868.8594	1226.2583	1591	706.95
869.004	1228.1735	1609.55	730.95
869.1486	1230.0879	1624.25	744.2
869.2932	1232.0016	1649	771.95
869.4377	1233.9146	1668.9	789
869.5823	1235.8269	1689.45	811.95
869.7269	1237.7384	1687.3	809.55
869.8715	1239.6492	1681.45	803.35
870.016	1241.5592	1684.35	803.7
870.1606	1243.4686	1720.15	843.1
870.3051	1245.3772	1765.7	886.4
870.4496	1247.285	1816.9	939.15
870.5941	1249.1922	1871.95	993.55
870.7387	1251.0986	1916.4	1036.7
870.8832	1253.0042	1975.8	1096.3
871.0277	1254.9092	2021.25	1143.05
871.1722	1256.8134	2092.65	1213.05
871.3167	1258.7169	2140.2	1259.6
871.4611	1260.6196	2192.85	1314.25
871.6056	1262.5216	2225.5	1344.8
871.7501	1264.4229	2231.35	1353.9
871.8945	1266.3234	2212.55	1332.65
872.039	1268.2232	2179.65	1297.05
872.1834	1270.1223	2127.3	1243.8
872.3278	1272.0207	2089.4	1210
872.4723	1273.9183	2092.85	1206.25
872.6167	1275.8151	2078.35	1198.25
872.7611	1277.7113	2095.4	1212.55
872.9055	1279.6067	2155.55	1275.05
873.0499	1281.5014	2255.05	1373.4
873.1943	1283.3953	2387.75	1505.8
873.3386	1285.2885	2521.45	1640.25
873.483	1287.181	2650.9	1769.75
873.6274	1289.0727	2696.4	1816.2
873.7717	1290.9637	2663	1781
873.9161	1292.854	2580.05	1699.05
874.0604	1294.7435	2470.45	1590.7
874.2047	1296.6323	2365.7	1485.15
874.349	1298.5204	2285	1399.35
874.4933	1300.4077	2234.5	1353.7
874.6376	1302.2943	2196.05	1315.75
874.7819	1304.1802	2162.65	1281.55
874.9262	1306.0653	2142.2	1259.45
875.0705	1307.9497	2127.45	1246.35
875.2147	1309.8333	2104.95	1223.6
875.359	1311.7162	2079.65	1199.2
875.5032	1313.5984	2072.25	1188.8
875.6475	1315.4798	2060.25	1168.5
875.7917	1317.3605	2068.85	1171.55
875.9359	1319.2405	2073	1190.25
876.0801	1321.1197	2064.3	1180.65
876.2243	1322.9982	2055.3	1169
876.3685	1324.876	2007.25	1127.7
876.5127	1326.753	1945.95	1062.1
876.6569	1328.6293	1894.65	1013.6
876.801	1330.5048	1819.3	935.45
876.9452	1332.3796	1746.15	866.65
877.0893	1334.2537	1734.6	827.2
877.2335	1336.127	1682.15	800.3
877.3776	1337.9996	1636.1	754.05
877.5217	1339.8714	1634.55	752.8
877.6658	1341.7426	1662.95	737.8
877.8099	1343.6129	1606.1	724
877.954	1345.4826	1584.7	703.7
878.0981	1347.3515	1580.65	695.8
878.2422	1349.2196	1573.9	692.75
878.3862	1351.087	1558	677.6
878.5303	1352.9537	1553.6	670.75
878.6743	1354.8197	1560.8	678.55
878.8184	1356.6849	1561.15	679.8
878.9624	1358.5493	1571.75	688.85
879.1064	1360.4131	1601.45	718.4
879.2504	1362.276	1615.25	734.2
879.3944	1364.1383	1643.65	760.95
879.5384	1365.9998	1658.4	769.8
879.6823	1367.8606	1651.05	767.5
879.8263	1369.7206	1641.75	758.5
879.9702	1371.5799	1644.9	761.95
880.1142	1373.4384	1647.35	765.45
880.2581	1375.2962	1625.9	742.55
880.402	1377.1533	1588	707.2
880.5459	1379.0096	1553.9	669.7
880.6898	1380.8652	1526.25	644.4
880.8337	1382.7201	1510	627.25
880.9776	1384.5742	1487.5	606.4
881.1215	1386.4275	1478.4	594.2
881.2653	1388.2802	1454.1	574.15
881.4092	1390.132	1450.1	568.6
881.553	1391.9832	1449.7	565.85
881.6968	1393.8336	1440.55	557.55
881.8406	1395.6832	1428.35	543.9
881.9844	1397.5322	1427.25	545.1
882.1282	1399.3803	1425.05	538.4
882.272	1401.2278	1413.25	530.95
882.4158	1403.0745	1418.35	536.55
882.5595	1404.9204	1402.65	519.5
882.7033	1406.7656	1394	510.25
882.847	1408.6101	1392.45	510.2
882.9908	1410.4538	1382.8	499.65
883.1345	1412.2968	1383.5	500.45
883.2782	1414.139	1392.15	510.65
883.4219	1415.9805	1395.45	512.05
883.5656	1417.8213	1408.7	517.7
883.7092	1419.6613	1408.95	525
883.8529	1421.5006	1432.9	547.3
883.9965	1423.3391	1454.8	572.6
884.1402	1425.1769	1490.95	608.75
884.2838	1427.0139	1546.15	663.25
884.4274	1428.8502	1602.9	716.5
884.571	1430.6858	1637.6	755.35
884.7146	1432.5206	1666.85	783
884.8582	1434.3547	1662.4	775.5
885.0018	1436.188	1648	764.7
885.1453	1438.0206	1638.85	754.35
885.2889	1439.8524	1627.3	742.05
885.4324	1441.6835	1634.05	748.2
885.5759	1443.5139	1635.3	747.7
885.7194	1445.3435	1633.4	751.6
885.8629	1447.1724	1628.95	747.95
886.0064	1449.0005	1633.45	748.6
886.1499	1450.8279	1616.95	730.35
886.2933	1452.6545	1620.45	738.35
886.4368	1454.4804	1618.7	736
886.5802	1456.3056	1618.05	725
886.7237	1458.13	1592.2	707.75
886.8671	1459.9536	1580.8	697.25
887.0105	1461.7766	1559.85	675.55
887.1539	1463.5987	1533.2	648.5
887.2972	1465.4202	1500.45	617.4
887.4406	1467.2409	1468.7	582.25
887.584	1469.0608	1458.3	574.55
887.7273	1470.88	1428.05	543.15
887.8706	1472.6984	1409.25	526.05
888.0139	1474.5161	1395.4	505.55
888.1572	1476.3331	1388.1	504.2
888.3005	1478.1493	1384.65	500.75
888.4438	1479.9648	1381.6	497.4
888.5871	1481.7795	1374.2	490.4
888.7303	1483.5935	1367.9	486.35
888.8736	1485.4067	1375.35	490
889.0168	1487.2192	1371	486.7
889.16	1489.031	1374.4	488.35
889.3032	1490.842	1364.85	480.9
889.4464	1492.6522	1366.75	481.85
889.5896	1494.4618	1374.95	488.75
889.7327	1496.2705	1362.1	479.1
889.8759	1498.0785	1369.45	483.5
890.019	1499.8858	1362	477.1
890.1622	1501.6924	1361.9	478.7
890.3053	1503.4981	1348.2	464.55
890.4484	1505.3032	1348.2	464.45
890.5914	1507.1075	1341.3	457.55
890.7345	1508.911	1333.35	448.4
890.8776	1510.7138	1341.4	456.5
891.0206	1512.5159	1333.55	449.15
891.1637	1514.3172	1319.55	435.25
891.3067	1516.1178	1313.55	428.95
891.4497	1517.9176	1312.75	425.2
891.5927	1519.7166	1308.7	425.2
891.7357	1521.515	1315.8	424.65
891.8786	1523.3126	1300.95	417.2
892.0216	1525.1094	1300.25	414.25
892.1645	1526.9055	1301.2	419.3
892.3074	1528.7008	1289.75	407.4
892.4503	1530.4954	1295.9	402.6
892.5932	1532.2893	1281.75	399.5
892.7361	1534.0824	1292.85	401.85
892.879	1535.8747	1286.85	400.8
893.0218	1537.6663	1286.75	400.45
893.1647	1539.4572	1287.25	399.5
893.3075	1541.2473	1288.55	403.05
893.4503	1543.0367	1279.1	395.4
893.5931	1544.8253	1283.15	394.35
893.7359	1546.6132	1288.95	405.4
893.8787	1548.4003	1292.65	398.7
894.0214	1550.1867	1297.1	402.15
894.1642	1551.9723	1303.6	413
894.3069	1553.7572	1301.4	414.25
894.4496	1555.5414	1314.1	428.85
894.5923	1557.3247	1327.95	443.15
894.735	1559.1074	1343.5	460.05
894.8777	1560.8893	1370.2	487.65
895.0204	1562.6705	1402.5	517.05
895.163	1564.4509	1423.85	537.55
895.3056	1566.2305	1429.8	545.75
895.4482	1568.0094	1432.7	549.2
895.5908	1569.7876	1433.85	550.15
895.7334	1571.565	1421.7	535.7
895.876	1573.3417	1420.6	536.65
896.0186	1575.1176	1429.75	545.95
896.1611	1576.8928	1439.9	552.75
896.3036	1578.6672	1453.2	569.6
896.4461	1580.4409	1470.25	586.4
896.5886	1582.2138	1500.6	612.25
896.7311	1583.986	1514.6	629.8
896.8736	1585.7575	1545.3	661.35
897.0161	1587.5282	1558.45	674.4
897.1585	1589.2981	1584.35	698.1
897.3009	1591.0673	1596	712.5
897.4433	1592.8358	1599.8	714.3
897.5857	1594.6035	1598.95	711.85
897.7281	1596.3704	1581.05	696.25
897.8705	1598.1366	1572.35	685.7
898.0128	1599.9021	1547.1	663.25
898.1551	1601.6668	1532.9	646
898.2975	1603.4308	1517.55	631.15
898.4398	1605.194	1510	621
898.5821	1606.9564	1529.25	642.4
898.7243	1608.7182	1566.8	676.8
898.8666	1610.4791	1617.85	731.95
899.0088	1612.2394	1676.95	790.5
899.1511	1613.9988	1749.3	862.75
899.2933	1615.7576	1803.25	918.9
899.4355	1617.5156	1840.2	948.4
899.5776	1619.2728	1827.9	943.95
899.7198	1621.0293	1790.65	905.65
899.862	1622.785	1711.05	821.7
900.0041	1624.54	1620.5	732.55
900.1462	1626.2942	1547.75	659.65
900.2883	1628.0477	1475.4	586.95
900.4304	1629.8005	1415.55	526.25
900.5725	1631.5525	1370.35	484.05
900.7145	1633.3037	1340.05	454
900.8566	1635.0542	1306.1	419.35
900.9986	1636.804	1290.45	405.15
901.1406	1638.553	1333.45	384.9
901.2826	1640.3013	1252.4	365.95
901.4245	1642.0488	1237.1	350.05
901.5665	1643.7955	1232.85	347.3
901.7085	1645.5416	1221.9	337.25
901.8504	1647.2868	1214.45	329.4
901.9923	1649.0313	1208.9	322.75
902.1342	1650.7751	1209.3	319.8
902.2761	1652.5181	1202.35	316.25
902.4179	1654.2604	1202.25	316.45
902.5598	1656.0019	1203.65	317.75
902.7016	1657.7427	1208.15	323.1
902.8434	1659.4828	1218.1	334.65
902.9852	1661.222	1234.8	347.8
903.127	1662.9606	1257.85	373
903.2687	1664.6984	1275.8	388.05
903.4105	1666.4354	1295.65	408.15
903.5522	1668.1717	1292.15	404.45
903.6939	1669.9072	1258.9	372.6
903.8356	1671.642	1227.65	339.9
903.9773	1673.3761	1204.35	319.45
904.119	1675.1094	1185.15	299.2
904.2606	1676.8419	1172.4	288.4
904.4022	1678.5737	1159.85	275
904.5439	1680.3048	1157.55	273.05
904.6855	1682.0351	1149	263.35
904.827	1683.7646	1151.45	263.15
904.9686	1685.4934	1139.55	255.2
905.1101	1687.2215	1138.75	250.7
905.2517	1688.9488	1129.6	244.15
905.3932	1690.6754	1130.1	246.25
905.5347	1692.4012	1131.15	245.75
905.6761	1694.1263	1123.8	240.75
905.8176	1695.8506	1127.5	241.8
905.9591	1697.5742	1125.4	241.15
906.1005	1699.297	1127.65	242.25
906.2419	1701.0191	1123.45	236
906.3833	1702.7404	1122.05	236.9
906.5246	1704.461	1117.65	229.55
906.666	1706.1808	1118.95	231.95
906.8073	1707.8999	1115.1	228.15
906.9487	1709.6182	1118	229.65
907.09	1711.3358	1112.05	227.45
907.2313	1713.0527	1107.15	223.45
907.3725	1714.7688	1114.6	224
907.5138	1716.4841	1108.1	218.5
907.655	1718.1987	1118.5	226.95
907.7962	1719.9126	1106.25	221.05
907.9374	1721.6257	1108.05	217.9
908.0786	1723.338	1108.15	218.6
908.2198	1725.0496	1103.95	217.95
908.3609	1726.7605	1102.9	215.7
908.502	1728.4706	1104.55	218.05
908.6431	1730.18	1106.1	216.4
908.7842	1731.8886	1102	216.6
908.9253	1733.5964	1124.7	217.95
909.0664	1735.3036	1102.15	210.6
909.2074	1737.0099	1099	213.3
909.3484	1738.7156	1100.2	214.1
909.4894	1740.4204	1101.65	215
909.6304	1742.1246	1101.45	214.2
909.7714	1743.8279	1098.6	212.25
909.9123	1745.5306	1095.4	207.05
910.0532	1747.2325	1094.7	208.05
910.1941	1748.9336	1095.7	210.65
910.335	1750.634	1092.4	204.5
910.4759	1752.3336	1096.45	210.05
910.6168	1754.0325	1098.5	212.8
910.7576	1755.7307	1091.85	204.85
910.8984	1757.4281	1096.75	211.15
911.0392	1759.1247	1101.55	209
911.18	1760.8206	1095.3	204.85
911.3208	1762.5158	1098.25	208
911.4615	1764.2102	1090.35	204.4
911.6022	1765.9039	1087.9	201.25
911.7429	1767.5968	1086.25	199.2
911.8836	1769.289	1089	202.6
912.0243	1770.9804	1090.05	202.4
912.1649	1772.6711	1083.1	195.85
912.3056	1774.361	1087.1	199.6
912.4462	1776.0502	1088.15	200.65
912.5868	1777.7386	1091.65	202.1
912.7274	1779.4263	1086.35	200.9
912.8679	1781.1132	1092.1	203.65
913.0084	1782.7994	1086.6	198.05
913.149	1784.4849	1085.95	201.7
913.2895	1786.1696	1100.45	206.6
913.4299	1787.8535	1090.4	202.55
913.5704	1789.5367	1086.05	200.15
913.7108	1791.2192	1083.75	196.8
913.8513	1792.9009	1093.25	193.8
913.9917	1794.5818	1082.5	191.8
914.132	1796.2621	1076.3	191.75
914.2724	1797.9415	1077	192.1
914.4128	1799.6202	1082.3	196.45
914.5531	1801.2982	1078.2	193.25
914.6934	1802.9755	1079.25	192.75
914.8337	1804.6519	1079.6	194.1
914.9739	1806.3277	1072.45	185.1
915.1142	1808.0027	1073.7	187.2
915.2544	1809.6769	1076.4	191.2
915.3946	1811.3504	1075.1	184.75
915.5348	1813.0231	1079.45	191.25
915.675	1814.6951	1075.1	189
915.8151	1816.3664	1074.85	185.35
915.9553	1818.0369	1074.8	187.45
916.0954	1819.7067	1071.4	185.55
916.2355	1821.3757	1075.4	186.7
916.3755	1823.044	1067.75	180.25
916.5156	1824.7115	1076.2	190
916.6556	1826.3783	1069.65	185.7
916.7956	1828.0443	1068.7	181.9
916.9356	1829.7096	1067.15	179.25
917.0756	1831.3741	1076.05	185.8
917.2155	1833.0379	1070	183.55
917.3555	1834.701	1069.05	180.75
917.4954	1836.3633	1072.55	184.3
917.6353	1838.0248	1069.45	180.15
917.7751	1839.6856	1067.85	180.8
917.915	1841.3457	1068.6	184.75
918.0548	1843.005	1063.3	177.7
918.1946	1844.6636	1064.9	178.35
918.3344	1846.3214	1067.35	181.05
918.4742	1847.9785	1064.9	179.9
918.6139	1849.6349	1062.25	173.25
918.7537	1851.2904	1074.5	180.25
918.8934	1852.9453	1061.6	174.65
919.0331	1854.5994	1066.3	177.8
919.1727	1856.2528	1070.05	178.85
919.3124	1857.9054	1064.45	177.45
919.452	1859.5572	1063.4	177.8
919.5916	1861.2083	1060.85	173.2
919.7312	1862.8587	1061.4	176.6
919.8708	1864.5084	1062	175.7
920.0103	1866.1572	1061.4	173.85
920.1498	1867.8054	1065.2	179.9
920.2893	1869.4528	1060.7	174.75
920.4288	1871.0994	1058.3	171.2
920.5683	1872.7453	1059.25	170.75
920.7077	1874.3905	1061.2	169.05
920.8471	1876.0349	1059	169.4
920.9865	1877.6786	1054.8	166.7
921.1259	1879.3215	1057.95	171.6
921.2653	1880.9637	1056.8	169.1
921.4046	1882.6051	1058.95	172.85
921.5439	1884.2458	1058.35	170.6
921.6832	1885.8858	1057.05	171
921.8225	1887.525	1053.8	166.3
921.9617	1889.1634	1052.25	165.1
922.101	1890.8011	1050.7	162.1
922.2402	1892.4381	1050.1	164.35
922.3794	1894.0743	1049.2	163.35
922.5185	1895.7098	1050.5	163.1
922.6577	1897.3446	1051.95	164.95
922.7968	1898.9786	1054.45	162.8
922.9359	1900.6118	1050.2	165.3
923.075	1902.2443	1053.05	164.75
923.214	1903.8761	1055.85	171.6
923.3531	1905.5071	1051.75	163.1
923.4921	1907.1374	1046	158.6
923.6311	1908.7669	1051.15	162.75
923.77	1910.3957	1046.5	161.6
923.909	1912.0237	1051	164.45
924.0479	1913.651	1048.35	159.65
924.1868	1915.2776	1047	160.45
924.3257	1916.9034	1042.85	157.35
924.4646	1918.5285	1045	160.15
924.6034	1920.1528	1045.25	158
924.7422	1921.7764	1043.9	157.85
924.881	1923.3992	1045.5	159.9
925.0198	1925.0213	1043.35	159.2
925.1586	1926.6427	1039.65	153.85
925.2973	1928.2633	1125.95	150.65
925.436	1929.8832	1046.1	158
925.5747	1931.5023	1040.8	154.1
925.7134	1933.1207	1042.95	155.25
925.852	1934.7383	1042.05	154.3
925.9906	1936.3552	1040.2	156.25
926.1292	1937.9714	1042	156.65
926.2678	1939.5868	1042.3	153.3
926.4064	1941.2015	1040.9	153.4
926.5449	1942.8154	1038.95	152.25
926.6834	1944.4286	1035.95	148.35
926.8219	1946.041	1063.55	151.85
926.9604	1947.6528	1041.25	150.65
927.0988	1949.2637	1037.85	149.95
927.2372	1950.8739	1037.85	150.8
927.3756	1952.4834	1034.85	147.25
927.514	1954.0921	1034.35	147.05
927.6523	1955.7001	1038.3	147.8
927.7907	1957.3074	1033.8	147
927.929	1958.9139	1034.6	147.25
928.0673	1960.5197	1035.2	145.05
928.2055	1962.1247	1030.9	142.65
928.3438	1963.729	1031.5	144.8
928.482	1965.3325	1052.8	142.45
928.6202	1966.9353	1032.2	147.35
928.7584	1968.5374	1030.55	142
928.8965	1970.1387	1029.1	142.35
929.0346	1971.7393	1030.05	143.35
929.1727	1973.3392	1030.05	143.6
929.3108	1974.9383	1029.75	143.3
929.4489	1976.5366	1028.8	142.4
929.5869	1978.1342	1031.6	144.6
929.7249	1979.7311	1027.85	139.9
929.8629	1981.3273	1027.7	139.25
930.0009	1982.9227	1033.85	145.65
930.1388	1984.5173	1026	138.4
930.2767	1986.1112	1024.55	137.2
930.4146	1987.7044	1027.25	142.3
930.5525	1989.2968	1026.65	139.2
930.6904	1990.8885	1033.15	142.4
930.8282	1992.4795	1029.25	141.9
930.966	1994.0697	1027.4	138.5
931.1038	1995.6592	1025.35	137.5
931.2415	1997.2479	1027.7	138.9
931.3793	1998.8359	1023.6	137.75
931.517	2000.4232	1025.95	139.4
931.6547	2002.0097	1020.4	132.65
931.7923	2003.5955	1027.45	140.4
931.93	2005.1805	1032.4	143.35
932.0676	2006.7648	1023.9	136.35
932.2052	2008.3484	1025.75	138.65
932.3427	2009.9312	1029.95	141.15
932.4803	2011.5133	1020.95	134.4
932.6178	2013.0946	1018.95	130
932.7553	2014.6752	1023.3	136.3
932.8928	2016.2551	1017.95	130.55
933.0302	2017.8342	1022.65	134.15
933.1676	2019.4126	1021.6	133.8
933.305	2020.9902	1020.35	132.85
933.4424	2022.5672	1026.55	135.9
933.5798	2024.1433	1027.15	136.45
933.7171	2025.7188	1021.6	133.75
933.8544	2027.2935	1023.75	138.1
933.9917	2028.8674	1019.95	131.8
934.129	2030.4406	1020.7	134.65
934.2662	2032.0131	1019.45	133.85
934.4034	2033.5849	1023.55	130.65
934.5406	2035.1559	1018.75	131.65
934.6778	2036.7261	1015.75	126.9
934.8149	2038.2957	1020.85	134.25
934.952	2039.8645	1021.35	134.5
935.0891	2041.4325	1019.45	129
935.2262	2042.9998	1014.65	127.2
935.3632	2044.5664	1019.9	129.7
935.5002	2046.1323	1018.5	130.6
935.6372	2047.6974	1017.45	130.75
935.7742	2049.2617	1014.95	128.2
935.9111	2050.8254	1050.25	130.75
936.048	2052.3883	1019	130.5
936.1849	2053.9504	1016.5	128.8
936.3218	2055.5118	1017.95	129.9
936.4586	2057.0725	1019.85	128
936.5955	2058.6325	1015.2	125.8
936.7323	2060.1917	1017.9	131.9
936.869	2061.7502	1021.35	131.4
937.0058	2063.3079	1013.2	127.6
937.1425	2064.8649	1016.75	127.3
937.2792	2066.4212	1015.2	127.45
937.4159	2067.9767	1013.45	125.7
937.5525	2069.5315	1013.05	126.1
937.6891	2071.0856	1012.5	126.55
937.8257	2072.6389	1014.75	124.95
937.9623	2074.1915	1014.25	127.1
938.0989	2075.7433	1020.7	132.9
938.2354	2077.2945	1012.15	125.9
938.3719	2078.8448	1015.2	127.9
938.5084	2080.3945	1010.4	124.95
938.6448	2081.9434	1014.95	126.95
938.7812	2083.4916	1016.6	129.6
938.9176	2085.039	1015.55	126.2
939.054	2086.5857	1015.35	127.9
939.1903	2088.1317	1015.6	127.55
939.3267	2089.677	1013.45	125.9
939.463	2091.2215	1013.55	129.1
939.5992	2092.7652	1012.75	125.05
939.7355	2094.3083	1011.5	123.45
939.8717	2095.8506	1012.25	126.65
940.0079	2097.3921	1012	127.05
940.1441	2098.933	1013.3	127.3
940.2802	2100.4731	1012	123.25
940.4163	2102.0124	1020.15	127.35
940.5524	2103.5511	1011.8	124.1
940.6885	2105.089	1011.3	122.85
940.8245	2106.6261	1009.2	121.6
940.9606	2108.1626	1012.3	124.4
941.0965	2109.6983	1037.2	119.9
941.2325	2111.2332	1010.85	123.6
941.3684	2112.7675	1011.8	122.9
941.5044	2114.301	1011.45	122.95
941.6403	2115.8337	1010.75	124.35
941.7761	2117.3657	1011.15	124.3
941.912	2118.897	1012.7	124.75
942.0478	2120.4276	1017.65	125.2
942.1835	2121.9575	1010.25	126.25
942.3193	2123.4866	1020.5	119
942.455	2125.0149	1009.85	120.1
942.5907	2126.5426	1006.65	119.75
942.7264	2128.0695	1013.75	122.15
942.8621	2129.5956	1009.95	125.25
942.9977	2131.1211	1012.45	120.8
943.1333	2132.6458	1009.25	122.15
943.2689	2134.1698	1004.45	117
943.4044	2135.693	1011.95	121.95
943.54	2137.2155	1010.25	122.25
943.6755	2138.7373	1009.6	121.65
943.8109	2140.2584	1007.8	119.25
943.9464	2141.7787	1011.6	116.2
944.0818	2143.2983	1008.65	121
944.2172	2144.8171	1012	125.5
944.3526	2146.3353	1012.2	123.15
944.4879	2147.8527	1007.85	123.7
944.6232	2149.3693	1006.15	119.15
944.7585	2150.8853	1007	118.6
944.8938	2152.4005	1001.05	113.55
945.029	2153.9149	1006.95	120.05
945.1642	2155.4287	1006.1	120.45
945.2994	2156.9417	1007.15	120.55
945.4346	2158.454	1007.3	117.6
945.5697	2159.9655	1007.5	119.75
945.7048	2161.4764	1006.2	120.55
945.8399	2162.9865	1002.85	114.85
945.9749	2164.4958	1005.75	117.95
946.1099	2166.0045	1004.5	113.6
946.2449	2167.5124	1002.4	115.7
946.3799	2169.0195	1000.1	114.25
946.5148	2170.526	1005.5	117.35
946.6498	2172.0317	1002.8	115.8
946.7846	2173.5367	1004.55	115.15
946.9195	2175.0409	1000.7	113.9
947.0543	2176.5445	1002.5	117.05
947.1891	2178.0473	1000.25	114
947.3239	2179.5494	1002.9	112.05
947.4587	2181.0507	1002.7	117.15
947.5934	2182.5513	1004.55	117.15
947.7281	2184.0512	1003.9	117.25
947.8628	2185.5504	998.55	111.7
947.9974	2187.0488	997.8	111.55
948.132	2188.5465	1004.05	117.2
948.2666	2190.0435	1002.1	113.8
948.4012	2191.5397	999.85	111.95
948.5357	2193.0353	999.7	112.8
948.6702	2194.5301	998.5	109.9
948.8047	2196.0241	999.85	114.05
948.9392	2197.5175	1000.25	114
949.0736	2199.0101	1000.75	108.8
949.208	2200.502	1001.3	115.7
949.3424	2201.9931	997.8	111.25
949.4767	2203.4835	997.8	108.4
949.611	2204.9733	1007.5	113.55
949.7453	2206.4622	997	108.65
949.8796	2207.9505	1003.5	113.7
950.0138	2209.438	997.75	111.45
950.148	2210.9248	998.25	109.5
950.2822	2212.4109	995.7	109.7
950.4164	2213.8962	997.15	108
950.5505	2215.3809	997.95	111
950.6846	2216.8648	996.9	111.2
950.8186	2218.3479	996.85	106.35
950.9527	2219.8304	996.45	106.6
951.0867	2221.3121	995.35	108.7
951.2207	2222.7931	993.5	109.25
951.3546	2224.2733	994.5	108.15
951.4886	2225.7529	991.45	102.25
951.6225	2227.2317	997.75	107.6
951.7563	2228.7098	994.05	108.2
951.8902	2230.1872	994.2	108.65
952.024	2231.6638	994.15	106.8
952.1578	2233.1397	999.55	108.6
952.2916	2234.6149	990.1	102.85
952.4253	2236.0894	990.5	103.75
952.559	2237.5632	1001.25	104.65
952.6927	2239.0362	991.25	103.55
952.8263	2240.5085	986.75	98.25
952.9599	2241.9801	994.1	106.9
953.0935	2243.4509	992.3	106.1
953.2271	2244.921	991.15	103.6
953.3606	2246.3904	993.75	103.5
953.4941	2247.8591	987	100.75
953.6276	2249.3271	986.3	101.3
953.7611	2250.7943	987.55	100.35
953.8945	2252.2608	987.8	100.25
954.0279	2253.7266	987.45	101.65
954.1612	2255.1917	987.85	102.4
954.2946	2256.656	988.35	101.35
954.4279	2258.1197	990.4	102.9
954.5612	2259.5826	986.8	98.9
954.6944	2261.0447	989.9	103.2
954.8276	2262.5062	988.75	99.15
954.9608	2263.9669	989.4	102.2
955.094	2265.4269	985.05	99.9
955.2271	2266.8862	986.3	96.25
955.3602	2268.3448	982.25	94.5
955.4933	2269.8026	985.75	97.8
955.6264	2271.2598	988.25	100.15
955.7594	2272.7162	980.7	94.55
955.8924	2274.1719	982.6	94.8
956.0253	2275.6268	986.5	100.7
956.1583	2277.0811	984.25	96.05
956.2912	2278.5346	983.2	98.85
956.4241	2279.9874	985.05	98.8
956.5569	2281.4395	981.05	93.25
956.6897	2282.8908	987.95	95.65
956.8225	2284.3414	982.8	93.85
956.9553	2285.7914	983	97.1
957.088	2287.2406	983.35	94.2
957.2207	2288.689	985.4	98.95
957.3534	2290.1368	981.25	93.85
957.486	2291.5838	984.4	95.65
957.6186	2293.0302	982.5	93.05
957.7512	2294.4758	981.15	94.45
957.8838	2295.9206	981.1	92.95
958.0163	2297.3648	982.45	95.25
958.1488	2298.8082	984.1	97.15
958.2813	2300.251	977.15	91.35
958.4137	2301.693	984.35	91.6
958.5461	2303.1343	983.45	95.9
958.6785	2304.5748	977.7	89.85
958.8108	2306.0147	982.95	94.8
958.9432	2307.4538	980.45	91.2
959.0754	2308.8922	979.45	94.25
959.2077	2310.3299	976.7	89.35
959.3399	2311.7669	978.4	93.1
959.4721	2313.2031	977.65	89.3
959.6043	2314.6387	980.7	92.65
959.7365	2316.0735	980.85	93.4
959.8686	2317.5076	975.3	89.95
960.0006	2318.941	979.45	94.1
960.1327	2320.3737	978.25	91.3
960.2647	2321.8056	979.6	92.65
960.3967	2323.2369	983.85	94.8
960.5287	2324.6674	984.05	94.05
960.6606	2326.0972	982.85	93.45
960.7925	2327.5263	985.05	98.75
960.9244	2328.9547	982.55	93.25
961.0562	2330.3823	985.55	100.2
961.1881	2331.8092	979.3	89.25
961.3198	2333.2355	978.75	92.7
961.4516	2334.661	975.5	86.95
961.5833	2336.0858	980.5	91.75
961.715	2337.5098	973.45	87.6
961.8467	2338.9332	973.4	85.55
961.9783	2340.3558	977.6	86.65
962.1099	2341.7778	971.9	85.35
962.2415	2343.199	974.8	84.15
962.373	2344.6195	977.35	90.5
962.5045	2346.0393	973.65	85.25
962.636	2347.4583	973.7	85.2
962.7675	2348.8767	977.45	89.7
962.8989	2350.2943	971.5	83.25
963.0303	2351.7113	971.75	84.5
963.1617	2353.1275	970.35	85.2
963.293	2354.543	995.85	83.85
963.4243	2355.9578	973.05	85.15
963.5556	2357.3718	969.95	81.55
963.6868	2358.7852	971.95	82.45
963.818	2360.1978	973.45	84.5
963.9492	2361.6098	969.95	82.7
964.0803	2363.021	979.3	86.55
964.2114	2364.4315	970.9	83.05
964.3425	2365.8413	976.35	88.65
964.4736	2367.2504	970.35	85.6
964.6046	2368.6587	965.25	78.45
964.7356	2370.0664	967.2	81.05
964.8666	2371.4733	971.2	82.55
964.9975	2372.8795	970.35	82
965.1284	2374.285	974.2	86.15
965.2593	2375.6899	968.5	82.85
965.3901	2377.0939	969.25	83.2
965.5209	2378.4973	969.75	81.8
965.6517	2379.9	970.95	82.9
965.7825	2381.3019	969.35	84.15
965.9132	2382.7032	966.45	79.85
966.0439	2384.1037	968.55	82.65
966.1745	2385.5035	963.8	75.1
966.3051	2386.9027	963.9	77.1
966.4357	2388.3011	969.7	78
966.5663	2389.6987	967.15	77.9
966.6968	2391.0957	966.15	79
966.8273	2392.492	962.75	75.05
966.9578	2393.8876	962.6	75.45
967.0882	2395.2824	964.85	79.5
967.2186	2396.6765	963.95	78.75
967.349	2398.07	963.75	78.45
967.4793	2399.4627	966.2	76.6
967.6097	2400.8547	965.35	78.7
967.7399	2402.246	971.1	76.8
967.8702	2403.6366	965.25	75.35
968.0004	2405.0265	962.5	74.7
968.1306	2406.4156	970.95	79.95
968.2607	2407.8041	966.7	77.4
968.3909	2409.1918	966.35	78.1
968.521	2410.5789	961.2	73.15
968.651	2411.9652	963.5	73.85
968.781	2413.3508	963.95	77.95
968.911	2414.7358	963.6	77.45
969.041	2416.12	958.5	71.8
969.1709	2417.5035	963.6	76.1
969.3008	2418.8863	963.3	75.75
969.4307	2420.2684	961.15	73.5
969.5606	2421.6497	961.85	73.95
969.6904	2423.0304	960.25	72.55
969.8201	2424.4104	960.45	72.05
969.9499	2425.7896	962.95	68.2
970.0796	2427.1682	960.05	75.55
970.2093	2428.546	960.6	71.35
970.3389	2429.9232	961.9	74.6
970.4685	2431.2996	957.2	70.8
970.5981	2432.6753	959.55	73.35
970.7277	2434.0503	959.1	71.8
970.8572	2435.4246	959.5	72.55
970.9867	2436.7982	963.05	75.15
971.1161	2438.1711	962.2	76.85
971.2456	2439.5433	958	68.5
971.375	2440.9148	965	71.95
971.5043	2442.2856	956.2	68.1
971.6336	2443.6557	959.3	71.85
971.7629	2445.025	956.65	70
971.8922	2446.3937	957.25	69.3
972.0214	2447.7617	957.2	69.5
972.1506	2449.1289	954.15	65.35
972.2798	2450.4955	958.75	68
972.4089	2451.8613	957.25	70.75
972.538	2453.2265	954.8	68.15
972.6671	2454.5909	956.45	70.45
972.7961	2455.9546	954.75	64.55
972.9251	2457.3177	953.9	65.75
973.0541	2458.68	958.05	69.85
973.1831	2460.0416	955	65.5
973.312	2461.4025	957.3	66.45
973.4408	2462.7627	969.35	68.1
973.5697	2464.1222	954.9	66.2
973.6985	2465.4811	955.55	67.75
973.8273	2466.8392	955.2	67.6
973.956	2468.1966	956.9	67.4
974.0847	2469.5533	956.3	66.45
974.2134	2470.9093	954.9	67.05
974.3421	2472.2645	953.75	65.05
974.4707	2473.6191	956.05	67.9
974.5993	2474.973	955.25	68.45
974.7278	2476.3262	956.4	66.5
974.8563	2477.6787	951.25	65.65
974.9848	2479.0305	954.3	67.15
975.1132	2480.3816	955.85	67
975.2417	2481.7319	956.05	68.05
975.37	2483.0816	949.7	59.75
975.4984	2484.4306	954.05	67
975.6267	2485.7789	951.1	64.65
975.755	2487.1264	954.75	64.95
975.8833	2488.4733	951	64.85
976.0115	2489.8195	969.65	64.65
976.1397	2491.165	954.4	63.1
976.2678	2492.5097	952.95	63.15
976.3959	2493.8538	953.9	66.7
976.524	2495.1972	953.45	67.05
976.6521	2496.5398	952.6	64.85
976.7801	2497.8818	951.4	63.4
976.9081	2499.2231	951.35	63.15
977.036	2500.5637	948.15	58.15
977.164	2501.9035	950.3	62.45
977.2918	2503.2427	954.75	62.8
977.4197	2504.5812	950.85	62.7
977.5475	2505.919	951.9	64.35
977.6753	2507.256	947.85	61.75
977.8031	2508.5924	952.15	64.1
977.9308	2509.9281	955.9	63.1
978.0585	2511.2631	951.8	63.95
978.1861	2512.5974	950.15	60.95
978.3137	2513.9309	951.3	65.7
978.4413	2515.2638	978.8	59.6
978.5689	2516.596	947.8	60.3
978.6964	2517.9275	948.2	58.55
978.8239	2519.2583	950.75	63.25
978.9513	2520.5884	948.6	58.55
979.0788	2521.9178	946.6	58.2
979.2062	2523.2465	950.55	63.7
979.3335	2524.5745	945.7	57.6
979.4608	2525.9018	947.6	60.15
979.5881	2527.2284	944.85	59.25
979.7154	2528.5543	943.35	55
979.8426	2529.8796	947.1	59.3
979.9698	2531.2041	947.05	58.45
980.0969	2532.5279	946.25	59.1
980.224	2533.851	948.2	61.45
980.3511	2535.1735	943.95	57.9
980.4781	2536.4952	942.9	56.5
980.6052	2537.8163	947.2	59.1
980.7321	2539.1366	943.65	57
980.8591	2540.4562	946.2	58.9
980.986	2541.7752	947.4	60.15
981.1129	2543.0935	946.15	58.2
981.2397	2544.411	947.15	58.75
981.3665	2545.7279	945.35	58.3
981.4933	2547.0441	944.05	59.5
981.62	2548.3596	948.15	56.4
981.7467	2549.6744	943.7	57.25
981.8734	2550.9885	941.9	53.75
982.0001	2552.3019	942.85	55.75
982.1267	2553.6146	941.65	52.6
982.2532	2554.9266	944.3	56.75
982.3798	2556.2379	945.75	56.2
982.5063	2557.5485	943.9	57.15
982.6327	2558.8585	948.85	55.95
982.7592	2560.1677	947.3	54.55
982.8856	2561.4762	940.75	53.9
983.0119	2562.7841	946.4	56.35
983.1383	2564.0913	940.95	53.6
983.2646	2565.3977	940.55	53.55
983.3908	2566.7035	943.7	55.65
983.517	2568.0086	943.35	53.45
983.6432	2569.313	942.15	53.25
983.7694	2570.6167	945.6	54.25
983.8955	2571.9197	940.25	54.8
984.0216	2573.222	944.35	54.85
984.1476	2574.5236	941.95	53.55
984.2737	2575.8246	944.1	54.55
984.3996	2577.1248	943.85	53.15
984.5256	2578.4244	942.75	54.95
984.6515	2579.7232	936.9	50.45
984.7774	2581.0214	970.85	51.6
984.9032	2582.3189	942.45	55.75
985.029	2583.6157	947.65	55.9
985.1548	2584.9118	943.55	55.9
985.2806	2586.2072	941.25	56
985.4063	2587.5019	942.65	57.7
985.5319	2588.7959	941.95	53.5
985.6576	2590.0893	940.85	52.45
985.7832	2591.3819	939.15	52.7
985.9087	2592.6739	943.5	57.9
986.0343	2593.9652	940.5	51.8
986.1597	2595.2557	940.95	52.25
986.2852	2596.5456	943.9	55.7
986.4106	2597.8348	939.85	53.15
986.536	2599.1234	937.4	49
986.6614	2600.4112	939.55	53.8
986.7867	2601.6983	941.2	51.4
986.912	2602.9848	938.5	50.05
987.0372	2604.2705	945.25	51.55
987.1624	2605.5556	943.15	56
987.2876	2606.84	940.4	53.8
987.4128	2608.1237	940.1	52.3
987.5379	2609.4067	938.2	51.45
987.6629	2610.689	948.3	50.95
987.788	2611.9707	942.25	49.5
987.913	2613.2516	939.95	48.55
988.0379	2614.5319	941.05	54.5
988.1629	2615.8115	938.1	50.95
988.2878	2617.0903	939.8	51.25
988.4126	2618.3685	937.2	50.35
988.5375	2619.6461	936.85	48.4
988.6622	2620.9229	937.45	49.2
988.787	2622.199	938.4	49.45
988.9117	2623.4745	936.3	46.7
989.0364	2624.7493	935.65	50.5
989.161	2626.0234	937.85	49.7
989.2857	2627.2968	938.1	50.9
989.4102	2628.5695	936.8	48.55
989.5348	2629.8415	934.25	49.55
989.6593	2631.1128	938.9	49.5
989.7837	2632.3835	935.9	48.7
989.9082	2633.6535	935.25	47.15
990.0326	2634.9228	936.5	49.65
990.1569	2636.1914	937.1	50.9
990.2812	2637.4593	940.65	48.9
990.4055	2638.7265	936.4	48.3
990.5298	2639.9931	932.65	45.4
990.654	2641.259	935.8	46.75
990.7782	2642.5242	938.65	49.55
990.9023	2643.7887	934.45	46.65
991.0264	2645.0525	934.3	46.5
991.1505	2646.3156	932.8	44.75
991.2745	2647.5781	933.05	45.65
991.3985	2648.8398	933.75	46.4
991.5225	2650.1009	970.75	47.5
991.6464	2651.3613	933.8	45.55
991.7703	2652.6211	935.35	46.85
991.8942	2653.8801	932.25	46.7
992.018	2655.1385	933.45	42.25
992.1418	2656.3961	932.75	45.3
992.2655	2657.6531	932.1	42.1
992.3892	2658.9094	931.5	44.95
992.5129	2660.1651	933.2	46
992.6366	2661.42	931.25	42.85
992.7602	2662.6743	930.25	42.6
992.8837	2663.9279	930.4	42.9
993.0073	2665.1808	933.15	43.75
993.1307	2666.433	933.5	44.75
993.2542	2667.6846	930.95	44.25
993.3776	2668.9354	937.75	49.75
993.501	2670.1856	931.1	42.75
993.6244	2671.4351	930	43.85
993.7477	2672.6839	934.7	46.1
993.8709	2673.9321	932.3	44.1
993.9942	2675.1795	932.9	45.4
994.1174	2676.4263	932.95	45.6
994.2405	2677.6724	933.15	48.25
994.3637	2678.9179	935.9	49.65
994.4868	2680.1626	930.75	44.45
994.6098	2681.4067	934.45	47.35
994.7328	2682.6501	933.95	46.2
994.8558	2683.8928	929.2	41.7
994.9788	2685.1348	932.55	46.65
995.1017	2686.3761	930.25	41.25
995.2245	2687.6168	930.4	42.05
995.3474	2688.8568	929.05	42.15
995.4702	2690.0961	927.4	40.95
995.5929	2691.3348	933.9	46.8
995.7156	2692.5727	931.6	45.65
995.8383	2693.81	929.45	43.7
995.961	2695.0466	926.1	39.15
996.0836	2696.2826	931.4	42.85
996.2062	2697.5178	931.05	43.2
996.3287	2698.7524	928.9	41.15
996.4512	2699.9863	930.65	43.05
996.5737	2701.2195	929.05	43.75
996.6961	2702.452	929.8	41.45
996.8185	2703.6839	930.3	42.9
996.9408	2704.9151	930.25	43.85
997.0631	2706.1456	929.65	43.25
997.1854	2707.3755	933.65	44.5
997.3077	2708.6046	932.15	42.6
997.4299	2709.8331	932.45	43.8
997.552	2711.0609	931.25	44
997.6742	2712.2881	927.85	39.85
997.7963	2713.5145	931.05	41.5
997.9183	2714.7403	927.95	40.45
998.0403	2715.9654	932.25	45.5
998.1623	2717.1899	935.45	47.35
998.2842	2718.4136	932.5	47.7
998.4062	2719.6367	935	47.75
998.528	2720.8591	939.95	46.1
998.6498	2722.0809	937	46.85
998.7716	2723.3019	937.15	47.75
998.8934	2724.5223	936.25	48.3
999.0151	2725.7421	935.55	46.8
999.1368	2726.9611	937.95	49.65
999.2584	2728.1795	938.7	45.6
999.38	2729.3972	933.1	46.45
999.5016	2730.6142	943.55	43.35
999.6231	2731.8306	934.55	46
999.7446	2733.0462	932.05	41.2
999.8661	2734.2612	935.25	42.8
999.9875	2735.4756	931.2	41.6
1000.1089	2736.6892	926.1	37.15
1000.2302	2737.9022	927.7	41.6
1000.3515	2739.1145	929.05	41.2
1000.4728	2740.3262	936.45	42.75
1000.594	2741.5372	926.5	38.8
1000.7152	2742.7475	925.85	37.5
1000.8363	2743.9571	925.95	37.05
1000.9575	2745.1661	928.7	37.65
1001.0785	2746.3744	928.25	39.25
1001.1996	2747.582	926.2	38.25
1001.3206	2748.7889	926.05	37.65
1001.4415	2749.9952	923.3	36
1001.5625	2751.2008	922.95	34.7
1001.6833	2752.4057	926.25	37.05
1001.8042	2753.61	928.8	38.1
1001.925	2754.8136	926.4	35.8
1002.0458	2756.0165	925.7	39.9
1002.1665	2757.2188	921.35	32.65
1002.2872	2758.4204	919.45	30.45
1002.4078	2759.6213	925.7	35.45
1002.5285	2760.8215	929.8	35
1002.649	2762.0211	925.75	36.75
1002.7696	2763.22	925.05	33.15
1002.8901	2764.4182	921.85	31.6
1003.0106	2765.6158	923.4	36.4
1003.131	2766.8127	922.65	34.9
1003.2514	2768.009	919.4	34.05
1003.3717	2769.2045	924	36.2
1003.492	2770.3994	925.2	34.95
1003.6123	2771.5936	923	33.35
1003.7325	2772.7872	917.65	30.65
1003.8527	2773.9801	922.95	33.4
1003.9729	2775.1723	939.2	36.4
1004.093	2776.3639	917.35	30.85
1004.2131	2777.5548	921.85	32.45
1004.3331	2778.745	922.4	34.3
1004.4531	2779.9346	920.1	33.65
1004.5731	2781.1235	922.55	36.2
1004.693	2782.3117	918.25	32.8
1004.8129	2783.4992	920.4	33.6
1004.9328	2784.6861	919.35	31.1
1005.0526	2785.8723	922.05	32.55
1005.1723	2787.0579	919.9	31.2
1005.2921	2788.2428	919	32.1
1005.4118	2789.427	919.75	31.05
1005.5314	2790.6106	919.05	30.55
1005.651	2791.7935	920.6	31.25
1005.7706	2792.9757	918.2	31.05
1005.8902	2794.1573	924	35.75
1006.0097	2795.3382	919.8	32.8
1006.1291	2796.5184	920.75	33.85
1006.2485	2797.698	920.9	32.15
1006.3679	2798.8769	922.55	38.6
1006.4873	2800.0551	921.9	32.3
1006.6066	2801.2327	925.25	36.4
1006.7258	2802.4096	921.6	33.9
1006.8451	2803.5859	920.95	33.15
1006.9642	2804.7615	919.85	32.45
1007.0834	2805.9364	920	32.2
1007.2025	2807.1106	921.95	35.7
1007.3216	2808.2842	922.5	33.65
1007.4406	2809.4572	922.7	34.45
1007.5596	2810.6294	925.45	37.8
1007.6785	2811.801	924.25	37.4
1007.7975	2812.972	922.1	34.05
1007.9163	2814.1423	924.4	36.85
1008.0352	2815.3119	926.1	37.3
1008.154	2816.4808	927.05	42.4
1008.2727	2817.6491	931.4	43.3
1008.3914	2818.8167	931.9	45.65
1008.5101	2819.9837	939.4	47.75
1008.6288	2821.15	940.15	50.2
1008.7474	2822.3157	941.45	55.55
1008.8659	2823.4807	944.65	56.85
1008.9844	2824.645	952.55	64.3
1009.1029	2825.8086	956.8	69.4
1009.2214	2826.9716	960.7	72.25
1009.3398	2828.134	965.55	78.05
1009.4581	2829.2957	967.45	80.55
1009.5764	2830.4567	974.65	87.65
1009.6947	2831.617	980.05	91.9
1009.813	2832.7767	978.4	93
1009.9312	2833.9358	979	92.45
1010.0493	2835.0941	980.35	90.8
1010.1675	2836.2519	976.7	89.2
1010.2855	2837.4089	976.8	88.05
1010.4036	2838.5653	969.2	81.95
1010.5216	2839.7211	968.8	83.2
1010.6396	2840.8761	969.9	80.95
1010.7575	2842.0306	966	77.9
1010.8754	2843.1843	966.25	81.05
1010.9932	2844.3374	966.2	79.45
1011.111	2845.4899	972	83.6
1011.2288	2846.6417	969.3	83.8
1011.3465	2847.7928	969.2	80.7
1011.4642	2848.9433	969.15	80.7
1011.5818	2850.0931	972.6	84.8
1011.6995	2851.2422	973.9	86.25
1011.817	2852.3907	976.15	89.2
1011.9345	2853.5385	975.55	86.2
1012.052	2854.6857	999.25	87.1
1012.1695	2855.8323	976	88.65
1012.2869	2856.9781	975.2	88.15
1012.4042	2858.1233	982.4	95.65
1012.5216	2859.2679	983.55	96.5
1012.6389	2860.4118	982.05	94.1
1012.7561	2861.555	987.2	94.6
1012.8733	2862.6976	988.65	97.85
1012.9905	2863.8395	987	100.85
1013.1076	2864.9808	987.15	100.1
1013.2247	2866.1214	992.15	105.8
1013.3417	2867.2614	988.75	103.25
1013.4587	2868.4007	996.85	108.45
1013.5757	2869.5393	991.55	103.05
1013.6926	2870.6773	998.25	106.75
1013.8095	2871.8146	1001.9	111
1013.9263	2872.9513	1004.55	116.1
1014.0431	2874.0874	997.1	108.05
1014.1599	2875.2227	1003.1	116.15
1014.2766	2876.3574	998.55	111.2
1014.3933	2877.4915	1002.85	117.1
1014.51	2878.6249	1005.1	120.05
1014.6266	2879.7577	1007.7	119.35
1014.7431	2880.8898	1017.7	117.45
1014.8596	2882.0212	1007.85	121.3
1014.9761	2883.152	1014.1	125.95
1015.0925	2884.2821	1011.5	125.45
1015.2089	2885.4116	1011.25	124.95
1015.3253	2886.5405	1015.25	127.6
1015.4416	2887.6686	1018.7	128.2
1015.5579	2888.7962	1014.6	127.25
1015.6741	2889.923	1013.45	127.1
1015.7903	2891.0493	1013.75	126
1015.9065	2892.1748	1013.65	126.65
1016.0226	2893.2997	1016	129.05
1016.1387	2894.424	1013.5	126.7
1016.2547	2895.5476	1016.9	128.5
1016.3707	2896.6706	1013.1	127.45
1016.4866	2897.7929	1014.9	126.55
1016.6025	2898.9145	1018.65	131.5
1016.7184	2900.0355	1012.95	123.15
1016.8342	2901.1559	1015.45	125.5
1016.95	2902.2756	1016.9	128.2
1017.0658	2903.3946	1014.1	127.4
1017.1815	2904.513	1018.05	127.8
1017.2971	2905.6308	1010.85	124.2
1017.4127	2906.7479	1009.35	120.6
1017.5283	2907.8643	1007.65	119.85
1017.6439	2908.9801	1008.2	120.05
1017.7594	2910.0953	1011.05	124.3
1017.8748	2911.2098	1015.45	126.6
1017.9902	2912.3236	1015.3	121.4
1018.1056	2913.4368	1012.65	120.05
1018.2209	2914.5494	1014.5	127.3
1018.3362	2915.6613	1012.15	118.25
1018.4515	2916.7725	1009.6	118.85
1018.5667	2917.8831	1004.75	115.5
1018.6819	2918.9931	1003.75	115.65
1018.797	2920.1024	1003.95	117.6
1018.9121	2921.211	996.65	109
1019.0271	2922.319	996.4	108.25
1019.1421	2923.4264	998.35	112.55
1019.2571	2924.5331	995.85	110.45
1019.372	2925.6391	994.4	106.35
1019.4869	2926.7445	994.1	106.9
1019.6017	2927.8493	997.6	109.15
1019.7165	2928.9534	996.35	109.85
1019.8313	2930.0569	1003.3	113.45
1019.946	2931.1597	998.55	108.9
1020.0606	2932.2619	998.8	111.45
1020.1753	2933.3634	998.2	109.45
1020.2899	2934.4643	1007.45	112.65
1020.4044	2935.5645	1007.85	113.8
1020.5189	2936.6641	1007.4	113.85
1020.6334	2937.763	1001	114.65
1020.7478	2938.8613	1004.75	118.4
1020.8622	2939.959	1009.9	117.4
1020.9765	2941.056	997.55	111.1
1021.0908	2942.1523	997.6	110.95
1021.2051	2943.248	993.7	106.55
1021.3193	2944.3431	988.4	101.55
1021.4334	2945.4375	983	95.95
1021.5476	2946.5313	975.15	87.25
1021.6617	2947.6244	973	83.9
1021.7757	2948.7169	967.85	79.95
1021.8897	2949.8087	961.65	74.9
1022.0037	2950.8999	960.95	73.8
1022.1176	2951.9904	954.1	67.3
1022.2315	2953.0803	953.1	65.05
1022.3453	2954.1696	951.05	63.25
1022.4591	2955.2582	948.75	63.9
1022.5728	2956.3462	949.05	62.55
1022.6865	2957.4335	948.9	61.85
1022.8002	2958.5202	945.6	57.75
1022.9138	2959.6062	946.85	59.15
1023.0274	2960.6916	946.55	57.5
1023.141	2961.7764	945.7	56.85
1023.2545	2962.8605	950.6	63.2
1023.3679	2963.9439	948.45	62.1
1023.4813	2965.0267	947.95	58.8
1023.5947	2966.1089	968.25	58.5
1023.708	2967.1905	943.25	53.6
1023.8213	2968.2714	943.1	56.8
1023.9346	2969.3516	943.55	55.6
1024.0478	2970.4312	949.25	54.55
1024.1609	2971.5102	944.5	56.35
1024.274	2972.5885	942.15	56.6
1024.3871	2973.6662	948.35	57
1024.5002	2974.7432	941.8	54.45
1024.6132	2975.8196	941.9	54.4
1024.7261	2976.8954	942.95	57.6
1024.839	2977.9705	942.55	55.9
1024.9519	2979.045	944.25	57.65
1025.0647	2980.1188	941.2	52.75
1025.1775	2981.192	940.75	55
1025.2902	2982.2645	941.85	53.55
1025.4029	2983.3364	941.2	53.05
1025.5156	2984.4077	936.9	50.65
1025.6282	2985.4783	942.9	50.3
1025.7407	2986.5483	936.45	50
1025.8532	2987.6177	935.35	49.55
1025.9657	2988.6864	933.1	44.35
1026.0782	2989.7545	933.9	44.8
1026.1906	2990.8219	929.9	40.7
1026.3029	2991.8887	932.05	43.3
1026.4152	2992.9548	930.2	42.1
1026.5275	2994.0204	926.8	40
1026.6397	2995.0852	921.85	36.3
1026.7519	2996.1495	924.1	37.3
1026.864	2997.2131	921	33.25
1026.9761	2998.276	920.95	33.05
1027.0882	2999.3383	920.25	31.95
1027.2002	3000.4	917.85	29.8
1027.3122	3001.4611	916.7	29.15
1027.4241	3002.5215	914.05	25.25
1027.536	3003.5812	915.15	28.65
1027.6478	3004.6404	912.25	23.85
1027.7596	3005.6989	913.8	22.95
1027.8714	3006.7567	912.7	25.15
1027.9831	3007.8139	943.5	26.25
1028.0947	3008.8705	910.85	22.2
1028.2064	3009.9264	928.05	23.15
1028.3179	3010.9818	909.15	21.45
1028.4295	3012.0364	910.45	22.35
1028.541	3013.0905	911.5	24.45
1028.6524	3014.1439	908.75	20.1
1028.7638	3015.1966	907.35	19.7
1028.8752	3016.2487	908.9	21.3
1028.9865	3017.3002	911.2	19.7
1029.0978	3018.3511	907.1	21.15
1029.209	3019.4013	904.9	16.85
1029.3202	3020.4509	905	16.95
1029.4314	3021.4998	908.3	20.7
1029.5425	3022.5481	907.6	19.95
1029.6535	3023.5958	907.2	20
1029.7645	3024.6428	908.75	22.25
1029.8755	3025.6892	905.05	20.05
1029.9864	3026.735	905.25	16.45
1030.0973	3027.7802	906.25	18.15
1030.2082	3028.8247	907.65	18.6
1030.319	3029.8685	907.55	19.25
1030.4297	3030.9118	908.6	19.65
1030.5404	3031.9544	907.45	22.9
1030.6511	3032.9963	905.4	17.95
1030.7617	3034.0376	906.55	20
1030.8723	3035.0783	906.6	17.4
1030.9829	3036.1184	907.15	18.65
1031.0934	3037.1578	906.5	19.95
1031.2038	3038.1966	908.35	20.65
1031.3142	3039.2348	904.15	17.75
1031.4246	3040.2723	916.15	18.4
1031.5349	3041.3092	903.9	17.65
1031.6452	3042.3455	906.5	20.4
1031.7554	3043.3811	905.55	17.95
1031.8656	3044.4161	906.45	18
1031.9758	3045.4505	905	19.55
1032.0859	3046.4842	907.15	18.8
1032.1959	3047.5173	904.2	18.7
1032.3059	3048.5498	907.05	18.95
1032.4159	3049.5816	905.5	19.05
1032.5258	3050.6128	909.8	21.8
1032.6357	3051.6434	908	18.5
1032.7455	3052.6734	906.15	17.3
1032.8553	3053.7027	906.3	19.4
1032.9651	3054.7314	905.5	20
1033.0748	3055.7594	906	18.5
1033.1845	3056.7868	905.95	17.25
1033.2941	3057.8136	907.25	21.15
1033.4037	3058.8398	906.9	19.35
1033.5132	3059.8653	907.15	20.55
1033.6227	3060.8902	908.2	22.6
1033.7321	3061.9145	907.3	18.3
1033.8415	3062.9381	905.35	15.5
1033.9509	3063.9612	921.75	18.25
1034.0602	3064.9835	907.15	18.55
1034.1694	3066.0053	911.65	22.3
1034.2787	3067.0264	909.55	22.2
1034.3878	3068.0469	909.1	21.3
1034.497	3069.0668	911.25	19.75
1034.6061	3070.086	906.8	18.85
1034.7151	3071.1046	911.4	20.7
1034.8241	3072.1226	911.05	22.25
1034.9331	3073.1399	905.3	18.9
1035.042	3074.1567	906.9	19.7
1035.1508	3075.1727	907.7	17.6
1035.2597	3076.1882	905.8	18.4
1035.3684	3077.203	905.75	18.6
1035.4772	3078.2173	906.5	18.45
1035.5859	3079.2308	908.8	18.8
1035.6945	3080.2438	908.8	18.8
1035.8031	3081.2561	903.9	15.75
1035.9117	3082.2678	904.95	18.1
1036.0202	3083.2789	903.05	15
1036.1286	3084.2893	903	14.7
1036.2371	3085.2991	904.2	16.85
1036.3454	3086.3083	905.85	12.65
1036.4538	3087.3169	904.1	16.05
1036.562	3088.3248	903.35	14.3
1036.6703	3089.3321	903.65	15.15
1036.7785	3090.3388	903.65	17.15
1036.8866	3091.3449	904.7	16.85
1036.9948	3092.3503	905.25	15.2
1037.1028	3093.3551	899.5	14.5
1037.2108	3094.3593	900.25	14.55
1037.3188	3095.3629	900.95	15.15
1037.4267	3096.3658	903.65	16.25
1037.5346	3097.3681	901	13.75
1037.6425	3098.3698	903.55	13.95
1037.7503	3099.3708	900.1	11.35
1037.858	3100.3713	901.6	14.55
1037.9657	3101.3711	901.9	13.4
1038.0734	3102.3702	1039.85	13.2
1038.181	3103.3688	903.55	14.25
1038.2886	3104.3667	900.95	16.15
1038.3961	3105.364	898.3	11.9
1038.5036	3106.3607	900.75	12.05
1038.611	3107.3568	901.6	13.9
1038.7184	3108.3522	900.25	14.1
1038.8257	3109.347	901	12.85
1038.933	3110.3412	901.9	9.05
1039.0403	3111.3348	898.65	11.15
1039.1475	3112.3277	900.45	12.9
1039.2547	3113.32	897.25	11.3
1039.3618	3114.3117	900.45	13.25
1039.4689	3115.3028	898.3	11.4
1039.5759	3116.2932	901.1	12.3
1039.6829	3117.2831	905.95	10.6
1039.7898	3118.2723	897.9	11.05
1039.8967	3119.2608	897.7	11.8
1040.0035	3120.2488	900.05	12.85
1040.1103	3121.2361	898.75	12.65
1040.2171	3122.2229	899.3	12.6
1040.3238	3123.209	899.15	10.8
1040.4305	3124.1944	897.7	11.2
1040.5371	3125.1793	897.95	10.25
1040.6437	3126.1635	897.95	11.9
1040.7502	3127.1471	895.4	9.8
1040.8567	3128.1301	897.85	10.35
1040.9631	3129.1125	897.65	10.05
1041.0695	3130.0942	898.4	11.05
1041.1759	3131.0753	907.55	10.15
1041.2822	3132.0558	899.05	9.05
1041.3884	3133.0357	897.7	11.3
1041.4946	3134.015	897.25	8.55
1041.6008	3134.9936	899.1	12.35
1041.7069	3135.9716	918.8	9.05
1041.813	3136.949	895.6	7.5
1041.919	3137.9258	915.15	8.55
1042.025	3138.902	901.4	7.45
1042.1309	3139.8775	896.9	9.85
1042.2368	3140.8524	896.3	10
1042.3427	3141.8267	899.6	11
1042.4485	3142.8004	896.95	9.35
1042.5542	3143.7735	903.95	10.9
1042.6599	3144.7459	899.45	10.05
1042.7656	3145.7178	897.05	9.25
1042.8712	3146.689	896.65	11.4
1042.9768	3147.6596	898.35	6.6
1043.0823	3148.6295	895.7	7.35
1043.1878	3149.5989	896.3	10.3
1043.2932	3150.5676	896.45	9.35
1043.3986	3151.5357	893.4	7.45
1043.5039	3152.5032	895.05	7.75
1043.6092	3153.4701	894.15	7.6
1043.7145	3154.4364	898.65	9.15
1043.8197	3155.402	894.95	6.95
1043.9248	3156.367	896.55	9.1
1044.03	3157.3315	933.9	10.8
1044.135	3158.2952	894.65	5.75
1044.24	3159.2584	893.05	4.8
1044.345	3160.221	896.6	8.5
1044.4499	3161.1829	892.55	3.5
1044.5548	3162.1442	896.3	9.3
1044.6596	3163.105	896.9	8.35
1044.7644	3164.065	897.05	10.9
1044.8692	3165.0245	898.9	9.25
1044.9739	3165.9834	894.15	8.7
1045.0785	3166.9416	896.2	10.25
1045.1831	3167.8993	896.95	8.9
1045.2877	3168.8563	892.65	5.8
1045.3922	3169.8127	894.6	8.15
1045.4966	3170.7684	895.8	9.15
1045.6011	3171.7236	895.9	8
1045.7054	3172.6782	893.65	4.9
1045.8098	3173.6321	895.55	7
1045.914	3174.5854	900.1	7.3
1046.0183	3175.5381	894.45	6.35
1046.1224	3176.4902	893.65	6.25
1046.2266	3177.4417	895.35	9
1046.3307	3178.3926	893.15	6.7
1046.4347	3179.3428	896.3	8.7
1046.5387	3180.2924	895.85	11
1046.6427	3181.2415	894	5.5
1046.7466	3182.1899	896.45	9.4
1046.8504	3183.1377	892.6	6.45
1046.9542	3184.0848	898.6	8.4
1047.058	3185.0314	895.35	7.35
1047.1617	3185.9773	894.1	5.05
1047.2654	3186.9227	897	9.1
1047.369	3187.8674	892.95	5.95
1047.4726	3188.8115	899.25	6.9
1047.5761	3189.755	893.75	5.6
1047.6796	3190.6979	893.2	6.8
1047.783	3191.6402	892.25	5.4
1047.8864	3192.5818	894.3	7.15
1047.9898	3193.5229	901.1	8.15
1048.0931	3194.4633	895.3	8.8
1048.1963	3195.4031	894.95	6.3
1048.2995	3196.3423	894.9	7.3
1048.4027	3197.2809	894.9	6.45
1048.5058	3198.2189	893.25	7.05
1048.6089	3199.1563	898.95	3.25
1048.7119	3200.0931	894.65	7.4
1048.8148	3201.0292	893.65	6.8
1048.9178	3201.9648	894.8	7.2
1049.0206	3202.8997	896.4	5.5
1049.1235	3203.834	894.2	7.2
1049.2262	3204.7677	893.6	4.7
1049.329	3205.7008	896.75	6.5
1049.4317	3206.6333	891.8	3.2
1049.5343	3207.5652	893.95	3.2
1049.6369	3208.4964	893.3	5.2
1049.7394	3209.4271	894.15	7.5
1049.8419	3210.3571	893.35	6.3
1049.9444	3211.2865	893	4.75
1050.0468	3212.2154	895.15	6.5
1050.1491	3213.1436	897.9	6.3
1050.2514	3214.0712	900.85	6.7
1050.3537	3214.9982	892.55	5.05
1050.4559	3215.9246	894.45	5.15
1050.5581	3216.8503	889.15	2.95
1050.6602	3217.7755	893.3	3.7
1050.7623	3218.7001	892.35	3.9
1050.8643	3219.624	895	5.75
1050.9663	3220.5473	894.25	5.1
1051.0682	3221.4701	893.05	5.15
1051.1701	3222.3922	895.45	7.2
1051.2719	3223.3137	893.65	7.7
1051.3737	3224.2346	893.3	5.7
1051.4754	3225.1549	893.15	5.05
1051.5771	3226.0746	893.4	6.4
1051.6788	3226.9937	896.3	8.6
1051.7804	3227.9121	892.05	5.25
1051.8819	3228.83	893.6	7.55
1051.9834	3229.7473	893.75	6.55
1052.0849	3230.6639	892.25	3.7
1052.1863	3231.5799	892.6	4.1
1052.2876	3232.4954	892.15	1.65
1052.3889	3233.4102	893.05	6.15
1052.4902	3234.3244	893	6
1052.5914	3235.238	894.4	6.55
1052.6926	3236.151	915.5	3.9
1052.7937	3237.0634	890.1	2.75
1052.8948	3237.9752	893.2	6.45
1052.9958	3238.8864	894.5	6.95
1053.0968	3239.797	890.35	1.25
1053.1977	3240.7069	893.5	3.9
1053.2986	3241.6163	893.95	3.4
1053.3994	3242.5251	890.2	2.4
1053.5002	3243.4332	891.1	3.85
1053.6009	3244.3408	893.05	2.85
1053.7016	3245.2477	891.85	4.75
1053.8022	3246.154	893.6	6.25
1053.9028	3247.0598	893.75	5.15
1054.0034	3247.9649	892.05	4
1054.1039	3248.8694	891.7	4.25
1054.2043	3249.7733	893.15	6.8
1054.3047	3250.6766	891.75	2.35
1054.4051	3251.5793	894.7	6.4
1054.5054	3252.4814	893.2	6.5
1054.6056	3253.3829	892.45	5.95
1054.7058	3254.2838	892.3	5.9
1054.806	3255.1841	891.15	4.7
1054.9061	3256.0838	892.25	5.95
1055.0061	3256.9829	892.5	5.85
1055.1062	3257.8814	893.65	2.25
1055.2061	3258.7792	893.15	3.15
1055.306	3259.6765	892.65	4.25
1055.4059	3260.5731	892.2	4.05
1055.5057	3261.4692	891.7	4.6
1055.6055	3262.3647	892.85	3.7
1055.7052	3263.2595	891.75	5.85
1055.8049	3264.1538	893.15	4.4
1055.9045	3265.0474	890.9	4.9
1056.0041	3265.9404	890.45	2.8
1056.1036	3266.8329	891.1	4.55
1056.2031	3267.7247	901.25	4.7
1056.3025	3268.616	892.4	3.75
1056.4019	3269.5066	892.1	2.4
1056.5013	3270.3966	893.8	4.85
1056.6005	3271.286	891.05	2.85
