Software Version:	3.9.2.0
Unit SN:	10000200
Spectrometer SN:	6960
Date:	3/14/2024 1:06:06 PM
Data Line Index:	25
Spectral Points:	2048
Integration time (ms):	125
Averages:	20
Delay (ms):	30000
Sequence Number:	1
Processing:	dark subtract
Laser Power (mW):	305
Laser Current (mA):	824
Laser Diode Temp (C):	25.1
Laser Case Temp (C):	28
System Temp (C):	28
Spectrometer Temp (C):	25.8
CCD Temp (C):	0.008
Secondary Temp (C):	20.007
Heatsink Temp (C):	23.934
CCDPCB Temp (C):	37.463
SecondaryPCB Temp (C):	35.084

Wavelength	RamanShift	Raw Counts	Dark Subtracted
787.061	30.1047	434.85	23.05
787.2016	32.3739	434.1	24.8
787.3422	34.6426	436.9	26
787.4828	36.9109	439.6	25.45
787.6235	39.1787	443	25.85
787.7642	41.4461	452.6	32.5
787.9049	43.7131	457.05	31.75
788.0456	45.9796	462.55	33.15
788.1863	48.2456	468.35	36.05
788.3271	50.5112	475.65	38.75
788.4679	52.7764	480.75	43.35
788.6087	55.0411	484.7	44.85
788.7496	57.3054	492.3	44.3
788.8904	59.5692	501.1	52.25
789.0313	61.8326	506.7	52.35
789.1722	64.0955	514.45	56.35
789.3132	66.3579	525.65	61.35
789.4541	68.6199	531.15	64.5
789.5951	70.8815	554.7	85.1
789.7361	73.1426	590	117.9
789.8771	75.4032	681.15	203.75
790.0181	77.6634	886.9	404.9
790.1592	79.9231	1412.75	926.9
790.3003	82.1824	2487.6	1994.35
790.4414	84.4412	4370.15	3868.85
790.5825	86.6995	7016	6500.95
790.7237	88.9574	9587.6	9063.25
790.8648	91.2148	11497	10968.75
791.006	93.4717	12441.8	11903.55
791.1472	95.7282	12734.05	12194.05
791.2885	97.9842	12753.25	12211.4
791.4297	100.2398	12524.2	11977.75
791.571	102.4949	12279.05	11732.8
791.7123	104.7495	12010.1	11457.3
791.8536	107.0036	11696.7	11143.85
791.9949	109.2573	11426.35	10872.8
792.1363	111.5105	11193	10637.7
792.2777	113.7632	10950.2	10393.4
792.4191	116.0154	10770.05	10202.25
792.5605	118.2672	10628.75	10068.25
792.7019	120.5185	10477.6	9916.55
792.8434	122.7693	10404.4	9838.85
792.9849	125.0197	10311.6	9746.1
793.1264	127.2696	10209.65	9638.1
793.2679	129.519	10170.1	9599.5
793.4094	131.7679	10098.45	9522.5
793.551	134.0163	10042.9	9464.2
793.6926	136.2642	9933.2	9349.65
793.8342	138.5117	9828.85	9242.85
793.9758	140.7587	9695.35	9111.25
794.1175	143.0052	9590.05	9002.15
794.2591	145.2512	9459.7	8871.4
794.4008	147.4967	9352.35	8759.55
794.5425	149.7417	9268	8674.45
794.6842	151.9863	9180.6	8584
794.826	154.2304	9132.25	8530.8
794.9677	156.4739	9108	8501.2
795.1095	158.717	9085.4	8480.7
795.2513	160.9596	9060.2	8449
795.3931	163.2017	8979.15	8366.95
795.535	165.4433	8913.6	8299.7
795.6768	167.6844	8798.05	8180.95
795.8187	169.925	8707.1	8086.85
795.9606	172.1651	8581.5	7958.9
796.1025	174.4047	8482.1	7856.95
796.2445	176.6439	8373.05	7747.95
796.3864	178.8825	8305.4	7674.55
796.5284	181.1206	8264.15	7627.65
796.6704	183.3582	8225.2	7585.15
796.8124	185.5954	8189.4	7550.3
796.9544	187.832	8159.85	7516
797.0965	190.0681	8151.8	7505.1
797.2386	192.3037	8146.55	7500
797.3806	194.5388	8126.35	7474.9
797.5228	196.7734	8150.25	7498.5
797.6649	199.0075	8175.7	7517.15
797.807	201.2411	8234.85	7574.95
797.9492	203.4742	8252	7591.15
798.0914	205.7068	8310.8	7649.25
798.2336	207.9389	8344.95	7683.4
798.3758	210.1704	8364.15	7696.65
798.518	212.4015	8411.85	7741.4
798.6603	214.632	8464.15	7795.75
798.8025	216.862	8486.25	7826.05
798.9448	219.0915	8494.6	7841.5
799.0871	221.3205	8510.55	7860.85
799.2294	223.549	8550	7902.7
799.3718	225.777	8559.95	7914.15
799.5141	228.0044	8584.6	7935.25
799.6565	230.2314	8597.35	7946.45
799.7989	232.4578	8600.8	7949.95
799.9413	234.6837	8644.05	7985.1
800.0837	236.909	8652.05	7994.45
800.2262	239.1339	8680.85	8000
800.3687	241.3582	8639.65	7970.45
800.5111	243.582	8638.7	7946.1
800.6536	245.8053	8596.5	7908.45
800.7961	248.0281	8548.9	7865.75
800.9387	250.2503	8539.7	7851.85
801.0812	252.472	8570.4	7877.35
801.2238	254.6932	8588	7894
801.3664	256.9139	8588.7	7891.9
801.509	259.134	8656.05	7958.25
801.6516	261.3536	8698.8	8000.95
801.7942	263.5727	8784.1	8085.25
801.9369	265.7912	8863.1	8164.65
802.0795	268.0092	8962.8	8265.95
802.2222	270.2267	9053.7	8350.55
802.3649	272.4436	9126.2	8423.65
802.5076	274.6601	9161.55	8451.5
802.6504	276.8759	9147.75	8441.25
802.7931	279.0913	9124.95	8418.55
802.9359	281.3061	9099.2	8389.8
803.0787	283.5204	9093.55	8383.4
803.2215	285.7341	9111.3	8395.05
803.3643	287.9473	9086.1	8370.6
803.5071	290.16	9100.65	8376.85
803.6499	292.3721	9121.65	8406.5
803.7928	294.5837	9106.35	8390.65
803.9357	296.7947	9124.45	8407.4
804.0786	299.0052	9185	8469.9
804.2215	301.2152	9171.15	8451.75
804.3644	303.4246	9167.75	8449.35
804.5074	305.6334	9089.35	8372.15
804.6503	307.8418	8979.85	8258.35
804.7933	310.0495	8846.5	8123.15
804.9363	312.2568	8718.1	7996.95
805.0793	314.4635	8560.75	7838.65
805.2223	316.6696	8433.4	7708.65
805.3653	318.8752	8325	7592.05
805.5084	321.0802	8254.35	7530.85
805.6514	323.2847	8248.5	7521.5
805.7945	325.4887	8251.6	7521.05
805.9376	327.692	8255.3	7528.1
806.0807	329.8949	8286.3	7557.6
806.2238	332.0972	8254	7523.65
806.367	334.2989	8191.2	7454.5
806.5101	336.5001	8104.75	7370.15
806.6533	338.7007	8041.85	7305.4
806.7965	340.9008	7974.9	7237
806.9397	343.1003	7903	7163.6
807.0829	345.2992	7843.6	7101.05
807.2261	347.4976	7793	7052.8
807.3693	349.6955	7714.8	6971.9
807.5126	351.8927	7697.4	6951
807.6559	354.0895	7669.75	6913.1
807.7991	356.2856	7644.9	6898.1
807.9424	358.4812	7602.7	6854.65
808.0857	360.6763	7613.45	6865.95
808.2291	362.8707	7588.4	6839.25
808.3724	365.0646	7597.3	6843.2
808.5158	367.258	7597.45	6843.85
808.6591	369.4508	7590.1	6828.95
808.8025	371.643	7626.35	6868.2
808.9459	373.8346	7678.45	6918.2
809.0893	376.0257	7704	6938.95
809.2327	378.2162	7715.3	6952.1
809.3762	380.4062	7712.85	6946.25
809.5196	382.5956	7671.2	6903.2
809.6631	384.7844	7619.2	6853.55
809.8066	386.9726	7532.8	6765.05
809.9501	389.1603	7517.9	6749.05
810.0936	391.3474	7486.4	6686.1
810.2371	393.5339	7464.85	6696.95
810.3806	395.7199	7412.8	6648.15
810.5241	397.9052	7428.65	6667.5
810.6677	400.09	7463.3	6701.7
810.8113	402.2743	7525	6765.85
810.9548	404.4579	7570.55	6810.5
811.0984	406.641	7654.35	6894.9
811.2421	408.8235	7704.25	6940.45
811.3857	411.0054	7747.15	6981.3
811.5293	413.1868	7863.6	7098.75
811.673	415.3675	7904.7	7136
811.8166	417.5477	7882.85	7115.6
811.9603	419.7273	7826.5	7054.45
812.104	421.9064	7752.05	6972.7
812.2477	424.0848	7675.45	6899.7
812.3914	426.2627	7626.4	6847.35
812.5351	428.4399	7531.75	6752.8
812.6788	430.6166	7412.95	6630.85
812.8226	432.7928	7272.8	6488.85
812.9663	434.9683	7133.65	6350.75
813.1101	437.1432	7072.05	6283.7
813.2539	439.3176	7001.1	6215.35
813.3977	441.4914	6949.55	6161.3
813.5415	443.6645	6936.15	6144.95
813.6853	445.8371	6907.35	6117.95
813.8291	448.0091	6885.75	6097.95
813.973	450.1806	6859.5	6071.35
814.1168	452.3514	6828.4	6037.5
814.2607	454.5216	6839.7	6041.3
814.4046	456.6913	6807.95	6015.05
814.5485	458.8603	6808.3	6014.9
814.6924	461.0288	6844.35	6053.45
814.8363	463.1967	6821.05	6028.8
814.9802	465.3639	6809.7	6012.9
815.1241	467.5306	6788.25	5994.65
815.2681	469.6967	6769.8	5972.75
815.412	471.8622	6754.75	5960.9
815.556	474.0271	6777.5	5981
815.7	476.1914	6752.9	5954.9
815.844	478.3551	6771.45	5975.95
815.988	480.5182	6794.05	5996.4
816.132	482.6807	6811.75	6011.6
816.276	484.8426	6862.2	6062.05
816.4201	487.0039	6965	6165.05
816.5641	489.1647	7085.2	6283.3
816.7082	491.3248	7185.95	6384.45
816.8522	493.4843	7220.85	6420.05
816.9963	495.6432	7195.75	6395.2
817.1404	497.8015	7117.45	6311.95
817.2845	499.9592	7084.95	6282.7
817.4286	502.1163	6987.5	6185.5
817.5727	504.2728	6877.7	6074.65
817.7168	506.4287	6775.2	5972.2
817.861	508.5839	6688.85	5881.9
818.0051	510.7386	6618.7	5816.2
818.1493	512.8927	6569.75	5755.8
818.2935	515.0461	6576.45	5770.4
818.4377	517.199	6579.95	5772.2
818.5818	519.3512	6639.05	5831.95
818.726	521.5029	6741.95	5929.45
818.8703	523.6539	6820.3	6009.55
819.0145	525.8043	6897.55	6088.3
819.1587	527.9541	6859.3	6047.6
819.303	530.1033	6771.4	5959.85
819.4472	532.2519	6700.95	5889.4
819.5915	534.3999	6635	5823.1
819.7357	536.5472	6640.8	5828.75
819.88	538.694	6657.6	5846.1
820.0243	540.8401	6734.4	5920.9
820.1686	542.9856	6813.9	6000.55
820.3129	545.1305	6818.05	6003.25
820.4572	547.2748	6800.25	5986.4
820.6016	549.4185	6745.8	5930.9
820.7459	551.5615	6699.45	5882.7
820.8902	553.704	6703.35	5888.4
821.0346	555.8458	6732.5	5916.65
821.1789	557.987	6754	5939.9
821.3233	560.1276	6823.4	6005.8
821.4677	562.2675	6940.2	6123.05
821.6121	564.4069	7092.05	6276.25
821.7565	566.5456	7258.1	6441.8
821.9009	568.6837	7328.65	6511.65
822.0453	570.8212	7205.85	6386.05
822.1897	572.958	6989.5	6170.9
822.3342	575.0942	6760.7	5940.15
822.4786	577.2299	6579.15	5757.55
822.6231	579.3648	6485.7	5663.65
822.7675	581.4992	6413.35	5592.4
822.912	583.6329	6443.25	5622.75
823.0565	585.766	6492.5	5669.95
823.201	587.8985	6534.35	5715.95
823.3454	590.0304	6597.35	5751.35
823.4899	592.1616	6575.5	5750.55
823.6345	594.2922	6534.95	5711.7
823.779	596.4222	6495.1	5672.1
823.9235	598.5515	6414.5	5591.85
824.068	600.6802	6306.85	5480.3
824.2126	602.8083	6239.45	5416.15
824.3571	604.9358	6229.8	5403.65
824.5017	607.0626	6217.2	5391.95
824.6462	609.1888	6247.3	5422.1
824.7908	611.3144	6291.9	5464.55
824.9354	613.4393	6354.5	5528.15
825.08	615.5636	6405.25	5579.25
825.2246	617.6873	6439.65	5614.6
825.3692	619.8103	6421.15	5591
825.5138	621.9327	6367.35	5536.05
825.6584	624.0544	6277.1	5446.85
825.803	626.1756	6187.4	5358.3
825.9477	628.2961	6134.45	5304.55
826.0923	630.4159	6088.2	5262.35
826.237	632.5351	6078.6	5248.35
826.3816	634.6537	6070.05	5241.2
826.5263	636.7716	6072.2	5240.5
826.6709	638.8889	6050.85	5217.15
826.8156	641.0056	6068.45	5236.1
826.9603	643.1216	6059.45	5227.2
827.105	645.237	6052.5	5218.6
827.2497	647.3518	6025.25	5192.2
827.3944	649.4659	5983.4	5149.15
827.5391	651.5793	5966.95	5132.4
827.6838	653.6922	5919.45	5086.15
827.8285	655.8043	5911.35	5076.75
827.9733	657.9159	5893.55	5056.3
828.118	660.0268	5892	5054.1
828.2627	662.137	5886.2	5048.9
828.4075	664.2466	5881.4	5043.8
828.5522	666.3556	5889.55	5053.35
828.697	668.4639	5852.6	5012.55
828.8418	670.5716	5844.25	5006.05
828.9865	672.6786	5820.95	4982.1
829.1313	674.785	5786.65	4947.65
829.2761	676.8907	5762.8	4925.7
829.4209	678.9958	5757.7	4919.15
829.5657	681.1002	5731.65	4890.3
829.7105	683.204	5741.15	4896.8
829.8553	685.3072	5709.3	4870.5
830.0001	687.4097	5700	4860.65
830.1449	689.5115	5686.05	4844
830.2898	691.6127	5704.9	4864.25
830.4346	693.7132	5697.85	4857.9
830.5794	695.8131	5697.1	4842.2
830.7243	697.9123	5701.25	4858.85
830.8691	700.0109	5709.25	4867.15
831.014	702.1089	5696.8	4854.3
831.1588	704.2061	5731.25	4888.4
831.3037	706.3028	5761.7	4918
831.4486	708.3987	5770.6	4927.3
831.5935	710.4941	5755.75	4914.1
831.7383	712.5887	5779.9	4936.45
831.8832	714.6827	5783.55	4935.1
832.0281	716.7761	5816.8	4973.45
832.173	718.8688	5847.7	5003.1
832.3179	720.9608	5890.6	5042.15
832.4628	723.0522	5935.95	5086.3
832.6077	725.1429	5931.05	5087
832.7527	727.233	5987.3	5144.35
832.8976	729.3224	6036.55	5187.25
833.0425	731.4112	6035.85	5189.5
833.1874	733.4993	5977.35	5127.55
833.3324	735.5867	5905.35	5057.25
833.4773	737.6735	5790.8	4942.2
833.6222	739.7596	5701.35	4851.55
833.7672	741.845	5665.45	4817.15
833.9122	743.9298	5625.95	4776.75
834.0571	746.014	5611.2	4762.7
834.2021	748.0974	5609	4760.55
834.347	750.1802	5588.65	4738.7
834.492	752.2624	5592.65	4744.55
834.637	754.3439	5577.6	4729.5
834.782	756.4247	5588.15	4729.75
834.9269	758.5048	5594.85	4745.5
835.0719	760.5843	5674.2	4823.6
835.2169	762.6631	5767.2	4916.8
835.3619	764.7413	5920.05	5071.35
835.5069	766.8188	6161.25	5310.25
835.6519	768.8956	6344.2	5490.75
835.7969	770.9718	6523.6	5671.7
835.9419	773.0473	6518.65	5669.05
836.0869	775.1221	6468.1	5615.75
836.232	777.1962	6378.6	5526.6
836.377	779.2697	6360.25	5505.15
836.522	781.3426	6424.9	5560.7
836.667	783.4147	6475.1	5623.8
836.8121	785.4862	6516.25	5664
836.9571	787.557	6430.5	5578
837.1021	789.6271	6271.7	5418.7
837.2472	791.6966	6032.35	5178
837.3922	793.7654	5783.55	4931
837.5373	795.8335	5619.35	4764.95
837.6823	797.901	5501.15	4647.2
837.8274	799.9678	5459.45	4602.9
837.9724	802.0339	5402.4	4548.75
838.1175	804.0993	5386.85	4522.3
838.2626	806.1641	5369.75	4512.55
838.4076	808.2282	5331.85	4478.55
838.5527	810.2916	5316.15	4459
838.6978	812.3544	5276.55	4425.5
838.8428	814.4164	5246.15	4393.5
838.9879	816.4778	5240.65	4384.55
839.133	818.5385	5228.6	4371.7
839.2781	820.5986	5269.1	4412.9
839.4232	822.658	5356.6	4498.15
839.5682	824.7166	5459.75	4604.95
839.7133	826.7747	5607.15	4752.95
839.8584	828.832	5811.15	4955.65
840.0035	830.8886	5963.45	5104.9
840.1486	832.9446	6066.7	5207.7
840.2937	834.9999	6019.25	5165.3
840.4388	837.0545	5919.7	5058.3
840.5839	839.1085	5790.35	4931.3
840.729	841.1618	5656.2	4794.9
840.8741	843.2143	5536.15	4679.5
841.0192	845.2662	5457.95	4601.55
841.1643	847.3175	5397.75	4540.4
841.3095	849.368	5350.8	4493.8
841.4546	851.4179	5309.7	4453.55
841.5997	853.467	5276.3	4418.35
841.7448	855.5155	5259.1	4400.2
841.8899	857.5633	5232.5	4374.65
842.0351	859.6105	5176.75	4319.5
842.1802	861.6569	5174.1	4317.05
842.3253	863.7027	5131	4271.2
842.4704	865.7478	5098.05	4238.6
842.6156	867.7922	5081.45	4222.9
842.7607	869.8359	5064.55	4202.15
842.9058	871.8789	5068.65	4209.7
843.0509	873.9212	5114.85	4220.25
843.1961	875.9629	5101	4241.6
843.3412	878.0039	5139.05	4279.05
843.4863	880.0441	5146.7	4285.8
843.6315	882.0837	5188.05	4327.65
843.7766	884.1226	5192.95	4331.55
843.9218	886.1609	5226.85	4366.25
844.0669	888.1984	5274.6	4415.5
844.212	890.2352	5345.65	4484.95
844.3572	892.2714	5355.75	4490.3
844.5023	894.3069	5331.6	4467.35
844.6475	896.3416	5256.5	4394.2
844.7926	898.3757	5192.2	4330.35
844.9377	900.4091	5147.65	4284.25
845.0829	902.4418	5117.85	4250.15
845.228	904.4739	5108.6	4244.35
845.3732	906.5052	5149.25	4286.2
845.5183	908.5358	5144	4282.35
845.6635	910.5658	5105.45	4241.15
845.8086	912.595	5038.6	4176.2
845.9538	914.6236	4961.55	4099.75
846.0989	916.6515	4904.1	4040.1
846.2441	918.6786	4838.95	3976.65
846.3892	920.7051	4826.2	3961.35
846.5344	922.7309	4839.35	3975.45
846.6795	924.756	4828.85	3963.25
846.8246	926.7804	4866.75	4000.15
846.9698	928.8041	4841.4	3974.2
847.1149	930.8272	4887	4022.35
847.2601	932.8495	4858.2	3992.3
847.4052	934.8711	4850.95	3987.7
847.5504	936.892	4823.8	3959.8
847.6955	938.9123	4820.55	3952.55
847.8407	940.9318	4847.35	3983.1
847.9858	942.9506	4871.95	4004.1
848.131	944.9688	4834.3	3970.55
848.2761	946.9862	4806.25	3938.8
848.4213	949.003	4736.5	3870.35
848.5664	951.019	4684.55	3818.5
848.7115	953.0344	4655.15	3792.5
848.8567	955.0491	4637.85	3770.05
849.0018	957.063	4617.4	3752.05
849.147	959.0763	4650.95	3786.75
849.2921	961.0888	4654.8	3784.45
849.4373	963.1007	4681.45	3815
849.5824	965.1119	4664.8	3798.05
849.7275	967.1223	4663	3798.35
849.8727	969.1321	4640.4	3775.4
850.0178	971.1412	4627.35	3761.25
850.1629	973.1495	4606.75	3740.3
850.3081	975.1572	4656.4	3758.1
850.4532	977.1641	4617.6	3753.5
850.5983	979.1704	4616.15	3750.3
850.7435	981.1759	4599.75	3729.4
850.8886	983.1808	4594.75	3724.05
851.0337	985.1849	4598	3718.5
851.1788	987.1884	4592.85	3722.15
851.324	989.1911	4622.35	3752.05
851.4691	991.1932	4633.2	3764.55
851.6142	993.1945	4623.55	3756.45
851.7593	995.1951	4602.35	3733.35
851.9045	997.1951	4592.35	3719.75
852.0496	999.1943	4580.3	3711.85
852.1947	1001.1928	4584.15	3715.25
852.3398	1003.1906	4585.75	3715.55
852.4849	1005.1877	4630.35	3759.55
852.63	1007.1841	4672.45	3803.15
852.7751	1009.1798	4673.9	3805.65
852.9202	1011.1748	4649.6	3782.25
853.0653	1013.1691	4614.45	3744.15
853.2104	1015.1627	4526.6	3658.55
853.3555	1017.1556	4442.75	3575.4
853.5006	1019.1477	4399.8	3528.95
853.6457	1021.1392	4348.3	3478.3
853.7908	1023.1299	4336.35	3466.05
853.9359	1025.12	4316.4	3444.75
854.081	1027.1093	4330.85	3461.15
854.2261	1029.0979	4374.65	3504.85
854.3712	1031.0859	4424.55	3557.2
854.5163	1033.0731	4416.45	3545.2
854.6613	1035.0596	4414.75	3545.75
854.8064	1037.0454	4378.75	3508.35
854.9515	1039.0304	4323.3	3451.95
855.0965	1041.0148	4278.35	3408.35
855.2416	1042.9985	4241.15	3368.75
855.3867	1044.9814	4205.6	3335.85
855.5317	1046.9636	4178.8	3305.75
855.6768	1048.9452	4175.1	3306
855.8219	1050.926	4194.1	3324.95
855.9669	1052.9061	4195.4	3327.8
856.112	1054.8855	4204.15	3334
856.257	1056.8642	4219.25	3348.15
856.4021	1058.8421	4236.65	3361.9
856.5471	1060.8194	4244.45	3372.15
856.6921	1062.7959	4229.65	3358.3
856.8372	1064.7717	4235.3	3364.35
856.9822	1066.7469	4259.15	3386
857.1272	1068.7213	4280.8	3407.1
857.2723	1070.695	4293.15	3422
857.4173	1072.6679	4318.55	3446.2
857.5623	1074.6402	4360.35	3488.3
857.7073	1076.6117	4352.35	3474.25
857.8523	1078.5826	4304.9	3432
857.9973	1080.5527	4238.7	3363.8
858.1423	1082.5221	4182.85	3312.3
858.2873	1084.4908	4152.6	3280.75
858.4323	1086.4587	4132.6	3259.4
858.5773	1088.426	4144.5	3272.15
858.7223	1090.3925	4139.6	3262.55
858.8673	1092.3584	4144.35	3273.35
859.0123	1094.3235	4137.15	3264.85
859.1573	1096.2879	4170.4	3298.3
859.3022	1098.2515	4205.1	3331.65
859.4472	1100.2145	4262.15	3391.05
859.5922	1102.1767	4309.1	3432.85
859.7371	1104.1382	4406.05	3534.4
859.8821	1106.099	4479.2	3604.95
860.027	1108.0591	4566.65	3693.75
860.172	1110.0185	4640.55	3766.6
860.3169	1111.9771	4696.95	3822.1
860.4619	1113.9351	4650.55	3776.65
860.6068	1115.8923	4618.65	3747.75
860.7517	1117.8488	4601.3	3725
860.8967	1119.8045	4531	3657.4
861.0416	1121.7596	4451.05	3576.75
861.1865	1123.7139	4361.75	3489.35
861.3314	1125.6675	4323.9	3450
861.4763	1127.6204	4343	3469.5
861.6212	1129.5726	4307.25	3432.35
861.7661	1131.524	4305.85	3433.75
861.911	1133.4748	4264.95	3391.4
862.0559	1135.4248	4182.55	3308.5
862.2008	1137.3741	4111.7	3238.8
862.3457	1139.3226	4050.2	3172.15
862.4905	1141.2705	4050.25	3177.55
862.6354	1143.2176	4010.65	3129.7
862.7803	1145.164	4028.8	3151.5
862.9251	1147.1097	3989.45	3114.25
863.07	1149.0546	3948.55	3072.45
863.2148	1150.9989	3903.55	3029.8
863.3597	1152.9424	3859.45	2984.6
863.5045	1154.8852	3814.35	2940.3
863.6493	1156.8272	3791.5	2919.05
863.7942	1158.7686	3791.7	2910.4
863.939	1160.7092	3787.25	2912.05
864.0838	1162.6491	3797.35	2920.5
864.2286	1164.5883	3813.15	2939.7
864.3734	1166.5267	3847.2	2973.35
864.5182	1168.4644	3907.95	3032.55
864.663	1170.4014	3958.9	3080.2
864.8078	1172.3377	4034.75	3159.65
864.9526	1174.2732	4135.05	3261.15
865.0974	1176.2081	4267.8	3391.05
865.2421	1178.1421	4445.35	3565.8
865.3869	1180.0755	4650.05	3777.55
865.5317	1182.0082	4802.8	3927
865.6764	1183.9401	4871.25	3995
865.8212	1185.8713	4824.5	3948.1
865.9659	1187.8017	4680.4	3803.4
866.1106	1189.7315	4513.5	3639.4
866.2554	1191.6605	4357.45	3452.1
866.4001	1193.5888	4201.85	3325.7
866.5448	1195.5163	4111.45	3236.95
866.6895	1197.4432	4060.5	3181.75
866.8342	1199.3693	4020.85	3145.7
866.9789	1201.2947	4013.35	3131.1
867.1236	1203.2193	3992.95	3118.4
867.2683	1205.1432	3981.65	3107.2
867.413	1207.0664	3981.15	3105.55
867.5576	1208.9889	3971.3	3089.5
867.7023	1210.9106	3971.15	3095
867.847	1212.8316	3961.45	3087.2
867.9916	1214.7519	3991.05	3105.6
868.1363	1216.6715	3999.65	3123.65
868.2809	1218.5903	4032.7	3157.95
868.4255	1220.5084	4063.9	3186.2
868.5701	1222.4257	4080.95	3205.1
868.7148	1224.3424	4093.8	3218.25
868.8594	1226.2583	4158.35	3278.05
869.004	1228.1735	4196.05	3316.2
869.1486	1230.0879	4269.1	3392.55
869.2932	1232.0016	4344.4	3467.45
869.4377	1233.9146	4419.7	3540.95
869.5823	1235.8269	4447.1	3570.7
869.7269	1237.7384	4437.7	3561.35
869.8715	1239.6492	4386.6	3511.3
870.016	1241.5592	4369.15	3491.15
870.1606	1243.4686	4377.75	3501.3
870.3051	1245.3772	4451.45	3573
870.4496	1247.285	4556.6	3678.9
870.5941	1249.1922	4669.9	3794.7
870.7387	1251.0986	4744.65	3867
870.8832	1253.0042	4814.15	3938.35
871.0277	1254.9092	4877.75	4000.15
871.1722	1256.8134	4929.15	4053.35
871.3167	1258.7169	4998.65	4122.6
871.4611	1260.6196	5046.85	4170.55
871.6056	1262.5216	5103.05	4223.5
871.7501	1264.4229	5148.65	4271.2
871.8945	1266.3234	5216.05	4337.25
872.039	1268.2232	5251.2	4372.4
872.1834	1270.1223	5272	4393.7
872.3278	1272.0207	5286.55	4408.3
872.4723	1273.9183	5273.1	4390.75
872.6167	1275.8151	5233.55	4358.45
872.7611	1277.7113	5210.35	4331.1
872.9055	1279.6067	5237.35	4357.2
873.0499	1281.5014	5352.8	4473
873.1943	1283.3953	5554.55	4674.25
873.3386	1285.2885	5797.3	4920.35
873.483	1287.181	6063.4	5185.5
873.6274	1289.0727	6332.35	5450.9
873.7717	1290.9637	6546.85	5668.2
873.9161	1292.854	6675.95	5798.15
874.0604	1294.7435	6690.85	5813.25
874.2047	1296.6323	6624.45	5744.05
874.349	1298.5204	6502.2	5620.05
874.4933	1300.4077	6353.8	5475.7
874.6376	1302.2943	6194.4	5316.05
874.7819	1304.1802	6005.05	5127.6
874.9262	1306.0653	5815.15	4937.3
875.0705	1307.9497	5573.55	4694.05
875.2147	1309.8333	5415.45	4536.45
875.359	1311.7162	5236.6	4359.35
875.5032	1313.5984	5160.55	4278.75
875.6475	1315.4798	5135.15	4245.25
875.7917	1317.3605	5073.7	4192.65
875.9359	1319.2405	5062.5	4183.2
876.0801	1321.1197	5001.75	4122.15
876.2243	1322.9982	4878.9	3995.9
876.3685	1324.876	4752.5	3873.35
876.5127	1326.753	4610.85	3732.5
876.6569	1328.6293	4498.35	3619.2
876.801	1330.5048	4381.35	3499.65
876.9452	1332.3796	4302.7	3426.05
877.0893	1334.2537	4230.9	3327.9
877.2335	1336.127	4161.15	3282.75
877.3776	1337.9996	4111.5	3233.8
877.5217	1339.8714	4079.7	3201.25
877.6658	1341.7426	4105.75	3181.1
877.8099	1343.6129	4078.75	3199.95
877.954	1345.4826	4058.1	3178.2
878.0981	1347.3515	4059.3	3178.45
878.2422	1349.2196	4039.6	3160.25
878.3862	1351.087	4044.75	3166.15
878.5303	1352.9537	4043.75	3165.9
878.6743	1354.8197	4070	3189.5
878.8184	1356.6849	4126.65	3245.95
878.9624	1358.5493	4174	3293.85
879.1064	1360.4131	4226.6	3348.7
879.2504	1362.276	4301.25	3422.6
879.3944	1364.1383	4354.05	3473.65
879.5384	1365.9998	4342.1	3458.15
879.6823	1367.8606	4258.1	3379.2
879.8263	1369.7206	4162.7	3282.8
879.9702	1371.5799	4082.15	3203
880.1142	1373.4384	3982.3	3103.15
880.2581	1375.2962	3914.9	3036.15
880.402	1377.1533	3811.3	2931.95
880.5459	1379.0096	3696.25	2816.4
880.6898	1380.8652	3577.65	2696.45
880.8337	1382.7201	3475.55	2596.15
880.9776	1384.5742	3385.15	2504.5
881.1215	1386.4275	3332.75	2451.3
881.2653	1388.2802	3293.3	2413.6
881.4092	1390.132	3242.65	2362.1
881.553	1391.9832	3240.45	2359.55
881.6968	1393.8336	3183.45	2302.9
881.8406	1395.6832	3182.45	2302.05
881.9844	1397.5322	3161.95	2281.7
882.1282	1399.3803	3157.05	2272.9
882.272	1401.2278	3136.5	2255.65
882.4158	1403.0745	3127.15	2247.3
882.5595	1404.9204	3105.15	2227.55
882.7033	1406.7656	3101.8	2218.3
882.847	1408.6101	3100.05	2219.85
882.9908	1410.4538	3106.4	2225.6
883.1345	1412.2968	3099.85	2219.25
883.2782	1414.139	3119.75	2240.6
883.4219	1415.9805	3137.55	2259.4
883.5656	1417.8213	3166.05	2280.3
883.7092	1419.6613	3191.4	2312.25
883.8529	1421.5006	3241.95	2361.95
883.9965	1423.3391	3335.15	2456.95
884.1402	1425.1769	3412.45	2529.75
884.2838	1427.0139	3560.6	2679.7
884.4274	1428.8502	3739.95	2859.6
884.571	1430.6858	3901.05	3021
884.7146	1432.5206	4032.8	3151.2
884.8582	1434.3547	4101.85	3221.2
885.0018	1436.188	4118.65	3239.4
885.1453	1438.0206	4088.15	3209
885.2889	1439.8524	4046.85	3166
885.4324	1441.6835	4010.65	3129.1
885.5759	1443.5139	3964.55	3080.55
885.7194	1445.3435	3947.45	3067.5
885.8629	1447.1724	3918.45	3039.2
886.0064	1449.0005	3932.45	3051.9
886.1499	1450.8279	3904.95	3023.45
886.2933	1452.6545	3881.25	3000.55
886.4368	1454.4804	3909.5	3029.25
886.5802	1456.3056	3907.9	3022.1
886.7237	1458.13	3879.35	2999.6
886.8671	1459.9536	3839.85	2959
887.0105	1461.7766	3750.95	2871.75
887.1539	1463.5987	3657.85	2775.85
887.2972	1465.4202	3553.35	2672.4
887.4406	1467.2409	3436.3	2553
887.584	1469.0608	3342.05	2461.5
887.7273	1470.88	3237.1	2355.35
887.8706	1472.6984	3164.35	2282.4
888.0139	1474.5161	3106.6	2224.35
888.1572	1476.3331	3050.5	2169.95
888.3005	1478.1493	3014.95	2133.95
888.4438	1479.9648	2989.25	2111.1
888.5871	1481.7795	2952.05	2072
888.7303	1483.5935	2923.65	2045.35
888.8736	1485.4067	2932.3	2050.85
889.0168	1487.2192	2917.35	2034.75
889.16	1489.031	2915.9	2033.05
889.3032	1490.842	2890.3	2008.95
889.4464	1492.6522	2900.85	2021.8
889.5896	1494.4618	2881.75	2000.95
889.7327	1496.2705	2874.05	1995.4
889.8759	1498.0785	2859.1	1977.75
890.019	1499.8858	2857.3	1976.9
890.1622	1501.6924	2832.5	1951.85
890.3053	1503.4981	2824	1942.9
890.4484	1505.3032	2817.45	1936.95
890.5914	1507.1075	2782.8	1901.05
890.7345	1508.911	2780.3	1901.55
890.8776	1510.7138	2776.85	1896.8
891.0206	1512.5159	2746.15	1864.9
891.1637	1514.3172	2734.65	1853.85
891.3067	1516.1178	2715.5	1833.8
891.4497	1517.9176	2707.35	1825.4
891.5927	1519.7166	2683.25	1803.95
891.7357	1521.515	2684.25	1796.3
891.8786	1523.3126	2680.5	1800.6
892.0216	1525.1094	2679.45	1796.25
892.1645	1526.9055	2647.7	1767.65
892.3074	1528.7008	2637.75	1757
892.4503	1530.4954	2633.75	1745.8
892.5932	1532.2893	2624.5	1744.7
892.7361	1534.0824	2627.1	1741.75
892.879	1535.8747	2615.55	1734.7
893.0218	1537.6663	2610.35	1727.6
893.1647	1539.4572	2614.95	1731.8
893.3075	1541.2473	2617.15	1734.15
893.4503	1543.0367	2602.75	1722.45
893.5931	1544.8253	2612.95	1727.25
893.7359	1546.6132	2620.95	1740.05
893.8787	1548.4003	2623.35	1732.15
894.0214	1550.1867	2629.5	1739.2
894.1642	1551.9723	2662.65	1777.1
894.3069	1553.7572	2683.6	1801.55
894.4496	1555.5414	2713.4	1832.25
894.5923	1557.3247	2752.4	1870.05
894.735	1559.1074	2814.05	1933
894.8777	1560.8893	2871.7	1991.95
895.0204	1562.6705	2932.6	2051.8
895.163	1564.4509	2986.55	2105
895.3056	1566.2305	3022.3	2142.4
895.4482	1568.0094	3046.45	2166.8
895.5908	1569.7876	3049.35	2167.35
895.7334	1571.565	3046.5	2163.75
895.876	1573.3417	3049.95	2168.4
896.0186	1575.1176	3063.25	2184.4
896.1611	1576.8928	3071.55	2189.4
896.3036	1578.6672	3077.15	2196
896.4461	1580.4409	3101.9	2219.3
896.5886	1582.2138	3119.3	2237.35
896.7311	1583.986	3165.3	2282.6
896.8736	1585.7575	3203.45	2323.8
897.0161	1587.5282	3235	2355.8
897.1585	1589.2981	3275.2	2394.05
897.3009	1591.0673	3305.35	2424.45
897.4433	1592.8358	3338.45	2457.8
897.5857	1594.6035	3372.45	2488.95
897.7281	1596.3704	3380.3	2498.25
897.8705	1598.1366	3394.5	2512.6
898.0128	1599.9021	3384.1	2503.85
898.1551	1601.6668	3395.15	2511.45
898.2975	1603.4308	3417.25	2535.5
898.4398	1605.194	3433.7	2547.65
898.5821	1606.9564	3488.95	2607.6
898.7243	1608.7182	3560.65	2675.15
898.8666	1610.4791	3658.6	2777.1
899.0088	1612.2394	3769.1	2890.4
899.1511	1613.9988	3921.05	3039.45
899.2933	1615.7576	4049.75	3170.85
899.4355	1617.5156	4151.9	3263.45
899.5776	1619.2728	4196.35	3317.85
899.7198	1621.0293	4171.05	3292.5
899.862	1622.785	4095	3210.8
900.0041	1624.54	3974.95	3091.05
900.1462	1626.2942	3827.4	2944.6
900.2883	1628.0477	3650.6	2766.9
900.4304	1629.8005	3506.25	2619.55
900.5725	1631.5525	3358	2477.15
900.7145	1633.3037	3235.25	2353.6
900.8566	1635.0542	3132.6	2250.1
900.9986	1636.804	3040.8	2157.95
901.1406	1638.553	3031.05	2088.1
901.2826	1640.3013	2928.75	2047.1
901.4245	1642.0488	2903.75	2023.25
901.5665	1643.7955	2880	1998.6
901.7085	1645.5416	2881.15	2000.55
901.8504	1647.2868	2890.65	2008
901.9923	1649.0313	2886.35	2005.5
902.1342	1650.7751	2925.4	2040.05
902.2761	1652.5181	2932.35	2051.05
902.4179	1654.2604	2959.7	2077.4
902.5598	1656.0019	2999.85	2118.15
902.7016	1657.7427	3059.45	2178.2
902.8434	1659.4828	3151.05	2270.25
902.9852	1661.222	3221.15	2340.95
903.127	1662.9606	3248.45	2367.9
903.2687	1664.6984	3228.65	2346.55
903.4105	1666.4354	3148.95	2268.35
903.5522	1668.1717	3013.55	2132.5
903.6939	1669.9072	2841.55	1962.65
903.8356	1671.642	2697.5	1814.15
903.9773	1673.3761	2577.25	1697.75
904.119	1675.1094	2486.2	1605.95
904.2606	1676.8419	2408.15	1527.3
904.4022	1678.5737	2345.3	1463.95
904.5439	1680.3048	2310.65	1430.8
904.6855	1682.0351	2280.65	1399.2
904.827	1683.7646	2239.9	1356.5
904.9686	1685.4934	2224.05	1344.25
905.1101	1687.2215	2202.3	1322.3
905.2517	1688.9488	2173.35	1291.3
905.3932	1690.6754	2160.3	1280.1
905.5347	1692.4012	2148.45	1267.05
905.6761	1694.1263	2133.7	1252.35
905.8176	1695.8506	2123.5	1242.2
905.9591	1697.5742	2115.7	1234.95
906.1005	1699.297	2102.75	1220.85
906.2419	1701.0191	2093.1	1212.9
906.3833	1702.7404	2087.5	1206
906.5246	1704.461	2079.95	1196.4
906.666	1706.1808	2066.6	1184.55
906.8073	1707.8999	2060.45	1177
906.9487	1709.6182	2046.05	1162.5
907.09	1711.3358	2042.6	1160.5
907.2313	1713.0527	2027.3	1146.7
907.3725	1714.7688	2044.95	1155.55
907.5138	1716.4841	2023	1140.8
907.655	1718.1987	2023.8	1136.25
907.7962	1719.9126	2006.25	1124.5
907.9374	1721.6257	2001.4	1114.05
908.0786	1723.338	1993.3	1110.75
908.2198	1725.0496	2000.65	1118.15
908.3609	1726.7605	1996.9	1116
908.502	1728.4706	1978.2	1095.15
908.6431	1730.18	1980.4	1094.7
908.7842	1731.8886	1980.8	1099.65
908.9253	1733.5964	1972.55	1083.75
909.0664	1735.3036	1968.15	1082.3
909.2074	1737.0099	1957	1075.3
909.3484	1738.7156	1957.05	1073.55
909.4894	1740.4204	1950.05	1064.9
909.6304	1742.1246	1946.65	1064.85
909.7714	1743.8279	1939.95	1058.95
909.9123	1745.5306	1933.9	1050.5
910.0532	1747.2325	1936.9	1054.25
910.1941	1748.9336	1926.85	1044.25
910.335	1750.634	1920.5	1037.85
910.4759	1752.3336	1926.75	1046.6
910.6168	1754.0325	1922	1040.8
910.7576	1755.7307	1912.7	1029.15
910.8984	1757.4281	1919.25	1037.95
911.0392	1759.1247	1919.05	1029.15
911.18	1760.8206	1913.7	1025.95
911.3208	1762.5158	1914.95	1028.45
911.4615	1764.2102	1898.75	1018.25
911.6022	1765.9039	1900.55	1017.05
911.7429	1767.5968	1894.15	1012.65
911.8836	1769.289	1900.4	1017.8
912.0243	1770.9804	1889.6	1008.05
912.1649	1772.6711	1894	1011.2
912.3056	1774.361	1888.5	1006.75
912.4462	1776.0502	1880.1	998.75
912.5868	1777.7386	1887.5	1002.7
912.7274	1779.4263	1872.5	991
912.8679	1781.1132	1879.1	996.75
913.0084	1782.7994	1871.7	988.45
913.149	1784.4849	1870.15	988.8
913.2895	1786.1696	1880.75	979.1
913.4299	1787.8535	1876.05	995.45
913.5704	1789.5367	1857.35	975.1
913.7108	1791.2192	1862	980.25
913.8513	1792.9009	1871.9	975.25
913.9917	1794.5818	1851.25	968.15
914.132	1796.2621	1843.7	962.8
914.2724	1797.9415	1845.8	963.2
914.4128	1799.6202	1850	966.6
914.5531	1801.2982	1834.95	952.3
914.6934	1802.9755	1840.2	958.85
914.8337	1804.6519	1837.25	955.2
914.9739	1806.3277	1834.45	953.7
915.1142	1808.0027	1826.95	946.45
915.2544	1809.6769	1827.9	944.15
915.3946	1811.3504	1821.85	940.1
915.5348	1813.0231	1827.1	943.45
915.675	1814.6951	1826.1	945.55
915.8151	1816.3664	1826.15	943
915.9553	1818.0369	1817.9	935.3
916.0954	1819.7067	1810.65	927.7
916.2355	1821.3757	1819.3	935.7
916.3755	1823.044	1819.5	938.45
916.5156	1824.7115	1816.1	934.4
916.6556	1826.3783	1802	922.1
916.7956	1828.0443	1796.15	915.4
916.9356	1829.7096	1798.05	915.95
917.0756	1831.3741	1802.95	918.85
917.2155	1833.0379	1793.65	911.25
917.3555	1834.701	1793.2	909.3
917.4954	1836.3633	1781.4	898.1
917.6353	1838.0248	1787.7	903.45
917.7751	1839.6856	1789.25	906.05
917.915	1841.3457	1771.85	891
918.0548	1843.005	1778.85	899.2
918.1946	1844.6636	1781.05	899.55
918.3344	1846.3214	1781.85	900.65
918.4742	1847.9785	1768.6	888.6
918.6139	1849.6349	1766.15	883.7
918.7537	1851.2904	1773.85	883.45
918.8934	1852.9453	1768.4	886.4
919.0331	1854.5994	1777.75	892.6
919.1727	1856.2528	1773.65	886.85
919.3124	1857.9054	1760.9	878.7
919.452	1859.5572	1757.5	876.15
919.5916	1861.2083	1772.25	888.55
919.7312	1862.8587	1760.25	879.15
919.8708	1864.5084	1764.15	882.35
920.0103	1866.1572	1750.85	870.4
920.1498	1867.8054	1748.65	867.9
920.2893	1869.4528	1743.55	861.7
920.4288	1871.0994	1751.3	868.35
920.5683	1872.7453	1749.25	866.65
920.7077	1874.3905	1761.3	859
920.8471	1876.0349	1734.3	852.8
920.9865	1877.6786	1733.35	849.05
921.1259	1879.3215	1735.75	854.95
921.2653	1880.9637	1734.35	850.3
921.4046	1882.6051	1736.85	855.2
921.5439	1884.2458	1718.15	831.85
921.6832	1885.8858	1728.85	846
921.8225	1887.525	1719.35	837.5
921.9617	1889.1634	1724.2	843.2
922.101	1890.8011	1717.95	835.25
922.2402	1892.4381	1717.65	835.9
922.3794	1894.0743	1709.65	829.65
922.5185	1895.7098	1713.9	832.35
922.6577	1897.3446	1709.8	827.4
922.7968	1898.9786	1708.35	819.95
922.9359	1900.6118	1711.7	831.45
923.075	1902.2443	1700.8	816.8
923.214	1903.8761	1697	816.8
923.3531	1905.5071	1692.25	807.4
923.4921	1907.1374	1690.2	807.5
923.6311	1908.7669	1680.2	798.45
923.77	1910.3957	1683.45	801.55
923.909	1912.0237	1688.05	805.8
924.0479	1913.651	1684.2	800.05
924.1868	1915.2776	1677.2	796.85
924.3257	1916.9034	1679.75	799
924.4646	1918.5285	1677.4	798.45
924.6034	1920.1528	1669.65	785.9
924.7422	1921.7764	1673.85	794.4
924.881	1923.3992	1662.5	779.45
925.0198	1925.0213	1659.25	778.4
925.1586	1926.6427	1660.15	778.85
925.2973	1928.2633	1763.75	775.35
925.436	1929.8832	1661.2	777.45
925.5747	1931.5023	1656.35	771.9
925.7134	1933.1207	1649.75	768.65
925.852	1934.7383	1650.85	768
925.9906	1936.3552	1646.95	767.05
926.1292	1937.9714	1643.7	761.3
926.2678	1939.5868	1645.65	760.4
926.4064	1941.2015	1634.75	751.25
926.5449	1942.8154	1635.1	754.75
926.6834	1944.4286	1633.7	753.55
926.8219	1946.041	1649.65	745.25
926.9604	1947.6528	1625.8	740.35
927.0988	1949.2637	1616.15	734.2
927.2372	1950.8739	1619.6	736.7
927.3756	1952.4834	1623.8	741.3
927.514	1954.0921	1624.25	742.6
927.6523	1955.7001	1620.95	734.4
927.7907	1957.3074	1612.15	731.3
927.929	1958.9139	1610.6	727.25
928.0673	1960.5197	1613.9	730.65
928.2055	1962.1247	1612.15	731.25
928.3438	1963.729	1602.55	721.5
928.482	1965.3325	1622.05	717.4
928.6202	1966.9353	1604.15	721.8
928.7584	1968.5374	1604.45	721.75
928.8965	1970.1387	1596.1	713.75
929.0346	1971.7393	1589.45	708.3
929.1727	1973.3392	1590	710.2
929.3108	1974.9383	1591.6	710.55
929.4489	1976.5366	1584.75	704.05
929.5869	1978.1342	1583.6	699.75
929.7249	1979.7311	1586.85	702.15
929.8629	1981.3273	1582.25	698.3
930.0009	1982.9227	1573	689
930.1388	1984.5173	1572.95	691
930.2767	1986.1112	1576.15	695.2
930.4146	1987.7044	1567.55	686.55
930.5525	1989.2968	1569.8	685.85
930.6904	1990.8885	1569.9	682.7
930.8282	1992.4795	1576.45	692.6
930.966	1994.0697	1556.85	675.35
931.1038	1995.6592	1557.6	675.15
931.2415	1997.2479	1560.1	677.5
931.3793	1998.8359	1564.5	682.75
931.517	2000.4232	1558.75	676.15
931.6547	2002.0097	1553	673.25
931.7923	2003.5955	1552.05	669.3
931.93	2005.1805	1555.65	670.35
932.0676	2006.7648	1555.55	674.1
932.2052	2008.3484	1549	665.7
932.3427	2009.9312	1550.95	666.1
932.4803	2011.5133	1551.95	670.45
932.6178	2013.0946	1546.85	661.4
932.7553	2014.6752	1541.55	659.55
932.8928	2016.2551	1543.55	660.4
933.0302	2017.8342	1534.3	651.5
933.1676	2019.4126	1535.25	654.25
933.305	2020.9902	1534.6	651.5
933.4424	2022.5672	1539.55	654
933.5798	2024.1433	1535.75	646.15
933.7171	2025.7188	1530.4	650.1
933.8544	2027.2935	1529.8	645.7
933.9917	2028.8674	1521.95	640.95
934.129	2030.4406	1523.2	642.9
934.2662	2032.0131	1522.95	641.5
934.4034	2033.5849	1522.7	634
934.5406	2035.1559	1518.4	638.1
934.6778	2036.7261	1524.35	642.7
934.8149	2038.2957	1516	634.4
934.952	2039.8645	1517.65	634.95
935.0891	2041.4325	1514	629.9
935.2262	2042.9998	1510	626.25
935.3632	2044.5664	1511.65	627.3
935.5002	2046.1323	1506.25	622.45
935.6372	2047.6974	1512.05	628.75
935.7742	2049.2617	1506.35	624.5
935.9111	2050.8254	1513.75	608.65
936.048	2052.3883	1506.9	625.65
936.1849	2053.9504	1506.3	623.7
936.3218	2055.5118	1499.5	615.65
936.4586	2057.0725	1498.25	611.55
936.5955	2058.6325	1498.9	616.3
936.7323	2060.1917	1505.3	622.1
936.869	2061.7502	1495.05	608
937.0058	2063.3079	1479.9	597.3
937.1425	2064.8649	1495.15	609.75
937.2792	2066.4212	1490.55	608.55
937.4159	2067.9767	1487.1	604.45
937.5525	2069.5315	1488.3	605.15
937.6891	2071.0856	1484.05	601.7
937.8257	2072.6389	1482.85	599.6
937.9623	2074.1915	1478.6	595.55
938.0989	2075.7433	1470.1	586.15
938.2354	2077.2945	1469.15	585.95
938.3719	2078.8448	1476.5	594.25
938.5084	2080.3945	1470.5	588.6
938.6448	2081.9434	1469.15	587.6
938.7812	2083.4916	1466.65	583.25
938.9176	2085.039	1463.55	582.2
939.054	2086.5857	1467.85	585.15
939.1903	2088.1317	1463.1	581.45
939.3267	2089.677	1466.2	582.8
939.463	2091.2215	1458.95	576.8
939.5992	2092.7652	1456.85	573.9
939.7355	2094.3083	1464.95	584.45
939.8717	2095.8506	1454.2	572.55
940.0079	2097.3921	1463.8	583.35
940.1441	2098.933	1457.5	574.85
940.2802	2100.4731	1455.85	572.35
940.4163	2102.0124	1466.8	567.95
940.5524	2103.5511	1456.7	573.55
940.6885	2105.089	1448.4	566.8
940.8245	2106.6261	1451.15	569.05
940.9606	2108.1626	1454.3	570.55
941.0965	2109.6983	1477.15	565.4
941.2325	2111.2332	1444.2	562.05
941.3684	2112.7675	1442.4	558.65
941.5044	2114.301	1448.75	565.55
941.6403	2115.8337	1444.45	561.05
941.7761	2117.3657	1437.4	555.1
941.912	2118.897	1449.6	564.55
942.0478	2120.4276	1442.95	553.85
942.1835	2121.9575	1440.3	557.75
942.3193	2123.4866	1438.05	554.25
942.455	2125.0149	1435.5	549.25
942.5907	2126.5426	1432.6	551.05
942.7264	2128.0695	1431.7	543.95
942.8621	2129.5956	1424.1	543.65
942.9977	2131.1211	1431.05	543.15
943.1333	2132.6458	1429.55	548.6
943.2689	2134.1698	1423.3	541.2
943.4044	2135.693	1427.85	543.5
943.54	2137.2155	1428.65	545
943.6755	2138.7373	1418.2	536.1
943.8109	2140.2584	1419.15	535.95
943.9464	2141.7787	1418.7	530.4
944.0818	2143.2983	1422.25	541.35
944.2172	2144.8171	1415.25	534
944.3526	2146.3353	1413.45	530.6
944.4879	2147.8527	1405.1	523.95
944.6232	2149.3693	1414.1	531.7
944.7585	2150.8853	1406.65	523.05
944.8938	2152.4005	1405.35	523.15
945.029	2153.9149	1408.25	526.5
945.1642	2155.4287	1403.2	520.15
945.2994	2156.9417	1406.95	524.1
945.4346	2158.454	1402.35	517.9
945.5697	2159.9655	1402.25	519.95
945.7048	2161.4764	1401.45	517.8
945.8399	2162.9865	1406.85	523.9
945.9749	2164.4958	1404.35	520.05
946.1099	2166.0045	1397.95	513.35
946.2449	2167.5124	1397.05	514.5
946.3799	2169.0195	1392.35	510.05
946.5148	2170.526	1395.05	512.1
946.6498	2172.0317	1394.65	511.95
946.7846	2173.5367	1389.3	505.15
946.9195	2175.0409	1395.7	512.3
947.0543	2176.5445	1388.1	505.9
947.1891	2178.0473	1382.05	498.9
947.3239	2179.5494	1386.4	500.8
947.4587	2181.0507	1385.6	500.7
947.5934	2182.5513	1389.05	504.5
947.7281	2184.0512	1383.5	501.55
947.8628	2185.5504	1379.15	497.55
947.9974	2187.0488	1378.7	494.75
948.132	2188.5465	1375.95	493.3
948.2666	2190.0435	1373.55	492.2
948.4012	2191.5397	1374.7	494.2
948.5357	2193.0353	1375.55	496
948.6702	2194.5301	1367.8	483.55
948.8047	2196.0241	1371.45	489.9
948.9392	2197.5175	1373	490.65
949.0736	2199.0101	1368.4	483.15
949.208	2200.502	1369.55	487.9
949.3424	2201.9931	1363.85	481.05
949.4767	2203.4835	1366.65	482.1
949.611	2204.9733	1367.2	479.1
949.7453	2206.4622	1354.85	471.85
949.8796	2207.9505	1366.25	480.55
950.0138	2209.438	1348.15	467.4
950.148	2210.9248	1355.95	471.3
950.2822	2212.4109	1351.8	471.95
950.4164	2213.8962	1354.8	471.15
950.5505	2215.3809	1351.9	468
950.6846	2216.8648	1351.25	468.2
950.8186	2218.3479	1353.9	469.55
950.9527	2219.8304	1343.05	459.35
951.0867	2221.3121	1343.45	459.75
951.2207	2222.7931	1343.35	461.15
951.3546	2224.2733	1339.15	458.1
951.4886	2225.7529	1343.8	459.7
951.6225	2227.2317	1335.15	448.15
951.7563	2228.7098	1334.05	454.4
951.8902	2230.1872	1326.05	442.95
952.024	2231.6638	1334.55	452.5
952.1578	2233.1397	1326.85	440.35
952.2916	2234.6149	1331.9	449.25
952.4253	2236.0894	1323.85	441.25
952.559	2237.5632	1334.3	442.3
952.6927	2239.0362	1327.35	444.6
952.8263	2240.5085	1328.9	448
952.9599	2241.9801	1329.05	447.9
953.0935	2243.4509	1318.05	435.5
953.2271	2244.921	1320.7	438.35
953.3606	2246.3904	1318.15	434.25
953.4941	2247.8591	1326.85	444.8
953.6276	2249.3271	1314.25	432.9
953.7611	2250.7943	1314.5	431.05
953.8945	2252.2608	1312.3	430.05
954.0279	2253.7266	1310	426.75
954.1612	2255.1917	1311.4	429.05
954.2946	2256.656	1311.6	428.2
954.4279	2258.1197	1306.9	423.7
954.5612	2259.5826	1313.75	428.65
954.6944	2261.0447	1307.95	425.75
954.8276	2262.5062	1303.1	419.15
954.9608	2263.9669	1307.05	422.55
955.094	2265.4269	1305.9	425.85
955.2271	2266.8862	1293	411.55
955.3602	2268.3448	1297.95	415.95
955.4933	2269.8026	1296.9	414
955.6264	2271.2598	1295.85	413.35
955.7594	2272.7162	1293.35	411.8
955.8924	2274.1719	1296.2	413.35
956.0253	2275.6268	1298.3	418.25
956.1583	2277.0811	1293	412.3
956.2912	2278.5346	1288.85	407.25
956.4241	2279.9874	1293.2	412.4
956.5569	2281.4395	1293.35	411.1
956.6897	2282.8908	1294.6	406.75
956.8225	2284.3414	1295.95	414.65
956.9553	2285.7914	1280.2	398.95
957.088	2287.2406	1287.9	403.35
957.2207	2288.689	1292.65	411.45
957.3534	2290.1368	1284.75	402.1
957.486	2291.5838	1286.3	401.45
957.6186	2293.0302	1292.15	408.85
957.7512	2294.4758	1285.4	402.5
957.8838	2295.9206	1281.45	398.4
958.0163	2297.3648	1286.15	402.5
958.1488	2298.8082	1283.15	400.45
958.2813	2300.251	1279.8	397.95
958.4137	2301.693	1274.95	390.05
958.5461	2303.1343	1279.55	395.7
958.6785	2304.5748	1276.25	395.5
958.8108	2306.0147	1278.7	397.15
958.9432	2307.4538	1273.75	389.95
959.0754	2308.8922	1264.45	384.15
959.2077	2310.3299	1276.5	394.55
959.3399	2311.7669	1267.85	385
959.4721	2313.2031	1267.65	384.5
959.6043	2314.6387	1269.1	382.95
959.7365	2316.0735	1259.05	376.1
959.8686	2317.5076	1264.7	381.45
960.0006	2318.941	1262.5	381.5
960.1327	2320.3737	1256.4	373.6
960.2647	2321.8056	1259.5	374.9
960.3967	2323.2369	1262.8	378.3
960.5287	2324.6674	1261.1	377.3
960.6606	2326.0972	1266.1	383.05
960.7925	2327.5263	1260.15	377.85
960.9244	2328.9547	1262.2	379.6
961.0562	2330.3823	1252.15	369.4
961.1881	2331.8092	1258.15	373.4
961.3198	2333.2355	1254	371.8
961.4516	2334.661	1250.1	366.45
961.5833	2336.0858	1249.15	364.05
961.715	2337.5098	1253.55	372.1
961.8467	2338.9332	1247.7	364
961.9783	2340.3558	1248.3	362.65
962.1099	2341.7778	1247.9	366.3
962.2415	2343.199	1246.3	360.15
962.373	2344.6195	1240.5	357.9
962.5045	2346.0393	1249.7	367.95
962.636	2347.4583	1246.8	361.65
962.7675	2348.8767	1243.7	360.25
962.8989	2350.2943	1243.1	361.85
963.0303	2351.7113	1243.95	361.65
963.1617	2353.1275	1234.4	353.25
963.293	2354.543	1244.1	350.6
963.4243	2355.9578	1238.05	355.45
963.5556	2357.3718	1236.45	353.7
963.6868	2358.7852	1233.6	350
963.818	2360.1978	1233.25	350.25
963.9492	2361.6098	1233.55	353.35
964.0803	2363.021	1238.35	350.9
964.2114	2364.4315	1228.2	344.35
964.3425	2365.8413	1232.4	348.65
964.4736	2367.2504	1227.9	345.1
964.6046	2368.6587	1228.8	346.15
964.7356	2370.0664	1223.6	340.25
964.8666	2371.4733	1221.9	340.35
964.9975	2372.8795	1220.15	339.75
965.1284	2374.285	1221.6	339.65
965.2593	2375.6899	1220.55	338.35
965.3901	2377.0939	1219.5	336.85
965.5209	2378.4973	1224.25	341.15
965.6517	2379.9	1217.45	334
965.7825	2381.3019	1213.4	332.45
965.9132	2382.7032	1213.35	333.55
966.0439	2384.1037	1204.75	323.55
966.1745	2385.5035	1212.4	327.6
966.3051	2386.9027	1211.6	328.25
966.4357	2388.3011	1214.25	328.4
966.5663	2389.6987	1209.75	327.2
966.6968	2391.0957	1204.1	321.5
966.8273	2392.492	1201.85	320.8
966.9578	2393.8876	1201.7	317.85
967.0882	2395.2824	1202.5	319.65
967.2186	2396.6765	1196.45	315
967.349	2398.07	1197.55	314.75
967.4793	2399.4627	1198.25	315.7
967.6097	2400.8547	1194.75	311.75
967.7399	2402.246	1196.85	306.75
967.8702	2403.6366	1189.25	307.5
968.0004	2405.0265	1184.8	300.95
968.1306	2406.4156	1195.6	309.35
968.2607	2407.8041	1192.25	306.6
968.3909	2409.1918	1188.6	304.4
968.521	2410.5789	1188.4	305.6
968.651	2411.9652	1190.85	305.3
968.781	2413.3508	1187.3	306
968.911	2414.7358	1186.55	303
969.041	2416.12	1189.95	309.95
969.1709	2417.5035	1189.8	308.8
969.3008	2418.8863	1179.35	295.65
969.4307	2420.2684	1179.25	297.2
969.5606	2421.6497	1181.45	297.5
969.6904	2423.0304	1182.15	301.95
969.8201	2424.4104	1179.55	296.2
969.9499	2425.7896	1188.3	299.15
970.0796	2427.1682	1171.85	291.8
970.2093	2428.546	1178.15	294.35
970.3389	2429.9232	1178.7	296.45
970.4685	2431.2996	1181.55	298.9
970.5981	2432.6753	1172.4	291.2
970.7277	2434.0503	1177.2	293.35
970.8572	2435.4246	1171.6	289.95
970.9867	2436.7982	1178	293.15
971.1161	2438.1711	1172.8	292.4
971.2456	2439.5433	1170.85	288.15
971.375	2440.9148	1173.45	285.05
971.5043	2442.2856	1169.15	287.55
971.6336	2443.6557	1170.35	287.55
971.7629	2445.025	1165.15	281.65
971.8922	2446.3937	1167.85	283.6
972.0214	2447.7617	1166.55	285.4
972.1506	2449.1289	1164.45	282.25
972.2798	2450.4955	1166.45	279.45
972.4089	2451.8613	1160.55	279.4
972.538	2453.2265	1164.3	282.9
972.6671	2454.5909	1163.8	279.1
972.7961	2455.9546	1163.35	282.4
972.9251	2457.3177	1158.15	276.45
973.0541	2458.68	1153.9	273.15
973.1831	2460.0416	1159.7	277.05
973.312	2461.4025	1158.15	275.7
973.4408	2462.7627	1169.55	274.95
973.5697	2464.1222	1159.35	278.75
973.6985	2465.4811	1159.75	276.15
973.8273	2466.8392	1158.05	275.05
973.956	2468.1966	1154.1	270.55
974.0847	2469.5533	1158.6	273.4
974.2134	2470.9093	1152.55	269.25
974.3421	2472.2645	1154.4	270.05
974.4707	2473.6191	1152.4	270.8
974.5993	2474.973	1152.5	269.1
974.7278	2476.3262	1161.2	277.1
974.8563	2477.6787	1154.25	273.5
974.9848	2479.0305	1152.45	269.8
975.1132	2480.3816	1147.5	262.75
975.2417	2481.7319	1152.75	270.2
975.37	2483.0816	1152.5	268.1
975.4984	2484.4306	1147.1	264.1
975.6267	2485.7789	1148.65	266.8
975.755	2487.1264	1142.1	256.9
975.8833	2488.4733	1141.45	258.45
976.0115	2489.8195	1158.3	261.8
976.1397	2491.165	1149.4	262.7
976.2678	2492.5097	1143.15	259.55
976.3959	2493.8538	1145.15	263.4
976.524	2495.1972	1137.6	253.95
976.6521	2496.5398	1144.5	259.4
976.7801	2497.8818	1140.8	258.45
976.9081	2499.2231	1140	257.4
977.036	2500.5637	1136.4	250.55
977.164	2501.9035	1136.45	253.65
977.2918	2503.2427	1141.55	257
977.4197	2504.5812	1132.9	249.65
977.5475	2505.919	1139.45	254.8
977.6753	2507.256	1135.65	251.2
977.8031	2508.5924	1135.5	253.8
977.9308	2509.9281	1137.55	249.8
978.0585	2511.2631	1133.2	251.2
978.1861	2512.5974	1132.05	249.4
978.3137	2513.9309	1132.65	249.1
978.4413	2515.2638	1163.8	250.35
978.5689	2516.596	1128.2	247.65
978.6964	2517.9275	1128.75	246.3
978.8239	2519.2583	1127.15	242.25
978.9513	2520.5884	1125.2	240.55
979.0788	2521.9178	1125.8	242.6
979.2062	2523.2465	1123.35	241.05
979.3335	2524.5745	1122.7	241.25
979.4608	2525.9018	1124.2	242.95
979.5881	2527.2284	1119.7	236.95
979.7154	2528.5543	1120.85	239.95
979.8426	2529.8796	1121.1	237.3
979.9698	2531.2041	1118.25	234.4
980.0969	2532.5279	1119.45	237.3
980.224	2533.851	1123.3	240.4
980.3511	2535.1735	1119.5	237.85
980.4781	2536.4952	1120	238.15
980.6052	2537.8163	1118.4	237.05
980.7321	2539.1366	1117.25	234.8
980.8591	2540.4562	1122.3	241.15
980.986	2541.7752	1115.9	233.7
981.1129	2543.0935	1118.25	236.5
981.2397	2544.411	1117.2	233.1
981.3665	2545.7279	1113.75	232.25
981.4933	2547.0441	1113.95	229.85
981.62	2548.3596	1122.4	238
981.7467	2549.6744	1114.4	231.55
981.8734	2550.9885	1116.2	233.45
982.0001	2552.3019	1112.95	230.75
982.1267	2553.6146	1111.8	231.15
982.2532	2554.9266	1113.65	228.7
982.3798	2556.2379	1114.05	230.75
982.5063	2557.5485	1109.8	230.35
982.6327	2558.8585	1124.1	232.95
982.7592	2560.1677	1113.3	226.25
982.8856	2561.4762	1113.25	229.2
983.0119	2562.7841	1115.65	229.85
983.1383	2564.0913	1107.4	227.65
983.2646	2565.3977	1107.25	225.45
983.3908	2566.7035	1113	230.35
983.517	2568.0086	1105.9	219.3
983.6432	2569.313	1104.1	220.95
983.7694	2570.6167	1114.15	227.95
983.8955	2571.9197	1102	221.3
984.0216	2573.222	1108.3	221.15
984.1476	2574.5236	1108.25	226.4
984.2737	2575.8246	1110.8	225.4
984.3996	2577.1248	1111.8	227.65
984.5256	2578.4244	1104.75	224.25
984.6515	2579.7232	1101.45	219.7
984.7774	2581.0214	1133.4	219.05
984.9032	2582.3189	1104.8	222.2
985.029	2583.6157	1109.75	221.7
985.1548	2584.9118	1105.25	221.95
985.2806	2586.2072	1100.7	218
985.4063	2587.5019	1099	217.05
985.5319	2588.7959	1110.1	225.05
985.6576	2590.0893	1103.25	219.65
985.7832	2591.3819	1103.1	223.4
985.9087	2592.6739	1105.5	222.95
986.0343	2593.9652	1103.7	218.05
986.1597	2595.2557	1103.8	221.6
986.2852	2596.5456	1107.3	223.8
986.4106	2597.8348	1107.35	226.15
986.536	2599.1234	1106.85	224.6
986.6614	2600.4112	1100.9	218.8
986.7867	2601.6983	1102.85	216.1
986.912	2602.9848	1098.45	215.6
987.0372	2604.2705	1106.75	216.75
987.1624	2605.5556	1104.7	221.4
987.2876	2606.84	1100.55	219.9
987.4128	2608.1237	1103.8	220.65
987.5379	2609.4067	1099.5	217.65
987.6629	2610.689	1113.6	220.4
987.788	2611.9707	1106.3	220.5
987.913	2613.2516	1097.9	211.85
988.0379	2614.5319	1096.1	214
988.1629	2615.8115	1094.55	213.15
988.2878	2617.0903	1095.8	213
988.4126	2618.3685	1096.9	215.2
988.5375	2619.6461	1095.95	213.7
988.6622	2620.9229	1090.15	208.35
988.787	2622.199	1091	207.05
988.9117	2623.4745	1093.05	210.95
989.0364	2624.7493	1091.5	209.35
989.161	2626.0234	1086.65	205.95
989.2857	2627.2968	1089.5	206.3
989.4102	2628.5695	1088.15	205.8
989.5348	2629.8415	1087.8	204.45
989.6593	2631.1128	1083.45	198.6
989.7837	2632.3835	1087.3	204.6
989.9082	2633.6535	1088.45	207.45
990.0326	2634.9228	1088.7	207.05
990.1569	2636.1914	1081.7	200.15
990.2812	2637.4593	1093.85	205.7
990.4055	2638.7265	1084.4	202.65
990.5298	2639.9931	1081.15	199.15
990.654	2641.259	1084.95	200.15
990.7782	2642.5242	1079.55	196.1
990.9023	2643.7887	1081.05	199.2
991.0264	2645.0525	1075.9	193.75
991.1505	2646.3156	1081.4	199.4
991.2745	2647.5781	1077.55	194.45
991.3985	2648.8398	1077.95	197.6
991.5225	2650.1009	1115.2	195.1
991.6464	2651.3613	1076.2	194.2
991.7703	2652.6211	1076.05	192.15
991.8942	2653.8801	1077.6	196.2
992.018	2655.1385	1080.2	194.35
992.1418	2656.3961	1075.8	193.3
992.2655	2657.6531	1071.5	190.15
992.3892	2658.9094	1079.75	197.2
992.5129	2660.1651	1075.15	192
992.6366	2661.42	1076.45	194.3
992.7602	2662.6743	1081.3	198.15
992.8837	2663.9279	1074.35	194.1
993.0073	2665.1808	1077.6	194.65
993.1307	2666.433	1076.5	191.85
993.2542	2667.6846	1076.75	195.8
993.3776	2668.9354	1078.1	192.4
993.501	2670.1856	1076.75	193.2
993.6244	2671.4351	1076.35	195.55
993.7477	2672.6839	1083	198.15
993.8709	2673.9321	1077.35	196.05
993.9942	2675.1795	1080.85	197.3
994.1174	2676.4263	1081.35	198.45
994.2405	2677.6724	1082.85	200.65
994.3637	2678.9179	1080.9	196.35
994.4868	2680.1626	1080.15	197.1
994.6098	2681.4067	1081.2	196.85
994.7328	2682.6501	1080.4	199.55
994.8558	2683.8928	1078.75	195.7
994.9788	2685.1348	1076.05	194
995.1017	2686.3761	1077.35	193.75
995.2245	2687.6168	1076.55	192.85
995.3474	2688.8568	1076.6	194.6
995.4702	2690.0961	1070.75	191.5
995.5929	2691.3348	1072.45	187.3
995.7156	2692.5727	1068.85	185.2
995.8383	2693.81	1068.4	185.5
995.961	2695.0466	1067.9	188.9
996.0836	2696.2826	1073.1	188.5
996.2062	2697.5178	1075.4	188.45
996.3287	2698.7524	1070.45	188.35
996.4512	2699.9863	1070.25	185.15
996.5737	2701.2195	1075.15	196
996.6961	2702.452	1071.65	189.15
996.8185	2703.6839	1073	189.15
996.9408	2704.9151	1071	190.5
997.0631	2706.1456	1069.5	186
997.1854	2707.3755	1077.95	194.35
997.3077	2708.6046	1079.65	193.7
997.4299	2709.8331	1076.95	194.1
997.552	2711.0609	1079.9	198.15
997.6742	2712.2881	1078	194.4
997.7963	2713.5145	1091.6	207.55
997.9183	2714.7403	1083.85	203.45
998.0403	2715.9654	1090.45	207.8
998.1623	2717.1899	1109.15	212.05
998.2842	2718.4136	1093.55	211.05
998.4062	2719.6367	1100.05	216.45
998.528	2720.8591	1111.45	221.15
998.6498	2722.0809	1101.8	218.55
998.7716	2723.3019	1111.35	225
998.8934	2724.5223	1114.5	229.55
999.0151	2725.7421	1118.9	234.9
999.1368	2726.9611	1115.8	230.7
999.2584	2728.1795	1111.2	224
999.38	2729.3972	1107.55	223.65
999.5016	2730.6142	1117.5	223.4
999.6231	2731.8306	1099.25	214.05
999.7446	2733.0462	1090.65	207.4
999.8661	2734.2612	1095.8	208.55
999.9875	2735.4756	1085.6	201.8
1000.1089	2736.6892	1077.3	194.95
1000.2302	2737.9022	1075.7	192.45
1000.3515	2739.1145	1071.4	188.75
1000.4728	2740.3262	1079.5	188.65
1000.594	2741.5372	1064.75	183.65
1000.7152	2742.7475	1065.35	183.4
1000.8363	2743.9571	1065.95	182.25
1000.9575	2745.1661	1065.05	176.5
1001.0785	2746.3744	1060.2	177.8
1001.1996	2747.582	1054.85	172.5
1001.3206	2748.7889	1052.1	168
1001.4415	2749.9952	1054.3	172.3
1001.5625	2751.2008	1049.15	167.8
1001.6833	2752.4057	1050.95	166.4
1001.8042	2753.61	1046.6	162.75
1001.925	2754.8136	1049.1	166.1
1002.0458	2756.0165	1045.1	161.75
1002.1665	2757.2188	1042.9	161.4
1002.2872	2758.4204	1045.7	162.5
1002.4078	2759.6213	1046.1	160.55
1002.5285	2760.8215	1047.4	158.6
1002.649	2762.0211	1050.25	166.75
1002.7696	2763.22	1046.35	161.5
1002.8901	2764.4182	1045.65	160.1
1003.0106	2765.6158	1038.7	155.75
1003.131	2766.8127	1042.45	163.2
1003.2514	2768.009	1037.6	154.45
1003.3717	2769.2045	1040.45	156.55
1003.492	2770.3994	1040.3	155.45
1003.6123	2771.5936	1033	147.3
1003.7325	2772.7872	1034.85	154.1
1003.8527	2773.9801	1034.45	150.3
1003.9729	2775.1723	1054.5	155.55
1004.093	2776.3639	1034.75	154.3
1004.2131	2777.5548	1037.95	152.05
1004.3331	2778.745	1033.35	148.55
1004.4531	2779.9346	1034.05	152.1
1004.5731	2781.1235	1033.2	150.65
1004.693	2782.3117	1034.15	152
1004.8129	2783.4992	1032.1	147.75
1004.9328	2784.6861	1039.15	155.6
1005.0526	2785.8723	1036.2	152.8
1005.1723	2787.0579	1037.55	154.75
1005.2921	2788.2428	1036.9	156.05
1005.4118	2789.427	1039	156.4
1005.5314	2790.6106	1041.4	158.8
1005.651	2791.7935	1041.1	156.6
1005.7706	2792.9757	1043.1	163.05
1005.8902	2794.1573	1049.05	164.2
1006.0097	2795.3382	1046.05	163.5
1006.1291	2796.5184	1044.1	161.9
1006.2485	2797.698	1054.65	168.2
1006.3679	2798.8769	1047.75	166.35
1006.4873	2800.0551	1058.95	175.4
1006.6066	2801.2327	1058.95	170.35
1006.7258	2802.4096	1058.1	177.35
1006.8451	2803.5859	1064.75	181.4
1006.9642	2804.7615	1067.35	184.7
1007.0834	2805.9364	1076.45	194.1
1007.2025	2807.1106	1086.55	203.05
1007.3216	2808.2842	1081.05	198.8
1007.4406	2809.4572	1092.4	210.15
1007.5596	2810.6294	1102.8	221.3
1007.6785	2811.801	1108.65	226.85
1007.7975	2812.972	1118.4	237.5
1007.9163	2814.1423	1133.85	250.35
1008.0352	2815.3119	1144.35	261.9
1008.154	2816.4808	1155.5	272.45
1008.2727	2817.6491	1169.05	285.6
1008.3914	2818.8167	1176.65	294.3
1008.5101	2819.9837	1203.8	317.2
1008.6288	2821.15	1219.25	335.35
1008.7474	2822.3157	1227	346
1008.8659	2823.4807	1253.6	369.65
1008.9844	2824.645	1268.9	387.55
1009.1029	2825.8086	1279.1	397.3
1009.2214	2826.9716	1297.65	416.05
1009.3398	2828.134	1301.85	419.3
1009.4581	2829.2957	1321.95	440
1009.5764	2830.4567	1326.05	444.65
1009.6947	2831.617	1335.5	451.75
1009.813	2832.7767	1345.05	463.3
1009.9312	2833.9358	1339.05	456.6
1010.0493	2835.0941	1341.5	457.45
1010.1675	2836.2519	1337.1	456.15
1010.2855	2837.4089	1323.6	440.6
1010.4036	2838.5653	1326.15	444.3
1010.5216	2839.7211	1320	438.05
1010.6396	2840.8761	1319.65	437.4
1010.7575	2842.0306	1319.65	438.15
1010.8754	2843.1843	1332.95	450.5
1010.9932	2844.3374	1340.2	457.55
1011.111	2845.4899	1348.25	464.3
1011.2288	2846.6417	1363.55	482.7
1011.3465	2847.7928	1372.25	491.45
1011.4642	2848.9433	1389	508.15
1011.5818	2850.0931	1407	525.15
1011.6995	2851.2422	1425.1	539.95
1011.817	2852.3907	1435.75	554.25
1011.9345	2853.5385	1451.75	566.25
1012.052	2854.6857	1484.6	574.3
1012.1695	2855.8323	1473.9	592.5
1012.2869	2856.9781	1486	604.6
1012.4042	2858.1233	1503.95	622.25
1012.5216	2859.2679	1509.7	628.55
1012.6389	2860.4118	1533.25	650.55
1012.7561	2861.555	1548.65	661.9
1012.8733	2862.6976	1551.55	667.95
1012.9905	2863.8395	1563.55	682.25
1013.1076	2864.9808	1570.35	685.55
1013.2247	2866.1214	1576.95	696.45
1013.3417	2867.2614	1595.8	713.95
1013.4587	2868.4007	1587.2	702.25
1013.5757	2869.5393	1592.55	709.1
1013.6926	2870.6773	1595.25	712.05
1013.8095	2871.8146	1600.35	714.35
1013.9263	2872.9513	1595.9	711.3
1014.0431	2874.0874	1590.05	708.25
1014.1599	2875.2227	1586.25	702.75
1014.2766	2876.3574	1586.35	703
1014.3933	2877.4915	1580.5	697.65
1014.51	2878.6249	1570.9	690.85
1014.6266	2879.7577	1578.45	694.25
1014.7431	2880.8898	1574.15	680.35
1014.8596	2882.0212	1562.95	682.25
1014.9761	2883.152	1560.45	677.35
1015.0925	2884.2821	1551.9	670.1
1015.2089	2885.4116	1561.3	679.6
1015.3253	2886.5405	1565.25	682.4
1015.4416	2887.6686	1564.45	676.9
1015.5579	2888.7962	1572.05	690.75
1015.6741	2889.923	1572.6	690.7
1015.7903	2891.0493	1562.75	680.7
1015.9065	2892.1748	1569.65	688.5
1016.0226	2893.2997	1569.55	686.85
1016.1387	2894.424	1578.8	695.65
1016.2547	2895.5476	1582.8	701.35
1016.3707	2896.6706	1583.35	702.75
1016.4866	2897.7929	1581	696.4
1016.6025	2898.9145	1597.5	714.35
1016.7184	2900.0355	1599.3	716.75
1016.8342	2901.1559	1611.05	729.65
1016.95	2902.2756	1608.85	728.8
1017.0658	2903.3946	1622.55	740.6
1017.1815	2904.513	1633.8	746.25
1017.2971	2905.6308	1632.95	749.45
1017.4127	2906.7479	1641.4	758.5
1017.5283	2907.8643	1654.9	770.9
1017.6439	2908.9801	1648.55	765.05
1017.7594	2910.0953	1649.35	766.55
1017.8748	2911.2098	1649.15	762.55
1017.9902	2912.3236	1656.9	767.1
1018.1056	2913.4368	1633.55	747.25
1018.2209	2914.5494	1636.85	753.4
1018.3362	2915.6613	1629.9	742.45
1018.4515	2916.7725	1621.3	736.95
1018.5667	2917.8831	1611.35	728.45
1018.6819	2918.9931	1604.45	718.05
1018.797	2920.1024	1585.3	701.1
1018.9121	2921.211	1585.55	704.25
1019.0271	2922.319	1582.25	699.5
1019.1421	2923.4264	1575.4	692.9
1019.2571	2924.5331	1570.05	688.95
1019.372	2925.6391	1565.2	682.95
1019.4869	2926.7445	1563.95	684.3
1019.6017	2927.8493	1568.75	684.55
1019.7165	2928.9534	1572.85	690.3
1019.8313	2930.0569	1577.75	692.85
1019.946	2931.1597	1577.95	694.6
1020.0606	2932.2619	1573.4	690.1
1020.1753	2933.3634	1580.85	697.95
1020.2899	2934.4643	1590.05	700.05
1020.4044	2935.5645	1585.6	695.95
1020.5189	2936.6641	1579.25	693.35
1020.6334	2937.763	1571	689.25
1020.7478	2938.8613	1560.2	675
1020.8622	2939.959	1558	670.3
1020.9765	2941.056	1532.05	650.1
1021.0908	2942.1523	1512.85	628.1
1021.2051	2943.248	1498.25	615.1
1021.3193	2944.3431	1471.65	589.1
1021.4334	2945.4375	1451.15	569.95
1021.5476	2946.5313	1432.15	552.5
1021.6617	2947.6244	1393.25	510.5
1021.7757	2948.7169	1369.35	485.5
1021.8897	2949.8087	1344.25	461.45
1022.0037	2950.8999	1320.35	435.7
1022.1176	2951.9904	1297.8	416.4
1022.2315	2953.0803	1287.9	405
1022.3453	2954.1696	1272.75	389.05
1022.4591	2955.2582	1260.2	379.2
1022.5728	2956.3462	1246.85	363.75
1022.6865	2957.4335	1229.65	345.5
1022.8002	2958.5202	1222.5	335.7
1022.9138	2959.6062	1218.5	335.85
1023.0274	2960.6916	1209.35	327.1
1023.141	2961.7764	1202.95	317.05
1023.2545	2962.8605	1200.15	316.4
1023.3679	2963.9439	1200	318.25
1023.4813	2965.0267	1197.65	313.4
1023.5947	2966.1089	1212.95	308.6
1023.708	2967.1905	1197.15	314.4
1023.8213	2968.2714	1192.6	310.55
1023.9346	2969.3516	1194.85	313.1
1024.0478	2970.4312	1200.35	310.8
1024.1609	2971.5102	1192.15	309.9
1024.274	2972.5885	1196.8	314.55
1024.3871	2973.6662	1210.8	323.8
1024.5002	2974.7432	1196.45	314.45
1024.6132	2975.8196	1202.1	319.95
1024.7261	2976.8954	1194.25	313.5
1024.839	2977.9705	1192.85	310.35
1024.9519	2979.045	1186.55	304.8
1025.0647	2980.1188	1189.45	307.5
1025.1775	2981.192	1182.1	301.85
1025.2902	2982.2645	1181.05	297.45
1025.4029	2983.3364	1176.6	294.35
1025.5156	2984.4077	1168.2	285.6
1025.6282	2985.4783	1167.95	279.9
1025.7407	2986.5483	1150.65	269.6
1025.8532	2987.6177	1145.45	265.1
1025.9657	2988.6864	1135.7	251.95
1026.0782	2989.7545	1126.2	243.45
1026.1906	2990.8219	1115.4	234.55
1026.3029	2991.8887	1107.8	223.75
1026.4152	2992.9548	1098.4	215.1
1026.5275	2994.0204	1083.7	203.1
1026.6397	2995.0852	1076.55	194.1
1026.7519	2996.1495	1073.15	191
1026.864	2997.2131	1067.45	184.4
1026.9761	2998.276	1056.75	174.2
1027.0882	2999.3383	1054.25	171.15
1027.2002	3000.4	1044.65	163.6
1027.3122	3001.4611	1041.25	158.4
1027.4241	3002.5215	1037.35	154.6
1027.536	3003.5812	1027.25	144.6
1027.6478	3004.6404	1024.95	141.55
1027.7596	3005.6989	1021.3	136.8
1027.8714	3006.7567	1018.3	137.9
1027.9831	3007.8139	1041.05	129.5
1028.0947	3008.8705	1011.4	127.55
1028.2064	3009.9264	1023.05	123.15
1028.3179	3010.9818	1007.65	125.65
1028.4295	3012.0364	1003.85	122.3
1028.541	3013.0905	1000.25	117.55
1028.6524	3014.1439	1001.75	120.75
1028.7638	3015.1966	999.9	116.7
1028.8752	3016.2487	995.8	113.05
1028.9865	3017.3002	997.65	108.95
1029.0978	3018.3511	991.95	110.05
1029.209	3019.4013	995.45	111.5
1029.3202	3020.4509	992.35	110.3
1029.4314	3021.4998	990.45	107.15
1029.5425	3022.5481	993.35	112.35
1029.6535	3023.5958	993.65	111.65
1029.7645	3024.6428	993.45	108.65
1029.8755	3025.6892	990.6	108.9
1029.9864	3026.735	996.75	112.8
1030.0973	3027.7802	991.7	108.25
1030.2082	3028.8247	991.85	109.05
1030.319	3029.8685	991.8	108.15
1030.4297	3030.9118	994.35	113.4
1030.5404	3031.9544	990.75	107.45
1030.6511	3032.9963	994.6	113.2
1030.7617	3034.0376	994	111.45
1030.8723	3035.0783	998	113.35
1030.9829	3036.1184	999.4	116.6
1031.0934	3037.1578	997.4	116.45
1031.2038	3038.1966	995.6	112.55
1031.3142	3039.2348	991.15	109.65
1031.4246	3040.2723	1004.6	112.9
1031.5349	3041.3092	992.65	110.35
1031.6452	3042.3455	995.45	112.4
1031.7554	3043.3811	994.35	113.75
1031.8656	3044.4161	997.9	114.35
1031.9758	3045.4505	993.25	110.85
1032.0859	3046.4842	993.75	110.9
1032.1959	3047.5173	992.95	109.45
1032.3059	3048.5498	994.15	114.05
1032.4159	3049.5816	994.65	111.4
1032.5258	3050.6128	992.15	108.2
1032.6357	3051.6434	996.55	112.25
1032.7455	3052.6734	990.05	105.2
1032.8553	3053.7027	991.8	109.65
1032.9651	3054.7314	988.9	108.8
1033.0748	3055.7594	987.95	106.3
1033.1845	3056.7868	988.55	106.35
1033.2941	3057.8136	985.45	100.9
1033.4037	3058.8398	987.05	105.35
1033.5132	3059.8653	988.3	107.85
1033.6227	3060.8902	986.7	103.75
1033.7321	3061.9145	984.95	104.2
1033.8415	3062.9381	985.4	102.7
1033.9509	3063.9612	1005.95	108.35
1034.0602	3064.9835	986.6	102.8
1034.1694	3066.0053	987.25	102.1
1034.2787	3067.0264	980.1	98.45
1034.3878	3068.0469	982.85	98.95
1034.497	3069.0668	984.6	100.8
1034.6061	3070.086	979.1	97.75
1034.7151	3071.1046	978.75	93.9
1034.8241	3072.1226	980.25	98.55
1034.9331	3073.1399	976.45	95.55
1035.042	3074.1567	972.45	87.9
1035.1508	3075.1727	972.25	87.5
1035.2597	3076.1882	970.75	87.45
1035.3684	3077.203	967.95	84.4
1035.4772	3078.2173	967.15	82.3
1035.5859	3079.2308	968.45	82.6
1035.6945	3080.2438	964.8	82.95
1035.8031	3081.2561	959.2	77.05
1035.9117	3082.2678	957.55	75.2
1036.0202	3083.2789	954.5	73.3
1036.1286	3084.2893	956.55	71.95
1036.2371	3085.2991	954.85	70.8
1036.3454	3086.3083	957.8	72.45
1036.4538	3087.3169	956.95	72.7
1036.562	3088.3248	951.45	67.8
1036.6703	3089.3321	953.75	68.4
1036.7785	3090.3388	950.2	69.9
1036.8866	3091.3449	943.55	60.95
1036.9948	3092.3503	950.55	66.5
1037.1028	3093.3551	946.15	66
1037.2108	3094.3593	941.8	60.4
1037.3188	3095.3629	942.75	61.5
1037.4267	3096.3658	945.15	60.3
1037.5346	3097.3681	941.65	60.3
1037.6425	3098.3698	942.4	57.85
1037.7503	3099.3708	946.6	55.9
1037.858	3100.3713	937.85	57.15
1037.9657	3101.3711	938.55	54.65
1038.0734	3102.3702	1074.7	53.05
1038.181	3103.3688	936.8	53.2
1038.2886	3104.3667	934.65	52.85
1038.3961	3105.364	936.5	53.35
1038.5036	3106.3607	938.4	52.25
1038.611	3107.3568	935.45	52.95
1038.7184	3108.3522	935.3	52.95
1038.8257	3109.347	934.35	49.2
1038.933	3110.3412	936.2	49.25
1039.0403	3111.3348	933.65	51.85
1039.1475	3112.3277	932.05	48.6
1039.2547	3113.32	931.35	48.65
1039.3618	3114.3117	930.2	47.25
1039.4689	3115.3028	929.95	46.65
1039.5759	3116.2932	931.5	47.1
1039.6829	3117.2831	933.65	45.7
1039.7898	3118.2723	929.95	48.65
1039.8967	3119.2608	928.9	45.45
1040.0035	3120.2488	928.6	45.65
1040.1103	3121.2361	927.55	43.95
1040.2171	3122.2229	925	42.35
1040.3238	3123.209	928.65	46.4
1040.4305	3124.1944	923.85	41.9
1040.5371	3125.1793	928.1	41.4
1040.6437	3126.1635	924.45	42
1040.7502	3127.1471	924.45	42.45
1040.8567	3128.1301	922.4	40.55
1040.9631	3129.1125	924.55	40.7
1041.0695	3130.0942	922.9	41
1041.1759	3131.0753	934.45	44.5
1041.2822	3132.0558	924.65	37
1041.3884	3133.0357	923.55	41.45
1041.4946	3134.015	921.85	36.75
1041.6008	3134.9936	922.4	38.7
1041.7069	3135.9716	944.9	41.85
1041.813	3136.949	921.75	40.55
1041.919	3137.9258	940.05	38.35
1042.025	3138.902	928.25	39.8
1042.1309	3139.8775	922.2	39.5
1042.2368	3140.8524	922.4	40.15
1042.3427	3141.8267	920.55	35.75
1042.4485	3142.8004	922	40.75
1042.5542	3143.7735	926.15	39.25
1042.6599	3144.7459	922.6	38.2
1042.7656	3145.7178	920.6	38.05
1042.8712	3146.689	917.5	36.35
1042.9768	3147.6596	920	36.45
1043.0823	3148.6295	917.5	34.05
1043.1878	3149.5989	917.35	34.15
1043.2932	3150.5676	916.85	36
1043.3986	3151.5357	917.8	34.55
1043.5039	3152.5032	916.75	36.9
1043.6092	3153.4701	917.4	35
1043.7145	3154.4364	918.6	33.8
1043.8197	3155.402	916.6	34.3
1043.9248	3156.367	916.25	30.7
1044.03	3157.3315	935.9	34.4
1044.135	3158.2952	918.55	35.45
1044.24	3159.2584	916.3	34.2
1044.345	3160.221	918.95	35.45
1044.4499	3161.1829	914.95	32
1044.5548	3162.1442	914.8	31.8
1044.6596	3163.105	918.15	35.7
1044.7644	3164.065	913.35	28.45
1044.8692	3165.0245	915.55	31.65
1044.9739	3165.9834	909.85	29.6
1045.0785	3166.9416	912.65	30.95
1045.1831	3167.8993	917.35	33.9
1045.2877	3168.8563	916.05	30.8
1045.3922	3169.8127	912.7	29.7
1045.4966	3170.7684	910.45	26.4
1045.6011	3171.7236	912.65	29.6
1045.7054	3172.6782	914.3	32.75
1045.8098	3173.6321	913.65	30.6
1045.914	3174.5854	917.5	30.25
1046.0183	3175.5381	913.1	30
1046.1224	3176.4902	910.5	28.2
1046.2266	3177.4417	912.25	31.35
1046.3307	3178.3926	910.55	29.7
1046.4347	3179.3428	911.6	28.3
1046.5387	3180.2924	912.15	30
1046.6427	3181.2415	912.15	29.95
1046.7466	3182.1899	911.45	27.45
1046.8504	3183.1377	909.25	26.15
1046.9542	3184.0848	913.8	27.75
1047.058	3185.0314	909.35	27.35
1047.1617	3185.9773	911.2	28.15
1047.2654	3186.9227	912.55	27.75
1047.369	3187.8674	911.25	28.35
1047.4726	3188.8115	914.55	28.85
1047.5761	3189.755	910.4	27.8
1047.6796	3190.6979	909	27.25
1047.783	3191.6402	907.8	28.25
1047.8864	3192.5818	908.5	25.95
1047.9898	3193.5229	915	25.95
1048.0931	3194.4633	909.3	27.6
1048.1963	3195.4031	908.2	26.4
1048.2995	3196.3423	910.25	27.4
1048.4027	3197.2809	906.65	23.9
1048.5058	3198.2189	908.45	24.85
1048.6089	3199.1563	926.15	24.7
1048.7119	3200.0931	905.35	23.1
1048.8148	3201.0292	909.45	28.85
1048.9178	3201.9648	907.95	25.1
1049.0206	3202.8997	908.1	21.45
1049.1235	3203.834	907.05	24.4
1049.2262	3204.7677	907.6	24.25
1049.329	3205.7008	909.85	24.85
1049.4317	3206.6333	906.15	25.6
1049.5343	3207.5652	908.3	24.4
1049.6369	3208.4964	908.2	25.8
1049.7394	3209.4271	904.4	21.2
1049.8419	3210.3571	904.1	23.45
1049.9444	3211.2865	909.35	25.95
1050.0468	3212.2154	907.9	25.9
1050.1491	3213.1436	913.1	28.15
1050.2514	3214.0712	913.15	23.95
1050.3537	3214.9982	906.3	24.2
1050.4559	3215.9246	906.35	22.8
1050.5581	3216.8503	904.7	23.7
1050.6602	3217.7755	905.45	20.2
1050.7623	3218.7001	903.75	21.4
1050.8643	3219.624	905.3	20.15
1050.9663	3220.5473	902.55	19.35
1051.0682	3221.4701	903.95	22.25
1051.1701	3222.3922	906.3	22.65
1051.2719	3223.3137	905.45	23.05
1051.3737	3224.2346	904	22.35
1051.4754	3225.1549	904.7	23.3
1051.5771	3226.0746	904.05	19.75
1051.6788	3226.9937	905.3	21.1
1051.7804	3227.9121	901.35	19.25
1051.8819	3228.83	901.65	18.5
1051.9834	3229.7473	905.5	21.9
1052.0849	3230.6639	906.25	25.95
1052.1863	3231.5799	902.45	19.25
1052.2876	3232.4954	904.7	21.15
1052.3889	3233.4102	902.1	19.25
1052.4902	3234.3244	904	19.6
1052.5914	3235.238	901.65	19.45
1052.6926	3236.151	929.6	23.45
1052.7937	3237.0634	901.9	20.45
1052.8948	3237.9752	897.85	15.9
1052.9958	3238.8864	903.65	20.3
1053.0968	3239.797	902.6	20.05
1053.1977	3240.7069	904.6	22.2
1053.2986	3241.6163	901.55	15.75
1053.3994	3242.5251	899.7	19.2
1053.5002	3243.4332	899.95	18.4
1053.6009	3244.3408	903	19.9
1053.7016	3245.2477	901.3	20.2
1053.8022	3246.154	903	19.3
1053.9028	3247.0598	901.35	17.75
1054.0034	3247.9649	902.15	19.4
1054.1039	3248.8694	901.15	16.5
1054.2043	3249.7733	900.8	19
1054.3047	3250.6766	900.5	16.65
1054.4051	3251.5793	900.1	15.35
1054.5054	3252.4814	899.2	17.2
1054.6056	3253.3829	900.2	16.75
1054.7058	3254.2838	899.9	17.1
1054.806	3255.1841	899.9	16.35
1054.9061	3256.0838	899.1	16.95
1055.0061	3256.9829	898.8	17.4
1055.1062	3257.8814	901.9	17.75
1055.2061	3258.7792	899.2	16.85
1055.306	3259.6765	900.65	17.1
1055.4059	3260.5731	896.45	14.8
1055.5057	3261.4692	898	13.65
1055.6055	3262.3647	899.75	16.2
1055.7052	3263.2595	897.15	14.4
1055.8049	3264.1538	899.6	16
1055.9045	3265.0474	897.25	14.45
1056.0041	3265.9404	897.95	15.3
1056.1036	3266.8329	897.5	15.9
1056.2031	3267.7247	906.85	14.5
1056.3025	3268.616	896.15	14.75
1056.4019	3269.5066	895.45	13.55
1056.5013	3270.3966	897.3	14.35
1056.6005	3271.286	895.4	10.85
