Software Version:	3.9.2.0
Unit SN:	10000200
Spectrometer SN:	6960
Date:	3/14/2024 1:48:54 PM
Data Line Index:	25
Spectral Points:	2048
Integration time (ms):	125
Averages:	20
Delay (ms):	30000
Sequence Number:	1
Processing:	dark subtract
Laser Power (mW):	300
Laser Current (mA):	824
Laser Diode Temp (C):	25.1
Laser Case Temp (C):	28.8
System Temp (C):	28.9
Spectrometer Temp (C):	26.6
CCD Temp (C):	0.007
Secondary Temp (C):	20.007
Heatsink Temp (C):	24.773
CCDPCB Temp (C):	38.297
SecondaryPCB Temp (C):	35.796

Wavelength	RamanShift	Raw Counts	Dark Subtracted
787.061	30.1047	468.1	57.85
787.2016	32.3739	464.65	55.8
787.3422	34.6426	474.1	62
787.4828	36.9109	481.2	69.95
787.6235	39.1787	489.3	73.8
787.7642	41.4461	502	80.1
787.9049	43.7131	506.55	82.95
788.0456	45.9796	515.6	87.65
788.1863	48.2456	527.15	94.85
788.3271	50.5112	537.15	102.2
788.4679	52.7764	545.3	107.7
788.6087	55.0411	555.3	114.65
788.7496	57.3054	569.35	123.15
788.8904	59.5692	586.7	136.55
789.0313	61.8326	594	139.7
789.1722	64.0955	609.6	152.3
789.3132	66.3579	626.65	163.7
789.4541	68.6199	647.7	182.7
789.5951	70.8815	685	217.75
789.7361	73.1426	765.4	293.6
789.8771	75.4032	973.4	495.7
790.0181	77.6634	1495.85	1010.7
790.1592	79.9231	2720.4	2231.85
790.3003	82.1824	5460.65	4963.25
790.4414	84.4412	10462.8	9948.65
790.5825	86.6995	17548.35	17007.5
790.7237	88.9574	24645.75	24088.35
790.8648	91.2148	29663.1	29091.85
791.006	93.4717	32111.3	31530.1
791.1472	95.7282	32724.5	32136.9
791.2885	97.9842	32718.85	32128.25
791.4297	100.2398	32207.8	31610.75
791.571	102.4949	31667.4	31071.5
791.7123	104.7495	30874.35	30273.4
791.8536	107.0036	30038.35	29432.15
791.9949	109.2573	29249.8	28647
792.1363	111.5105	28514	27911.55
792.2777	113.7632	27752.8	27149.55
792.4191	116.0154	27124	26508.55
792.5605	118.2672	26689.95	26082.25
792.7019	120.5185	26203.55	25594.9
792.8434	122.7693	25843.85	25231.55
792.9849	125.0197	25569.5	24951.75
793.1264	127.2696	25255.95	24636.2
793.2679	129.519	25110.1	24489.15
793.4094	131.7679	24888.85	24265.4
793.551	134.0163	24733.5	24107.45
793.6926	136.2642	24523.3	23890.4
793.8342	138.5117	24308.15	23665.5
793.9758	140.7587	24033	23397.45
794.1175	143.0052	23791.5	23152.95
794.2591	145.2512	23555.1	22918.65
794.4008	147.4967	23310.8	22673.75
794.5425	149.7417	23123.1	22483.4
794.6842	151.9863	23017.5	22372.1
794.826	154.2304	22963.55	22317.3
794.9677	156.4739	22769.05	22115.6
795.1095	158.717	22719.45	22066.9
795.2513	160.9596	22509.6	21853.65
795.3931	163.2017	22256.05	21599.85
795.535	165.4433	21967.4	21310.4
795.6768	167.6844	21590.5	20927.8
795.8187	169.925	21251.3	20586.35
795.9606	172.1651	20860.25	20189.85
796.1025	174.4047	20566.25	19894.9
796.2445	176.6439	20277.2	19606.15
796.3864	178.8825	20018.1	19339.9
796.5284	181.1206	19850.75	19174.6
796.6704	183.3582	19667.05	18981.15
796.8124	185.5954	19566.85	18881.3
796.9544	187.832	19455.1	18765.9
797.0965	190.0681	19430.25	18740.15
797.2386	192.3037	19405.65	18715.65
797.3806	194.5388	19376.2	18682.6
797.5228	196.7734	19406.85	18707.85
797.6649	199.0075	19486.1	18784.55
797.807	201.2411	19610.4	18904.35
797.9492	203.4742	19655.5	18949.6
798.0914	205.7068	19801.3	19095
798.2336	207.9389	19901.3	19194.55
798.3758	210.1704	20047.95	19340.35
798.518	212.4015	20165.7	19450.5
798.6603	214.632	20302.65	19587.15
798.8025	216.862	20478.4	19773.3
798.9448	219.0915	20632.35	19932.85
799.0871	221.3205	20817.25	20119.75
799.2294	223.549	21044.65	20354.1
799.3718	225.777	21372.8	20682.2
799.5141	228.0044	21687	20994.1
799.6565	230.2314	22161.3	21472.05
799.7989	232.4578	22556.45	21866.3
799.9413	234.6837	22909.15	22211.75
800.0837	236.909	23105.6	22402.75
800.2262	239.1339	23048	22323.35
800.3687	241.3582	22794.75	22089.25
800.5111	243.582	22480.95	21748.2
800.6536	245.8053	22159.85	21432.6
800.7961	248.0281	21861.35	21134.75
800.9387	250.2503	21618.35	20894.45
801.0812	252.472	21446.95	20715.4
801.2238	254.6932	21405.3	20672.35
801.3664	256.9139	21345.65	20610.35
801.509	259.134	21333.5	20590.45
801.6516	261.3536	21312	20573.75
801.7942	263.5727	21434.6	20694.95
801.9369	265.7912	21348.15	20608.2
802.0795	268.0092	21430.45	20688.8
802.2222	270.2267	21391.25	20651.45
802.3649	272.4436	21333.6	20593.05
802.5076	274.6601	21229.35	20478.75
802.6504	276.8759	21140.2	20395.8
802.7931	279.0913	21079.8	20333.3
802.9359	281.3061	21033.65	20287.45
803.0787	283.5204	21059.1	20311.25
803.2215	285.7341	21127.65	20375.05
803.3643	287.9473	21297.05	20536.2
803.5071	290.16	21521.45	20761.9
803.6499	292.3721	21783.25	21029.6
803.7928	294.5837	22221.15	21466.7
803.9357	296.7947	22564.1	21808.3
804.0786	299.0052	22732.9	21974.55
804.2215	301.2152	22583.8	21826.85
804.3644	303.4246	22212.25	21457.3
804.5074	305.6334	21629.2	20877.2
804.6503	307.8418	21049.35	20289.85
804.7933	310.0495	20620.5	19862
804.9363	312.2568	20260.7	19504.35
805.0793	314.4635	20010.8	19247.2
805.2223	316.6696	19871.8	19110.4
805.3653	318.8752	19798.65	19026.25
805.5084	321.0802	19848.7	19084.7
805.6514	323.2847	19944.4	19182.9
805.7945	325.4887	19965.55	19202.55
805.9376	327.692	19916.5	19151.75
806.0807	329.8949	19770.5	19004.1
806.2238	332.0972	19517.75	18748
806.367	334.2989	19246.15	18474.3
806.5101	336.5001	18919.75	18151.15
806.6533	338.7007	18720.45	17948.4
806.7965	340.9008	18591.55	17815.8
806.9397	343.1003	18425.65	17653.85
807.0829	345.2992	18379.25	17602
807.2261	347.4976	18341.4	17565.05
807.3693	349.6955	18307.85	17526.55
807.5126	351.8927	18352.15	17569.75
807.6559	354.0895	18326.75	17534.7
807.7991	356.2856	18337.8	17554.35
807.9424	358.4812	18302.8	17517.15
808.0857	360.6763	18333.05	17549.05
808.2291	362.8707	18290.2	17504.9
808.3724	365.0646	18302.35	17512.35
808.5158	367.258	18317.75	17529.4
808.6591	369.4508	18347.7	17556.85
808.8025	371.643	18409.3	17618.4
808.9459	373.8346	18349.15	17552.5
809.0893	376.0257	18369.5	17570.15
809.2327	378.2162	18257.45	17460.8
809.3762	380.4062	18161.3	17360.55
809.5196	382.5956	17951.8	17150.75
809.6631	384.7844	17842.25	17042.7
809.8066	386.9726	17713.55	16907.3
809.9501	389.1603	17675	16874.45
810.0936	391.3474	17624	16786.6
810.2371	393.5339	17568.8	16767.65
810.3806	395.7199	17490.85	16693.35
810.5241	397.9052	17502	16707
810.6677	400.09	17482.35	16686.6
810.8113	402.2743	17546.95	16753
810.9548	404.4579	17587.95	16794.4
811.0984	406.641	17761.75	16970.25
811.2421	408.8235	17989.9	17198.9
811.3857	411.0054	18301.85	17507.5
811.5293	413.1868	18715.4	17919.1
811.673	415.3675	19027.25	18229.65
811.8166	417.5477	19204.65	18406.15
811.9603	419.7273	19250.05	18448.7
812.104	421.9064	19070.45	18262.3
812.2477	424.0848	18947.65	18143.6
812.3914	426.2627	18703.45	17894.8
812.5351	428.4399	18403.65	17596.9
812.6788	430.6166	18017.8	17206.4
812.8226	432.7928	17607	16795.15
812.9663	434.9683	17271.2	16455.85
813.1101	437.1432	17049.25	16235.2
813.2539	439.3176	16868.2	16051.6
813.3977	441.4914	16720.2	15903.65
813.5415	443.6645	16697.05	15877.05
813.6853	445.8371	16593.05	15774.85
813.8291	448.0091	16503.95	15686.25
813.973	450.1806	16449.5	15632.15
814.1168	452.3514	16361.4	15539.1
814.2607	454.5216	16379.25	15549
814.4046	456.6913	16281.85	15457.85
814.5485	458.8603	16331.4	15510.75
814.6924	461.0288	16423.55	15603.6
814.8363	463.1967	16408.9	15589.2
814.9802	465.3639	16506.05	15683.85
815.1241	467.5306	16547.85	15725.85
815.2681	469.6967	16685.9	15861.7
815.412	471.8622	16805.9	15985.6
815.556	474.0271	16943	16120
815.7	476.1914	17004.05	16180.15
815.844	478.3551	16946.15	16121.65
815.988	480.5182	16959.1	16135.3
816.132	482.6807	16930.75	16105.75
816.276	484.8426	17057	16231.9
816.4201	487.0039	17326	16499.6
816.5641	489.1647	17720.65	16895.45
816.7082	491.3248	18149.65	17325.1
816.8522	493.4843	18318.9	17491.15
816.9963	495.6432	18285.4	17458.15
817.1404	497.8015	18168.4	17339.65
817.2845	499.9592	18129.75	17302.95
817.4286	502.1163	18077.1	17249.2
817.5727	504.2728	17801.6	16972.8
817.7168	506.4287	17498.8	16669.7
817.861	508.5839	17018.85	16187.6
818.0051	510.7386	16687.2	15855.9
818.1493	512.8927	16488.7	15648.75
818.2935	515.0461	16370.9	15537.75
818.4377	517.199	16299.65	15469.4
818.5818	519.3512	16327.8	15496.2
818.726	521.5029	16392.85	15556.35
818.8703	523.6539	16458.6	15622.85
819.0145	525.8043	16479.45	15644.6
819.1587	527.9541	16503.9	15667.05
819.303	530.1033	16451.4	15614.8
819.4472	532.2519	16462.4	15627.6
819.5915	534.3999	16562.8	15723.95
819.7357	536.5472	16811.1	15973.45
819.88	538.694	17257.2	16422.45
820.0243	540.8401	17833.45	16995.5
820.1686	542.9856	18321.9	17481.1
820.3129	545.1305	18447.6	17607.6
820.4572	547.2748	18269.45	17434.1
820.6016	549.4185	17869.85	17028.95
820.7459	551.5615	17508.15	16669.7
820.8902	553.704	17355.75	16515.45
821.0346	555.8458	17258.5	16417.6
821.1789	557.987	17289.8	16449.95
821.3233	560.1276	17249.85	16409.05
821.4677	562.2675	17313.9	16473.9
821.6121	564.4069	17378.45	16537.8
821.7565	566.5456	17372.35	16530.75
821.9009	568.6837	17297.9	16456.2
822.0453	570.8212	16981.65	16139.75
822.1897	572.958	16562.15	15721
822.3342	575.0942	16256.4	15416.7
822.4786	577.2299	16021.75	15180.2
822.6231	579.3648	15983.2	15141.7
822.7675	581.4992	16067.95	15227.15
822.912	583.6329	16210.45	15368.4
823.0565	585.766	16426.7	15586.25
823.201	587.8985	16556.2	15714.65
823.3454	590.0304	16545.5	15678.55
823.4899	592.1616	16451.3	15605.4
823.6345	594.2922	16338.35	15493.6
823.779	596.4222	16135.25	15291.3
823.9235	598.5515	15992.85	15149.35
824.068	600.6802	15797.05	14950.6
824.2126	602.8083	15563.85	14716.5
824.3571	604.9358	15519.55	14674.55
824.5017	607.0626	15452.6	14604.15
824.6462	609.1888	15380.9	14532.7
824.7908	611.3144	15351.25	14503.4
824.9354	613.4393	15221.05	14374.65
825.08	615.5636	15129.4	14282.1
825.2246	617.6873	15028.6	14180.55
825.3692	619.8103	14954.85	14105.7
825.5138	621.9327	14823	13973.75
825.6584	624.0544	14750.65	13904.8
825.803	626.1756	14707.75	13857.85
825.9477	628.2961	14686.3	13836
826.0923	630.4159	14569.65	13719.1
826.237	632.5351	14544.65	13695.15
826.3816	634.6537	14470.7	13621.15
826.5263	636.7716	14460.35	13606.55
826.6709	638.8889	14432	13583.55
826.8156	641.0056	14420.8	13570.4
826.9603	643.1216	14399	13547.6
827.105	645.237	14412.25	13557.3
827.2497	647.3518	14343.1	13490.2
827.3944	649.4659	14384.6	13531.3
827.5391	651.5793	14371.6	13521.7
827.6838	653.6922	14330.85	13480
827.8285	655.8043	14300.85	13450.45
827.9733	657.9159	14261.75	13405.85
828.118	660.0268	14165.5	13310.75
828.2627	662.137	14106.65	13250.6
828.4075	664.2466	14051.5	13192.7
828.5522	666.3556	14044.4	13189.95
828.697	668.4639	14005.05	13147.85
828.8418	670.5716	14050.8	13195.35
828.9865	672.6786	14106.8	13251.6
829.1313	674.785	14127.55	13271.5
829.2761	676.8907	14180.55	13323.75
829.4209	678.9958	14220.3	13366.5
829.5657	681.1002	14174.8	13318.05
829.7105	683.204	14161.95	13301.7
829.8553	685.3072	14065.95	13208.05
830.0001	687.4097	14005.15	13147.25
830.1449	689.5115	13947.8	13086.8
830.2898	691.6127	13903.65	13046.5
830.4346	693.7132	13833.5	12976.15
830.5794	695.8131	13776.3	12909.05
830.7243	697.9123	13706.25	12844.9
830.8691	700.0109	13674.5	12815.55
831.014	702.1089	13632.65	12775.05
831.1588	704.2061	13644.95	12786.05
831.3037	706.3028	13660.95	12799.35
831.4486	708.3987	13701.55	12838.15
831.5935	710.4941	13745.8	12886
831.7383	712.5887	13916.4	13055.25
831.8832	714.6827	14190.55	13325.8
832.0281	716.7761	14497.7	13635.9
832.173	718.8688	14820.85	13956.55
832.3179	720.9608	15033.8	14168.8
832.4628	723.0522	15069.6	14205.2
832.6077	725.1429	14896.75	14034.05
832.7527	727.233	14614.5	13753.1
832.8976	729.3224	14358.6	13494.85
833.0425	731.4112	14073	13208.25
833.1874	733.4993	13880.2	13015.8
833.3324	735.5867	13642.45	12778.6
833.4773	737.6735	13541.1	12675.4
833.6222	739.7596	13455.4	12591.35
833.7672	741.845	13372.4	12506.05
833.9122	743.9298	13353.95	12489.4
834.0571	746.014	13305.85	12441.05
834.2021	748.0974	13295.45	12429.55
834.347	750.1802	13301.75	12436.55
834.492	752.2624	13289.85	12427.95
834.637	754.3439	13305.15	12440.65
834.782	756.4247	13384.2	12510.15
834.9269	758.5048	13473.05	12607.2
835.0719	760.5843	13685.85	12818.6
835.2169	762.6631	14021.35	13153.5
835.3619	764.7413	14477.85	13614.55
835.5069	766.8188	15107.4	14239.95
835.6519	768.8956	15569.5	14701.05
835.7969	770.9718	15839.6	14975.45
835.9419	773.0473	15708.3	14844.9
836.0869	775.1221	15364.65	14497.75
836.232	777.1962	14981.15	14113.2
836.377	779.2697	14759.35	13890.15
836.522	781.3426	14804.95	13919.75
836.667	783.4147	15023.4	14155.2
836.8121	785.4862	15285.2	14419.15
836.9571	787.557	15291.95	14427.45
837.1021	789.6271	14880.2	14012.8
837.2472	791.6966	14308	13438.5
837.3922	793.7654	13753.1	12884
837.5373	795.8335	13360.85	12494.4
837.6823	797.901	13124.15	12256.6
837.8274	799.9678	13029.75	12157.8
837.9724	802.0339	13007.9	12142.95
838.1175	804.0993	13037.8	12158.55
838.2626	806.1641	13008.55	12141.8
838.4076	808.2282	12967.5	12099.8
838.5527	810.2916	12835.75	11965.45
838.6978	812.3544	12720.4	11853.35
838.8428	814.4164	12650	11784.15
838.9879	816.4778	12668.25	11799.6
839.133	818.5385	12611.55	11741.5
839.2781	820.5986	12702.4	11835.2
839.4232	822.658	12819.75	11949.85
839.5682	824.7166	12901.65	12032.8
839.7133	826.7747	13144.05	12276.75
839.8584	828.832	13386.85	12515.65
840.0035	830.8886	13520.55	12649.85
840.1486	832.9446	13643.75	12771.1
840.2937	834.9999	13635.15	12766.35
840.4388	837.0545	13575.4	12703.7
840.5839	839.1085	13544.8	12674.95
840.729	841.1618	13462.55	12588.3
840.8741	843.2143	13401.3	12531.25
841.0192	845.2662	13287.85	12418.35
841.1643	847.3175	13198.65	12329.55
841.3095	849.368	13072.5	12202.5
841.4546	851.4179	12973.25	12101.25
841.5997	853.467	12777.95	11908.45
841.7448	855.5155	12667.2	11796.3
841.8899	857.5633	12538.95	11668.55
842.0351	859.6105	12420.6	11548.2
842.1802	861.6569	12333	11462.75
842.3253	863.7027	12270.4	11397.45
842.4704	865.7478	12223.35	11350.5
842.6156	867.7922	12245.25	11374.65
842.7607	869.8359	12241.35	11369.6
842.9058	871.8789	12368.75	11496.1
843.0509	873.9212	12520.15	11615.2
843.1961	875.9629	12630.75	11757.3
843.3412	878.0039	12803.9	11929.1
843.4863	880.0441	12882.15	12009.9
843.6315	882.0837	12900.85	12025.65
843.7766	884.1226	12823.15	11948.65
843.9218	886.1609	12693.2	11820.95
844.0669	888.1984	12569.45	11700.95
844.212	890.2352	12554.5	11682.85
844.3572	892.2714	12520.25	11644.95
844.5023	894.3069	12472.5	11601.2
844.6475	896.3416	12349.25	11472.45
844.7926	898.3757	12284.35	11413.1
844.9377	900.4091	12267.35	11393.75
845.0829	902.4418	12260.8	11381.55
845.228	904.4739	12249.85	11376.85
845.3732	906.5052	12256.15	11380.75
845.5183	908.5358	12150.05	11277.55
845.6635	910.5658	11999.25	11122
845.8086	912.595	11826.85	10954.3
845.9538	914.6236	11681.45	10810.45
846.0989	916.6515	11608.55	10735.5
846.2441	918.6786	11553.5	10677.95
846.3892	920.7051	11569.55	10694.3
846.5344	922.7309	11654.1	10782.55
846.6795	924.756	11731.4	10855.45
846.8246	926.7804	11801	10924.15
846.9698	928.8041	11725	10850.2
847.1149	930.8272	11765.8	10889.85
847.2601	932.8495	11713.6	10836.65
847.4052	934.8711	11644.6	10768.3
847.5504	936.892	11507.85	10632.85
847.6955	938.9123	11356.65	10479.1
847.8407	940.9318	11232.85	10357.95
847.9858	942.9506	11139.4	10262.9
848.131	944.9688	11026.9	10149.1
848.2761	946.9862	10983.25	10107.35
848.4213	949.003	10870.85	9996.15
848.5664	951.019	10840.75	9962.85
848.7115	953.0344	10831.45	9955.15
848.8567	955.0491	10877.85	9999.7
849.0018	957.063	10942.2	10066
849.147	959.0763	11017.65	10144.85
849.2921	961.0888	11057.7	10177.4
849.4373	963.1007	11112.5	10238.35
849.5824	965.1119	11132.05	10256.25
849.7275	967.1223	11164.6	10286
849.8727	969.1321	11142.95	10267.05
850.0178	971.1412	11160.35	10284.1
850.1629	973.1495	11179.8	10304.75
850.3081	975.1572	11230.1	10321.85
850.4532	977.1641	11205.25	10328.05
850.5983	979.1704	11189.5	10312.25
850.7435	981.1759	11158.1	10277.35
850.8886	983.1808	11211.65	10331.9
851.0337	985.1849	11287.55	10399.1
851.1788	987.1884	11429.55	10551.65
851.324	989.1911	11603.35	10724.15
851.4691	991.1932	11712.35	10833.5
851.6142	993.1945	11765.4	10886.3
851.7593	995.1951	11695.9	10818.65
851.9045	997.1951	11682.2	10801.25
852.0496	999.1943	11560.75	10685.45
852.1947	1001.1928	11536.25	10656.6
852.3398	1003.1906	11537.55	10660.85
852.4849	1005.1877	11587.1	10708.75
852.63	1007.1841	11550.6	10673.45
852.7751	1009.1798	11506.9	10629.7
852.9202	1011.1748	11304.3	10425.2
853.0653	1013.1691	11106.95	10227.15
853.2104	1015.1627	10851.45	9973.4
853.3555	1017.1556	10641.05	9765.65
853.5006	1019.1477	10527.85	9649.95
853.6457	1021.1392	10453.75	9578.05
853.7908	1023.1299	10413.85	9534.35
853.9359	1025.12	10467.2	9588.95
854.081	1027.1093	10490.15	9613.8
854.2261	1029.0979	10584.7	9708.25
854.3712	1031.0859	10646.85	9771.9
854.5163	1033.0731	10645.2	9765.9
854.6613	1035.0596	10545.9	9670.35
854.8064	1037.0454	10391.3	9510.55
854.9515	1039.0304	10268.6	9391.05
855.0965	1041.0148	10134.1	9254.05
855.2416	1042.9985	10037.7	9157.4
855.3867	1044.9814	9981.3	9103.9
855.5317	1046.9636	9939.5	9057.7
855.6768	1048.9452	9923.15	9048.35
855.8219	1050.926	9912.4	9035.35
855.9669	1052.9061	9907.4	9030.05
856.112	1054.8855	9894.45	9017
856.257	1056.8642	9919.2	9041.4
856.4021	1058.8421	9963.15	9083.4
856.5471	1060.8194	9981.7	9103.9
856.6921	1062.7959	9987.25	9109.3
856.8372	1064.7717	10013.85	9134.6
856.9822	1066.7469	10059.15	9177.45
857.1272	1068.7213	10043.55	9161.65
857.2723	1070.695	10033.25	9155.6
857.4173	1072.6679	9987.65	9110.15
857.5623	1074.6402	9946.85	9067.55
857.7073	1076.6117	9887.8	9003.5
857.8523	1078.5826	9892	9012.2
857.9973	1080.5527	9854.65	8969.8
858.1423	1082.5221	9919.9	9040.65
858.2873	1084.4908	10108.25	9227.4
858.4323	1086.4587	10271.45	9392.85
858.5773	1088.426	10374	9493.35
858.7223	1090.3925	10405.45	9521.6
858.8673	1092.3584	10364.65	9485.35
859.0123	1094.3235	10227.9	9350
859.1573	1096.2879	10145.65	9266.55
859.3022	1098.2515	10163.35	9282.6
859.4472	1100.2145	10232.9	9354.55
859.5922	1102.1767	10317.85	9433.45
859.7371	1104.1382	10469.25	9591.3
859.8821	1106.099	10705.2	9822.4
860.027	1108.0591	10898.3	10017.45
860.172	1110.0185	11034.85	10153.85
860.3169	1111.9771	11072.95	10193.7
860.4619	1113.9351	10837.55	9958.4
860.6068	1115.8923	10560.7	9680.2
860.7517	1117.8488	10283.8	9402.7
860.8967	1119.8045	10002.45	9120.9
861.0416	1121.7596	9870.95	8989.85
861.1865	1123.7139	9799.45	8919.25
861.3314	1125.6675	9787.45	8906.35
861.4763	1127.6204	9851.55	8971.35
861.6212	1129.5726	9778.7	8894.2
861.7661	1131.524	9749.6	8871.2
861.911	1133.4748	9761.2	8882.9
862.0559	1135.4248	9724.05	8842.55
862.2008	1137.3741	9697.15	8817.7
862.3457	1139.3226	9635.8	8752.6
862.4905	1141.2705	9551.6	8670.85
862.6354	1143.2176	9469.8	8584.1
862.7803	1145.164	9471.3	8589.1
862.9251	1147.1097	9445.6	8565.2
863.07	1149.0546	9431.6	8549.9
863.2148	1150.9989	9321.2	8439.9
863.3597	1152.9424	9185.75	8304.15
863.5045	1154.8852	9021.45	8141.05
863.6493	1156.8272	8919.8	8037.2
863.7942	1158.7686	8836.95	7950.55
863.939	1160.7092	8835.45	7953.5
864.0838	1162.6491	8828.8	7947.3
864.2286	1164.5883	8910.5	8029.4
864.3734	1166.5267	8995.7	8113.25
864.5182	1168.4644	9106.85	8226.05
864.663	1170.4014	9306.75	8419.9
864.8078	1172.3377	9529.55	8650.7
864.9526	1174.2732	9786.7	8906.35
865.0974	1176.2081	10048.4	9168.4
865.2421	1178.1421	10326.9	9444.35
865.3869	1180.0755	10562.3	9681.9
865.5317	1182.0082	10668.3	9787.6
865.6764	1183.9401	10707.45	9827.25
865.8212	1185.8713	10556.2	9673.9
865.9659	1187.8017	10304.55	9422.85
866.1106	1189.7315	10014.6	9134.95
866.2554	1191.6605	9743.25	8833.95
866.4001	1193.5888	9497.35	8614.75
866.5448	1195.5163	9364.2	8483.8
866.6895	1197.4432	9282.55	8401.55
866.8342	1199.3693	9247.65	8366.8
866.9789	1201.2947	9207.1	8317.65
867.1236	1203.2193	9205.25	8325.65
867.2683	1205.1432	9209.2	8328.75
867.413	1207.0664	9214.55	8333.85
867.5576	1208.9889	9233.75	8348.95
867.7023	1210.9106	9277.55	8397.35
867.847	1212.8316	9328.9	8450.5
867.9916	1214.7519	9383.75	8492.45
868.1363	1216.6715	9380.35	8501.2
868.2809	1218.5903	9402	8522.55
868.4255	1220.5084	9397.5	8516.05
868.5701	1222.4257	9393.75	8513
868.7148	1224.3424	9337.8	8459.7
868.8594	1226.2583	9394.5	8506.7
869.004	1228.1735	9464.5	8579.6
869.1486	1230.0879	9593.15	8711.85
869.2932	1232.0016	9727.2	8847.15
869.4377	1233.9146	9755.1	8873.3
869.5823	1235.8269	9657.3	8777.45
869.7269	1237.7384	9526.9	8643.15
869.8715	1239.6492	9340.2	8460.7
870.016	1241.5592	9215.4	8329.5
870.1606	1243.4686	9162.45	8281
870.3051	1245.3772	9143.65	8261.45
870.4496	1247.285	9133.05	8251.2
870.5941	1249.1922	9113.3	8230.65
870.7387	1251.0986	9116.5	8234.9
870.8832	1253.0042	9124.85	8244.1
871.0277	1254.9092	9154.05	8272.3
871.1722	1256.8134	9244.7	8366.4
871.3167	1258.7169	9403.2	8519.8
871.4611	1260.6196	9546.45	8666.6
871.6056	1262.5216	9775.7	8892.1
871.7501	1264.4229	9939.7	9060.25
871.8945	1266.3234	10077.7	9196.65
872.039	1268.2232	10145.1	9261.4
872.1834	1270.1223	10161.15	9278.4
872.3278	1272.0207	10148.3	9264.1
872.4723	1273.9183	10100.7	9212.95
872.6167	1275.8151	10016.3	9134.85
872.7611	1277.7113	9949.15	9064.2
872.9055	1279.6067	9855.45	8974.4
873.0499	1281.5014	9754.5	8871.1
873.1943	1283.3953	9755.9	8872.05
873.3386	1285.2885	9774.25	8895.15
873.483	1287.181	9836.25	8952.15
873.6274	1289.0727	9965.1	9080.7
873.7717	1290.9637	10066.4	9184.35
873.9161	1292.854	10179.05	9296.55
874.0604	1294.7435	10263.15	9379.6
874.2047	1296.6323	10412.7	9529.5
874.349	1298.5204	10583.75	9699
874.4933	1300.4077	10750.7	9865.1
874.6376	1302.2943	10825.95	9943.65
874.7819	1304.1802	10854.1	9972.35
874.9262	1306.0653	10689.4	9804.35
875.0705	1307.9497	10516.45	9632.8
875.2147	1309.8333	10322.95	9441.15
875.359	1311.7162	10204.9	9324.55
875.5032	1313.5984	10208.6	9325
875.6475	1315.4798	10298.15	9399.65
875.7917	1317.3605	10370.2	9472.05
875.9359	1319.2405	10458.75	9573.75
876.0801	1321.1197	10416.1	9532.15
876.2243	1322.9982	10298.95	9411.55
876.3685	1324.876	10231.05	9348.4
876.5127	1326.753	10129.65	9246
876.6569	1328.6293	10088.55	9205.7
876.801	1330.5048	10068.9	9183.55
876.9452	1332.3796	10007.25	9127.15
877.0893	1334.2537	10002.85	9093.4
877.2335	1336.127	9931.85	9050.15
877.3776	1337.9996	9907.15	9022.2
877.5217	1339.8714	9896.15	9013.65
877.6658	1341.7426	9894.8	8969
877.8099	1343.6129	9852.55	8967.3
877.954	1345.4826	9811	8926.8
878.0981	1347.3515	9779.6	8896.1
878.2422	1349.2196	9746	8860.9
878.3862	1351.087	9751.4	8867.85
878.5303	1352.9537	9815.6	8929.65
878.6743	1354.8197	9921.2	9038
878.8184	1356.6849	10103.65	9218.95
878.9624	1358.5493	10180.15	9298.25
879.1064	1360.4131	10268.8	9386.4
879.2504	1362.276	10240.9	9358.3
879.3944	1364.1383	10118.65	9235.75
879.5384	1365.9998	9886.9	8997.05
879.6823	1367.8606	9540.75	8655.95
879.8263	1369.7206	9247.9	8367.1
879.9702	1371.5799	9003.95	8118.55
880.1142	1373.4384	8821.65	7936.05
880.2581	1375.2962	8670.5	7785.8
880.402	1377.1533	8405.6	7522.55
880.5459	1379.0096	8070.2	7186.3
880.6898	1380.8652	7768.9	6887.3
880.8337	1382.7201	7530	6647.35
880.9776	1384.5742	7306.6	6422.75
881.1215	1386.4275	7134.45	6249.65
881.2653	1388.2802	7007.3	6125.9
881.4092	1390.132	6902.9	6019
881.553	1391.9832	6863.25	5979.1
881.6968	1393.8336	6779.1	5894.35
881.8406	1395.6832	6738.85	5854.9
881.9844	1397.5322	6711.3	5826.7
882.1282	1399.3803	6702.45	5814.1
882.272	1401.2278	6654.3	5770.3
882.4158	1403.0745	6686.45	5802.75
882.5595	1404.9204	6637.5	5755.65
882.7033	1406.7656	6692.4	5807.95
882.847	1408.6101	6697.55	5812.75
882.9908	1410.4538	6716.35	5832.45
883.1345	1412.2968	6777.85	5895.75
883.2782	1414.139	6814.55	5933.05
883.4219	1415.9805	6939.5	6055.55
883.5656	1417.8213	7018.85	6128.55
883.7092	1419.6613	7127.8	6246.05
883.8529	1421.5006	7319.2	6433.75
883.9965	1423.3391	7547.6	6662.55
884.1402	1425.1769	7900.75	7017.3
884.2838	1427.0139	8359.15	7473.65
884.4274	1428.8502	8966.4	8080.85
884.571	1430.6858	9568.7	8683.6
884.7146	1432.5206	9970.25	9085.9
884.8582	1434.3547	10225.45	9341.8
885.0018	1436.188	10225.3	9342.15
885.1453	1438.0206	10161.1	9275.05
885.2889	1439.8524	10023.95	9139.6
885.4324	1441.6835	9894.15	9011.2
885.5759	1443.5139	9788.55	8900.65
885.7194	1445.3435	9715.1	8831.5
885.8629	1447.1724	9658.9	8775.7
886.0064	1449.0005	9591.1	8708.8
886.1499	1450.8279	9500.95	8615.7
886.2933	1452.6545	9464.7	8579.75
886.4368	1454.4804	9506.7	8625.2
886.5802	1456.3056	9512.3	8623.95
886.7237	1458.13	9410.8	8526.9
886.8671	1459.9536	9182.35	8300.55
887.0105	1461.7766	8852.9	7968.45
887.1539	1463.5987	8436.6	7551.1
887.2972	1465.4202	8050.35	7163.9
887.4406	1467.2409	7692.85	6808.85
887.584	1469.0608	7428.75	6546.45
887.7273	1470.88	7164.75	6279.9
887.8706	1472.6984	6932.25	6049.85
888.0139	1474.5161	6764.7	5878.35
888.1572	1476.3331	6574.3	5692.35
888.3005	1478.1493	6433.8	5550.55
888.4438	1479.9648	6336.95	5452.9
888.5871	1481.7795	6261.2	5379.1
888.7303	1483.5935	6179.55	5296
888.8736	1485.4067	6136.7	5253.9
889.0168	1487.2192	6094.3	5210.45
889.16	1489.031	6052.75	5166
889.3032	1490.842	6017.15	5132.1
889.4464	1492.6522	5957.25	5075.65
889.5896	1494.4618	5915.95	5031.6
889.7327	1496.2705	5886.4	5003.7
889.8759	1498.0785	5864.3	4980.9
890.019	1499.8858	5822.85	4937.65
890.1622	1501.6924	5809.9	4927.2
890.3053	1503.4981	5775.9	4890.25
890.4484	1505.3032	5770.15	4887.25
890.5914	1507.1075	5726.85	4842.1
890.7345	1508.911	5694.95	4811.2
890.8776	1510.7138	5665.85	4780.45
891.0206	1512.5159	5633.45	4751.35
891.1637	1514.3172	5590.3	4708.1
891.3067	1516.1178	5555.4	4674.2
891.4497	1517.9176	5538.95	4654.45
891.5927	1519.7166	5511.55	4629.3
891.7357	1521.515	5484.15	4594.8
891.8786	1523.3126	5463.6	4580
892.0216	1525.1094	5437.15	4552.05
892.1645	1526.9055	5428.25	4544.7
892.3074	1528.7008	5386.1	4501.95
892.4503	1530.4954	5365.55	4481.05
892.5932	1532.2893	5358.8	4477.1
892.7361	1534.0824	5338.5	4449.2
892.879	1535.8747	5346.2	4462.95
893.0218	1537.6663	5325.95	4442.4
893.1647	1539.4572	5311.25	4424.2
893.3075	1541.2473	5308.6	4423.7
893.4503	1543.0367	5302.15	4417.45
893.5931	1544.8253	5299.75	4413.4
893.7359	1546.6132	5329.35	4443
893.8787	1548.4003	5295.05	4400.35
894.0214	1550.1867	5344.3	4450.1
894.1642	1551.9723	5371.25	4481.3
894.3069	1553.7572	5408.8	4522.2
894.4496	1555.5414	5459.4	4576.65
894.5923	1557.3247	5508.15	4625.9
894.735	1559.1074	5590.5	4707.05
894.8777	1560.8893	5692.8	4811.55
895.0204	1562.6705	5777.3	4892.45
895.163	1564.4509	5876.35	4994.5
895.3056	1566.2305	5923.15	5040.7
895.4482	1568.0094	5986.95	5104.6
895.5908	1569.7876	6031.4	5148.6
895.7334	1571.565	6055.85	5171.95
895.876	1573.3417	6073.15	5190.45
896.0186	1575.1176	6079.1	5196.3
896.1611	1576.8928	6047.8	5165.3
896.3036	1578.6672	5966.3	5083.35
896.4461	1580.4409	5880.6	4998.7
896.5886	1582.2138	5784.45	4898.5
896.7311	1583.986	5712.8	4829.8
896.8736	1585.7575	5644.8	4763.4
897.0161	1587.5282	5593.15	4711.4
897.1585	1589.2981	5559.65	4674.35
897.3009	1591.0673	5543.45	4662.15
897.4433	1592.8358	5577.25	4694
897.5857	1594.6035	5604.25	4718.35
897.7281	1596.3704	5638.8	4755.1
897.8705	1598.1366	5646.65	4764.7
898.0128	1599.9021	5694.05	4810.95
898.1551	1601.6668	5757.35	4869.5
898.2975	1603.4308	5845.35	4961.45
898.4398	1605.194	5950.55	5062.55
898.5821	1606.9564	6077.9	5194.9
898.7243	1608.7182	6242.75	5355.3
898.8666	1610.4791	6418.4	5534.45
899.0088	1612.2394	6592.15	5709.75
899.1511	1613.9988	6815.9	5932.95
899.2933	1615.7576	7003.4	6122.1
899.4355	1617.5156	7255.45	6368.65
899.5776	1619.2728	7428.9	6546.35
899.7198	1621.0293	7544.45	6662.4
899.862	1622.785	7555.35	6667.55
900.0041	1624.54	7449.65	6562.15
900.1462	1626.2942	7312.75	6427.4
900.2883	1628.0477	7057	6171.6
900.4304	1629.8005	6834.7	5947.65
900.5725	1631.5525	6622.15	5739
900.7145	1633.3037	6428.85	5546
900.8566	1635.0542	6291.95	5408.2
900.9986	1636.804	6175.25	5291.95
901.1406	1638.553	6185.7	5224.7
901.2826	1640.3013	6090.05	5208
901.4245	1642.0488	6078.1	5194.65
901.5665	1643.7955	6105.4	5225.2
901.7085	1645.5416	6161.85	5276.25
901.8504	1647.2868	6242.45	5362.5
901.9923	1649.0313	6346.1	5463.85
902.1342	1650.7751	6511.8	5626.25
902.2761	1652.5181	6684.5	5801.65
902.4179	1654.2604	6892.7	6008.8
902.5598	1656.0019	7159.6	6276
902.7016	1657.7427	7485.95	6604.8
902.8434	1659.4828	7774.35	6892.9
902.9852	1661.222	7975.7	7091.6
903.127	1662.9606	7954.65	7074.8
903.2687	1664.6984	7738.35	6853.15
903.4105	1666.4354	7358.3	6475.65
903.5522	1668.1717	6857.9	5975.95
903.6939	1669.9072	6325.35	5443.25
903.8356	1671.642	5893.35	5007.35
903.9773	1673.3761	5562.9	4681.6
904.119	1675.1094	5267.7	4387.6
904.2606	1676.8419	5069.2	4187.4
904.4022	1678.5737	4922.7	4039.4
904.5439	1680.3048	4793.2	3912.05
904.6855	1682.0351	4700.65	3818.35
904.827	1683.7646	4601.4	3716.15
904.9686	1685.4934	4555.2	3674.1
905.1101	1687.2215	4511.05	3629.65
905.2517	1688.9488	4454.7	3572.15
905.3932	1690.6754	4403.3	3522.25
905.5347	1692.4012	4383.5	3502.15
905.6761	1694.1263	4347.45	3466.35
905.8176	1695.8506	4334.5	3449.65
905.9591	1697.5742	4291.7	3410.5
906.1005	1699.297	4263.05	3380.4
906.2419	1701.0191	4227.5	3346.65
906.3833	1702.7404	4214.35	3331.7
906.5246	1704.461	4174.55	3291.95
906.666	1706.1808	4156.25	3271.95
906.8073	1707.8999	4134.95	3251.6
906.9487	1709.6182	4118.05	3236.7
907.09	1711.3358	4093.25	3209.65
907.2313	1713.0527	4090.8	3208.1
907.3725	1714.7688	4060.9	3173.5
907.5138	1716.4841	4034.95	3151.15
907.655	1718.1987	4027.1	3140.35
907.7962	1719.9126	4022.3	3141.05
907.9374	1721.6257	3991.25	3106.5
908.0786	1723.338	4000.1	3117
908.2198	1725.0496	3970.95	3089.2
908.3609	1726.7605	3966.4	3084.05
908.502	1728.4706	3944.5	3059.55
908.6431	1730.18	3923.4	3037.7
908.7842	1731.8886	3910.2	3028.95
908.9253	1733.5964	3903.6	3015.55
909.0664	1735.3036	3886.45	3002.8
909.2074	1737.0099	3880.45	2999.25
909.3484	1738.7156	3876.7	2996.95
909.4894	1740.4204	3858.4	2972.9
909.6304	1742.1246	3845.85	2963.3
909.7714	1743.8279	3822.65	2940.85
909.9123	1745.5306	3802.05	2919.3
910.0532	1747.2325	3782.25	2899.85
910.1941	1748.9336	3773.35	2893.15
910.335	1750.634	3759.6	2876.1
910.4759	1752.3336	3770.6	2888.15
910.6168	1754.0325	3736.1	2854.5
910.7576	1755.7307	3735.25	2852.55
910.8984	1757.4281	3729.9	2848.25
911.0392	1759.1247	3723.9	2833.5
911.18	1760.8206	3705.9	2819.7
911.3208	1762.5158	3719.8	2835.3
911.4615	1764.2102	3696.1	2815.55
911.6022	1765.9039	3690.65	2806.7
911.7429	1767.5968	3668.6	2785.1
911.8836	1769.289	3664.55	2783.35
912.0243	1770.9804	3657.2	2776.35
912.1649	1772.6711	3648.1	2765.3
912.3056	1774.361	3642.9	2760.3
912.4462	1776.0502	3638.35	2757.1
912.5868	1777.7386	3632.75	2748.4
912.7274	1779.4263	3623.35	2741.35
912.8679	1781.1132	3631.2	2748.4
913.0084	1782.7994	3610.15	2725.9
913.149	1784.4849	3588.8	2708.05
913.2895	1786.1696	3605.45	2704.3
913.4299	1787.8535	3603.8	2724.45
913.5704	1789.5367	3591	2708.1
913.7108	1791.2192	3576.75	2695.15
913.8513	1792.9009	3557.15	2658.3
913.9917	1794.5818	3549.55	2666.2
914.132	1796.2621	3551.6	2672.95
914.2724	1797.9415	3538.7	2657.2
914.4128	1799.6202	3534.45	2653.05
914.5531	1801.2982	3522.2	2641.25
914.6934	1802.9755	3508.6	2626.7
914.8337	1804.6519	3509.75	2628.3
914.9739	1806.3277	3498	2616.5
915.1142	1808.0027	3499.6	2617.15
915.2544	1809.6769	3510.05	2626.8
915.3946	1811.3504	3476.75	2595.95
915.5348	1813.0231	3490.05	2605.75
915.675	1814.6951	3468.8	2585.1
915.8151	1816.3664	3474.7	2591
915.9553	1818.0369	3447.5	2567.05
916.0954	1819.7067	3464.35	2582.1
916.2355	1821.3757	3441.55	2557.6
916.3755	1823.044	3447.15	2566.6
916.5156	1824.7115	3440.45	2558.2
916.6556	1826.3783	3421.3	2542.65
916.7956	1828.0443	3416.95	2536.7
916.9356	1829.7096	3422.35	2540.2
917.0756	1831.3741	3415.4	2531.2
917.2155	1833.0379	3411.55	2530.25
917.3555	1834.701	3391.75	2507.65
917.4954	1836.3633	3389.1	2504.75
917.6353	1838.0248	3384.95	2501
917.7751	1839.6856	3391.65	2509.85
917.915	1841.3457	3390.8	2508.3
918.0548	1843.005	3371.45	2488.55
918.1946	1844.6636	3365.3	2485.15
918.3344	1846.3214	3360.1	2477.25
918.4742	1847.9785	3364.7	2481.25
918.6139	1849.6349	3343.95	2458.2
918.7537	1851.2904	3354.15	2464.3
918.8934	1852.9453	3334.7	2451.75
919.0331	1854.5994	3338.5	2454.5
919.1727	1856.2528	3346.6	2458.65
919.3124	1857.9054	3325.8	2443.05
919.452	1859.5572	3327.05	2445.45
919.5916	1861.2083	3320.3	2435.3
919.7312	1862.8587	3306	2424.25
919.8708	1864.5084	3282.75	2400
920.0103	1866.1572	3288.2	2408.15
920.1498	1867.8054	3282.8	2401.7
920.2893	1869.4528	3286.6	2407
920.4288	1871.0994	3275.25	2392.5
920.5683	1872.7453	3265.25	2381.8
920.7077	1874.3905	3269.9	2370
920.8471	1876.0349	3266	2384.6
920.9865	1877.6786	3252.05	2368.85
921.1259	1879.3215	3244.5	2362.3
921.2653	1880.9637	3243.6	2358.55
921.4046	1882.6051	3231.3	2350.3
921.5439	1884.2458	3220.45	2335.25
921.6832	1885.8858	3224.95	2342.8
921.8225	1887.525	3217.9	2335.8
921.9617	1889.1634	3206.95	2325.7
922.101	1890.8011	3180.5	2299.6
922.2402	1892.4381	3194.6	2310.3
922.3794	1894.0743	3179.1	2298.05
922.5185	1895.7098	3156.65	2273.7
922.6577	1897.3446	3192.8	2311.2
922.7968	1898.9786	3173	2286.25
922.9359	1900.6118	3179.4	2297.7
923.075	1902.2443	3149.15	2265.7
923.214	1903.8761	3149.65	2267.35
923.3531	1905.5071	3135.9	2253.6
923.4921	1907.1374	3134.6	2254.7
923.6311	1908.7669	3135.7	2256.35
923.77	1910.3957	3131.9	2250.1
923.909	1912.0237	3114.85	2234.1
924.0479	1913.651	3104.15	2223.05
924.1868	1915.2776	3106.4	2226.8
924.3257	1916.9034	3103.75	2223.55
924.4646	1918.5285	3090.75	2208.65
924.6034	1920.1528	3077.9	2195.9
924.7422	1921.7764	3080.2	2199
924.881	1923.3992	3065.65	2186.55
925.0198	1925.0213	3053.45	2170.5
925.1586	1926.6427	3058.4	2178.1
925.2973	1928.2633	3154.15	2150.3
925.436	1929.8832	3057.3	2173.25
925.5747	1931.5023	3033.55	2151.85
925.7134	1933.1207	3016.55	2133.75
925.852	1934.7383	3018.75	2134.9
925.9906	1936.3552	2999.45	2116.65
926.1292	1937.9714	3001.6	2120.3
926.2678	1939.5868	2992.55	2107.85
926.4064	1941.2015	2976.2	2093.6
926.5449	1942.8154	2977.45	2097.25
926.6834	1944.4286	2963.55	2080.65
926.8219	1946.041	2963.1	2057.65
926.9604	1947.6528	2953.85	2066.45
927.0988	1949.2637	2937.65	2056.8
927.2372	1950.8739	2925.7	2044.2
927.3756	1952.4834	2932.55	2049.9
927.514	1954.0921	2925.3	2042.05
927.6523	1955.7001	2906.9	2022.95
927.7907	1957.3074	2913	2030.85
927.929	1958.9139	2905.85	2024.05
928.0673	1960.5197	2890.6	2007.55
928.2055	1962.1247	2884.65	2003.6
928.3438	1963.729	2880	1998.35
928.482	1965.3325	2881.2	1973.55
928.6202	1966.9353	2862.15	1981.15
928.7584	1968.5374	2852.4	1968.05
928.8965	1970.1387	2839.4	1958
929.0346	1971.7393	2844.15	1962.2
929.1727	1973.3392	2837.85	1956.65
929.3108	1974.9383	2832.2	1949.55
929.4489	1976.5366	2834.2	1953.25
929.5869	1978.1342	2817.2	1934.15
929.7249	1979.7311	2809.05	1928
929.8629	1981.3273	2813.45	1931.8
930.0009	1982.9227	2809.85	1926.85
930.1388	1984.5173	2786.5	1904.15
930.2767	1986.1112	2789.7	1906.55
930.4146	1987.7044	2787.15	1906.2
930.5525	1989.2968	2770.25	1887
930.6904	1990.8885	2792.35	1907.35
930.8282	1992.4795	2771.75	1888.65
930.966	1994.0697	2757.5	1876.15
931.1038	1995.6592	2764.65	1880.65
931.2415	1997.2479	2745.9	1864.8
931.3793	1998.8359	2734.35	1851.2
931.517	2000.4232	2731.45	1851.3
931.6547	2002.0097	2728.8	1846.3
931.7923	2003.5955	2726	1843.2
931.93	2005.1805	2727.15	1844.65
932.0676	2006.7648	2716	1834.1
932.2052	2008.3484	2713.5	1831.4
932.3427	2009.9312	2719.1	1834.6
932.4803	2011.5133	2710.75	1828.5
932.6178	2013.0946	2695.9	1815.2
932.7553	2014.6752	2696.85	1813.75
932.8928	2016.2551	2673.95	1791.4
933.0302	2017.8342	2691.85	1809.7
933.1676	2019.4126	2684.5	1800.95
933.305	2020.9902	2669.8	1788.65
933.4424	2022.5672	2665.8	1781.5
933.5798	2024.1433	2677.45	1789.95
933.7171	2025.7188	2661.95	1781.05
933.8544	2027.2935	2647.45	1765.3
933.9917	2028.8674	2644.05	1761.15
934.129	2030.4406	2638.3	1758.3
934.2662	2032.0131	2634.35	1754.15
934.4034	2033.5849	2627.4	1741.2
934.5406	2035.1559	2625.3	1741.15
934.6778	2036.7261	2625.75	1741
934.8149	2038.2957	2621.1	1738.65
934.952	2039.8645	2608.8	1728.1
935.0891	2041.4325	2610.6	1727.75
935.2262	2042.9998	2596.5	1713.75
935.3632	2044.5664	2595.15	1712.9
935.5002	2046.1323	2583.75	1701.2
935.6372	2047.6974	2584	1702.8
935.7742	2049.2617	2587.05	1706.7
935.9111	2050.8254	2623.55	1705.75
936.048	2052.3883	2587.35	1703
936.1849	2053.9504	2579.6	1696.2
936.3218	2055.5118	2578	1693.25
936.4586	2057.0725	2565.95	1678.45
936.5955	2058.6325	2571.4	1688.5
936.7323	2060.1917	2549.6	1667.75
936.869	2061.7502	2553.95	1666.85
937.0058	2063.3079	2543.05	1663.1
937.1425	2064.8649	2538.4	1652.95
937.2792	2066.4212	2525.15	1640.45
937.4159	2067.9767	2536.6	1655.1
937.5525	2069.5315	2521	1639.1
937.6891	2071.0856	2518	1635.5
937.8257	2072.6389	2504.95	1621.2
937.9623	2074.1915	2503.35	1620.65
938.0989	2075.7433	2486.4	1601.75
938.2354	2077.2945	2492.15	1611.55
938.3719	2078.8448	2484.45	1603.9
938.5084	2080.3945	2475.15	1593.05
938.6448	2081.9434	2482.35	1600.05
938.7812	2083.4916	2477.25	1594.85
938.9176	2085.039	2460.55	1578.65
939.054	2086.5857	2466.75	1583.5
939.1903	2088.1317	2455.45	1575.15
939.3267	2089.677	2447.35	1562.5
939.463	2091.2215	2453.25	1571.4
939.5992	2092.7652	2446.6	1562.8
939.7355	2094.3083	2445.7	1561.65
939.8717	2095.8506	2441.3	1560.35
940.0079	2097.3921	2433.7	1551.5
940.1441	2098.933	2429.1	1548.3
940.2802	2100.4731	2429.2	1546.45
940.4163	2102.0124	2440.25	1540.85
940.5524	2103.5511	2420.55	1539.4
940.6885	2105.089	2429.5	1547.95
940.8245	2106.6261	2418.95	1536.05
940.9606	2108.1626	2420.2	1535.9
941.0965	2109.6983	2441.2	1531.15
941.2325	2111.2332	2414.25	1531.9
941.3684	2112.7675	2396.5	1513.85
941.5044	2114.301	2398.35	1513.95
941.6403	2115.8337	2397	1514.75
941.7761	2117.3657	2390.5	1507.8
941.912	2118.897	2389.5	1507.85
942.0478	2120.4276	2389.65	1502.1
942.1835	2121.9575	2371.75	1490.05
942.3193	2123.4866	2402.25	1505.3
942.455	2125.0149	2365.85	1482.05
942.5907	2126.5426	2368.6	1484.55
942.7264	2128.0695	2366.75	1480.8
942.8621	2129.5956	2360.3	1478.85
942.9977	2131.1211	2360.65	1470.75
943.1333	2132.6458	2350.65	1468.95
943.2689	2134.1698	2342.9	1462.4
943.4044	2135.693	2335.7	1452.6
943.54	2137.2155	2334.2	1451.05
943.6755	2138.7373	2327.85	1445.3
943.8109	2140.2584	2329.2	1449.5
943.9464	2141.7787	2337.35	1449.4
944.0818	2143.2983	2320.4	1437.7
944.2172	2144.8171	2310.7	1429
944.3526	2146.3353	2313.25	1428.1
944.4879	2147.8527	2306.15	1423.55
944.6232	2149.3693	2305.45	1422.4
944.7585	2150.8853	2296.2	1411.75
944.8938	2152.4005	2288.5	1405.35
945.029	2153.9149	2290.7	1407.85
945.1642	2155.4287	2281.15	1400
945.2994	2156.9417	2284.8	1403.55
945.4346	2158.454	2280.8	1393.75
945.5697	2159.9655	2278.05	1396.65
945.7048	2161.4764	2275.85	1392.35
945.8399	2162.9865	2270.25	1387.75
945.9749	2164.4958	2273.15	1387.5
946.1099	2166.0045	2266.25	1381.9
946.2449	2167.5124	2259.25	1377.65
946.3799	2169.0195	2255	1373.95
946.5148	2170.526	2254.8	1371.9
946.6498	2172.0317	2249.95	1366.55
946.7846	2173.5367	2251.95	1368.5
946.9195	2175.0409	2242.6	1360.45
947.0543	2176.5445	2243.8	1363.5
947.1891	2178.0473	2233.05	1349.55
947.3239	2179.5494	2239.2	1353.45
947.4587	2181.0507	2229	1344.8
947.5934	2182.5513	2224.4	1343.1
947.7281	2184.0512	2218.8	1336.65
947.8628	2185.5504	2218	1336.15
947.9974	2187.0488	2206.65	1323.45
948.132	2188.5465	2223.85	1339.6
948.2666	2190.0435	2207.95	1325.6
948.4012	2191.5397	2199.8	1319.1
948.5357	2193.0353	2196.55	1314.25
948.6702	2194.5301	2196.65	1313.25
948.8047	2196.0241	2187.9	1305.4
948.9392	2197.5175	2192.25	1309.5
949.0736	2199.0101	2185.1	1300.4
949.208	2200.502	2166.95	1287
949.3424	2201.9931	2171.15	1289
949.4767	2203.4835	2157.1	1272.75
949.611	2204.9733	2161.05	1273
949.7453	2206.4622	2163.8	1282.25
949.8796	2207.9505	2149.55	1264.1
950.0138	2209.438	2146.45	1267.65
950.148	2210.9248	2145.85	1260.4
950.2822	2212.4109	2132.45	1248.85
950.4164	2213.8962	2128.2	1244.4
950.5505	2215.3809	2132.9	1249.8
950.6846	2216.8648	2123.2	1240.15
950.8186	2218.3479	2128.4	1240.7
950.9527	2219.8304	2122.75	1237.1
951.0867	2221.3121	2114.2	1229.55
951.2207	2222.7931	2113.35	1230
951.3546	2224.2733	2102.25	1220.25
951.4886	2225.7529	2104.85	1220.15
951.6225	2227.2317	2105.15	1219.3
951.7563	2228.7098	2103.65	1222.05
951.8902	2230.1872	2086.45	1200.4
952.024	2231.6638	2092.7	1209.1
952.1578	2233.1397	2095.75	1207.8
952.2916	2234.6149	2079.75	1197.95
952.4253	2236.0894	2072.1	1189.25
952.559	2237.5632	2077.9	1185.4
952.6927	2239.0362	2064.5	1182.1
952.8263	2240.5085	2056.75	1174.75
952.9599	2241.9801	2050.9	1168.4
953.0935	2243.4509	2051.8	1171.15
953.2271	2244.921	2047.7	1165.4
953.3606	2246.3904	2051.45	1168.15
953.4941	2247.8591	2042.85	1160.15
953.6276	2249.3271	2036.05	1154.9
953.7611	2250.7943	2039.05	1155.95
953.8945	2252.2608	2030.7	1149.45
954.0279	2253.7266	2022.1	1138.8
954.1612	2255.1917	2022.85	1141.65
954.2946	2256.656	2022.15	1139.7
954.4279	2258.1197	2017.15	1134.25
954.5612	2259.5826	2008.95	1123.5
954.6944	2261.0447	2011.25	1129.25
954.8276	2262.5062	2005.35	1121.95
954.9608	2263.9669	2001.85	1116.3
955.094	2265.4269	2014.5	1134
955.2271	2266.8862	2002.9	1118.8
955.3602	2268.3448	1999.85	1116.9
955.4933	2269.8026	1994.4	1112.1
955.6264	2271.2598	1995.15	1111.65
955.7594	2272.7162	1980.75	1099.95
955.8924	2274.1719	1978.25	1096.7
956.0253	2275.6268	1988.3	1107.55
956.1583	2277.0811	1982.6	1099.5
956.2912	2278.5346	1978.6	1097.65
956.4241	2279.9874	1980.75	1099.9
956.5569	2281.4395	1978.1	1097
956.6897	2282.8908	1971.05	1082.5
956.8225	2284.3414	1969.65	1085.9
956.9553	2285.7914	1962.6	1081.55
957.088	2287.2406	1968.5	1084.25
957.2207	2288.689	1968.05	1085.75
957.3534	2290.1368	1963.2	1081.05
957.486	2291.5838	1961.95	1080.35
957.6186	2293.0302	1958.4	1074.65
957.7512	2294.4758	1936.85	1055
957.8838	2295.9206	1943.6	1057.95
958.0163	2297.3648	1948.75	1066.75
958.1488	2298.8082	1934.15	1048.25
958.2813	2300.251	1934.35	1051.1
958.4137	2301.693	1925.6	1039.05
958.5461	2303.1343	1939.15	1056.85
958.6785	2304.5748	1921.95	1040.15
958.8108	2306.0147	1928.55	1045.35
958.9432	2307.4538	1924.2	1037.4
959.0754	2308.8922	1911.45	1029.85
959.2077	2310.3299	1914.35	1033
959.3399	2311.7669	1908.55	1024.7
959.4721	2313.2031	1897.2	1012.95
959.6043	2314.6387	1911.05	1029.4
959.7365	2316.0735	1903.25	1019.95
959.8686	2317.5076	1901.9	1018.2
960.0006	2318.941	1900.75	1018.25
960.1327	2320.3737	1895.55	1013.6
960.2647	2321.8056	1889.15	1005.8
960.3967	2323.2369	1886.15	1003
960.5287	2324.6674	1891.15	1004.6
960.6606	2326.0972	1881.85	997.6
960.7925	2327.5263	1880.1	997.2
960.9244	2328.9547	1881.7	999.65
961.0562	2330.3823	1875.65	992.9
961.1881	2331.8092	1875.6	991.3
961.3198	2333.2355	1862.55	980.8
961.4516	2334.661	1859.4	977.15
961.5833	2336.0858	1862.35	977.95
961.715	2337.5098	1864.95	982
961.8467	2338.9332	1858.55	975.9
961.9783	2340.3558	1857.1	971.65
962.1099	2341.7778	1863.05	981.75
962.2415	2343.199	1850.45	966.25
962.373	2344.6195	1851.6	968.55
962.5045	2346.0393	1848.95	966.95
962.636	2347.4583	1840.7	957.35
962.7675	2348.8767	1843.35	960.8
962.8989	2350.2943	1845.1	961.7
963.0303	2351.7113	1845.2	960.75
963.1617	2353.1275	1834.7	951.9
963.293	2354.543	1848.3	941.2
963.4243	2355.9578	1833.7	951.45
963.5556	2357.3718	1829.5	947.7
963.6868	2358.7852	1826.9	943.15
963.818	2360.1978	1826.1	942.2
963.9492	2361.6098	1810	929
964.0803	2363.021	1826.65	939.1
964.2114	2364.4315	1821.6	938.8
964.3425	2365.8413	1818.55	933.05
964.4736	2367.2504	1809.05	927.8
964.6046	2368.6587	1813.55	929.05
964.7356	2370.0664	1798.25	914.75
964.8666	2371.4733	1804.6	922.3
964.9975	2372.8795	1797.2	916.2
965.1284	2374.285	1792.1	908.55
965.2593	2375.6899	1784.05	903.55
965.3901	2377.0939	1779.35	896.65
965.5209	2378.4973	1787.65	906.85
965.6517	2379.9	1783.9	899.85
965.7825	2381.3019	1778.55	896.4
965.9132	2382.7032	1768.25	885.15
966.0439	2384.1037	1773.75	892.35
966.1745	2385.5035	1768.65	886.6
966.3051	2386.9027	1761.6	881.3
966.4357	2388.3011	1758.5	873.65
966.5663	2389.6987	1757.05	875.05
966.6968	2391.0957	1752.55	870
966.8273	2392.492	1760.9	880.15
966.9578	2393.8876	1746.35	862.45
967.0882	2395.2824	1744.1	864.25
967.2186	2396.6765	1736.85	855.35
967.349	2398.07	1734.25	853.45
967.4793	2399.4627	1743.15	860.75
967.6097	2400.8547	1734.3	853.9
967.7399	2402.246	1739.9	851.15
967.8702	2403.6366	1731.2	850.45
968.0004	2405.0265	1722.4	841.35
968.1306	2406.4156	1729.8	844.1
968.2607	2407.8041	1716.3	831
968.3909	2409.1918	1718.15	834.4
968.521	2410.5789	1715.85	834.95
968.651	2411.9652	1719	834.25
968.781	2413.3508	1717.6	838.6
968.911	2414.7358	1711.9	829.05
969.041	2416.12	1706.15	825.15
969.1709	2417.5035	1706.45	827
969.3008	2418.8863	1714	831.05
969.4307	2420.2684	1707.1	825.3
969.5606	2421.6497	1701.55	820.6
969.6904	2423.0304	1698.55	817.7
969.8201	2424.4104	1693.6	810.1
969.9499	2425.7896	1698.85	813.55
970.0796	2427.1682	1690.25	808.75
970.2093	2428.546	1687.95	803.65
970.3389	2429.9232	1682.45	797.85
970.4685	2431.2996	1684.95	803.35
970.5981	2432.6753	1690.3	810.4
970.7277	2434.0503	1674.3	792.8
970.8572	2435.4246	1674.25	791.95
970.9867	2436.7982	1668.55	783.3
971.1161	2438.1711	1666.25	787.45
971.2456	2439.5433	1665.3	781.7
971.375	2440.9148	1667.05	780.15
971.5043	2442.2856	1657	776.7
971.6336	2443.6557	1654.4	771.75
971.7629	2445.025	1653.4	772.15
971.8922	2446.3937	1653.25	771.2
972.0214	2447.7617	1647.5	767
972.1506	2449.1289	1653.2	770.95
972.2798	2450.4955	1656.85	772.5
972.4089	2451.8613	1647.3	766
972.538	2453.2265	1647.6	766.55
972.6671	2454.5909	1651.2	770
972.7961	2455.9546	1644	761.8
972.9251	2457.3177	1636.3	754.15
973.0541	2458.68	1635.35	752.2
973.1831	2460.0416	1641.4	758.7
973.312	2461.4025	1632.45	751.05
973.4408	2462.7627	1649.7	755.05
973.5697	2464.1222	1624.4	743.75
973.6985	2465.4811	1631.25	745.25
973.8273	2466.8392	1634.45	752.2
973.956	2468.1966	1635.7	751.65
974.0847	2469.5533	1636	754.4
974.2134	2470.9093	1633.55	749.05
974.3421	2472.2645	1641.3	756.7
974.4707	2473.6191	1622.8	738.25
974.5993	2474.973	1623.85	742.05
974.7278	2476.3262	1625.4	742.7
974.8563	2477.6787	1617.95	735.2
974.9848	2479.0305	1620.75	738.7
975.1132	2480.3816	1609.85	723.95
975.2417	2481.7319	1607	724.9
975.37	2483.0816	1604.35	719.3
975.4984	2484.4306	1598.05	714.65
975.6267	2485.7789	1601.65	719.1
975.755	2487.1264	1593.65	708.35
975.8833	2488.4733	1597.4	713.9
976.0115	2489.8195	1607.6	707.45
976.1397	2491.165	1594.05	708.15
976.2678	2492.5097	1601.15	717.75
976.3959	2493.8538	1584.6	705.05
976.524	2495.1972	1573.8	691.05
976.6521	2496.5398	1576.4	694.25
976.7801	2497.8818	1587	703.85
976.9081	2499.2231	1577.95	697.1
977.036	2500.5637	1575.4	692.3
977.164	2501.9035	1572.45	687.8
977.2918	2503.2427	1571.55	685.55
977.4197	2504.5812	1566.4	683.85
977.5475	2505.919	1575.55	691.6
977.6753	2507.256	1567.25	685.05
977.8031	2508.5924	1570.35	687.9
977.9308	2509.9281	1564.25	675.65
978.0585	2511.2631	1561.4	678.5
978.1861	2512.5974	1554.05	672.05
978.3137	2513.9309	1557.1	674.75
978.4413	2515.2638	1586.05	675.15
978.5689	2516.596	1552.35	670.05
978.6964	2517.9275	1555.4	671.7
978.8239	2519.2583	1547.6	664.4
978.9513	2520.5884	1546.3	663.65
979.0788	2521.9178	1538.45	655.9
979.2062	2523.2465	1535.1	651.95
979.3335	2524.5745	1543.1	661.6
979.4608	2525.9018	1541.1	657.05
979.5881	2527.2284	1543.35	661.35
979.7154	2528.5543	1543.65	661.85
979.8426	2529.8796	1536.25	653.85
979.9698	2531.2041	1535.2	654.25
980.0969	2532.5279	1530.35	649.5
980.224	2533.851	1536.15	654.8
980.3511	2535.1735	1530.7	647.8
980.4781	2536.4952	1531.4	650.95
980.6052	2537.8163	1528.15	644.95
980.7321	2539.1366	1523.85	640.95
980.8591	2540.4562	1523.45	639.9
980.986	2541.7752	1535.2	652.95
981.1129	2543.0935	1534.6	651.5
981.2397	2544.411	1530.05	647.35
981.3665	2545.7279	1517.9	637.5
981.4933	2547.0441	1523.25	641.1
981.62	2548.3596	1521.05	638.75
981.7467	2549.6744	1509.95	627.45
981.8734	2550.9885	1512.55	630.9
982.0001	2552.3019	1511.1	629.15
982.1267	2553.6146	1514.5	632.05
982.2532	2554.9266	1518.45	635.25
982.3798	2556.2379	1506.5	622.9
982.5063	2557.5485	1506.2	625.15
982.6327	2558.8585	1514.15	624.85
982.7592	2560.1677	1507.3	622.2
982.8856	2561.4762	1498.65	614.55
983.0119	2562.7841	1508.15	623
983.1383	2564.0913	1498.15	617.15
983.2646	2565.3977	1492.55	611.3
983.3908	2566.7035	1493.4	609.85
983.517	2568.0086	1499	616.05
983.6432	2569.313	1489.7	607.35
983.7694	2570.6167	1495.35	609.9
983.8955	2571.9197	1486.45	605.9
984.0216	2573.222	1501.35	614.65
984.1476	2574.5236	1486.4	603.4
984.2737	2575.8246	1491.3	605.1
984.3996	2577.1248	1492.5	608.3
984.5256	2578.4244	1490.9	608.25
984.6515	2579.7232	1497.15	615.9
984.7774	2581.0214	1519.25	606
984.9032	2582.3189	1492.55	610.7
985.029	2583.6157	1493.5	606.4
985.1548	2584.9118	1489.4	606.35
985.2806	2586.2072	1488.9	606.6
985.4063	2587.5019	1494.95	612.65
985.5319	2588.7959	1496	611.95
985.6576	2590.0893	1491.6	605.75
985.7832	2591.3819	1496.95	614.65
985.9087	2592.6739	1497.5	616.45
986.0343	2593.9652	1500.95	617
986.1597	2595.2557	1501.65	618.25
986.2852	2596.5456	1495.5	611.5
986.4106	2597.8348	1489.5	609.35
986.536	2599.1234	1497.1	616.6
986.6614	2600.4112	1499.2	615.5
986.7867	2601.6983	1497.05	611.45
986.912	2602.9848	1501.2	618.35
987.0372	2604.2705	1503.65	613.6
987.1624	2605.5556	1501.25	618.35
987.2876	2606.84	1494.6	611.35
987.4128	2608.1237	1483.9	601.35
987.5379	2609.4067	1483.55	602
987.6629	2610.689	1494	603.7
987.788	2611.9707	1488.5	604.3
987.913	2613.2516	1488.75	603.1
988.0379	2614.5319	1477.7	597.8
988.1629	2615.8115	1484.65	601.75
988.2878	2617.0903	1475	590
988.4126	2618.3685	1480.3	596.75
988.5375	2619.6461	1474.7	590.6
988.6622	2620.9229	1466.8	582.5
988.787	2622.199	1475.95	590.75
988.9117	2623.4745	1476.4	593.15
989.0364	2624.7493	1464.45	580.9
989.161	2626.0234	1466.4	587.5
989.2857	2627.2968	1473.55	591.45
989.4102	2628.5695	1472.95	588.9
989.5348	2629.8415	1473.8	591.65
989.6593	2631.1128	1472.45	589.05
989.7837	2632.3835	1468.85	585.75
989.9082	2633.6535	1460.8	577.2
990.0326	2634.9228	1463.35	583.2
990.1569	2636.1914	1459.95	579.45
990.2812	2637.4593	1471.25	586.3
990.4055	2638.7265	1459.9	576.85
990.5298	2639.9931	1457.15	574.4
990.654	2641.259	1462.55	579.65
990.7782	2642.5242	1456.25	574.2
990.9023	2643.7887	1462.25	577.4
991.0264	2645.0525	1462.65	580.6
991.1505	2646.3156	1448.65	563.9
991.2745	2647.5781	1447.6	564.8
991.3985	2648.8398	1444.25	562.6
991.5225	2650.1009	1477.05	555.9
991.6464	2651.3613	1449.15	567.15
991.7703	2652.6211	1438.35	555.45
991.8942	2653.8801	1444.9	564.6
992.018	2655.1385	1447.45	562.3
992.1418	2656.3961	1435.35	553.2
992.2655	2657.6531	1446	563.85
992.3892	2658.9094	1443.55	561
992.5129	2660.1651	1447.2	566.25
992.6366	2661.42	1448	566.05
992.7602	2662.6743	1451.5	566.6
992.8837	2663.9279	1449.85	569.3
993.0073	2665.1808	1451	567.9
993.1307	2666.433	1445.7	561.15
993.2542	2667.6846	1456.4	575.1
993.3776	2668.9354	1460.05	575.2
993.501	2670.1856	1459.75	577.05
993.6244	2671.4351	1457.5	576.65
993.7477	2672.6839	1466.1	581.2
993.8709	2673.9321	1462.6	583.75
993.9942	2675.1795	1461.75	577.5
994.1174	2676.4263	1468.75	585.6
994.2405	2677.6724	1463.65	581.4
994.3637	2678.9179	1458.55	575.4
994.4868	2680.1626	1463	580.8
994.6098	2681.4067	1466.95	585.35
994.7328	2682.6501	1461.4	578.05
994.8558	2683.8928	1469.05	587.3
994.9788	2685.1348	1459.9	577.95
995.1017	2686.3761	1454.25	571
995.2245	2687.6168	1457	573.9
995.3474	2688.8568	1447.9	566.75
995.4702	2690.0961	1445.35	564.85
995.5929	2691.3348	1447.8	564.95
995.7156	2692.5727	1438.7	556.9
995.8383	2693.81	1435.95	550.8
995.961	2695.0466	1438.85	558.7
996.0836	2696.2826	1436.25	551.2
996.2062	2697.5178	1444.9	558.05
996.3287	2698.7524	1439.15	554.4
996.4512	2699.9863	1439.85	555.15
996.5737	2701.2195	1442.75	559.9
996.6961	2702.452	1446.45	563.4
996.8185	2703.6839	1455.3	572.85
996.9408	2704.9151	1451.7	571.15
997.0631	2706.1456	1453.9	570.95
997.1854	2707.3755	1461.7	576.35
997.3077	2708.6046	1476.35	590.35
997.4299	2709.8331	1470.15	587.9
997.552	2711.0609	1474.95	592.15
997.6742	2712.2881	1488.45	603.9
997.7963	2713.5145	1501.35	617
997.9183	2714.7403	1513.95	632.7
998.0403	2715.9654	1515.95	631.85
998.1623	2717.1899	1542.6	645.2
998.2842	2718.4136	1554.2	672.15
998.4062	2719.6367	1558.85	677.9
998.528	2720.8591	1568.85	677.85
998.6498	2722.0809	1580	697.5
998.7716	2723.3019	1592.9	708.65
998.8934	2724.5223	1597.95	712.2
999.0151	2725.7421	1595.65	712.05
999.1368	2726.9611	1599.85	716.6
999.2584	2728.1795	1600.95	713.55
999.38	2729.3972	1586.9	705.5
999.5016	2730.6142	1593.05	697.45
999.6231	2731.8306	1563.1	678.25
999.7446	2733.0462	1552.2	665.45
999.8661	2734.2612	1541.3	652.6
999.9875	2735.4756	1529.3	645.8
1000.1089	2736.6892	1499.9	616.1
1000.2302	2737.9022	1491.8	610.7
1000.3515	2739.1145	1470.2	589.35
1000.4728	2740.3262	1467.15	576.85
1000.594	2741.5372	1450.3	570.65
1000.7152	2742.7475	1442	561.2
1000.8363	2743.9571	1432.05	547.65
1000.9575	2745.1661	1426.7	538.65
1001.0785	2746.3744	1410.6	529.25
1001.1996	2747.582	1406.6	524.75
1001.3206	2748.7889	1396.45	514.75
1001.4415	2749.9952	1383.75	499.95
1001.5625	2751.2008	1386.35	502.85
1001.6833	2752.4057	1381	497.1
1001.8042	2753.61	1380.65	498.85
1001.925	2754.8136	1379.2	493.85
1002.0458	2756.0165	1374.3	491.65
1002.1665	2757.2188	1379.1	497.95
1002.2872	2758.4204	1374.85	492.05
1002.4078	2759.6213	1369.5	483.7
1002.5285	2760.8215	1380.4	492.35
1002.649	2762.0211	1373.6	491.65
1002.7696	2763.22	1372.05	485.2
1002.8901	2764.4182	1371.85	488.85
1003.0106	2765.6158	1360.4	476.6
1003.131	2766.8127	1357.75	474.2
1003.2514	2768.009	1356.75	472.6
1003.3717	2769.2045	1360.15	478.55
1003.492	2770.3994	1359.2	474.4
1003.6123	2771.5936	1358.1	475.05
1003.7325	2772.7872	1349.4	468.45
1003.8527	2773.9801	1349.55	465.6
1003.9729	2775.1723	1358.5	458.95
1004.093	2776.3639	1352.15	471.15
1004.2131	2777.5548	1346.2	460.05
1004.3331	2778.745	1356.5	471.45
1004.4531	2779.9346	1351.05	468.7
1004.5731	2781.1235	1353.7	470.1
1004.693	2782.3117	1356	473.65
1004.8129	2783.4992	1359.6	477.7
1004.9328	2784.6861	1369.8	486.7
1005.0526	2785.8723	1376.85	491
1005.1723	2787.0579	1379.3	495.15
1005.2921	2788.2428	1378.45	494.95
1005.4118	2789.427	1391.75	510.2
1005.5314	2790.6106	1391.7	511
1005.651	2791.7935	1406	520.9
1005.7706	2792.9757	1417.5	535.6
1005.8902	2794.1573	1436.45	551.4
1006.0097	2795.3382	1446.7	566.95
1006.1291	2796.5184	1458	576.35
1006.2485	2797.698	1479	593.45
1006.3679	2798.8769	1484.55	601.6
1006.4873	2800.0551	1506.3	622.15
1006.6066	2801.2327	1521.45	636.6
1006.7258	2802.4096	1543.55	662
1006.8451	2803.5859	1555.8	671.55
1006.9642	2804.7615	1586.1	703.3
1007.0834	2805.9364	1604.8	723.1
1007.2025	2807.1106	1635.1	753.5
1007.3216	2808.2842	1658.2	774.85
1007.4406	2809.4572	1692.3	809.6
1007.5596	2810.6294	1734.65	849.85
1007.6785	2811.801	1758.25	879.25
1007.7975	2812.972	1800.85	918.85
1007.9163	2814.1423	1849.9	968.7
1008.0352	2815.3119	1901.15	1018.2
1008.154	2816.4808	1936.25	1055.15
1008.2727	2817.6491	1986.15	1101.35
1008.3914	2818.8167	2040.65	1159.7
1008.5101	2819.9837	2100.3	1213.4
1008.6288	2821.15	2146.9	1264.2
1008.7474	2822.3157	2191.95	1310.1
1008.8659	2823.4807	2240.2	1358.1
1008.9844	2824.645	2283.9	1400.1
1009.1029	2825.8086	2330.7	1449.3
1009.2214	2826.9716	2386.45	1505.5
1009.3398	2828.134	2424.25	1541.65
1009.4581	2829.2957	2468.4	1585.45
1009.5764	2830.4567	2497.35	1614.1
1009.6947	2831.617	2515.65	1631.6
1009.813	2832.7767	2520.7	1639.05
1009.9312	2833.9358	2523.4	1639.15
1010.0493	2835.0941	2523.75	1641.55
1010.1675	2836.2519	2509.1	1627.7
1010.2855	2837.4089	2490.35	1607.8
1010.4036	2838.5653	2482.8	1601.4
1010.5216	2839.7211	2481.35	1600.45
1010.6396	2840.8761	2470.15	1587.2
1010.7575	2842.0306	2487.55	1604.7
1010.8754	2843.1843	2520.15	1636.85
1010.9932	2844.3374	2582.05	1700.45
1011.111	2845.4899	2632	1747.4
1011.2288	2846.6417	2692	1810.3
1011.3465	2847.7928	2768.75	1887.15
1011.4642	2848.9433	2850.6	1967.95
1011.5818	2850.0931	2924.65	2041.6
1011.6995	2851.2422	2988.05	2104.2
1011.817	2852.3907	3061.05	2178.05
1011.9345	2853.5385	3134.65	2249.85
1012.052	2854.6857	3207.75	2297.2
1012.1695	2855.8323	3239.25	2357.3
1012.2869	2856.9781	3286.25	2404.35
1012.4042	2858.1233	3330.4	2449.3
1012.5216	2859.2679	3378.7	2498.45
1012.6389	2860.4118	3425.9	2541.85
1012.7561	2861.555	3481.75	2596.6
1012.8733	2862.6976	3508.65	2624.1
1012.9905	2863.8395	3553.95	2669.8
1013.1076	2864.9808	3567.5	2685.25
1013.2247	2866.1214	3592.3	2711.2
1013.3417	2867.2614	3594.95	2712.15
1013.4587	2868.4007	3619.75	2735.4
1013.5757	2869.5393	3630.7	2745.45
1013.6926	2870.6773	3646	2761.6
1013.8095	2871.8146	3662.6	2775.6
1013.9263	2872.9513	3654.15	2770
1014.0431	2874.0874	3657.65	2774.75
1014.1599	2875.2227	3663.1	2780.05
1014.2766	2876.3574	3637.7	2754.2
1014.3933	2877.4915	3607.4	2726.1
1014.51	2878.6249	3584.3	2703.95
1014.6266	2879.7577	3558.1	2673.05
1014.7431	2880.8898	3544.4	2649.95
1014.8596	2882.0212	3533.35	2651.1
1014.9761	2883.152	3515.55	2631.6
1015.0925	2884.2821	3485.65	2603.2
1015.2089	2885.4116	3485	2602.85
1015.3253	2886.5405	3501.4	2618.4
1015.4416	2887.6686	3505.7	2618.7
1015.5579	2888.7962	3496.9	2613.7
1015.6741	2889.923	3509.45	2628.15
1015.7903	2891.0493	3523.5	2643.2
1015.9065	2892.1748	3511.95	2630.5
1016.0226	2893.2997	3545.1	2663.45
1016.1387	2894.424	3556.5	2675.85
1016.2547	2895.5476	3576.2	2694.3
1016.3707	2896.6706	3610.2	2728.2
1016.4866	2897.7929	3624.1	2737.25
1016.6025	2898.9145	3656.25	2773.4
1016.7184	2900.0355	3679.6	2794.8
1016.8342	2901.1559	3721.1	2838.85
1016.95	2902.2756	3750.15	2869.65
1017.0658	2903.3946	3792.2	2911.35
1017.1815	2904.513	3811.25	2926.25
1017.2971	2905.6308	3838.15	2957.25
1017.4127	2906.7479	3863.95	2980.65
1017.5283	2907.8643	3902.3	3018.25
1017.6439	2908.9801	3905.15	3021.8
1017.7594	2910.0953	3923.65	3041.35
1017.8748	2911.2098	3911.15	3025.1
1017.9902	2912.3236	3917.95	3026.85
1018.1056	2913.4368	3883.4	2997.8
1018.2209	2914.5494	3874.35	2991.65
1018.3362	2915.6613	3851.65	2963.75
1018.4515	2916.7725	3811.6	2926.1
1018.5667	2917.8831	3782.65	2898.1
1018.6819	2918.9931	3770.7	2885.8
1018.797	2920.1024	3727.5	2844.7
1018.9121	2921.211	3722.85	2842.1
1019.0271	2922.319	3698.15	2814.45
1019.1421	2923.4264	3673.95	2793.65
1019.2571	2924.5331	3656.75	2775.4
1019.372	2925.6391	3647.85	2767.45
1019.4869	2926.7445	3653.85	2771
1019.6017	2927.8493	3651	2768.1
1019.7165	2928.9534	3638.3	2754.55
1019.8313	2930.0569	3618.3	2734.3
1019.946	2931.1597	3635.8	2753.4
1020.0606	2932.2619	3622.15	2739.3
1020.1753	2933.3634	3628.4	2746.75
1020.2899	2934.4643	3620.5	2730.2
1020.4044	2935.5645	3603.5	2715.45
1020.5189	2936.6641	3581.2	2694.25
1020.6334	2937.763	3538.25	2657.65
1020.7478	2938.8613	3478.2	2596.45
1020.8622	2939.959	3432.7	2542.9
1020.9765	2941.056	3355.45	2472.6
1021.0908	2942.1523	3260.65	2377.25
1021.2051	2943.248	3195	2312.2
1021.3193	2944.3431	3098.4	2216.65
1021.4334	2945.4375	2995.85	2111.8
1021.5476	2946.5313	2892.4	2009.7
1021.6617	2947.6244	2793.65	1911.35
1021.7757	2948.7169	2684.75	1800.8
1021.8897	2949.8087	2597.45	1716.9
1022.0037	2950.8999	2499.7	1617.65
1022.1176	2951.9904	2434.95	1555.85
1022.2315	2953.0803	2346.65	1463.35
1022.3453	2954.1696	2276.95	1395.75
1022.4591	2955.2582	2230.15	1348.85
1022.5728	2956.3462	2182.95	1299.55
1022.6865	2957.4335	2148.1	1265.95
1022.8002	2958.5202	2114.15	1227.4
1022.9138	2959.6062	2098.4	1217.15
1023.0274	2960.6916	2068.3	1185.9
1023.141	2961.7764	2041.05	1158.15
1023.2545	2962.8605	2027.95	1144.15
1023.3679	2963.9439	2017	1136.5
1023.4813	2965.0267	2001.45	1119.1
1023.5947	2966.1089	2011.2	1108.4
1023.708	2967.1905	2001.55	1116.95
1023.8213	2968.2714	1991.3	1107.75
1023.9346	2969.3516	1986.6	1105.25
1024.0478	2970.4312	2003.1	1114.75
1024.1609	2971.5102	1988.55	1106.65
1024.274	2972.5885	1980.85	1099.8
1024.3871	2973.6662	1997.1	1110.35
1024.5002	2974.7432	1986.8	1104
1024.6132	2975.8196	1980.85	1099.8
1024.7261	2976.8954	1968.95	1088.75
1024.839	2977.9705	1964.4	1080.7
1024.9519	2979.045	1951.2	1070.85
1025.0647	2980.1188	1933.4	1051.35
1025.1775	2981.192	1916.7	1036.75
1025.2902	2982.2645	1900.75	1017.55
1025.4029	2983.3364	1872.05	991.65
1025.5156	2984.4077	1836.5	956.45
1025.6282	2985.4783	1825.15	938.5
1025.7407	2986.5483	1786	904
1025.8532	2987.6177	1749.35	869.55
1025.9657	2988.6864	1722.25	839.9
1026.0782	2989.7545	1684.1	801.8
1026.1906	2990.8219	1652.3	772.25
1026.3029	2991.8887	1615.9	728.9
1026.4152	2992.9548	1589.6	707.9
1026.5275	2994.0204	1549.4	668.15
1026.6397	2995.0852	1520.35	639.15
1026.7519	2996.1495	1502.05	620.55
1026.864	2997.2131	1470.8	589.95
1026.9761	2998.276	1456.55	574.75
1027.0882	2999.3383	1440.7	557.4
1027.2002	3000.4	1418.15	535.65
1027.3122	3001.4611	1406.55	525.6
1027.4241	3002.5215	1385.95	502.95
1027.536	3003.5812	1371.35	487.3
1027.6478	3004.6404	1359.55	477.65
1027.7596	3005.6989	1354.85	469.7
1027.8714	3006.7567	1343.1	461.1
1027.9831	3007.8139	1356.45	447.7
1028.0947	3008.8705	1326.45	444.55
1028.2064	3009.9264	1340.6	441.1
1028.3179	3010.9818	1308	426.3
1028.4295	3012.0364	1305.45	423.15
1028.541	3013.0905	1308.8	424.05
1028.6524	3014.1439	1309.15	427.25
1028.7638	3015.1966	1297	415.45
1028.8752	3016.2487	1305.35	424
1028.9865	3017.3002	1308.65	423.15
1029.0978	3018.3511	1292.1	412.2
1029.209	3019.4013	1294.1	413
1029.3202	3020.4509	1286.15	404.4
1029.4314	3021.4998	1301.45	419.25
1029.5425	3022.5481	1300.5	421.65
1029.6535	3023.5958	1291.15	409
1029.7645	3024.6428	1301.1	416.45
1029.8755	3025.6892	1298.3	418.1
1029.9864	3026.735	1300.05	417.65
1030.0973	3027.7802	1300.5	419.5
1030.2082	3028.8247	1304.35	421.9
1030.319	3029.8685	1307.5	424.25
1030.4297	3030.9118	1305.45	422.65
1030.5404	3031.9544	1314.5	431.2
1030.6511	3032.9963	1313.9	432.65
1030.7617	3034.0376	1320.7	440.9
1030.8723	3035.0783	1329.15	443.8
1030.9829	3036.1184	1336.75	455.5
1031.0934	3037.1578	1338	455.25
1031.2038	3038.1966	1340	457.05
1031.3142	3039.2348	1335.95	452.4
1031.4246	3040.2723	1345	453.5
1031.5349	3041.3092	1332.55	452.4
1031.6452	3042.3455	1331.6	448.8
1031.7554	3043.3811	1332.5	451.15
1031.8656	3044.4161	1333.5	451.95
1031.9758	3045.4505	1317.85	436.8
1032.0859	3046.4842	1327.8	446.85
1032.1959	3047.5173	1310.5	430.35
1032.3059	3048.5498	1301.25	419.8
1032.4159	3049.5816	1299.05	416.6
1032.5258	3050.6128	1299.05	414.8
1032.6357	3051.6434	1293	410.2
1032.7455	3052.6734	1290.5	407.4
1032.8553	3053.7027	1277.5	396.55
1032.9651	3054.7314	1275.6	393.6
1033.0748	3055.7594	1267	385
1033.1845	3056.7868	1264.45	382.6
1033.2941	3057.8136	1255.75	375.85
1033.4037	3058.8398	1257.5	376.05
1033.5132	3059.8653	1252.3	371
1033.6227	3060.8902	1250.9	369.3
1033.7321	3061.9145	1242.5	363.3
1033.8415	3062.9381	1239.3	358.15
1033.9509	3063.9612	1250.95	354.55
1034.0602	3064.9835	1233.3	351
1034.1694	3066.0053	1231.35	347.25
1034.2787	3067.0264	1217.7	335.25
1034.3878	3068.0469	1216.7	333.15
1034.497	3069.0668	1209.2	324.15
1034.6061	3070.086	1194.4	313.25
1034.7151	3071.1046	1196.4	314
1034.8241	3072.1226	1188.3	306
1034.9331	3073.1399	1172.6	290.95
1035.042	3074.1567	1163.45	281.5
1035.1508	3075.1727	1161.95	279.75
1035.2597	3076.1882	1151.95	270.85
1035.3684	3077.203	1136.85	253.95
1035.4772	3078.2173	1135.85	254.05
1035.5859	3079.2308	1128.85	242.35
1035.6945	3080.2438	1120.9	237.55
1035.8031	3081.2561	1112.35	231.3
1035.9117	3082.2678	1104.75	224.2
1036.0202	3083.2789	1099.95	218.15
1036.1286	3084.2893	1090.25	210.85
1036.2371	3085.2991	1093.5	210.7
1036.3454	3086.3083	1090.05	203.65
1036.4538	3087.3169	1081	197.55
1036.562	3088.3248	1075.7	192.8
1036.6703	3089.3321	1071.7	188.45
1036.7785	3090.3388	1066.95	183.6
1036.8866	3091.3449	1063.8	181.4
1036.9948	3092.3503	1062.85	179.25
1037.1028	3093.3551	1056.6	177.85
1037.2108	3094.3593	1055.6	174.6
1037.3188	3095.3629	1053.2	170.9
1037.4267	3096.3658	1056.5	174.75
1037.5346	3097.3681	1045.2	164.4
1037.6425	3098.3698	1041.2	159.95
1037.7503	3099.3708	1047.1	157.55
1037.858	3100.3713	1038.4	155.5
1037.9657	3101.3711	1036.4	152
1038.0734	3102.3702	1173.15	150
1038.181	3103.3688	1031.85	147.9
1038.2886	3104.3667	1028.55	149.1
1038.3961	3105.364	1027.3	147.2
1038.5036	3106.3607	1024.05	142.65
1038.611	3107.3568	1024.3	140.1
1038.7184	3108.3522	1020.5	139.8
1038.8257	3109.347	1018.4	135.25
1038.933	3110.3412	1021.7	134.85
1039.0403	3111.3348	1019.3	137.5
1039.1475	3112.3277	1013.6	129.05
1039.2547	3113.32	1015.95	136.1
1039.3618	3114.3117	1016.15	134.75
1039.4689	3115.3028	1014.8	131.85
1039.5759	3116.2932	1011.3	127.65
1039.6829	3117.2831	1013.6	126.5
1039.7898	3118.2723	1007.1	126.75
1039.8967	3119.2608	1009.95	127.95
1040.0035	3120.2488	1005.95	123.35
1040.1103	3121.2361	1004.9	123.05
1040.2171	3122.2229	1005.15	123.7
1040.3238	3123.209	1002.2	120.55
1040.4305	3124.1944	1001.85	120.2
1040.5371	3125.1793	1003.8	120.55
1040.6437	3126.1635	998.1	117.6
1040.7502	3127.1471	999	116.9
1040.8567	3128.1301	994.5	113
1040.9631	3129.1125	998.05	115.4
1041.0695	3130.0942	993.6	111.95
1041.1759	3131.0753	1004.45	113.05
1041.2822	3132.0558	997.85	111.55
1041.3884	3133.0357	996.75	116.3
1041.4946	3134.015	985.5	102
1041.6008	3134.9936	989.4	104.4
1041.7069	3135.9716	1009.7	104.2
1041.813	3136.949	988.7	104.9
1041.919	3137.9258	1007.5	108.35
1042.025	3138.902	992.05	105.6
1042.1309	3139.8775	989.4	109.75
1042.2368	3140.8524	984.55	103.8
1042.3427	3141.8267	986.2	103.35
1042.4485	3142.8004	985.1	105.15
1042.5542	3143.7735	985.8	98.15
1042.6599	3144.7459	983.65	99.05
1042.7656	3145.7178	980.4	97.5
1042.8712	3146.689	980.05	98.55
1042.9768	3147.6596	981.65	99.75
1043.0823	3148.6295	978.2	96.35
1043.1878	3149.5989	977.6	96.35
1043.2932	3150.5676	974.3	96.65
1043.3986	3151.5357	974.4	95.15
1043.5039	3152.5032	972.1	89.4
1043.6092	3153.4701	974.95	93.05
1043.7145	3154.4364	975	90.5
1043.8197	3155.402	972.35	93.35
1043.9248	3156.367	975	92.25
1044.03	3157.3315	1007.85	89.55
1044.135	3158.2952	972.25	91.85
1044.24	3159.2584	964.3	83.9
1044.345	3160.221	967.05	83.45
1044.4499	3161.1829	968.4	87.85
1044.5548	3162.1442	967.6	86.95
1044.6596	3163.105	963.45	81.15
1044.7644	3164.065	963.85	81.4
1044.8692	3165.0245	966.6	81.45
1044.9739	3165.9834	960.1	81.2
1045.0785	3166.9416	960.7	77.85
1045.1831	3167.8993	960.5	77.85
1045.2877	3168.8563	958.9	76.05
1045.3922	3169.8127	959.3	78.85
1045.4966	3170.7684	963.5	82.45
1045.6011	3171.7236	962.75	79.75
1045.7054	3172.6782	961.4	82.35
1045.8098	3173.6321	959.75	79.75
1045.914	3174.5854	961.75	77.65
1046.0183	3175.5381	958.75	79.05
1046.1224	3176.4902	961.95	81.15
1046.2266	3177.4417	956.5	76.35
1046.3307	3178.3926	955.15	72.75
1046.4347	3179.3428	958.5	78.7
1046.5387	3180.2924	954.05	73.25
1046.6427	3181.2415	956	73.75
1046.7466	3182.1899	957.05	75.2
1046.8504	3183.1377	954.2	73.35
1046.9542	3184.0848	958.55	73.1
1047.058	3185.0314	954.3	72.15
1047.1617	3185.9773	956.25	74.8
1047.2654	3186.9227	955.9	72.95
1047.369	3187.8674	948.6	66.3
1047.4726	3188.8115	957.35	71.65
1047.5761	3189.755	955.7	73
1047.6796	3190.6979	954.95	74.15
1047.783	3191.6402	950.95	69.35
1047.8864	3192.5818	949.6	68.6
1047.9898	3193.5229	971.65	69.8
1048.0931	3194.4633	952.1	70.1
1048.1963	3195.4031	950.8	68.05
1048.2995	3196.3423	947.4	66.35
1048.4027	3197.2809	947.45	65.55
1048.5058	3198.2189	950.5	69.7
1048.6089	3199.1563	964.85	68
1048.7119	3200.0931	947.1	65.75
1048.8148	3201.0292	946.75	66.55
1048.9178	3201.9648	946.1	63.9
1049.0206	3202.8997	953.5	68
1049.1235	3203.834	942.9	60.3
1049.2262	3204.7677	944.8	63.65
1049.329	3205.7008	946	63.45
1049.4317	3206.6333	944.75	66.05
1049.5343	3207.5652	951.35	68.3
1049.6369	3208.4964	942.55	62.25
1049.7394	3209.4271	943.2	60.75
1049.8419	3210.3571	943.35	63.15
1049.9444	3211.2865	944.15	61.95
1050.0468	3212.2154	943.8	63.95
1050.1491	3213.1436	945	59.75
1050.2514	3214.0712	948.6	60.45
1050.3537	3214.9982	944.75	63.05
1050.4559	3215.9246	941.1	58.9
1050.5581	3216.8503	940.3	59.75
1050.6602	3217.7755	941.5	59.85
1050.7623	3218.7001	941.85	60.7
1050.8643	3219.624	940.9	59.65
1050.9663	3220.5473	939.8	60.75
1051.0682	3221.4701	939.25	55
1051.1701	3222.3922	941	58.45
1051.2719	3223.3137	939.45	59.25
1051.3737	3224.2346	939.15	58.35
1051.4754	3225.1549	937	55.5
1051.5771	3226.0746	941	59.6
1051.6788	3226.9937	938.65	57.25
1051.7804	3227.9121	939.4	58.35
1051.8819	3228.83	938.4	58.1
1051.9834	3229.7473	938.75	57.05
1052.0849	3230.6639	939.85	58.45
1052.1863	3231.5799	935.05	54.6
1052.2876	3232.4954	939.3	54
1052.3889	3233.4102	935.3	53.5
1052.4902	3234.3244	934.6	53.3
1052.5914	3235.238	933.75	54.35
1052.6926	3236.151	960.6	54.75
1052.7937	3237.0634	934.05	53.7
1052.8948	3237.9752	931.7	51.2
1052.9958	3238.8864	931.75	49.75
1053.0968	3239.797	931.5	50.05
1053.1977	3240.7069	934.5	52.6
1053.2986	3241.6163	934.2	52.55
1053.3994	3242.5251	932.4	52.7
1053.5002	3243.4332	931.55	51.45
1053.6009	3244.3408	931	50
1053.7016	3245.2477	929.35	49.65
1053.8022	3246.154	931.15	48.25
1053.9028	3247.0598	930.35	48.85
1054.0034	3247.9649	930.45	51.3
1054.1039	3248.8694	930.75	48.65
1054.2043	3249.7733	930	47.85
1054.3047	3250.6766	928.55	47.8
1054.4051	3251.5793	929.95	48.85
1054.5054	3252.4814	927	47.05
1054.6056	3253.3829	925.6	45.15
1054.7058	3254.2838	929.6	50.25
1054.806	3255.1841	927	44.65
1054.9061	3256.0838	927.7	46
1055.0061	3256.9829	922	42.65
1055.1062	3257.8814	926.3	42.7
1055.2061	3258.7792	928.65	45
1055.306	3259.6765	925.85	45.5
1055.4059	3260.5731	923.45	41.35
1055.5057	3261.4692	924.05	42.1
1055.6055	3262.3647	922.6	41.3
1055.7052	3263.2595	921	41.55
1055.8049	3264.1538	919.25	37.5
1055.9045	3265.0474	918.95	39.55
1056.0041	3265.9404	920.15	40.3
1056.1036	3266.8329	921.25	41.45
1056.2031	3267.7247	926.6	36.45
1056.3025	3268.616	916.8	38.85
1056.4019	3269.5066	917.55	35.75
1056.5013	3270.3966	917.75	34.3
1056.6005	3271.286	911.55	29.3
