Software Version:	3.9.2.0
Unit SN:	10000200
Spectrometer SN:	6960
Date:	3/14/2024 2:09:23 PM
Data Line Index:	25
Spectral Points:	2048
Integration time (ms):	125
Averages:	20
Delay (ms):	30000
Sequence Number:	1
Processing:	dark subtract
Laser Power (mW):	300
Laser Current (mA):	824
Laser Diode Temp (C):	25.1
Laser Case Temp (C):	29
System Temp (C):	29
Spectrometer Temp (C):	26.8
CCD Temp (C):	0.008
Secondary Temp (C):	20.007
Heatsink Temp (C):	24.83
CCDPCB Temp (C):	38.33
SecondaryPCB Temp (C):	35.996

Wavelength	RamanShift	Raw Counts	Dark Subtracted
787.061	30.1047	448.5	38.85
787.2016	32.3739	449.6	44.15
787.3422	34.6426	453.5	45.25
787.4828	36.9109	458.25	49.15
787.6235	39.1787	463.85	50.95
787.7642	41.4461	474.9	54.05
787.9049	43.7131	482.05	58.9
788.0456	45.9796	490.9	65.6
788.1863	48.2456	499.7	68.45
788.3271	50.5112	504.9	70.7
788.4679	52.7764	510.85	75.2
788.6087	55.0411	520.55	79.75
788.7496	57.3054	532.7	86.95
788.8904	59.5692	541.3	91.95
789.0313	61.8326	554.5	100.55
789.1722	64.0955	560.55	102.3
789.3132	66.3579	577.4	115.45
789.4541	68.6199	591.05	127.35
789.5951	70.8815	618.35	150.05
789.7361	73.1426	676.5	203.4
789.8771	75.4032	830.65	351.35
790.0181	77.6634	1194.8	711.95
790.1592	79.9231	2076.25	1587
790.3003	82.1824	3996.3	3500.15
790.4414	84.4412	7545.95	7030.9
790.5825	86.6995	12555	12019.5
790.7237	88.9574	17636.3	17077
790.8648	91.2148	21325.15	20755.3
791.006	93.4717	23136.5	22555.35
791.1472	95.7282	23616.4	23027.25
791.2885	97.9842	23623.8	23035.25
791.4297	100.2398	23304.35	22710.25
791.571	102.4949	22804.3	22209.65
791.7123	104.7495	22241.45	21645.35
791.8536	107.0036	21584.4	20984.95
791.9949	109.2573	20905.4	20306
792.1363	111.5105	20261.5	19662.1
792.2777	113.7632	19583.75	18981.7
792.4191	116.0154	19058.35	18447.75
792.5605	118.2672	18605.95	18003.5
792.7019	120.5185	18198.85	17590.8
792.8434	122.7693	17846.75	17238.9
792.9849	125.0197	17563.4	16950.5
793.1264	127.2696	17338.1	16727
793.2679	129.519	17209.65	16592.2
793.4094	131.7679	17074.85	16457.3
793.551	134.0163	16967	16345.4
793.6926	136.2642	16841.2	16216.15
793.8342	138.5117	16727.45	16090.8
793.9758	140.7587	16586.45	15956.4
794.1175	143.0052	16431.35	15795.55
794.2591	145.2512	16268.85	15636.4
794.4008	147.4967	16085.65	15451.4
794.5425	149.7417	15964.2	15327.05
794.6842	151.9863	15847.5	15208.1
794.826	154.2304	15830.9	15188.3
794.9677	156.4739	15721.75	15070.4
795.1095	158.717	15650.2	15002.05
795.2513	160.9596	15536.7	14886.8
795.3931	163.2017	15308.45	14657.25
795.535	165.4433	15044.6	14389.5
795.6768	167.6844	14756.35	14098.15
795.8187	169.925	14479.75	13819.25
795.9606	172.1651	14144.2	13480.3
796.1025	174.4047	13888.5	13218.65
796.2445	176.6439	13680.05	13008.6
796.3864	178.8825	13456.9	12784.3
796.5284	181.1206	13305.35	12628.35
796.6704	183.3582	13148.6	12465.65
796.8124	185.5954	13054.95	12373.2
796.9544	187.832	12963.45	12280.15
797.0965	190.0681	12913.75	12228.35
797.2386	192.3037	12887.65	12194.35
797.3806	194.5388	12889.55	12197.45
797.5228	196.7734	12915.95	12220.45
797.6649	199.0075	12932.85	12234.65
797.807	201.2411	13041.45	12339.35
797.9492	203.4742	13070.4	12367.5
798.0914	205.7068	13194.45	12490.15
798.2336	207.9389	13259.25	12555.25
798.3758	210.1704	13360.25	12650.45
798.518	212.4015	13434.65	12724.1
798.6603	214.632	13583.6	12873.4
798.8025	216.862	13744.95	13041.95
798.9448	219.0915	13896.9	13204.75
799.0871	221.3205	14060.4	13367.05
799.2294	223.549	14349.25	13661.3
799.3718	225.777	14648.1	13961.7
799.5141	228.0044	15004.65	14315.4
799.6565	230.2314	15469.6	14781.65
799.7989	232.4578	15915.9	15226.4
799.9413	234.6837	16241.25	15547.25
800.0837	236.909	16418.35	15725.3
800.2262	239.1339	16390.2	15670.55
800.3687	241.3582	16129	15420.9
800.5111	243.582	15767.75	15033.95
800.6536	245.8053	15379.1	14654.25
800.7961	248.0281	15024	14303.35
800.9387	250.2503	14764.85	14044.4
801.0812	252.472	14583.8	13855.05
801.2238	254.6932	14454.35	13721.95
801.3664	256.9139	14321.7	13587.6
801.509	259.134	14243.7	13506.25
801.6516	261.3536	14146.5	13410.75
801.7942	263.5727	14070.35	13331.85
801.9369	265.7912	13985.8	13251.35
802.0795	268.0092	13903.5	13170.15
802.2222	270.2267	13824.15	13087.2
802.3649	272.4436	13755.75	13016.6
802.5076	274.6601	13703.45	12957.15
802.6504	276.8759	13648.45	12907.3
802.7931	279.0913	13675.3	12930.6
802.9359	281.3061	13695.15	12951.75
803.0787	283.5204	13781.35	13031.25
803.2215	285.7341	13876.05	13124.7
803.3643	287.9473	14044.85	13281.85
803.5071	290.16	14286	13527.75
803.6499	292.3721	14584.75	13833.85
803.7928	294.5837	14947.7	14195.5
803.9357	296.7947	15287.85	14536.9
804.0786	299.0052	15404.8	14653.4
804.2215	301.2152	15299.25	14545.4
804.3644	303.4246	14926.1	14174.75
804.5074	305.6334	14415.15	13663.85
804.6503	307.8418	13942.25	13187.2
804.7933	310.0495	13601.2	12845.9
804.9363	312.2568	13343.3	12588.95
805.0793	314.4635	13184.65	12429.1
805.2223	316.6696	13129.15	12369.75
805.3653	318.8752	13107.6	12341.25
805.5084	321.0802	13175.55	12414.4
805.6514	323.2847	13262.75	12500.6
805.7945	325.4887	13312.8	12551.2
805.9376	327.692	13242.65	12479.2
806.0807	329.8949	13130.1	12367.15
806.2238	332.0972	12894.6	12128.3
806.367	334.2989	12644.05	11871.3
806.5101	336.5001	12395.85	11628.05
806.6533	338.7007	12204.2	11434.2
806.7965	340.9008	12092.65	11320
806.9397	343.1003	12009.5	11237.3
807.0829	345.2992	11971.9	11198.25
807.2261	347.4976	11931.2	11157.85
807.3693	349.6955	11916.85	11139.65
807.5126	351.8927	11985.1	11208.3
807.6559	354.0895	11967.55	11177.85
807.7991	356.2856	11991.25	11208.95
807.9424	358.4812	11979	11201.75
808.0857	360.6763	12005.55	11227.5
808.2291	362.8707	11976.5	11194.25
808.3724	365.0646	11992.5	11209.6
808.5158	367.258	11958.45	11171.1
808.6591	369.4508	11980.2	11188.4
808.8025	371.643	12001.6	11213.3
808.9459	373.8346	11956.9	11164
809.0893	376.0257	11935.5	11140.45
809.2327	378.2162	11859.1	11064.2
809.3762	380.4062	11760.9	10960.6
809.5196	382.5956	11620.95	10822
809.6631	384.7844	11510.35	10712.4
809.8066	386.9726	11448.1	10649.1
809.9501	389.1603	11381.15	10583.4
810.0936	391.3474	11382.85	10546.2
810.2371	393.5339	11329.5	10530.1
810.3806	395.7199	11257.65	10464.1
810.5241	397.9052	11262.45	10471.5
810.6677	400.09	11248.35	10456.2
810.8113	402.2743	11263.35	10474
810.9548	404.4579	11285.15	10495.15
811.0984	406.641	11413.85	10626.3
811.2421	408.8235	11628.85	10839.4
811.3857	411.0054	11908.3	11116.25
811.5293	413.1868	12356.7	11563.15
811.673	415.3675	12687.95	11891.45
811.8166	417.5477	12891.2	12098.35
811.9603	419.7273	12911	12110.55
812.104	421.9064	12790.2	11982.7
812.2477	424.0848	12659.6	11858.8
812.3914	426.2627	12430.95	11626.7
812.5351	428.4399	12171.1	11363.85
812.6788	430.6166	11843.15	11034
812.8226	432.7928	11525.25	10712.45
812.9663	434.9683	11254.55	10445.75
813.1101	437.1432	11048.6	10235.85
813.2539	439.3176	10898.95	10087.55
813.3977	441.4914	10826	10012.15
813.5415	443.6645	10786.55	9968.3
813.6853	445.8371	10734.7	9919.9
813.8291	448.0091	10662.6	9849.45
813.973	450.1806	10602.35	9788.85
814.1168	452.3514	10543.05	9727.7
814.2607	454.5216	10546.05	9721.35
814.4046	456.6913	10503.1	9684.95
814.5485	458.8603	10482.5	9664.2
814.6924	461.0288	10522.1	9705.35
814.8363	463.1967	10527.1	9711.7
814.9802	465.3639	10673.4	9853.65
815.1241	467.5306	10775.1	9953.35
815.2681	469.6967	10941.75	10123
815.412	471.8622	11087	10267.1
815.556	474.0271	11239	10419.7
815.7	476.1914	11299.1	10477
815.844	478.3551	11255.35	10437.35
815.988	480.5182	11183.95	10359.7
816.132	482.6807	11142.6	10321.85
816.276	484.8426	11183.05	10362.25
816.4201	487.0039	11398.5	10573.7
816.5641	489.1647	11719.95	10897.55
816.7082	491.3248	12079.65	11257.75
816.8522	493.4843	12265.9	11444.15
816.9963	495.6432	12237.8	11414.65
817.1404	497.8015	12190.95	11364.3
817.2845	499.9592	12235.05	11410.15
817.4286	502.1163	12182.4	11357.95
817.5727	504.2728	12008.75	11180.95
817.7168	506.4287	11731.35	10905.05
817.861	508.5839	11378.15	10552.1
818.0051	510.7386	11069.4	10240.7
818.1493	512.8927	10858.7	10025.5
818.2935	515.0461	10722.45	9891.4
818.4377	517.199	10589.55	9760.6
818.5818	519.3512	10513	9682.95
818.726	521.5029	10518.65	9684
818.8703	523.6539	10522.05	9688.7
819.0145	525.8043	10524.4	9694.45
819.1587	527.9541	10565.15	9734
819.303	530.1033	10609.25	9772.3
819.4472	532.2519	10671.25	9837.25
819.5915	534.3999	10821.45	9983.9
819.7357	536.5472	11109.45	10275.1
819.88	538.694	11547.8	10710.2
820.0243	540.8401	12099.8	11263.05
820.1686	542.9856	12584.35	11748.05
820.3129	545.1305	12748.1	11911.25
820.4572	547.2748	12564	11726.5
820.6016	549.4185	12193.4	11356.95
820.7459	551.5615	11845.2	11009.75
820.8902	553.704	11637.75	10799.65
821.0346	555.8458	11568.55	10731.7
821.1789	557.987	11501.4	10666.65
821.3233	560.1276	11385.9	10550.15
821.4677	562.2675	11287.55	10450
821.6121	564.4069	11198.95	10365.65
821.7565	566.5456	11051.45	10217.3
821.9009	568.6837	10920.65	10085.75
822.0453	570.8212	10707.45	9872.9
822.1897	572.958	10511.55	9671.2
822.3342	575.0942	10403.95	9567.7
822.4786	577.2299	10303.75	9468.4
822.6231	579.3648	10320.1	9481.65
822.7675	581.4992	10439.1	9599.95
822.912	583.6329	10606.1	9766.45
823.0565	585.766	10818.2	9978.2
823.201	587.8985	10897.15	10058.65
823.3454	590.0304	10891.35	10035.55
823.4899	592.1616	10812.75	9970.55
823.6345	594.2922	10733.9	9892
823.779	596.4222	10622.05	9780.05
823.9235	598.5515	10452.2	9609.3
824.068	600.6802	10353.95	9512.35
824.2126	602.8083	10199.45	9357.35
824.3571	604.9358	10129.75	9283.6
824.5017	607.0626	10036.55	9192.2
824.6462	609.1888	9947.25	9104.6
824.7908	611.3144	9810.45	8967.3
824.9354	613.4393	9650.7	8809.05
825.08	615.5636	9537.55	8693.65
825.2246	617.6873	9437.5	8593.4
825.3692	619.8103	9395.1	8550.6
825.5138	621.9327	9347.05	8500.55
825.6584	624.0544	9341.85	8495.3
825.803	626.1756	9330.45	8487.6
825.9477	628.2961	9301.05	8455.55
826.0923	630.4159	9246	8401.7
826.237	632.5351	9204.4	8355.6
826.3816	634.6537	9126.7	8278.2
826.5263	636.7716	9122.7	8274.95
826.6709	638.8889	9108.15	8259.45
826.8156	641.0056	9095.5	8250.4
826.9603	643.1216	9093.35	8246.7
827.105	645.237	9118.8	8269.6
827.2497	647.3518	9121.15	8270.2
827.3944	649.4659	9150.1	8298.85
827.5391	651.5793	9117.3	8264.55
827.6838	653.6922	9117.35	8268.7
827.8285	655.8043	9090.85	8242.8
827.9733	657.9159	9063.65	8213.25
828.118	660.0268	8986.5	8131.5
828.2627	662.137	8917.45	8064.3
828.4075	664.2466	8869.15	8016.65
828.5522	666.3556	8863	8009.9
828.697	668.4639	8856.05	8001.55
828.8418	670.5716	8872.9	8019.95
828.9865	672.6786	8953.4	8099.7
829.1313	674.785	9026.15	8170.8
829.2761	676.8907	9087.25	8234.05
829.4209	678.9958	9150.25	8297.95
829.5657	681.1002	9121.55	8269.8
829.7105	683.204	9100.1	8243.2
829.8553	685.3072	9044.75	8190.3
830.0001	687.4097	8933.9	8081.1
830.1449	689.5115	8917.2	8059.45
830.2898	691.6127	8812.35	7956.1
830.4346	693.7132	8730.65	7876.55
830.5794	695.8131	8689.55	7812
830.7243	697.9123	8626.95	7770.2
830.8691	700.0109	8592.85	7735.3
831.014	702.1089	8568.85	7713.05
831.1588	704.2061	8539.85	7682.9
831.3037	706.3028	8580.95	7722.35
831.4486	708.3987	8643.9	7785.6
831.5935	710.4941	8706.1	7849.35
831.7383	712.5887	8858.95	8000.2
831.8832	714.6827	9115.4	8253.15
832.0281	716.7761	9457.4	8600.1
832.173	718.8688	9789.95	8929.95
832.3179	720.9608	9942.35	9079.7
832.4628	723.0522	9944.8	9082.3
832.6077	725.1429	9700.95	8841.85
832.7527	727.233	9367.6	8506.05
832.8976	729.3224	9048	8188.15
833.0425	731.4112	8756.3	7893.25
833.1874	733.4993	8571.75	7707.85
833.3324	735.5867	8455.85	7592.3
833.4773	737.6735	8400.5	7539.55
833.6222	739.7596	8384.3	7521.95
833.7672	741.845	8373.25	7512.45
833.9122	743.9298	8352.5	7487.3
834.0571	746.014	8330.9	7469.7
834.2021	748.0974	8340.95	7478.4
834.347	750.1802	8352.9	7492.7
834.492	752.2624	8355.5	7492.95
834.637	754.3439	8354.25	7490.85
834.782	756.4247	8387.75	7512.3
834.9269	758.5048	8447.9	7585.35
835.0719	760.5843	8597.3	7734.45
835.2169	762.6631	8812.85	7950.1
835.3619	764.7413	9135.05	8277.45
835.5069	766.8188	9591.05	8728.45
835.6519	768.8956	9976.95	9110.8
835.7969	770.9718	10224.25	9362
835.9419	773.0473	10095.2	9233.2
836.0869	775.1221	9812.55	8950.45
836.232	777.1962	9473.9	8609.7
836.377	779.2697	9327.5	8463.75
836.522	781.3426	9385.4	8509.65
836.667	783.4147	9639.6	8774.75
836.8121	785.4862	9926.05	9063.55
836.9571	787.557	9939.1	9076.1
837.1021	789.6271	9634.1	8768.6
837.2472	791.6966	9158.4	8293.15
837.3922	793.7654	8702.3	7836.05
837.5373	795.8335	8431.4	7568
837.6823	797.901	8281.5	7417.65
837.8274	799.9678	8260.3	7394.25
837.9724	802.0339	8263.4	7399.9
838.1175	804.0993	8297.15	7423.4
838.2626	806.1641	8312.15	7445.45
838.4076	808.2282	8244.4	7380.05
838.5527	810.2916	8163.35	7295.25
838.6978	812.3544	8080.85	7215.95
838.8428	814.4164	7977.5	7114.35
838.9879	816.4778	8003.95	7141.75
839.133	818.5385	7955.35	7089.9
839.2781	820.5986	7956.65	7093.95
839.4232	822.658	7995.75	7128.55
839.5682	824.7166	8035.15	7168.15
839.7133	826.7747	8137.85	7270.7
839.8584	828.832	8226.7	7360.7
840.0035	830.8886	8288.15	7417.5
840.1486	832.9446	8392.85	7526.1
840.2937	834.9999	8471.25	7606.75
840.4388	837.0545	8534.45	7665.2
840.5839	839.1085	8579.15	7714.2
840.729	841.1618	8604.1	7733.7
840.8741	843.2143	8605.95	7739.1
841.0192	845.2662	8551.3	7684.85
841.1643	847.3175	8480.35	7614.3
841.3095	849.368	8399.2	7532.75
841.4546	851.4179	8288.5	7421.55
841.5997	853.467	8143.55	7275.1
841.7448	855.5155	8074.3	7207.75
841.8899	857.5633	7938.35	7071.25
842.0351	859.6105	7854.55	6986.1
842.1802	861.6569	7783.7	6917
842.3253	863.7027	7724.05	6854.6
842.4704	865.7478	7705.7	6834.05
842.6156	867.7922	7715.15	6845.8
842.7607	869.8359	7757.3	6888.5
842.9058	871.8789	7842.75	6971.9
843.0509	873.9212	8036	7132.15
843.1961	875.9629	8162.5	7292.9
843.3412	878.0039	8302.65	7431.1
843.4863	880.0441	8378.6	7509.3
843.6315	882.0837	8354.45	7486.15
843.7766	884.1226	8231.05	7362.65
843.9218	886.1609	8089.05	7222.8
844.0669	888.1984	7957.35	7088.3
844.212	890.2352	7900.25	7029.7
844.3572	892.2714	7832.4	6959.35
844.5023	894.3069	7797.25	6926.15
844.6475	896.3416	7777	6904.7
844.7926	898.3757	7740.65	6870.5
844.9377	900.4091	7751.75	6882.05
845.0829	902.4418	7734.7	6861.45
845.228	904.4739	7754.2	6882.7
845.3732	906.5052	7728.2	6856.8
845.5183	908.5358	7620.75	6750.85
845.6635	910.5658	7508.35	6635.8
845.8086	912.595	7363	6491.6
845.9538	914.6236	7264.55	6392.6
846.0989	916.6515	7237.75	6367.25
846.2441	918.6786	7224.05	6350.6
846.3892	920.7051	7296.75	6421.8
846.5344	922.7309	7389.15	6518.5
846.6795	924.756	7450.15	6577.3
846.8246	926.7804	7501.45	6628
846.9698	928.8041	7486	6611.45
847.1149	930.8272	7451.15	6577.35
847.2601	932.8495	7419.1	6545.65
847.4052	934.8711	7363.05	6488.55
847.5504	936.892	7212.75	6340.35
847.6955	938.9123	7069.3	6194.05
847.8407	940.9318	6940.05	6066.5
847.9858	942.9506	6850.6	5977.3
848.131	944.9688	6760.55	5886.25
848.2761	946.9862	6736.1	5861.05
848.4213	949.003	6680.35	5808.1
848.5664	951.019	6697.65	5822.05
848.7115	953.0344	6702.15	5829.7
848.8567	955.0491	6719.1	5842.55
849.0018	957.063	6809.1	5934.4
849.147	959.0763	6881.15	6009.2
849.2921	961.0888	6926.4	6050.05
849.4373	963.1007	6976.4	6103.25
849.5824	965.1119	7004	6131.65
849.7275	967.1223	7035.3	6161.8
849.8727	969.1321	7067	6194.1
850.0178	971.1412	7075.3	6201.65
850.1629	973.1495	7090.05	6216
850.3081	975.1572	7159.4	6237.05
850.4532	977.1641	7133.7	6260.7
850.5983	979.1704	7117.7	6241.95
850.7435	981.1759	7118.8	6239.9
850.8886	983.1808	7165.15	6290.8
851.0337	985.1849	7252.95	6366.6
851.1788	987.1884	7417.15	6538.2
851.324	989.1911	7563.25	6685.6
851.4691	991.1932	7680.3	6805.6
851.6142	993.1945	7706.05	6829.35
851.7593	995.1951	7696.2	6820.8
851.9045	997.1951	7653.9	6772.75
852.0496	999.1943	7591.2	6719.4
852.1947	1001.1928	7530.8	6655.3
852.3398	1003.1906	7505.2	6630.25
852.4849	1005.1877	7553.25	6677.55
852.63	1007.1841	7495.85	6621.35
852.7751	1009.1798	7412.15	6536.7
852.9202	1011.1748	7247.05	6372.35
853.0653	1013.1691	7060.6	6184.3
853.2104	1015.1627	6892.9	6017.5
853.3555	1017.1556	6741.25	5866.2
853.5006	1019.1477	6675.35	5796.35
853.6457	1021.1392	6611.05	5736.65
853.7908	1023.1299	6600	5725.3
853.9359	1025.12	6644.6	5767.5
854.081	1027.1093	6677.85	5804.4
854.2261	1029.0979	6737.35	5862.3
854.3712	1031.0859	6792.65	5918.85
854.5163	1033.0731	6789.2	5912.1
854.6613	1035.0596	6709.55	5831.8
854.8064	1037.0454	6593.5	5718.55
854.9515	1039.0304	6504.1	5627.45
855.0965	1041.0148	6382.25	5507.5
855.2416	1042.9985	6332.1	5453.65
855.3867	1044.9814	6300.85	5425.7
855.5317	1046.9636	6240.4	5361.55
855.6768	1048.9452	6221.75	5346.7
855.8219	1050.926	6231.8	5356.8
855.9669	1052.9061	6216.3	5342.9
856.112	1054.8855	6220.15	5344.5
856.257	1056.8642	6229.85	5355.55
856.4021	1058.8421	6263.15	5383.4
856.5471	1060.8194	6288.25	5412.15
856.6921	1062.7959	6304.85	5428.7
856.8372	1064.7717	6306.4	5428.7
856.9822	1066.7469	6294.15	5415.55
857.1272	1068.7213	6262.55	5383.25
857.2723	1070.695	6243.85	5370.25
857.4173	1072.6679	6202.05	5324.5
857.5623	1074.6402	6146.1	5267.5
857.7073	1076.6117	6131.45	5246.7
857.8523	1078.5826	6152.35	5277
857.9973	1080.5527	6195.25	5314.9
858.1423	1082.5221	6329.6	5453.2
858.2873	1084.4908	6514.9	5635.35
858.4323	1086.4587	6709.95	5833.85
858.5773	1088.426	6811.1	5934.3
858.7223	1090.3925	6845	5960.9
858.8673	1092.3584	6748.5	5873.75
859.0123	1094.3235	6611.95	5735.7
859.1573	1096.2879	6507.6	5630.75
859.3022	1098.2515	6475.25	5599.8
859.4472	1100.2145	6496.55	5621.05
859.5922	1102.1767	6531.15	5652.9
859.7371	1104.1382	6645.95	5768
859.8821	1106.099	6824.75	5945.6
860.027	1108.0591	6997.85	6122.7
860.172	1110.0185	7091.7	6212.1
860.3169	1111.9771	7075.75	6200.65
860.4619	1113.9351	6896.05	6017.45
860.6068	1115.8923	6609.75	5731.3
860.7517	1117.8488	6307.75	5429
860.8967	1119.8045	6117.6	5240.05
861.0416	1121.7596	5974.2	5095.9
861.1865	1123.7139	5927.35	5049.6
861.3314	1125.6675	5935.7	5057.5
861.4763	1127.6204	5980.5	5104.95
861.6212	1129.5726	6003.55	5123.45
861.7661	1131.524	6039.45	5162.3
861.911	1133.4748	6073.85	5195
862.0559	1135.4248	6109.1	5231.7
862.2008	1137.3741	6136.65	5259.05
862.3457	1139.3226	6115.7	5236.7
862.4905	1141.2705	6074.5	5196.65
862.6354	1143.2176	6025.6	5142.3
862.7803	1145.164	6052	5173.35
862.9251	1147.1097	6062.5	5184.6
863.07	1149.0546	6054.3	5174.4
863.2148	1150.9989	5961.7	5085.8
863.3597	1152.9424	5820.15	4939.8
863.5045	1154.8852	5656.15	4777.15
863.6493	1156.8272	5536.45	4657.45
863.7942	1158.7686	5475.4	4587.15
863.939	1160.7092	5444.75	4568.55
864.0838	1162.6491	5440.6	4562.85
864.2286	1164.5883	5501.25	4622.85
864.3734	1166.5267	5552.45	4672.2
864.5182	1168.4644	5667.6	4787.8
864.663	1170.4014	5824.4	4940.1
864.8078	1172.3377	6006.15	5129.6
864.9526	1174.2732	6153.65	5275.7
865.0974	1176.2081	6328.55	5450.95
865.2421	1178.1421	6440.35	5558.9
865.3869	1180.0755	6553.5	5675.15
865.5317	1182.0082	6551.55	5671.65
865.6764	1183.9401	6471.45	5593.2
865.8212	1185.8713	6311.5	5434
865.9659	1187.8017	6100.6	5223.45
866.1106	1189.7315	5890.6	5012.9
866.2554	1191.6605	5723	4815.25
866.4001	1193.5888	5564.6	4685.95
866.5448	1195.5163	5447.15	4568.15
866.6895	1197.4432	5370.2	4490.75
866.8342	1199.3693	5310.05	4430.4
866.9789	1201.2947	5288.9	4407.95
867.1236	1203.2193	5270.45	4390.95
867.2683	1205.1432	5290.65	4410.95
867.413	1207.0664	5339.35	4460.7
867.5576	1208.9889	5416.25	4533.55
867.7023	1210.9106	5471.15	4593.6
867.847	1212.8316	5557.9	4680.4
867.9916	1214.7519	5633.6	4744.8
868.1363	1216.6715	5619.1	4740.05
868.2809	1218.5903	5603.4	4726.9
868.4255	1220.5084	5564.85	4687.3
868.5701	1222.4257	5522.8	4642.45
868.7148	1224.3424	5484.75	4607.7
868.8594	1226.2583	5536.15	4651.95
869.004	1228.1735	5623.3	4741.3
869.1486	1230.0879	5730.25	4849.5
869.2932	1232.0016	5825.05	4945.55
869.4377	1233.9146	5873.05	4991.9
869.5823	1235.8269	5782.05	4902.95
869.7269	1237.7384	5681.6	4802.9
869.8715	1239.6492	5523.85	4645.4
870.016	1241.5592	5446.75	4565.35
870.1606	1243.4686	5360.65	4480.75
870.3051	1245.3772	5299.15	4417.35
870.4496	1247.285	5256.7	4377.4
870.5941	1249.1922	5223.1	4344.05
870.7387	1251.0986	5199.1	4319.7
870.8832	1253.0042	5223.55	4343.4
871.0277	1254.9092	5295.65	4417.75
871.1722	1256.8134	5359.75	4481.3
871.3167	1258.7169	5478.9	4597.9
871.4611	1260.6196	5583	4703
871.6056	1262.5216	5731.9	4852.95
871.7501	1264.4229	5858.4	4982.4
871.8945	1266.3234	5927.65	5049.15
872.039	1268.2232	5973.5	5093
872.1834	1270.1223	5952.75	5070.85
872.3278	1272.0207	5937	5055.95
872.4723	1273.9183	5875.65	4988.35
872.6167	1275.8151	5828.6	4951.15
872.7611	1277.7113	5741.55	4862.55
872.9055	1279.6067	5628.8	4750.05
873.0499	1281.5014	5513.45	4632.4
873.1943	1283.3953	5390.7	4510.7
873.3386	1285.2885	5297.8	4418.75
873.483	1287.181	5243.4	4363.4
873.6274	1289.0727	5252.45	4372.45
873.7717	1290.9637	5294.4	4413.05
873.9161	1292.854	5376.3	4497.3
874.0604	1294.7435	5503.65	4623.9
874.2047	1296.6323	5697.2	4817.6
874.349	1298.5204	5891.05	5006.45
874.4933	1300.4077	6082.85	5202.3
874.6376	1302.2943	6252.15	5373.25
874.7819	1304.1802	6326.95	5447.2
874.9262	1306.0653	6266	5384.85
875.0705	1307.9497	6172.6	5291.8
875.2147	1309.8333	6121.75	5241.8
875.359	1311.7162	6114.7	5236
875.5032	1313.5984	6184.15	5301.2
875.6475	1315.4798	6300.55	5409.45
875.7917	1317.3605	6449.5	5552.1
875.9359	1319.2405	6581.35	5698.45
876.0801	1321.1197	6590.8	5707.8
876.2243	1322.9982	6595.35	5709.85
876.3685	1324.876	6566.85	5686.25
876.5127	1326.753	6557.4	5679.05
876.6569	1328.6293	6566.85	5685.15
876.801	1330.5048	6592.2	5710.6
876.9452	1332.3796	6563.25	5684.1
877.0893	1334.2537	6582.15	5674.25
877.2335	1336.127	6491.15	5611.7
877.3776	1337.9996	6459.25	5579.95
877.5217	1339.8714	6418.85	5537.95
877.6658	1341.7426	6392.75	5469.8
877.8099	1343.6129	6309.2	5428.5
877.954	1345.4826	6247.15	5363.7
878.0981	1347.3515	6224.8	5343.7
878.2422	1349.2196	6162	5278.15
878.3862	1351.087	6148.6	5268.2
878.5303	1352.9537	6197.05	5316.55
878.6743	1354.8197	6294	5412.25
878.8184	1356.6849	6445.1	5563.4
878.9624	1358.5493	6487.65	5606.35
879.1064	1360.4131	6483.6	5604.1
879.2504	1362.276	6420.45	5540.25
879.3944	1364.1383	6278.45	5398.35
879.5384	1365.9998	6103.75	5219.15
879.6823	1367.8606	5872.7	4990.55
879.8263	1369.7206	5689.05	4806.55
879.9702	1371.5799	5568.75	4686
880.1142	1373.4384	5481.7	4599.6
880.2581	1375.2962	5394.6	4513.5
880.402	1377.1533	5205.5	4324.95
880.5459	1379.0096	4999.55	4117.4
880.6898	1380.8652	4777.2	3895.1
880.8337	1382.7201	4596.05	3713.8
880.9776	1384.5742	4443.6	3562.95
881.1215	1386.4275	4339.55	3459.3
881.2653	1388.2802	4261.95	3383.65
881.4092	1390.132	4196.35	3315.1
881.553	1391.9832	4130.25	3246.55
881.6968	1393.8336	4082.7	3199.4
881.8406	1395.6832	4063.9	3179.55
881.9844	1397.5322	4044.15	3162.6
882.1282	1399.3803	4035.15	3150
882.272	1401.2278	4025.25	3143.8
882.4158	1403.0745	4020.8	3138.7
882.5595	1404.9204	4007.35	3126.15
882.7033	1406.7656	4034.8	3151.5
882.847	1408.6101	4053.3	3171.25
882.9908	1410.4538	4076.25	3194.05
883.1345	1412.2968	4114.55	3233.45
883.2782	1414.139	4145.95	3265.4
883.4219	1415.9805	4212.15	3332.8
883.5656	1417.8213	4292.45	3402.3
883.7092	1419.6613	4402.55	3521.3
883.8529	1421.5006	4558.7	3677
883.9965	1423.3391	4779.3	3897.8
884.1402	1425.1769	5086.15	4204.9
884.2838	1427.0139	5511.65	4627.45
884.4274	1428.8502	6007.2	5124.65
884.571	1430.6858	6505.15	5621.95
884.7146	1432.5206	6842.5	5961.35
884.8582	1434.3547	7052.15	6169.05
885.0018	1436.188	7067.45	6188.1
885.1453	1438.0206	7022.3	6138.6
885.2889	1439.8524	6895.25	6014.35
885.4324	1441.6835	6839.35	5957.75
885.5759	1443.5139	6752.4	5868.65
885.7194	1445.3435	6712.8	5832.1
885.8629	1447.1724	6665.35	5783.05
886.0064	1449.0005	6591.2	5709.25
886.1499	1450.8279	6530.55	5647.6
886.2933	1452.6545	6491.9	5609.65
886.4368	1454.4804	6515.9	5634.3
886.5802	1456.3056	6545.9	5657.05
886.7237	1458.13	6436.8	5558.05
886.8671	1459.9536	6241.65	5358.8
887.0105	1461.7766	5942.2	5062.2
887.1539	1463.5987	5599.45	4716.15
887.2972	1465.4202	5271.5	4392.45
887.4406	1467.2409	4993.5	4112.2
887.584	1469.0608	4777.95	3897.15
887.7273	1470.88	4578.8	3696.3
887.8706	1472.6984	4411.1	3529.85
888.0139	1474.5161	4244.75	3359.7
888.1572	1476.3331	4119.95	3240.6
888.3005	1478.1493	4045.4	3162.8
888.4438	1479.9648	3949.65	3069.2
888.5871	1481.7795	3873	2990.2
888.7303	1483.5935	3823.25	2944.15
888.8736	1485.4067	3779.4	2895.8
889.0168	1487.2192	3736.45	2856.75
889.16	1489.031	3695	2811.05
889.3032	1490.842	3674.35	2791.9
889.4464	1492.6522	3653.9	2772.55
889.5896	1494.4618	3619.25	2735.8
889.7327	1496.2705	3606.5	2727.7
889.8759	1498.0785	3598.15	2717.65
890.019	1499.8858	3585.55	2703.85
890.1622	1501.6924	3548.85	2670.85
890.3053	1503.4981	3536.95	2655.25
890.4484	1505.3032	3521.05	2638.75
890.5914	1507.1075	3516.5	2636.05
890.7345	1508.911	3500.5	2618.55
890.8776	1510.7138	3487.95	2604.85
891.0206	1512.5159	3464.35	2580.9
891.1637	1514.3172	3422.7	2541.1
891.3067	1516.1178	3398.4	2519.2
891.4497	1517.9176	3401.6	2517.9
891.5927	1519.7166	3379	2497.4
891.7357	1521.515	3358.3	2469.75
891.8786	1523.3126	3353.7	2472.25
892.0216	1525.1094	3329.5	2446.05
892.1645	1526.9055	3310.55	2429.75
892.3074	1528.7008	3292.25	2410.2
892.4503	1530.4954	3274.35	2390.25
892.5932	1532.2893	3262.35	2383.8
892.7361	1534.0824	3273.7	2384.55
892.879	1535.8747	3269.35	2384.5
893.0218	1537.6663	3263.9	2382.5
893.1647	1539.4572	3255.2	2370.3
893.3075	1541.2473	3256.25	2374.5
893.4503	1543.0367	3246.45	2366.75
893.5931	1544.8253	3236.45	2349.75
893.7359	1546.6132	3252.2	2368.4
893.8787	1548.4003	3260.15	2369.75
894.0214	1550.1867	3266.65	2376.1
894.1642	1551.9723	3257.55	2372.6
894.3069	1553.7572	3287.35	2404.05
894.4496	1555.5414	3310.05	2428.6
894.5923	1557.3247	3339.7	2456.6
894.735	1559.1074	3359.1	2478.15
894.8777	1560.8893	3395.15	2515.4
895.0204	1562.6705	3458.75	2578.1
895.163	1564.4509	3504.55	2623.1
895.3056	1566.2305	3579.8	2698.15
895.4482	1568.0094	3649.75	2769.15
895.5908	1569.7876	3718.35	2836.85
895.7334	1571.565	3770.7	2890.25
895.876	1573.3417	3819.7	2938.85
896.0186	1575.1176	3817.55	2938.1
896.1611	1576.8928	3798.25	2915.65
896.3036	1578.6672	3743.2	2863.9
896.4461	1580.4409	3651.05	2771.95
896.5886	1582.2138	3555.25	2670.95
896.7311	1583.986	3448.85	2568.8
896.8736	1585.7575	3376.6	2495.7
897.0161	1587.5282	3312.55	2432.9
897.1585	1589.2981	3260.45	2380.15
897.3009	1591.0673	3247.2	2366.15
897.4433	1592.8358	3229.75	2349.65
897.5857	1594.6035	3224.15	2338.9
897.7281	1596.3704	3214.05	2333.3
897.8705	1598.1366	3219.35	2341.05
898.0128	1599.9021	3238.85	2357.65
898.1551	1601.6668	3268.2	2385
898.2975	1603.4308	3302.6	2418.2
898.4398	1605.194	3352.8	2465.05
898.5821	1606.9564	3432.7	2551.05
898.7243	1608.7182	3518.5	2633.5
898.8666	1610.4791	3607.4	2726.05
899.0088	1612.2394	3732.2	2851.35
899.1511	1613.9988	3886.85	3006.3
899.2933	1615.7576	4049.25	3168.35
899.4355	1617.5156	4264.75	3377.75
899.5776	1619.2728	4452.35	3573.75
899.7198	1621.0293	4571	3689
899.862	1622.785	4661.3	3772.75
900.0041	1624.54	4609.5	3727.15
900.1462	1626.2942	4495.65	3614.8
900.2883	1628.0477	4319.05	3435.1
900.4304	1629.8005	4119.65	3234.65
900.5725	1631.5525	3917.7	3035.7
900.7145	1633.3037	3762.7	2881.55
900.8566	1635.0542	3637.55	2757.1
900.9986	1636.804	3547.65	2667.4
901.1406	1638.553	3520	2567.15
901.2826	1640.3013	3421.45	2541.85
901.4245	1642.0488	3387.95	2507.9
901.5665	1643.7955	3393.05	2512.85
901.7085	1645.5416	3407.35	2527
901.8504	1647.2868	3433.35	2553.3
901.9923	1649.0313	3516.4	2636.1
902.1342	1650.7751	3639.5	2755.75
902.2761	1652.5181	3774.8	2894.3
902.4179	1654.2604	3969.55	3087.8
902.5598	1656.0019	4235.15	3355.8
902.7016	1657.7427	4507.75	3626.45
902.8434	1659.4828	4793.4	3911.95
902.9852	1661.222	4989.05	4107.2
903.127	1662.9606	5010.05	4131.3
903.2687	1664.6984	4866.15	3985.4
903.4105	1666.4354	4612.65	3731
903.5522	1668.1717	4261.9	3380
903.6939	1669.9072	3894.15	3013.65
903.8356	1671.642	3593.65	2711.15
903.9773	1673.3761	3362.85	2485.85
904.119	1675.1094	3202	2319.65
904.2606	1676.8419	3080.35	2199.7
904.4022	1678.5737	2979.35	2099.35
904.5439	1680.3048	2913.8	2034.25
904.6855	1682.0351	2853.85	1974.3
904.827	1683.7646	2812.25	1930.35
904.9686	1685.4934	2793.05	1912.45
905.1101	1687.2215	2762.3	1881.95
905.2517	1688.9488	2723.35	1842.3
905.3932	1690.6754	2709.9	1831.5
905.5347	1692.4012	2694	1815.7
905.6761	1694.1263	2679.35	1798.85
905.8176	1695.8506	2648.25	1769.65
905.9591	1697.5742	2633.85	1754.75
906.1005	1699.297	2639.2	1760.2
906.2419	1701.0191	2619.65	1739.1
906.3833	1702.7404	2604.45	1724.2
906.5246	1704.461	2585.75	1702.95
906.666	1706.1808	2574	1690.55
906.8073	1707.8999	2567.15	1686.15
906.9487	1709.6182	2556.3	1674
907.09	1711.3358	2540.75	1661.65
907.2313	1713.0527	2532	1652.9
907.3725	1714.7688	2525	1638.65
907.5138	1716.4841	2521.05	1637.9
907.655	1718.1987	2516.7	1632.7
907.7962	1719.9126	2510.8	1632.75
907.9374	1721.6257	2503.9	1620.3
908.0786	1723.338	2482.1	1599.7
908.2198	1725.0496	2474.35	1592.65
908.3609	1726.7605	2466.8	1584.75
908.502	1728.4706	2451.85	1571.25
908.6431	1730.18	2447.35	1565.35
908.7842	1731.8886	2453.45	1571.95
908.9253	1733.5964	2439.05	1555.9
909.0664	1735.3036	2442.2	1560.6
909.2074	1737.0099	2430.45	1547.8
909.3484	1738.7156	2425.05	1545.3
909.4894	1740.4204	2416.2	1530.4
909.6304	1742.1246	2418.5	1538.8
909.7714	1743.8279	2403.5	1524.1
909.9123	1745.5306	2397.25	1514.15
910.0532	1747.2325	2397	1518.2
910.1941	1748.9336	2386.1	1505.65
910.335	1750.634	2374.85	1491.65
910.4759	1752.3336	2379.5	1498.55
910.6168	1754.0325	2377.6	1498.15
910.7576	1755.7307	2377.4	1498.45
910.8984	1757.4281	2367.6	1488.05
911.0392	1759.1247	2369	1479.7
911.18	1760.8206	2367.55	1485.2
911.3208	1762.5158	2362.7	1479.75
911.4615	1764.2102	2346.9	1467.8
911.6022	1765.9039	2332.35	1452.45
911.7429	1767.5968	2335.55	1453.4
911.8836	1769.289	2334.6	1454.85
912.0243	1770.9804	2328.55	1448.9
912.1649	1772.6711	2319.75	1437.2
912.3056	1774.361	2318.55	1436.45
912.4462	1776.0502	2323.5	1445
912.5868	1777.7386	2310.45	1426.8
912.7274	1779.4263	2310.2	1429.85
912.8679	1781.1132	2312.25	1433.9
913.0084	1782.7994	2289.55	1405.5
913.149	1784.4849	2292.6	1414.7
913.2895	1786.1696	2309.2	1409.05
913.4299	1787.8535	2294.25	1414.15
913.5704	1789.5367	2276.15	1394.35
913.7108	1791.2192	2272.1	1393.4
913.8513	1792.9009	2292.1	1385.45
913.9917	1794.5818	2259.25	1378.65
914.132	1796.2621	2258.3	1378.8
914.2724	1797.9415	2261.95	1381.75
914.4128	1799.6202	2247.45	1367.65
914.5531	1801.2982	2251.85	1372.15
914.6934	1802.9755	2253.4	1373.15
914.8337	1804.6519	2253.7	1373.65
914.9739	1806.3277	2240.25	1359.85
915.1142	1808.0027	2235.95	1356.25
915.2544	1809.6769	2228.9	1349.15
915.3946	1811.3504	2222.95	1342.1
915.5348	1813.0231	2222.8	1342.5
915.675	1814.6951	2228.5	1348.65
915.8151	1816.3664	2229.2	1346.75
915.9553	1818.0369	2218.25	1337.25
916.0954	1819.7067	2210.4	1330.65
916.2355	1821.3757	2206.55	1322.8
916.3755	1823.044	2204.55	1325.05
916.5156	1824.7115	2204.75	1325.65
916.6556	1826.3783	2193.75	1313.45
916.7956	1828.0443	2198.1	1318.8
916.9356	1829.7096	2192.15	1310.85
917.0756	1831.3741	2185.35	1300.75
917.2155	1833.0379	2184.95	1306.55
917.3555	1834.701	2190.25	1307.85
917.4954	1836.3633	2191.6	1309.15
917.6353	1838.0248	2180.15	1298.1
917.7751	1839.6856	2172.8	1292.1
917.915	1841.3457	2182.35	1303.95
918.0548	1843.005	2185.55	1305.4
918.1946	1844.6636	2172.4	1293.8
918.3344	1846.3214	2160.85	1278.95
918.4742	1847.9785	2162.5	1284.15
918.6139	1849.6349	2163.15	1280.85
918.7537	1851.2904	2168.15	1282.3
918.8934	1852.9453	2161.65	1283.95
919.0331	1854.5994	2155.85	1272.3
919.1727	1856.2528	2159.15	1272.6
919.3124	1857.9054	2145.75	1266.95
919.452	1859.5572	2156.75	1277.25
919.5916	1861.2083	2145.8	1265.45
919.7312	1862.8587	2138	1258.15
919.8708	1864.5084	2129.75	1248
920.0103	1866.1572	2122.55	1244.25
920.1498	1867.8054	2127.15	1247.1
920.2893	1869.4528	2130.8	1251.4
920.4288	1871.0994	2117.75	1238.75
920.5683	1872.7453	2110.2	1230.05
920.7077	1874.3905	2120.85	1235.1
920.8471	1876.0349	2102.2	1220.85
920.9865	1877.6786	2104.8	1220.95
921.1259	1879.3215	2097.35	1216.15
921.2653	1880.9637	2102.75	1219.85
921.4046	1882.6051	2096.65	1216.65
921.5439	1884.2458	2091.9	1209.9
921.6832	1885.8858	2085.55	1206.25
921.8225	1887.525	2082.45	1201.9
921.9617	1889.1634	2071.6	1192.25
922.101	1890.8011	2072	1191.25
922.2402	1892.4381	2060.75	1181.45
922.3794	1894.0743	2059.25	1180.55
922.5185	1895.7098	2062	1181.6
922.6577	1897.3446	2059.4	1179.75
922.7968	1898.9786	2058.85	1177.5
922.9359	1900.6118	2058.65	1176.3
923.075	1902.2443	2056.1	1173.65
923.214	1903.8761	2049.7	1171.65
923.3531	1905.5071	2047.15	1166.35
923.4921	1907.1374	2047.35	1165.8
923.6311	1908.7669	2042.4	1162.8
923.77	1910.3957	2037.05	1158.1
923.909	1912.0237	2039.8	1159.5
924.0479	1913.651	2028.35	1146
924.1868	1915.2776	2023.35	1146.5
924.3257	1916.9034	2021.05	1141.25
924.4646	1918.5285	2015.45	1137.35
924.6034	1920.1528	2016.95	1136.15
924.7422	1921.7764	2011.6	1131.05
924.881	1923.3992	2010.5	1131.35
925.0198	1925.0213	1991.45	1112.65
925.1586	1926.6427	1993.05	1115.9
925.2973	1928.2633	2085.95	1097.7
925.436	1929.8832	2000.2	1119.55
925.5747	1931.5023	1982.95	1104.45
925.7134	1933.1207	1984.8	1105.45
925.852	1934.7383	1983.2	1101.9
925.9906	1936.3552	1966.7	1088.4
926.1292	1937.9714	1969.6	1085.55
926.2678	1939.5868	1967.6	1086.55
926.4064	1941.2015	1968.15	1086.95
926.5449	1942.8154	1968.3	1088.25
926.6834	1944.4286	1956.75	1077.4
926.8219	1946.041	1970.55	1067.15
926.9604	1947.6528	1942.7	1056.7
927.0988	1949.2637	1940.05	1061.25
927.2372	1950.8739	1939.5	1059.85
927.3756	1952.4834	1926.55	1047.5
927.514	1954.0921	1929.85	1051.45
927.6523	1955.7001	1929.65	1045.5
927.7907	1957.3074	1923.25	1044.5
927.929	1958.9139	1912.9	1033.55
928.0673	1960.5197	1918.1	1035.9
928.2055	1962.1247	1911.65	1031.8
928.3438	1963.729	1901.1	1022.4
928.482	1965.3325	1923.05	1017.7
928.6202	1966.9353	1898.85	1019.95
928.7584	1968.5374	1893.2	1012.45
928.8965	1970.1387	1892.35	1011.75
929.0346	1971.7393	1886.95	1007.75
929.1727	1973.3392	1888.3	1008.7
929.3108	1974.9383	1879.95	1001.05
929.4489	1976.5366	1871.75	992.05
929.5869	1978.1342	1870.45	991.55
929.7249	1979.7311	1875.25	995.5
929.8629	1981.3273	1868.75	987.55
930.0009	1982.9227	1856.4	972.7
930.1388	1984.5173	1859.35	980.85
930.2767	1986.1112	1861.6	981.75
930.4146	1987.7044	1859.15	981.6
930.5525	1989.2968	1851.6	970.45
930.6904	1990.8885	1860.75	976.05
930.8282	1992.4795	1854.45	972.65
930.966	1994.0697	1845.1	965.05
931.1038	1995.6592	1848.9	969.75
931.2415	1997.2479	1839.35	960
931.3793	1998.8359	1831.7	950.7
931.517	2000.4232	1835	954.65
931.6547	2002.0097	1838.25	957.15
931.7923	2003.5955	1828.9	949.25
931.93	2005.1805	1831.4	950.15
932.0676	2006.7648	1822.8	943
932.2052	2008.3484	1815.05	933.25
932.3427	2009.9312	1821.65	940.1
932.4803	2011.5133	1813.95	935.25
932.6178	2013.0946	1811.25	931.1
932.7553	2014.6752	1804.2	924.2
932.8928	2016.2551	1810.75	930.1
933.0302	2017.8342	1806.55	925.1
933.1676	2019.4126	1796.9	918
933.305	2020.9902	1802.55	925.05
933.4424	2022.5672	1794.35	913.75
933.5798	2024.1433	1802.25	915.65
933.7171	2025.7188	1795.85	917.4
933.8544	2027.2935	1788.2	906.65
933.9917	2028.8674	1781.85	902.65
934.129	2030.4406	1782.8	902.7
934.2662	2032.0131	1775.2	895.95
934.4034	2033.5849	1779.95	896.8
934.5406	2035.1559	1772.3	891.25
934.6778	2036.7261	1778.75	901.25
934.8149	2038.2957	1776.45	896.6
934.952	2039.8645	1766.75	887.4
935.0891	2041.4325	1777.5	893.85
935.2262	2042.9998	1753.7	872.95
935.3632	2044.5664	1765.75	882.75
935.5002	2046.1323	1768.8	888.55
935.6372	2047.6974	1767.1	885.85
935.7742	2049.2617	1756.05	875.65
935.9111	2050.8254	1764.7	864.6
936.048	2052.3883	1761.5	882.45
936.1849	2053.9504	1751.65	868.2
936.3218	2055.5118	1747.95	866.15
936.4586	2057.0725	1743.55	859.5
936.5955	2058.6325	1743.6	862.05
936.7323	2060.1917	1736.1	857.1
936.869	2061.7502	1750.95	869.15
937.0058	2063.3079	1728.75	848.6
937.1425	2064.8649	1734.1	850.25
937.2792	2066.4212	1724.85	843.3
937.4159	2067.9767	1728.75	850.15
937.5525	2069.5315	1714.85	836.25
937.6891	2071.0856	1721	839.25
937.8257	2072.6389	1716.95	835.5
937.9623	2074.1915	1705.05	825
938.0989	2075.7433	1709.2	828.65
938.2354	2077.2945	1706.75	829.7
938.3719	2078.8448	1701.2	819.15
938.5084	2080.3945	1696.85	817.75
938.6448	2081.9434	1706.75	826.1
938.7812	2083.4916	1699.05	820.05
938.9176	2085.039	1695.7	816.65
939.054	2086.5857	1693.7	813.55
939.1903	2088.1317	1692.25	812.7
939.3267	2089.677	1680.25	799.4
939.463	2091.2215	1685.95	807.35
939.5992	2092.7652	1688.4	806.85
939.7355	2094.3083	1674.6	795
939.8717	2095.8506	1674.65	794.75
940.0079	2097.3921	1679.2	798.7
940.1441	2098.933	1672.15	790.8
940.2802	2100.4731	1669.85	789.05
940.4163	2102.0124	1674.6	787.1
940.5524	2103.5511	1663.95	785.25
940.6885	2105.089	1669	789.2
940.8245	2106.6261	1660.3	778.25
940.9606	2108.1626	1662	782.05
941.0965	2109.6983	1683.65	773.9
941.2325	2111.2332	1655.5	776.4
941.3684	2112.7675	1668.2	787.5
941.5044	2114.301	1666	785.8
941.6403	2115.8337	1661.4	779.75
941.7761	2117.3657	1646.95	767.8
941.912	2118.897	1645.6	762.85
942.0478	2120.4276	1648.35	763.25
942.1835	2121.9575	1642.1	761.9
942.3193	2123.4866	1653.7	762.05
942.455	2125.0149	1644.4	761.6
942.5907	2126.5426	1636.7	756.5
942.7264	2128.0695	1640.9	756.55
942.8621	2129.5956	1630.8	750.6
942.9977	2131.1211	1639.6	756.3
943.1333	2132.6458	1635.7	755.45
943.2689	2134.1698	1631.65	751.55
943.4044	2135.693	1636.95	754.75
943.54	2137.2155	1625.95	744.15
943.6755	2138.7373	1630.65	751.55
943.8109	2140.2584	1624.45	744.5
943.9464	2141.7787	1621.3	735.35
944.0818	2143.2983	1611.65	731.3
944.2172	2144.8171	1607.5	725.4
944.3526	2146.3353	1611.3	728.45
944.4879	2147.8527	1611.5	731.9
944.6232	2149.3693	1612.75	731.45
944.7585	2150.8853	1608.6	728.3
944.8938	2152.4005	1607.15	724.65
945.029	2153.9149	1604	724.8
945.1642	2155.4287	1597.65	718.35
945.2994	2156.9417	1599.05	716.9
945.4346	2158.454	1594.95	711.85
945.5697	2159.9655	1591.15	709.1
945.7048	2161.4764	1591.75	711.8
945.8399	2162.9865	1587.4	708.2
945.9749	2164.4958	1584	702.3
946.1099	2166.0045	1583.9	699.7
946.2449	2167.5124	1588.05	708.6
946.3799	2169.0195	1586.15	704.7
946.5148	2170.526	1593.05	712.25
946.6498	2172.0317	1587.15	706.2
946.7846	2173.5367	1585.8	703.7
946.9195	2175.0409	1579.45	699.5
947.0543	2176.5445	1580.35	700.4
947.1891	2178.0473	1576.85	695.9
947.3239	2179.5494	1577.8	694.7
947.4587	2181.0507	1568.2	686
947.5934	2182.5513	1569.4	688.75
947.7281	2184.0512	1565	683.5
947.8628	2185.5504	1561.95	681.85
947.9974	2187.0488	1560.6	680.85
948.132	2188.5465	1560.1	680.9
948.2666	2190.0435	1553.65	673.2
948.4012	2191.5397	1559.25	678.45
948.5357	2193.0353	1559.8	680.15
948.6702	2194.5301	1550.15	667.3
948.8047	2196.0241	1547.9	667.65
948.9392	2197.5175	1553.3	673.55
949.0736	2199.0101	1552.15	668.9
949.208	2200.502	1536.8	656.8
949.3424	2201.9931	1533.85	650.7
949.4767	2203.4835	1548.35	666.8
949.611	2204.9733	1548.25	660.75
949.7453	2206.4622	1530.95	650.5
949.8796	2207.9505	1533.45	650.95
950.0138	2209.438	1527.8	646.65
950.148	2210.9248	1534.15	651.5
950.2822	2212.4109	1535.55	658.25
950.4164	2213.8962	1533.15	650
950.5505	2215.3809	1529.85	649.95
950.6846	2216.8648	1525.95	643.1
950.8186	2218.3479	1528	644
950.9527	2219.8304	1517.7	634.9
951.0867	2221.3121	1513.75	632.1
951.2207	2222.7931	1521.4	640.25
951.3546	2224.2733	1514	632.4
951.4886	2225.7529	1519.9	639.05
951.6225	2227.2317	1511.3	628.75
951.7563	2228.7098	1501.4	621.5
951.8902	2230.1872	1504.7	621.55
952.024	2231.6638	1501.2	620.8
952.1578	2233.1397	1501.2	613.15
952.2916	2234.6149	1493.7	613.15
952.4253	2236.0894	1500.9	618.35
952.559	2237.5632	1505.6	614.65
952.6927	2239.0362	1488.45	607.95
952.8263	2240.5085	1484.7	603.45
952.9599	2241.9801	1486.7	605.45
953.0935	2243.4509	1477.3	596
953.2271	2244.921	1475.45	595.7
953.3606	2246.3904	1477.55	593.55
953.4941	2247.8591	1477.1	596.25
953.6276	2249.3271	1477.55	597.65
953.7611	2250.7943	1472.7	593
953.8945	2252.2608	1472.45	592.55
954.0279	2253.7266	1468.5	587.85
954.1612	2255.1917	1470.9	591
954.2946	2256.656	1469.8	588.9
954.4279	2258.1197	1459.5	578.95
954.5612	2259.5826	1465.9	582.7
954.6944	2261.0447	1465.85	584.25
954.8276	2262.5062	1459.15	576.45
954.9608	2263.9669	1465.9	583.55
955.094	2265.4269	1464.85	585.6
955.2271	2266.8862	1454.95	574.55
955.3602	2268.3448	1460.5	580.45
955.4933	2269.8026	1459.35	579.75
955.6264	2271.2598	1451.2	569.25
955.7594	2272.7162	1451.55	572.15
955.8924	2274.1719	1447.45	567.05
956.0253	2275.6268	1449.95	569.2
956.1583	2277.0811	1444.5	561.85
956.2912	2278.5346	1448.2	568.05
956.4241	2279.9874	1438.95	556.3
956.5569	2281.4395	1445.45	565.25
956.6897	2282.8908	1449.25	564.4
956.8225	2284.3414	1447	565.65
956.9553	2285.7914	1433.15	554.5
957.088	2287.2406	1433.9	550.35
957.2207	2288.689	1437.4	557
957.3534	2290.1368	1432.9	552.2
957.486	2291.5838	1434.45	552.8
957.6186	2293.0302	1434.25	551.95
957.7512	2294.4758	1432.4	549.95
957.8838	2295.9206	1422.9	539.55
958.0163	2297.3648	1433.95	554.1
958.1488	2298.8082	1425.95	545.5
958.2813	2300.251	1424	545.05
958.4137	2301.693	1428.95	545.8
958.5461	2303.1343	1423.9	542.9
958.6785	2304.5748	1422.5	542.3
958.8108	2306.0147	1419.95	537.55
958.9432	2307.4538	1425.55	540.65
959.0754	2308.8922	1412.5	533
959.2077	2310.3299	1412.05	532.1
959.3399	2311.7669	1414.65	534.55
959.4721	2313.2031	1414	532.65
959.6043	2314.6387	1403.45	522
959.7365	2316.0735	1402.85	522.5
959.8686	2317.5076	1406.85	525.25
960.0006	2318.941	1403.6	523.9
960.1327	2320.3737	1398.35	517.8
960.2647	2321.8056	1400.8	517.55
960.3967	2323.2369	1403.35	523.25
960.5287	2324.6674	1397.6	514.5
960.6606	2326.0972	1400.9	519.95
960.7925	2327.5263	1398.95	517.9
960.9244	2328.9547	1399.4	519.85
961.0562	2330.3823	1390.5	508.75
961.1881	2331.8092	1396.4	512.65
961.3198	2333.2355	1390.55	511.35
961.4516	2334.661	1384.85	502.6
961.5833	2336.0858	1388.8	506.45
961.715	2337.5098	1387.45	506.4
961.8467	2338.9332	1394.3	512.15
961.9783	2340.3558	1384.65	501
962.1099	2341.7778	1383.9	503.1
962.2415	2343.199	1383.8	499.75
962.373	2344.6195	1379	500.15
962.5045	2346.0393	1377.1	494.95
962.636	2347.4583	1380.85	499.5
962.7675	2348.8767	1382.2	500.1
962.8989	2350.2943	1379.15	497.15
963.0303	2351.7113	1384.75	503.6
963.1617	2353.1275	1372.95	492.95
963.293	2354.543	1402.5	498.5
963.4243	2355.9578	1373.1	494.05
963.5556	2357.3718	1377.9	497.65
963.6868	2358.7852	1377.9	496.4
963.818	2360.1978	1377.8	497
963.9492	2361.6098	1366.1	486.25
964.0803	2363.021	1373.95	489.6
964.2114	2364.4315	1368.25	489.45
964.3425	2365.8413	1368.4	488.6
964.4736	2367.2504	1368.4	487.7
964.6046	2368.6587	1362.7	483.7
964.7356	2370.0664	1355.55	474.1
964.8666	2371.4733	1361.1	480.15
964.9975	2372.8795	1353.95	474.8
965.1284	2374.285	1353.6	476.5
965.2593	2375.6899	1350.1	471.05
965.3901	2377.0939	1351.65	474.6
965.5209	2378.4973	1350.5	470
965.6517	2379.9	1352.7	471.6
965.7825	2381.3019	1350.15	470.85
965.9132	2382.7032	1352.65	474.2
966.0439	2384.1037	1342.95	463
966.1745	2385.5035	1340.4	460.6
966.3051	2386.9027	1341.45	462.2
966.4357	2388.3011	1340.45	456.65
966.5663	2389.6987	1336.45	454.85
966.6968	2391.0957	1340.85	462.35
966.8273	2392.492	1329.8	450
966.9578	2393.8876	1332.1	451
967.0882	2395.2824	1328.8	448.45
967.2186	2396.6765	1321	442.85
967.349	2398.07	1320.95	442.5
967.4793	2399.4627	1320.9	441.2
967.6097	2400.8547	1329.55	450.4
967.7399	2402.246	1326.1	440.35
967.8702	2403.6366	1325.55	444.85
968.0004	2405.0265	1316.95	437.05
968.1306	2406.4156	1324.9	440.4
968.2607	2407.8041	1323.05	440
968.3909	2409.1918	1319.15	435.75
968.521	2410.5789	1320.2	441.35
968.651	2411.9652	1321.15	439.9
968.781	2413.3508	1311.05	433.6
968.911	2414.7358	1310.45	428.45
969.041	2416.12	1319.9	440.85
969.1709	2417.5035	1311.25	433.9
969.3008	2418.8863	1315.35	436.05
969.4307	2420.2684	1303	423.1
969.5606	2421.6497	1313.95	433.95
969.6904	2423.0304	1306.8	427.65
969.8201	2424.4104	1309.45	429.1
969.9499	2425.7896	1311.25	427.8
970.0796	2427.1682	1300.95	421.35
970.2093	2428.546	1303.8	423.1
970.3389	2429.9232	1301.3	422.6
970.4685	2431.2996	1301.75	422.7
970.5981	2432.6753	1301	420.75
970.7277	2434.0503	1298.05	416.5
970.8572	2435.4246	1292.15	412.8
970.9867	2436.7982	1296.55	411.7
971.1161	2438.1711	1298.3	417.6
971.2456	2439.5433	1294.9	414.4
971.375	2440.9148	1289.3	403.15
971.5043	2442.2856	1286.25	407.5
971.6336	2443.6557	1288.15	406.5
971.7629	2445.025	1285.1	406.8
971.8922	2446.3937	1286.9	407.25
972.0214	2447.7617	1282.4	401.65
972.1506	2449.1289	1284.15	403.85
972.2798	2450.4955	1285.6	400.4
972.4089	2451.8613	1285.3	407.95
972.538	2453.2265	1279.35	400.15
972.6671	2454.5909	1285.85	405.4
972.7961	2455.9546	1283.85	405.35
972.9251	2457.3177	1279.2	399.6
973.0541	2458.68	1282.6	400.2
973.1831	2460.0416	1281.5	402.25
973.312	2461.4025	1279.55	397.4
973.4408	2462.7627	1286.9	394.95
973.5697	2464.1222	1270.15	392.95
973.6985	2465.4811	1277.3	394.55
973.8273	2466.8392	1273.3	390.9
973.956	2468.1966	1273.05	389.85
974.0847	2469.5533	1274.95	392.6
974.2134	2470.9093	1277.65	395
974.3421	2472.2645	1281.75	398.95
974.4707	2473.6191	1274.8	395.75
974.5993	2474.973	1272.95	394.65
974.7278	2476.3262	1276.25	395.4
974.8563	2477.6787	1276.5	396.8
974.9848	2479.0305	1272.85	391.45
975.1132	2480.3816	1271.05	390.9
975.2417	2481.7319	1271.65	391
975.37	2483.0816	1267.2	385.95
975.4984	2484.4306	1268.4	386.9
975.6267	2485.7789	1258.75	382.25
975.755	2487.1264	1264.9	384.9
975.8833	2488.4733	1258.3	379.3
976.0115	2489.8195	1274.3	377.05
976.1397	2491.165	1266.8	383.75
976.2678	2492.5097	1253.75	374
976.3959	2493.8538	1255.9	375.35
976.524	2495.1972	1253.3	373
976.6521	2496.5398	1253.2	370.05
976.7801	2497.8818	1262.6	379.25
976.9081	2499.2231	1249.8	371.25
977.036	2500.5637	1259.55	378.15
977.164	2501.9035	1253.85	371.85
977.2918	2503.2427	1255.4	373.05
977.4197	2504.5812	1247.25	369.5
977.5475	2505.919	1247.15	363.35
977.6753	2507.256	1250	369.9
977.8031	2508.5924	1239.3	359.2
977.9308	2509.9281	1253.8	369.8
978.0585	2511.2631	1248.75	370.8
978.1861	2512.5974	1245.3	366.65
978.3137	2513.9309	1245.8	365.2
978.4413	2515.2638	1277.7	361.05
978.5689	2516.596	1244.1	363.95
978.6964	2517.9275	1241.3	359.65
978.8239	2519.2583	1240.7	360.3
978.9513	2520.5884	1239.75	358.6
979.0788	2521.9178	1241.4	363.25
979.2062	2523.2465	1233.45	351.7
979.3335	2524.5745	1233.05	353.45
979.4608	2525.9018	1237.6	355.25
979.5881	2527.2284	1233.65	353.85
979.7154	2528.5543	1235.9	355.2
979.8426	2529.8796	1233.3	352.1
979.9698	2531.2041	1234.8	355.15
980.0969	2532.5279	1227.8	346.65
980.224	2533.851	1232.65	351.75
980.3511	2535.1735	1231.4	350.45
980.4781	2536.4952	1235.85	355.15
980.6052	2537.8163	1234.35	354.15
980.7321	2539.1366	1228.2	349.5
980.8591	2540.4562	1225.25	342.4
980.986	2541.7752	1222.9	342.05
981.1129	2543.0935	1231.3	350.85
981.2397	2544.411	1229.1	347.6
981.3665	2545.7279	1225.6	346.4
981.4933	2547.0441	1224.35	342.9
981.62	2548.3596	1222.4	339.55
981.7467	2549.6744	1221.75	343.65
981.8734	2550.9885	1223.6	342.75
982.0001	2552.3019	1217.4	337.2
982.1267	2553.6146	1220.45	341
982.2532	2554.9266	1220.25	339.85
982.3798	2556.2379	1216.05	332.7
982.5063	2557.5485	1219.35	340.7
982.6327	2558.8585	1217.6	326.45
982.7592	2560.1677	1222.3	336.9
982.8856	2561.4762	1214	333.6
983.0119	2562.7841	1215.6	332.95
983.1383	2564.0913	1209.25	330.1
983.2646	2565.3977	1216.7	335.6
983.3908	2566.7035	1209.7	328.4
983.517	2568.0086	1213.4	330.8
983.6432	2569.313	1211.35	329.2
983.7694	2570.6167	1214.3	329.4
983.8955	2571.9197	1204.6	325.25
984.0216	2573.222	1210.95	328
984.1476	2574.5236	1213.6	334.2
984.2737	2575.8246	1210.15	327.05
984.3996	2577.1248	1209.55	327.9
984.5256	2578.4244	1211.65	332.35
984.6515	2579.7232	1209.05	328.25
984.7774	2581.0214	1244.7	333.5
984.9032	2582.3189	1216	336.65
985.029	2583.6157	1217.15	331.3
985.1548	2584.9118	1216.85	335.15
985.2806	2586.2072	1213.9	332.95
985.4063	2587.5019	1214.95	335.4
985.5319	2588.7959	1214.15	332.1
985.6576	2590.0893	1219	338.35
985.7832	2591.3819	1219.65	339.1
985.9087	2592.6739	1216.1	335
986.0343	2593.9652	1223.8	342.3
986.1597	2595.2557	1216.5	336.45
986.2852	2596.5456	1226.45	344.8
986.4106	2597.8348	1224.35	345.7
986.536	2599.1234	1223.85	344
986.6614	2600.4112	1220	339.45
986.7867	2601.6983	1231.7	347.55
986.912	2602.9848	1224.35	344.1
987.0372	2604.2705	1232.15	343.9
987.1624	2605.5556	1223.6	343
987.2876	2606.84	1220.55	338.45
987.4128	2608.1237	1221.2	338.35
987.5379	2609.4067	1224.1	343.3
987.6629	2610.689	1231.15	343.4
987.788	2611.9707	1225	342.75
987.913	2613.2516	1221.5	336.4
988.0379	2614.5319	1216.6	337
988.1629	2615.8115	1221.8	340.15
988.2878	2617.0903	1219.9	336
988.4126	2618.3685	1219.85	339.6
988.5375	2619.6461	1218.65	338.65
988.6622	2620.9229	1212.05	333.25
988.787	2622.199	1220.3	337.15
988.9117	2623.4745	1224.1	342.95
989.0364	2624.7493	1219.6	338.7
989.161	2626.0234	1221.7	342.3
989.2857	2627.2968	1216.15	334.9
989.4102	2628.5695	1215	333.1
989.5348	2629.8415	1217.75	336.8
989.6593	2631.1128	1220.85	340.3
989.7837	2632.3835	1221.25	341.4
989.9082	2633.6535	1219.55	339.05
990.0326	2634.9228	1219.5	339.2
990.1569	2636.1914	1212.1	332.5
990.2812	2637.4593	1217.9	335.5
990.4055	2638.7265	1215.2	334.25
990.5298	2639.9931	1218.2	338.9
990.654	2641.259	1219.25	337.5
990.7782	2642.5242	1217.1	335.15
990.9023	2643.7887	1216.25	335.6
991.0264	2645.0525	1211.05	332.55
991.1505	2646.3156	1213.6	333.45
991.2745	2647.5781	1203.5	325.2
991.3985	2648.8398	1211.4	331.2
991.5225	2650.1009	1210.3	321.8
991.6464	2651.3613	1207.65	328.6
991.7703	2652.6211	1206.2	325.95
991.8942	2653.8801	1209.3	330.7
992.018	2655.1385	1213.45	332.1
992.1418	2656.3961	1208.7	328
992.2655	2657.6531	1206.65	324.9
992.3892	2658.9094	1208.15	327.15
992.5129	2660.1651	1210.25	328.05
992.6366	2661.42	1210.25	329.95
992.7602	2662.6743	1209.55	328.1
992.8837	2663.9279	1214.35	333.65
993.0073	2665.1808	1215.95	334.35
993.1307	2666.433	1219.25	336.85
993.2542	2667.6846	1219.45	338.85
993.3776	2668.9354	1218.2	334.35
993.501	2670.1856	1223.6	343.7
993.6244	2671.4351	1216.7	337.7
993.7477	2672.6839	1223.4	340.7
993.8709	2673.9321	1222.2	343.95
993.9942	2675.1795	1229.95	349.05
994.1174	2676.4263	1228.3	347.9
994.2405	2677.6724	1235.2	355.2
994.3637	2678.9179	1237.25	355.75
994.4868	2680.1626	1237.7	357.55
994.6098	2681.4067	1240.7	360.35
994.7328	2682.6501	1230.85	349.25
994.8558	2683.8928	1236.8	355.75
994.9788	2685.1348	1230.45	351.5
995.1017	2686.3761	1232.65	353.7
995.2245	2687.6168	1227.55	347.8
995.3474	2688.8568	1218.2	336.5
995.4702	2690.0961	1223.95	343.9
995.5929	2691.3348	1222.45	341.55
995.7156	2692.5727	1225.45	346.95
995.8383	2693.81	1214.85	335.65
995.961	2695.0466	1215.65	337.15
996.0836	2696.2826	1221.8	338.85
996.2062	2697.5178	1232.15	332.3
996.3287	2698.7524	1220.2	340.6
996.4512	2699.9863	1216.55	334.7
996.5737	2701.2195	1215.9	336.7
996.6961	2702.452	1229.1	347.6
996.8185	2703.6839	1228.5	346.8
996.9408	2704.9151	1233.9	355.25
997.0631	2706.1456	1236.65	353.7
997.1854	2707.3755	1239.1	357.55
997.3077	2708.6046	1254.6	371
997.4299	2709.8331	1255.95	375.05
997.552	2711.0609	1259.4	377.15
997.6742	2712.2881	1264.25	382.65
997.7963	2713.5145	1278.05	395.8
997.9183	2714.7403	1281.6	403.2
998.0403	2715.9654	1295.05	411.8
998.1623	2717.1899	1310.45	414.55
998.2842	2718.4136	1309.5	431.15
998.4062	2719.6367	1317	436.6
998.528	2720.8591	1336.8	448.7
998.6498	2722.0809	1335.05	454.65
998.7716	2723.3019	1347.95	462.7
998.8934	2724.5223	1351.4	468.85
999.0151	2725.7421	1354.3	473.5
999.1368	2726.9611	1364.55	482
999.2584	2728.1795	1356.75	470.5
999.38	2729.3972	1350.55	471.1
999.5016	2730.6142	1349.1	454.45
999.6231	2731.8306	1330.9	449.55
999.7446	2733.0462	1314.8	432.9
999.8661	2734.2612	1313.4	427.6
999.9875	2735.4756	1294.85	412.65
1000.1089	2736.6892	1281.15	399.6
1000.2302	2737.9022	1271.8	393
1000.3515	2739.1145	1261.55	380.45
1000.4728	2740.3262	1262.2	375.65
1000.594	2741.5372	1245.5	365.35
1000.7152	2742.7475	1234.75	354.75
1000.8363	2743.9571	1228.1	348.1
1000.9575	2745.1661	1219.65	335.75
1001.0785	2746.3744	1210.7	329.3
1001.1996	2747.582	1201.3	319.45
1001.3206	2748.7889	1199.2	317.5
1001.4415	2749.9952	1193.6	312.9
1001.5625	2751.2008	1191.25	308.05
1001.6833	2752.4057	1192.85	309.7
1001.8042	2753.61	1189.05	306.75
1001.925	2754.8136	1183.6	301.15
1002.0458	2756.0165	1185.15	305.65
1002.1665	2757.2188	1187.85	306.6
1002.2872	2758.4204	1191.35	313.05
1002.4078	2759.6213	1186.25	302
1002.5285	2760.8215	1196.45	310.7
1002.649	2762.0211	1184.95	302.25
1002.7696	2763.22	1189.35	305.2
1002.8901	2764.4182	1182.2	298.25
1003.0106	2765.6158	1183.3	303.65
1003.131	2766.8127	1172.65	289.1
1003.2514	2768.009	1178.6	297.75
1003.3717	2769.2045	1175.05	292.8
1003.492	2770.3994	1172.5	289.5
1003.6123	2771.5936	1171.3	290.7
1003.7325	2772.7872	1168.15	287.8
1003.8527	2773.9801	1172.5	288.65
1003.9729	2775.1723	1187.95	291.6
1004.093	2776.3639	1171.45	293.2
1004.2131	2777.5548	1174.8	290
1004.3331	2778.745	1174.35	293
1004.4531	2779.9346	1176.3	295.15
1004.5731	2781.1235	1177.5	294.45
1004.693	2782.3117	1182.05	303.15
1004.8129	2783.4992	1189.55	310.45
1004.9328	2784.6861	1191.7	309.3
1005.0526	2785.8723	1202.55	320.5
1005.1723	2787.0579	1204.75	323.6
1005.2921	2788.2428	1208.1	326.8
1005.4118	2789.427	1219.95	340.85
1005.5314	2790.6106	1226.05	344.35
1005.651	2791.7935	1231.05	350.75
1005.7706	2792.9757	1243.25	363.35
1005.8902	2794.1573	1253.5	367.8
1006.0097	2795.3382	1271.65	392.3
1006.1291	2796.5184	1280.55	400.75
1006.2485	2797.698	1292.8	409.95
1006.3679	2798.8769	1307.5	428.5
1006.4873	2800.0551	1329.2	449.25
1006.6066	2801.2327	1340.95	456.35
1006.7258	2802.4096	1354.8	475.7
1006.8451	2803.5859	1374.65	491.85
1006.9642	2804.7615	1393	512.6
1007.0834	2805.9364	1411.4	531.15
1007.2025	2807.1106	1433.55	554.7
1007.3216	2808.2842	1459.5	577.4
1007.4406	2809.4572	1489.2	608
1007.5596	2810.6294	1517.8	637.2
1007.6785	2811.801	1550.65	670.2
1007.7975	2812.972	1581.35	699.9
1007.9163	2814.1423	1621.7	742.05
1008.0352	2815.3119	1651	769
1008.154	2816.4808	1689.4	810.25
1008.2727	2817.6491	1735.15	854.5
1008.3914	2818.8167	1771.5	892.25
1008.5101	2819.9837	1820.55	935.95
1008.6288	2821.15	1857.6	978
1008.7474	2822.3157	1889.9	1009.75
1008.8659	2823.4807	1922.4	1041.7
1008.9844	2824.645	1956.25	1075.05
1009.1029	2825.8086	1986.7	1105.2
1009.2214	2826.9716	2016.25	1136.65
1009.3398	2828.134	2045.1	1165.2
1009.4581	2829.2957	2087.35	1206.7
1009.5764	2830.4567	2104.9	1226.15
1009.6947	2831.617	2118.75	1235.75
1009.813	2832.7767	2133.7	1254.1
1009.9312	2833.9358	2124.2	1243.6
1010.0493	2835.0941	2131.25	1250.9
1010.1675	2836.2519	2111.3	1230.35
1010.2855	2837.4089	2095	1214.4
1010.4036	2838.5653	2096.15	1215.85
1010.5216	2839.7211	2097.35	1216.95
1010.6396	2840.8761	2106.1	1224.35
1010.7575	2842.0306	2124.9	1245.35
1010.8754	2843.1843	2151.15	1271.65
1010.9932	2844.3374	2193.7	1311.1
1011.111	2845.4899	2240.8	1361.1
1011.2288	2846.6417	2293.5	1413.75
1011.3465	2847.7928	2357.2	1477.65
1011.4642	2848.9433	2439.8	1557.35
1011.5818	2850.0931	2502.05	1622.85
1011.6995	2851.2422	2561.65	1679.85
1011.817	2852.3907	2614.35	1733.5
1011.9345	2853.5385	2676.65	1795.1
1012.052	2854.6857	2740.05	1833.5
1012.1695	2855.8323	2755.05	1875.9
1012.2869	2856.9781	2800.35	1919.55
1012.4042	2858.1233	2837	1957.05
1012.5216	2859.2679	2887.45	2005.1
1012.6389	2860.4118	2921.15	2040.25
1012.7561	2861.555	2952.25	2067.85
1012.8733	2862.6976	2987.95	2104.5
1012.9905	2863.8395	2995.55	2116.2
1013.1076	2864.9808	3011.6	2132.55
1013.2247	2866.1214	3030	2151
1013.3417	2867.2614	3035.7	2154.5
1013.4587	2868.4007	3049.3	2167.6
1013.5757	2869.5393	3060.45	2178.95
1013.6926	2870.6773	3073.2	2190.15
1013.8095	2871.8146	3077.65	2192.55
1013.9263	2872.9513	3088.1	2207
1014.0431	2874.0874	3088.8	2209.4
1014.1599	2875.2227	3079.1	2197.6
1014.2766	2876.3574	3059.85	2180.15
1014.3933	2877.4915	3034.7	2153.3
1014.51	2878.6249	3034.3	2153.45
1014.6266	2879.7577	3001.55	2119.7
1014.7431	2880.8898	3006.3	2113.25
1014.8596	2882.0212	2980.55	2099.7
1014.9761	2883.152	2964.95	2082.25
1015.0925	2884.2821	2963.55	2084.95
1015.2089	2885.4116	2953.45	2072.15
1015.3253	2886.5405	2947.25	2066.55
1015.4416	2887.6686	2967.2	2082.75
1015.5579	2888.7962	2980.55	2101.25
1015.6741	2889.923	2975.7	2096.2
1015.7903	2891.0493	2982.35	2101.4
1015.9065	2892.1748	2988.05	2109.05
1016.0226	2893.2997	3004.3	2123.35
1016.1387	2894.424	3021.4	2140.9
1016.2547	2895.5476	3032.8	2153.6
1016.3707	2896.6706	3058.4	2177.45
1016.4866	2897.7929	3071.65	2189.45
1016.6025	2898.9145	3099.25	2219.3
1016.7184	2900.0355	3137.45	2258.2
1016.8342	2901.1559	3153.45	2273.15
1016.95	2902.2756	3168.7	2287.95
1017.0658	2903.3946	3200.15	2320.45
1017.1815	2904.513	3228.45	2344.2
1017.2971	2905.6308	3242.65	2362.95
1017.4127	2906.7479	3277.2	2395.3
1017.5283	2907.8643	3293.55	2412.6
1017.6439	2908.9801	3295.55	2415.3
1017.7594	2910.0953	3312.35	2431.9
1017.8748	2911.2098	3302.75	2419.55
1017.9902	2912.3236	3303.15	2414.4
1018.1056	2913.4368	3294.2	2410.5
1018.2209	2914.5494	3284.5	2402.65
1018.3362	2915.6613	3262.1	2373.95
1018.4515	2916.7725	3223.5	2341.4
1018.5667	2917.8831	3235.7	2355.05
1018.6819	2918.9931	3200.45	2315.65
1018.797	2920.1024	3183.65	2302.95
1018.9121	2921.211	3157.65	2277.9
1019.0271	2922.319	3139.85	2259.65
1019.1421	2923.4264	3134.3	2254.55
1019.2571	2924.5331	3104.2	2224.9
1019.372	2925.6391	3105.5	2224.2
1019.4869	2926.7445	3090.4	2212.3
1019.6017	2927.8493	3093.15	2212.95
1019.7165	2928.9534	3093.45	2214.75
1019.8313	2930.0569	3092.25	2208.45
1019.946	2931.1597	3084.5	2203.45
1020.0606	2932.2619	3061.2	2181.45
1020.1753	2933.3634	3066.45	2184.4
1020.2899	2934.4643	3047.2	2159.9
1020.4044	2935.5645	3037.3	2149.25
1020.5189	2936.6641	3008.7	2124.2
1020.6334	2937.763	2969.15	2088.75
1020.7478	2938.8613	2927.9	2047.75
1020.8622	2939.959	2877.5	1991.5
1020.9765	2941.056	2840.55	1962.4
1021.0908	2942.1523	2756	1876.1
1021.2051	2943.248	2679.5	1797.25
1021.3193	2944.3431	2605.25	1725.7
1021.4334	2945.4375	2524.8	1643.3
1021.5476	2946.5313	2438.6	1558.4
1021.6617	2947.6244	2366.95	1488.5
1021.7757	2948.7169	2283	1402.15
1021.8897	2949.8087	2215.5	1336.8
1022.0037	2950.8999	2125.45	1243.95
1022.1176	2951.9904	2060.15	1182.8
1022.2315	2953.0803	2007.9	1126.15
1022.3453	2954.1696	1949.6	1068.7
1022.4591	2955.2582	1906.55	1027.5
1022.5728	2956.3462	1868.45	987.2
1022.6865	2957.4335	1847.05	966
1022.8002	2958.5202	1822.55	939.7
1022.9138	2959.6062	1797.15	917.6
1023.0274	2960.6916	1781.85	900.25
1023.141	2961.7764	1775.35	894.3
1023.2545	2962.8605	1756.35	876.1
1023.3679	2963.9439	1748.4	866.6
1023.4813	2965.0267	1744.85	863.1
1023.5947	2966.1089	1753	849.15
1023.708	2967.1905	1730.3	848.95
1023.8213	2968.2714	1726.05	846.5
1023.9346	2969.3516	1725.3	843.8
1024.0478	2970.4312	1737.2	849.25
1024.1609	2971.5102	1730.4	848.9
1024.274	2972.5885	1730.25	851.9
1024.3871	2973.6662	1742.15	857.65
1024.5002	2974.7432	1731.2	851.55
1024.6132	2975.8196	1727.05	846.45
1024.7261	2976.8954	1712.95	834.85
1024.839	2977.9705	1706.8	827.65
1024.9519	2979.045	1702.9	824.2
1025.0647	2980.1188	1681.5	802.5
1025.1775	2981.192	1663.9	785.85
1025.2902	2982.2645	1645.55	763.05
1025.4029	2983.3364	1630	749.1
1025.5156	2984.4077	1604.55	723.2
1025.6282	2985.4783	1579.35	693.2
1025.7407	2986.5483	1551.15	670.85
1025.8532	2987.6177	1529.5	649.85
1025.9657	2988.6864	1501.05	621.9
1026.0782	2989.7545	1475.85	594.45
1026.1906	2990.8219	1444.2	564.2
1026.3029	2991.8887	1423.8	540.9
1026.4152	2992.9548	1395.95	515.5
1026.5275	2994.0204	1375.5	495.8
1026.6397	2995.0852	1354.75	473.55
1026.7519	2996.1495	1337.45	454.6
1026.864	2997.2131	1319.95	439.55
1026.9761	2998.276	1303.1	423.05
1027.0882	2999.3383	1280.95	400.65
1027.2002	3000.4	1262.85	382.25
1027.3122	3001.4611	1263.95	383.35
1027.4241	3002.5215	1246.65	366.75
1027.536	3003.5812	1239.8	359.35
1027.6478	3004.6404	1232.1	352.15
1027.7596	3005.6989	1222.5	339.7
1027.8714	3006.7567	1226.3	348.15
1027.9831	3007.8139	1229.6	328.45
1028.0947	3008.8705	1209.1	328.85
1028.2064	3009.9264	1208	325.5
1028.3179	3010.9818	1199.85	318
1028.4295	3012.0364	1196.25	314.85
1028.541	3013.0905	1194.35	314.5
1028.6524	3014.1439	1200.25	320.25
1028.7638	3015.1966	1195.05	316.15
1028.8752	3016.2487	1187.7	306.45
1028.9865	3017.3002	1201.45	317.8
1029.0978	3018.3511	1188.15	307.6
1029.209	3019.4013	1195.7	315.5
1029.3202	3020.4509	1202.25	322.45
1029.4314	3021.4998	1194.9	314.05
1029.5425	3022.5481	1192.3	312.05
1029.6535	3023.5958	1197.05	318.05
1029.7645	3024.6428	1203	322
1029.8755	3025.6892	1197.55	319.3
1029.9864	3026.735	1198.25	316.65
1030.0973	3027.7802	1206.4	324.6
1030.2082	3028.8247	1200.05	320.1
1030.319	3029.8685	1213.35	332.6
1030.4297	3030.9118	1212.45	330.65
1030.5404	3031.9544	1214.15	333.4
1030.6511	3032.9963	1221.65	340.9
1030.7617	3034.0376	1224	345.65
1030.8723	3035.0783	1224.9	342.8
1030.9829	3036.1184	1229.05	349.6
1031.0934	3037.1578	1230.35	349.9
1031.2038	3038.1966	1235.25	353.15
1031.3142	3039.2348	1236.8	357
1031.4246	3040.2723	1240.1	349.35
1031.5349	3041.3092	1233.4	355.45
1031.6452	3042.3455	1234.9	354.8
1031.7554	3043.3811	1233.65	350.2
1031.8656	3044.4161	1231.95	351.25
1031.9758	3045.4505	1222.7	344.7
1032.0859	3046.4842	1213.1	334.25
1032.1959	3047.5173	1211.75	330.95
1032.3059	3048.5498	1210.35	327.4
1032.4159	3049.5816	1201.1	321.15
1032.5258	3050.6128	1203.3	321.95
1032.6357	3051.6434	1195.65	314.7
1032.7455	3052.6734	1191.7	308.45
1032.8553	3053.7027	1187.95	307.65
1032.9651	3054.7314	1179.65	300.7
1033.0748	3055.7594	1175.2	296.7
1033.1845	3056.7868	1172.55	290.85
1033.2941	3057.8136	1164.2	285.5
1033.4037	3058.8398	1166.15	284.65
1033.5132	3059.8653	1158.3	277.2
1033.6227	3060.8902	1155.7	273.55
1033.7321	3061.9145	1147.05	269.45
1033.8415	3062.9381	1145.9	264.45
1033.9509	3063.9612	1156.05	261.35
1034.0602	3064.9835	1136.1	256.15
1034.1694	3066.0053	1134.4	251.5
1034.2787	3067.0264	1127.15	249.6
1034.3878	3068.0469	1125.95	245.1
1034.497	3069.0668	1117.2	235.1
1034.6061	3070.086	1105.5	228.1
1034.7151	3071.1046	1103.2	220.25
1034.8241	3072.1226	1095.25	213.95
1034.9331	3073.1399	1086.2	203.75
1035.042	3074.1567	1080.1	199.2
1035.1508	3075.1727	1075.2	194.2
1035.2597	3076.1882	1061.35	180.2
1035.3684	3077.203	1057.65	178.7
1035.4772	3078.2173	1051.3	167.55
1035.5859	3079.2308	1049.2	167.3
1035.6945	3080.2438	1048.5	166.55
1035.8031	3081.2561	1040.55	160.4
1035.9117	3082.2678	1029.95	149.15
1036.0202	3083.2789	1024.55	143.85
1036.1286	3084.2893	1021.55	141.95
1036.2371	3085.2991	1014.55	133.35
1036.3454	3086.3083	1016.6	133
1036.4538	3087.3169	1011.25	129.05
1036.562	3088.3248	1006.95	126.6
1036.6703	3089.3321	1002.65	121.65
1036.7785	3090.3388	998.65	120.25
1036.8866	3091.3449	998.7	119.55
1036.9948	3092.3503	994.35	111.25
1037.1028	3093.3551	990.7	112.35
1037.2108	3094.3593	990.25	110.7
1037.3188	3095.3629	985.25	106.05
1037.4267	3096.3658	982.35	100.6
1037.5346	3097.3681	980.25	98.25
1037.6425	3098.3698	983.35	102
1037.7503	3099.3708	981.65	93.95
1037.858	3100.3713	975.6	97.05
1037.9657	3101.3711	976.15	97.6
1038.0734	3102.3702	1110.85	87.1
1038.181	3103.3688	974.2	94.2
1038.2886	3104.3667	969.8	90.35
1038.3961	3105.364	966.2	86.4
1038.5036	3106.3607	967.85	85
1038.611	3107.3568	966.6	84.95
1038.7184	3108.3522	964.55	86.95
1038.8257	3109.347	966.35	85.05
1038.933	3110.3412	967.45	82.6
1039.0403	3111.3348	961.85	83.1
1039.1475	3112.3277	963.1	82.2
1039.2547	3113.32	959.65	79.95
1039.3618	3114.3117	961.55	78.55
1039.4689	3115.3028	960.7	81.9
1039.5759	3116.2932	958.7	77.4
1039.6829	3117.2831	962.95	78.6
1039.7898	3118.2723	958.4	79.8
1039.8967	3119.2608	953.5	74.8
1040.0035	3120.2488	957.2	76.55
1040.1103	3121.2361	952.45	72.9
1040.2171	3122.2229	954.6	77.05
1040.3238	3123.209	954.35	74.45
1040.4305	3124.1944	953.6	75.7
1040.5371	3125.1793	955.45	73.25
1040.6437	3126.1635	951.7	73.05
1040.7502	3127.1471	951.15	70.05
1040.8567	3128.1301	949.35	71.25
1040.9631	3129.1125	946.05	66
1041.0695	3130.0942	946.25	66.15
1041.1759	3131.0753	955.4	65.3
1041.2822	3132.0558	952.3	72.2
1041.3884	3133.0357	949.55	70
1041.4946	3134.015	945	66
1041.6008	3134.9936	946	65.05
1041.7069	3135.9716	964.4	66.8
1041.813	3136.949	942.5	63.4
1041.919	3137.9258	956.4	59.4
1042.025	3138.902	945.05	61.85
1042.1309	3139.8775	942.95	63.5
1042.2368	3140.8524	942.1	62.6
1042.3427	3141.8267	942.15	60.95
1042.4485	3142.8004	940.8	61
1042.5542	3143.7735	944.7	58.45
1042.6599	3144.7459	941.85	58.65
1042.7656	3145.7178	938.8	58.2
1042.8712	3146.689	933.8	54.4
1042.9768	3147.6596	937.15	55.8
1043.0823	3148.6295	937.1	55.15
1043.1878	3149.5989	934.55	54.35
1043.2932	3150.5676	934.1	56.55
1043.3986	3151.5357	935.1	55.6
1043.5039	3152.5032	932.35	52.3
1043.6092	3153.4701	931.7	51.65
1043.7145	3154.4364	935.7	53.65
1043.8197	3155.402	929.35	51.5
1043.9248	3156.367	932.15	50.5
1044.03	3157.3315	967	51
1044.135	3158.2952	930.5	50.2
1044.24	3159.2584	930.7	49.75
1044.345	3160.221	929.95	50.65
1044.4499	3161.1829	930.1	49.9
1044.5548	3162.1442	926.45	48.35
1044.6596	3163.105	925.7	46.4
1044.7644	3164.065	927.95	48.55
1044.8692	3165.0245	926.25	43.35
1044.9739	3165.9834	924.5	45.35
1045.0785	3166.9416	927.45	48.95
1045.1831	3167.8993	926.55	47.85
1045.2877	3168.8563	926.05	46.8
1045.3922	3169.8127	927.25	46.45
1045.4966	3170.7684	925.85	46.65
1045.6011	3171.7236	924.3	42.75
1045.7054	3172.6782	924.95	44.65
1045.8098	3173.6321	923.8	44.05
1045.914	3174.5854	926.95	40.15
1046.0183	3175.5381	921.7	41.9
1046.1224	3176.4902	923.4	42.8
1046.2266	3177.4417	919.1	40.35
1046.3307	3178.3926	921.85	43
1046.4347	3179.3428	920.25	41.95
1046.5387	3180.2924	922.2	43
1046.6427	3181.2415	921.45	40.85
1046.7466	3182.1899	923.05	41.45
1046.8504	3183.1377	919.5	38.85
1046.9542	3184.0848	922.45	40.05
1047.058	3185.0314	920.15	38.4
1047.1617	3185.9773	922.25	43.25
1047.2654	3186.9227	923.2	42.8
1047.369	3187.8674	919.15	39.45
1047.4726	3188.8115	923.4	38.85
1047.5761	3189.755	914.4	35.35
1047.6796	3190.6979	918.65	38.7
1047.783	3191.6402	918.25	37.95
1047.8864	3192.5818	915.85	36.8
1047.9898	3193.5229	948.6	41.15
1048.0931	3194.4633	919.2	39.35
1048.1963	3195.4031	917.95	37.95
1048.2995	3196.3423	916.1	36.3
1048.4027	3197.2809	917.55	39.05
1048.5058	3198.2189	918.2	37.75
1048.6089	3199.1563	935.5	38.45
1048.7119	3200.0931	917.75	37.4
1048.8148	3201.0292	914.55	36
1048.9178	3201.9648	918.35	40.15
1049.0206	3202.8997	916	32.25
1049.1235	3203.834	917.55	38.25
1049.2262	3204.7677	916.45	37.55
1049.329	3205.7008	915.5	31.65
1049.4317	3206.6333	912.2	35.9
1049.5343	3207.5652	915.65	33.85
1049.6369	3208.4964	914.65	34.05
1049.7394	3209.4271	915.55	37.45
1049.8419	3210.3571	914.3	35.2
1049.9444	3211.2865	919	37.15
1050.0468	3212.2154	911.8	30.3
1050.1491	3213.1436	917.15	33.7
1050.2514	3214.0712	919.7	35.55
1050.3537	3214.9982	913.65	35.25
1050.4559	3215.9246	911.15	29.3
1050.5581	3216.8503	909.95	32.35
1050.6602	3217.7755	911.3	30.85
1050.7623	3218.7001	910.8	32.05
1050.8643	3219.624	912.6	32.5
1050.9663	3220.5473	912.4	34.3
1051.0682	3221.4701	916.85	37.15
1051.1701	3222.3922	916	34.65
1051.2719	3223.3137	907.95	29
1051.3737	3224.2346	912.05	31.85
1051.4754	3225.1549	909.6	29.45
1051.5771	3226.0746	907.7	26.2
1051.6788	3226.9937	911.6	32.25
1051.7804	3227.9121	909.25	31
1051.8819	3228.83	909.95	30.2
1051.9834	3229.7473	912.8	32.6
1052.0849	3230.6639	909.45	29.9
1052.1863	3231.5799	911.1	31.4
1052.2876	3232.4954	911.95	29.35
1052.3889	3233.4102	912.4	34.95
1052.4902	3234.3244	911.55	32
1052.5914	3235.238	909.05	31.45
1052.6926	3236.151	930.95	26.6
1052.7937	3237.0634	910.05	30.05
1052.8948	3237.9752	909.75	30.4
1052.9958	3238.8864	910.3	31.1
1053.0968	3239.797	907.85	28.4
1053.1977	3240.7069	911.65	31.35
1053.2986	3241.6163	910.25	28.1
1053.3994	3242.5251	906.7	26.65
1053.5002	3243.4332	907.2	29.5
1053.6009	3244.3408	908.3	28.4
1053.7016	3245.2477	904.75	22.75
1053.8022	3246.154	909.95	29.9
1053.9028	3247.0598	905.8	26.7
1054.0034	3247.9649	907.15	28.25
1054.1039	3248.8694	907.45	27.35
1054.2043	3249.7733	906.3	26.05
1054.3047	3250.6766	904.85	25.9
1054.4051	3251.5793	906.85	28.9
1054.5054	3252.4814	908.4	29.8
1054.6056	3253.3829	903.7	22.35
1054.7058	3254.2838	902.6	21.95
1054.806	3255.1841	904.85	25.6
1054.9061	3256.0838	901.9	22.55
1055.0061	3256.9829	904.4	25.8
1055.1062	3257.8814	904.95	23.95
1055.2061	3258.7792	906.65	27.4
1055.306	3259.6765	903.95	23.6
1055.4059	3260.5731	904.45	26.95
1055.5057	3261.4692	902.15	21.6
1055.6055	3262.3647	899.5	19.35
1055.7052	3263.2595	899.25	19.25
1055.8049	3264.1538	902.8	24.2
1055.9045	3265.0474	902.85	23.5
1056.0041	3265.9404	899.5	19.95
1056.1036	3266.8329	900.1	20.3
1056.2031	3267.7247	909.35	21.05
1056.3025	3268.616	898.8	22.2
1056.4019	3269.5066	898.2	18.6
1056.5013	3270.3966	899.1	17.35
1056.6005	3271.286	895.7	18.5
