Software Version:	3.9.2.0
Unit SN:	10000200
Spectrometer SN:	6960
Date:	3/14/2024 12:28:05 PM
Data Line Index:	25
Spectral Points:	2048
Integration time (ms):	125
Averages:	20
Delay (ms):	30000
Sequence Number:	1
Processing:	dark subtract
Laser Power (mW):	305
Laser Current (mA):	821
Laser Diode Temp (C):	25.1
Laser Case Temp (C):	25.6
System Temp (C):	25.5
Spectrometer Temp (C):	23.3
CCD Temp (C):	-0.003
Secondary Temp (C):	20.006
Heatsink Temp (C):	22.457
CCDPCB Temp (C):	35.951
SecondaryPCB Temp (C):	30.805

Wavelength	RamanShift	Raw Counts	Dark Subtracted
787.061	30.1047	421.05	9.3
787.2016	32.3739	418.15	8.25
787.3422	34.6426	420.3	7.05
787.4828	36.9109	423.55	9.95
787.6235	39.1787	426.3	9.4
787.7642	41.4461	433.05	10.95
787.9049	43.7131	436.85	11.15
788.0456	45.9796	440.95	12.6
788.1863	48.2456	443.4	9.65
788.3271	50.5112	451.85	14.55
788.4679	52.7764	453.2	13.2
788.6087	55.0411	457.9	14.15
788.7496	57.3054	461.9	12.85
788.8904	59.5692	463.4	14.25
789.0313	61.8326	469.4	17.5
789.1722	64.0955	478.9	22.8
789.3132	66.3579	484.8	23.45
789.4541	68.6199	493.3	28.5
789.5951	70.8815	501.8	35.2
789.7361	73.1426	520.75	51.2
789.8771	75.4032	563.25	88.9
790.0181	77.6634	651	171.65
790.1592	79.9231	866.1	384.35
790.3003	82.1824	1314.1	830
790.4414	84.4412	2056.6	1566.8
790.5825	86.6995	3042.15	2544.5
790.7237	88.9574	3991.1	3490.95
790.8648	91.2148	4686.45	4185.2
791.006	93.4717	4999.25	4494.75
791.1472	95.7282	5075.5	4565.25
791.2885	97.9842	5084.15	4573.2
791.4297	100.2398	5010.65	4496.7
791.571	102.4949	4952.45	4436.4
791.7123	104.7495	4904	4381.7
791.8536	107.0036	4837.45	4314.25
791.9949	109.2573	4770.1	4252.2
792.1363	111.5105	4655.6	4132.9
792.2777	113.7632	4554	4030.1
792.4191	116.0154	4447.7	3910.3
792.5605	118.2672	4303.05	3773.45
792.7019	120.5185	4169.65	3638.6
792.8434	122.7693	4039.05	3506.7
792.9849	125.0197	3905.1	3370.3
793.1264	127.2696	3783.8	3246.1
793.2679	129.519	3719.8	3178.95
793.4094	131.7679	3666.4	3122.25
793.551	134.0163	3635.75	3090.55
793.6926	136.2642	3630.5	3080.4
793.8342	138.5117	3626.8	3071.5
793.9758	140.7587	3594.75	3038.4
794.1175	143.0052	3566.25	3005.6
794.2591	145.2512	3489.5	2928.25
794.4008	147.4967	3410.05	2852.05
794.5425	149.7417	3338.65	2775.75
794.6842	151.9863	3296.8	2730.6
794.826	154.2304	3270.55	2700.45
794.9677	156.4739	3240.75	2662.1
795.1095	158.717	3259.15	2684.75
795.2513	160.9596	3302.55	2722.2
795.3931	163.2017	3342.7	2759.85
795.535	165.4433	3374.25	2790.45
795.6768	167.6844	3382.5	2795.9
795.8187	169.925	3334.05	2746.05
795.9606	172.1651	3276.95	2683.05
796.1025	174.4047	3194.85	2599.5
796.2445	176.6439	3135.05	2539.25
796.3864	178.8825	3096.35	2493.8
796.5284	181.1206	3071.9	2467.35
796.6704	183.3582	3058.2	2452.9
796.8124	185.5954	3043.35	2434.25
796.9544	187.832	3042.3	2428.8
797.0965	190.0681	3039.25	2424.2
797.2386	192.3037	3046.7	2426.95
797.3806	194.5388	3025.55	2402.25
797.5228	196.7734	3060.6	2435.85
797.6649	199.0075	3078.65	2450.05
797.807	201.2411	3100.9	2468.95
797.9492	203.4742	3124.35	2492.8
798.0914	205.7068	3160.8	2528.3
798.2336	207.9389	3190.45	2557.45
798.3758	210.1704	3210.3	2573.5
798.518	212.4015	3202.2	2561.1
798.6603	214.632	3223.8	2583.35
798.8025	216.862	3221.4	2586.65
798.9448	219.0915	3227.1	2598.75
799.0871	221.3205	3235.65	2610.7
799.2294	223.549	3234.6	2616.5
799.3718	225.777	3240.9	2620.8
799.5141	228.0044	3242.5	2622.3
799.6565	230.2314	3234.3	2614.45
799.7989	232.4578	3221	2596.45
799.9413	234.6837	3202.3	2573.35
800.0837	236.909	3182	2551.95
800.2262	239.1339	3189.25	2536.7
800.3687	241.3582	3153.1	2515.4
800.5111	243.582	3161.45	2497
800.6536	245.8053	3164.7	2507.45
800.7961	248.0281	3174.45	2521.9
800.9387	250.2503	3179.15	2520.45
801.0812	252.472	3193.15	2530.55
801.2238	254.6932	3200.35	2534.45
801.3664	256.9139	3201.7	2531.5
801.509	259.134	3213.85	2541.55
801.6516	261.3536	3235.6	2563.55
801.7942	263.5727	3301.3	2628.25
801.9369	265.7912	3340.05	2668.25
802.0795	268.0092	3421.05	2746.65
802.2222	270.2267	3497.75	2822.9
802.3649	272.4436	3581	2907.35
802.5076	274.6601	3626.7	2940.8
802.6504	276.8759	3635.1	2954.35
802.7931	279.0913	3671	2991.4
802.9359	281.3061	3695.8	3014.45
803.0787	283.5204	3741.85	3057.95
803.2215	285.7341	3758.95	3069.2
803.3643	287.9473	3815.95	3124.8
803.5071	290.16	3826.2	3132.6
803.6499	292.3721	3737.2	3047.95
803.7928	294.5837	3666.8	2975.85
803.9357	296.7947	3605.7	2913.9
804.0786	299.0052	3580.3	2890
804.2215	301.2152	3564	2870.7
804.3644	303.4246	3548.45	2855.85
804.5074	305.6334	3537	2843.95
804.6503	307.8418	3545.85	2847.85
804.7933	310.0495	3499.1	2803.75
804.9363	312.2568	3460.4	2765.35
805.0793	314.4635	3382.95	2684.6
805.2223	316.6696	3326.4	2627.7
805.3653	318.8752	3259.85	2550.8
805.5084	321.0802	3202.4	2499.65
805.6514	323.2847	3193.35	2491.25
805.7945	325.4887	3188.8	2486
805.9376	327.692	3203.25	2500.1
806.0807	329.8949	3270.3	2563.85
806.2238	332.0972	3351.5	2646.05
806.367	334.2989	3413.75	2702.1
806.5101	336.5001	3431.4	2720.9
806.6533	338.7007	3402.65	2690.35
806.7965	340.9008	3319.1	2605.65
806.9397	343.1003	3227.35	2510.1
807.0829	345.2992	3146.15	2427.4
807.2261	347.4976	3083.55	2363.55
807.3693	349.6955	3028.25	2306.05
807.5126	351.8927	2990	2266.4
807.6559	354.0895	2971.95	2236.6
807.7991	356.2856	2948.95	2224.5
807.9424	358.4812	2928	2203.55
808.0857	360.6763	2920.2	2194.15
808.2291	362.8707	2906.2	2179.85
808.3724	365.0646	2925.9	2194.9
808.5158	367.258	2922.3	2190.25
808.6591	369.4508	2948.8	2213.5
808.8025	371.643	2977.15	2241.9
808.9459	373.8346	3029.1	2289.85
809.0893	376.0257	3096.6	2353.8
809.2327	378.2162	3135.25	2393.45
809.3762	380.4062	3175.85	2428.95
809.5196	382.5956	3149.35	2401.35
809.6631	384.7844	3083.65	2337.85
809.8066	386.9726	3007.5	2261.05
809.9501	389.1603	2946.25	2198.65
810.0936	391.3474	2972.45	2193.8
810.2371	393.5339	2924.3	2175.3
810.3806	395.7199	2918.45	2173.05
810.5241	397.9052	2955.05	2213.2
810.6677	400.09	3023.05	2282.4
810.8113	402.2743	3075.8	2336
810.9548	404.4579	3138.75	2399.5
811.0984	406.641	3190.05	2451.35
811.2421	408.8235	3264.35	2522.9
811.3857	411.0054	3316.8	2574.6
811.5293	413.1868	3395	2651.95
811.673	415.3675	3457.65	2711.7
811.8166	417.5477	3451.5	2704.85
811.9603	419.7273	3394.9	2644.15
812.104	421.9064	3304.75	2545.5
812.2477	424.0848	3215.75	2462.35
812.3914	426.2627	3114.4	2357.4
812.5351	428.4399	3035.35	2276.6
812.6788	430.6166	2938.95	2175.75
812.8226	432.7928	2877.45	2114.8
812.9663	434.9683	2819.45	2054.15
813.1101	437.1432	2782.8	2014.7
813.2539	439.3176	2760.4	1994.5
813.3977	441.4914	2726.2	1958.8
813.5415	443.6645	2732.4	1962.25
813.6853	445.8371	2732.1	1962.8
813.8291	448.0091	2732.4	1963.75
813.973	450.1806	2731.3	1959.05
814.1168	452.3514	2726.5	1953.4
814.2607	454.5216	2733.35	1951.65
814.4046	456.6913	2726.95	1953.9
814.5485	458.8603	2727.05	1952.9
814.6924	461.0288	2737.45	1963.3
814.8363	463.1967	2733.55	1960.45
814.9802	465.3639	2742.55	1965.05
815.1241	467.5306	2728	1949.7
815.2681	469.6967	2718.8	1941
815.412	471.8622	2700.5	1922.25
815.556	474.0271	2696.45	1919.05
815.7	476.1914	2692.5	1912.9
815.844	478.3551	2691.75	1910.45
815.988	480.5182	2692.95	1914.05
816.132	482.6807	2690.05	1907.8
816.276	484.8426	2715.8	1935.7
816.4201	487.0039	2772.15	1991.8
816.5641	489.1647	2857.4	2074.25
816.7082	491.3248	2935.65	2153
816.8522	493.4843	2962.9	2177.95
816.9963	495.6432	2939.35	2154.15
817.1404	497.8015	2887.8	2099.9
817.2845	499.9592	2832.65	2049.25
817.4286	502.1163	2750.05	1964.1
817.5727	504.2728	2688.75	1900.1
817.7168	506.4287	2653.45	1868.25
817.861	508.5839	2630.7	1841.75
818.0051	510.7386	2619.55	1830.85
818.1493	512.8927	2631.55	1836.3
818.2935	515.0461	2635.6	1845.95
818.4377	517.199	2653.3	1865
818.5818	519.3512	2703.2	1914.1
818.726	521.5029	2810.35	2013.45
818.8703	523.6539	2911.45	2118.25
819.0145	525.8043	2931.15	2137.7
819.1587	527.9541	2852.7	2057
819.303	530.1033	2755.05	1959.25
819.4472	532.2519	2674.25	1877.55
819.5915	534.3999	2631.85	1834.6
819.7357	536.5472	2619.7	1821.6
819.88	538.694	2630.7	1832.55
820.0243	540.8401	2640.15	1840.8
820.1686	542.9856	2663.25	1864.5
820.3129	545.1305	2687.9	1885.05
820.4572	547.2748	2714.6	1914.25
820.6016	549.4185	2716.25	1913.5
820.7459	551.5615	2721.75	1921.7
820.8902	553.704	2747.5	1943.9
821.0346	555.8458	2776.65	1974.05
821.1789	557.987	2799.05	1998.55
821.3233	560.1276	2851.6	2047.35
821.4677	562.2675	2950.3	2149.55
821.6121	564.4069	3076.1	2273.05
821.7565	566.5456	3146.7	2342
821.9009	568.6837	3114.25	2311.9
822.0453	570.8212	2980.25	2177.6
822.1897	572.958	2832.05	2026.2
822.3342	575.0942	2749.75	1947.6
822.4786	577.2299	2686.9	1880.95
822.6231	579.3648	2646.3	1840.3
822.7675	581.4992	2630.55	1823.05
822.912	583.6329	2647.6	1839.7
823.0565	585.766	2674.05	1868.8
823.201	587.8985	2738.1	1930.4
823.3454	590.0304	2839.5	2011.15
823.4899	592.1616	2894.55	2083.4
823.6345	594.2922	2896.75	2086.1
823.779	596.4222	2859.75	2047.45
823.9235	598.5515	2776.55	1964.85
824.068	600.6802	2684.2	1873.35
824.2126	602.8083	2612.6	1801.7
824.3571	604.9358	2582.25	1767.5
824.5017	607.0626	2574.45	1759.35
824.6462	609.1888	2589.25	1775.05
824.7908	611.3144	2624.9	1809.15
824.9354	613.4393	2665.5	1852.3
825.08	615.5636	2740.95	1923.7
825.2246	617.6873	2822.05	2009
825.3692	619.8103	2875.1	2058.3
825.5138	621.9327	2897.2	2078.8
825.6584	624.0544	2855.6	2039.7
825.803	626.1756	2761.2	1944.6
825.9477	628.2961	2669.85	1853
826.0923	630.4159	2629.9	1813.55
826.237	632.5351	2611.45	1793.05
826.3816	634.6537	2602.5	1784.75
826.5263	636.7716	2602.65	1782.1
826.6709	638.8889	2589.05	1769.95
826.8156	641.0056	2602.2	1782
826.9603	643.1216	2629.05	1808.85
827.105	645.237	2650.85	1827.3
827.2497	647.3518	2615.4	1792.25
827.3944	649.4659	2571.7	1749.85
827.5391	651.5793	2540.3	1717
827.6838	653.6922	2507.25	1684.55
827.8285	655.8043	2482.45	1660.65
827.9733	657.9159	2460.95	1637
828.118	660.0268	2462.65	1636.35
828.2627	662.137	2451.4	1624.3
828.4075	664.2466	2460.5	1635.3
828.5522	666.3556	2464.15	1639.2
828.697	668.4639	2462.05	1630.65
828.8418	670.5716	2440.25	1613.25
828.9865	672.6786	2441.8	1615.5
829.1313	674.785	2423.9	1591.85
829.2761	676.8907	2412.8	1583.45
829.4209	678.9958	2419.25	1590.7
829.5657	681.1002	2404.95	1576.95
829.7105	683.204	2416.45	1583.9
829.8553	685.3072	2427.8	1597.3
830.0001	687.4097	2423.5	1592.05
830.1449	689.5115	2422.5	1590.35
830.2898	691.6127	2409.4	1580.4
830.4346	693.7132	2406.85	1575.3
830.5794	695.8131	2417.35	1572.55
830.7243	697.9123	2415.35	1582.6
830.8691	700.0109	2421.85	1589.45
831.014	702.1089	2431.4	1600.05
831.1588	704.2061	2452.35	1620.45
831.3037	706.3028	2504.15	1668.85
831.4486	708.3987	2516	1683.85
831.5935	710.4941	2550.9	1718
831.7383	712.5887	2553.4	1719.25
831.8832	714.6827	2550.05	1710.55
832.0281	716.7761	2534.15	1698.3
832.173	718.8688	2528.55	1692.5
832.3179	720.9608	2532.25	1692.8
832.4628	723.0522	2536.3	1697.4
832.6077	725.1429	2562.85	1728.95
832.7527	727.233	2614.45	1777.65
832.8976	729.3224	2698.9	1862.65
833.0425	731.4112	2789.9	1953.2
833.1874	733.4993	2832.9	1994.55
833.3324	735.5867	2757.7	1920.45
833.4773	737.6735	2659.5	1819.4
833.6222	739.7596	2559.45	1720.6
833.7672	741.845	2499.8	1659.85
833.9122	743.9298	2491.5	1650.25
834.0571	746.014	2489.1	1650.55
834.2021	748.0974	2502.85	1661.4
834.347	750.1802	2509.65	1669.15
834.492	752.2624	2493.85	1654.05
834.637	754.3439	2471.1	1630.55
834.782	756.4247	2486.45	1636.45
834.9269	758.5048	2487.1	1646.4
835.0719	760.5843	2504.85	1662.65
835.2169	762.6631	2559.05	1717.2
835.3619	764.7413	2623.8	1782.3
835.5069	766.8188	2758.4	1913.15
835.6519	768.8956	2879.3	2033.25
835.7969	770.9718	2977.2	2133.1
835.9419	773.0473	2946.15	2103.55
836.0869	775.1221	2897.5	2055.5
836.232	777.1962	2863.35	2019.7
836.377	779.2697	2968.6	2123.4
836.522	781.3426	3138.8	2285.95
836.667	783.4147	3258.45	2411.4
836.8121	785.4862	3268.75	2424.85
836.9571	787.557	3130.9	2286.4
837.1021	789.6271	2938.45	2091
837.2472	791.6966	2733.35	1886.7
837.3922	793.7654	2569.5	1724.2
837.5373	795.8335	2472.85	1625.45
837.6823	797.901	2432.85	1588.45
837.8274	799.9678	2415.75	1567.15
837.9724	802.0339	2400.25	1555.75
838.1175	804.0993	2422.75	1567.4
838.2626	806.1641	2420.1	1570.15
838.4076	808.2282	2391.3	1544.65
838.5527	810.2916	2365.1	1511.6
838.6978	812.3544	2346.95	1501.2
838.8428	814.4164	2329	1482.35
838.9879	816.4778	2342	1493.5
839.133	818.5385	2355.65	1508.25
839.2781	820.5986	2413.15	1563
839.4232	822.658	2487.65	1637.15
839.5682	824.7166	2587.3	1739.5
839.7133	826.7747	2716.8	1868.4
839.8584	828.832	2825.7	1977.1
840.0035	830.8886	2925.9	2075.9
840.1486	832.9446	2971.65	2121.65
840.2937	834.9999	2933.7	2085.5
840.4388	837.0545	2839.1	1985.1
840.5839	839.1085	2705	1852.9
840.729	841.1618	2575.55	1722.8
840.8741	843.2143	2497.95	1647.5
841.0192	845.2662	2422.5	1572.5
841.1643	847.3175	2405.8	1554.15
841.3095	849.368	2393.8	1543.55
841.4546	851.4179	2390.4	1539.8
841.5997	853.467	2390.45	1537.5
841.7448	855.5155	2390.7	1538.65
841.8899	857.5633	2403.1	1551.8
842.0351	859.6105	2392.9	1540
842.1802	861.6569	2381.4	1528.3
842.3253	863.7027	2351.2	1496.55
842.4704	865.7478	2332.1	1479
842.6156	867.7922	2314.9	1460.1
842.7607	869.8359	2300.5	1445.85
842.9058	871.8789	2290.7	1435.3
843.0509	873.9212	2300.55	1412.2
843.1961	875.9629	2290.15	1437.35
843.3412	878.0039	2317.3	1461.2
843.4863	880.0441	2328.55	1474.45
843.6315	882.0837	2356.9	1502.35
843.7766	884.1226	2395.7	1539.2
843.9218	886.1609	2445.8	1591.95
844.0669	888.1984	2520.3	1666.75
844.212	890.2352	2598.65	1744.75
844.3572	892.2714	2629.45	1770.95
844.5023	894.3069	2581.9	1725.45
844.6475	896.3416	2489.1	1633.6
844.7926	898.3757	2419.3	1562.45
844.9377	900.4091	2378	1519.85
845.0829	902.4418	2383.1	1521
845.228	904.4739	2424.5	1564.9
845.3732	906.5052	2454.3	1596.55
845.5183	908.5358	2458	1600.45
845.6635	910.5658	2431.6	1574.2
845.8086	912.595	2393.7	1536.2
845.9538	914.6236	2325.45	1469.05
846.0989	916.6515	2279.2	1423.4
846.2441	918.6786	2248.2	1387.95
846.3892	920.7051	2239.4	1379.75
846.5344	922.7309	2231.65	1375.1
846.6795	924.756	2227.95	1369.65
846.8246	926.7804	2246.85	1385.55
846.9698	928.8041	2268.4	1406.45
847.1149	930.8272	2292.2	1432.85
847.2601	932.8495	2287.9	1427.45
847.4052	934.8711	2323.6	1463.1
847.5504	936.892	2326.9	1467.25
847.6955	938.9123	2347.15	1486.55
847.8407	940.9318	2389.85	1529.55
847.9858	942.9506	2419.55	1557.1
848.131	944.9688	2418.2	1557.05
848.2761	946.9862	2380.2	1518.65
848.4213	949.003	2322.3	1461.8
848.5664	951.019	2287.8	1426.1
848.7115	953.0344	2259.25	1396.95
848.8567	955.0491	2233.7	1369.35
849.0018	957.063	2235	1373.9
849.147	959.0763	2231.2	1370.95
849.2921	961.0888	2210.9	1346.75
849.4373	963.1007	2212.7	1349.65
849.5824	965.1119	2187.45	1324
849.7275	967.1223	2184.35	1321
849.8727	969.1321	2166.45	1302.85
850.0178	971.1412	2159.1	1296.05
850.1629	973.1495	2155.15	1291.9
850.3081	975.1572	2197.15	1285.55
850.4532	977.1641	2164.85	1302.25
850.5983	979.1704	2170.15	1306.55
850.7435	981.1759	2172.25	1304.95
850.8886	983.1808	2146.7	1281.95
851.0337	985.1849	2137.75	1264.45
851.1788	987.1884	2136.4	1268.95
851.324	989.1911	2141.6	1273.55
851.4691	991.1932	2152.5	1286.15
851.6142	993.1945	2164.05	1299.6
851.7593	995.1951	2151.6	1285.75
851.9045	997.1951	2147.95	1276.4
852.0496	999.1943	2141.8	1278.7
852.1947	1001.1928	2152.25	1284.35
852.3398	1003.1906	2159.6	1294.75
852.4849	1005.1877	2187.3	1319.95
852.63	1007.1841	2240.55	1374.05
852.7751	1009.1798	2263.95	1399.5
852.9202	1011.1748	2244	1377.3
853.0653	1013.1691	2198.25	1331.1
853.2104	1015.1627	2169.25	1302.5
853.3555	1017.1556	2111.15	1243.9
853.5006	1019.1477	2084.55	1217.5
853.6457	1021.1392	2054.75	1189.1
853.7908	1023.1299	2041	1176.35
853.9359	1025.12	2045.25	1176.45
854.081	1027.1093	2054.95	1187.95
854.2261	1029.0979	2079.6	1213.8
854.3712	1031.0859	2115.9	1249.4
854.5163	1033.0731	2130	1261.05
854.6613	1035.0596	2138.3	1268.9
854.8064	1037.0454	2130.75	1264.35
854.9515	1039.0304	2116.4	1248.05
855.0965	1041.0148	2086.7	1220.6
855.2416	1042.9985	2049.2	1181.55
855.3867	1044.9814	2025.35	1156.65
855.5317	1046.9636	2010.65	1142.15
855.6768	1048.9452	2018.2	1149.8
855.8219	1050.926	2047.75	1182.25
855.9669	1052.9061	2085.8	1217.65
856.112	1054.8855	2095.95	1226.9
856.257	1056.8642	2083	1214.9
856.4021	1058.8421	2085.75	1212.3
856.5471	1060.8194	2069.45	1200.25
856.6921	1062.7959	2078.35	1208.3
856.8372	1064.7717	2067.55	1197.35
856.9822	1066.7469	2073	1201.3
857.1272	1068.7213	2061	1189.2
857.2723	1070.695	2075.15	1205.5
857.4173	1072.6679	2114.7	1243.05
857.5623	1074.6402	2154.5	1285.55
857.7073	1076.6117	2179.85	1304.8
857.8523	1078.5826	2161.9	1291.6
857.9973	1080.5527	2112.7	1240.95
858.1423	1082.5221	2048.45	1178.55
858.2873	1084.4908	2001.95	1132.15
858.4323	1086.4587	1973.4	1102
858.5773	1088.426	1961.7	1089.55
858.7223	1090.3925	1943.4	1067.9
858.8673	1092.3584	1951.35	1080.85
859.0123	1094.3235	1983.85	1114.65
859.1573	1096.2879	1997.65	1127.85
859.3022	1098.2515	2024.45	1154.1
859.4472	1100.2145	2057.15	1188.2
859.5922	1102.1767	2116.95	1243.6
859.7371	1104.1382	2178.85	1306.2
859.8821	1106.099	2259.35	1384.8
860.027	1108.0591	2324.35	1453.9
860.172	1110.0185	2392.55	1519.4
860.3169	1111.9771	2445	1572.95
860.4619	1113.9351	2518.65	1647.55
860.6068	1115.8923	2622.05	1751.7
860.7517	1117.8488	2722.85	1849.45
860.8967	1119.8045	2663.75	1792.4
861.0416	1121.7596	2526.8	1653.65
861.1865	1123.7139	2328.4	1457.75
861.3314	1125.6675	2220.65	1348.65
861.4763	1127.6204	2204.15	1332.65
861.6212	1129.5726	2245.15	1370.35
861.7661	1131.524	2271.75	1400.6
861.911	1133.4748	2208.35	1335.75
862.0559	1135.4248	2099.25	1226.2
862.2008	1137.3741	2018.9	1146.05
862.3457	1139.3226	1978.05	1102.55
862.4905	1141.2705	1960.1	1085.55
862.6354	1143.2176	1983.6	1103.9
862.7803	1145.164	2006.7	1132.45
862.9251	1147.1097	2009.9	1136.7
863.07	1149.0546	1992.8	1117.05
863.2148	1150.9989	1948.45	1077.05
863.3597	1152.9424	1900.95	1028.5
863.5045	1154.8852	1880.7	1008.1
863.6493	1156.8272	1870.15	996.65
863.7942	1158.7686	1882.05	1000.4
863.939	1160.7092	1869.45	996.1
864.0838	1162.6491	1868.2	992.2
864.2286	1164.5883	1886.25	1012.7
864.3734	1166.5267	1914.65	1039.25
864.5182	1168.4644	1943.3	1068.95
864.663	1170.4014	1982.1	1102.95
864.8078	1172.3377	2031.85	1160.1
864.9526	1174.2732	2104.1	1230.65
865.0974	1176.2081	2226.9	1354.75
865.2421	1178.1421	2409	1528.95
865.3869	1180.0755	2609.5	1738.05
865.5317	1182.0082	2752.1	1877.2
865.6764	1183.9401	2763.35	1888.2
865.8212	1185.8713	2624.05	1749.25
865.9659	1187.8017	2429.85	1553.05
866.1106	1189.7315	2246.8	1372.35
866.2554	1191.6605	2136.5	1233.35
866.4001	1193.5888	2026.1	1149.65
866.5448	1195.5163	1981.15	1104.5
866.6895	1197.4432	1950.5	1074.3
866.8342	1199.3693	1923.45	1047.95
866.9789	1201.2947	1904.4	1020.8
867.1236	1203.2193	1879.2	1001.95
867.2683	1205.1432	1866.8	988.7
867.413	1207.0664	1873.15	995.3
867.5576	1208.9889	1868.1	988.45
867.7023	1210.9106	1859.55	983.3
867.847	1212.8316	1873.45	998.45
867.9916	1214.7519	1890.95	1007.75
868.1363	1216.6715	1896.95	1022.55
868.2809	1218.5903	1918.45	1043.6
868.4255	1220.5084	1931.45	1055.15
868.5701	1222.4257	1954.7	1081.6
868.7148	1224.3424	1961.4	1085.15
868.8594	1226.2583	2002.2	1119.25
869.004	1228.1735	2026.2	1148.65
869.1486	1230.0879	2093.4	1216.15
869.2932	1232.0016	2137.05	1258.9
869.4377	1233.9146	2185	1306.15
869.5823	1235.8269	2211.95	1335.55
869.7269	1237.7384	2218.85	1343.6
869.8715	1239.6492	2216.85	1341.9
870.016	1241.5592	2222.7	1346.65
870.1606	1243.4686	2277.75	1401.6
870.3051	1245.3772	2382.6	1505.15
870.4496	1247.285	2507.1	1626.85
870.5941	1249.1922	2634.25	1757.75
870.7387	1251.0986	2744.1	1871.6
870.8832	1253.0042	2839.45	1962.6
871.0277	1254.9092	2964.95	2087.2
871.1722	1256.8134	3115.3	2236.7
871.3167	1258.7169	3265.75	2388.75
871.4611	1260.6196	3399.1	2521.9
871.6056	1262.5216	3501.55	2620.6
871.7501	1264.4229	3491.8	2614.6
871.8945	1266.3234	3460.7	2582.6
872.039	1268.2232	3355.3	2476.2
872.1834	1270.1223	3269.35	2390
872.3278	1272.0207	3188.15	2309.7
872.4723	1273.9183	3156	2271.6
872.6167	1275.8151	3142.75	2265.15
872.7611	1277.7113	3175.9	2297.35
872.9055	1279.6067	3297.4	2419
873.0499	1281.5014	3509.9	2627.45
873.1943	1283.3953	3794.2	2914.55
873.3386	1285.2885	4118.05	3240.6
873.483	1287.181	4405.7	3526.55
873.6274	1289.0727	4545.55	3667.65
873.7717	1290.9637	4468.75	3587.2
873.9161	1292.854	4286.8	3408.4
874.0604	1294.7435	4060.15	3182.8
874.2047	1296.6323	3817.55	2939.75
874.349	1298.5204	3618.95	2739.2
874.4933	1300.4077	3474.7	2595.65
874.6376	1302.2943	3364.55	2487.05
874.7819	1304.1802	3309.55	2432.3
874.9262	1306.0653	3243.4	2360.7
875.0705	1307.9497	3202.8	2324.8
875.2147	1309.8333	3172.9	2294.35
875.359	1311.7162	3127.3	2247.7
875.5032	1313.5984	3095.85	2213.5
875.6475	1315.4798	3083.9	2188.9
875.7917	1317.3605	3093.85	2199.6
875.9359	1319.2405	3121.45	2241.05
876.0801	1321.1197	3130.1	2248.2
876.2243	1322.9982	3099.3	2215.85
876.3685	1324.876	3030.75	2153.3
876.5127	1326.753	2892.25	2013.55
876.6569	1328.6293	2760.25	1878.5
876.801	1330.5048	2605.5	1721.55
876.9452	1332.3796	2458.55	1580.3
877.0893	1334.2537	2363.5	1458
877.2335	1336.127	2268.9	1389.55
877.3776	1337.9996	2210.6	1330.15
877.5217	1339.8714	2179.05	1298.4
877.6658	1341.7426	2177.35	1254.35
877.8099	1343.6129	2114.3	1233.9
877.954	1345.4826	2087.4	1208.95
878.0981	1347.3515	2053	1169.05
878.2422	1349.2196	2036	1153.8
878.3862	1351.087	2011.85	1130.7
878.5303	1352.9537	2011.85	1130.2
878.6743	1354.8197	2008.75	1131.25
878.8184	1356.6849	2019.45	1139.35
878.9624	1358.5493	2044.75	1164.45
879.1064	1360.4131	2077.75	1198.85
879.2504	1362.276	2138.2	1259.15
879.3944	1364.1383	2192.05	1312.7
879.5384	1365.9998	2225.05	1339.85
879.6823	1367.8606	2215.4	1335.1
879.8263	1369.7206	2189.6	1308.6
879.9702	1371.5799	2211.9	1329.45
880.1142	1373.4384	2206.3	1325.2
880.2581	1375.2962	2164.25	1280.6
880.402	1377.1533	2084.1	1202.6
880.5459	1379.0096	2013.6	1132.6
880.6898	1380.8652	1958.55	1077.8
880.8337	1382.7201	1914.65	1035.35
880.9776	1384.5742	1882.35	1001.7
881.1215	1386.4275	1843.65	961.7
881.2653	1388.2802	1817.65	938.65
881.4092	1390.132	1795.05	915.95
881.553	1391.9832	1783.55	900.1
881.6968	1393.8336	1764.35	882.95
881.8406	1395.6832	1768.6	887.05
881.9844	1397.5322	1761.4	883.25
882.1282	1399.3803	1746.15	860.5
882.272	1401.2278	1730.9	850.4
882.4158	1403.0745	1710.3	828.3
882.5595	1404.9204	1697.05	816.95
882.7033	1406.7656	1697.75	817.8
882.847	1408.6101	1688.05	806.3
882.9908	1410.4538	1677.2	795.8
883.1345	1412.2968	1684.65	803.1
883.2782	1414.139	1684.25	803.25
883.4219	1415.9805	1690.9	810.9
883.5656	1417.8213	1711.05	822.45
883.7092	1419.6613	1739.1	858.95
883.8529	1421.5006	1778.3	895.05
883.9965	1423.3391	1845.3	962.25
884.1402	1425.1769	1916.2	1031.75
884.2838	1427.0139	2025.3	1144.85
884.4274	1428.8502	2171.6	1289.75
884.571	1430.6858	2281.65	1399.95
884.7146	1432.5206	2327.8	1444.35
884.8582	1434.3547	2319.65	1437.45
885.0018	1436.188	2299.25	1417.25
885.1453	1438.0206	2252.25	1368.2
885.2889	1439.8524	2245.9	1363.3
885.4324	1441.6835	2245.95	1364.25
885.5759	1443.5139	2248.65	1365.5
885.7194	1445.3435	2237.95	1357.5
885.8629	1447.1724	2262.35	1380.9
886.0064	1449.0005	2246.85	1365.8
886.1499	1450.8279	2236.85	1354.15
886.2933	1452.6545	2244.8	1363.55
886.4368	1454.4804	2232.8	1351
886.5802	1456.3056	2219	1328.75
886.7237	1458.13	2188.15	1308.7
886.8671	1459.9536	2151	1268.45
887.0105	1461.7766	2096.35	1214.55
887.1539	1463.5987	2039.1	1155.35
887.2972	1465.4202	1975.5	1091.9
887.4406	1467.2409	1925.1	1041.3
887.584	1469.0608	1871.35	990.5
887.7273	1470.88	1819	936
887.8706	1472.6984	1778.55	896.35
888.0139	1474.5161	1747.7	861.15
888.1572	1476.3331	1716.95	836.5
888.3005	1478.1493	1713.05	828.95
888.4438	1479.9648	1696	813
888.5871	1481.7795	1691.15	808.05
888.7303	1483.5935	1695.3	812.8
888.8736	1485.4067	1704.2	822.15
889.0168	1487.2192	1707.75	824.75
889.16	1489.031	1700.1	816.25
889.3032	1490.842	1696.9	814.1
889.4464	1492.6522	1710.75	828.75
889.5896	1494.4618	1703.8	818.8
889.7327	1496.2705	1693.35	812.15
889.8759	1498.0785	1695.3	810.75
890.019	1499.8858	1676.3	793.65
890.1622	1501.6924	1675.05	793.8
890.3053	1503.4981	1671.35	788.3
890.4484	1505.3032	1666.65	783.9
890.5914	1507.1075	1647.75	763.55
890.7345	1508.911	1644.55	762.35
890.8776	1510.7138	1641.55	756.35
891.0206	1512.5159	1624.1	741.9
891.1637	1514.3172	1617.7	734.5
891.3067	1516.1178	1602.2	722.75
891.4497	1517.9176	1597.35	710.6
891.5927	1519.7166	1591.95	710.9
891.7357	1521.515	1586.45	695.15
891.8786	1523.3126	1580.45	697.55
892.0216	1525.1094	1574.35	689.2
892.1645	1526.9055	1562.55	681.75
892.3074	1528.7008	1558.15	674.4
892.4503	1530.4954	1557.85	668.8
892.5932	1532.2893	1548	664.4
892.7361	1534.0824	1557.05	666.65
892.879	1535.8747	1550.5	665.85
893.0218	1537.6663	1546.1	661.15
893.1647	1539.4572	1541.05	656.8
893.3075	1541.2473	1546.5	662
893.4503	1543.0367	1543.5	662.35
893.5931	1544.8253	1550.3	661.1
893.7359	1546.6132	1559.25	673.7
893.8787	1548.4003	1568.25	673.8
894.0214	1550.1867	1585.7	694.3
894.1642	1551.9723	1591.3	700.4
894.3069	1553.7572	1596.35	711.45
894.4496	1555.5414	1619.45	736.35
894.5923	1557.3247	1666.7	781.9
894.735	1559.1074	1707.4	824.05
894.8777	1560.8893	1769.5	887.5
895.0204	1562.6705	1838.45	954.55
895.163	1564.4509	1890.7	1006.45
895.3056	1566.2305	1909.9	1025
895.4482	1568.0094	1917.65	1037.15
895.5908	1569.7876	1921.9	1038.7
895.7334	1571.565	1908.6	1025.2
895.876	1573.3417	1919.8	1036
896.0186	1575.1176	1926.8	1042
896.1611	1576.8928	1949	1065.25
896.3036	1578.6672	1986.8	1103.85
896.4461	1580.4409	2025.85	1143.9
896.5886	1582.2138	2092.45	1208.1
896.7311	1583.986	2165.5	1282.6
896.8736	1585.7575	2230.1	1348.45
897.0161	1587.5282	2279.4	1396.15
897.1585	1589.2981	2318.15	1436.45
897.3009	1591.0673	2354.45	1470.25
897.4433	1592.8358	2368.5	1485.15
897.5857	1594.6035	2363	1478.1
897.7281	1596.3704	2350.25	1466.25
897.8705	1598.1366	2320.6	1436.6
898.0128	1599.9021	2263.6	1379
898.1551	1601.6668	2215.25	1328.35
898.2975	1603.4308	2180.8	1295.7
898.4398	1605.194	2169.55	1281.1
898.5821	1606.9564	2205.35	1321.15
898.7243	1608.7182	2275.3	1387.85
898.8666	1610.4791	2396.25	1511.75
899.0088	1612.2394	2556.5	1672.2
899.1511	1613.9988	2736.65	1852.05
899.2933	1615.7576	2905.55	2022.85
899.4355	1617.5156	3004.4	2115.55
899.5776	1619.2728	2983.55	2097.55
899.7198	1621.0293	2878.95	1995.75
899.862	1622.785	2693.45	1804.65
900.0041	1624.54	2485.6	1598.75
900.1462	1626.2942	2283.55	1399.9
900.2883	1628.0477	2119.35	1231.3
900.4304	1629.8005	1976.5	1086.45
900.5725	1631.5525	1857.5	973.65
900.7145	1633.3037	1770.55	885.2
900.8566	1635.0542	1706.85	821.45
900.9986	1636.804	1640.55	755.8
901.1406	1638.553	1677.15	727.9
901.2826	1640.3013	1576.1	690.85
901.4245	1642.0488	1541.75	657
901.5665	1643.7955	1523.05	641.3
901.7085	1645.5416	1503.55	620.65
901.8504	1647.2868	1489.3	604.95
901.9923	1649.0313	1471.5	588
902.1342	1650.7751	1474.45	586.25
902.2761	1652.5181	1461	578.3
902.4179	1654.2604	1466.1	581.4
902.5598	1656.0019	1476.3	592.5
902.7016	1657.7427	1486.15	601.5
902.8434	1659.4828	1509.65	624.95
902.9852	1661.222	1554.35	667.95
903.127	1662.9606	1608.1	723.45
903.2687	1664.6984	1669.9	784.5
903.4105	1666.4354	1709.65	824.35
903.5522	1668.1717	1695.2	811.25
903.6939	1669.9072	1636.9	753.1
903.8356	1671.642	1573.6	685.75
903.9773	1673.3761	1501.9	617.6
904.119	1675.1094	1441.75	556.8
904.2606	1676.8419	1407.75	520.25
904.4022	1678.5737	1378.6	493.8
904.5439	1680.3048	1365.65	481.85
904.6855	1682.0351	1355.75	472.6
904.827	1683.7646	1341.25	455.45
904.9686	1685.4934	1334.05	450.25
905.1101	1687.2215	1327.25	442.7
905.2517	1688.9488	1323.7	439.75
905.3932	1690.6754	1319.8	434.55
905.5347	1692.4012	1315.9	434
905.6761	1694.1263	1309.2	423.55
905.8176	1695.8506	1310.85	427
905.9591	1697.5742	1301.6	417
906.1005	1699.297	1303.85	419
906.2419	1701.0191	1296.1	411.75
906.3833	1702.7404	1292.5	408.1
906.5246	1704.461	1291.5	403.3
906.666	1706.1808	1288.95	401.4
906.8073	1707.8999	1282.65	396.5
906.9487	1709.6182	1279.5	391.9
907.09	1711.3358	1287.75	402.95
907.2313	1713.0527	1276.9	392.6
907.3725	1714.7688	1275.95	385.7
907.5138	1716.4841	1272.5	385.1
907.655	1718.1987	1275.8	385.95
907.7962	1719.9126	1269.2	385.6
907.9374	1721.6257	1270.65	381.85
908.0786	1723.338	1261.3	373.8
908.2198	1725.0496	1263.6	377.35
908.3609	1726.7605	1261.9	375.8
908.502	1728.4706	1269.5	384.7
908.6431	1730.18	1264	375.9
908.7842	1731.8886	1256.95	372.3
908.9253	1733.5964	1272.6	365.9
909.0664	1735.3036	1255.4	367.15
909.2074	1737.0099	1252.6	367.2
909.3484	1738.7156	1253.3	366.1
909.4894	1740.4204	1254	366.15
909.6304	1742.1246	1254.9	368.3
909.7714	1743.8279	1240.65	355.75
909.9123	1745.5306	1248.5	361.65
910.0532	1747.2325	1251.6	365.25
910.1941	1748.9336	1245.05	361.95
910.335	1750.634	1244.8	356.2
910.4759	1752.3336	1241.2	357.55
910.6168	1754.0325	1240.75	358
910.7576	1755.7307	1244.05	358.8
910.8984	1757.4281	1241.05	354.15
911.0392	1759.1247	1244.05	351.6
911.18	1760.8206	1240.25	352.2
911.3208	1762.5158	1238.5	349.8
911.4615	1764.2102	1233.95	350.15
911.6022	1765.9039	1234.15	348.5
911.7429	1767.5968	1233.4	345.6
911.8836	1769.289	1226.3	340.55
912.0243	1770.9804	1227.05	340.55
912.1649	1772.6711	1232.15	346.15
912.3056	1774.361	1225.65	340.85
912.4462	1776.0502	1234.6	350.25
912.5868	1777.7386	1234.5	347.3
912.7274	1779.4263	1224.55	337.6
912.8679	1781.1132	1234.35	347.55
913.0084	1782.7994	1228.65	340.6
913.149	1784.4849	1226.55	338.85
913.2895	1786.1696	1237.3	344.4
913.4299	1787.8535	1223.5	339.45
913.5704	1789.5367	1217.9	331.15
913.7108	1791.2192	1224.25	338.9
913.8513	1792.9009	1237	335.15
913.9917	1794.5818	1222.45	335.2
914.132	1796.2621	1217.6	334.65
914.2724	1797.9415	1216.35	330.15
914.4128	1799.6202	1216.95	332.2
914.5531	1801.2982	1211.9	326
914.6934	1802.9755	1214.85	328.25
914.8337	1804.6519	1215.2	329.9
914.9739	1806.3277	1212.1	324.45
915.1142	1808.0027	1204.55	320.55
915.2544	1809.6769	1211.5	323.8
915.3946	1811.3504	1211.5	322.55
915.5348	1813.0231	1207.7	320.9
915.675	1814.6951	1207.25	321
915.8151	1816.3664	1212.6	325.1
915.9553	1818.0369	1204	320.05
916.0954	1819.7067	1199.6	315.2
916.2355	1821.3757	1206.5	320.5
916.3755	1823.044	1203.15	317.7
916.5156	1824.7115	1205.55	319.6
916.6556	1826.3783	1196.85	311.7
916.7956	1828.0443	1196.45	309.6
916.9356	1829.7096	1203.3	316.4
917.0756	1831.3741	1201.65	312.4
917.2155	1833.0379	1201.65	317.65
917.3555	1834.701	1201.25	315.3
917.4954	1836.3633	1197.05	307.1
917.6353	1838.0248	1195.7	309.1
917.7751	1839.6856	1197.1	312.6
917.915	1841.3457	1193.95	307.65
918.0548	1843.005	1192.8	305.85
918.1946	1844.6636	1192.85	308.15
918.3344	1846.3214	1197.45	311.25
918.4742	1847.9785	1193.65	307.55
918.6139	1849.6349	1196.3	308.7
918.7537	1851.2904	1200.3	305.4
918.8934	1852.9453	1193.7	307.75
919.0331	1854.5994	1191.3	303.8
919.1727	1856.2528	1196.2	305.3
919.3124	1857.9054	1194.85	307.7
919.452	1859.5572	1185.8	301.45
919.5916	1861.2083	1193.05	306.25
919.7312	1862.8587	1186.05	302.15
919.8708	1864.5084	1188.45	302.25
920.0103	1866.1572	1188.7	304.3
920.1498	1867.8054	1188.5	302.05
920.2893	1869.4528	1180.3	293.8
920.4288	1871.0994	1187.4	300.9
920.5683	1872.7453	1182.9	296.5
920.7077	1874.3905	1188.2	295.3
920.8471	1876.0349	1181.5	295.6
920.9865	1877.6786	1178.35	290.65
921.1259	1879.3215	1181.2	296.35
921.2653	1880.9637	1182	296.1
921.4046	1882.6051	1179.55	293.6
921.5439	1884.2458	1174.05	285.7
921.6832	1885.8858	1173.15	286.75
921.8225	1887.525	1181.3	296.3
921.9617	1889.1634	1175.85	291.85
922.101	1890.8011	1174.05	287.25
922.2402	1892.4381	1173.05	288.9
922.3794	1894.0743	1170.05	285.15
922.5185	1895.7098	1173.2	289.75
922.6577	1897.3446	1169.95	283.75
922.7968	1898.9786	1175.1	283.5
922.9359	1900.6118	1175.3	290.5
923.075	1902.2443	1170.1	282.2
923.214	1903.8761	1164.45	278.65
923.3531	1905.5071	1165.55	276.7
923.4921	1907.1374	1168.7	283.25
923.6311	1908.7669	1166.05	279.9
923.77	1910.3957	1167.45	282.25
923.909	1912.0237	1168.6	282.65
924.0479	1913.651	1160.45	274.9
924.1868	1915.2776	1162.2	276.2
924.3257	1916.9034	1161.6	276.5
924.4646	1918.5285	1160.35	276.65
924.6034	1920.1528	1159.45	273.8
924.7422	1921.7764	1156.4	271.45
924.881	1923.3992	1157.7	273.1
925.0198	1925.0213	1155.95	270.75
925.1586	1926.6427	1153.2	269.5
925.2973	1928.2633	1239.1	266.25
925.436	1929.8832	1152.7	265.9
925.5747	1931.5023	1152.95	267.3
925.7134	1933.1207	1153.15	266.4
925.852	1934.7383	1153.15	267.45
925.9906	1936.3552	1156	271.1
926.1292	1937.9714	1147.85	262.15
926.2678	1939.5868	1149.45	260.25
926.4064	1941.2015	1150.35	265.35
926.5449	1942.8154	1148.85	262.2
926.6834	1944.4286	1149.25	262.1
926.8219	1946.041	1165.45	257.95
926.9604	1947.6528	1152.75	262.2
927.0988	1949.2637	1142.7	255.8
927.2372	1950.8739	1145.95	257.6
927.3756	1952.4834	1144.55	258.1
927.514	1954.0921	1143.3	257.2
927.6523	1955.7001	1147.4	257.4
927.7907	1957.3074	1137.35	251.6
927.929	1958.9139	1142.4	256.85
928.0673	1960.5197	1137.35	249.15
928.2055	1962.1247	1138.1	251.1
928.3438	1963.729	1132.55	248.85
928.482	1965.3325	1158.2	248
928.6202	1966.9353	1135.7	250.3
928.7584	1968.5374	1138.9	248.6
928.8965	1970.1387	1134.9	249.1
929.0346	1971.7393	1137	250.7
929.1727	1973.3392	1134.8	248.45
929.3108	1974.9383	1129.5	240.85
929.4489	1976.5366	1125.15	239
929.5869	1978.1342	1136.65	250.6
929.7249	1979.7311	1129.7	242.5
929.8629	1981.3273	1131.15	244.1
930.0009	1982.9227	1133	244.8
930.1388	1984.5173	1128.5	242.8
930.2767	1986.1112	1124.2	238.4
930.4146	1987.7044	1123.15	237.95
930.5525	1989.2968	1129.8	241.1
930.6904	1990.8885	1127.1	238.1
930.8282	1992.4795	1130.8	242.75
930.966	1994.0697	1131.4	243.55
931.1038	1995.6592	1129.05	243.1
931.2415	1997.2479	1121.05	234.3
931.3793	1998.8359	1117.7	233.15
931.517	2000.4232	1120.15	235.15
931.6547	2002.0097	1121.55	236.35
931.7923	2003.5955	1120.7	232.95
931.93	2005.1805	1124.3	235.5
932.0676	2006.7648	1114.1	228.7
932.2052	2008.3484	1118.7	230.35
932.3427	2009.9312	1121	232.8
932.4803	2011.5133	1117.7	232.15
932.6178	2013.0946	1120.9	233.8
932.7553	2014.6752	1119.5	234.55
932.8928	2016.2551	1116.3	229.05
933.0302	2017.8342	1114.55	228.4
933.1676	2019.4126	1111.5	225.5
933.305	2020.9902	1115	228.3
933.4424	2022.5672	1117.35	229.15
933.5798	2024.1433	1119.2	228.5
933.7171	2025.7188	1112	226.85
933.8544	2027.2935	1117.6	229.85
933.9917	2028.8674	1112.65	226.05
934.129	2030.4406	1109.4	224.05
934.2662	2032.0131	1106	220.35
934.4034	2033.5849	1113.2	221.4
934.5406	2035.1559	1109.8	222.75
934.6778	2036.7261	1110.7	223.05
934.8149	2038.2957	1106	220.1
934.952	2039.8645	1109.3	224
935.0891	2041.4325	1109.4	220.8
935.2262	2042.9998	1107.3	222.35
935.3632	2044.5664	1110.5	220.35
935.5002	2046.1323	1105.6	222.1
935.6372	2047.6974	1110.35	226.4
935.7742	2049.2617	1105.1	217.1
935.9111	2050.8254	1143.55	223.85
936.048	2052.3883	1101.65	214.25
936.1849	2053.9504	1100.65	215.15
936.3218	2055.5118	1109.6	222.4
936.4586	2057.0725	1108.95	217.55
936.5955	2058.6325	1106.9	220.35
936.7323	2060.1917	1105	219.1
936.869	2061.7502	1108.05	219.15
937.0058	2063.3079	1102.15	214.7
937.1425	2064.8649	1105.45	215.95
937.2792	2066.4212	1106.55	220.1
937.4159	2067.9767	1099.85	214.35
937.5525	2069.5315	1099.65	212.6
937.6891	2071.0856	1098.05	210.15
937.8257	2072.6389	1099.15	211.65
937.9623	2074.1915	1097.35	212.95
938.0989	2075.7433	1106.95	218.3
938.2354	2077.2945	1098.2	213.5
938.3719	2078.8448	1096.4	209.15
938.5084	2080.3945	1095.15	209.05
938.6448	2081.9434	1097.45	210.25
938.7812	2083.4916	1097.05	209.2
938.9176	2085.039	1098.05	211.75
939.054	2086.5857	1092.8	205.25
939.1903	2088.1317	1092.2	205.2
939.3267	2089.677	1099.5	212.7
939.463	2091.2215	1094.35	208.1
939.5992	2092.7652	1097.95	210.45
939.7355	2094.3083	1091.05	205.3
939.8717	2095.8506	1093	208.3
940.0079	2097.3921	1091.2	206.85
940.1441	2098.933	1096.65	209.95
940.2802	2100.4731	1091.75	206.15
940.4163	2102.0124	1098.4	204.75
940.5524	2103.5511	1090.15	204.65
940.6885	2105.089	1094.45	207.7
940.8245	2106.6261	1095.95	210.2
940.9606	2108.1626	1091.7	204.95
941.0965	2109.6983	1120.1	209.8
941.2325	2111.2332	1092.2	206.75
941.3684	2112.7675	1083.5	196.95
941.5044	2114.301	1096.45	207.9
941.6403	2115.8337	1095.4	206.15
941.7761	2117.3657	1088.55	201.4
941.912	2118.897	1088.75	200.7
942.0478	2120.4276	1096.45	204.8
942.1835	2121.9575	1086.15	200.1
942.3193	2123.4866	1098.15	200
942.455	2125.0149	1085.8	198.4
942.5907	2126.5426	1087.45	201.55
942.7264	2128.0695	1086.9	196.7
942.8621	2129.5956	1088.6	203
942.9977	2131.1211	1088.7	198.25
943.1333	2132.6458	1082	195.65
943.2689	2134.1698	1084.45	198.5
943.4044	2135.693	1085.25	196.75
943.54	2137.2155	1086.55	199.1
943.6755	2138.7373	1089.25	203.4
943.8109	2140.2584	1081.5	196
943.9464	2141.7787	1087.4	194.4
944.0818	2143.2983	1084.1	198.3
944.2172	2144.8171	1080.9	195.1
944.3526	2146.3353	1084	195.4
944.4879	2147.8527	1080.1	195.55
944.6232	2149.3693	1082.2	193.9
944.7585	2150.8853	1077.2	190.55
944.8938	2152.4005	1082.75	198
945.029	2153.9149	1078.45	194.25
945.1642	2155.4287	1077.3	192.75
945.2994	2156.9417	1079.2	193.75
945.4346	2158.454	1080.2	193.2
945.5697	2159.9655	1078.05	189.25
945.7048	2161.4764	1080.5	194.05
945.8399	2162.9865	1074.95	187.3
945.9749	2164.4958	1075.05	187.15
946.1099	2166.0045	1079.45	191.5
946.2449	2167.5124	1075.9	189.25
946.3799	2169.0195	1079.4	191.65
946.5148	2170.526	1083.35	196.65
946.6498	2172.0317	1072.25	185.75
946.7846	2173.5367	1077.95	192.45
946.9195	2175.0409	1071.5	186.15
947.0543	2176.5445	1073.5	187
947.1891	2178.0473	1075	190.65
947.3239	2179.5494	1076.8	187
947.4587	2181.0507	1071.1	187.45
947.5934	2182.5513	1070.8	183.7
947.7281	2184.0512	1073.6	187.1
947.8628	2185.5504	1069.7	183.55
947.9974	2187.0488	1071.4	185.95
948.132	2188.5465	1074.55	188.15
948.2666	2190.0435	1065.7	178.55
948.4012	2191.5397	1069.85	183.45
948.5357	2193.0353	1069.2	185.05
948.6702	2194.5301	1068.85	180.45
948.8047	2196.0241	1068.9	181.1
948.9392	2197.5175	1067.2	181.2
949.0736	2199.0101	1071.35	181.2
949.208	2200.502	1064.85	182.45
949.3424	2201.9931	1066.35	180.6
949.4767	2203.4835	1071.45	183.9
949.611	2204.9733	1072.15	179.7
949.7453	2206.4622	1061.45	175
949.8796	2207.9505	1071.65	183.3
950.0138	2209.438	1061.35	176.45
950.148	2210.9248	1064.75	176.55
950.2822	2212.4109	1063.25	178.65
950.4164	2213.8962	1065.05	176.65
950.5505	2215.3809	1064.35	174.25
950.6846	2216.8648	1059.05	173.3
950.8186	2218.3479	1064.2	175
950.9527	2219.8304	1062.7	172.85
951.0867	2221.3121	1060.45	172.45
951.2207	2222.7931	1062.25	179
951.3546	2224.2733	1058.65	173.25
951.4886	2225.7529	1056.05	170.2
951.6225	2227.2317	1059	169.45
951.7563	2228.7098	1057.25	170.65
951.8902	2230.1872	1054.2	167.5
952.024	2231.6638	1051.15	163.15
952.1578	2233.1397	1061.6	167.85
952.2916	2234.6149	1050	164.7
952.4253	2236.0894	1056.5	168
952.559	2237.5632	1062.35	167.7
952.6927	2239.0362	1053.7	167.35
952.8263	2240.5085	1051.7	165
952.9599	2241.9801	1054.35	168.8
953.0935	2243.4509	1051	163.9
953.2271	2244.921	1049.3	163
953.3606	2246.3904	1050.25	160.8
953.4941	2247.8591	1048.7	163.9
953.6276	2249.3271	1047.5	163.05
953.7611	2250.7943	1048.45	161.9
953.8945	2252.2608	1045.4	160.4
954.0279	2253.7266	1047.45	161.95
954.1612	2255.1917	1050.25	164.4
954.2946	2256.656	1049.05	161.95
954.4279	2258.1197	1044.05	158.2
954.5612	2259.5826	1048.8	158.75
954.6944	2261.0447	1047.45	160.35
954.8276	2262.5062	1048.65	159.35
954.9608	2263.9669	1047.05	159.4
955.094	2265.4269	1044.3	159.55
955.2271	2266.8862	1043.3	156.65
955.3602	2268.3448	1042.95	157.05
955.4933	2269.8026	1045.95	158.55
955.6264	2271.2598	1040.85	155.2
955.7594	2272.7162	1040.2	154.8
955.8924	2274.1719	1044.9	156.15
956.0253	2275.6268	1041.15	155.85
956.1583	2277.0811	1045.85	159.55
956.2912	2278.5346	1040.3	156.45
956.4241	2279.9874	1040.45	154.95
956.5569	2281.4395	1041.85	156.45
956.6897	2282.8908	1043.9	153.85
956.8225	2284.3414	1044.35	157.75
956.9553	2285.7914	1038.4	153.3
957.088	2287.2406	1042.45	153.35
957.2207	2288.689	1038.3	152.85
957.3534	2290.1368	1043.05	158.75
957.486	2291.5838	1043.5	156.85
957.6186	2293.0302	1038.95	151.4
957.7512	2294.4758	1035.95	150.6
957.8838	2295.9206	1042.4	153
958.0163	2297.3648	1037.65	150.4
958.1488	2298.8082	1038.4	152.1
958.2813	2300.251	1035.7	150.65
958.4137	2301.693	1033.55	143.95
958.5461	2303.1343	1035.4	148.85
958.6785	2304.5748	1035.7	148.8
958.8108	2306.0147	1040.5	153.75
958.9432	2307.4538	1037.65	146.85
959.0754	2308.8922	1035.6	151.9
959.2077	2310.3299	1035.15	149.3
959.3399	2311.7669	1032.35	148.2
959.4721	2313.2031	1033.2	150.15
959.6043	2314.6387	1036.1	150
959.7365	2316.0735	1034.3	148.15
959.8686	2317.5076	1034.25	148
960.0006	2318.941	1034.1	147.65
960.1327	2320.3737	1035.6	149.35
960.2647	2321.8056	1036	147.7
960.3967	2323.2369	1036.45	150.6
960.5287	2324.6674	1040	152.45
960.6606	2326.0972	1038.75	151.95
960.7925	2327.5263	1038.8	154.05
960.9244	2328.9547	1043	155.65
961.0562	2330.3823	1038.3	151.8
961.1881	2331.8092	1038	148.5
961.3198	2333.2355	1030.15	144.7
961.4516	2334.661	1030.45	144
961.5833	2336.0858	1030.1	142.5
961.715	2337.5098	1028.7	142.05
961.8467	2338.9332	1030.35	142.25
961.9783	2340.3558	1032.15	142.85
962.1099	2341.7778	1025.75	138.6
962.2415	2343.199	1031.1	142.25
962.373	2344.6195	1025.85	137.85
962.5045	2346.0393	1023.8	139.95
962.636	2347.4583	1023.5	135.7
962.7675	2348.8767	1025.9	138.9
962.8989	2350.2943	1026.9	138.55
963.0303	2351.7113	1021.5	133.8
963.1617	2353.1275	1023.2	135.6
963.293	2354.543	1049.8	139.95
963.4243	2355.9578	1025.55	138.15
963.5556	2357.3718	1021.2	134.65
963.6868	2358.7852	1025.75	134.65
963.818	2360.1978	1023.65	136.05
963.9492	2361.6098	1022.55	136.85
964.0803	2363.021	1027.45	137.5
964.2114	2364.4315	1022.95	137.75
964.3425	2365.8413	1021.6	132.35
964.4736	2367.2504	1024.2	136.9
964.6046	2368.6587	1025.35	139
964.7356	2370.0664	1021.8	134.6
964.8666	2371.4733	1020.1	131.5
964.9975	2372.8795	1016.15	130.85
965.1284	2374.285	1019.75	133.25
965.2593	2375.6899	1018.95	134.6
965.3901	2377.0939	1019.4	133.55
965.5209	2378.4973	1018.3	131.55
965.6517	2379.9	1017.05	128.7
965.7825	2381.3019	1019.55	132.7
965.9132	2382.7032	1019.45	133.7
966.0439	2384.1037	1015.3	129.15
966.1745	2385.5035	1018.65	132.25
966.3051	2386.9027	1016.45	128.7
966.4357	2388.3011	1016.25	125.45
966.5663	2389.6987	1015.15	127.25
966.6968	2391.0957	1016.65	132.65
966.8273	2392.492	1012.6	127.05
966.9578	2393.8876	1010.7	120.8
967.0882	2395.2824	1013.2	125.7
967.2186	2396.6765	1012.25	126.7
967.349	2398.07	1010.55	124.55
967.4793	2399.4627	1011.6	123.15
967.6097	2400.8547	1012.8	126.05
967.7399	2402.246	1015.2	121.25
967.8702	2403.6366	1015.55	127.55
968.0004	2405.0265	1011.65	126.1
968.1306	2406.4156	1016.85	129.45
968.2607	2407.8041	1013.25	121.45
968.3909	2409.1918	1013.8	125.45
968.521	2410.5789	1011.05	123.35
968.651	2411.9652	1014.4	125.7
968.781	2413.3508	1011	125.55
968.911	2414.7358	1012.15	126.25
969.041	2416.12	1011.6	125.85
969.1709	2417.5035	1011	125.75
969.3008	2418.8863	1009.9	122.95
969.4307	2420.2684	1007	120.4
969.5606	2421.6497	1008.6	122.25
969.6904	2423.0304	1004.5	119.7
969.8201	2424.4104	1010.75	123.85
969.9499	2425.7896	1011.45	117.1
970.0796	2427.1682	1009.05	123.75
970.2093	2428.546	1007.3	119.55
970.3389	2429.9232	1007.25	118
970.4685	2431.2996	1003.1	119.55
970.5981	2432.6753	1003.65	118.55
970.7277	2434.0503	1005.7	120.7
970.8572	2435.4246	1005.6	119.4
970.9867	2436.7982	1004.15	114.1
971.1161	2438.1711	1005.8	118.25
971.2456	2439.5433	1007.5	119.9
971.375	2440.9148	1012.85	122.25
971.5043	2442.2856	1002	115.3
971.6336	2443.6557	1003.9	116.1
971.7629	2445.025	1001	115.75
971.8922	2446.3937	1002.5	115.25
972.0214	2447.7617	1002.7	116.75
972.1506	2449.1289	1000.4	113.75
972.2798	2450.4955	1006.2	115.6
972.4089	2451.8613	1003.45	119.55
972.538	2453.2265	1001.4	113.8
972.6671	2454.5909	999.25	111.4
972.7961	2455.9546	1000.95	113.05
972.9251	2457.3177	1002.35	116.55
973.0541	2458.68	1002.9	115.2
973.1831	2460.0416	998.1	111.45
973.312	2461.4025	1004.3	116.75
973.4408	2462.7627	1011.2	115.4
973.5697	2464.1222	997.85	111.75
973.6985	2465.4811	999.35	111.2
973.8273	2466.8392	995.65	107.5
973.956	2468.1966	999.45	111.85
974.0847	2469.5533	1001	112.7
974.2134	2470.9093	1002.15	114.65
974.3421	2472.2645	999	110.45
974.4707	2473.6191	1000.95	115.7
974.5993	2474.973	998.75	112.85
974.7278	2476.3262	997.9	110.3
974.8563	2477.6787	993.3	106.1
974.9848	2479.0305	998.05	112.2
975.1132	2480.3816	999.85	112.05
975.2417	2481.7319	994.35	107.95
975.37	2483.0816	1001.6	113.1
975.4984	2484.4306	996	108.55
975.6267	2485.7789	997.1	110.75
975.755	2487.1264	999.75	111.95
975.8833	2488.4733	992.75	106.1
976.0115	2489.8195	1011.6	107.4
976.1397	2491.165	998.9	108.45
976.2678	2492.5097	996.8	107.9
976.3959	2493.8538	995.5	111.05
976.524	2495.1972	992.05	104.1
976.6521	2496.5398	994.4	104.55
976.7801	2497.8818	997.05	109.5
976.9081	2499.2231	997.1	110.65
977.036	2500.5637	994.75	105
977.164	2501.9035	995.85	107.05
977.2918	2503.2427	996.75	104.95
977.4197	2504.5812	992.55	105.55
977.5475	2505.919	995.25	105.15
977.6753	2507.256	991.3	104.6
977.8031	2508.5924	991.7	105.25
977.9308	2509.9281	999.1	106.1
978.0585	2511.2631	993.45	106.5
978.1861	2512.5974	987.8	102.8
978.3137	2513.9309	993.25	110.35
978.4413	2515.2638	1017.15	100.8
978.5689	2516.596	990.6	105.6
978.6964	2517.9275	989.85	102.4
978.8239	2519.2583	989.2	102.25
978.9513	2520.5884	994.4	104.55
979.0788	2521.9178	986.9	100.65
979.2062	2523.2465	987.2	100.25
979.3335	2524.5745	987.45	101.25
979.4608	2525.9018	987.05	100.05
979.5881	2527.2284	985.5	99.65
979.7154	2528.5543	985.45	100.45
979.8426	2529.8796	986.65	100.05
979.9698	2531.2041	989	102.55
980.0969	2532.5279	984.8	99.05
980.224	2533.851	988.65	102.45
980.3511	2535.1735	986.3	100.7
980.4781	2536.4952	986.1	99.5
980.6052	2537.8163	987.35	100.3
980.7321	2539.1366	986.1	98.55
980.8591	2540.4562	985.9	99.55
980.986	2541.7752	983.25	96.45
981.1129	2543.0935	986.75	101.15
981.2397	2544.411	985.35	98.15
981.3665	2545.7279	984.5	98.5
981.4933	2547.0441	985.9	100.2
981.62	2548.3596	989	99.35
981.7467	2549.6744	983.55	98.95
981.8734	2550.9885	986.45	98.5
982.0001	2552.3019	980.25	93.9
982.1267	2553.6146	982.45	94.5
982.2532	2554.9266	983.35	96.4
982.3798	2556.2379	986.05	100.4
982.5063	2557.5485	983.15	99.3
982.6327	2558.8585	992.5	98.25
982.7592	2560.1677	987.95	98.55
982.8856	2561.4762	985.15	97.85
983.0119	2562.7841	986.7	98.9
983.1383	2564.0913	980.3	95.1
983.2646	2565.3977	978.65	92.95
983.3908	2566.7035	982.35	94.45
983.517	2568.0086	984.4	95.9
983.6432	2569.313	983.45	95.1
983.7694	2570.6167	982.45	93.95
983.8955	2571.9197	979.25	92.35
984.0216	2573.222	983.8	95.3
984.1476	2574.5236	978.85	91.7
984.2737	2575.8246	983.5	96.4
984.3996	2577.1248	981.4	93.85
984.5256	2578.4244	978.15	92.75
984.6515	2579.7232	980.75	94.4
984.7774	2581.0214	1014.5	98.35
984.9032	2582.3189	977.05	90.65
985.029	2583.6157	984.4	93.65
985.1548	2584.9118	984.3	97.85
985.2806	2586.2072	978.5	90.9
985.4063	2587.5019	980.3	95.25
985.5319	2588.7959	984.75	98.25
985.6576	2590.0893	982.85	93.75
985.7832	2591.3819	980.8	97.1
985.9087	2592.6739	977.25	90.25
986.0343	2593.9652	980.75	93.65
986.1597	2595.2557	982.4	95.75
986.2852	2596.5456	982	93.65
986.4106	2597.8348	982.75	97.65
986.536	2599.1234	977.7	90.9
986.6614	2600.4112	984.45	99
986.7867	2601.6983	988.2	97.25
986.912	2602.9848	981.05	92.2
987.0372	2604.2705	990.05	98.15
987.1624	2605.5556	980.5	93.85
987.2876	2606.84	980.5	93.4
987.4128	2608.1237	981.9	96.2
987.5379	2609.4067	980.45	95
987.6629	2610.689	988.55	93.35
987.788	2611.9707	983.9	93.85
987.913	2613.2516	985.95	95.2
988.0379	2614.5319	975.9	89.9
988.1629	2615.8115	976.5	89.9
988.2878	2617.0903	980.6	93.25
988.4126	2618.3685	977.75	90.25
988.5375	2619.6461	977.45	89.3
988.6622	2620.9229	977.85	91.35
988.787	2622.199	975.95	89.6
988.9117	2623.4745	976	88.3
989.0364	2624.7493	976.35	91.15
989.161	2626.0234	975.5	90.55
989.2857	2627.2968	977.2	92.25
989.4102	2628.5695	975.65	88.55
989.5348	2629.8415	975.85	89.9
989.6593	2631.1128	974.25	86.55
989.7837	2632.3835	975.3	89.35
989.9082	2633.6535	974.9	87.45
990.0326	2634.9228	971.5	85.5
990.1569	2636.1914	973.3	87.2
990.2812	2637.4593	978.5	87.45
990.4055	2638.7265	976.35	87.9
990.5298	2639.9931	974.95	86.65
990.654	2641.259	972.75	85.75
990.7782	2642.5242	971.15	84.2
990.9023	2643.7887	970.65	86.15
991.0264	2645.0525	971.2	84.75
991.1505	2646.3156	976.05	89
991.2745	2647.5781	969.9	85.9
991.3985	2648.8398	969.15	83.65
991.5225	2650.1009	1008.55	84.6
991.6464	2651.3613	970.4	85.05
991.7703	2652.6211	969.7	82.85
991.8942	2653.8801	970.05	84.6
992.018	2655.1385	973.75	84.65
992.1418	2656.3961	969.6	82.55
992.2655	2657.6531	966.05	80.85
992.3892	2658.9094	967.95	81.8
992.5129	2660.1651	970.1	82.25
992.6366	2661.42	965.25	77.85
992.7602	2662.6743	971.7	83.45
992.8837	2663.9279	969.7	81.5
993.0073	2665.1808	969.4	82.95
993.1307	2666.433	969.95	81.5
993.2542	2667.6846	966.85	79.65
993.3776	2668.9354	974.7	82.2
993.501	2670.1856	971.5	83.5
993.6244	2671.4351	971.75	84.55
993.7477	2672.6839	973.75	86.35
993.8709	2673.9321	969.8	83.65
993.9942	2675.1795	970.05	81.8
994.1174	2676.4263	970.65	84.1
994.2405	2677.6724	967.6	80.55
994.3637	2678.9179	973.75	88.55
994.4868	2680.1626	971.65	85.6
994.6098	2681.4067	968.9	82.1
994.7328	2682.6501	972.3	86.3
994.8558	2683.8928	972.65	85.6
994.9788	2685.1348	968.1	82.45
995.1017	2686.3761	967.8	82.25
995.2245	2687.6168	967.85	81.5
995.3474	2688.8568	967.95	83.3
995.4702	2690.0961	964.8	79.75
995.5929	2691.3348	966	77.9
995.7156	2692.5727	965.95	79.65
995.8383	2693.81	964.7	78.1
995.961	2695.0466	959.4	75.6
996.0836	2696.2826	963.85	76.45
996.2062	2697.5178	965.1	76.35
996.3287	2698.7524	964.95	79
996.4512	2699.9863	970.3	85.05
996.5737	2701.2195	964.9	78.75
996.6961	2702.452	968.3	78.2
996.8185	2703.6839	964.95	77.45
996.9408	2704.9151	966.25	81.05
997.0631	2706.1456	969.25	82.95
997.1854	2707.3755	968.1	79.05
997.3077	2708.6046	970.55	80.75
997.4299	2709.8331	966.95	78.05
997.552	2711.0609	969.25	81.1
997.6742	2712.2881	969.05	84.05
997.7963	2713.5145	968.75	81.3
997.9183	2714.7403	973.2	87.2
998.0403	2715.9654	972.3	84.3
998.1623	2717.1899	988.75	89.05
998.2842	2718.4136	976.45	90.35
998.4062	2719.6367	976.55	88.55
998.528	2720.8591	988	94.7
998.6498	2722.0809	976.35	89.2
998.7716	2723.3019	986.45	96.45
998.8934	2724.5223	983.1	95.95
999.0151	2725.7421	982.2	94.9
999.1368	2726.9611	983.75	94.15
999.2584	2728.1795	986.05	94.65
999.38	2729.3972	979.85	90.7
999.5016	2730.6142	988.25	88.9
999.6231	2731.8306	974.15	85.55
999.7446	2733.0462	971.45	83.9
999.8661	2734.2612	976.25	84.65
999.9875	2735.4756	971.9	84.25
1000.1089	2736.6892	969.1	82.4
1000.2302	2737.9022	964.1	78.4
1000.3515	2739.1145	965.3	77.3
1000.4728	2740.3262	973.5	78.65
1000.594	2741.5372	964	76.95
1000.7152	2742.7475	963.65	77.8
1000.8363	2743.9571	963.85	76.85
1000.9575	2745.1661	968.75	76.9
1001.0785	2746.3744	959.1	71.6
1001.1996	2747.582	957.7	70.4
1001.3206	2748.7889	958.05	69.25
1001.4415	2749.9952	953.75	66.85
1001.5625	2751.2008	959.65	70.9
1001.6833	2752.4057	957.75	69.4
1001.8042	2753.61	956.45	65.05
1001.925	2754.8136	959.15	70.1
1002.0458	2756.0165	954.75	68.35
1002.1665	2757.2188	953.3	69
1002.2872	2758.4204	953.95	68.7
1002.4078	2759.6213	956.2	67.55
1002.5285	2760.8215	960	66.15
1002.649	2762.0211	956.15	65.95
1002.7696	2763.22	957.5	67.55
1002.8901	2764.4182	954.45	65.85
1003.0106	2765.6158	953.05	65.6
1003.131	2766.8127	952.55	65
1003.2514	2768.009	950.6	64.1
1003.3717	2769.2045	954.45	67.15
1003.492	2770.3994	951.75	63.15
1003.6123	2771.5936	951.75	64
1003.7325	2772.7872	952.5	66.95
1003.8527	2773.9801	951.45	64.9
1003.9729	2775.1723	967.25	64.9
1004.093	2776.3639	948.05	61.9
1004.2131	2777.5548	949.6	61.55
1004.3331	2778.745	950.6	61.4
1004.4531	2779.9346	948.95	62.85
1004.5731	2781.1235	950.1	62.15
1004.693	2782.3117	950.35	66.15
1004.8129	2783.4992	949.55	62.85
1004.9328	2784.6861	948.25	62.75
1005.0526	2785.8723	951.15	62.65
1005.1723	2787.0579	953.3	65.4
1005.2921	2788.2428	949.8	62.75
1005.4118	2789.427	947.35	61.7
1005.5314	2790.6106	947.6	60.05
1005.651	2791.7935	952.1	65.7
1005.7706	2792.9757	949.6	64.05
1005.8902	2794.1573	952.9	63.85
1006.0097	2795.3382	949.25	61.4
1006.1291	2796.5184	950.55	65.7
1006.2485	2797.698	954.15	65.45
1006.3679	2798.8769	954.6	68.8
1006.4873	2800.0551	955.7	69.4
1006.6066	2801.2327	955.8	66.35
1006.7258	2802.4096	951.35	66.85
1006.8451	2803.5859	951.05	61.85
1006.9642	2804.7615	953.9	66.95
1007.0834	2805.9364	955.3	69.75
1007.2025	2807.1106	954.9	68.5
1007.3216	2808.2842	957.1	69.35
1007.4406	2809.4572	960.9	71.95
1007.5596	2810.6294	962.05	73.6
1007.6785	2811.801	962.25	74.3
1007.7975	2812.972	965.4	79.95
1007.9163	2814.1423	970.65	86.05
1008.0352	2815.3119	972.7	86.3
1008.154	2816.4808	974.5	89.7
1008.2727	2817.6491	979.75	93.4
1008.3914	2818.8167	982.1	96.45
1008.5101	2819.9837	998.05	104.55
1008.6288	2821.15	1000.55	113.9
1008.7474	2822.3157	1006.8	119.9
1008.8659	2823.4807	1019.45	132.7
1008.9844	2824.645	1034.95	146.75
1009.1029	2825.8086	1044.55	156.65
1009.2214	2826.9716	1055	171.5
1009.3398	2828.134	1067.6	181.2
1009.4581	2829.2957	1079.85	192.75
1009.5764	2830.4567	1088.75	202.45
1009.6947	2831.617	1088.05	202
1009.813	2832.7767	1102.65	217.6
1009.9312	2833.9358	1097.4	210.1
1010.0493	2835.0941	1100.8	213.05
1010.1675	2836.2519	1089.65	205.55
1010.2855	2837.4089	1093.8	207.2
1010.4036	2838.5653	1083.5	194.25
1010.5216	2839.7211	1074.25	189.9
1010.6396	2840.8761	1078	191.15
1010.7575	2842.0306	1073.5	187.95
1010.8754	2843.1843	1066.35	180.3
1010.9932	2844.3374	1073.65	188.25
1011.111	2845.4899	1079.2	192.7
1011.2288	2846.6417	1082.05	195.3
1011.3465	2847.7928	1076.65	190.5
1011.4642	2848.9433	1079.7	192.9
1011.5818	2850.0931	1089.45	203.4
1011.6995	2851.2422	1086.9	199.1
1011.817	2852.3907	1089.9	203.6
1011.9345	2853.5385	1089.5	199.75
1012.052	2854.6857	1120.3	207.4
1012.1695	2855.8323	1088.6	200.5
1012.2869	2856.9781	1097.75	211.45
1012.4042	2858.1233	1097.15	212.1
1012.5216	2859.2679	1107.35	221.7
1012.6389	2860.4118	1112.5	226.55
1012.7561	2861.555	1121.6	231.05
1012.8733	2862.6976	1124.1	235.25
1012.9905	2863.8395	1126.1	240.5
1013.1076	2864.9808	1129.7	244.8
1013.2247	2866.1214	1136.15	249.4
1013.3417	2867.2614	1135.45	250.2
1013.4587	2868.4007	1139.8	251.4
1013.5757	2869.5393	1144.4	255.45
1013.6926	2870.6773	1141.65	251.85
1013.8095	2871.8146	1148.6	256.7
1013.9263	2872.9513	1153.25	264.7
1014.0431	2874.0874	1156.9	270.35
1014.1599	2875.2227	1161.05	273.15
1014.2766	2876.3574	1159.5	272.4
1014.3933	2877.4915	1165.15	278.4
1014.51	2878.6249	1171.95	286.55
1014.6266	2879.7577	1172.6	285.4
1014.7431	2880.8898	1187.6	289.5
1014.8596	2882.0212	1176.15	288.8
1014.9761	2883.152	1184.8	298.2
1015.0925	2884.2821	1196.3	309.7
1015.2089	2885.4116	1191.15	303.55
1015.3253	2886.5405	1196	309.2
1015.4416	2887.6686	1203.95	314.05
1015.5579	2888.7962	1197.2	312.15
1015.6741	2889.923	1197.95	312.6
1015.7903	2891.0493	1196.95	311.6
1015.9065	2892.1748	1192.2	305.15
1016.0226	2893.2997	1197.15	310.6
1016.1387	2894.424	1192.75	308.35
1016.2547	2895.5476	1196.8	308.55
1016.3707	2896.6706	1197.7	312.4
1016.4866	2897.7929	1204.3	315.6
1016.6025	2898.9145	1195.45	309.1
1016.7184	2900.0355	1197.45	307.3
1016.8342	2901.1559	1192.4	303.9
1016.95	2902.2756	1190	303.4
1017.0658	2903.3946	1189.45	302.35
1017.1815	2904.513	1187.9	296.35
1017.2971	2905.6308	1186.35	300.35
1017.4127	2906.7479	1186.75	299.4
1017.5283	2907.8643	1181.2	291.65
1017.6439	2908.9801	1185.55	297.7
1017.7594	2910.0953	1188	301.1
1017.8748	2911.2098	1188.25	297.45
1017.9902	2912.3236	1191.6	296.35
1018.1056	2913.4368	1185.25	296.05
1018.2209	2914.5494	1180.7	294.1
1018.3362	2915.6613	1187.4	295.15
1018.4515	2916.7725	1173.6	285.75
1018.5667	2917.8831	1171.95	284.4
1018.6819	2918.9931	1167.7	278.8
1018.797	2920.1024	1158.9	269.75
1018.9121	2921.211	1155.25	267.75
1019.0271	2922.319	1154.25	269.4
1019.1421	2923.4264	1153.4	267.6
1019.2571	2924.5331	1148.95	265.2
1019.372	2925.6391	1150.05	263.1
1019.4869	2926.7445	1148.5	264.65
1019.6017	2927.8493	1151.35	264.1
1019.7165	2928.9534	1152.65	264.65
1019.8313	2930.0569	1154.3	263
1019.946	2931.1597	1157.95	269.45
1020.0606	2932.2619	1150.85	264.75
1020.1753	2933.3634	1155.2	269.4
1020.2899	2934.4643	1168.55	273.9
1020.4044	2935.5645	1168.25	273.8
1020.5189	2936.6641	1168.05	276.35
1020.6334	2937.763	1165.35	280.25
1020.7478	2938.8613	1165.55	279.1
1020.8622	2939.959	1168.6	275.75
1020.9765	2941.056	1159.75	272.9
1021.0908	2942.1523	1150.65	261.95
1021.2051	2943.248	1140.35	254.45
1021.3193	2944.3431	1132.45	247.25
1021.4334	2945.4375	1113.5	227.2
1021.5476	2946.5313	1103.05	217.05
1021.6617	2947.6244	1093.25	205.45
1021.7757	2948.7169	1084.6	196.6
1021.8897	2949.8087	1073.4	186.5
1022.0037	2950.8999	1059.05	172.55
1022.1176	2951.9904	1048.85	163.45
1022.2315	2953.0803	1044.1	159.35
1022.3453	2954.1696	1036	148.8
1022.4591	2955.2582	1030.85	144.35
1022.5728	2956.3462	1028.25	142
1022.6865	2957.4335	1031.3	142.85
1022.8002	2958.5202	1029.05	139.3
1022.9138	2959.6062	1025.3	138.45
1023.0274	2960.6916	1023.1	136.35
1023.141	2961.7764	1027.8	139
1023.2545	2962.8605	1026.85	139.4
1023.3679	2963.9439	1032.8	147.95
1023.4813	2965.0267	1028.1	140.45
1023.5947	2966.1089	1048.7	139.85
1023.708	2967.1905	1024.75	137.6
1023.8213	2968.2714	1025.25	138.95
1023.9346	2969.3516	1021.5	135.75
1024.0478	2970.4312	1024.8	128.85
1024.1609	2971.5102	1018.95	131.2
1024.274	2972.5885	1018.35	129.35
1024.3871	2973.6662	1019.9	128.65
1024.5002	2974.7432	1021.95	137.25
1024.6132	2975.8196	1020.75	133.65
1024.7261	2976.8954	1020.9	133.25
1024.839	2977.9705	1018.45	132.2
1024.9519	2979.045	1023.45	137.85
1025.0647	2980.1188	1018.45	132.75
1025.1775	2981.192	1014.2	128.6
1025.2902	2982.2645	1014.9	128.1
1025.4029	2983.3364	1011.95	125.45
1025.5156	2984.4077	1007.05	120.25
1025.6282	2985.4783	1006.85	114.25
1025.7407	2986.5483	999.55	113.05
1025.8532	2987.6177	994.55	108.05
1025.9657	2988.6864	995.4	109.65
1026.0782	2989.7545	993.05	106.55
1026.1906	2990.8219	989.65	104.55
1026.3029	2991.8887	987.4	98.25
1026.4152	2992.9548	980.85	93.55
1026.5275	2994.0204	976.45	89.3
1026.6397	2995.0852	968.2	81.8
1026.7519	2996.1495	967.65	78.6
1026.864	2997.2131	966.25	79.55
1026.9761	2998.276	957.55	71.05
1027.0882	2999.3383	956.55	69.9
1027.2002	3000.4	953.05	66.85
1027.3122	3001.4611	949.15	63.05
1027.4241	3002.5215	946.15	59.35
1027.536	3003.5812	944.4	57.95
1027.6478	3004.6404	943.65	56.45
1027.7596	3005.6989	942.35	54.1
1027.8714	3006.7567	940.3	52.2
1027.9831	3007.8139	969.75	52.15
1028.0947	3008.8705	939.95	54
1028.2064	3009.9264	954.2	52.25
1028.3179	3010.9818	931.55	43
1028.4295	3012.0364	935.2	49.6
1028.541	3013.0905	935.6	47.3
1028.6524	3014.1439	932.15	45.85
1028.7638	3015.1966	931.4	45.1
1028.8752	3016.2487	933.5	46.6
1028.9865	3017.3002	934.6	44.9
1029.0978	3018.3511	927.85	40.95
1029.209	3019.4013	928.6	39.95
1029.3202	3020.4509	928.15	42.65
1029.4314	3021.4998	929.35	41.7
1029.5425	3022.5481	930	43.4
1029.6535	3023.5958	928.1	42.45
1029.7645	3024.6428	929.45	41.2
1029.8755	3025.6892	929.8	43.6
1029.9864	3026.735	929.25	43.95
1030.0973	3027.7802	926.75	39.05
1030.2082	3028.8247	925.25	38.6
1030.319	3029.8685	927.8	41
1030.4297	3030.9118	926.55	40.25
1030.5404	3031.9544	926.15	39.15
1030.6511	3032.9963	927.85	41.15
1030.7617	3034.0376	925.7	42.2
1030.8723	3035.0783	930.25	43.3
1030.9829	3036.1184	929.25	42.6
1031.0934	3037.1578	926.9	40.95
1031.2038	3038.1966	929.3	41.1
1031.3142	3039.2348	928.55	42.9
1031.4246	3040.2723	936.3	39.95
1031.5349	3041.3092	926.7	40.3
1031.6452	3042.3455	927.7	42.1
1031.7554	3043.3811	929.75	41.45
1031.8656	3044.4161	930.6	41.4
1031.9758	3045.4505	927.65	41.55
1032.0859	3046.4842	929.1	42.95
1032.1959	3047.5173	925.15	41.05
1032.3059	3048.5498	924.8	36.85
1032.4159	3049.5816	930	43.15
1032.5258	3050.6128	931.2	44.4
1032.6357	3051.6434	929.65	42.05
1032.7455	3052.6734	928	39.1
1032.8553	3053.7027	928.45	40.4
1032.9651	3054.7314	929.45	44.25
1033.0748	3055.7594	929.7	45.05
1033.1845	3056.7868	931.75	44.8
1033.2941	3057.8136	929.75	43
1033.4037	3058.8398	929.8	42.25
1033.5132	3059.8653	933.45	47.3
1033.6227	3060.8902	928.95	40.55
1033.7321	3061.9145	931.9	45.1
1033.8415	3062.9381	928.6	41.25
1033.9509	3063.9612	946.4	42.45
1034.0602	3064.9835	930.2	43.35
1034.1694	3066.0053	932.8	44.3
1034.2787	3067.0264	932.75	47.25
1034.3878	3068.0469	936.1	49.2
1034.497	3069.0668	932.65	43.8
1034.6061	3070.086	931.65	47.3
1034.7151	3071.1046	934.15	43.9
1034.8241	3072.1226	931	44.85
1034.9331	3073.1399	930.3	43.35
1035.042	3074.1567	932.25	43.95
1035.1508	3075.1727	932.2	42.9
1035.2597	3076.1882	925.9	40.25
1035.3684	3077.203	926.85	41.05
1035.4772	3078.2173	926.95	38.15
1035.5859	3079.2308	926.9	36.55
1035.6945	3080.2438	924.3	36.2
1035.8031	3081.2561	922.6	35.55
1035.9117	3082.2678	921.3	36.05
1036.0202	3083.2789	921.2	33.8
1036.1286	3084.2893	920.8	34.3
1036.2371	3085.2991	920.35	34.35
1036.3454	3086.3083	924	33.45
1036.4538	3087.3169	922.75	34
1036.562	3088.3248	921.5	31.75
1036.6703	3089.3321	920.55	31
1036.7785	3090.3388	916.55	29.9
1036.8866	3091.3449	917.3	30.05
1036.9948	3092.3503	919.6	32.85
1037.1028	3093.3551	916.5	32.3
1037.2108	3094.3593	915.8	28.05
1037.3188	3095.3629	916.5	29.75
1037.4267	3096.3658	915.25	25.4
1037.5346	3097.3681	914.35	28.05
1037.6425	3098.3698	919.45	31.35
1037.7503	3099.3708	914.9	28.75
1037.858	3100.3713	913.5	27.6
1037.9657	3101.3711	912.35	27.2
1038.0734	3102.3702	1055.25	25.65
1038.181	3103.3688	914.65	25.8
1038.2886	3104.3667	909.75	24.75
1038.3961	3105.364	910.95	24.05
1038.5036	3106.3607	912.3	24.6
1038.611	3107.3568	916.2	29.85
1038.7184	3108.3522	911.5	23.55
1038.8257	3109.347	910.9	22.7
1038.933	3110.3412	916.7	24.8
1039.0403	3111.3348	910.25	22.65
1039.1475	3112.3277	911.2	25.7
1039.2547	3113.32	910.7	24.55
1039.3618	3114.3117	911.75	25.75
1039.4689	3115.3028	909.7	25.6
1039.5759	3116.2932	909.85	22.35
1039.6829	3117.2831	914.5	23.5
1039.7898	3118.2723	908.05	22
1039.8967	3119.2608	908.95	22.1
1040.0035	3120.2488	910.15	23.65
1040.1103	3121.2361	906.8	21.05
1040.2171	3122.2229	905.95	18.8
1040.3238	3123.209	909.05	21.9
1040.4305	3124.1944	904.8	16.9
1040.5371	3125.1793	907.75	18.95
1040.6437	3126.1635	906.7	20.4
1040.7502	3127.1471	905.25	18.15
1040.8567	3128.1301	905.65	20.5
1040.9631	3129.1125	904.9	18.5
1041.0695	3130.0942	903.4	17.05
1041.1759	3131.0753	914.9	19.7
1041.2822	3132.0558	908.35	17.1
1041.3884	3133.0357	904.6	19.35
1041.4946	3134.015	905.95	17.8
1041.6008	3134.9936	905.9	18.25
1041.7069	3135.9716	923.8	15.7
1041.813	3136.949	905.05	15.6
1041.919	3137.9258	921.7	18.75
1042.025	3138.902	910.5	18.45
1042.1309	3139.8775	903.6	19.2
1042.2368	3140.8524	903.55	18.4
1042.3427	3141.8267	904.85	17.35
1042.4485	3142.8004	905.05	18.2
1042.5542	3143.7735	910.7	16.75
1042.6599	3144.7459	904.75	17.05
1042.7656	3145.7178	905.3	17.1
1042.8712	3146.689	902.5	14.55
1042.9768	3147.6596	903.65	16.45
1043.0823	3148.6295	903.25	13.5
1043.1878	3149.5989	903.8	16.1
1043.2932	3150.5676	903	18.15
1043.3986	3151.5357	902.2	15.5
1043.5039	3152.5032	902.85	17.35
1043.6092	3153.4701	902.9	16.65
1043.7145	3154.4364	904.55	15.45
1043.8197	3155.402	901.3	15.1
1043.9248	3156.367	902.6	13.5
1044.03	3157.3315	938.25	14
1044.135	3158.2952	901.45	15.1
1044.24	3159.2584	900.05	13.6
1044.345	3160.221	902.15	14.55
1044.4499	3161.1829	900.65	14.45
1044.5548	3162.1442	902.5	18.05
1044.6596	3163.105	902.2	16.2
1044.7644	3164.065	902.9	15.1
1044.8692	3165.0245	905.6	16
1044.9739	3165.9834	899.95	15.5
1045.0785	3166.9416	900.9	15.55
1045.1831	3167.8993	901	13.45
1045.2877	3168.8563	901.4	11.75
1045.3922	3169.8127	900.55	14.3
1045.4966	3170.7684	900.75	15.05
1045.6011	3171.7236	900.4	11.4
1045.7054	3172.6782	902.1	16.05
1045.8098	3173.6321	900.8	15
1045.914	3174.5854	904.45	12.55
1046.0183	3175.5381	900.9	12.7
1046.1224	3176.4902	899.85	12.55
1046.2266	3177.4417	899.25	15.15
1046.3307	3178.3926	897.5	10.8
1046.4347	3179.3428	898.7	12.9
1046.5387	3180.2924	899.4	14.2
1046.6427	3181.2415	900.15	11.2
1046.7466	3182.1899	903	17.55
1046.8504	3183.1377	901.75	16.85
1046.9542	3184.0848	901.3	12.4
1047.058	3185.0314	898.75	13.55
1047.1617	3185.9773	900.7	12.95
1047.2654	3186.9227	900.45	12.6
1047.369	3187.8674	899.7	9.75
1047.4726	3188.8115	901.5	10.8
1047.5761	3189.755	897.3	10.6
1047.6796	3190.6979	898.25	10.05
1047.783	3191.6402	898.45	14.15
1047.8864	3192.5818	899	13.25
1047.9898	3193.5229	904.6	11.9
1048.0931	3194.4633	899.5	13.65
1048.1963	3195.4031	898.8	10.65
1048.2995	3196.3423	897.25	11.6
1048.4027	3197.2809	897.05	8.8
1048.5058	3198.2189	899.4	12.75
1048.6089	3199.1563	905.05	12.5
1048.7119	3200.0931	897.95	11.95
1048.8148	3201.0292	897.7	12.8
1048.9178	3201.9648	898.5	12.3
1049.0206	3202.8997	898.7	9.8
1049.1235	3203.834	896.5	12.6
1049.2262	3204.7677	896.45	9.6
1049.329	3205.7008	898.65	10.15
1049.4317	3206.6333	895.7	9.1
1049.5343	3207.5652	898.55	8.4
1049.6369	3208.4964	898.5	12.1
1049.7394	3209.4271	896.85	9.35
1049.8419	3210.3571	898.5	15.25
1049.9444	3211.2865	898.3	10.35
1050.0468	3212.2154	897.7	10.4
1050.1491	3213.1436	899.3	9.55
1050.2514	3214.0712	901.95	9.15
1050.3537	3214.9982	896.6	11.4
1050.4559	3215.9246	899.3	12.75
1050.5581	3216.8503	896.05	8.4
1050.6602	3217.7755	897.9	11
1050.7623	3218.7001	895.25	7.85
1050.8643	3219.624	899.55	12.35
1050.9663	3220.5473	896.8	9.1
1051.0682	3221.4701	897.35	10.65
1051.1701	3222.3922	899.9	13
1051.2719	3223.3137	898.75	12.3
1051.3737	3224.2346	898.25	11.45
1051.4754	3225.1549	896.45	9.05
1051.5771	3226.0746	895.2	7.35
1051.6788	3226.9937	895.7	6.9
1051.7804	3227.9121	896.25	9.65
1051.8819	3228.83	895.95	10.05
1051.9834	3229.7473	896.8	10.15
1052.0849	3230.6639	897.55	10.75
1052.1863	3231.5799	896.1	12.15
1052.2876	3232.4954	897.4	7.95
1052.3889	3233.4102	895.6	7.25
1052.4902	3234.3244	896.45	11
1052.5914	3235.238	893.6	7.1
1052.6926	3236.151	919.55	7.45
1052.7937	3237.0634	893.95	8.6
1052.8948	3237.9752	895.55	8.8
1052.9958	3238.8864	897.55	9.65
1053.0968	3239.797	896.7	9.35
1053.1977	3240.7069	897.8	11.8
1053.2986	3241.6163	897.9	9.15
1053.3994	3242.5251	896.25	10.15
1053.5002	3243.4332	893.8	9
1053.6009	3244.3408	895.1	6.75
1053.7016	3245.2477	894.9	8.7
1053.8022	3246.154	897	8.7
1053.9028	3247.0598	895.45	8.55
1054.0034	3247.9649	896.95	10.5
1054.1039	3248.8694	895.95	8.85
1054.2043	3249.7733	894.9	8.65
1054.3047	3250.6766	893.3	7.35
1054.4051	3251.5793	896.95	9.8
1054.5054	3252.4814	898.1	12.9
1054.6056	3253.3829	892.7	7
1054.7058	3254.2838	894.15	6.9
1054.806	3255.1841	895	8.8
1054.9061	3256.0838	894.45	7.95
1055.0061	3256.9829	894.9	10.4
1055.1062	3257.8814	896.4	9.2
1055.2061	3258.7792	896.05	5.3
1055.306	3259.6765	894.5	6.2
1055.4059	3260.5731	894.35	7.05
1055.5057	3261.4692	895.9	8.95
1055.6055	3262.3647	895.45	6.45
1055.7052	3263.2595	893.65	6.55
1055.8049	3264.1538	892.75	8.8
1055.9045	3265.0474	894.15	5.35
1056.0041	3265.9404	892.7	8.35
1056.1036	3266.8329	892	5.9
1056.2031	3267.7247	902.15	5.8
1056.3025	3268.616	892.35	7.55
1056.4019	3269.5066	891.55	3.15
1056.5013	3270.3966	895	6.25
1056.6005	3271.286	892	6.45
