Software Version:	3.9.2.0
Unit SN:	10000200
Spectrometer SN:	6960
Date:	3/14/2024 2:08:36 PM
Data Line Index:	25
Spectral Points:	2048
Integration time (ms):	125
Averages:	20
Delay (ms):	30000
Sequence Number:	1
Processing:	dark subtract
Laser Power (mW):	295
Laser Current (mA):	825
Laser Diode Temp (C):	25.1
Laser Case Temp (C):	29
System Temp (C):	29
Spectrometer Temp (C):	26.8
CCD Temp (C):	0.013
Secondary Temp (C):	20.007
Heatsink Temp (C):	24.908
CCDPCB Temp (C):	38.319
SecondaryPCB Temp (C):	35.884

Wavelength	RamanShift	Raw Counts	Dark Subtracted
787.061	30.1047	448.45	36.5
787.2016	32.3739	446.25	35.7
787.3422	34.6426	451.1	41.6
787.4828	36.9109	456.7	44.8
787.6235	39.1787	463.95	47.75
787.7642	41.4461	472.9	51.5
787.9049	43.7131	480.3	54.95
788.0456	45.9796	488.35	61.15
788.1863	48.2456	498.1	65.85
788.3271	50.5112	505.15	68.65
788.4679	52.7764	512.3	73.25
788.6087	55.0411	519.2	78
788.7496	57.3054	533.15	85.9
788.8904	59.5692	540.85	91.1
789.0313	61.8326	553.55	98.7
789.1722	64.0955	562.7	104.7
789.3132	66.3579	575.8	113.9
789.4541	68.6199	591.15	126.7
789.5951	70.8815	619.9	151
789.7361	73.1426	673.5	201
789.8771	75.4032	830.55	353.35
790.0181	77.6634	1208.15	724.4
790.1592	79.9231	2087	1600.1
790.3003	82.1824	4015	3516.8
790.4414	84.4412	7583.3	7067.4
790.5825	86.6995	12610.4	12073.7
790.7237	88.9574	17697.4	17141.05
790.8648	91.2148	21386.5	20815
791.006	93.4717	23195.55	22614.95
791.1472	95.7282	23690.6	23103.7
791.2885	97.9842	23734.1	23148.7
791.4297	100.2398	23352.15	22759.7
791.571	102.4949	22906.6	22310.35
791.7123	104.7495	22307.85	21711.05
791.8536	107.0036	21681.2	21080.9
791.9949	109.2573	20974.15	20376.7
792.1363	111.5105	20376.7	19775.8
792.2777	113.7632	19732	19129.8
792.4191	116.0154	19122.5	18507.35
792.5605	118.2672	18732.6	18130.35
792.7019	120.5185	18279.55	17674.7
792.8434	122.7693	17942	17333.3
792.9849	125.0197	17690.75	17078.6
793.1264	127.2696	17463.3	16849.85
793.2679	129.519	17292.8	16674.2
793.4094	131.7679	17157.1	16536.7
793.551	134.0163	17063.45	16437.95
793.6926	136.2642	16940.5	16310.8
793.8342	138.5117	16780.9	16139.8
793.9758	140.7587	16645.6	16011.4
794.1175	143.0052	16533.6	15900.65
794.2591	145.2512	16359.65	15727.15
794.4008	147.4967	16150.25	15515.15
794.5425	149.7417	16095.6	15459.75
794.6842	151.9863	15982.85	15343.65
794.826	154.2304	15916.75	15271.4
794.9677	156.4739	15819.1	15170.25
795.1095	158.717	15740.3	15093.3
795.2513	160.9596	15609.15	14952.25
795.3931	163.2017	15408.55	14752.85
795.535	165.4433	15142.25	14485.8
795.6768	167.6844	14879.55	14219.85
795.8187	169.925	14618.05	13954.75
795.9606	172.1651	14282.15	13616.8
796.1025	174.4047	14024.55	13355.35
796.2445	176.6439	13780.05	13109.9
796.3864	178.8825	13530	12857.6
796.5284	181.1206	13423.15	12745.6
796.6704	183.3582	13250.6	12570.5
796.8124	185.5954	13150.5	12466.2
796.9544	187.832	13055.7	12369
797.0965	190.0681	13036.7	12348.9
797.2386	192.3037	13009.45	12320.5
797.3806	194.5388	12980.75	12287.3
797.5228	196.7734	13001.05	12307.35
797.6649	199.0075	13037.1	12337.65
797.807	201.2411	13138.15	12438.1
797.9492	203.4742	13176.05	12472.9
798.0914	205.7068	13293.05	12589.3
798.2336	207.9389	13363.3	12662.15
798.3758	210.1704	13451.6	12746.95
798.518	212.4015	13556.95	12848
798.6603	214.632	13684.05	12975.3
798.8025	216.862	13838.75	13136.45
798.9448	219.0915	13981	13284.9
799.0871	221.3205	14185.85	13491.6
799.2294	223.549	14441.35	13755
799.3718	225.777	14718	14031.7
799.5141	228.0044	15102.1	14412.3
799.6565	230.2314	15520.9	14831.2
799.7989	232.4578	15939.65	15251.8
799.9413	234.6837	16280.85	15584
800.0837	236.909	16500.65	15804.05
800.2262	239.1339	16443	15722.3
800.3687	241.3582	16206.15	15499.95
800.5111	243.582	15841.4	15110.2
800.6536	245.8053	15477.4	14754.75
800.7961	248.0281	15113.7	14396.75
800.9387	250.2503	14848.05	14124.4
801.0812	252.472	14669.1	13937.45
801.2238	254.6932	14558.6	13828.1
801.3664	256.9139	14412.8	13678.05
801.509	259.134	14312.75	13571.55
801.6516	261.3536	14226.2	13491
801.7942	263.5727	14191.4	13455.8
801.9369	265.7912	14067.7	13333.45
802.0795	268.0092	14002.45	13267.55
802.2222	270.2267	13922.2	13181.45
802.3649	272.4436	13841.35	13103.05
802.5076	274.6601	13803.8	13057.55
802.6504	276.8759	13763.5	13021
802.7931	279.0913	13745.25	13005.55
802.9359	281.3061	13776.3	13031.9
803.0787	283.5204	13851.75	13106.1
803.2215	285.7341	13946.65	13197.3
803.3643	287.9473	14139.4	13374.8
803.5071	290.16	14365.45	13605.9
803.6499	292.3721	14629.65	13877.4
803.7928	294.5837	15022.9	14268.75
803.9357	296.7947	15334.65	14582.6
804.0786	299.0052	15508.9	14755.2
804.2215	301.2152	15355.7	14600.5
804.3644	303.4246	15030.65	14279.65
804.5074	305.6334	14509.7	13754.75
804.6503	307.8418	14038.15	13284.1
804.7933	310.0495	13673.2	12917
804.9363	312.2568	13421.25	12662.75
805.0793	314.4635	13265.3	12506.8
805.2223	316.6696	13180.95	12423.65
805.3653	318.8752	13203.3	12435.1
805.5084	321.0802	13276.35	12517.35
805.6514	323.2847	13369.95	12612.3
805.7945	325.4887	13382.35	12620
805.9376	327.692	13323.8	12561.65
806.0807	329.8949	13228.6	12465.6
806.2238	332.0972	12982	12216
806.367	334.2989	12750.8	11981.7
806.5101	336.5001	12469.3	11702.5
806.6533	338.7007	12299.45	11529.95
806.7965	340.9008	12186.45	11416.35
806.9397	343.1003	12110.1	11339.3
807.0829	345.2992	12067.4	11294.1
807.2261	347.4976	12008.35	11234.55
807.3693	349.6955	12008.4	11230.85
807.5126	351.8927	12062.75	11284.2
807.6559	354.0895	12076.45	11287.1
807.7991	356.2856	12109.55	11329.8
807.9424	358.4812	12074.05	11294.05
808.0857	360.6763	12066.4	11285.55
808.2291	362.8707	12065.15	11285
808.3724	365.0646	12052.85	11267.1
808.5158	367.258	12061.9	11274.15
808.6591	369.4508	12039.75	11250.6
808.8025	371.643	12070.95	11282.2
808.9459	373.8346	12057.65	11265.2
809.0893	376.0257	12004.2	11207.45
809.2327	378.2162	11921.65	11126.95
809.3762	380.4062	11830.75	11033.65
809.5196	382.5956	11688.8	10888.1
809.6631	384.7844	11576.8	10777.75
809.8066	386.9726	11516.75	10716.4
809.9501	389.1603	11460.3	10663.5
810.0936	391.3474	11446.8	10609.8
810.2371	393.5339	11396.95	10599.75
810.3806	395.7199	11337	10544.2
810.5241	397.9052	11351.95	10560.9
810.6677	400.09	11338.85	10548.5
810.8113	402.2743	11358.15	10569.95
810.9548	404.4579	11402.4	10614.05
811.0984	406.641	11536.15	10741.9
811.2421	408.8235	11696.75	10906.4
811.3857	411.0054	12001.35	11208.7
811.5293	413.1868	12423.95	11629.8
811.673	415.3675	12733.7	11937.05
811.8166	417.5477	12928.75	12133.7
811.9603	419.7273	12940.25	12141.3
812.104	421.9064	12849.1	12043.3
812.2477	424.0848	12714.15	11911.75
812.3914	426.2627	12531	11727.15
812.5351	428.4399	12257.1	11448.4
812.6788	430.6166	11948	11137.75
812.8226	432.7928	11646.65	10837.15
812.9663	434.9683	11358.55	10546.9
813.1101	437.1432	11148	10334.15
813.2539	439.3176	11006.45	10194.3
813.3977	441.4914	10911.55	10098.85
813.5415	443.6645	10876.2	10058.45
813.6853	445.8371	10817.8	10003.8
813.8291	448.0091	10741.1	9923.75
813.973	450.1806	10694.1	9878.35
814.1168	452.3514	10645.5	9830.1
814.2607	454.5216	10631.5	9807.55
814.4046	456.6913	10560.55	9741.6
814.5485	458.8603	10594.4	9776.3
814.6924	461.0288	10623.9	9805.55
814.8363	463.1967	10635.95	9817.7
814.9802	465.3639	10772.45	9952.7
815.1241	467.5306	10866.05	10050.05
815.2681	469.6967	10984.3	10168.5
815.412	471.8622	11163.15	10343.95
815.556	474.0271	11296.8	10477.5
815.7	476.1914	11364.05	10540.55
815.844	478.3551	11294.55	10474.75
815.988	480.5182	11267.4	10442
816.132	482.6807	11191.35	10367.85
816.276	484.8426	11251.55	10429.7
816.4201	487.0039	11454.35	10632.5
816.5641	489.1647	11745.6	10921.45
816.7082	491.3248	12150.3	11326.9
816.8522	493.4843	12328.5	11506.55
816.9963	495.6432	12344.95	11520.6
817.1404	497.8015	12279.7	11451.8
817.2845	499.9592	12310.3	11489.15
817.4286	502.1163	12265.3	11441.85
817.5727	504.2728	12061.8	11234.05
817.7168	506.4287	11847.9	11022.45
817.861	508.5839	11440.1	10613.8
818.0051	510.7386	11154.2	10326.35
818.1493	512.8927	10959.4	10123.7
818.2935	515.0461	10800.85	9971.7
818.4377	517.199	10704.5	9879.25
818.5818	519.3512	10634	9805.9
818.726	521.5029	10616.15	9781.8
818.8703	523.6539	10611.1	9778.75
819.0145	525.8043	10619.2	9787.95
819.1587	527.9541	10657.8	9824
819.303	530.1033	10674.6	9839.1
819.4472	532.2519	10750.75	9915.7
819.5915	534.3999	10889.85	10051.35
819.7357	536.5472	11156.7	10323.85
819.88	538.694	11580.95	10746.8
820.0243	540.8401	12154.05	11320.8
820.1686	542.9856	12606.35	11766.45
820.3129	545.1305	12753	11915.4
820.4572	547.2748	12616.4	11779.45
820.6016	549.4185	12248.2	11406.85
820.7459	551.5615	11895.4	11056.8
820.8902	553.704	11730.65	10892.1
821.0346	555.8458	11622.35	10786.9
821.1789	557.987	11561.8	10725.4
821.3233	560.1276	11473.65	10635.85
821.4677	562.2675	11347.75	10511.2
821.6121	564.4069	11247.05	10412.45
821.7565	566.5456	11108.7	10270.9
821.9009	568.6837	10964.05	10126.5
822.0453	570.8212	10782.5	9943.55
822.1897	572.958	10619.2	9782.3
822.3342	575.0942	10460.45	9627.3
822.4786	577.2299	10395.7	9558.9
822.6231	579.3648	10370.5	9531.3
822.7675	581.4992	10481.75	9642.55
822.912	583.6329	10658.4	9820.65
823.0565	585.766	10848.3	10008.8
823.201	587.8985	10980.05	10140.15
823.3454	590.0304	10972.85	10123.9
823.4899	592.1616	10901.7	10060
823.6345	594.2922	10827.2	9989.3
823.779	596.4222	10695.3	9854.6
823.9235	598.5515	10540.5	9699.2
824.068	600.6802	10388.9	9548.95
824.2126	602.8083	10256.7	9414.35
824.3571	604.9358	10188.6	9342.4
824.5017	607.0626	10109.85	9266.55
824.6462	609.1888	10010.7	9168.2
824.7908	611.3144	9922	9077.45
824.9354	613.4393	9763.65	8918.9
825.08	615.5636	9640.5	8796.95
825.2246	617.6873	9528.35	8685.6
825.3692	619.8103	9454.05	8608.05
825.5138	621.9327	9406.75	8561.75
825.6584	624.0544	9393.45	8546.1
825.803	626.1756	9385.75	8540.75
825.9477	628.2961	9366.4	8520.2
826.0923	630.4159	9326.7	8480.9
826.237	632.5351	9282.45	8434.35
826.3816	634.6537	9196.15	8348.55
826.5263	636.7716	9157.35	8306.7
826.6709	638.8889	9157.35	8309.45
826.8156	641.0056	9205	8358
826.9603	643.1216	9158.85	8309.2
827.105	645.237	9190.05	8339.65
827.2497	647.3518	9197.4	8347.9
827.3944	649.4659	9234.9	8386.9
827.5391	651.5793	9211.15	8362.05
827.6838	653.6922	9203.85	8353.05
827.8285	655.8043	9158.85	8307.25
827.9733	657.9159	9125.05	8274.05
828.118	660.0268	9039.75	8185.15
828.2627	662.137	8993.15	8141.3
828.4075	664.2466	8962.7	8111.4
828.5522	666.3556	8920.5	8070.75
828.697	668.4639	8910.2	8054
828.8418	670.5716	8950.95	8095.8
828.9865	672.6786	9016	8162.85
829.1313	674.785	9074.9	8222.25
829.2761	676.8907	9120.6	8266.75
829.4209	678.9958	9210.4	8357.25
829.5657	681.1002	9191.05	8337.6
829.7105	683.204	9150.05	8295.45
829.8553	685.3072	9118.6	8260.45
830.0001	687.4097	9032.45	8178.45
830.1449	689.5115	8952.05	8093.75
830.2898	691.6127	8886.8	8033.75
830.4346	693.7132	8810.6	7953.85
830.5794	695.8131	8767.3	7887.9
830.7243	697.9123	8695.05	7838.95
830.8691	700.0109	8663.65	7805.65
831.014	702.1089	8636.15	7778.2
831.1588	704.2061	8631.7	7776.3
831.3037	706.3028	8663.4	7804.65
831.4486	708.3987	8690.65	7835.45
831.5935	710.4941	8760.45	7903.3
831.7383	712.5887	8905	8046.3
831.8832	714.6827	9187.15	8326.55
832.0281	716.7761	9498.05	8640.85
832.173	718.8688	9849.4	8989.6
832.3179	720.9608	10019.1	9156.65
832.4628	723.0522	10000.55	9140.8
832.6077	725.1429	9775.9	8917.7
832.7527	727.233	9438.4	8578.1
832.8976	729.3224	9126.15	8264.2
833.0425	731.4112	8853.1	7991.95
833.1874	733.4993	8669.05	7808.15
833.3324	735.5867	8557.45	7697.95
833.4773	737.6735	8493.35	7629.35
833.6222	739.7596	8444.25	7581.45
833.7672	741.845	8428.4	7569.6
833.9122	743.9298	8411.95	7547.2
834.0571	746.014	8408.35	7549.8
834.2021	748.0974	8411.9	7549.9
834.347	750.1802	8403.2	7539.45
834.492	752.2624	8380.65	7521.9
834.637	754.3439	8410.8	7547.5
834.782	756.4247	8449.15	7576.9
834.9269	758.5048	8497.1	7635
835.0719	760.5843	8633.95	7770
835.2169	762.6631	8865.2	8003.3
835.3619	764.7413	9180.3	8318.6
835.5069	766.8188	9633.7	8767.1
835.6519	768.8956	10035.05	9168.85
835.7969	770.9718	10263.45	9399.9
835.9419	773.0473	10171.6	9311.95
836.0869	775.1221	9877.8	9012.45
836.232	777.1962	9550.75	8686.35
836.377	779.2697	9400.65	8535.5
836.522	781.3426	9459.55	8584.75
836.667	783.4147	9687.5	8822.3
836.8121	785.4862	9963.8	9098.85
836.9571	787.557	9979.25	9114.85
837.1021	789.6271	9691.9	8827.15
837.2472	791.6966	9238.3	8374.45
837.3922	793.7654	8798.65	7933.2
837.5373	795.8335	8548.9	7682.45
837.6823	797.901	8385.7	7521.45
837.8274	799.9678	8353.7	7487.1
837.9724	802.0339	8358.8	7493.3
838.1175	804.0993	8385.4	7510.95
838.2626	806.1641	8363.9	7497.55
838.4076	808.2282	8322.9	7458.6
838.5527	810.2916	8249.2	7380.8
838.6978	812.3544	8140.7	7275.85
838.8428	814.4164	8073.25	7208.9
838.9879	816.4778	8037.2	7170.6
839.133	818.5385	8001	7136.25
839.2781	820.5986	8064.25	7198.85
839.4232	822.658	8093.85	7225.6
839.5682	824.7166	8108.7	7242.05
839.7133	826.7747	8204.75	7339.25
839.8584	828.832	8288.95	7423.45
840.0035	830.8886	8330.45	7461.1
840.1486	832.9446	8449.7	7581.85
840.2937	834.9999	8530.55	7664.95
840.4388	837.0545	8602.1	7731.8
840.5839	839.1085	8646.75	7779.45
840.729	841.1618	8661.6	7792.35
840.8741	843.2143	8657.75	7788.55
841.0192	845.2662	8598.75	7731.4
841.1643	847.3175	8532.05	7664.8
841.3095	849.368	8437	7568.5
841.4546	851.4179	8329.85	7463.3
841.5997	853.467	8209.1	7340.55
841.7448	855.5155	8116.3	7246.1
841.8899	857.5633	8014.25	7147.1
842.0351	859.6105	7905.45	7037.85
842.1802	861.6569	7851.95	6983.85
842.3253	863.7027	7787.3	6917.45
842.4704	865.7478	7757.8	6887.95
842.6156	867.7922	7775.1	6906.9
842.7607	869.8359	7826.9	6957.9
842.9058	871.8789	7910.55	7040.5
843.0509	873.9212	8092.05	7187.05
843.1961	875.9629	8207.75	7339.4
843.3412	878.0039	8350.7	7478.35
843.4863	880.0441	8427.95	7559.15
843.6315	882.0837	8393.35	7521.6
843.7766	884.1226	8289.35	7418.4
843.9218	886.1609	8128.8	7258.35
844.0669	888.1984	8030	7161.2
844.212	890.2352	7966.7	7099.1
844.3572	892.2714	7928.15	7053.7
844.5023	894.3069	7896.45	7023
844.6475	896.3416	7820.5	6948.35
844.7926	898.3757	7795.9	6925.65
844.9377	900.4091	7815.7	6944
845.0829	902.4418	7810.8	6934.25
845.228	904.4739	7825.2	6952.35
845.3732	906.5052	7802.1	6930.6
845.5183	908.5358	7696.05	6828.45
845.6635	910.5658	7576.85	6705.15
845.8086	912.595	7428.55	6557.65
845.9538	914.6236	7322.65	6448.95
846.0989	916.6515	7301.95	6431.2
846.2441	918.6786	7315.15	6442.1
846.3892	920.7051	7335.4	6463.65
846.5344	922.7309	7442.3	6572.25
846.6795	924.756	7493.45	6622.55
846.8246	926.7804	7563.75	6689.3
846.9698	928.8041	7529.25	6657.4
847.1149	930.8272	7528.95	6656.3
847.2601	932.8495	7466.3	6593.2
847.4052	934.8711	7423.9	6549.05
847.5504	936.892	7281.35	6406.7
847.6955	938.9123	7131.35	6259.7
847.8407	940.9318	7007.5	6135.75
847.9858	942.9506	6880.2	6005.85
848.131	944.9688	6820.5	5947.9
848.2761	946.9862	6780.2	5908.55
848.4213	949.003	6759.6	5886.4
848.5664	951.019	6756.25	5884.7
848.7115	953.0344	6763.7	5889.4
848.8567	955.0491	6802.1	5927.4
849.0018	957.063	6861.65	5988.6
849.147	959.0763	6940.45	6066.9
849.2921	961.0888	6963.2	6088.15
849.4373	963.1007	7022.4	6146.45
849.5824	965.1119	7057.3	6182.1
849.7275	967.1223	7080.5	6206.45
849.8727	969.1321	7109.7	6236.9
850.0178	971.1412	7128.8	6254.15
850.1629	973.1495	7152.7	6278.65
850.3081	975.1572	7233.7	6310.5
850.4532	977.1641	7188.25	6316.8
850.5983	979.1704	7178	6303.5
850.7435	981.1759	7157.9	6281.2
850.8886	983.1808	7201.5	6326.45
851.0337	985.1849	7317.75	6431
851.1788	987.1884	7441.4	6564.15
851.324	989.1911	7580.4	6702.2
851.4691	991.1932	7712.55	6835.4
851.6142	993.1945	7746.45	6873.55
851.7593	995.1951	7740.15	6864.8
851.9045	997.1951	7683.7	6803.75
852.0496	999.1943	7614	6738.8
852.1947	1001.1928	7587.9	6711.85
852.3398	1003.1906	7564.5	6690.35
852.4849	1005.1877	7589.05	6712.8
852.63	1007.1841	7526.3	6651.45
852.7751	1009.1798	7464.7	6589.95
852.9202	1011.1748	7284.55	6410.75
853.0653	1013.1691	7122.8	6248.75
853.2104	1015.1627	6949.95	6074.75
853.3555	1017.1556	6774.1	5897.75
853.5006	1019.1477	6731.8	5853.9
853.6457	1021.1392	6672.2	5797.5
853.7908	1023.1299	6670.05	5792.4
853.9359	1025.12	6698.15	5820.3
854.081	1027.1093	6718.9	5844.05
854.2261	1029.0979	6802	5928.75
854.3712	1031.0859	6844.95	5968.35
854.5163	1033.0731	6816.55	5939.55
854.6613	1035.0596	6745.4	5869.45
854.8064	1037.0454	6646.75	5771.6
854.9515	1039.0304	6536.3	5660.45
855.0965	1041.0148	6451.45	5577.4
855.2416	1042.9985	6352.25	5475.7
855.3867	1044.9814	6325.7	5448.4
855.5317	1046.9636	6293.75	5416.05
855.6768	1048.9452	6272.35	5399.25
855.8219	1050.926	6281	5405.9
855.9669	1052.9061	6255.6	5382.05
856.112	1054.8855	6265.05	5387.1
856.257	1056.8642	6287.6	5412.4
856.4021	1058.8421	6319.9	5439.2
856.5471	1060.8194	6314.25	5436.9
856.6921	1062.7959	6337.75	5460.55
856.8372	1064.7717	6360.85	5481.2
856.9822	1066.7469	6330.55	5453.3
857.1272	1068.7213	6310.6	5433.15
857.2723	1070.695	6285.95	5409.8
857.4173	1072.6679	6230.25	5355.2
857.5623	1074.6402	6198.05	5322.2
857.7073	1076.6117	6173.3	5291.05
857.8523	1078.5826	6183.05	5305.05
857.9973	1080.5527	6256.8	5378.4
858.1423	1082.5221	6378.85	5500.75
858.2873	1084.4908	6553.55	5675.65
858.4323	1086.4587	6746.05	5869.9
858.5773	1088.426	6843.8	5966.4
858.7223	1090.3925	6859.05	5976.75
858.8673	1092.3584	6809.05	5933.35
859.0123	1094.3235	6647.85	5772.8
859.1573	1096.2879	6552.9	5675.15
859.3022	1098.2515	6512.2	5632.85
859.4472	1100.2145	6532.15	5658
859.5922	1102.1767	6582.8	5702.45
859.7371	1104.1382	6684.55	5807.35
859.8821	1106.099	6864.5	5983.7
860.027	1108.0591	7020.35	6142.7
860.172	1110.0185	7123.85	6245.65
860.3169	1111.9771	7113.25	6233.85
860.4619	1113.9351	6937.55	6060.9
860.6068	1115.8923	6658.8	5780.5
860.7517	1117.8488	6380.8	5501.45
860.8967	1119.8045	6159.7	5280.85
861.0416	1121.7596	6034.5	5156.65
861.1865	1123.7139	5969.6	5090.9
861.3314	1125.6675	5977.4	5100.5
861.4763	1127.6204	6033.25	5155.15
861.6212	1129.5726	6058	5178.5
861.7661	1131.524	6087.35	5208.2
861.911	1133.4748	6089.35	5210.65
862.0559	1135.4248	6151.35	5271.75
862.2008	1137.3741	6154.7	5276.95
862.3457	1139.3226	6142.45	5262.7
862.4905	1141.2705	6122.25	5245.1
862.6354	1143.2176	6073.4	5193.25
862.7803	1145.164	6080.65	5201.05
862.9251	1147.1097	6103.4	5227.05
863.07	1149.0546	6099.3	5220.35
863.2148	1150.9989	6017.15	5137.45
863.3597	1152.9424	5881.4	5002.35
863.5045	1154.8852	5716.75	4839.1
863.6493	1156.8272	5580.45	4703.95
863.7942	1158.7686	5540.35	4651.95
863.939	1160.7092	5503.2	4623.5
864.0838	1162.6491	5482.65	4602.25
864.2286	1164.5883	5536.95	4659.15
864.3734	1166.5267	5597.6	4718.5
864.5182	1168.4644	5696.4	4817.1
864.663	1170.4014	5849.45	4965.5
864.8078	1172.3377	6027.55	5151.1
864.9526	1174.2732	6180.3	5299.85
865.0974	1176.2081	6375.15	5496.85
865.2421	1178.1421	6481.75	5601.15
865.3869	1180.0755	6577.9	5699.95
865.5317	1182.0082	6585.15	5707.2
865.6764	1183.9401	6517.65	5637
865.8212	1185.8713	6369.9	5493.45
865.9659	1187.8017	6156.6	5277.65
866.1106	1189.7315	5935.8	5056.95
866.2554	1191.6605	5760.65	4854.55
866.4001	1193.5888	5604.15	4723.3
866.5448	1195.5163	5471.9	4594.2
866.6895	1197.4432	5415.65	4537.1
866.8342	1199.3693	5365.65	4486.35
866.9789	1201.2947	5329.2	4450.05
867.1236	1203.2193	5301.25	4422.3
867.2683	1205.1432	5329.75	4449.2
867.413	1207.0664	5362.25	4483.4
867.5576	1208.9889	5414.75	4534
867.7023	1210.9106	5483.95	4605.5
867.847	1212.8316	5569.05	4688.45
867.9916	1214.7519	5630.2	4742.35
868.1363	1216.6715	5644.15	4767.25
868.2809	1218.5903	5628.05	4748
868.4255	1220.5084	5588.35	4709.8
868.5701	1222.4257	5578.7	4699.45
868.7148	1224.3424	5545.9	4668.5
868.8594	1226.2583	5565	4683
869.004	1228.1735	5649.05	4769.1
869.1486	1230.0879	5743.7	4863.8
869.2932	1232.0016	5862.15	4983.95
869.4377	1233.9146	5907.9	5025.5
869.5823	1235.8269	5821.85	4943.05
869.7269	1237.7384	5698.45	4819.3
869.8715	1239.6492	5555.55	4677.05
870.016	1241.5592	5468.5	4587.35
870.1606	1243.4686	5405	4523.8
870.3051	1245.3772	5351.7	4472.05
870.4496	1247.285	5289.8	4411.75
870.5941	1249.1922	5256.85	4377.05
870.7387	1251.0986	5248.6	4371.95
870.8832	1253.0042	5254.25	4372.95
871.0277	1254.9092	5321.05	4440.7
871.1722	1256.8134	5395.1	4515.2
871.3167	1258.7169	5535.35	4653.35
871.4611	1260.6196	5621.95	4741.65
871.6056	1262.5216	5766.85	4886.9
871.7501	1264.4229	5890.3	5012.6
871.8945	1266.3234	5943	5061.3
872.039	1268.2232	5992.45	5111.85
872.1834	1270.1223	5980.35	5100.45
872.3278	1272.0207	5952.1	5070.9
872.4723	1273.9183	5923.85	5038.7
872.6167	1275.8151	5847.35	4967.25
872.7611	1277.7113	5772.45	4891.85
872.9055	1279.6067	5645.15	4765.7
873.0499	1281.5014	5524.65	4643.1
873.1943	1283.3953	5414.5	4531.2
873.3386	1285.2885	5316.95	4438
873.483	1287.181	5289.7	4406.15
873.6274	1289.0727	5286.85	4408.75
873.7717	1290.9637	5303.8	4424.65
873.9161	1292.854	5403.95	4525.25
874.0604	1294.7435	5520.6	4639.1
874.2047	1296.6323	5695.75	4815
874.349	1298.5204	5901.35	5019.05
874.4933	1300.4077	6114.3	5233.15
874.6376	1302.2943	6266	5386.7
874.7819	1304.1802	6342.3	5461.3
874.9262	1306.0653	6298.05	5414.05
875.0705	1307.9497	6200.3	5320.6
875.2147	1309.8333	6151.75	5270.2
875.359	1311.7162	6123.65	5242.6
875.5032	1313.5984	6206.3	5323.5
875.6475	1315.4798	6334.25	5441.6
875.7917	1317.3605	6498.95	5600.45
875.9359	1319.2405	6628.15	5747
876.0801	1321.1197	6662.4	5779.55
876.2243	1322.9982	6624.05	5740.9
876.3685	1324.876	6599.8	5720.05
876.5127	1326.753	6576.3	5695.7
876.6569	1328.6293	6590.8	5709.9
876.801	1330.5048	6590.8	5706.65
876.9452	1332.3796	6574.3	5694.4
877.0893	1334.2537	6577.7	5671.65
877.2335	1336.127	6522.5	5641.9
877.3776	1337.9996	6468.15	5586.6
877.5217	1339.8714	6452	5569.95
877.6658	1341.7426	6415.95	5490.85
877.8099	1343.6129	6352.85	5471.75
877.954	1345.4826	6280.3	5398.1
878.0981	1347.3515	6244.2	5360.8
878.2422	1349.2196	6190.6	5308.85
878.3862	1351.087	6187.15	5305.6
878.5303	1352.9537	6228.45	5348.55
878.6743	1354.8197	6332.65	5451.8
878.8184	1356.6849	6460.5	5578.7
878.9624	1358.5493	6513.6	5631.5
879.1064	1360.4131	6508.2	5627.45
879.2504	1362.276	6438.8	5557.85
879.3944	1364.1383	6299.8	5420.05
879.5384	1365.9998	6128.95	5243.2
879.6823	1367.8606	5918.5	5037.45
879.8263	1369.7206	5715.4	4834.55
879.9702	1371.5799	5615.8	4731.35
880.1142	1373.4384	5501.25	4619.6
880.2581	1375.2962	5428.35	4545.1
880.402	1377.1533	5253	4370.25
880.5459	1379.0096	5021.5	4139.05
880.6898	1380.8652	4818.8	3937.2
880.8337	1382.7201	4620.2	3739
880.9776	1384.5742	4495.05	3613.65
881.1215	1386.4275	4386.65	3505.35
881.2653	1388.2802	4281.3	3401.15
881.4092	1390.132	4202.45	3319.65
881.553	1391.9832	4159	3277
881.6968	1393.8336	4113.6	3231.15
881.8406	1395.6832	4109.55	3225.3
881.9844	1397.5322	4080.45	3201.7
882.1282	1399.3803	4072.5	3186.65
882.272	1401.2278	4058.85	3176.3
882.4158	1403.0745	4050.6	3168.8
882.5595	1404.9204	4056	3173.95
882.7033	1406.7656	4065.3	3184
882.847	1408.6101	4063.65	3183.05
882.9908	1410.4538	4096.25	3214.65
883.1345	1412.2968	4127.35	3246.6
883.2782	1414.139	4160.25	3279
883.4219	1415.9805	4225.6	3344.3
883.5656	1417.8213	4297.15	3408.25
883.7092	1419.6613	4418.5	3539.2
883.8529	1421.5006	4565.45	3681.5
883.9965	1423.3391	4799.65	3918.4
884.1402	1425.1769	5082.4	4198.95
884.2838	1427.0139	5496.1	4614.7
884.4274	1428.8502	6002.9	5120.5
884.571	1430.6858	6492.35	5610.2
884.7146	1432.5206	6855.2	5975
884.8582	1434.3547	7051.4	6169.55
885.0018	1436.188	7076.2	6196.1
885.1453	1438.0206	7030.95	6150.6
885.2889	1439.8524	6931.75	6050.55
885.4324	1441.6835	6837.65	5956.3
885.5759	1443.5139	6769.7	5883.25
885.7194	1445.3435	6707.1	5825.4
885.8629	1447.1724	6685.2	5804.1
886.0064	1449.0005	6610.5	5729.8
886.1499	1450.8279	6539.55	5655.45
886.2933	1452.6545	6508.1	5624.65
886.4368	1454.4804	6526.3	5643.9
886.5802	1456.3056	6523.9	5634.95
886.7237	1458.13	6451.55	5569.6
886.8671	1459.9536	6257.75	5375
887.0105	1461.7766	5964.35	5083
887.1539	1463.5987	5636.8	4754.9
887.2972	1465.4202	5322.5	4439.9
887.4406	1467.2409	5033	4151.5
887.584	1469.0608	4813.3	3930.5
887.7273	1470.88	4592.75	3710.65
887.8706	1472.6984	4424.7	3545.6
888.0139	1474.5161	4284.7	3399.7
888.1572	1476.3331	4143.05	3264.3
888.3005	1478.1493	4057.15	3175.9
888.4438	1479.9648	3971.8	3091.45
888.5871	1481.7795	3899.5	3017.9
888.7303	1483.5935	3849.25	2966.6
888.8736	1485.4067	3815.45	2934.85
889.0168	1487.2192	3781.25	2899.25
889.16	1489.031	3745.15	2860.85
889.3032	1490.842	3704	2823.35
889.4464	1492.6522	3677.3	2797.15
889.5896	1494.4618	3660.65	2779.7
889.7327	1496.2705	3640.95	2760.7
889.8759	1498.0785	3605	2721.45
890.019	1499.8858	3601.3	2718.95
890.1622	1501.6924	3586.95	2706.7
890.3053	1503.4981	3574.35	2692.8
890.4484	1505.3032	3563.45	2682.4
890.5914	1507.1075	3557.45	2675.2
890.7345	1508.911	3522.65	2643.1
890.8776	1510.7138	3493.45	2610.85
891.0206	1512.5159	3482.95	2600.75
891.1637	1514.3172	3445.5	2564.9
891.3067	1516.1178	3422.35	2541.6
891.4497	1517.9176	3410.05	2526.45
891.5927	1519.7166	3394.9	2514.65
891.7357	1521.515	3379.9	2491.65
891.8786	1523.3126	3366.55	2482.95
892.0216	1525.1094	3348.15	2465.5
892.1645	1526.9055	3341.95	2462.45
892.3074	1528.7008	3328.8	2445.2
892.4503	1530.4954	3304.7	2423.05
892.5932	1532.2893	3301.25	2419.7
892.7361	1534.0824	3296.6	2407.55
892.879	1535.8747	3288.05	2405.25
893.0218	1537.6663	3287.35	2404.95
893.1647	1539.4572	3281.8	2399.4
893.3075	1541.2473	3281.4	2399.1
893.4503	1543.0367	3257.6	2373.55
893.5931	1544.8253	3254.9	2367.7
893.7359	1546.6132	3260.55	2378.1
893.8787	1548.4003	3265	2373.45
894.0214	1550.1867	3285.4	2395.45
894.1642	1551.9723	3292.7	2405.55
894.3069	1553.7572	3300.1	2418.45
894.4496	1555.5414	3308.05	2424.15
894.5923	1557.3247	3342.3	2460.75
894.735	1559.1074	3380.65	2498.1
894.8777	1560.8893	3423.9	2541.95
895.0204	1562.6705	3477.95	2596.3
895.163	1564.4509	3528.7	2647.5
895.3056	1566.2305	3593.95	2713.65
895.4482	1568.0094	3681.2	2799.45
895.5908	1569.7876	3748.65	2867.8
895.7334	1571.565	3804.65	2924.5
895.876	1573.3417	3841.5	2959.15
896.0186	1575.1176	3850.05	2969
896.1611	1576.8928	3836.65	2955.35
896.3036	1578.6672	3749.3	2869.4
896.4461	1580.4409	3681.25	2799.9
896.5886	1582.2138	3577.65	2693.45
896.7311	1583.986	3469.95	2588.05
896.8736	1585.7575	3397.4	2517.2
897.0161	1587.5282	3340.8	2459.95
897.1585	1589.2981	3294.75	2412.5
897.3009	1591.0673	3260.55	2376.55
897.4433	1592.8358	3247.45	2368.3
897.5857	1594.6035	3252.55	2369.3
897.7281	1596.3704	3231.9	2350.25
897.8705	1598.1366	3245.5	2363.25
898.0128	1599.9021	3268.3	2386.1
898.1551	1601.6668	3277.9	2393.8
898.2975	1603.4308	3317.95	2436.8
898.4398	1605.194	3382.25	2496.8
898.5821	1606.9564	3446.65	2565.5
898.7243	1608.7182	3527.65	2642.15
898.8666	1610.4791	3634.5	2754
899.0088	1612.2394	3766.4	2885.7
899.1511	1613.9988	3921.85	3039.3
899.2933	1615.7576	4084.95	3203.2
899.4355	1617.5156	4269.5	3382.75
899.5776	1619.2728	4456.9	3576.15
899.7198	1621.0293	4593.3	3714.2
899.862	1622.785	4656.25	3775.65
900.0041	1624.54	4615.4	3731.6
900.1462	1626.2942	4514.8	3632.2
900.2883	1628.0477	4321.1	3434.65
900.4304	1629.8005	4140.2	3255.15
900.5725	1631.5525	3968.8	3087.5
900.7145	1633.3037	3789.45	2906.7
900.8566	1635.0542	3642.95	2761.6
900.9986	1636.804	3552.25	2670.6
901.1406	1638.553	3552.45	2598.1
901.2826	1640.3013	3450.3	2570.65
901.4245	1642.0488	3413.25	2530.5
901.5665	1643.7955	3399.4	2520.4
901.7085	1645.5416	3426.9	2544.85
901.8504	1647.2868	3459.3	2579.65
901.9923	1649.0313	3522.1	2641.45
902.1342	1650.7751	3650.7	2765.3
902.2761	1652.5181	3788.35	2908.5
902.4179	1654.2604	3981.3	3097.7
902.5598	1656.0019	4225.65	3346.8
902.7016	1657.7427	4514	3633.5
902.8434	1659.4828	4798.5	3918.5
902.9852	1661.222	4986.7	4106.1
903.127	1662.9606	5019.45	4140.15
903.2687	1664.6984	4890.3	4007.55
903.4105	1666.4354	4623.2	3743.7
903.5522	1668.1717	4271.8	3391.85
903.6939	1669.9072	3926	3046.4
903.8356	1671.642	3640.5	2756.95
903.9773	1673.3761	3404.95	2526.55
904.119	1675.1094	3232.25	2350.15
904.2606	1676.8419	3087.75	2207.25
904.4022	1678.5737	3006.5	2127.05
904.5439	1680.3048	2934.8	2052.1
904.6855	1682.0351	2876.7	1995.55
904.827	1683.7646	2834.15	1951.8
904.9686	1685.4934	2803.7	1924.5
905.1101	1687.2215	2783.85	1902.35
905.2517	1688.9488	2743.3	1864.15
905.3932	1690.6754	2725.6	1845.25
905.5347	1692.4012	2716.8	1839.05
905.6761	1694.1263	2695.9	1814.15
905.8176	1695.8506	2683.2	1802.5
905.9591	1697.5742	2655.45	1775.45
906.1005	1699.297	2661.8	1781.45
906.2419	1701.0191	2637.3	1757.5
906.3833	1702.7404	2624.65	1745.65
906.5246	1704.461	2611.95	1730.25
906.666	1706.1808	2592.4	1711.9
906.8073	1707.8999	2586.85	1704.8
906.9487	1709.6182	2563.25	1683.55
907.09	1711.3358	2566	1686.05
907.2313	1713.0527	2557.75	1678.7
907.3725	1714.7688	2545.4	1659.05
907.5138	1716.4841	2539.2	1656.95
907.655	1718.1987	2531.3	1646.45
907.7962	1719.9126	2522.85	1643.8
907.9374	1721.6257	2500.65	1616.7
908.0786	1723.338	2501.75	1620.3
908.2198	1725.0496	2482.15	1600.8
908.3609	1726.7605	2488.5	1608.6
908.502	1728.4706	2475.45	1592.75
908.6431	1730.18	2464.75	1579.8
908.7842	1731.8886	2458.65	1579.1
908.9253	1733.5964	2450.9	1565.65
909.0664	1735.3036	2439.4	1557.4
909.2074	1737.0099	2450.8	1571.65
909.3484	1738.7156	2440.05	1562.05
909.4894	1740.4204	2420.65	1536.45
909.6304	1742.1246	2429.15	1547.35
909.7714	1743.8279	2431.75	1551.5
909.9123	1745.5306	2425.45	1544.65
910.0532	1747.2325	2411.5	1532.65
910.1941	1748.9336	2402.65	1522.75
910.335	1750.634	2398.85	1516.5
910.4759	1752.3336	2397.25	1517.25
910.6168	1754.0325	2394.05	1514.65
910.7576	1755.7307	2386.55	1506.55
910.8984	1757.4281	2384.05	1502.7
911.0392	1759.1247	2371.3	1483.25
911.18	1760.8206	2378.55	1493.65
911.3208	1762.5158	2368.65	1484.2
911.4615	1764.2102	2371.25	1491
911.6022	1765.9039	2351.5	1470.6
911.7429	1767.5968	2350.25	1469.55
911.8836	1769.289	2345.2	1466.25
912.0243	1770.9804	2348.2	1468.3
912.1649	1772.6711	2332.05	1452.55
912.3056	1774.361	2334.7	1454.55
912.4462	1776.0502	2328.5	1448.45
912.5868	1777.7386	2317.5	1434.65
912.7274	1779.4263	2306.25	1428.65
912.8679	1781.1132	2317.95	1435.55
913.0084	1782.7994	2312.15	1429.8
913.149	1784.4849	2303.45	1422.15
913.2895	1786.1696	2320.9	1421.9
913.4299	1787.8535	2296.05	1416.55
913.5704	1789.5367	2296.45	1416.45
913.7108	1791.2192	2285.8	1407.25
913.8513	1792.9009	2305.3	1397.45
913.9917	1794.5818	2283.25	1403.95
914.132	1796.2621	2279.2	1400.55
914.2724	1797.9415	2276.05	1396.55
914.4128	1799.6202	2273.7	1393.45
914.5531	1801.2982	2270.1	1388.9
914.6934	1802.9755	2260	1380.05
914.8337	1804.6519	2257.5	1375.7
914.9739	1806.3277	2256.85	1377.05
915.1142	1808.0027	2250.55	1374.05
915.2544	1809.6769	2261.05	1380.1
915.3946	1811.3504	2250.5	1367.05
915.5348	1813.0231	2249.8	1370.7
915.675	1814.6951	2238.9	1358.95
915.8151	1816.3664	2245.4	1362.15
915.9553	1818.0369	2242.55	1363.15
916.0954	1819.7067	2233.15	1354.75
916.2355	1821.3757	2232.5	1349.8
916.3755	1823.044	2224.6	1346.25
916.5156	1824.7115	2217	1336.8
916.6556	1826.3783	2223.3	1343.2
916.7956	1828.0443	2207.9	1329.75
916.9356	1829.7096	2208.4	1324.25
917.0756	1831.3741	2212.85	1329.85
917.2155	1833.0379	2199.95	1321.9
917.3555	1834.701	2196.7	1313.55
917.4954	1836.3633	2196.05	1314.65
917.6353	1838.0248	2199.05	1317.25
917.7751	1839.6856	2186.1	1305.2
917.915	1841.3457	2181	1300.6
918.0548	1843.005	2179.2	1300.55
918.1946	1844.6636	2185.25	1306.45
918.3344	1846.3214	2176.25	1297.6
918.4742	1847.9785	2176.35	1296.2
918.6139	1849.6349	2180.7	1301.15
918.7537	1851.2904	2172.85	1283
918.8934	1852.9453	2167.15	1286.1
919.0331	1854.5994	2178.35	1295.9
919.1727	1856.2528	2177.55	1292.25
919.3124	1857.9054	2163.7	1282.95
919.452	1859.5572	2154.3	1275.4
919.5916	1861.2083	2148.3	1266.25
919.7312	1862.8587	2158.35	1278.2
919.8708	1864.5084	2146.8	1266.85
920.0103	1866.1572	2140.7	1262.75
920.1498	1867.8054	2137.65	1257.75
920.2893	1869.4528	2134.35	1254.75
920.4288	1871.0994	2131.2	1253.35
920.5683	1872.7453	2127.35	1246.05
920.7077	1874.3905	2130.7	1241.65
920.8471	1876.0349	2118.8	1235.95
920.9865	1877.6786	2118.05	1237.9
921.1259	1879.3215	2113.55	1234.4
921.2653	1880.9637	2116.2	1234.15
921.4046	1882.6051	2112.05	1232.05
921.5439	1884.2458	2110.25	1228.05
921.6832	1885.8858	2099.1	1216.65
921.8225	1887.525	2103.65	1222.95
921.9617	1889.1634	2088.5	1206.25
922.101	1890.8011	2087.55	1207.2
922.2402	1892.4381	2080.25	1201.4
922.3794	1894.0743	2080.1	1200.9
922.5185	1895.7098	2078.15	1197.45
922.6577	1897.3446	2073.4	1193.85
922.7968	1898.9786	2078.6	1196.4
922.9359	1900.6118	2066.85	1189.55
923.075	1902.2443	2066.9	1181.75
923.214	1903.8761	2059.15	1179.4
923.3531	1905.5071	2050.05	1168.4
923.4921	1907.1374	2054.6	1172.9
923.6311	1908.7669	2051.25	1168.1
923.77	1910.3957	2052.65	1173.3
923.909	1912.0237	2044.55	1164.95
924.0479	1913.651	2046.45	1164.75
924.1868	1915.2776	2033	1155.3
924.3257	1916.9034	2037.35	1161.6
924.4646	1918.5285	2023.3	1146
924.6034	1920.1528	2029.6	1149.75
924.7422	1921.7764	2017.95	1139.25
924.881	1923.3992	2011.5	1133.9
925.0198	1925.0213	2007.05	1125.45
925.1586	1926.6427	2009.05	1129.95
925.2973	1928.2633	2098.35	1113.8
925.436	1929.8832	2014.5	1132.75
925.5747	1931.5023	1990.25	1109.4
925.7134	1933.1207	1992.55	1112.6
925.852	1934.7383	1996.7	1113.95
925.9906	1936.3552	1985.15	1105.65
926.1292	1937.9714	1981.9	1102.65
926.2678	1939.5868	1983.8	1101.85
926.4064	1941.2015	1978.4	1098.2
926.5449	1942.8154	1970.9	1091.55
926.6834	1944.4286	1970.55	1090.3
926.8219	1946.041	1983.2	1078.7
926.9604	1947.6528	1961.7	1079.4
927.0988	1949.2637	1960.8	1081.15
927.2372	1950.8739	1942.45	1061.8
927.3756	1952.4834	1945.9	1065.7
927.514	1954.0921	1935.3	1054.15
927.6523	1955.7001	1938.45	1055.1
927.7907	1957.3074	1939.3	1059.35
927.929	1958.9139	1937.55	1057.25
928.0673	1960.5197	1932.55	1050.8
928.2055	1962.1247	1924.05	1045.75
928.3438	1963.729	1911.05	1032.35
928.482	1965.3325	1930.3	1025.9
928.6202	1966.9353	1897.2	1017.8
928.7584	1968.5374	1908.05	1026.65
928.8965	1970.1387	1904	1020.8
929.0346	1971.7393	1899	1018.75
929.1727	1973.3392	1905.2	1021.65
929.3108	1974.9383	1879.95	1000.8
929.4489	1976.5366	1875.4	994.25
929.5869	1978.1342	1880.6	1000.2
929.7249	1979.7311	1882	1001.1
929.8629	1981.3273	1880.35	997.95
930.0009	1982.9227	1866.55	984.8
930.1388	1984.5173	1876.4	997.15
930.2767	1986.1112	1858.5	977.15
930.4146	1987.7044	1856.95	979.55
930.5525	1989.2968	1865.45	984.85
930.6904	1990.8885	1865	980.8
930.8282	1992.4795	1864.05	983.55
930.966	1994.0697	1851.75	970.05
931.1038	1995.6592	1853	973.25
931.2415	1997.2479	1847.3	967.7
931.3793	1998.8359	1856.5	977.05
931.517	2000.4232	1836.8	955.25
931.6547	2002.0097	1840	961
931.7923	2003.5955	1842.85	962.05
931.93	2005.1805	1836.6	955
932.0676	2006.7648	1831.25	950.7
932.2052	2008.3484	1836.6	954.3
932.3427	2009.9312	1836.3	956.3
932.4803	2011.5133	1827.75	948.05
932.6178	2013.0946	1817.95	937.2
932.7553	2014.6752	1813.8	935
932.8928	2016.2551	1819.8	937.85
933.0302	2017.8342	1812.35	932.35
933.1676	2019.4126	1805.55	924.95
933.305	2020.9902	1808.55	931.2
933.4424	2022.5672	1812.55	929.2
933.5798	2024.1433	1802.95	917.3
933.7171	2025.7188	1799.7	920.35
933.8544	2027.2935	1802.85	919.6
933.9917	2028.8674	1795.25	916.65
934.129	2030.4406	1792.95	912.85
934.2662	2032.0131	1786.7	907.05
934.4034	2033.5849	1782.55	895.4
934.5406	2035.1559	1785.05	905.85
934.6778	2036.7261	1779.8	901.3
934.8149	2038.2957	1778.35	899.2
934.952	2039.8645	1771.35	891
935.0891	2041.4325	1774.3	891.7
935.2262	2042.9998	1776.05	896.85
935.3632	2044.5664	1763.7	882.1
935.5002	2046.1323	1770.5	892.4
935.6372	2047.6974	1767.6	886.75
935.7742	2049.2617	1761.75	882.8
935.9111	2050.8254	1786.2	885.15
936.048	2052.3883	1769.65	888
936.1849	2053.9504	1758.7	878.85
936.3218	2055.5118	1747.8	866.65
936.4586	2057.0725	1754.5	871.55
936.5955	2058.6325	1747.8	866
936.7323	2060.1917	1746	865.55
936.869	2061.7502	1739.2	857.5
937.0058	2063.3079	1733.65	853.35
937.1425	2064.8649	1737.5	852.55
937.2792	2066.4212	1740.3	860.45
937.4159	2067.9767	1732.3	853.8
937.5525	2069.5315	1723.6	844.6
937.6891	2071.0856	1721.1	839.65
937.8257	2072.6389	1727.75	847.25
937.9623	2074.1915	1718.35	839.1
938.0989	2075.7433	1717.95	834.8
938.2354	2077.2945	1709.3	831.85
938.3719	2078.8448	1709.3	829.3
938.5084	2080.3945	1708.95	828.85
938.6448	2081.9434	1706.9	826.7
938.7812	2083.4916	1705.05	824.25
938.9176	2085.039	1705.35	824.5
939.054	2086.5857	1698.05	816.5
939.1903	2088.1317	1692.2	813.7
939.3267	2089.677	1688	806.85
939.463	2091.2215	1688.65	809.2
939.5992	2092.7652	1675.85	795.3
939.7355	2094.3083	1688.55	806
939.8717	2095.8506	1682.55	802.55
940.0079	2097.3921	1673	792.95
940.1441	2098.933	1682.75	801.65
940.2802	2100.4731	1684	805.1
940.4163	2102.0124	1684.45	797.7
940.5524	2103.5511	1670.35	790.55
940.6885	2105.089	1679.45	797.35
940.8245	2106.6261	1677.4	796.9
940.9606	2108.1626	1673.05	791.1
941.0965	2109.6983	1701.35	794.35
941.2325	2111.2332	1661.55	780.5
941.3684	2112.7675	1670	788.55
941.5044	2114.301	1665.3	783.3
941.6403	2115.8337	1660.6	780.2
941.7761	2117.3657	1656.85	776.85
941.912	2118.897	1657.3	776.2
942.0478	2120.4276	1669.25	782.35
942.1835	2121.9575	1653.65	773.95
942.3193	2123.4866	1666.65	772.3
942.455	2125.0149	1644.8	759.4
942.5907	2126.5426	1643.1	764.25
942.7264	2128.0695	1645.15	759.65
942.8621	2129.5956	1636.25	756.5
942.9977	2131.1211	1647.35	762.95
943.1333	2132.6458	1635.4	755.35
943.2689	2134.1698	1638.25	760.1
943.4044	2135.693	1636.7	754.3
943.54	2137.2155	1636.1	752.85
943.6755	2138.7373	1637.95	757.55
943.8109	2140.2584	1631.55	750.1
943.9464	2141.7787	1640.45	753.75
944.0818	2143.2983	1627.6	747.65
944.2172	2144.8171	1620.2	740.3
944.3526	2146.3353	1615.85	732.65
944.4879	2147.8527	1621.4	741.2
944.6232	2149.3693	1617.35	735.75
944.7585	2150.8853	1618.4	739.7
944.8938	2152.4005	1606.6	726.45
945.029	2153.9149	1609.7	730.35
945.1642	2155.4287	1601.45	721.2
945.2994	2156.9417	1603.2	718.9
945.4346	2158.454	1609.15	727.75
945.5697	2159.9655	1597.15	716.95
945.7048	2161.4764	1607.35	728.4
945.8399	2162.9865	1599.9	717.6
945.9749	2164.4958	1604.6	720.3
946.1099	2166.0045	1601.15	716.65
946.2449	2167.5124	1596.5	715.4
946.3799	2169.0195	1586.95	708.4
946.5148	2170.526	1588.3	707.2
946.6498	2172.0317	1593.3	711.2
946.7846	2173.5367	1592.05	712.45
946.9195	2175.0409	1575.2	694
947.0543	2176.5445	1592.55	712.4
947.1891	2178.0473	1586.95	704.15
947.3239	2179.5494	1581.85	696.3
947.4587	2181.0507	1583.15	701.5
947.5934	2182.5513	1583.1	701.55
947.7281	2184.0512	1572.95	694.65
947.8628	2185.5504	1579.65	699.4
947.9974	2187.0488	1569.75	687.75
948.132	2188.5465	1572.6	691.4
948.2666	2190.0435	1570.3	688.75
948.4012	2191.5397	1565.5	684.45
948.5357	2193.0353	1559.4	678.35
948.6702	2194.5301	1556.4	673
948.8047	2196.0241	1552.95	673.95
948.9392	2197.5175	1564.6	685.45
949.0736	2199.0101	1562	677.9
949.208	2200.502	1542.75	663.2
949.3424	2201.9931	1548.7	666.8
949.4767	2203.4835	1551.8	670.9
949.611	2204.9733	1549.55	660.4
949.7453	2206.4622	1539.2	657.9
949.8796	2207.9505	1541.45	657.35
950.0138	2209.438	1532.25	653.25
950.148	2210.9248	1539.9	657.65
950.2822	2212.4109	1538.65	659.25
950.4164	2213.8962	1532.05	648.95
950.5505	2215.3809	1530.65	647.95
950.6846	2216.8648	1526.55	645.45
950.8186	2218.3479	1529.5	645.1
950.9527	2219.8304	1526.45	642.6
951.0867	2221.3121	1522.3	640.15
951.2207	2222.7931	1520.5	642.55
951.3546	2224.2733	1512.4	630.6
951.4886	2225.7529	1519.75	638.85
951.6225	2227.2317	1515.6	632.75
951.7563	2228.7098	1515.45	635.7
951.8902	2230.1872	1504.75	624.55
952.024	2231.6638	1508.75	627.6
952.1578	2233.1397	1514.5	626.8
952.2916	2234.6149	1502.45	622
952.4253	2236.0894	1496.2	613.55
952.559	2237.5632	1504.65	614.65
952.6927	2239.0362	1494.7	613.95
952.8263	2240.5085	1490.2	610
952.9599	2241.9801	1496.3	616.3
953.0935	2243.4509	1483.05	598.9
953.2271	2244.921	1491.3	610.35
953.3606	2246.3904	1491.85	611.05
953.4941	2247.8591	1475.85	596.45
953.6276	2249.3271	1483.45	604.3
953.7611	2250.7943	1483.25	601.45
953.8945	2252.2608	1473.75	594.8
954.0279	2253.7266	1477.3	596
954.1612	2255.1917	1475.1	595.05
954.2946	2256.656	1477.55	594.6
954.4279	2258.1197	1474.9	596.15
954.5612	2259.5826	1473.15	589.4
954.6944	2261.0447	1468.75	587.75
954.8276	2262.5062	1464.35	580.4
954.9608	2263.9669	1465.45	582.8
955.094	2265.4269	1465.5	585.25
955.2271	2266.8862	1463.95	583.15
955.3602	2268.3448	1463.05	582.2
955.4933	2269.8026	1461	578.8
955.6264	2271.2598	1467.35	587.05
955.7594	2272.7162	1461.7	580.5
955.8924	2274.1719	1456.25	577.05
956.0253	2275.6268	1457.75	575.55
956.1583	2277.0811	1458.15	578.85
956.2912	2278.5346	1447.6	568.85
956.4241	2279.9874	1454.35	574.05
956.5569	2281.4395	1450.4	570.45
956.6897	2282.8908	1451.05	564.8
956.8225	2284.3414	1442.6	559.8
956.9553	2285.7914	1443.5	562.75
957.088	2287.2406	1442.75	559.55
957.2207	2288.689	1433.4	553.75
957.3534	2290.1368	1441.05	561.55
957.486	2291.5838	1437.2	553.45
957.6186	2293.0302	1436.35	555.4
957.7512	2294.4758	1435.9	554.55
957.8838	2295.9206	1438.3	555.65
958.0163	2297.3648	1431.6	550.45
958.1488	2298.8082	1429.25	548.5
958.2813	2300.251	1421.55	540
958.4137	2301.693	1431.95	548.45
958.5461	2303.1343	1432.1	552.1
958.6785	2304.5748	1421.05	540.6
958.8108	2306.0147	1421.4	539.75
958.9432	2307.4538	1419.25	537.1
959.0754	2308.8922	1410.85	532.05
959.2077	2310.3299	1420.55	539.5
959.3399	2311.7669	1416.4	536.3
959.4721	2313.2031	1413.55	530.85
959.6043	2314.6387	1412.95	531.15
959.7365	2316.0735	1409.15	529.55
959.8686	2317.5076	1410.35	528.9
960.0006	2318.941	1400.45	520.3
960.1327	2320.3737	1406.85	525.4
960.2647	2321.8056	1404.45	523.85
960.3967	2323.2369	1402.95	521.7
960.5287	2324.6674	1405.65	525
960.6606	2326.0972	1396.65	513.1
960.7925	2327.5263	1398.65	516
960.9244	2328.9547	1407.45	523.7
961.0562	2330.3823	1402.9	521.7
961.1881	2331.8092	1402.7	518.45
961.3198	2333.2355	1394.35	513.55
961.4516	2334.661	1393.6	512.2
961.5833	2336.0858	1400	515.8
961.715	2337.5098	1394.15	514.8
961.8467	2338.9332	1392.45	509.4
961.9783	2340.3558	1396.55	512.55
962.1099	2341.7778	1386.85	506.5
962.2415	2343.199	1388.85	506.55
962.373	2344.6195	1382.85	501.2
962.5045	2346.0393	1386.5	507.15
962.636	2347.4583	1387.95	506.8
962.7675	2348.8767	1381.65	501.05
962.8989	2350.2943	1385.05	502.55
963.0303	2351.7113	1387.85	505.05
963.1617	2353.1275	1390.05	509.35
963.293	2354.543	1404.85	499.35
963.4243	2355.9578	1384	503.15
963.5556	2357.3718	1375.45	496.35
963.6868	2358.7852	1375.65	491.15
963.818	2360.1978	1374.6	490.2
963.9492	2361.6098	1375.9	497.7
964.0803	2363.021	1375.5	490.3
964.2114	2364.4315	1375.9	496.2
964.3425	2365.8413	1367.65	487.3
964.4736	2367.2504	1366.55	485.25
964.6046	2368.6587	1355.1	474.1
964.7356	2370.0664	1355.5	474.45
964.8666	2371.4733	1360.8	480.05
964.9975	2372.8795	1358.2	479.25
965.1284	2374.285	1354.2	472.55
965.2593	2375.6899	1363.05	482.6
965.3901	2377.0939	1354.75	475.4
965.5209	2378.4973	1351.9	472.65
965.6517	2379.9	1353.35	473.8
965.7825	2381.3019	1347.75	465.65
965.9132	2382.7032	1352.1	474
966.0439	2384.1037	1351.4	472.95
966.1745	2385.5035	1346.55	469.05
966.3051	2386.9027	1342.1	462.1
966.4357	2388.3011	1348.95	467.3
966.5663	2389.6987	1346.1	465.25
966.6968	2391.0957	1337	456.5
966.8273	2392.492	1334.05	453.75
966.9578	2393.8876	1330.2	449
967.0882	2395.2824	1332.3	452.25
967.2186	2396.6765	1326.85	448.45
967.349	2398.07	1326.9	448.6
967.4793	2399.4627	1327.8	445.35
967.6097	2400.8547	1329.1	448.5
967.7399	2402.246	1336.8	451.85
967.8702	2403.6366	1324.95	445.75
968.0004	2405.0265	1320.4	440.3
968.1306	2406.4156	1331.7	446.55
968.2607	2407.8041	1323.9	440.95
968.3909	2409.1918	1319	436.85
968.521	2410.5789	1319.6	439
968.651	2411.9652	1324.35	442.1
968.781	2413.3508	1319.05	438.35
968.911	2414.7358	1322.5	441.9
969.041	2416.12	1309.65	430
969.1709	2417.5035	1323.5	445.15
969.3008	2418.8863	1311.85	430.95
969.4307	2420.2684	1315.65	436.45
969.5606	2421.6497	1310.55	431
969.6904	2423.0304	1307.1	429.35
969.8201	2424.4104	1310.3	430.3
969.9499	2425.7896	1317.9	434.7
970.0796	2427.1682	1305.05	425.15
970.2093	2428.546	1304.7	424.8
970.3389	2429.9232	1313.3	431.05
970.4685	2431.2996	1301.5	422.7
970.5981	2432.6753	1302.95	423.35
970.7277	2434.0503	1302.25	422.2
970.8572	2435.4246	1296.9	417.25
970.9867	2436.7982	1296.5	416
971.1161	2438.1711	1292.65	412
971.2456	2439.5433	1300.85	420.1
971.375	2440.9148	1298.75	412.75
971.5043	2442.2856	1292.3	413.05
971.6336	2443.6557	1292.6	409.65
971.7629	2445.025	1289.1	411.25
971.8922	2446.3937	1285.65	405.05
972.0214	2447.7617	1291.2	410.25
972.1506	2449.1289	1287.3	407.55
972.2798	2450.4955	1288.15	403.75
972.4089	2451.8613	1279.75	402.5
972.538	2453.2265	1289	409.75
972.6671	2454.5909	1281.05	399.85
972.7961	2455.9546	1285.25	408.15
972.9251	2457.3177	1283.9	403.5
973.0541	2458.68	1284.35	403.15
973.1831	2460.0416	1291	412.7
973.312	2461.4025	1285.35	403.6
973.4408	2462.7627	1293.05	401.5
973.5697	2464.1222	1279.1	399.35
973.6985	2465.4811	1282.8	401.05
973.8273	2466.8392	1281.95	403.4
973.956	2468.1966	1277.2	394
974.0847	2469.5533	1286.9	403.75
974.2134	2470.9093	1279.9	398.7
974.3421	2472.2645	1284.1	400.8
974.4707	2473.6191	1278.7	398.4
974.5993	2474.973	1272.7	393.4
974.7278	2476.3262	1271.85	389.6
974.8563	2477.6787	1267.35	389
974.9848	2479.0305	1271.25	391.35
975.1132	2480.3816	1268.1	388.45
975.2417	2481.7319	1272.15	391.7
975.37	2483.0816	1274.15	389.65
975.4984	2484.4306	1269.25	388.2
975.6267	2485.7789	1258.15	376.85
975.755	2487.1264	1269.75	388.8
975.8833	2488.4733	1258.7	379.05
976.0115	2489.8195	1282.7	385.75
976.1397	2491.165	1267.4	384.55
976.2678	2492.5097	1258.3	376.05
976.3959	2493.8538	1252.45	370.6
976.524	2495.1972	1261.85	380.55
976.6521	2496.5398	1257.7	377.7
976.7801	2497.8818	1257.85	376.45
976.9081	2499.2231	1254.35	372.5
977.036	2500.5637	1256.4	375.15
977.164	2501.9035	1250.1	367.35
977.2918	2503.2427	1252.95	368.45
977.4197	2504.5812	1250.95	371.55
977.5475	2505.919	1250.8	364.95
977.6753	2507.256	1253.9	374.25
977.8031	2508.5924	1247.25	367.4
977.9308	2509.9281	1250.1	363.35
978.0585	2511.2631	1250.8	370.95
978.1861	2512.5974	1250.85	371
978.3137	2513.9309	1248.7	367.2
978.4413	2515.2638	1277.55	362.4
978.5689	2516.596	1242.6	364.4
978.6964	2517.9275	1247.25	365.7
978.8239	2519.2583	1245.55	363.5
978.9513	2520.5884	1239.2	357.75
979.0788	2521.9178	1242.95	362.5
979.2062	2523.2465	1234.5	354.15
979.3335	2524.5745	1236.7	356.35
979.4608	2525.9018	1241.9	362.15
979.5881	2527.2284	1232.25	352.9
979.7154	2528.5543	1236.3	355.85
979.8426	2529.8796	1238.9	358.75
979.9698	2531.2041	1234.1	353.1
980.0969	2532.5279	1232.6	352.6
980.224	2533.851	1233.3	351.55
980.3511	2535.1735	1227.9	348.5
980.4781	2536.4952	1230.8	349.75
980.6052	2537.8163	1232.1	351.85
980.7321	2539.1366	1233.75	353.35
980.8591	2540.4562	1229.45	348.25
980.986	2541.7752	1230.75	352.2
981.1129	2543.0935	1227.05	344.6
981.2397	2544.411	1227.95	345.05
981.3665	2545.7279	1223.85	344.8
981.4933	2547.0441	1223.8	343.65
981.62	2548.3596	1230.4	347.4
981.7467	2549.6744	1224.6	341.55
981.8734	2550.9885	1228.05	339.85
982.0001	2552.3019	1221.55	342.8
982.1267	2553.6146	1222.3	340.55
982.2532	2554.9266	1221.8	340.7
982.3798	2556.2379	1227.9	344.65
982.5063	2557.5485	1217.95	338.35
982.6327	2558.8585	1224.35	336.7
982.7592	2560.1677	1225.5	340.8
982.8856	2561.4762	1216.25	336.95
983.0119	2562.7841	1221	336.85
983.1383	2564.0913	1214.65	336.5
983.2646	2565.3977	1214.4	332.55
983.3908	2566.7035	1208.85	327.05
983.517	2568.0086	1214.5	331.5
983.6432	2569.313	1213.95	334.25
983.7694	2570.6167	1215.65	330.4
983.8955	2571.9197	1210.6	331.3
984.0216	2573.222	1212.5	329.05
984.1476	2574.5236	1211.75	330.7
984.2737	2575.8246	1215.85	332.2
984.3996	2577.1248	1214.2	332.2
984.5256	2578.4244	1211.8	333.75
984.6515	2579.7232	1211.5	330.05
984.7774	2581.0214	1241.9	330.25
984.9032	2582.3189	1215.2	334.85
985.029	2583.6157	1218.9	334.4
985.1548	2584.9118	1213.65	330.9
985.2806	2586.2072	1211.65	331.2
985.4063	2587.5019	1212.35	332.6
985.5319	2588.7959	1217.9	338.95
985.6576	2590.0893	1217.7	334.8
985.7832	2591.3819	1222.3	345.05
985.9087	2592.6739	1225.1	344.25
986.0343	2593.9652	1221.25	338.25
986.1597	2595.2557	1225.9	344.15
986.2852	2596.5456	1228.55	346.6
986.4106	2597.8348	1223.75	342.4
986.536	2599.1234	1225	344.1
986.6614	2600.4112	1225.3	347
986.7867	2601.6983	1230.75	348.05
986.912	2602.9848	1229.9	349.15
987.0372	2604.2705	1232.75	346.25
987.1624	2605.5556	1227.95	346.8
987.2876	2606.84	1224.3	342.85
987.4128	2608.1237	1226.05	343.15
987.5379	2609.4067	1226.55	345.4
987.6629	2610.689	1234.7	345.3
987.788	2611.9707	1222.95	340.4
987.913	2613.2516	1229.1	346.5
988.0379	2614.5319	1216.95	337.65
988.1629	2615.8115	1218.75	337
988.2878	2617.0903	1219.15	337.75
988.4126	2618.3685	1218.25	337.1
988.5375	2619.6461	1219.15	336.25
988.6622	2620.9229	1221.8	339.8
988.787	2622.199	1219.95	337.65
988.9117	2623.4745	1219	337.75
989.0364	2624.7493	1215.8	334.65
989.161	2626.0234	1221.6	342.85
989.2857	2627.2968	1219.8	338.2
989.4102	2628.5695	1224.05	343.1
989.5348	2629.8415	1222.95	344.15
989.6593	2631.1128	1220.3	336.35
989.7837	2632.3835	1223.7	342.55
989.9082	2633.6535	1223	343.75
990.0326	2634.9228	1219.9	341.35
990.1569	2636.1914	1220.65	340.3
990.2812	2637.4593	1222.7	340.85
990.4055	2638.7265	1223.1	342.3
990.5298	2639.9931	1219.15	339.8
990.654	2641.259	1222.35	341.05
990.7782	2642.5242	1216.1	332.75
990.9023	2643.7887	1213.8	334.7
991.0264	2645.0525	1215.05	335.55
991.1505	2646.3156	1211.85	330.45
991.2745	2647.5781	1215.9	335.1
991.3985	2648.8398	1212.4	332.7
991.5225	2650.1009	1210.8	324.35
991.6464	2651.3613	1213.55	331.85
991.7703	2652.6211	1207.9	329.05
991.8942	2653.8801	1213.1	333
992.018	2655.1385	1208.15	325.15
992.1418	2656.3961	1213.65	333.9
992.2655	2657.6531	1204	323.75
992.3892	2658.9094	1211	328.45
992.5129	2660.1651	1211.4	330.95
992.6366	2661.42	1213	330.7
992.7602	2662.6743	1220.25	339.8
992.8837	2663.9279	1214.8	333.9
993.0073	2665.1808	1217.5	337.45
993.1307	2666.433	1216.25	334.65
993.2542	2667.6846	1218.2	338.15
993.3776	2668.9354	1220.85	336.5
993.501	2670.1856	1226.8	345.4
993.6244	2671.4351	1222.15	341.5
993.7477	2672.6839	1225	341
993.8709	2673.9321	1229.3	350.6
993.9942	2675.1795	1224.6	343.85
994.1174	2676.4263	1231.7	349.7
994.2405	2677.6724	1231.6	351.1
994.3637	2678.9179	1235.55	355.7
994.4868	2680.1626	1232.3	352
994.6098	2681.4067	1239.95	358.6
994.7328	2682.6501	1229.2	347.25
994.8558	2683.8928	1234.1	353.75
994.9788	2685.1348	1230.55	350.1
995.1017	2686.3761	1225.55	343.1
995.2245	2687.6168	1229.35	347.1
995.3474	2688.8568	1226.95	345.25
995.4702	2690.0961	1230.4	352.65
995.5929	2691.3348	1231.8	350.95
995.7156	2692.5727	1220.05	340.95
995.8383	2693.81	1221.25	340.3
995.961	2695.0466	1221.25	342.4
996.0836	2696.2826	1215.25	334.55
996.2062	2697.5178	1235.4	332.65
996.3287	2698.7524	1216.1	335.3
996.4512	2699.9863	1218.45	336.3
996.5737	2701.2195	1224.85	345.8
996.6961	2702.452	1229.6	347.2
996.8185	2703.6839	1227.25	346.65
996.9408	2704.9151	1238.6	358.1
997.0631	2706.1456	1235.2	354.65
997.1854	2707.3755	1243.3	362
997.3077	2708.6046	1248.95	365.8
997.4299	2709.8331	1255.25	372.45
997.552	2711.0609	1260.1	379.55
997.6742	2712.2881	1266.95	385.6
997.7963	2713.5145	1281.05	396.35
997.9183	2714.7403	1286.2	406.3
998.0403	2715.9654	1290.25	408.3
998.1623	2717.1899	1312.55	415.95
998.2842	2718.4136	1309.75	430
998.4062	2719.6367	1317.2	436
998.528	2720.8591	1328.5	440.3
998.6498	2722.0809	1330.2	450.55
998.7716	2723.3019	1345.65	462.5
998.8934	2724.5223	1349.1	467.4
999.0151	2725.7421	1359.45	477.4
999.1368	2726.9611	1351.25	468.05
999.2584	2728.1795	1359.3	473.65
999.38	2729.3972	1346.4	464.7
999.5016	2730.6142	1349.75	457
999.6231	2731.8306	1333.7	451.8
999.7446	2733.0462	1322.65	439.25
999.8661	2734.2612	1312.4	427.85
999.9875	2735.4756	1299	416.75
1000.1089	2736.6892	1282.75	398.2
1000.2302	2737.9022	1266.05	386.8
1000.3515	2739.1145	1264.6	383.85
1000.4728	2740.3262	1257.05	367.75
1000.594	2741.5372	1242.2	361.5
1000.7152	2742.7475	1236.4	356.3
1000.8363	2743.9571	1230.5	346.6
1000.9575	2745.1661	1217.75	333.35
1001.0785	2746.3744	1213.95	332.15
1001.1996	2747.582	1204.85	324.15
1001.3206	2748.7889	1203.4	321.7
1001.4415	2749.9952	1193.7	313.05
1001.5625	2751.2008	1191.85	307.7
1001.6833	2752.4057	1196	311.9
1001.8042	2753.61	1189.5	308.15
1001.925	2754.8136	1186.7	302.65
1002.0458	2756.0165	1188.55	308.65
1002.1665	2757.2188	1184.15	305.85
1002.2872	2758.4204	1184.85	304.2
1002.4078	2759.6213	1186.35	301.55
1002.5285	2760.8215	1192.35	306.45
1002.649	2762.0211	1182.6	300.05
1002.7696	2763.22	1196.15	312.35
1002.8901	2764.4182	1183.65	301
1003.0106	2765.6158	1185.8	303
1003.131	2766.8127	1182.8	301.2
1003.2514	2768.009	1176.4	296.35
1003.3717	2769.2045	1176.75	296.05
1003.492	2770.3994	1178.75	295.6
1003.6123	2771.5936	1175.8	293
1003.7325	2772.7872	1178.3	298.75
1003.8527	2773.9801	1172.55	289.2
1003.9729	2775.1723	1192.4	293.8
1004.093	2776.3639	1172.25	291.65
1004.2131	2777.5548	1172.5	289.8
1004.3331	2778.745	1174.45	292
1004.4531	2779.9346	1175.2	293.55
1004.5731	2781.1235	1180.1	296.8
1004.693	2782.3117	1181.35	300.15
1004.8129	2783.4992	1189.7	309.25
1004.9328	2784.6861	1191.25	310.65
1005.0526	2785.8723	1201.95	319.55
1005.1723	2787.0579	1204.35	323.55
1005.2921	2788.2428	1207.15	327.85
1005.4118	2789.427	1215.65	334.2
1005.5314	2790.6106	1228.95	345.95
1005.651	2791.7935	1233.5	351.65
1005.7706	2792.9757	1242.1	362.6
1005.8902	2794.1573	1255.1	372.3
1006.0097	2795.3382	1269.5	388.45
1006.1291	2796.5184	1281.65	402.05
1006.2485	2797.698	1296.35	415.35
1006.3679	2798.8769	1304.95	424.05
1006.4873	2800.0551	1324.7	444.45
1006.6066	2801.2327	1342.4	461.6
1006.7258	2802.4096	1352.2	472.55
1006.8451	2803.5859	1368.45	487.8
1006.9642	2804.7615	1384.6	502.55
1007.0834	2805.9364	1410.7	531.35
1007.2025	2807.1106	1426.4	546.35
1007.3216	2808.2842	1453.8	572
1007.4406	2809.4572	1480.95	601.5
1007.5596	2810.6294	1518.25	634.95
1007.6785	2811.801	1549.5	668.4
1007.7975	2812.972	1580.45	700.8
1007.9163	2814.1423	1618.1	737.5
1008.0352	2815.3119	1654.6	773.35
1008.154	2816.4808	1698.55	817.85
1008.2727	2817.6491	1733.1	849.4
1008.3914	2818.8167	1765.35	886.25
1008.5101	2819.9837	1809.7	924.25
1008.6288	2821.15	1841.3	959.55
1008.7474	2822.3157	1882.5	1001.95
1008.8659	2823.4807	1915.9	1033.2
1008.9844	2824.645	1947.25	1064.3
1009.1029	2825.8086	1977.35	1098.1
1009.2214	2826.9716	2008.45	1128.8
1009.3398	2828.134	2043.35	1161.2
1009.4581	2829.2957	2077.05	1193.65
1009.5764	2830.4567	2097.75	1219.75
1009.6947	2831.617	2114.5	1232.5
1009.813	2832.7767	2118.65	1238.5
1009.9312	2833.9358	2116.35	1236.75
1010.0493	2835.0941	2125.15	1242.75
1010.1675	2836.2519	2107.4	1227.15
1010.2855	2837.4089	2099.75	1217.45
1010.4036	2838.5653	2089.05	1209.9
1010.5216	2839.7211	2089.7	1210.6
1010.6396	2840.8761	2106.3	1225.05
1010.7575	2842.0306	2115.4	1235.3
1010.8754	2843.1843	2145.5	1264.5
1010.9932	2844.3374	2189.6	1310.45
1011.111	2845.4899	2228.8	1348.3
1011.2288	2846.6417	2285	1406
1011.3465	2847.7928	2339.25	1459.65
1011.4642	2848.9433	2415.85	1533.15
1011.5818	2850.0931	2486.65	1605.3
1011.6995	2851.2422	2562.55	1679.6
1011.817	2852.3907	2604.05	1723.2
1011.9345	2853.5385	2657.8	1776.2
1012.052	2854.6857	2726.95	1816
1012.1695	2855.8323	2744.05	1862.8
1012.2869	2856.9781	2788	1907.8
1012.4042	2858.1233	2823.55	1941.65
1012.5216	2859.2679	2867.75	1987.55
1012.6389	2860.4118	2900.05	2018.85
1012.7561	2861.555	2932.75	2048.35
1012.8733	2862.6976	2964.65	2081.05
1012.9905	2863.8395	2986.3	2105.5
1013.1076	2864.9808	2998.4	2118.05
1013.2247	2866.1214	3000.9	2121.4
1013.3417	2867.2614	3023.25	2140.8
1013.4587	2868.4007	3038.75	2157.4
1013.5757	2869.5393	3042.15	2158
1013.6926	2870.6773	3072.3	2188.4
1013.8095	2871.8146	3081.3	2197.15
1013.9263	2872.9513	3087.8	2204.2
1014.0431	2874.0874	3079.3	2197.75
1014.1599	2875.2227	3076.1	2195.4
1014.2766	2876.3574	3054.4	2173.45
1014.3933	2877.4915	3044.4	2165.7
1014.51	2878.6249	3013.5	2132.15
1014.6266	2879.7577	2990.05	2108.8
1014.7431	2880.8898	2997	2106.45
1014.8596	2882.0212	2967.9	2086.3
1014.9761	2883.152	2959.9	2079.5
1015.0925	2884.2821	2955.95	2074.7
1015.2089	2885.4116	2948.7	2069.7
1015.3253	2886.5405	2945.45	2064.15
1015.4416	2887.6686	2953.3	2068.8
1015.5579	2888.7962	2957.05	2076.75
1015.6741	2889.923	2966.65	2086.85
1015.7903	2891.0493	2976.95	2095.05
1015.9065	2892.1748	2995.3	2114.65
1016.0226	2893.2997	2986.6	2104
1016.1387	2894.424	3007.05	2128.6
1016.2547	2895.5476	3026.3	2144.65
1016.3707	2896.6706	3037.75	2158.9
1016.4866	2897.7929	3078.2	2198.5
1016.6025	2898.9145	3087.25	2207.45
1016.7184	2900.0355	3114.9	2233.6
1016.8342	2901.1559	3136.65	2256.7
1016.95	2902.2756	3173.5	2292.4
1017.0658	2903.3946	3202.5	2320.85
1017.1815	2904.513	3225.9	2340.1
1017.2971	2905.6308	3237	2357.75
1017.4127	2906.7479	3266.7	2384.8
1017.5283	2907.8643	3281.5	2399.85
1017.6439	2908.9801	3291.5	2408.65
1017.7594	2910.0953	3299.4	2418.95
1017.8748	2911.2098	3298.5	2415.45
1017.9902	2912.3236	3303	2414
1018.1056	2913.4368	3291.3	2408.8
1018.2209	2914.5494	3288.1	2406.35
1018.3362	2915.6613	3239.4	2352.15
1018.4515	2916.7725	3222.5	2339.3
1018.5667	2917.8831	3206.6	2325.2
1018.6819	2918.9931	3187.75	2305.3
1018.797	2920.1024	3154.5	2272.9
1018.9121	2921.211	3140.5	2258.4
1019.0271	2922.319	3139.35	2259.4
1019.1421	2923.4264	3118.6	2239.35
1019.2571	2924.5331	3113.6	2235.8
1019.372	2925.6391	3095.65	2215.8
1019.4869	2926.7445	3078.05	2197.25
1019.6017	2927.8493	3094.25	2213.15
1019.7165	2928.9534	3080.15	2199.15
1019.8313	2930.0569	3079.2	2196.4
1019.946	2931.1597	3069.55	2185.95
1020.0606	2932.2619	3050.7	2170.9
1020.1753	2933.3634	3050.9	2172.25
1020.2899	2934.4643	3056.6	2168.05
1020.4044	2935.5645	3033.8	2147.3
1020.5189	2936.6641	2986.05	2101.95
1020.6334	2937.763	2957.25	2076.8
1020.7478	2938.8613	2915.4	2035.1
1020.8622	2939.959	2878.15	1991
1020.9765	2941.056	2819.05	1938.5
1021.0908	2942.1523	2745.9	1863.05
1021.2051	2943.248	2689.5	1808.5
1021.3193	2944.3431	2598.3	1717.5
1021.4334	2945.4375	2515.7	1636.15
1021.5476	2946.5313	2449.85	1569.85
1021.6617	2947.6244	2363.55	1481.7
1021.7757	2948.7169	2284.65	1403.25
1021.8897	2949.8087	2191.8	1309.9
1022.0037	2950.8999	2133.6	1250.75
1022.1176	2951.9904	2065.95	1184.3
1022.2315	2953.0803	2013.7	1132.15
1022.3453	2954.1696	1964.3	1084.85
1022.4591	2955.2582	1918.4	1036.75
1022.5728	2956.3462	1874.45	993.8
1022.6865	2957.4335	1850.3	969.3
1022.8002	2958.5202	1825.7	941.25
1022.9138	2959.6062	1792.5	910.75
1023.0274	2960.6916	1781.4	903.15
1023.141	2961.7764	1770.2	888.95
1023.2545	2962.8605	1755.9	873.45
1023.3679	2963.9439	1742.55	862.15
1023.4813	2965.0267	1733.75	852.2
1023.5947	2966.1089	1745.8	843.4
1023.708	2967.1905	1721.2	840.35
1023.8213	2968.2714	1726.8	847.15
1023.9346	2969.3516	1723.15	842.65
1024.0478	2970.4312	1733.85	843.55
1024.1609	2971.5102	1724.6	844.2
1024.274	2972.5885	1724.95	846.55
1024.3871	2973.6662	1732.9	846.95
1024.5002	2974.7432	1724.95	844.95
1024.6132	2975.8196	1726	843.65
1024.7261	2976.8954	1710.35	832
1024.839	2977.9705	1714.35	834.65
1024.9519	2979.045	1692.05	810.05
1025.0647	2980.1188	1679.35	800.1
1025.1775	2981.192	1666.55	786.55
1025.2902	2982.2645	1651.3	769.15
1025.4029	2983.3364	1630.05	750.7
1025.5156	2984.4077	1593.95	713.1
1025.6282	2985.4783	1592.35	705.1
1025.7407	2986.5483	1552.5	672.3
1025.8532	2987.6177	1524.9	645.2
1025.9657	2988.6864	1500.55	620
1026.0782	2989.7545	1473.15	591.15
1026.1906	2990.8219	1449.25	570.3
1026.3029	2991.8887	1427.75	544
1026.4152	2992.9548	1398.25	517.55
1026.5275	2994.0204	1375.3	494.5
1026.6397	2995.0852	1355.6	477.75
1026.7519	2996.1495	1328.25	446.45
1026.864	2997.2131	1321.5	439.65
1026.9761	2998.276	1303.35	422.65
1027.0882	2999.3383	1282.55	401.55
1027.2002	3000.4	1276.8	395.4
1027.3122	3001.4611	1257.3	375.85
1027.4241	3002.5215	1252.4	370.6
1027.536	3003.5812	1234.45	354.2
1027.6478	3004.6404	1226.65	345.3
1027.7596	3005.6989	1224.95	341.2
1027.8714	3006.7567	1213.75	335.75
1027.9831	3007.8139	1224.6	328.35
1028.0947	3008.8705	1204.3	323.25
1028.2064	3009.9264	1204.95	322.15
1028.3179	3010.9818	1203.5	323.1
1028.4295	3012.0364	1196.75	315.9
1028.541	3013.0905	1196.05	314.35
1028.6524	3014.1439	1204.85	324.7
1028.7638	3015.1966	1196.95	316.35
1028.8752	3016.2487	1192.15	311.95
1028.9865	3017.3002	1191.1	307.85
1029.0978	3018.3511	1194.6	314.5
1029.209	3019.4013	1193	313
1029.3202	3020.4509	1196.55	317.05
1029.4314	3021.4998	1198.35	317.4
1029.5425	3022.5481	1191.05	310.05
1029.6535	3023.5958	1195.75	315.35
1029.7645	3024.6428	1193.6	312.4
1029.8755	3025.6892	1201.5	322.05
1029.9864	3026.735	1197.1	315.3
1030.0973	3027.7802	1202.6	321.9
1030.2082	3028.8247	1201.75	320.7
1030.319	3029.8685	1213.1	332.35
1030.4297	3030.9118	1215.15	333.55
1030.5404	3031.9544	1211.9	330.25
1030.6511	3032.9963	1215.05	334.65
1030.7617	3034.0376	1218.35	338
1030.8723	3035.0783	1228.65	346.35
1030.9829	3036.1184	1240	358.75
1031.0934	3037.1578	1229.1	349.4
1031.2038	3038.1966	1235.5	353
1031.3142	3039.2348	1233.35	355.8
1031.4246	3040.2723	1251.55	361.85
1031.5349	3041.3092	1243.45	366.3
1031.6452	3042.3455	1234.9	354.15
1031.7554	3043.3811	1234.4	353.3
1031.8656	3044.4161	1226.55	347.35
1031.9758	3045.4505	1222.95	344
1032.0859	3046.4842	1220.45	338.85
1032.1959	3047.5173	1212.45	332.95
1032.3059	3048.5498	1205.95	324.25
1032.4159	3049.5816	1195.95	316.1
1032.5258	3050.6128	1197.5	316.45
1032.6357	3051.6434	1197.35	315.45
1032.7455	3052.6734	1193.25	312
1032.8553	3053.7027	1183.75	304.05
1032.9651	3054.7314	1179.05	301.95
1033.0748	3055.7594	1172.35	292.55
1033.1845	3056.7868	1171.6	290.35
1033.2941	3057.8136	1166.55	286.3
1033.4037	3058.8398	1161.05	281.65
1033.5132	3059.8653	1159.4	280.2
1033.6227	3060.8902	1157.35	277.9
1033.7321	3061.9145	1155	275.35
1033.8415	3062.9381	1142.55	263.15
1033.9509	3063.9612	1155.4	260.45
1034.0602	3064.9835	1137.65	256.7
1034.1694	3066.0053	1133.9	250.2
1034.2787	3067.0264	1129.9	248.8
1034.3878	3068.0469	1119.25	237.95
1034.497	3069.0668	1117.9	234.45
1034.6061	3070.086	1104.8	226.7
1034.7151	3071.1046	1107.15	223.4
1034.8241	3072.1226	1092.9	211.45
1034.9331	3073.1399	1084.85	204.55
1035.042	3074.1567	1078.05	198.35
1035.1508	3075.1727	1077.6	195.5
1035.2597	3076.1882	1067.1	185.85
1035.3684	3077.203	1062.95	182.85
1035.4772	3078.2173	1054.3	171.9
1035.5859	3079.2308	1051	168.4
1035.6945	3080.2438	1042.2	160.1
1035.8031	3081.2561	1037	155.8
1035.9117	3082.2678	1030.7	150.55
1036.0202	3083.2789	1027.55	145.6
1036.1286	3084.2893	1019.85	141.25
1036.2371	3085.2991	1016.05	134.35
1036.3454	3086.3083	1016.9	131.05
1036.4538	3087.3169	1008.3	127.4
1036.562	3088.3248	1009.6	126.95
1036.6703	3089.3321	1000.95	118.7
1036.7785	3090.3388	993.75	114.2
1036.8866	3091.3449	997.6	117.4
1036.9948	3092.3503	995.85	112.05
1037.1028	3093.3551	988.5	108.35
1037.2108	3094.3593	984.65	106.5
1037.3188	3095.3629	985.9	106.5
1037.4267	3096.3658	983.1	102.85
1037.5346	3097.3681	981.6	100.55
1037.6425	3098.3698	979.75	96.75
1037.7503	3099.3708	984.35	96.25
1037.858	3100.3713	975.1	94.35
1037.9657	3101.3711	975.35	94.85
1038.0734	3102.3702	1112.35	93.45
1038.181	3103.3688	971.95	90.55
1038.2886	3104.3667	971.25	92.35
1038.3961	3105.364	968.75	89.55
1038.5036	3106.3607	967.6	85.85
1038.611	3107.3568	967.85	86.55
1038.7184	3108.3522	965.95	87
1038.8257	3109.347	966.95	85.4
1038.933	3110.3412	966.9	84.65
1039.0403	3111.3348	962.9	83.35
1039.1475	3112.3277	962.45	81.65
1039.2547	3113.32	963.6	83.95
1039.3618	3114.3117	961.45	80.05
1039.4689	3115.3028	957.3	77.7
1039.5759	3116.2932	957.15	74.5
1039.6829	3117.2831	964.9	79.35
1039.7898	3118.2723	960.45	82.1
1039.8967	3119.2608	955.4	75.6
1040.0035	3120.2488	955.6	74.65
1040.1103	3121.2361	954.15	73.9
1040.2171	3122.2229	952.55	70.2
1040.3238	3123.209	953.45	72.55
1040.4305	3124.1944	951.45	72
1040.5371	3125.1793	951.45	69.7
1040.6437	3126.1635	950	70.6
1040.7502	3127.1471	949.9	70.6
1040.8567	3128.1301	948.7	69.5
1040.9631	3129.1125	948.15	68.7
1041.0695	3130.0942	946.6	67.2
1041.1759	3131.0753	954.95	65.65
1041.2822	3132.0558	949.9	67.95
1041.3884	3133.0357	948.9	68.4
1041.4946	3134.015	944.15	62.85
1041.6008	3134.9936	948.3	64.8
1041.7069	3135.9716	969	67.85
1041.813	3136.949	944.9	65.5
1041.919	3137.9258	961.8	63.6
1042.025	3138.902	947.2	61.1
1042.1309	3139.8775	939	59.1
1042.2368	3140.8524	940.2	58.75
1042.3427	3141.8267	942.6	61.45
1042.4485	3142.8004	941.4	60.6
1042.5542	3143.7735	944.45	58.75
1042.6599	3144.7459	941.2	59.7
1042.7656	3145.7178	936.85	54.1
1042.8712	3146.689	937.8	59.25
1042.9768	3147.6596	938.8	56.6
1043.0823	3148.6295	933.95	53.7
1043.1878	3149.5989	934.05	52
1043.2932	3150.5676	933.7	55.35
1043.3986	3151.5357	932.2	51.3
1043.5039	3152.5032	935	57.5
1043.6092	3153.4701	932.5	53.25
1043.7145	3154.4364	935.55	53.8
1043.8197	3155.402	931.5	53.4
1043.9248	3156.367	932.35	49.55
1044.03	3157.3315	965.8	48
1044.135	3158.2952	929.65	51.25
1044.24	3159.2584	931.3	50.2
1044.345	3160.221	930.4	49.2
1044.4499	3161.1829	931.2	48.25
1044.5548	3162.1442	927.85	47.35
1044.6596	3163.105	927.1	47.65
1044.7644	3164.065	925.85	44.8
1044.8692	3165.0245	926.65	43.4
1044.9739	3165.9834	926.55	48.15
1045.0785	3166.9416	928.35	46.45
1045.1831	3167.8993	925.75	46
1045.2877	3168.8563	927.5	46.95
1045.3922	3169.8127	925.55	45.75
1045.4966	3170.7684	921.8	42.7
1045.6011	3171.7236	926.15	43
1045.7054	3172.6782	923.55	45.55
1045.8098	3173.6321	926.35	45.05
1045.914	3174.5854	927.8	43.8
1046.0183	3175.5381	924.75	44.95
1046.1224	3176.4902	924.6	43.65
1046.2266	3177.4417	924.05	44.4
1046.3307	3178.3926	923.25	43.95
1046.4347	3179.3428	920.35	40.55
1046.5387	3180.2924	921.1	43.3
1046.6427	3181.2415	924.1	43.35
1046.7466	3182.1899	921.7	41.7
1046.8504	3183.1377	922.2	43.8
1046.9542	3184.0848	924.45	41.65
1047.058	3185.0314	921.35	42.1
1047.1617	3185.9773	921.1	41.7
1047.2654	3186.9227	922.3	39.95
1047.369	3187.8674	920.55	38.9
1047.4726	3188.8115	923.2	39.6
1047.5761	3189.755	921.25	41.15
1047.6796	3190.6979	917.9	38.95
1047.783	3191.6402	919.15	40.2
1047.8864	3192.5818	919.15	39.2
1047.9898	3193.5229	946.65	38.1
1048.0931	3194.4633	918.05	37.15
1048.1963	3195.4031	919	37.3
1048.2995	3196.3423	916.7	37
1048.4027	3197.2809	916.05	36
1048.5058	3198.2189	916.95	36.35
1048.6089	3199.1563	934.05	37.25
1048.7119	3200.0931	917.55	37.95
1048.8148	3201.0292	912.7	33.25
1048.9178	3201.9648	916.05	37.35
1049.0206	3202.8997	921.1	38.7
1049.1235	3203.834	917.2	35.45
1049.2262	3204.7677	916.55	38.35
1049.329	3205.7008	917.8	36.6
1049.4317	3206.6333	914.4	35.75
1049.5343	3207.5652	917.3	37.05
1049.6369	3208.4964	914.9	35
1049.7394	3209.4271	912.8	33
1049.8419	3210.3571	914.8	34.65
1049.9444	3211.2865	916	37.5
1050.0468	3212.2154	916.55	35.4
1050.1491	3213.1436	915.5	33.25
1050.2514	3214.0712	923.15	37.05
1050.3537	3214.9982	915.2	36.45
1050.4559	3215.9246	912.8	30.65
1050.5581	3216.8503	911.1	33.6
1050.6602	3217.7755	911.05	30.9
1050.7623	3218.7001	910.95	32.5
1050.8643	3219.624	913.55	33.5
1050.9663	3220.5473	913.8	34.55
1051.0682	3221.4701	914.55	35.1
1051.1701	3222.3922	914.5	33.25
1051.2719	3223.3137	911.5	33.4
1051.3737	3224.2346	912.7	33.05
1051.4754	3225.1549	911.05	32.8
1051.5771	3226.0746	911.1	31.4
1051.6788	3226.9937	912.55	31.45
1051.7804	3227.9121	913.45	33.85
1051.8819	3228.83	909.4	30.3
1051.9834	3229.7473	909.35	30.75
1052.0849	3230.6639	912.35	33.25
1052.1863	3231.5799	910.9	30
1052.2876	3232.4954	910.65	29.75
1052.3889	3233.4102	911.05	32.35
1052.4902	3234.3244	911.3	30.55
1052.5914	3235.238	908.35	27.5
1052.6926	3236.151	934.2	29.3
1052.7937	3237.0634	906.25	26.4
1052.8948	3237.9752	909	29.95
1052.9958	3238.8864	909.5	30.3
1053.0968	3239.797	906.6	28
1053.1977	3240.7069	908.5	25.65
1053.2986	3241.6163	909.8	29.65
1053.3994	3242.5251	907.45	29
1053.5002	3243.4332	907.9	29.35
1053.6009	3244.3408	906.8	26.8
1053.7016	3245.2477	907.05	29.7
1053.8022	3246.154	907.3	28.2
1053.9028	3247.0598	908.1	27.6
1054.0034	3247.9649	905	24.45
1054.1039	3248.8694	906.35	26.95
1054.2043	3249.7733	905.65	26.15
1054.3047	3250.6766	905.45	26
1054.4051	3251.5793	906.8	26.25
1054.5054	3252.4814	903.95	26.5
1054.6056	3253.3829	903.85	25.65
1054.7058	3254.2838	904.5	24.4
1054.806	3255.1841	902.6	23.1
1054.9061	3256.0838	905.35	26.35
1055.0061	3256.9829	904.1	26.1
1055.1062	3257.8814	906.15	23.6
1055.2061	3258.7792	907	23.85
1055.306	3259.6765	906.45	29.1
1055.4059	3260.5731	902.85	24.85
1055.5057	3261.4692	901.6	21.45
1055.6055	3262.3647	902.2	22.75
1055.7052	3263.2595	901.35	22.85
1055.8049	3264.1538	902.05	23.9
1055.9045	3265.0474	902.2	21.95
1056.0041	3265.9404	901.4	23.9
1056.1036	3266.8329	901	21.65
1056.2031	3267.7247	908.1	19.6
1056.3025	3268.616	898.45	20.1
1056.4019	3269.5066	897.15	15.9
1056.5013	3270.3966	899.3	19.55
1056.6005	3271.286	894.8	15.45
