Software Version:	3.9.2.0
Unit SN:	10000200
Spectrometer SN:	6960
Date:	3/14/2024 12:42:23 PM
Data Line Index:	25
Spectral Points:	2048
Integration time (ms):	125
Averages:	20
Delay (ms):	30000
Sequence Number:	1
Processing:	dark subtract
Laser Power (mW):	300
Laser Current (mA):	824
Laser Diode Temp (C):	25.1
Laser Case Temp (C):	27.1
System Temp (C):	27.1
Spectrometer Temp (C):	24.6
CCD Temp (C):	0.013
Secondary Temp (C):	20.019
Heatsink Temp (C):	23.151
CCDPCB Temp (C):	36.829
SecondaryPCB Temp (C):	34.328

Wavelength	RamanShift	Raw Counts	Dark Subtracted
787.061	30.1047	418.75	7.3
787.2016	32.3739	417.75	7
787.3422	34.6426	419.6	5.75
787.4828	36.9109	422.45	8.75
787.6235	39.1787	426.1	6.4
787.7642	41.4461	429.35	7.85
787.9049	43.7131	433.05	6.85
788.0456	45.9796	437.85	9.7
788.1863	48.2456	441.35	8.05
788.3271	50.5112	447.95	10.25
788.4679	52.7764	449.35	10.1
788.6087	55.0411	454.3	11.15
788.7496	57.3054	461.55	14.45
788.8904	59.5692	462.85	14.8
789.0313	61.8326	467.15	12.75
789.1722	64.0955	472.55	16.1
789.3132	66.3579	480.05	16.55
789.4541	68.6199	483.35	17.05
789.5951	70.8815	491.7	23.55
789.7361	73.1426	506.7	36.1
789.8771	75.4032	535.6	61.55
790.0181	77.6634	597.2	117.25
790.1592	79.9231	744.4	260.15
790.3003	82.1824	1034	543.75
790.4414	84.4412	1541.55	1044.5
790.5825	86.6995	2195	1688.05
790.7237	88.9574	2847.55	2334.95
790.8648	91.2148	3303.85	2786.3
791.006	93.4717	3534.9	3013.6
791.1472	95.7282	3589.4	3062.45
791.2885	97.9842	3587.45	3060.55
791.4297	100.2398	3571.2	3039.8
791.571	102.4949	3549.35	3013.2
791.7123	104.7495	3534.9	2995.55
791.8536	107.0036	3509.75	2968.65
791.9949	109.2573	3452.7	2913.45
792.1363	111.5105	3384.35	2841.7
792.2777	113.7632	3328.9	2785.35
792.4191	116.0154	3287.15	2734.65
792.5605	118.2672	3228.9	2681.1
792.7019	120.5185	3141.15	2594.8
792.8434	122.7693	3095.4	2546.1
792.9849	125.0197	3045.95	2489.95
793.1264	127.2696	2991.35	2433.7
793.2679	129.519	2958.05	2399.9
793.4094	131.7679	2946.35	2386.45
793.551	134.0163	2919.75	2356.25
793.6926	136.2642	2912.45	2342.3
793.8342	138.5117	2928.05	2356.4
793.9758	140.7587	2900.9	2328.4
794.1175	143.0052	2873.15	2294.25
794.2591	145.2512	2837.8	2262.35
794.4008	147.4967	2795.05	2216.25
794.5425	149.7417	2761.8	2179.9
794.6842	151.9863	2749.2	2166.55
794.826	154.2304	2740.5	2154.65
794.9677	156.4739	2741.6	2149.1
795.1095	158.717	2736.2	2145.5
795.2513	160.9596	2760.2	2164.05
795.3931	163.2017	2749.3	2152.05
795.535	165.4433	2772.05	2169.75
795.6768	167.6844	2768.35	2164.65
795.8187	169.925	2761.5	2157.35
795.9606	172.1651	2726	2116.5
796.1025	174.4047	2689.3	2077.4
796.2445	176.6439	2661.8	2047.15
796.3864	178.8825	2646.9	2029.15
796.5284	181.1206	2637.75	2017.8
796.6704	183.3582	2626.25	2001.25
796.8124	185.5954	2613.5	1987.05
796.9544	187.832	2614.3	1984.95
797.0965	190.0681	2619.35	1989.8
797.2386	192.3037	2620.35	1986.35
797.3806	194.5388	2608.65	1971.15
797.5228	196.7734	2622.25	1982.55
797.6649	199.0075	2633.6	1989.2
797.807	201.2411	2651.65	2002.45
797.9492	203.4742	2654.9	2008.4
798.0914	205.7068	2668.15	2018.9
798.2336	207.9389	2695.35	2045.45
798.3758	210.1704	2707.45	2058.1
798.518	212.4015	2698.4	2044.4
798.6603	214.632	2699.05	2042.55
798.8025	216.862	2690.05	2036.5
798.9448	219.0915	2698.25	2052.25
799.0871	221.3205	2683.95	2039.65
799.2294	223.549	2689.7	2055.4
799.3718	225.777	2685.9	2050.3
799.5141	228.0044	2678.5	2038.3
799.6565	230.2314	2677.05	2041.35
799.7989	232.4578	2661.5	2024.9
799.9413	234.6837	2656.9	2011.35
800.0837	236.909	2649.75	2006.55
800.2262	239.1339	2659.85	1989.9
800.3687	241.3582	2640.15	1986.65
800.5111	243.582	2662.75	1982.7
800.6536	245.8053	2657.3	1983.75
800.7961	248.0281	2663.3	1995.35
800.9387	250.2503	2662.6	1991.05
801.0812	252.472	2662.45	1984.95
801.2238	254.6932	2663.55	1980.65
801.3664	256.9139	2665.95	1981.4
801.509	259.134	2683	1993.5
801.6516	261.3536	2691.7	2007.3
801.7942	263.5727	2711.45	2024.6
801.9369	265.7912	2725.65	2038.55
802.0795	268.0092	2768.4	2080.65
802.2222	270.2267	2798.4	2109.35
802.3649	272.4436	2819.6	2126.95
802.5076	274.6601	2854.05	2153.95
802.6504	276.8759	2866.3	2173.6
802.7931	279.0913	2870.15	2177.35
802.9359	281.3061	2859.95	2165.75
803.0787	283.5204	2878.5	2182.1
803.2215	285.7341	2899.4	2194.6
803.3643	287.9473	2933.3	2228.1
803.5071	290.16	2917.55	2208.5
803.6499	292.3721	2879.1	2175.95
803.7928	294.5837	2854.5	2148.1
803.9357	296.7947	2834.3	2128.3
804.0786	299.0052	2810.55	2102.25
804.2215	301.2152	2823.45	2113.4
804.3644	303.4246	2802.8	2095.75
804.5074	305.6334	2776.45	2071.05
804.6503	307.8418	2765.95	2053.7
804.7933	310.0495	2761.95	2050.9
804.9363	312.2568	2730.05	2019.55
805.0793	314.4635	2698.6	1985.8
805.2223	316.6696	2660.35	1946.95
805.3653	318.8752	2635	1913.7
805.5084	321.0802	2611.3	1896.1
805.6514	323.2847	2608.9	1893.2
805.7945	325.4887	2592.05	1874.8
805.9376	327.692	2613.25	1894.85
806.0807	329.8949	2626.05	1905.75
806.2238	332.0972	2645.6	1924.1
806.367	334.2989	2687.2	1961.05
806.5101	336.5001	2681.95	1955.9
806.6533	338.7007	2653.15	1929.7
806.7965	340.9008	2635.6	1908.85
806.9397	343.1003	2587.25	1858.6
807.0829	345.2992	2559.7	1828.25
807.2261	347.4976	2515.3	1783.35
807.3693	349.6955	2498.25	1763.65
807.5126	351.8927	2490.35	1752.9
807.6559	354.0895	2475.95	1730.55
807.7991	356.2856	2461.1	1723.1
807.9424	358.4812	2440.2	1700.4
808.0857	360.6763	2453.1	1715.15
808.2291	362.8707	2438.65	1698.8
808.3724	365.0646	2455.4	1710.85
808.5158	367.258	2446.85	1700.95
808.6591	369.4508	2454.55	1704.7
808.8025	371.643	2470	1722.7
808.9459	373.8346	2495.75	1743.8
809.0893	376.0257	2514.5	1757.8
809.2327	378.2162	2541.8	1787.2
809.3762	380.4062	2542.4	1783.5
809.5196	382.5956	2529.4	1769.95
809.6631	384.7844	2494.6	1734
809.8066	386.9726	2452.8	1694.85
809.9501	389.1603	2433	1672.85
810.0936	391.3474	2441.75	1650.1
810.2371	393.5339	2407.5	1646.1
810.3806	395.7199	2405.05	1647.85
810.5241	397.9052	2427.9	1675.15
810.6677	400.09	2442.2	1687.7
810.8113	402.2743	2464.3	1710.4
810.9548	404.4579	2490.2	1738.8
811.0984	406.641	2522.4	1771.05
811.2421	408.8235	2563	1811.5
811.3857	411.0054	2590.4	1835.1
811.5293	413.1868	2663.85	1908.7
811.673	415.3675	2728.55	1970.75
811.8166	417.5477	2743.1	1983.1
811.9603	419.7273	2688.75	1925.6
812.104	421.9064	2592.5	1820.2
812.2477	424.0848	2522.1	1755.4
812.3914	426.2627	2488.6	1720.05
812.5351	428.4399	2436.75	1667.1
812.6788	430.6166	2408.3	1636.45
812.8226	432.7928	2363.25	1587.45
812.9663	434.9683	2340.1	1564.85
813.1101	437.1432	2326	1547.55
813.2539	439.3176	2308.3	1529.25
813.3977	441.4914	2283.7	1504.6
813.5415	443.6645	2287	1505.95
813.6853	445.8371	2281.6	1501.3
813.8291	448.0091	2285.3	1505.85
813.973	450.1806	2271.8	1489.55
814.1168	452.3514	2264.6	1480.85
814.2607	454.5216	2273.65	1484.05
814.4046	456.6913	2267.6	1482.9
814.5485	458.8603	2259	1475.15
814.6924	461.0288	2273.3	1487.4
814.8363	463.1967	2261.5	1476.75
814.9802	465.3639	2257.9	1470.25
815.1241	467.5306	2259.35	1471.2
815.2681	469.6967	2245.95	1459.2
815.412	471.8622	2238.75	1450.6
815.556	474.0271	2237.85	1452.45
815.7	476.1914	2226.8	1436.1
815.844	478.3551	2220.95	1432.45
815.988	480.5182	2230.2	1436.6
816.132	482.6807	2219.8	1427.6
816.276	484.8426	2233.7	1441.2
816.4201	487.0039	2271.1	1477.2
816.5641	489.1647	2304	1510.5
816.7082	491.3248	2327.75	1535.05
816.8522	493.4843	2337.05	1543.1
816.9963	495.6432	2334.05	1541.3
817.1404	497.8015	2318.65	1521.45
817.2845	499.9592	2279.45	1483.1
817.4286	502.1163	2247.8	1451.8
817.5727	504.2728	2208.6	1408.75
817.7168	506.4287	2199.55	1400.7
817.861	508.5839	2188.15	1389.8
818.0051	510.7386	2180.15	1384.75
818.1493	512.8927	2190.15	1383.3
818.2935	515.0461	2191.7	1394.15
818.4377	517.199	2200.25	1402.15
818.5818	519.3512	2224.8	1425.25
818.726	521.5029	2266.2	1460.35
818.8703	523.6539	2308.6	1505.3
819.0145	525.8043	2305.25	1500.95
819.1587	527.9541	2274.45	1469.45
819.303	530.1033	2222.25	1416.9
819.4472	532.2519	2195.05	1392
819.5915	534.3999	2177.5	1367.8
819.7357	536.5472	2164.25	1357.2
819.88	538.694	2161.9	1356.95
820.0243	540.8401	2165.85	1358.15
820.1686	542.9856	2191.55	1382.05
820.3129	545.1305	2199.8	1390.6
820.4572	547.2748	2198.2	1389.9
820.6016	549.4185	2206.45	1394.35
820.7459	551.5615	2210.9	1402.9
820.8902	553.704	2227.3	1415.8
821.0346	555.8458	2227.3	1418.75
821.1789	557.987	2246.5	1435.2
821.3233	560.1276	2264.85	1452.15
821.4677	562.2675	2297.4	1486.05
821.6121	564.4069	2340.95	1527.45
821.7565	566.5456	2370.5	1559.5
821.9009	568.6837	2363.6	1549.75
822.0453	570.8212	2311.65	1497.3
822.1897	572.958	2262.3	1446.85
822.3342	575.0942	2224.05	1410.05
822.4786	577.2299	2201.25	1386.65
822.6231	579.3648	2180	1365.15
822.7675	581.4992	2162.1	1348.25
822.912	583.6329	2149.85	1336
823.0565	585.766	2172.4	1357.05
823.201	587.8985	2207.25	1391.85
823.3454	590.0304	2234.85	1408.25
823.4899	592.1616	2240.4	1422.8
823.6345	594.2922	2242.05	1423.8
823.779	596.4222	2222.4	1403.5
823.9235	598.5515	2179.05	1360.2
824.068	600.6802	2142.7	1323.35
824.2126	602.8083	2113.7	1293.35
824.3571	604.9358	2111.05	1289.65
824.5017	607.0626	2101.25	1278.6
824.6462	609.1888	2098.3	1275.4
824.7908	611.3144	2120.45	1298.1
824.9354	613.4393	2148.3	1325.95
825.08	615.5636	2169.55	1347.2
825.2246	617.6873	2201.4	1379.05
825.3692	619.8103	2230.2	1404.95
825.5138	621.9327	2220.6	1394.7
825.6584	624.0544	2216.35	1391.95
825.803	626.1756	2178	1353.75
825.9477	628.2961	2136.6	1313.15
826.0923	630.4159	2107.7	1283.95
826.237	632.5351	2102.35	1277.05
826.3816	634.6537	2104.9	1278.05
826.5263	636.7716	2095.2	1266.45
826.6709	638.8889	2086.6	1258
826.8156	641.0056	2099.1	1271
826.9603	643.1216	2107.75	1281.2
827.105	645.237	2118.55	1288.75
827.2497	647.3518	2090.55	1261.2
827.3944	649.4659	2075.1	1245.05
827.5391	651.5793	2065.35	1233.6
827.6838	653.6922	2055.1	1226.5
827.8285	655.8043	2043.1	1213.25
827.9733	657.9159	2030.1	1197.4
828.118	660.0268	2024.2	1190.35
828.2627	662.137	2025.1	1191.45
828.4075	664.2466	2029.7	1195.9
828.5522	666.3556	2026.65	1194.75
828.697	668.4639	2015.35	1178.15
828.8418	670.5716	2021.05	1188.3
828.9865	672.6786	2007.45	1172.2
829.1313	674.785	2006.6	1171.7
829.2761	676.8907	2003.65	1167.5
829.4209	678.9958	2003.3	1168.45
829.5657	681.1002	1994.8	1157.9
829.7105	683.204	1995.15	1154.35
829.8553	685.3072	1996.6	1158.95
830.0001	687.4097	1993.65	1157.3
830.1449	689.5115	1992.45	1155.1
830.2898	691.6127	1994.8	1158.85
830.4346	693.7132	1981.55	1143.8
830.5794	695.8131	2000.4	1148.65
830.7243	697.9123	1989.6	1152.15
830.8691	700.0109	1993.8	1155.15
831.014	702.1089	1999.6	1160.8
831.1588	704.2061	2004.35	1164.1
831.3037	706.3028	2015.3	1175.5
831.4486	708.3987	2029.5	1188.75
831.5935	710.4941	2031.35	1190.65
831.7383	712.5887	2047.2	1205.95
831.8832	714.6827	2043.05	1197.45
832.0281	716.7761	2043.8	1203.15
832.173	718.8688	2032.65	1190.85
832.3179	720.9608	2033.4	1188.3
832.4628	723.0522	2038.55	1193.45
832.6077	725.1429	2050.1	1208.4
832.7527	727.233	2078.9	1237
832.8976	729.3224	2127.1	1284.65
833.0425	731.4112	2147.6	1302.15
833.1874	733.4993	2159.6	1313.45
833.3324	735.5867	2136.1	1290.4
833.4773	737.6735	2090	1244.6
833.6222	739.7596	2066.75	1219.35
833.7672	741.845	2032.7	1186.2
833.9122	743.9298	2049.45	1201.15
834.0571	746.014	2050.85	1204.7
834.2021	748.0974	2071.65	1225.35
834.347	750.1802	2071.15	1225.45
834.492	752.2624	2047.4	1200.3
834.637	754.3439	2036.45	1187.2
834.782	756.4247	2027.9	1170.95
834.9269	758.5048	2026	1177.9
835.0719	760.5843	2027.1	1178.05
835.2169	762.6631	2043.8	1196.5
835.3619	764.7413	2071.5	1223.85
835.5069	766.8188	2118.15	1269.05
835.6519	768.8956	2176.9	1326.25
835.7969	770.9718	2218.1	1369.45
835.9419	773.0473	2201.75	1355.05
836.0869	775.1221	2178.5	1329.25
836.232	777.1962	2169.95	1320.95
836.377	779.2697	2204.45	1354.75
836.522	781.3426	2284.25	1422.4
836.667	783.4147	2322.9	1470
836.8121	785.4862	2322.25	1472.4
836.9571	787.557	2248.4	1398.5
837.1021	789.6271	2166.7	1318.15
837.2472	791.6966	2082.7	1230.9
837.3922	793.7654	2003.2	1150.7
837.5373	795.8335	1983.65	1133.25
837.6823	797.901	1964.75	1113.25
837.8274	799.9678	1953.2	1097.4
837.9724	802.0339	1944.55	1092.5
838.1175	804.0993	1956.35	1093.1
838.2626	806.1641	1948.3	1094.15
838.4076	808.2282	1935.8	1083.5
838.5527	810.2916	1918.3	1062.25
838.6978	812.3544	1913.15	1062.45
838.8428	814.4164	1900.5	1048.8
838.9879	816.4778	1916.3	1059.85
839.133	818.5385	1904.5	1049.7
839.2781	820.5986	1934.4	1079.95
839.4232	822.658	1970.65	1114.2
839.5682	824.7166	2006.3	1151.9
839.7133	826.7747	2067.9	1214.35
839.8584	828.832	2112	1257.25
840.0035	830.8886	2159.65	1303.6
840.1486	832.9446	2176.75	1318.25
840.2937	834.9999	2144.4	1290.5
840.4388	837.0545	2110.3	1250.95
840.5839	839.1085	2041.85	1185
840.729	841.1618	1999.25	1139.25
840.8741	843.2143	1960.4	1103.1
841.0192	845.2662	1929.65	1073.35
841.1643	847.3175	1921.7	1065.25
841.3095	849.368	1916.9	1061.8
841.4546	851.4179	1907.9	1051.5
841.5997	853.467	1909.75	1051.75
841.7448	855.5155	1920.35	1062.25
841.8899	857.5633	1904.4	1046.25
842.0351	859.6105	1907.4	1049.45
842.1802	861.6569	1901.6	1043.8
842.3253	863.7027	1887.8	1029.3
842.4704	865.7478	1881.2	1022.55
842.6156	867.7922	1876.5	1017.2
842.7607	869.8359	1863.5	1001.85
842.9058	871.8789	1869.45	1012.25
843.0509	873.9212	1893.5	999
843.1961	875.9629	1863.4	1004.65
843.3412	878.0039	1865.6	1004.9
843.4863	880.0441	1872.15	1013.75
843.6315	882.0837	1888.85	1027.15
843.7766	884.1226	1914.5	1052.4
843.9218	886.1609	1933.45	1074.8
844.0669	888.1984	1957.4	1097.4
844.212	890.2352	1984.65	1126.6
844.3572	892.2714	1989.75	1126.75
844.5023	894.3069	1983.7	1124.45
844.6475	896.3416	1950.7	1088.75
844.7926	898.3757	1912	1051.8
844.9377	900.4091	1903.15	1039.2
845.0829	902.4418	1903.7	1035.85
845.228	904.4739	1913.65	1050.3
845.3732	906.5052	1916.6	1054.4
845.5183	908.5358	1912	1051.25
845.6635	910.5658	1903.05	1039.2
845.8086	912.595	1882.3	1020.15
845.9538	914.6236	1849.5	988.25
846.0989	916.6515	1839.15	979.15
846.2441	918.6786	1818.3	953.6
846.3892	920.7051	1807.4	943.15
846.5344	922.7309	1807.55	944.95
846.6795	924.756	1819.7	955.4
846.8246	926.7804	1813.1	948.95
846.9698	928.8041	1814.1	948.7
847.1149	930.8272	1828.7	963.7
847.2601	932.8495	1838.3	972.7
847.4052	934.8711	1832.15	966.55
847.5504	936.892	1836.8	970.9
847.6955	938.9123	1852.85	986.9
847.8407	940.9318	1863	997.8
847.9858	942.9506	1879.7	1014.4
848.131	944.9688	1876.35	1010.25
848.2761	946.9862	1860.3	995.1
848.4213	949.003	1827.75	962.25
848.5664	951.019	1818.6	951.45
848.7115	953.0344	1795.85	929.55
848.8567	955.0491	1788.9	921.35
849.0018	957.063	1788.15	921.8
849.147	959.0763	1782.35	918.35
849.2921	961.0888	1779.25	913
849.4373	963.1007	1781.3	914.1
849.5824	965.1119	1767.1	902.75
849.7275	967.1223	1768.25	900.35
849.8727	969.1321	1758.1	890.8
850.0178	971.1412	1762.2	895.95
850.1629	973.1495	1749.65	884.8
850.3081	975.1572	1794.65	874.85
850.4532	977.1641	1747.7	881.25
850.5983	979.1704	1758.25	890.3
850.7435	981.1759	1755.5	885.25
850.8886	983.1808	1745.6	875.3
851.0337	985.1849	1750.65	871.1
851.1788	987.1884	1735.45	866.6
851.324	989.1911	1740.5	869.6
851.4691	991.1932	1737.45	867.8
851.6142	993.1945	1738.05	869.5
851.7593	995.1951	1736.1	864.5
851.9045	997.1951	1740.05	866.5
852.0496	999.1943	1739.55	872.2
852.1947	1001.1928	1728.95	858.3
852.3398	1003.1906	1734.05	866.95
852.4849	1005.1877	1750.15	880.55
852.63	1007.1841	1761.95	893.7
852.7751	1009.1798	1775.8	907.35
852.9202	1011.1748	1761.95	891.8
853.0653	1013.1691	1736.65	865.85
853.2104	1015.1627	1725.35	854.8
853.3555	1017.1556	1698.45	829.1
853.5006	1019.1477	1680.95	810.85
853.6457	1021.1392	1671.85	804.15
853.7908	1023.1299	1663.45	794
853.9359	1025.12	1666.65	796.45
854.081	1027.1093	1670.6	800.25
854.2261	1029.0979	1683.35	814
854.3712	1031.0859	1687.7	818.25
854.5163	1033.0731	1692.75	820.05
854.6613	1035.0596	1710.15	839.95
854.8064	1037.0454	1688.35	816.85
854.9515	1039.0304	1672.95	799.4
855.0965	1041.0148	1667	795.95
855.2416	1042.9985	1649.85	778.75
855.3867	1044.9814	1644.1	774.25
855.5317	1046.9636	1632.8	759.15
855.6768	1048.9452	1639.95	768.85
855.8219	1050.926	1641.55	771.1
855.9669	1052.9061	1654.9	785.3
856.112	1054.8855	1665.2	794.3
856.257	1056.8642	1669.35	797.15
856.4021	1058.8421	1665.35	788.95
856.5471	1060.8194	1657.5	784.4
856.6921	1062.7959	1643.9	772.6
856.8372	1064.7717	1650.25	774.7
856.9822	1066.7469	1638.9	765.35
857.1272	1068.7213	1652.85	777.05
857.2723	1070.695	1661.2	789.65
857.4173	1072.6679	1664.65	793.35
857.5623	1074.6402	1689	817
857.7073	1076.6117	1693.05	815.75
857.8523	1078.5826	1677.65	806.15
857.9973	1080.5527	1645.65	769.7
858.1423	1082.5221	1627.45	753.65
858.2873	1084.4908	1604.15	730.05
858.4323	1086.4587	1601.55	727.4
858.5773	1088.426	1596.1	722.95
858.7223	1090.3925	1585.6	706.95
858.8673	1092.3584	1587.6	717.9
859.0123	1094.3235	1589.15	718.3
859.1573	1096.2879	1599.35	722.6
859.3022	1098.2515	1616.45	743.4
859.4472	1100.2145	1632.55	757.95
859.5922	1102.1767	1657.25	781.5
859.7371	1104.1382	1672.2	796.7
859.8821	1106.099	1709.2	832.6
860.027	1108.0591	1735.1	862.25
860.172	1110.0185	1762.4	886.8
860.3169	1111.9771	1793.65	919.15
860.4619	1113.9351	1813.05	938.25
860.6068	1115.8923	1855.25	980.8
860.7517	1117.8488	1873	995.85
860.8967	1119.8045	1847.5	973.35
861.0416	1121.7596	1782.35	904.05
861.1865	1123.7139	1720.2	845.6
861.3314	1125.6675	1675.7	800.75
861.4763	1127.6204	1674.6	800.45
861.6212	1129.5726	1686.05	808.55
861.7661	1131.524	1681.15	806.95
861.911	1133.4748	1657.5	782.5
862.0559	1135.4248	1620.55	743.1
862.2008	1137.3741	1584.35	707.4
862.3457	1139.3226	1567.15	690.45
862.4905	1141.2705	1562.7	686.15
862.6354	1143.2176	1568.1	685
862.7803	1145.164	1583.15	704.55
862.9251	1147.1097	1574.95	698.55
863.07	1149.0546	1568.45	692.15
863.2148	1150.9989	1546.1	668.35
863.3597	1152.9424	1538.75	660
863.5045	1154.8852	1521.2	644
863.6493	1156.8272	1515.9	639.95
863.7942	1158.7686	1524.3	640.45
863.939	1160.7092	1523.15	647.6
864.0838	1162.6491	1524.7	646.9
864.2286	1164.5883	1520.15	644.2
864.3734	1166.5267	1522.8	643.3
864.5182	1168.4644	1541.1	664
864.663	1170.4014	1566.65	683.6
864.8078	1172.3377	1583.7	708.8
864.9526	1174.2732	1606.9	732.15
865.0974	1176.2081	1658.8	781.3
865.2421	1178.1421	1745.85	865.85
865.3869	1180.0755	1819.05	942.75
865.5317	1182.0082	1865.4	987.15
865.6764	1183.9401	1857.1	980.05
865.8212	1185.8713	1786.5	910.5
865.9659	1187.8017	1717.25	839.2
866.1106	1189.7315	1645.2	769.9
866.2554	1191.6605	1614.85	706.7
866.4001	1193.5888	1561.55	682.8
866.5448	1195.5163	1540.35	662.2
866.6895	1197.4432	1525	647.15
866.8342	1199.3693	1513.75	636.75
866.9789	1201.2947	1500.8	619.25
867.1236	1203.2193	1492.35	613.7
867.2683	1205.1432	1489.7	610.6
867.413	1207.0664	1489.85	612.5
867.5576	1208.9889	1485.4	604.7
867.7023	1210.9106	1485.95	609.1
867.847	1212.8316	1483.3	605.9
867.9916	1214.7519	1498.25	609.95
868.1363	1216.6715	1495.45	617.4
868.2809	1218.5903	1508.65	630.5
868.4255	1220.5084	1505.85	626.25
868.5701	1222.4257	1520.05	642.5
868.7148	1224.3424	1525.95	649.5
868.8594	1226.2583	1543.95	662.65
869.004	1228.1735	1554.55	678
869.1486	1230.0879	1577.95	698.7
869.2932	1232.0016	1596.8	719.2
869.4377	1233.9146	1617.9	736.9
869.5823	1235.8269	1624.55	746.2
869.7269	1237.7384	1629.75	751.7
869.8715	1239.6492	1625.8	746.05
870.016	1241.5592	1637.85	758.35
870.1606	1243.4686	1656.95	778.75
870.3051	1245.3772	1705.9	826.05
870.4496	1247.285	1755.6	875.75
870.5941	1249.1922	1798	919.4
870.7387	1251.0986	1849.7	970.6
870.8832	1253.0042	1892.15	1012.65
871.0277	1254.9092	1945.6	1065.25
871.1722	1256.8134	1996.85	1117.7
871.3167	1258.7169	2058.75	1177.45
871.4611	1260.6196	2090.2	1213.15
871.6056	1262.5216	2102.05	1221.5
871.7501	1264.4229	2091	1213.5
871.8945	1266.3234	2071.75	1191.55
872.039	1268.2232	2055.15	1173.65
872.1834	1270.1223	2005.5	1124.65
872.3278	1272.0207	1977.3	1097.55
872.4723	1273.9183	1972.95	1087.6
872.6167	1275.8151	1965.55	1086.15
872.7611	1277.7113	1987	1105.3
872.9055	1279.6067	2039.75	1160.55
873.0499	1281.5014	2127.65	1244.5
873.1943	1283.3953	2241.7	1359.2
873.3386	1285.2885	2357.85	1479.65
873.483	1287.181	2465	1584.15
873.6274	1289.0727	2497.2	1617.3
873.7717	1290.9637	2460.6	1579.35
873.9161	1292.854	2407.05	1526.4
874.0604	1294.7435	2319.9	1440
874.2047	1296.6323	2235.75	1356.55
874.349	1298.5204	2181.2	1296.1
874.4933	1300.4077	2126.5	1246.7
874.6376	1302.2943	2098.6	1216.5
874.7819	1304.1802	2056.25	1177.7
874.9262	1306.0653	2044.7	1160.8
875.0705	1307.9497	2021.45	1139.55
875.2147	1309.8333	2002.7	1121.65
875.359	1311.7162	1987.8	1105.5
875.5032	1313.5984	1975.25	1092
875.6475	1315.4798	1963.4	1072.05
875.7917	1317.3605	1976.45	1080.95
875.9359	1319.2405	1957.8	1074.6
876.0801	1321.1197	1962.35	1078.45
876.2243	1322.9982	1921	1037.15
876.3685	1324.876	1887.35	1005
876.5127	1326.753	1839.9	958.55
876.6569	1328.6293	1760.5	878.1
876.801	1330.5048	1706.85	823.85
876.9452	1332.3796	1662.9	782.4
877.0893	1334.2537	1649.2	742.05
877.2335	1336.127	1594	712.75
877.3776	1337.9996	1575.35	696.85
877.5217	1339.8714	1568.1	685.7
877.6658	1341.7426	1589.7	664.95
877.8099	1343.6129	1538.5	658.6
877.954	1345.4826	1536.85	653.3
878.0981	1347.3515	1524.15	639.95
878.2422	1349.2196	1509.9	628.05
878.3862	1351.087	1502.15	619.7
878.5303	1352.9537	1499	618.55
878.6743	1354.8197	1496.6	613.2
878.8184	1356.6849	1506.55	627.7
878.9624	1358.5493	1520.85	637.25
879.1064	1360.4131	1528.2	648.25
879.2504	1362.276	1554.95	672.9
879.3944	1364.1383	1575.45	694.45
879.5384	1365.9998	1587.15	701.55
879.6823	1367.8606	1582.8	701.6
879.8263	1369.7206	1574.6	689.7
879.9702	1371.5799	1573.15	688.2
880.1142	1373.4384	1571.05	688
880.2581	1375.2962	1556.3	675.05
880.402	1377.1533	1525.25	644.5
880.5459	1379.0096	1490.15	607.15
880.6898	1380.8652	1466.1	584.1
880.8337	1382.7201	1452.6	570.85
880.9776	1384.5742	1430.05	549.3
881.1215	1386.4275	1419.4	535.6
881.2653	1388.2802	1402.5	520.4
881.4092	1390.132	1392.8	511.5
881.553	1391.9832	1389.25	507.1
881.6968	1393.8336	1385.1	502.3
881.8406	1395.6832	1384.3	501.65
881.9844	1397.5322	1380.25	497.55
882.1282	1399.3803	1379.1	491.5
882.272	1401.2278	1367.25	485.95
882.4158	1403.0745	1359.8	476.2
882.5595	1404.9204	1354.35	472.1
882.7033	1406.7656	1345.05	461.1
882.847	1408.6101	1348.55	464.35
882.9908	1410.4538	1346.75	465.75
883.1345	1412.2968	1341.25	457.35
883.2782	1414.139	1339.95	458.1
883.4219	1415.9805	1351.45	469.3
883.5656	1417.8213	1353.95	464.05
883.7092	1419.6613	1365.55	484.45
883.8529	1421.5006	1380.4	497.15
883.9965	1423.3391	1402.1	519.15
884.1402	1425.1769	1435.45	551.1
884.2838	1427.0139	1482.55	598.35
884.4274	1428.8502	1532.35	646.05
884.571	1430.6858	1580.55	697.1
884.7146	1432.5206	1588.95	705.5
884.8582	1434.3547	1594.2	710.75
885.0018	1436.188	1567.45	687.15
885.1453	1438.0206	1563.9	681.75
885.2889	1439.8524	1557.9	675.1
885.4324	1441.6835	1556.2	672.15
885.5759	1443.5139	1546.05	660.35
885.7194	1445.3435	1556	673.8
885.8629	1447.1724	1553.9	670.85
886.0064	1449.0005	1550.25	667.4
886.1499	1450.8279	1542.7	656.4
886.2933	1452.6545	1547.85	665.7
886.4368	1454.4804	1554.4	672.25
886.5802	1456.3056	1543.05	652.2
886.7237	1458.13	1518.5	634.95
886.8671	1459.9536	1503.55	620.1
887.0105	1461.7766	1479.85	597.25
887.1539	1463.5987	1466.9	582.45
887.2972	1465.4202	1437	553.6
887.4406	1467.2409	1412.9	528.55
887.584	1469.0608	1399.95	516.55
887.7273	1470.88	1374.4	491.3
887.8706	1472.6984	1360.85	475.95
888.0139	1474.5161	1345.3	459.55
888.1572	1476.3331	1334.45	453.6
888.3005	1478.1493	1328.1	445.3
888.4438	1479.9648	1322.55	440.75
888.5871	1481.7795	1330.8	446.1
888.7303	1483.5935	1321.75	438.25
888.8736	1485.4067	1327.15	442.6
889.0168	1487.2192	1328.8	445.15
889.16	1489.031	1327.65	438.35
889.3032	1490.842	1325.3	441.1
889.4464	1492.6522	1322.3	439.85
889.5896	1494.4618	1319.1	434.95
889.7327	1496.2705	1315.35	432.15
889.8759	1498.0785	1320.9	435.5
890.019	1499.8858	1318.65	433.95
890.1622	1501.6924	1305.75	422.7
890.3053	1503.4981	1304.55	421.7
890.4484	1505.3032	1299.35	415.25
890.5914	1507.1075	1293.5	410.6
890.7345	1508.911	1289.25	404.6
890.8776	1510.7138	1282.6	395.9
891.0206	1512.5159	1282.8	398.8
891.1637	1514.3172	1281.6	398.4
891.3067	1516.1178	1277.15	393
891.4497	1517.9176	1271.8	385.9
891.5927	1519.7166	1265.7	382.6
891.7357	1521.515	1271	378.3
891.8786	1523.3126	1259.85	373.9
892.0216	1525.1094	1258.6	372.45
892.1645	1526.9055	1254.75	372.15
892.3074	1528.7008	1251.45	369.4
892.4503	1530.4954	1255.6	365.8
892.5932	1532.2893	1239.3	358.15
892.7361	1534.0824	1249.75	360.15
892.879	1535.8747	1240.75	354.75
893.0218	1537.6663	1245.4	360.7
893.1647	1539.4572	1234.2	349.3
893.3075	1541.2473	1238.15	353.9
893.4503	1543.0367	1241.4	356.8
893.5931	1544.8253	1240.75	351.6
893.7359	1546.6132	1242.1	355.75
893.8787	1548.4003	1250.5	356.75
894.0214	1550.1867	1251.2	356.05
894.1642	1551.9723	1256.1	367.3
894.3069	1553.7572	1259.05	373.45
894.4496	1555.5414	1265.35	380.1
894.5923	1557.3247	1279.95	395.9
894.735	1559.1074	1303.55	419.5
894.8777	1560.8893	1324.7	441.8
895.0204	1562.6705	1356.15	470.3
895.163	1564.4509	1363.75	481.6
895.3056	1566.2305	1364.95	481.7
895.4482	1568.0094	1369.8	486.65
895.5908	1569.7876	1375.2	489.5
895.7334	1571.565	1365.6	479.6
895.876	1573.3417	1358	474.65
896.0186	1575.1176	1365.55	481.95
896.1611	1576.8928	1378.4	493.05
896.3036	1578.6672	1385.6	502.8
896.4461	1580.4409	1411.3	526.45
896.5886	1582.2138	1424.4	538.4
896.7311	1583.986	1440.2	556.9
896.8736	1585.7575	1477.65	595.55
897.0161	1587.5282	1488.5	604.75
897.1585	1589.2981	1499.7	614.2
897.3009	1591.0673	1514.45	628.8
897.4433	1592.8358	1511.4	627.1
897.5857	1594.6035	1512.3	625.9
897.7281	1596.3704	1511.55	625.55
897.8705	1598.1366	1496.65	612.05
898.0128	1599.9021	1470.4	585.5
898.1551	1601.6668	1461.2	574.5
898.2975	1603.4308	1448.65	563.4
898.4398	1605.194	1448.7	558.8
898.5821	1606.9564	1469.5	586.95
898.7243	1608.7182	1495.1	605.3
898.8666	1610.4791	1541.6	656.7
899.0088	1612.2394	1600.55	716.15
899.1511	1613.9988	1648.8	765.25
899.2933	1615.7576	1709.9	825.2
899.4355	1617.5156	1733.75	843.2
899.5776	1619.2728	1702.2	815.95
899.7198	1621.0293	1660.4	776.95
899.862	1622.785	1599.55	708.4
900.0041	1624.54	1517.1	629.95
900.1462	1626.2942	1452.3	565.8
900.2883	1628.0477	1399.05	512.4
900.4304	1629.8005	1356.35	467.3
900.5725	1631.5525	1310.65	423.55
900.7145	1633.3037	1277.75	393.95
900.8566	1635.0542	1252	366.55
900.9986	1636.804	1233.95	349.35
901.1406	1638.553	1285.05	337.15
901.2826	1640.3013	1200.25	316.3
901.4245	1642.0488	1196.3	307.85
901.5665	1643.7955	1189.9	305.45
901.7085	1645.5416	1179.85	293
901.8504	1647.2868	1180.3	295.5
901.9923	1649.0313	1172	287.2
902.1342	1650.7751	1168.35	281.05
902.2761	1652.5181	1161.55	277.1
902.4179	1654.2604	1167.95	280.9
902.5598	1656.0019	1165.35	279.75
902.7016	1657.7427	1169.55	284.05
902.8434	1659.4828	1182.7	297.9
902.9852	1661.222	1196.85	310.05
903.127	1662.9606	1220.4	334.4
903.2687	1664.6984	1234.2	350
903.4105	1666.4354	1238.45	351.65
903.5522	1668.1717	1235.5	351.25
903.6939	1669.9072	1207	323.2
903.8356	1671.642	1185.4	296.15
903.9773	1673.3761	1163.85	279.55
904.119	1675.1094	1147.85	263.1
904.2606	1676.8419	1136.7	253.15
904.4022	1678.5737	1128	244
904.5439	1680.3048	1123.4	237.3
904.6855	1682.0351	1114.2	229.7
904.827	1683.7646	1109.75	222.55
904.9686	1685.4934	1108.7	225.2
905.1101	1687.2215	1101.95	213.8
905.2517	1688.9488	1102.05	218.75
905.3932	1690.6754	1095.45	209.05
905.5347	1692.4012	1097.3	212.45
905.6761	1694.1263	1094.65	211.25
905.8176	1695.8506	1092.4	206.95
905.9591	1697.5742	1087.8	201.35
906.1005	1699.297	1090.4	205.15
906.2419	1701.0191	1092.35	205.55
906.3833	1702.7404	1088.3	202.25
906.5246	1704.461	1088.6	200.85
906.666	1706.1808	1086.4	199.75
906.8073	1707.8999	1084.65	196
906.9487	1709.6182	1082.65	196.2
907.09	1711.3358	1083.15	198.5
907.2313	1713.0527	1075.35	190.65
907.3725	1714.7688	1080.6	188.2
907.5138	1716.4841	1082.45	195.15
907.655	1718.1987	1079.9	190
907.7962	1719.9126	1076.15	192.55
907.9374	1721.6257	1077.8	191.95
908.0786	1723.338	1074.3	186.55
908.2198	1725.0496	1077.55	191.75
908.3609	1726.7605	1075.65	189.35
908.502	1728.4706	1073.7	188.15
908.6431	1730.18	1069.95	181.25
908.7842	1731.8886	1070.7	184.3
908.9253	1733.5964	1089.15	181.55
909.0664	1735.3036	1072.45	184.65
909.2074	1737.0099	1071.95	185.75
909.3484	1738.7156	1064.35	180.5
909.4894	1740.4204	1073.65	186
909.6304	1742.1246	1066.7	181.2
909.7714	1743.8279	1066.95	184.15
909.9123	1745.5306	1066.4	179.6
910.0532	1747.2325	1069.55	184.15
910.1941	1748.9336	1065.65	179.55
910.335	1750.634	1069.35	181.45
910.4759	1752.3336	1063.65	176.55
910.6168	1754.0325	1063.55	177.95
910.7576	1755.7307	1062.45	177.05
910.8984	1757.4281	1067.55	182.35
911.0392	1759.1247	1074	181.15
911.18	1760.8206	1070.25	179.1
911.3208	1762.5158	1069.6	181.75
911.4615	1764.2102	1057.55	173.65
911.6022	1765.9039	1061.75	176.9
911.7429	1767.5968	1063.25	179
911.8836	1769.289	1062.8	179.1
912.0243	1770.9804	1059.65	172.45
912.1649	1772.6711	1059.25	174.75
912.3056	1774.361	1061.85	173.75
912.4462	1776.0502	1056.2	170.6
912.5868	1777.7386	1062.95	173.4
912.7274	1779.4263	1058.15	172.25
912.8679	1781.1132	1056.55	171.55
913.0084	1782.7994	1055.8	168.25
913.149	1784.4849	1056.5	171.4
913.2895	1786.1696	1076.35	173
913.4299	1787.8535	1058.65	172.5
913.5704	1789.5367	1055.75	169.1
913.7108	1791.2192	1054.9	168.85
913.8513	1792.9009	1067.6	165.7
913.9917	1794.5818	1056.05	169.15
914.132	1796.2621	1050.65	167.25
914.2724	1797.9415	1051.8	164.35
914.4128	1799.6202	1053.25	167.3
914.5531	1801.2982	1050.35	165.6
914.6934	1802.9755	1057.5	172
914.8337	1804.6519	1049.5	165.35
914.9739	1806.3277	1052.9	167.35
915.1142	1808.0027	1049.5	163.6
915.2544	1809.6769	1048.15	161.5
915.3946	1811.3504	1050.2	161.5
915.5348	1813.0231	1045.65	157.9
915.675	1814.6951	1055.2	168.75
915.8151	1816.3664	1050.6	162.2
915.9553	1818.0369	1045.25	157.8
916.0954	1819.7067	1044.45	159
916.2355	1821.3757	1046.7	160.6
916.3755	1823.044	1047.25	162.2
916.5156	1824.7115	1047.35	161.15
916.6556	1826.3783	1042.9	159.3
916.7956	1828.0443	1042.8	159.65
916.9356	1829.7096	1045.55	158.3
917.0756	1831.3741	1047.8	158.95
917.2155	1833.0379	1043.55	157.5
917.3555	1834.701	1049.55	161.45
917.4954	1836.3633	1045.4	157.4
917.6353	1838.0248	1045.1	156.55
917.7751	1839.6856	1038.9	153.95
917.915	1841.3457	1040.25	153.05
918.0548	1843.005	1040.45	154.95
918.1946	1844.6636	1040.8	158.8
918.3344	1846.3214	1037.95	149.4
918.4742	1847.9785	1039.55	155.25
918.6139	1849.6349	1043.8	156.55
918.7537	1851.2904	1047.45	153.8
918.8934	1852.9453	1039.25	154.45
919.0331	1854.5994	1036.05	149.3
919.1727	1856.2528	1041.95	150.65
919.3124	1857.9054	1038.9	153.45
919.452	1859.5572	1038.5	152.8
919.5916	1861.2083	1034.8	146.5
919.7312	1862.8587	1036.95	150.6
919.8708	1864.5084	1040.15	152.15
920.0103	1866.1572	1035.9	151.1
920.1498	1867.8054	1037.05	151
920.2893	1869.4528	1034.55	149.95
920.4288	1871.0994	1037.5	150.55
920.5683	1872.7453	1037.2	151.85
920.7077	1874.3905	1041.3	148.45
920.8471	1876.0349	1030.1	142
920.9865	1877.6786	1034.85	150
921.1259	1879.3215	1029.45	145.1
921.2653	1880.9637	1030.25	142.3
921.4046	1882.6051	1030.8	145.05
921.5439	1884.2458	1036.45	148.3
921.6832	1885.8858	1030.35	144.15
921.8225	1887.525	1034.15	148.75
921.9617	1889.1634	1031.15	145.6
922.101	1890.8011	1028.8	143.1
922.2402	1892.4381	1028.6	142.95
922.3794	1894.0743	1027.4	140.8
922.5185	1895.7098	1027.5	142.35
922.6577	1897.3446	1028.4	140.65
922.7968	1898.9786	1033.25	145.85
922.9359	1900.6118	1030.2	144.35
923.075	1902.2443	1030.95	141.1
923.214	1903.8761	1025.15	137.5
923.3531	1905.5071	1026.75	137.15
923.4921	1907.1374	1023.75	136.9
923.6311	1908.7669	1028.1	142.7
923.77	1910.3957	1023.45	137.5
923.909	1912.0237	1022.5	136.8
924.0479	1913.651	1027.15	140.8
924.1868	1915.2776	1020.35	134.7
924.3257	1916.9034	1020.55	135.5
924.4646	1918.5285	1021.05	137.15
924.6034	1920.1528	1025.25	138.65
924.7422	1921.7764	1019.35	134.85
924.881	1923.3992	1022.45	136.7
925.0198	1925.0213	1018.2	131.7
925.1586	1926.6427	1018.3	133.2
925.2973	1928.2633	1127.35	132.4
925.436	1929.8832	1019.1	132.2
925.5747	1931.5023	1020.75	136.95
925.7134	1933.1207	1020.4	133.7
925.852	1934.7383	1019.9	132.55
925.9906	1936.3552	1018.6	134.4
926.1292	1937.9714	1017.05	128.1
926.2678	1939.5868	1019.85	132.1
926.4064	1941.2015	1018.9	131.9
926.5449	1942.8154	1015.95	131.5
926.6834	1944.4286	1018.25	131.75
926.8219	1946.041	1042	134.55
926.9604	1947.6528	1019.65	128.75
927.0988	1949.2637	1014.55	128.5
927.2372	1950.8739	1015.5	128.25
927.3756	1952.4834	1016	128.95
927.514	1954.0921	1013.25	124.8
927.6523	1955.7001	1018.4	125.5
927.7907	1957.3074	1014.75	127.8
927.929	1958.9139	1014.15	129.6
928.0673	1960.5197	1015.5	127.35
928.2055	1962.1247	1014.7	128.1
928.3438	1963.729	1009.1	124.7
928.482	1965.3325	1034.1	124.6
928.6202	1966.9353	1011.3	125.2
928.7584	1968.5374	1010.95	125.75
928.8965	1970.1387	1012.15	124.45
929.0346	1971.7393	1009	121.35
929.1727	1973.3392	1011.65	124.5
929.3108	1974.9383	1010.35	126.1
929.4489	1976.5366	1009.3	122.55
929.5869	1978.1342	1013.2	124.25
929.7249	1979.7311	1011.1	123.65
929.8629	1981.3273	1011.35	122.75
930.0009	1982.9227	1010.05	121.85
930.1388	1984.5173	1007.4	122.55
930.2767	1986.1112	1005	120.05
930.4146	1987.7044	1005.3	119.85
930.5525	1989.2968	1010.2	123.55
930.6904	1990.8885	1013.5	124.65
930.8282	1992.4795	1010.05	122
930.966	1994.0697	1009.25	123
931.1038	1995.6592	1005.4	119.95
931.2415	1997.2479	1006.45	119.8
931.3793	1998.8359	1003.3	117.3
931.517	2000.4232	1002.85	117.25
931.6547	2002.0097	1003.75	117.65
931.7923	2003.5955	1008.6	121.2
931.93	2005.1805	1009.1	120.45
932.0676	2006.7648	1002.3	114.85
932.2052	2008.3484	1003.8	116.45
932.3427	2009.9312	1003	113.8
932.4803	2011.5133	1003.95	118.1
932.6178	2013.0946	1006.65	119.95
932.7553	2014.6752	1002.1	116.15
932.8928	2016.2551	1006.9	119.85
933.0302	2017.8342	1003.55	117.7
933.1676	2019.4126	1003.55	119.05
933.305	2020.9902	1004.65	120.35
933.4424	2022.5672	1005.05	115.05
933.5798	2024.1433	1008	117.4
933.7171	2025.7188	1001.55	117.1
933.8544	2027.2935	1003.8	114.65
933.9917	2028.8674	1002.3	115.75
934.129	2030.4406	1002.85	116.05
934.2662	2032.0131	999.75	114.1
934.4034	2033.5849	1006.25	116.15
934.5406	2035.1559	996.65	110.25
934.6778	2036.7261	995.8	110.7
934.8149	2038.2957	999.05	113.45
934.952	2039.8645	999.9	114.9
935.0891	2041.4325	1001	112.4
935.2262	2042.9998	1000.65	112.9
935.3632	2044.5664	1000	111.95
935.5002	2046.1323	1002.1	118.3
935.6372	2047.6974	1001.6	114.9
935.7742	2049.2617	999.35	113.8
935.9111	2050.8254	1033.55	111.3
936.048	2052.3883	1000	112.2
936.1849	2053.9504	1001.15	113.85
936.3218	2055.5118	999.3	111.45
936.4586	2057.0725	1003.05	113
936.5955	2058.6325	997	109.85
936.7323	2060.1917	997.5	112.1
936.869	2061.7502	999	110.8
937.0058	2063.3079	996.75	111.55
937.1425	2064.8649	1001.45	109.9
937.2792	2066.4212	1000.35	112.95
937.4159	2067.9767	998.1	112.25
937.5525	2069.5315	999.25	112.3
937.6891	2071.0856	999.95	113.85
937.8257	2072.6389	997.75	110.45
937.9623	2074.1915	995.15	110.25
938.0989	2075.7433	995.1	105.95
938.2354	2077.2945	994	109.2
938.3719	2078.8448	994.75	109.25
938.5084	2080.3945	997.8	111.65
938.6448	2081.9434	995.85	110.1
938.7812	2083.4916	993.9	108.2
938.9176	2085.039	995.05	109.05
939.054	2086.5857	995.65	109.1
939.1903	2088.1317	995.9	111.45
939.3267	2089.677	996.9	108.7
939.463	2091.2215	997.25	111.25
939.5992	2092.7652	994.55	106.25
939.7355	2094.3083	997.25	111.15
939.8717	2095.8506	996.4	112
940.0079	2097.3921	995.1	109.1
940.1441	2098.933	993.45	105.85
940.2802	2100.4731	995.9	110.35
940.4163	2102.0124	1003.15	110.05
940.5524	2103.5511	994.45	109.4
940.6885	2105.089	998.15	112.65
940.8245	2106.6261	994.65	105.9
940.9606	2108.1626	996.5	108.85
941.0965	2109.6983	1020.05	106.65
941.2325	2111.2332	999.5	112.95
941.3684	2112.7675	996.4	108.05
941.5044	2114.301	996.8	108.8
941.6403	2115.8337	992.65	104.85
941.7761	2117.3657	995.25	109.25
941.912	2118.897	997.55	111.1
942.0478	2120.4276	1000.45	108.85
942.1835	2121.9575	993.05	106.55
942.3193	2123.4866	1009.25	110.3
942.455	2125.0149	998.05	108.75
942.5907	2126.5426	993.45	107.8
942.7264	2128.0695	991.4	101.1
942.8621	2129.5956	993	106.9
942.9977	2131.1211	996.55	106.45
943.1333	2132.6458	994.9	108.2
943.2689	2134.1698	993.3	106.05
943.4044	2135.693	996.85	108.4
943.54	2137.2155	994	104.7
943.6755	2138.7373	992	105.1
943.8109	2140.2584	991.75	105.25
943.9464	2141.7787	995.55	102.6
944.0818	2143.2983	988.6	102.4
944.2172	2144.8171	987.15	101.75
944.3526	2146.3353	990.1	102.05
944.4879	2147.8527	990.75	105.15
944.6232	2149.3693	993.85	109.05
944.7585	2150.8853	993.2	106.05
944.8938	2152.4005	986.9	99.6
945.029	2153.9149	987.25	101.3
945.1642	2155.4287	986.75	100.6
945.2994	2156.9417	992.5	105
945.4346	2158.454	993.35	104.5
945.5697	2159.9655	990.25	104.25
945.7048	2161.4764	988.45	101.45
945.8399	2162.9865	988.65	101.6
945.9749	2164.4958	988	100.25
946.1099	2166.0045	995.9	105.4
946.2449	2167.5124	988.3	103.4
946.3799	2169.0195	990.5	103.5
946.5148	2170.526	990.5	104.45
946.6498	2172.0317	989.8	103.5
946.7846	2173.5367	987.6	100
946.9195	2175.0409	985.65	99.1
947.0543	2176.5445	989.9	104.55
947.1891	2178.0473	987.5	102.95
947.3239	2179.5494	993.2	105.9
947.4587	2181.0507	993.2	107.5
947.5934	2182.5513	988.65	101.4
947.7281	2184.0512	984.75	98.25
947.8628	2185.5504	989.1	103.55
947.9974	2187.0488	984.2	96.4
948.132	2188.5465	989	103.75
948.2666	2190.0435	987.05	100.2
948.4012	2191.5397	987.95	102.95
948.5357	2193.0353	984.1	98.25
948.6702	2194.5301	984.6	98.05
948.8047	2196.0241	988.9	101.95
948.9392	2197.5175	985.8	98.65
949.0736	2199.0101	986.3	95.45
949.208	2200.502	987.45	101.6
949.3424	2201.9931	983.2	97.4
949.4767	2203.4835	987.85	101.7
949.611	2204.9733	993.7	99.35
949.7453	2206.4622	981.9	95.5
949.8796	2207.9505	991.5	103.9
950.0138	2209.438	983.35	99.3
950.148	2210.9248	985.35	97.4
950.2822	2212.4109	984	96.4
950.4164	2213.8962	983.5	95.2
950.5505	2215.3809	984.8	97.2
950.6846	2216.8648	981.7	95.85
950.8186	2218.3479	985.55	95.45
950.9527	2219.8304	986.05	95.85
951.0867	2221.3121	981.15	92.3
951.2207	2222.7931	978.65	91.85
951.3546	2224.2733	980.4	93.2
951.4886	2225.7529	978.35	92.55
951.6225	2227.2317	983.95	94.1
951.7563	2228.7098	977.75	92.45
951.8902	2230.1872	984.5	98
952.024	2231.6638	981.9	95.35
952.1578	2233.1397	981.4	89.65
952.2916	2234.6149	980.8	93.15
952.4253	2236.0894	979.35	92.75
952.559	2237.5632	989.9	94.6
952.6927	2239.0362	979.5	93.4
952.8263	2240.5085	980.05	91.95
952.9599	2241.9801	978.1	90.55
953.0935	2243.4509	977.55	93.1
953.2271	2244.921	974.4	88.7
953.3606	2246.3904	978.1	91.05
953.4941	2247.8591	975.45	89.2
953.6276	2249.3271	974.85	87.75
953.7611	2250.7943	979.25	90.15
953.8945	2252.2608	971.85	84.4
954.0279	2253.7266	971.4	84
954.1612	2255.1917	975.85	89.6
954.2946	2256.656	973.5	85.4
954.4279	2258.1197	974.65	88.55
954.5612	2259.5826	974.65	87.05
954.6944	2261.0447	976.85	88.2
954.8276	2262.5062	978.6	90.45
954.9608	2263.9669	978.1	91.25
955.094	2265.4269	973.95	89.5
955.2271	2266.8862	973.95	86.95
955.3602	2268.3448	973.65	86.5
955.4933	2269.8026	972.95	86.45
955.6264	2271.2598	972.85	86.35
955.7594	2272.7162	969.7	85.35
955.8924	2274.1719	971.9	87.5
956.0253	2275.6268	972.4	86.3
956.1583	2277.0811	971.9	86.6
956.2912	2278.5346	969.1	80.95
956.4241	2279.9874	966.9	81.4
956.5569	2281.4395	971.55	85.6
956.6897	2282.8908	976.95	85.05
956.8225	2284.3414	975.1	86.8
956.9553	2285.7914	974.7	87.9
957.088	2287.2406	974.25	86.45
957.2207	2288.689	970.9	85.7
957.3534	2290.1368	972.55	84.95
957.486	2291.5838	972.95	84.6
957.6186	2293.0302	973.55	87.15
957.7512	2294.4758	968.95	82.6
957.8838	2295.9206	969.15	81.35
958.0163	2297.3648	968.85	82.55
958.1488	2298.8082	968.75	80.7
958.2813	2300.251	967.1	80.95
958.4137	2301.693	970.65	83.7
958.5461	2303.1343	970	82.25
958.6785	2304.5748	965.6	78.95
958.8108	2306.0147	968.45	80.65
958.9432	2307.4538	972.35	82.65
959.0754	2308.8922	966.95	80
959.2077	2310.3299	967.7	81.5
959.3399	2311.7669	969.6	84.4
959.4721	2313.2031	967.15	82.05
959.6043	2314.6387	967.4	80.6
959.7365	2316.0735	968.65	82.65
959.8686	2317.5076	968.55	81.15
960.0006	2318.941	967	82
960.1327	2320.3737	966.65	79.85
960.2647	2321.8056	970	82.2
960.3967	2323.2369	970.1	83.95
960.5287	2324.6674	972.95	85.3
960.6606	2326.0972	971.95	86.3
960.7925	2327.5263	972.45	87.7
960.9244	2328.9547	972.8	84.6
961.0562	2330.3823	973.9	88.25
961.1881	2331.8092	972.6	81.5
961.3198	2333.2355	967.7	80.8
961.4516	2334.661	965.4	77.05
961.5833	2336.0858	968.2	81.25
961.715	2337.5098	964.25	77.8
961.8467	2338.9332	964.45	77.3
961.9783	2340.3558	966.15	75.25
962.1099	2341.7778	964.9	76.2
962.2415	2343.199	964.1	76.5
962.373	2344.6195	964.95	79
962.5045	2346.0393	962.6	78.15
962.636	2347.4583	966.55	79.9
962.7675	2348.8767	963	76.65
962.8989	2350.2943	965.45	80.05
963.0303	2351.7113	966.15	78.45
963.1617	2353.1275	960.5	74.85
963.293	2354.543	966.55	72.2
963.4243	2355.9578	961.05	75
963.5556	2357.3718	960.15	74.9
963.6868	2358.7852	964.5	76.4
963.818	2360.1978	962.05	75.75
963.9492	2361.6098	962.05	76
964.0803	2363.021	960.7	68.5
964.2114	2364.4315	961.2	73.75
964.3425	2365.8413	965.3	76.3
964.4736	2367.2504	958.85	73.65
964.6046	2368.6587	961	74.2
964.7356	2370.0664	960.65	72.9
964.8666	2371.4733	959.45	72.35
964.9975	2372.8795	959.9	73.85
965.1284	2374.285	957.4	71.65
965.2593	2375.6899	960.55	74.6
965.3901	2377.0939	958.7	71.85
965.5209	2378.4973	957.25	71.05
965.6517	2379.9	957.75	69.9
965.7825	2381.3019	960.45	73.6
965.9132	2382.7032	955.95	69.9
966.0439	2384.1037	956.8	72.3
966.1745	2385.5035	957.5	70.85
966.3051	2386.9027	955.75	69.35
966.4357	2388.3011	961.5	71.35
966.5663	2389.6987	957.7	70.7
966.6968	2391.0957	956.25	70.2
966.8273	2392.492	954.45	69.85
966.9578	2393.8876	956.7	69.1
967.0882	2395.2824	956.5	67.85
967.2186	2396.6765	951.6	67
967.349	2398.07	952.2	66.8
967.4793	2399.4627	957.75	71.05
967.6097	2400.8547	954.5	68.35
967.7399	2402.246	959.35	67.05
967.8702	2403.6366	955.5	69.4
968.0004	2405.0265	953.75	68
968.1306	2406.4156	959.65	68.45
968.2607	2407.8041	956.55	66.9
968.3909	2409.1918	954.5	65.95
968.521	2410.5789	954.85	70
968.651	2411.9652	955.3	65.4
968.781	2413.3508	952.55	64.5
968.911	2414.7358	953.15	66.2
969.041	2416.12	953.25	66.75
969.1709	2417.5035	951.35	64.35
969.3008	2418.8863	952.05	64.25
969.4307	2420.2684	950.55	64.5
969.5606	2421.6497	950.4	64.25
969.6904	2423.0304	950.9	64.25
969.8201	2424.4104	952.35	64.15
969.9499	2425.7896	957.05	64.4
970.0796	2427.1682	950.45	63.3
970.2093	2428.546	949.75	62.1
970.3389	2429.9232	949.7	62.85
970.4685	2431.2996	948.6	62.3
970.5981	2432.6753	951.25	66.15
970.7277	2434.0503	951.55	65.2
970.8572	2435.4246	949.4	64.55
970.9867	2436.7982	952.2	65.1
971.1161	2438.1711	949	63.5
971.2456	2439.5433	951.2	65.25
971.375	2440.9148	954.1	61.95
971.5043	2442.2856	947.5	62.7
971.6336	2443.6557	947.25	58
971.7629	2445.025	947.05	58.45
971.8922	2446.3937	948.2	62.75
972.0214	2447.7617	948	59.35
972.1506	2449.1289	948.35	61.7
972.2798	2450.4955	950.3	59.45
972.4089	2451.8613	947.7	62.85
972.538	2453.2265	946.2	59.75
972.6671	2454.5909	947.95	58.6
972.7961	2455.9546	945.2	58.55
972.9251	2457.3177	945.95	59.65
973.0541	2458.68	946.8	58.95
973.1831	2460.0416	945.8	58.05
973.312	2461.4025	948.2	58.1
973.4408	2462.7627	958.35	61.8
973.5697	2464.1222	945.25	58.95
973.6985	2465.4811	944.75	57.7
973.8273	2466.8392	944.55	57.4
973.956	2468.1966	949.45	59.55
974.0847	2469.5533	948.2	59.4
974.2134	2470.9093	948.5	61.25
974.3421	2472.2645	948.3	61
974.4707	2473.6191	947.65	60.85
974.5993	2474.973	944.5	57.9
974.7278	2476.3262	947.95	59.5
974.8563	2477.6787	945.3	59.65
974.9848	2479.0305	942.85	57.55
975.1132	2480.3816	944.6	56.1
975.2417	2481.7319	944.85	58.9
975.37	2483.0816	945.6	56.7
975.4984	2484.4306	945.9	57.4
975.6267	2485.7789	944.9	58.55
975.755	2487.1264	946.95	58.7
975.8833	2488.4733	942.05	55.8
976.0115	2489.8195	958.6	54.5
976.1397	2491.165	946.5	57.65
976.2678	2492.5097	945.2	55.4
976.3959	2493.8538	941.7	53.85
976.524	2495.1972	942.8	56.65
976.6521	2496.5398	943.95	58.2
976.7801	2497.8818	942.35	50.85
976.9081	2499.2231	940.65	54.45
977.036	2500.5637	944.55	57.35
977.164	2501.9035	942.9	57
977.2918	2503.2427	946.2	53.5
977.4197	2504.5812	945.25	57.05
977.5475	2505.919	942.5	54.2
977.6753	2507.256	939.4	51.8
977.8031	2508.5924	938.7	51.4
977.9308	2509.9281	946.6	55.45
978.0585	2511.2631	941.95	54.15
978.1861	2512.5974	941.45	54.3
978.3137	2513.9309	943.2	57.9
978.4413	2515.2638	974.35	56.75
978.5689	2516.596	940.85	55.65
978.6964	2517.9275	941.65	56.05
978.8239	2519.2583	940.15	53.25
978.9513	2520.5884	937.7	49.75
979.0788	2521.9178	938.8	51.2
979.2062	2523.2465	935.5	49.6
979.3335	2524.5745	938.6	51.55
979.4608	2525.9018	940.8	54.05
979.5881	2527.2284	939.95	54.3
979.7154	2528.5543	935.55	51.8
979.8426	2529.8796	939.8	53
979.9698	2531.2041	940.55	52.7
980.0969	2532.5279	938.95	53.3
980.224	2533.851	936.25	50.3
980.3511	2535.1735	937.7	50.3
980.4781	2536.4952	935.4	47.7
980.6052	2537.8163	939.7	52.85
980.7321	2539.1366	936.1	51.75
980.8591	2540.4562	936.9	49.45
980.986	2541.7752	935.7	50.55
981.1129	2543.0935	937.3	50.2
981.2397	2544.411	939.6	52
981.3665	2545.7279	936.35	50.45
981.4933	2547.0441	936.75	49.85
981.62	2548.3596	939.65	49.25
981.7467	2549.6744	934.3	45.4
981.8734	2550.9885	937	47.85
982.0001	2552.3019	936.8	51.15
982.1267	2553.6146	937	51.55
982.2532	2554.9266	936.8	49.75
982.3798	2556.2379	936.8	48.55
982.5063	2557.5485	936.5	52.55
982.6327	2558.8585	943.05	49.35
982.7592	2560.1677	936.3	46.2
982.8856	2561.4762	935.2	49
983.0119	2562.7841	939.7	48.1
983.1383	2564.0913	935.1	48.8
983.2646	2565.3977	936.2	49.5
983.3908	2566.7035	935.8	52.75
983.517	2568.0086	935.65	49.15
983.6432	2569.313	936.6	48.5
983.7694	2570.6167	937.45	48.25
983.8955	2571.9197	933.6	47.5
984.0216	2573.222	934.7	46.1
984.1476	2574.5236	935.25	48.9
984.2737	2575.8246	936.15	46.15
984.3996	2577.1248	932.65	43.1
984.5256	2578.4244	931.5	43.7
984.6515	2579.7232	932.8	45.15
984.7774	2581.0214	961.1	46.45
984.9032	2582.3189	935.1	50.45
985.029	2583.6157	937.75	48.15
985.1548	2584.9118	933.75	46.9
985.2806	2586.2072	933.15	48.45
985.4063	2587.5019	933.95	49.15
985.5319	2588.7959	935.35	49.45
985.6576	2590.0893	935.8	47.35
985.7832	2591.3819	932.85	48.45
985.9087	2592.6739	932.85	46.85
986.0343	2593.9652	936.05	48.8
986.1597	2595.2557	935.65	51.15
986.2852	2596.5456	935.05	47.95
986.4106	2597.8348	934.95	49.75
986.536	2599.1234	932.6	47.8
986.6614	2600.4112	935.5	50.4
986.7867	2601.6983	934.15	43.45
986.912	2602.9848	933.1	44.5
987.0372	2604.2705	939.25	46.4
987.1624	2605.5556	931.35	44.4
987.2876	2606.84	935.05	49
987.4128	2608.1237	934.2	44.8
987.5379	2609.4067	931	42.8
987.6629	2610.689	940.5	44.6
987.788	2611.9707	936.7	46.4
987.913	2613.2516	935.05	42.9
988.0379	2614.5319	930.25	43.45
988.1629	2615.8115	930.15	45.6
988.2878	2617.0903	933.65	48.3
988.4126	2618.3685	929.2	42.35
988.5375	2619.6461	931.45	43.2
988.6622	2620.9229	928.95	41.3
988.787	2622.199	932.15	44.5
988.9117	2623.4745	932.1	45.7
989.0364	2624.7493	929	43
989.161	2626.0234	929.6	44.8
989.2857	2627.2968	928.8	41.95
989.4102	2628.5695	929.35	42.3
989.5348	2629.8415	929.3	43.2
989.6593	2631.1128	931.95	44.95
989.7837	2632.3835	929.15	43.65
989.9082	2633.6535	926	38
990.0326	2634.9228	927.3	42.9
990.1569	2636.1914	927.1	39.15
990.2812	2637.4593	932.5	38.75
990.4055	2638.7265	929.85	41.7
990.5298	2639.9931	928.65	40.3
990.654	2641.259	928.15	39.9
990.7782	2642.5242	925.6	37.6
990.9023	2643.7887	928.95	43.9
991.0264	2645.0525	926.45	38.95
991.1505	2646.3156	927.8	41.15
991.2745	2647.5781	927.35	41.85
991.3985	2648.8398	923.85	38.2
991.5225	2650.1009	967.5	44.85
991.6464	2651.3613	929.55	43.4
991.7703	2652.6211	925.6	40.4
991.8942	2653.8801	926.55	41.9
992.018	2655.1385	929.05	40
992.1418	2656.3961	928.6	40
992.2655	2657.6531	923.6	36.85
992.3892	2658.9094	927.2	39.45
992.5129	2660.1651	923.9	37.85
992.6366	2661.42	924.85	38.9
992.7602	2662.6743	926.85	39
992.8837	2663.9279	929.65	44.25
993.0073	2665.1808	927.25	41.5
993.1307	2666.433	925.95	37.9
993.2542	2667.6846	925.2	38.15
993.3776	2668.9354	929.7	37.15
993.501	2670.1856	925.55	37.75
993.6244	2671.4351	926.25	41.75
993.7477	2672.6839	929.25	40.4
993.8709	2673.9321	925.25	38.75
993.9942	2675.1795	927.7	41.1
994.1174	2676.4263	923	36.95
994.2405	2677.6724	926.2	41.75
994.3637	2678.9179	925.65	38.9
994.4868	2680.1626	926.75	40.15
994.6098	2681.4067	924.6	36.85
994.7328	2682.6501	925.8	39.6
994.8558	2683.8928	925.1	38.1
994.9788	2685.1348	927	39.75
995.1017	2686.3761	925	40.6
995.2245	2687.6168	924.65	37.25
995.3474	2688.8568	923.15	34.6
995.4702	2690.0961	924.1	39.55
995.5929	2691.3348	923.4	37.3
995.7156	2692.5727	923.5	37
995.8383	2693.81	925.3	38.7
995.961	2695.0466	921.3	35.65
996.0836	2696.2826	922.65	36.45
996.2062	2697.5178	924.8	35.05
996.3287	2698.7524	923.95	35.8
996.4512	2699.9863	925	36.25
996.5737	2701.2195	921.5	37
996.6961	2702.452	923.75	37.5
996.8185	2703.6839	924.95	38
996.9408	2704.9151	920.9	36.85
997.0631	2706.1456	926.45	39.5
997.1854	2707.3755	925.85	38.2
997.3077	2708.6046	928.6	40.35
997.4299	2709.8331	926.05	38.75
997.552	2711.0609	924.8	37.55
997.6742	2712.2881	923.75	37.4
997.7963	2713.5145	925.05	35.55
997.9183	2714.7403	922.2	36.05
998.0403	2715.9654	926.2	38
998.1623	2717.1899	927.75	41.45
998.2842	2718.4136	926.5	39.35
998.4062	2719.6367	926.3	40.35
998.528	2720.8591	934.1	42
998.6498	2722.0809	929.9	41.8
998.7716	2723.3019	932.85	42.65
998.8934	2724.5223	929.45	42.4
999.0151	2725.7421	930.4	42
999.1368	2726.9611	928.6	41.1
999.2584	2728.1795	929.4	39.15
999.38	2729.3972	927.7	40.15
999.5016	2730.6142	939.45	38.85
999.6231	2731.8306	927.65	37.7
999.7446	2733.0462	928.1	38.1
999.8661	2734.2612	928.1	35.65
999.9875	2735.4756	925	35.25
1000.1089	2736.6892	921.75	34.8
1000.2302	2737.9022	918.8	33.25
1000.3515	2739.1145	922.9	35.8
1000.4728	2740.3262	931.35	37.75
1000.594	2741.5372	920.6	34.1
1000.7152	2742.7475	922.7	34.8
1000.8363	2743.9571	923.4	33.85
1000.9575	2745.1661	924.3	32.35
1001.0785	2746.3744	919.3	31.45
1001.1996	2747.582	919.15	31.5
1001.3206	2748.7889	919.6	32
1001.4415	2749.9952	918	30.75
1001.5625	2751.2008	918.05	30.5
1001.6833	2752.4057	919.8	31.35
1001.8042	2753.61	918.45	29.05
1001.925	2754.8136	918.35	29.5
1002.0458	2756.0165	914.65	27.2
1002.1665	2757.2188	916.95	31.1
1002.2872	2758.4204	916.35	30.7
1002.4078	2759.6213	918.3	30.55
1002.5285	2760.8215	925.8	31.75
1002.649	2762.0211	920	31.2
1002.7696	2763.22	919.3	30.55
1002.8901	2764.4182	919.25	32
1003.0106	2765.6158	917.25	28.85
1003.131	2766.8127	916.25	29
1003.2514	2768.009	914.75	27.55
1003.3717	2769.2045	917.45	30.25
1003.492	2770.3994	919.2	29.7
1003.6123	2771.5936	915.5	27.35
1003.7325	2772.7872	917.4	31.2
1003.8527	2773.9801	915.45	27.6
1003.9729	2775.1723	934.35	32.35
1004.093	2776.3639	913.25	26.3
1004.2131	2777.5548	916.85	28.75
1004.3331	2778.745	917.45	29.05
1004.4531	2779.9346	915.4	29.4
1004.5731	2781.1235	915.75	27.2
1004.693	2782.3117	915.6	28.95
1004.8129	2783.4992	917.2	30.35
1004.9328	2784.6861	917.4	31.8
1005.0526	2785.8723	916.35	29.2
1005.1723	2787.0579	914.8	25.35
1005.2921	2788.2428	913.95	26.95
1005.4118	2789.427	914.95	28.3
1005.5314	2790.6106	915	27.45
1005.651	2791.7935	915.9	27.9
1005.7706	2792.9757	915.65	30.1
1005.8902	2794.1573	916.85	27.95
1006.0097	2795.3382	914.9	26.7
1006.1291	2796.5184	914.15	29.4
1006.2485	2797.698	916.7	28.15
1006.3679	2798.8769	915.55	29.9
1006.4873	2800.0551	915.6	30.25
1006.6066	2801.2327	919.65	31.8
1006.7258	2802.4096	914.3	26.7
1006.8451	2803.5859	917.2	29.35
1006.9642	2804.7615	916.45	29.5
1007.0834	2805.9364	917	30.8
1007.2025	2807.1106	916.05	31.55
1007.3216	2808.2842	918.75	30.5
1007.4406	2809.4572	917.15	30.3
1007.5596	2810.6294	921.1	31.2
1007.6785	2811.801	917.65	31.15
1007.7975	2812.972	918.7	31.85
1007.9163	2814.1423	918.05	32.6
1008.0352	2815.3119	922.55	35.35
1008.154	2816.4808	922.4	36.95
1008.2727	2817.6491	924	36.85
1008.3914	2818.8167	927.65	42.15
1008.5101	2819.9837	934.5	42.4
1008.6288	2821.15	931.4	42.45
1008.7474	2822.3157	934.5	49.1
1008.8659	2823.4807	937.35	50.25
1008.9844	2824.645	943.9	55.05
1009.1029	2825.8086	946.2	60.45
1009.2214	2826.9716	952.05	66.1
1009.3398	2828.134	956.8	70.65
1009.4581	2829.2957	959.35	72.75
1009.5764	2830.4567	959.55	74.6
1009.6947	2831.617	966.3	79.7
1009.813	2832.7767	966.3	79.1
1009.9312	2833.9358	966.85	80.3
1010.0493	2835.0941	968.15	80.15
1010.1675	2836.2519	963.85	77.5
1010.2855	2837.4089	963.2	77.15
1010.4036	2838.5653	961.3	75.15
1010.5216	2839.7211	959.75	75.35
1010.6396	2840.8761	958	69.35
1010.7575	2842.0306	954.6	67.95
1010.8754	2843.1843	954.5	69.35
1010.9932	2844.3374	956.2	69.65
1011.111	2845.4899	956.3	70.7
1011.2288	2846.6417	956.85	69.95
1011.3465	2847.7928	959.95	75.85
1011.4642	2848.9433	958.3	71.45
1011.5818	2850.0931	958.95	73.45
1011.6995	2851.2422	961.35	73.1
1011.817	2852.3907	959.35	71.65
1011.9345	2853.5385	963.2	75.35
1012.052	2854.6857	988.95	76.8
1012.1695	2855.8323	962.25	74.1
1012.2869	2856.9781	965.15	79.6
1012.4042	2858.1233	967.15	80.95
1012.5216	2859.2679	967.85	79.95
1012.6389	2860.4118	969.65	81.5
1012.7561	2861.555	978.2	84.85
1012.8733	2862.6976	975	88.2
1012.9905	2863.8395	975.5	89.6
1013.1076	2864.9808	972.65	86.2
1013.2247	2866.1214	976.35	91.75
1013.3417	2867.2614	975.6	89.8
1013.4587	2868.4007	978.65	89.6
1013.5757	2869.5393	978	89.95
1013.6926	2870.6773	984.5	95
1013.8095	2871.8146	983.7	93.65
1013.9263	2872.9513	985.8	95.8
1014.0431	2874.0874	983.9	97.55
1014.1599	2875.2227	986	100.55
1014.2766	2876.3574	989.65	101.7
1014.3933	2877.4915	985.35	97.1
1014.51	2878.6249	987.85	101.3
1014.6266	2879.7577	986.55	96.8
1014.7431	2880.8898	1001.25	103.4
1014.8596	2882.0212	992.55	106.6
1014.9761	2883.152	994.25	107.2
1015.0925	2884.2821	993	106.1
1015.2089	2885.4116	995.45	108.5
1015.3253	2886.5405	996.6	112.35
1015.4416	2887.6686	1001.75	112.1
1015.5579	2888.7962	994.75	109
1015.6741	2889.923	1001	116.1
1015.7903	2891.0493	995.25	110.9
1015.9065	2892.1748	997.3	111.05
1016.0226	2893.2997	997.15	107.65
1016.1387	2894.424	995.85	109.8
1016.2547	2895.5476	995.65	108.8
1016.3707	2896.6706	995.15	108.45
1016.4866	2897.7929	1000.95	113.1
1016.6025	2898.9145	996.65	111.2
1016.7184	2900.0355	999.35	111.75
1016.8342	2901.1559	997.8	110.5
1016.95	2902.2756	998.8	106.55
1017.0658	2903.3946	997	109.5
1017.1815	2904.513	1000.65	112.8
1017.2971	2905.6308	994.5	107.1
1017.4127	2906.7479	995.05	107.15
1017.5283	2907.8643	993.85	105.9
1017.6439	2908.9801	992.75	105.8
1017.7594	2910.0953	992.7	106.85
1017.8748	2911.2098	997	106.95
1017.9902	2912.3236	998.3	103
1018.1056	2913.4368	994	104.35
1018.2209	2914.5494	992.5	105.6
1018.3362	2915.6613	997.35	105.8
1018.4515	2916.7725	993.7	103.1
1018.5667	2917.8831	991.1	105
1018.6819	2918.9931	989.4	99.85
1018.797	2920.1024	986.95	98.1
1018.9121	2921.211	982.55	95
1019.0271	2922.319	981.25	93.65
1019.1421	2923.4264	981.45	95.25
1019.2571	2924.5331	980.75	96.5
1019.372	2925.6391	978.2	89.75
1019.4869	2926.7445	977.9	92.5
1019.6017	2927.8493	984.35	96.85
1019.7165	2928.9534	980.75	93.9
1019.8313	2930.0569	986.15	97.65
1019.946	2931.1597	985.15	97.9
1020.0606	2932.2619	980.55	93.3
1020.1753	2933.3634	986.8	98.65
1020.2899	2934.4643	993.2	98.7
1020.4044	2935.5645	994.05	102
1020.5189	2936.6641	994.85	103.95
1020.6334	2937.763	986.6	100.45
1020.7478	2938.8613	986	99.35
1020.8622	2939.959	994.55	102.95
1020.9765	2941.056	983.25	95.75
1021.0908	2942.1523	983.85	95.2
1021.2051	2943.248	976.05	87.1
1021.3193	2944.3431	973.65	87.15
1021.4334	2945.4375	969.1	81.45
1021.5476	2946.5313	965.5	79.35
1021.6617	2947.6244	960.5	71.9
1021.7757	2948.7169	960.3	72.55
1021.8897	2949.8087	953.75	67.5
1022.0037	2950.8999	950.05	62.45
1022.1176	2951.9904	946.15	59.85
1022.2315	2953.0803	942.6	54.15
1022.3453	2954.1696	943.05	55.95
1022.4591	2955.2582	938.9	54.1
1022.5728	2956.3462	939.05	52.1
1022.6865	2957.4335	939.8	49.85
1022.8002	2958.5202	940.85	52
1022.9138	2959.6062	939.85	54.05
1023.0274	2960.6916	937.2	50.25
1023.141	2961.7764	938.85	50.9
1023.2545	2962.8605	938.7	52
1023.3679	2963.9439	940.5	55.4
1023.4813	2965.0267	937.55	49.7
1023.5947	2966.1089	958.35	49.15
1023.708	2967.1905	935.35	47
1023.8213	2968.2714	937.05	51.4
1023.9346	2969.3516	935.6	48.3
1024.0478	2970.4312	943.45	50.15
1024.1609	2971.5102	933.3	47.85
1024.274	2972.5885	933.2	46.85
1024.3871	2973.6662	941.45	50.35
1024.5002	2974.7432	933.65	48.75
1024.6132	2975.8196	933.95	46.7
1024.7261	2976.8954	934.4	49.2
1024.839	2977.9705	935.5	48
1024.9519	2979.045	934.9	47.25
1025.0647	2980.1188	935.5	49.75
1025.1775	2981.192	934.05	48.95
1025.2902	2982.2645	936.25	50.05
1025.4029	2983.3364	932.6	46.3
1025.5156	2984.4077	932.5	44.15
1025.6282	2985.4783	933.1	41.6
1025.7407	2986.5483	930.35	44.65
1025.8532	2987.6177	930.25	44.5
1025.9657	2988.6864	926.9	39.3
1026.0782	2989.7545	928	41.65
1026.1906	2990.8219	922.75	36.25
1026.3029	2991.8887	924.55	36.8
1026.4152	2992.9548	923.05	36.9
1026.5275	2994.0204	919.4	33.2
1026.6397	2995.0852	916.35	30.75
1026.7519	2996.1495	918	29.45
1026.864	2997.2131	916.55	31
1026.9761	2998.276	913.05	27.3
1027.0882	2999.3383	915.65	28.2
1027.2002	3000.4	913.6	26.75
1027.3122	3001.4611	910.65	23.75
1027.4241	3002.5215	908	20.45
1027.536	3003.5812	908.05	21.35
1027.6478	3004.6404	907.65	20.5
1027.7596	3005.6989	909.65	20.35
1027.8714	3006.7567	908.15	21.45
1027.9831	3007.8139	937.35	19.75
1028.0947	3008.8705	908.2	21.7
1028.2064	3009.9264	923.1	20.25
1028.3179	3010.9818	907.4	19.6
1028.4295	3012.0364	907.85	21.7
1028.541	3013.0905	905.55	18.8
1028.6524	3014.1439	904.25	16.85
1028.7638	3015.1966	904.4	17.9
1028.8752	3016.2487	903.95	17.7
1028.9865	3017.3002	909.4	16.6
1029.0978	3018.3511	903.3	18.05
1029.209	3019.4013	905.3	19.8
1029.3202	3020.4509	903.2	16.7
1029.4314	3021.4998	905.1	20.2
1029.5425	3022.5481	905.95	19.3
1029.6535	3023.5958	904.1	17.9
1029.7645	3024.6428	903.8	14.9
1029.8755	3025.6892	904.1	18.25
1029.9864	3026.735	905.5	16.85
1030.0973	3027.7802	902.7	16.65
1030.2082	3028.8247	901.95	15.75
1030.319	3029.8685	902.55	18.05
1030.4297	3030.9118	902	13.85
1030.5404	3031.9544	902.55	15.6
1030.6511	3032.9963	904.2	16.95
1030.7617	3034.0376	902.6	15.1
1030.8723	3035.0783	904.75	15.9
1030.9829	3036.1184	902.45	13.65
1031.0934	3037.1578	903.4	17
1031.2038	3038.1966	904.65	17.8
1031.3142	3039.2348	902.05	15.6
1031.4246	3040.2723	910.5	17.5
1031.5349	3041.3092	901.8	17.25
1031.6452	3042.3455	902.55	15.95
1031.7554	3043.3811	904	17.35
1031.8656	3044.4161	904.1	16.45
1031.9758	3045.4505	898.95	14.5
1032.0859	3046.4842	902.9	16.95
1032.1959	3047.5173	904.4	17.5
1032.3059	3048.5498	905.3	17.8
1032.4159	3049.5816	903.6	15.6
1032.5258	3050.6128	907.7	19.95
1032.6357	3051.6434	905.2	16.5
1032.7455	3052.6734	904.95	18.55
1032.8553	3053.7027	904.1	17.9
1032.9651	3054.7314	902.8	16.4
1033.0748	3055.7594	900.9	14.7
1033.1845	3056.7868	904.05	16.9
1033.2941	3057.8136	902.75	14.6
1033.4037	3058.8398	905.7	19
1033.5132	3059.8653	906.4	19.9
1033.6227	3060.8902	904.25	18.45
1033.7321	3061.9145	904.4	18.25
1033.8415	3062.9381	907.05	21.45
1033.9509	3063.9612	922.35	17.55
1034.0602	3064.9835	906.3	20.6
1034.1694	3066.0053	906.85	19.75
1034.2787	3067.0264	903.35	17.45
1034.3878	3068.0469	905.65	17.4
1034.497	3069.0668	904.65	16
1034.6061	3070.086	903.05	17.15
1034.7151	3071.1046	906.65	15.8
1034.8241	3072.1226	906.3	18.8
1034.9331	3073.1399	902.8	16.15
1035.042	3074.1567	904.3	17.5
1035.1508	3075.1727	906	17
1035.2597	3076.1882	904	17.3
1035.3684	3077.203	901.95	16.7
1035.4772	3078.2173	902.8	15.9
1035.5859	3079.2308	904.9	15.3
1035.6945	3080.2438	905.1	14.85
1035.8031	3081.2561	901.55	14.5
1035.9117	3082.2678	901.2	15.55
1036.0202	3083.2789	901	15
1036.1286	3084.2893	898.75	12.9
1036.2371	3085.2991	899.55	10.9
1036.3454	3086.3083	904.7	13.95
1036.4538	3087.3169	900.9	12.25
1036.562	3088.3248	901.45	12.55
1036.6703	3089.3321	900.55	11.35
1036.7785	3090.3388	899.2	13.15
1036.8866	3091.3449	900.5	15.3
1036.9948	3092.3503	901.8	11.85
1037.1028	3093.3551	897	10.05
1037.2108	3094.3593	898.55	12.7
1037.3188	3095.3629	898.35	13.15
1037.4267	3096.3658	900	11.5
1037.5346	3097.3681	899.45	12.85
1037.6425	3098.3698	902.6	15.5
1037.7503	3099.3708	898.55	10.8
1037.858	3100.3713	898.75	12.75
1037.9657	3101.3711	898.9	11.45
1038.0734	3102.3702	1040.5	16.45
1038.181	3103.3688	899.05	10.85
1038.2886	3104.3667	896	11.05
1038.3961	3105.364	896.7	10.1
1038.5036	3106.3607	901.35	13.6
1038.611	3107.3568	900.2	13.05
1038.7184	3108.3522	897.65	14.05
1038.8257	3109.347	897.75	10.6
1038.933	3110.3412	900.85	11.2
1039.0403	3111.3348	897.35	10.05
1039.1475	3112.3277	896.4	11.05
1039.2547	3113.32	895.3	9.75
1039.3618	3114.3117	896.55	10.4
1039.4689	3115.3028	896.6	10.55
1039.5759	3116.2932	897	7.3
1039.6829	3117.2831	901.9	10.4
1039.7898	3118.2723	896	12.95
1039.8967	3119.2608	895.4	9
1040.0035	3120.2488	895	9.45
1040.1103	3121.2361	897.65	10.85
1040.2171	3122.2229	895.8	9.45
1040.3238	3123.209	895.95	7.9
1040.4305	3124.1944	893.9	5.45
1040.5371	3125.1793	895.95	8.85
1040.6437	3126.1635	894.45	8.55
1040.7502	3127.1471	894.55	7.5
1040.8567	3128.1301	895.45	11.45
1040.9631	3129.1125	893.95	8.55
1041.0695	3130.0942	896.7	8.7
1041.1759	3131.0753	906.55	10.4
1041.2822	3132.0558	898.2	7.6
1041.3884	3133.0357	896.1	9.35
1041.4946	3134.015	896.8	8.4
1041.6008	3134.9936	895.6	7.75
1041.7069	3135.9716	916.75	7.3
1041.813	3136.949	896.9	10.4
1041.919	3137.9258	912.35	7.3
1042.025	3138.902	899.55	7.8
1042.1309	3139.8775	893.65	9
1042.2368	3140.8524	894.65	9.25
1042.3427	3141.8267	895.05	8.55
1042.4485	3142.8004	893.95	5.85
1042.5542	3143.7735	900.55	7.8
1042.6599	3144.7459	897.95	8.5
1042.7656	3145.7178	896.5	10.05
1042.8712	3146.689	892.65	7.45
1042.9768	3147.6596	894.7	7.95
1043.0823	3148.6295	894.5	7.45
1043.1878	3149.5989	894	5.9
1043.2932	3150.5676	892.65	7.85
1043.3986	3151.5357	892.45	8.25
1043.5039	3152.5032	892.1	5.45
1043.6092	3153.4701	893.2	6.75
1043.7145	3154.4364	894.45	5.65
1043.8197	3155.402	892.85	4.7
1043.9248	3156.367	894.2	6.15
1044.03	3157.3315	922.9	7.35
1044.135	3158.2952	895.1	8.6
1044.24	3159.2584	895.3	8.15
1044.345	3160.221	894.4	7
1044.4499	3161.1829	892.5	6.55
1044.5548	3162.1442	892.65	6.35
1044.6596	3163.105	893.7	7.2
1044.7644	3164.065	893.7	5.7
1044.8692	3165.0245	897.55	8.85
1044.9739	3165.9834	892.05	6
1045.0785	3166.9416	892.75	6.6
1045.1831	3167.8993	894.85	6.7
1045.2877	3168.8563	892.9	6.9
1045.3922	3169.8127	891.45	5.5
1045.4966	3170.7684	894.1	7.35
1045.6011	3171.7236	895.35	6.75
1045.7054	3172.6782	894.15	6.9
1045.8098	3173.6321	894.4	9.15
1045.914	3174.5854	898.7	7.75
1046.0183	3175.5381	895.15	6.9
1046.1224	3176.4902	892.9	5.65
1046.2266	3177.4417	893.3	7.2
1046.3307	3178.3926	891.85	5.05
1046.4347	3179.3428	891.1	5.6
1046.5387	3180.2924	891.75	6.75
1046.6427	3181.2415	894.1	6.95
1046.7466	3182.1899	894.3	7.9
1046.8504	3183.1377	889.95	3.8
1046.9542	3184.0848	894.7	4.15
1047.058	3185.0314	894.7	6.95
1047.1617	3185.9773	891.4	4.55
1047.2654	3186.9227	892.4	3.05
1047.369	3187.8674	894.1	5.05
1047.4726	3188.8115	896.6	6.2
1047.5761	3189.755	893.95	6.7
1047.6796	3190.6979	892.9	8.25
1047.783	3191.6402	890.45	4.9
1047.8864	3192.5818	894.55	8.25
1047.9898	3193.5229	898	6.85
1048.0931	3194.4633	891.2	4.45
1048.1963	3195.4031	891.95	4.15
1048.2995	3196.3423	892.15	4.8
1048.4027	3197.2809	891.3	5.15
1048.5058	3198.2189	893.35	4.85
1048.6089	3199.1563	899.45	7.3
1048.7119	3200.0931	892.95	7.75
1048.8148	3201.0292	892.45	6.6
1048.9178	3201.9648	890.35	4
1049.0206	3202.8997	895.05	5.85
1049.1235	3203.834	892.25	3.85
1049.2262	3204.7677	891.75	4.35
1049.329	3205.7008	894.85	7.15
1049.4317	3206.6333	888.85	3.7
1049.5343	3207.5652	894.15	6.55
1049.6369	3208.4964	892.05	4.2
1049.7394	3209.4271	893.05	5.9
1049.8419	3210.3571	892	5.95
1049.9444	3211.2865	891.6	5.6
1050.0468	3212.2154	893.15	7
1050.1491	3213.1436	895.8	6.3
1050.2514	3214.0712	899.6	7.35
1050.3537	3214.9982	892.5	5.7
1050.4559	3215.9246	890.4	2.9
1050.5581	3216.8503	891.1	4.6
1050.6602	3217.7755	890.6	2.6
1050.7623	3218.7001	890.6	3.55
1050.8643	3219.624	891.15	4.45
1050.9663	3220.5473	891.55	4.5
1051.0682	3221.4701	892.35	3.8
1051.1701	3222.3922	894.5	5.55
1051.2719	3223.3137	889.8	3.1
1051.3737	3224.2346	891.5	6.25
1051.4754	3225.1549	890.7	3.95
1051.5771	3226.0746	892.25	4.7
1051.6788	3226.9937	891.25	4.35
1051.7804	3227.9121	889.9	3.05
1051.8819	3228.83	891.9	5.55
1051.9834	3229.7473	890.95	3.8
1052.0849	3230.6639	890.2	4.25
1052.1863	3231.5799	889.35	2.65
1052.2876	3232.4954	892.3	3.95
1052.3889	3233.4102	892.75	5.9
1052.4902	3234.3244	891.8	4
1052.5914	3235.238	889.85	4.15
1052.6926	3236.151	917.3	5
1052.7937	3237.0634	889.95	3.65
1052.8948	3237.9752	891.85	7.7
1052.9958	3238.8864	890.95	3.75
1053.0968	3239.797	891.25	5.65
1053.1977	3240.7069	892.55	4.85
1053.2986	3241.6163	891.25	4.5
1053.3994	3242.5251	890	4.8
1053.5002	3243.4332	890.9	5.9
1053.6009	3244.3408	891.4	4.35
1053.7016	3245.2477	890	3.7
1053.8022	3246.154	891.6	2.45
1053.9028	3247.0598	891.65	2.7
1054.0034	3247.9649	891.55	5.15
1054.1039	3248.8694	891.8	4.1
1054.2043	3249.7733	887.95	0
1054.3047	3250.6766	890.95	4.25
1054.4051	3251.5793	891.2	4.05
1054.5054	3252.4814	890	5.4
1054.6056	3253.3829	889.75	4.25
1054.7058	3254.2838	890.9	3.15
1054.806	3255.1841	889.7	3.7
1054.9061	3256.0838	889.75	1.95
1055.0061	3256.9829	889.65	2.7
1055.1062	3257.8814	891.75	2.6
1055.2061	3258.7792	892.15	4.7
1055.306	3259.6765	892.15	5.2
1055.4059	3260.5731	889.95	4.55
1055.5057	3261.4692	891.15	3.45
1055.6055	3262.3647	891.15	5.1
1055.7052	3263.2595	889.1	3.1
1055.8049	3264.1538	890	2.8
1055.9045	3265.0474	890.95	2.65
1056.0041	3265.9404	891.05	6.6
1056.1036	3266.8329	890.4	3.25
1056.2031	3267.7247	902.15	5.5
1056.3025	3268.616	891	4.75
1056.4019	3269.5066	889.2	2.2
1056.5013	3270.3966	890.75	1
1056.6005	3271.286	888.6	2
