Software Version:	3.9.2.0
Unit SN:	10000200
Spectrometer SN:	6960
Date:	3/14/2024 1:51:16 PM
Data Line Index:	25
Spectral Points:	2048
Integration time (ms):	125
Averages:	20
Delay (ms):	30000
Sequence Number:	1
Processing:	dark subtract
Laser Power (mW):	300
Laser Current (mA):	825
Laser Diode Temp (C):	25.1
Laser Case Temp (C):	28.9
System Temp (C):	28.9
Spectrometer Temp (C):	26.7
CCD Temp (C):	0.008
Secondary Temp (C):	20.007
Heatsink Temp (C):	24.821
CCDPCB Temp (C):	38.085
SecondaryPCB Temp (C):	35.807

Wavelength	RamanShift	Raw Counts	Dark Subtracted
787.061	30.1047	465.05	54.4
787.2016	32.3739	469	59.85
787.3422	34.6426	475.6	68.5
787.4828	36.9109	479.65	68.85
787.6235	39.1787	487.9	72.8
787.7642	41.4461	501.65	81.85
787.9049	43.7131	506.8	81.6
788.0456	45.9796	518.4	90.15
788.1863	48.2456	525.85	91.65
788.3271	50.5112	540.05	104
788.4679	52.7764	543	104.1
788.6087	55.0411	557	115.1
788.7496	57.3054	569.2	122.7
788.8904	59.5692	580.1	130.8
789.0313	61.8326	595.45	143.15
789.1722	64.0955	607.8	151.15
789.3132	66.3579	627.4	164.45
789.4541	68.6199	650	183.55
789.5951	70.8815	688.9	219.95
789.7361	73.1426	766.9	293.8
789.8771	75.4032	973.35	494.7
790.0181	77.6634	1485.6	1002.55
790.1592	79.9231	2721.15	2232.7
790.3003	82.1824	5427.7	4927.65
790.4414	84.4412	10447.35	9933.2
790.5825	86.6995	17507.7	16973.95
790.7237	88.9574	24597.3	24039.9
790.8648	91.2148	29656.5	29084.75
791.006	93.4717	32201.4	31616.9
791.1472	95.7282	32740.75	32154.3
791.2885	97.9842	32737.5	32146.35
791.4297	100.2398	32271	31678.35
791.571	102.4949	31703.85	31106.85
791.7123	104.7495	30911.8	30311.85
791.8536	107.0036	30087.25	29486.15
791.9949	109.2573	29331.5	28727.85
792.1363	111.5105	28550.55	27946.45
792.2777	113.7632	27824.25	27225.6
792.4191	116.0154	27177.75	26566.2
792.5605	118.2672	26717	26109.95
792.7019	120.5185	26216.75	25608.2
792.8434	122.7693	25832.25	25219
792.9849	125.0197	25546.6	24933.5
793.1264	127.2696	25203.9	24585.85
793.2679	129.519	25100.1	24481.35
793.4094	131.7679	24852.6	24231.55
793.551	134.0163	24742.6	24116.15
793.6926	136.2642	24548.15	23920.55
793.8342	138.5117	24320.95	23680.35
793.9758	140.7587	24051.15	23412.65
794.1175	143.0052	23869.85	23234.15
794.2591	145.2512	23605.95	22968.7
794.4008	147.4967	23383.55	22746.35
794.5425	149.7417	23264.55	22625.1
794.6842	151.9863	23090.6	22447.5
794.826	154.2304	23029.5	22383.6
794.9677	156.4739	22863.35	22211.3
795.1095	158.717	22786.45	22133.95
795.2513	160.9596	22623.45	21968.85
795.3931	163.2017	22358.3	21702.65
795.535	165.4433	22069.3	21409.55
795.6768	167.6844	21680.6	21021.4
795.8187	169.925	21304.9	20641.25
795.9606	172.1651	20914.2	20248.9
796.1025	174.4047	20623.9	19953.15
796.2445	176.6439	20339.2	19663.3
796.3864	178.8825	20082.55	19409.7
796.5284	181.1206	19894.3	19217.95
796.6704	183.3582	19726.55	19042.15
796.8124	185.5954	19586.05	18904.85
796.9544	187.832	19458.95	18775.7
797.0965	190.0681	19473.7	18785.25
797.2386	192.3037	19446.35	18755.5
797.3806	194.5388	19388.65	18695.4
797.5228	196.7734	19429.05	18733.75
797.6649	199.0075	19521.7	18819.1
797.807	201.2411	19646.9	18945
797.9492	203.4742	19692.95	18992.75
798.0914	205.7068	19877.4	19170.6
798.2336	207.9389	19923.45	19217.45
798.3758	210.1704	20096.8	19388.45
798.518	212.4015	20192.6	19480.35
798.6603	214.632	20342.1	19634
798.8025	216.862	20517.75	19814.75
798.9448	219.0915	20657.9	19961.75
799.0871	221.3205	20891.25	20198.7
799.2294	223.549	21112.5	20426.4
799.3718	225.777	21488.65	20799.2
799.5141	228.0044	21841.8	21149
799.6565	230.2314	22356.25	21667.4
799.7989	232.4578	22765.8	22074.25
799.9413	234.6837	23147.45	22452.7
800.0837	236.909	23370.45	22673.35
800.2262	239.1339	23332.1	22610.15
800.3687	241.3582	23046.2	22337.3
800.5111	243.582	22641	21905.45
800.6536	245.8053	22324.25	21596.6
800.7961	248.0281	21976.1	21255.2
800.9387	250.2503	21706.3	20981.2
801.0812	252.472	21504.9	20774.1
801.2238	254.6932	21458.2	20724.55
801.3664	256.9139	21356.4	20620.2
801.509	259.134	21332.6	20595.95
801.6516	261.3536	21313.35	20579.35
801.7942	263.5727	21394.35	20655.6
801.9369	265.7912	21269.15	20531.5
802.0795	268.0092	21288.75	20554.6
802.2222	270.2267	21240.15	20499.7
802.3649	272.4436	21199.95	20457.6
802.5076	274.6601	21125.1	20379.7
802.6504	276.8759	21018.35	20278.6
802.7931	279.0913	20972.65	20229.9
802.9359	281.3061	20925.9	20183.25
803.0787	283.5204	20995.05	20244.15
803.2215	285.7341	21048.2	20298.1
803.3643	287.9473	21202.7	20436.9
803.5071	290.16	21442.3	20681.2
803.6499	292.3721	21784.7	21032.65
803.7928	294.5837	22208.25	21455.6
803.9357	296.7947	22565.85	21813.2
804.0786	299.0052	22763.55	22009.75
804.2215	301.2152	22572.8	21816.9
804.3644	303.4246	22180.8	21430.4
804.5074	305.6334	21616.45	20863.1
804.6503	307.8418	20998.1	20241.45
804.7933	310.0495	20568.85	19809.1
804.9363	312.2568	20230.5	19472.8
805.0793	314.4635	19965.65	19209.25
805.2223	316.6696	19848.35	19090.95
805.3653	318.8752	19799.55	19032.7
805.5084	321.0802	19837.05	19075.9
805.6514	323.2847	19896.5	19130.45
805.7945	325.4887	19971.8	19209.5
805.9376	327.692	19914.05	19150.55
806.0807	329.8949	19804.95	19039.45
806.2238	332.0972	19489.95	18721.75
806.367	334.2989	19238.55	18466.1
806.5101	336.5001	18905.8	18136.95
806.6533	338.7007	18689.4	17919
806.7965	340.9008	18570.35	17797.1
806.9397	343.1003	18442.5	17668.4
807.0829	345.2992	18347.45	17571.65
807.2261	347.4976	18328.25	17551.3
807.3693	349.6955	18323.55	17544.85
807.5126	351.8927	18354.6	17575.1
807.6559	354.0895	18335.7	17544.85
807.7991	356.2856	18384.15	17603.05
807.9424	358.4812	18323.3	17542.85
808.0857	360.6763	18359.05	17575.5
808.2291	362.8707	18351.25	17566.85
808.3724	365.0646	18387.4	17601.55
808.5158	367.258	18350.5	17564
808.6591	369.4508	18352.7	17562.75
808.8025	371.643	18429.65	17640.1
808.9459	373.8346	18376.9	17585.85
809.0893	376.0257	18336.45	17537.5
809.2327	378.2162	18209.85	17415.9
809.3762	380.4062	18146.1	17344.2
809.5196	382.5956	17936.95	17135.7
809.6631	384.7844	17837.8	17039.95
809.8066	386.9726	17697.5	16896.85
809.9501	389.1603	17625	16825.6
810.0936	391.3474	17600	16768
810.2371	393.5339	17544.5	16744.65
810.3806	395.7199	17475.45	16679.4
810.5241	397.9052	17490.05	16696.95
810.6677	400.09	17480.75	16687.7
810.8113	402.2743	17534.6	16744.6
810.9548	404.4579	17562.3	16773.3
811.0984	406.641	17744.6	16954.45
811.2421	408.8235	17935.95	17144.65
811.3857	411.0054	18270.8	17475.45
811.5293	413.1868	18734.8	17938.45
811.673	415.3675	19051.05	18253.75
811.8166	417.5477	19225.95	18431.15
811.9603	419.7273	19262.6	18461.6
812.104	421.9064	19131.05	18323.85
812.2477	424.0848	18991.55	18189.2
812.3914	426.2627	18735.2	17927.7
812.5351	428.4399	18433.5	17623.7
812.6788	430.6166	18064.5	17251.95
812.8226	432.7928	17633.1	16820.25
812.9663	434.9683	17289.25	16480.35
813.1101	437.1432	17053.1	16239.15
813.2539	439.3176	16882.9	16068.95
813.3977	441.4914	16729.3	15915.1
813.5415	443.6645	16711.95	15894.9
813.6853	445.8371	16607.15	15790.85
813.8291	448.0091	16500.9	15687.2
813.973	450.1806	16449.55	15634.5
814.1168	452.3514	16409.9	15589.6
814.2607	454.5216	16379.85	15553.95
814.4046	456.6913	16319.65	15503.1
814.5485	458.8603	16308.3	15490.3
814.6924	461.0288	16355.45	15536.9
814.8363	463.1967	16353.55	15535.15
814.9802	465.3639	16501.6	15679.8
815.1241	467.5306	16559.65	15736.6
815.2681	469.6967	16746.4	15922.95
815.412	471.8622	16886.25	16063.85
815.556	474.0271	17021.8	16201.4
815.7	476.1914	17052.9	16228.4
815.844	478.3551	17017.05	16194.45
815.988	480.5182	17026.25	16204.6
816.132	482.6807	16986.75	16163.3
816.276	484.8426	17065.75	16241.75
816.4201	487.0039	17339.7	16515.4
816.5641	489.1647	17766.8	16942.7
816.7082	491.3248	18186.05	17361.95
816.8522	493.4843	18378.25	17552.15
816.9963	495.6432	18359.4	17535.55
817.1404	497.8015	18262.15	17432.45
817.2845	499.9592	18241.05	17414.6
817.4286	502.1163	18161.5	17334.05
817.5727	504.2728	17898.85	17067.9
817.7168	506.4287	17555.1	16727.2
817.861	508.5839	17109.15	16280.25
818.0051	510.7386	16767.85	15940.7
818.1493	512.8927	16563.15	15727.85
818.2935	515.0461	16446.05	15617.2
818.4377	517.199	16352.95	15525.25
818.5818	519.3512	16312.8	15482.65
818.726	521.5029	16361.2	15524.6
818.8703	523.6539	16404.6	15573.6
819.0145	525.8043	16447.65	15613.65
819.1587	527.9541	16444.05	15608.5
819.303	530.1033	16374.5	15540.8
819.4472	532.2519	16458.8	15624.9
819.5915	534.3999	16557.15	15721.7
819.7357	536.5472	16836.65	16000.55
819.88	538.694	17334.55	16499.25
820.0243	540.8401	17941.85	17105
820.1686	542.9856	18422.15	17582.15
820.3129	545.1305	18591.05	17754.4
820.4572	547.2748	18400.4	17559.2
820.6016	549.4185	18005.95	17166.4
820.7459	551.5615	17608.1	16771.05
820.8902	553.704	17457.85	16616.1
821.0346	555.8458	17340.9	16502.45
821.1789	557.987	17341.9	16503.4
821.3233	560.1276	17332.25	16494.9
821.4677	562.2675	17292.85	16453
821.6121	564.4069	17309.15	16468.5
821.7565	566.5456	17253.7	16413.1
821.9009	568.6837	17136.95	16295.2
822.0453	570.8212	16842.2	16007.25
822.1897	572.958	16480.45	15640.35
822.3342	575.0942	16211.85	15371.6
822.4786	577.2299	16024.75	15184.4
822.6231	579.3648	16016.25	15175.45
822.7675	581.4992	16039.8	15197.45
822.912	583.6329	16226.4	15384
823.0565	585.766	16490.55	15650.4
823.201	587.8985	16607	15766.65
823.3454	590.0304	16592.25	15723.25
823.4899	592.1616	16481.2	15636.95
823.6345	594.2922	16358.1	15514.8
823.779	596.4222	16177.15	15330.7
823.9235	598.5515	16014.9	15168.25
824.068	600.6802	15779.9	14936.4
824.2126	602.8083	15579.85	14737.45
824.3571	604.9358	15537.25	14692.15
824.5017	607.0626	15453.5	14609.3
824.6462	609.1888	15356.2	14509.25
824.7908	611.3144	15303.65	14457.9
824.9354	613.4393	15209.95	14364.25
825.08	615.5636	15081	14235.2
825.2246	617.6873	14923.1	14076.65
825.3692	619.8103	14852.55	14004.05
825.5138	621.9327	14740.7	13889.25
825.6584	624.0544	14720	13873.85
825.803	626.1756	14684.7	13837.25
825.9477	628.2961	14626.85	13780.4
826.0923	630.4159	14547.9	13701.55
826.237	632.5351	14495.5	13647.35
826.3816	634.6537	14427.55	13578.7
826.5263	636.7716	14405.35	13555.5
826.6709	638.8889	14373.45	13522.4
826.8156	641.0056	14416.25	13567.35
826.9603	643.1216	14357.5	13508.8
827.105	645.237	14389.3	13535.8
827.2497	647.3518	14367.8	13516.15
827.3944	649.4659	14359	13505.95
827.5391	651.5793	14337	13485.1
827.6838	653.6922	14299.8	13448.55
827.8285	655.8043	14308.6	13458.85
827.9733	657.9159	14242.95	13390.1
828.118	660.0268	14143.3	13288.35
828.2627	662.137	14107.6	13255.4
828.4075	664.2466	14059.9	13203.5
828.5522	666.3556	14008.75	13155.9
828.697	668.4639	13968.95	13114
828.8418	670.5716	14033.9	13181.2
828.9865	672.6786	14081.9	13226.9
829.1313	674.785	14153	13298.15
829.2761	676.8907	14187.95	13331.25
829.4209	678.9958	14240.5	13385.95
829.5657	681.1002	14207.35	13351.5
829.7105	683.204	14188.55	13329.6
829.8553	685.3072	14126.25	13269.1
830.0001	687.4097	14015.85	13159.8
830.1449	689.5115	13963.45	13105
830.2898	691.6127	13872.3	13013.95
830.4346	693.7132	13785.1	12929.5
830.5794	695.8131	13749	12877.2
830.7243	697.9123	13696.9	12838.85
830.8691	700.0109	13631.6	12773.3
831.014	702.1089	13596.4	12736.15
831.1588	704.2061	13628.6	12769.3
831.3037	706.3028	13618.15	12761.4
831.4486	708.3987	13649.55	12791.3
831.5935	710.4941	13720.85	12860.45
831.7383	712.5887	13902.25	13042.85
831.8832	714.6827	14168.15	13302.85
832.0281	716.7761	14544.55	13684.7
832.173	718.8688	14903	14041.4
832.3179	720.9608	15109.65	14247.5
832.4628	723.0522	15154.5	14288.45
832.6077	725.1429	14924.2	14066.35
832.7527	727.233	14620.75	13761.05
832.8976	729.3224	14320.65	13461.25
833.0425	731.4112	14023.1	13158.15
833.1874	733.4993	13771.25	12905.2
833.3324	735.5867	13561.8	12697.85
833.4773	737.6735	13461.55	12597.6
833.6222	739.7596	13371.75	12506.7
833.7672	741.845	13323.95	12463.15
833.9122	743.9298	13297.55	12431.75
834.0571	746.014	13229.8	12367.1
834.2021	748.0974	13261.6	12398.5
834.347	750.1802	13214.1	12351.1
834.492	752.2624	13247.7	12386.75
834.637	754.3439	13260.5	12395.6
834.782	756.4247	13341.35	12466.6
834.9269	758.5048	13408.65	12546.6
835.0719	760.5843	13630.7	12765.55
835.2169	762.6631	13951.05	13085.85
835.3619	764.7413	14412.35	13547.25
835.5069	766.8188	15026.1	14160.75
835.6519	768.8956	15482.15	14615.35
835.7969	770.9718	15780.45	14915.3
835.9419	773.0473	15607.2	14743.8
836.0869	775.1221	15242.55	14377.6
836.232	777.1962	14850.5	13984.6
836.377	779.2697	14637.4	13768.3
836.522	781.3426	14690.2	13806.85
836.667	783.4147	14940.25	14074.05
836.8121	785.4862	15227.2	14360.95
836.9571	787.557	15229.75	14361.9
837.1021	789.6271	14804.75	13938.7
837.2472	791.6966	14255.6	13388.55
837.3922	793.7654	13656.05	12787.85
837.5373	795.8335	13322.45	12457.6
837.6823	797.901	13097.85	12234.8
837.8274	799.9678	13036.2	12168.35
837.9724	802.0339	13019.65	12152.75
838.1175	804.0993	13031.05	12157.15
838.2626	806.1641	13000	12133
838.4076	808.2282	12930.75	12064.2
838.5527	810.2916	12816.2	11945.9
838.6978	812.3544	12721.65	11855.5
838.8428	814.4164	12635.4	11768.05
838.9879	816.4778	12617.2	11751.05
839.133	818.5385	12577.85	11711.75
839.2781	820.5986	12656.05	11786.9
839.4232	822.658	12728.65	11858.3
839.5682	824.7166	12834.95	11968.8
839.7133	826.7747	13069.4	12201
839.8584	828.832	13249.85	12379.9
840.0035	830.8886	13377.05	12507.4
840.1486	832.9446	13494.1	12624.7
840.2937	834.9999	13508.4	12642.5
840.4388	837.0545	13535.3	12663.6
840.5839	839.1085	13485.45	12615.75
840.729	841.1618	13412.1	12538.4
840.8741	843.2143	13369.8	12499.7
841.0192	845.2662	13282.1	12412.6
841.1643	847.3175	13182	12313.9
841.3095	849.368	13050.3	12179.3
841.4546	851.4179	12907.05	12038.45
841.5997	853.467	12751.8	11882.95
841.7448	855.5155	12603.55	11733.05
841.8899	857.5633	12517.3	11647.8
842.0351	859.6105	12409.1	11540.6
842.1802	861.6569	12294.1	11425.25
842.3253	863.7027	12229.2	11356.4
842.4704	865.7478	12223.1	11353.6
842.6156	867.7922	12197.05	11327.55
842.7607	869.8359	12226.75	11353.7
842.9058	871.8789	12335.1	11462.65
843.0509	873.9212	12513.45	11610.1
843.1961	875.9629	12643.35	11771.75
843.3412	878.0039	12812.2	11941.15
843.4863	880.0441	12901.8	12031.8
843.6315	882.0837	12910.2	12037.1
843.7766	884.1226	12776.4	11902.35
843.9218	886.1609	12652.45	11783.2
844.0669	888.1984	12529.25	11659.8
844.212	890.2352	12503.65	11633.3
844.3572	892.2714	12440.75	11563.95
844.5023	894.3069	12406.45	11534.2
844.6475	896.3416	12288.15	11413.7
844.7926	898.3757	12224.55	11352.7
844.9377	900.4091	12205.15	11330.35
845.0829	902.4418	12231.35	11356.2
845.228	904.4739	12229.6	11354.9
845.3732	906.5052	12208.5	11332.45
845.5183	908.5358	12129.55	11256.95
845.6635	910.5658	11954	11080
845.8086	912.595	11767.4	10895.45
845.9538	914.6236	11596.2	10725.5
846.0989	916.6515	11534.85	10662.05
846.2441	918.6786	11476.6	10600.65
846.3892	920.7051	11536.9	10662.75
846.5344	922.7309	11668.85	10795.3
846.6795	924.756	11726.45	10853.65
846.8246	926.7804	11801.8	10926
846.9698	928.8041	11749.75	10872.1
847.1149	930.8272	11758.9	10884.8
847.2601	932.8495	11682.85	10808.1
847.4052	934.8711	11603.55	10729.25
847.5504	936.892	11446.9	10573.65
847.6955	938.9123	11300.85	10421.2
847.8407	940.9318	11156.05	10282.7
847.9858	942.9506	11022.9	10146.4
848.131	944.9688	10930.55	10057.15
848.2761	946.9862	10885.25	10010.8
848.4213	949.003	10803.35	9927.35
848.5664	951.019	10787.2	9913.9
848.7115	953.0344	10780.1	9903.9
848.8567	955.0491	10815.2	9936.6
849.0018	957.063	10902.55	10027.4
849.147	959.0763	10987.55	10112.5
849.2921	961.0888	10993.6	10115.2
849.4373	963.1007	11092.8	10216.3
849.5824	965.1119	11097.9	10225.7
849.7275	967.1223	11144.25	10268.6
849.8727	969.1321	11137.7	10261.75
850.0178	971.1412	11164.35	10288.6
850.1629	973.1495	11171.1	10296.2
850.3081	975.1572	11226.6	10316.1
850.4532	977.1641	11221.4	10344.4
850.5983	979.1704	11183.5	10306.85
850.7435	981.1759	11154	10272.9
850.8886	983.1808	11210.8	10333.75
851.0337	985.1849	11298.05	10411.75
851.1788	987.1884	11405.5	10527.7
851.324	989.1911	11599.95	10719.2
851.4691	991.1932	11730.6	10853.6
851.6142	993.1945	11777.7	10903.05
851.7593	995.1951	11759.7	10880.3
851.9045	997.1951	11717.25	10832.85
852.0496	999.1943	11598.7	10721.1
852.1947	1001.1928	11568.85	10689.6
852.3398	1003.1906	11545.3	10668.2
852.4849	1005.1877	11606.35	10727.85
852.63	1007.1841	11567.65	10689.95
852.7751	1009.1798	11472.45	10595.35
852.9202	1011.1748	11305.95	10429.45
853.0653	1013.1691	11079.3	10201.1
853.2104	1015.1627	10839.35	9961.8
853.3555	1017.1556	10621.9	9744.1
853.5006	1019.1477	10510.85	9634.25
853.6457	1021.1392	10423.25	9549.3
853.7908	1023.1299	10386.4	9512.75
853.9359	1025.12	10421.7	9541.6
854.081	1027.1093	10474.15	9598.1
854.2261	1029.0979	10563.45	9687.5
854.3712	1031.0859	10605.6	9727.7
854.5163	1033.0731	10616.4	9736.85
854.6613	1035.0596	10516.5	9639.35
854.8064	1037.0454	10363.05	9484.5
854.9515	1039.0304	10250	9369.45
855.0965	1041.0148	10127.2	9249.1
855.2416	1042.9985	10010.35	9130.15
855.3867	1044.9814	9987.05	9108.4
855.5317	1046.9636	9883.05	9001.05
855.6768	1048.9452	9859.2	8984.4
855.8219	1050.926	9844.85	8968.3
855.9669	1052.9061	9861.25	8983.65
856.112	1054.8855	9811.15	8931.45
856.257	1056.8642	9878	9000.65
856.4021	1058.8421	9917.55	9037.45
856.5471	1060.8194	9910	9031.7
856.6921	1062.7959	9966.1	9084.45
856.8372	1064.7717	9993.05	9113.1
856.9822	1066.7469	9993.2	9114.85
857.1272	1068.7213	9990.35	9109.1
857.2723	1070.695	9957.15	9080.45
857.4173	1072.6679	9878.2	8998.7
857.5623	1074.6402	9832.2	8954.45
857.7073	1076.6117	9828.2	8944.9
857.8523	1078.5826	9801.05	8923.75
857.9973	1080.5527	9824.7	8945.2
858.1423	1082.5221	9922.35	9043.5
858.2873	1084.4908	10092.2	9212
858.4323	1086.4587	10282.55	9405.05
858.5773	1088.426	10436.8	9554.95
858.7223	1090.3925	10441.2	9556.45
858.8673	1092.3584	10346.65	9468.05
859.0123	1094.3235	10181	9300.8
859.1573	1096.2879	10121.75	9243.5
859.3022	1098.2515	10110.45	9231.55
859.4472	1100.2145	10150.75	9274.55
859.5922	1102.1767	10213.4	9331.45
859.7371	1104.1382	10385.1	9506.25
859.8821	1106.099	10618.85	9735.1
860.027	1108.0591	10815.7	9937
860.172	1110.0185	10966.4	10086.5
860.3169	1111.9771	10972.7	10093.95
860.4619	1113.9351	10770.75	9891.4
860.6068	1115.8923	10458.4	9577.6
860.7517	1117.8488	10130.2	9249.45
860.8967	1119.8045	9860.45	8980.2
861.0416	1121.7596	9728.95	8848.8
861.1865	1123.7139	9632.85	8753.6
861.3314	1125.6675	9636.3	8758.65
861.4763	1127.6204	9682.4	8804.3
861.6212	1129.5726	9687.85	8805.85
861.7661	1131.524	9655.8	8776.4
861.911	1133.4748	9667.55	8788.85
862.0559	1135.4248	9646.45	8764.95
862.2008	1137.3741	9642.25	8762.75
862.3457	1139.3226	9557.05	8675.8
862.4905	1141.2705	9522.35	8642.15
862.6354	1143.2176	9421.55	8535.95
862.7803	1145.164	9405.2	8524.05
862.9251	1147.1097	9433.3	8553.45
863.07	1149.0546	9395.75	8516.15
863.2148	1150.9989	9294.9	8414.15
863.3597	1152.9424	9121.95	8240.45
863.5045	1154.8852	8951	8070.25
863.6493	1156.8272	8835.75	7955.8
863.7942	1158.7686	8772.95	7882.3
863.939	1160.7092	8751.65	7871.6
864.0838	1162.6491	8756.3	7873.75
864.2286	1164.5883	8793.75	7915.2
864.3734	1166.5267	8888.4	8007.15
864.5182	1168.4644	9054.8	8174.25
864.663	1170.4014	9237.65	8353.75
864.8078	1172.3377	9479.75	8600.9
864.9526	1174.2732	9704	8823.65
865.0974	1176.2081	9948.15	9065.85
865.2421	1178.1421	10190.5	9306.65
865.3869	1180.0755	10383.5	9504.5
865.5317	1182.0082	10479.9	9600.25
865.6764	1183.9401	10506	9623.75
865.8212	1185.8713	10319.15	9438.1
865.9659	1187.8017	10096.7	9215
866.1106	1189.7315	9796.9	8917.5
866.2554	1191.6605	9528.55	8619.3
866.4001	1193.5888	9318.55	8435.35
866.5448	1195.5163	9177.5	8294.75
866.6895	1197.4432	9061.9	8180
866.8342	1199.3693	9033	8151.2
866.9789	1201.2947	9006.55	8120.35
867.1236	1203.2193	8969.15	8091.3
867.2683	1205.1432	8969.25	8089.05
867.413	1207.0664	9017.3	8136.15
867.5576	1208.9889	9060.7	8177.75
867.7023	1210.9106	9085.4	8207.9
867.847	1212.8316	9124.95	8244.8
867.9916	1214.7519	9207.9	8317.35
868.1363	1216.6715	9222.75	8341.8
868.2809	1218.5903	9202.5	8322.7
868.4255	1220.5084	9181.2	8300.6
868.5701	1222.4257	9184.1	8304.05
868.7148	1224.3424	9118.55	8237.05
868.8594	1226.2583	9212.65	8325.7
869.004	1228.1735	9289.15	8406.25
869.1486	1230.0879	9376.35	8495.4
869.2932	1232.0016	9516.55	8636.2
869.4377	1233.9146	9539.1	8656
869.5823	1235.8269	9447.25	8566.4
869.7269	1237.7384	9326.95	8448.5
869.8715	1239.6492	9124.35	8244.75
870.016	1241.5592	9008.9	8126.3
870.1606	1243.4686	8896.85	8016.05
870.3051	1245.3772	8876.6	7995.65
870.4496	1247.285	8856.7	7974.1
870.5941	1249.1922	8827.05	7943.55
870.7387	1251.0986	8829.65	7947.25
870.8832	1253.0042	8823.2	7941.95
871.0277	1254.9092	8876	7997.15
871.1722	1256.8134	8959.8	8077.3
871.3167	1258.7169	9108.6	8227.05
871.4611	1260.6196	9249.15	8368.55
871.6056	1262.5216	9470.75	8588.35
871.7501	1264.4229	9615.8	8735.2
871.8945	1266.3234	9766.45	8885.05
872.039	1268.2232	9826.9	8943.1
872.1834	1270.1223	9828.55	8945.2
872.3278	1272.0207	9805.95	8923.3
872.4723	1273.9183	9781.3	8894.15
872.6167	1275.8151	9697.9	8817.25
872.7611	1277.7113	9618.95	8734.45
872.9055	1279.6067	9488.4	8605.8
873.0499	1281.5014	9393	8510.8
873.1943	1283.3953	9328.7	8445.25
873.3386	1285.2885	9340.2	8457.2
873.483	1287.181	9352.25	8470.35
873.6274	1289.0727	9409.65	8527.8
873.7717	1290.9637	9491.8	8609.7
873.9161	1292.854	9628.25	8747.65
874.0604	1294.7435	9703	8820.1
874.2047	1296.6323	9891.05	9007.6
874.349	1298.5204	10068.8	9184.15
874.4933	1300.4077	10292.25	9407.9
874.6376	1302.2943	10418.75	9538.9
874.7819	1304.1802	10443.5	9559.35
874.9262	1306.0653	10320.25	9437
875.0705	1307.9497	10141.65	9259.4
875.2147	1309.8333	9988.3	9108.7
875.359	1311.7162	9910.3	9028
875.5032	1313.5984	9947.95	9063.55
875.6475	1315.4798	10058.1	9163.95
875.7917	1317.3605	10156.8	9257.25
875.9359	1319.2405	10237.25	9352.4
876.0801	1321.1197	10227.1	9342
876.2243	1322.9982	10126.95	9240.5
876.3685	1324.876	10081.2	9198.2
876.5127	1326.753	9959.45	9076.9
876.6569	1328.6293	9973.25	9090.6
876.801	1330.5048	9966	9084.15
876.9452	1332.3796	9913.6	9032.95
877.0893	1334.2537	9891.3	8984
877.2335	1336.127	9840.75	8959.6
877.3776	1337.9996	9817.5	8934.7
877.5217	1339.8714	9776.3	8894.85
877.6658	1341.7426	9748.85	8823.8
877.8099	1343.6129	9719.8	8833.5
877.954	1345.4826	9663.1	8780.15
878.0981	1347.3515	9647.1	8762.3
878.2422	1349.2196	9583.15	8699.7
878.3862	1351.087	9600.45	8716.65
878.5303	1352.9537	9645.25	8763.1
878.6743	1354.8197	9772.15	8889.8
878.8184	1356.6849	9941.85	9059.55
878.9624	1358.5493	10054.15	9172.85
879.1064	1360.4131	10083.1	9200.35
879.2504	1362.276	10044.65	9163.4
879.3944	1364.1383	9922.2	9041.85
879.5384	1365.9998	9674.05	8785.6
879.6823	1367.8606	9357.2	8471.75
879.8263	1369.7206	9056.65	8173.4
879.9702	1371.5799	8821.1	7937.1
880.1142	1373.4384	8668.45	7786.75
880.2581	1375.2962	8526.15	7641.2
880.402	1377.1533	8274.9	7391.25
880.5459	1379.0096	7954.8	7072.5
880.6898	1380.8652	7667.1	6783.4
880.8337	1382.7201	7389.5	6506.95
880.9776	1384.5742	7163.65	6280.1
881.1215	1386.4275	7015.15	6130.5
881.2653	1388.2802	6889.25	6006.7
881.4092	1390.132	6789.25	5905.95
881.553	1391.9832	6741.7	5856.2
881.6968	1393.8336	6660.7	5777.75
881.8406	1395.6832	6611.25	5726.95
881.9844	1397.5322	6599.1	5715.9
882.1282	1399.3803	6560.8	5673.15
882.272	1401.2278	6550.25	5665.1
882.4158	1403.0745	6553.35	5671.45
882.5595	1404.9204	6525.6	5642.85
882.7033	1406.7656	6568.2	5684.5
882.847	1408.6101	6563	5680.45
882.9908	1410.4538	6600.1	5716.15
883.1345	1412.2968	6647	5764.4
883.2782	1414.139	6710.45	5829.4
883.4219	1415.9805	6810.4	5927.2
883.5656	1417.8213	6895.9	6008.1
883.7092	1419.6613	7037.05	6154
883.8529	1421.5006	7206.65	6321
883.9965	1423.3391	7479.35	6595.85
884.1402	1425.1769	7798.15	6913.45
884.2838	1427.0139	8292.35	7406.5
884.4274	1428.8502	8906.75	8022.15
884.571	1430.6858	9542.05	8657.15
884.7146	1432.5206	9945.3	9062.25
884.8582	1434.3547	10170.35	9287.7
885.0018	1436.188	10205.45	9324.8
885.1453	1438.0206	10109.6	9225.6
885.2889	1439.8524	9978.2	9093.5
885.4324	1441.6835	9838.9	8954.5
885.5759	1443.5139	9743.8	8857.2
885.7194	1445.3435	9689.6	8805.9
885.8629	1447.1724	9614.85	8731.1
886.0064	1449.0005	9568.1	8685.45
886.1499	1450.8279	9477.6	8591.35
886.2933	1452.6545	9441.35	8558.75
886.4368	1454.4804	9439.1	8557.65
886.5802	1456.3056	9461.15	8574.45
886.7237	1458.13	9347.25	8464.4
886.8671	1459.9536	9142.1	8256.25
887.0105	1461.7766	8792.15	7910.4
887.1539	1463.5987	8380.65	7493.8
887.2972	1465.4202	7976.65	7092.65
887.4406	1467.2409	7605.8	6720.6
887.584	1469.0608	7341.95	6459.3
887.7273	1470.88	7043.65	6159.35
887.8706	1472.6984	6850.85	5966.15
888.0139	1474.5161	6655.8	5769.05
888.1572	1476.3331	6473.35	5591.95
888.3005	1478.1493	6352.95	5469.35
888.4438	1479.9648	6251.7	5367.95
888.5871	1481.7795	6154.8	5269.95
888.7303	1483.5935	6088.3	5206.45
888.8736	1485.4067	6037.1	5154.7
889.0168	1487.2192	5981.25	5095.95
889.16	1489.031	5921.15	5033.1
889.3032	1490.842	5900.2	5017.1
889.4464	1492.6522	5865.15	4981.5
889.5896	1494.4618	5812.55	4930.45
889.7327	1496.2705	5791	4907.85
889.8759	1498.0785	5774.7	4890.75
890.019	1499.8858	5740.05	4855.2
890.1622	1501.6924	5688.45	4806.4
890.3053	1503.4981	5697.05	4814.25
890.4484	1505.3032	5664.55	4780.9
890.5914	1507.1075	5630.25	4748.4
890.7345	1508.911	5605.3	4721.9
890.8776	1510.7138	5568.25	4684.2
891.0206	1512.5159	5556.8	4673.1
891.1637	1514.3172	5498.6	4615.1
891.3067	1516.1178	5470.8	4588.8
891.4497	1517.9176	5462	4576.5
891.5927	1519.7166	5408.75	4525.6
891.7357	1521.515	5394.7	4504.85
891.8786	1523.3126	5362.15	4478.3
892.0216	1525.1094	5342.1	4457.15
892.1645	1526.9055	5328.35	4447.15
892.3074	1528.7008	5308.35	4425.8
892.4503	1530.4954	5277.1	4391.3
892.5932	1532.2893	5279.1	4397.55
892.7361	1534.0824	5251.35	4363.7
892.879	1535.8747	5233.55	4350.4
893.0218	1537.6663	5239.05	4355.4
893.1647	1539.4572	5222.2	4337.15
893.3075	1541.2473	5221.4	4338.2
893.4503	1543.0367	5235.95	4353.35
893.5931	1544.8253	5202.45	4315.3
893.7359	1546.6132	5225.65	4339.9
893.8787	1548.4003	5218.15	4325.55
894.0214	1550.1867	5235.35	4345.5
894.1642	1551.9723	5282.25	4393.15
894.3069	1553.7572	5293.1	4409.05
894.4496	1555.5414	5346.05	4461.7
894.5923	1557.3247	5395.95	4512.8
894.735	1559.1074	5458.9	4575.5
894.8777	1560.8893	5570.35	4687.05
895.0204	1562.6705	5629.7	4744.9
895.163	1564.4509	5714.95	4833.65
895.3056	1566.2305	5758.45	4876.35
895.4482	1568.0094	5842.45	4958.8
895.5908	1569.7876	5914.8	5031.75
895.7334	1571.565	5928.2	5043
895.876	1573.3417	5950.3	5068.8
896.0186	1575.1176	5964.1	5078.5
896.1611	1576.8928	5914.75	5032.2
896.3036	1578.6672	5837.75	4955.85
896.4461	1580.4409	5734.1	4851
896.5886	1582.2138	5629.05	4743.95
896.7311	1583.986	5532	4649.45
896.8736	1585.7575	5493.75	4612.8
897.0161	1587.5282	5426.7	4542.5
897.1585	1589.2981	5377.6	4496.2
897.3009	1591.0673	5358.6	4473.55
897.4433	1592.8358	5359.5	4477.8
897.5857	1594.6035	5395.45	4508.75
897.7281	1596.3704	5399.5	4516.55
897.8705	1598.1366	5419.7	4535.75
898.0128	1599.9021	5469.65	4587.1
898.1551	1601.6668	5507.25	4622.85
898.2975	1603.4308	5576.6	4691.05
898.4398	1605.194	5695.55	4807.85
898.5821	1606.9564	5815.55	4931.9
898.7243	1608.7182	5952.7	5065.1
898.8666	1610.4791	6110.15	5228.75
899.0088	1612.2394	6301.4	5416.8
899.1511	1613.9988	6505.85	5622.4
899.2933	1615.7576	6730.2	5849.15
899.4355	1617.5156	6926.2	6039.7
899.5776	1619.2728	7112.75	6231.55
899.7198	1621.0293	7279.05	6396.9
899.862	1622.785	7305.3	6417.35
900.0041	1624.54	7222.9	6337.2
900.1462	1626.2942	7068.85	6183.55
900.2883	1628.0477	6850.75	5965.6
900.4304	1629.8005	6611.55	5723.35
900.5725	1631.5525	6391.35	5507.55
900.7145	1633.3037	6222.9	5340.5
900.8566	1635.0542	6061.9	5179.25
900.9986	1636.804	5954.6	5070.4
901.1406	1638.553	5948.55	4986.55
901.2826	1640.3013	5863.7	4981.95
901.4245	1642.0488	5837.7	4952.9
901.5665	1643.7955	5868.15	4985.65
901.7085	1645.5416	5917.4	5032.1
901.8504	1647.2868	6021.75	5139.65
901.9923	1649.0313	6116.1	5233.85
902.1342	1650.7751	6264.5	5376.8
902.2761	1652.5181	6449.3	5566.45
902.4179	1654.2604	6674.6	5791.25
902.5598	1656.0019	6966.15	6086.5
902.7016	1657.7427	7264.65	6383
902.8434	1659.4828	7596.75	6715.95
902.9852	1661.222	7781.2	6896.7
903.127	1662.9606	7808.95	6926.75
903.2687	1664.6984	7572.3	6691.2
903.4105	1666.4354	7193.1	6311.5
903.5522	1668.1717	6682.85	5802.95
903.6939	1669.9072	6167.95	5287
903.8356	1671.642	5756.9	4872.95
903.9773	1673.3761	5432.55	4551.05
904.119	1675.1094	5158.05	4274.8
904.2606	1676.8419	4962.1	4080.45
904.4022	1678.5737	4804.05	3920.3
904.5439	1680.3048	4692.1	3808.4
904.6855	1682.0351	4568.5	3686.55
904.827	1683.7646	4508.25	3622.1
904.9686	1685.4934	4449.4	3569.5
905.1101	1687.2215	4416.6	3534.3
905.2517	1688.9488	4361.2	3480.5
905.3932	1690.6754	4311.1	3429.25
905.5347	1692.4012	4275.25	3394.35
905.6761	1694.1263	4273.35	3389.8
905.8176	1695.8506	4250.65	3369.75
905.9591	1697.5742	4215.15	3334.5
906.1005	1699.297	4182.95	3301.6
906.2419	1701.0191	4151.35	3267.2
906.3833	1702.7404	4133.55	3254
906.5246	1704.461	4101.35	3217.85
906.666	1706.1808	4077.05	3194
906.8073	1707.8999	4074.6	3192.15
906.9487	1709.6182	4041.15	3156.75
907.09	1711.3358	4034.4	3153.3
907.2313	1713.0527	4024.6	3144.55
907.3725	1714.7688	3989.45	3101.25
907.5138	1716.4841	3977.7	3096.45
907.655	1718.1987	3970.8	3084.55
907.7962	1719.9126	3947.35	3066.85
907.9374	1721.6257	3943.05	3057.1
908.0786	1723.338	3948.1	3065.8
908.2198	1725.0496	3902.5	3019.7
908.3609	1726.7605	3894.55	3012.6
908.502	1728.4706	3887.95	3003.9
908.6431	1730.18	3877.2	2994.1
908.7842	1731.8886	3855.7	2973.7
908.9253	1733.5964	3842.9	2955.7
909.0664	1735.3036	3847.2	2964.7
909.2074	1737.0099	3807.65	2924.2
909.3484	1738.7156	3810.4	2928.7
909.4894	1740.4204	3787.35	2904
909.6304	1742.1246	3780.4	2898.45
909.7714	1743.8279	3764.1	2882.15
909.9123	1745.5306	3749.9	2866.65
910.0532	1747.2325	3735.05	2852.9
910.1941	1748.9336	3724.75	2844.3
910.335	1750.634	3702.05	2817.8
910.4759	1752.3336	3692.9	2813.45
910.6168	1754.0325	3693.55	2812.85
910.7576	1755.7307	3684.2	2801.5
910.8984	1757.4281	3671.1	2788.65
911.0392	1759.1247	3676.5	2786.4
911.18	1760.8206	3663.35	2777.55
911.3208	1762.5158	3648.25	2763.95
911.4615	1764.2102	3637.75	2756.05
911.6022	1765.9039	3634.65	2751.2
911.7429	1767.5968	3624.4	2740.9
911.8836	1769.289	3606.55	2725.05
912.0243	1770.9804	3608.85	2725.2
912.1649	1772.6711	3604.3	2722.4
912.3056	1774.361	3595.55	2712.1
912.4462	1776.0502	3601.1	2718.9
912.5868	1777.7386	3575.05	2690.2
912.7274	1779.4263	3566.8	2685.5
912.8679	1781.1132	3561.25	2678.5
913.0084	1782.7994	3544.05	2658.9
913.149	1784.4849	3543.5	2660.7
913.2895	1786.1696	3551.65	2652
913.4299	1787.8535	3529.95	2647.9
913.5704	1789.5367	3527.25	2643.95
913.7108	1791.2192	3530	2647.1
913.8513	1792.9009	3512.55	2619.25
913.9917	1794.5818	3502.05	2621.5
914.132	1796.2621	3497.45	2618.3
914.2724	1797.9415	3485.2	2601.65
914.4128	1799.6202	3472.95	2592.15
914.5531	1801.2982	3474.2	2591.25
914.6934	1802.9755	3459.1	2578.45
914.8337	1804.6519	3460	2577.75
914.9739	1806.3277	3454.45	2574
915.1142	1808.0027	3441.8	2559.7
915.2544	1809.6769	3439.8	2557.55
915.3946	1811.3504	3440.8	2555.05
915.5348	1813.0231	3428.2	2544.35
915.675	1814.6951	3430.65	2548.45
915.8151	1816.3664	3437.7	2552.75
915.9553	1818.0369	3410.85	2528.5
916.0954	1819.7067	3412.2	2533.95
916.2355	1821.3757	3404.1	2520.9
916.3755	1823.044	3399.8	2518.8
916.5156	1824.7115	3379.9	2495.6
916.6556	1826.3783	3373.7	2492.35
916.7956	1828.0443	3386.1	2504.65
916.9356	1829.7096	3369.1	2485.1
917.0756	1831.3741	3371.1	2485.8
917.2155	1833.0379	3370.2	2490.6
917.3555	1834.701	3369.7	2484.25
917.4954	1836.3633	3360.35	2479.35
917.6353	1838.0248	3344.2	2458.1
917.7751	1839.6856	3332.25	2448.85
917.915	1841.3457	3350	2468.5
918.0548	1843.005	3331.55	2449.25
918.1946	1844.6636	3332.95	2451.95
918.3344	1846.3214	3317.95	2434.85
918.4742	1847.9785	3317.4	2437.6
918.6139	1849.6349	3310.65	2429.25
918.7537	1851.2904	3316.75	2427.1
918.8934	1852.9453	3307.15	2427.2
919.0331	1854.5994	3311.1	2425.3
919.1727	1856.2528	3299.7	2413.15
919.3124	1857.9054	3273.1	2391.1
919.452	1859.5572	3275.3	2392.95
919.5916	1861.2083	3268.95	2386.85
919.7312	1862.8587	3257.6	2376.7
919.8708	1864.5084	3268	2385
920.0103	1866.1572	3251.7	2371.5
920.1498	1867.8054	3247.75	2365.25
920.2893	1869.4528	3235.7	2353.15
920.4288	1871.0994	3225.05	2344.95
920.5683	1872.7453	3219.2	2336.65
920.7077	1874.3905	3220.15	2320
920.8471	1876.0349	3207.7	2325.15
920.9865	1877.6786	3219.35	2336.85
921.1259	1879.3215	3207.35	2326.25
921.2653	1880.9637	3210.35	2326.55
921.4046	1882.6051	3204.8	2325.25
921.5439	1884.2458	3188.9	2305.25
921.6832	1885.8858	3184.75	2304.4
921.8225	1887.525	3177.65	2294.95
921.9617	1889.1634	3157.6	2275.15
922.101	1890.8011	3149.35	2268.45
922.2402	1892.4381	3146.9	2265.2
922.3794	1894.0743	3140.95	2259.8
922.5185	1895.7098	3134.2	2250.75
922.6577	1897.3446	3131.45	2250.05
922.7968	1898.9786	3133.15	2246.6
922.9359	1900.6118	3124.7	2243.5
923.075	1902.2443	3115.45	2231.05
923.214	1903.8761	3116.05	2233.1
923.3531	1905.5071	3098.35	2215.5
923.4921	1907.1374	3084.45	2201.7
923.6311	1908.7669	3080.4	2198.35
923.77	1910.3957	3086	2204.45
923.909	1912.0237	3071.85	2190.6
924.0479	1913.651	3062.55	2178.95
924.1868	1915.2776	3066.15	2184.4
924.3257	1916.9034	3045.45	2164.1
924.4646	1918.5285	3045.9	2164.65
924.6034	1920.1528	3043.8	2160.35
924.7422	1921.7764	3037.55	2155.35
924.881	1923.3992	3022.35	2141
925.0198	1925.0213	3015.75	2136.35
925.1586	1926.6427	3005.6	2124.85
925.2973	1928.2633	3101	2094.6
925.436	1929.8832	3007	2124.4
925.5747	1931.5023	2974.45	2092.35
925.7134	1933.1207	2973.8	2092
925.852	1934.7383	2979.6	2096.95
925.9906	1936.3552	2971.5	2089.9
926.1292	1937.9714	2966.6	2084.1
926.2678	1939.5868	2967.9	2084.45
926.4064	1941.2015	2949.35	2066.6
926.5449	1942.8154	2928.7	2047.3
926.6834	1944.4286	2919.2	2037.2
926.8219	1946.041	2932.7	2027.25
926.9604	1947.6528	2910.4	2025
927.0988	1949.2637	2902.2	2020.3
927.2372	1950.8739	2879.55	1996.7
927.3756	1952.4834	2898.3	2015.8
927.514	1954.0921	2876.35	1993
927.6523	1955.7001	2890.35	2002.3
927.7907	1957.3074	2873.95	1992.45
927.929	1958.9139	2863.35	1982.7
928.0673	1960.5197	2857.9	1974.7
928.2055	1962.1247	2829.65	1947.8
928.3438	1963.729	2829.25	1948.95
928.482	1965.3325	2850.35	1941.3
928.6202	1966.9353	2823.2	1942
928.7584	1968.5374	2817.2	1933.15
928.8965	1970.1387	2807.3	1926.85
929.0346	1971.7393	2793.8	1909.2
929.1727	1973.3392	2797.85	1916.85
929.3108	1974.9383	2786.25	1906.4
929.4489	1976.5366	2781.8	1900.9
929.5869	1978.1342	2780.65	1899
929.7249	1979.7311	2778.5	1893.7
929.8629	1981.3273	2774.55	1889.75
930.0009	1982.9227	2770.3	1886.1
930.1388	1984.5173	2767.8	1886
930.2767	1986.1112	2747.2	1864.7
930.4146	1987.7044	2738.45	1857.05
930.5525	1989.2968	2741.85	1858.8
930.6904	1990.8885	2751.95	1867.7
930.8282	1992.4795	2738.95	1856.25
930.966	1994.0697	2729.45	1848.25
931.1038	1995.6592	2708.15	1825.9
931.2415	1997.2479	2711.45	1830.25
931.3793	1998.8359	2707.3	1826.05
931.517	2000.4232	2685.35	1805.6
931.6547	2002.0097	2690.15	1810.55
931.7923	2003.5955	2676.35	1793.4
931.93	2005.1805	2689.75	1805.7
932.0676	2006.7648	2686.3	1805.5
932.2052	2008.3484	2678	1792.4
932.3427	2009.9312	2685.45	1801.95
932.4803	2011.5133	2670.9	1791.55
932.6178	2013.0946	2661.75	1777.8
932.7553	2014.6752	2668.9	1789.3
932.8928	2016.2551	2667.45	1784.05
933.0302	2017.8342	2647.7	1767.4
933.1676	2019.4126	2640.65	1761.95
933.305	2020.9902	2643.35	1761.5
933.4424	2022.5672	2630.05	1746.4
933.5798	2024.1433	2636	1747.8
933.7171	2025.7188	2620.55	1739.6
933.8544	2027.2935	2616.85	1732.15
933.9917	2028.8674	2615.2	1732.1
934.129	2030.4406	2597.4	1715.25
934.2662	2032.0131	2603.45	1721
934.4034	2033.5849	2599.7	1710.25
934.5406	2035.1559	2591.4	1709.35
934.6778	2036.7261	2585.9	1702.8
934.8149	2038.2957	2573.15	1690.75
934.952	2039.8645	2570	1687.95
935.0891	2041.4325	2581.85	1698.55
935.2262	2042.9998	2566.4	1685.2
935.3632	2044.5664	2569.35	1684.9
935.5002	2046.1323	2561.6	1677.65
935.6372	2047.6974	2547.55	1666.55
935.7742	2049.2617	2553.55	1672
935.9111	2050.8254	2573.95	1658.1
936.048	2052.3883	2554.1	1671.15
936.1849	2053.9504	2537.15	1653.75
936.3218	2055.5118	2529.9	1647.65
936.4586	2057.0725	2532.1	1645.4
936.5955	2058.6325	2534	1652.1
936.7323	2060.1917	2520.4	1638.9
936.869	2061.7502	2528.55	1644.55
937.0058	2063.3079	2516.25	1632.05
937.1425	2064.8649	2511.5	1625.25
937.2792	2066.4212	2499.25	1616.9
937.4159	2067.9767	2504.3	1622.4
937.5525	2069.5315	2488.55	1608.05
937.6891	2071.0856	2489.1	1606.25
937.8257	2072.6389	2482.35	1598.5
937.9623	2074.1915	2471.15	1591.35
938.0989	2075.7433	2473.85	1590.4
938.2354	2077.2945	2465.95	1584.05
938.3719	2078.8448	2452.15	1571.7
938.5084	2080.3945	2451.65	1568.95
938.6448	2081.9434	2445.4	1562.2
938.7812	2083.4916	2448.2	1565.4
938.9176	2085.039	2444.15	1562.15
939.054	2086.5857	2426.55	1542.35
939.1903	2088.1317	2425.2	1542.65
939.3267	2089.677	2425.5	1544.3
939.463	2091.2215	2415.55	1534.25
939.5992	2092.7652	2418	1534.8
939.7355	2094.3083	2403.7	1522.75
939.8717	2095.8506	2399.3	1517.8
940.0079	2097.3921	2405.6	1525.4
940.1441	2098.933	2400.3	1517.2
940.2802	2100.4731	2393.1	1511.35
940.4163	2102.0124	2398.8	1510.55
940.5524	2103.5511	2389.25	1507.35
940.6885	2105.089	2401.3	1518.25
940.8245	2106.6261	2393.25	1510.6
940.9606	2108.1626	2385.4	1503.35
941.0965	2109.6983	2402.5	1491.1
941.2325	2111.2332	2378.75	1496.8
941.3684	2112.7675	2366.6	1483.6
941.5044	2114.301	2365.4	1482.05
941.6403	2115.8337	2355.5	1472.1
941.7761	2117.3657	2352.15	1471.75
941.912	2118.897	2359.2	1476.5
942.0478	2120.4276	2345.15	1454.8
942.1835	2121.9575	2349.8	1466.35
942.3193	2123.4866	2345.4	1447.55
942.455	2125.0149	2333.4	1446.45
942.5907	2126.5426	2330.95	1447.25
942.7264	2128.0695	2331.7	1444.6
942.8621	2129.5956	2326.05	1445.2
942.9977	2131.1211	2326.45	1439.35
943.1333	2132.6458	2323.6	1442.15
943.2689	2134.1698	2324	1442.95
943.4044	2135.693	2320.2	1432.85
943.54	2137.2155	2312.85	1429.4
943.6755	2138.7373	2306.75	1422.15
943.8109	2140.2584	2299.4	1418.25
943.9464	2141.7787	2302.6	1414.2
944.0818	2143.2983	2280.5	1399.1
944.2172	2144.8171	2284.45	1400.85
944.3526	2146.3353	2284.5	1400.15
944.4879	2147.8527	2269.65	1384.1
944.6232	2149.3693	2279.7	1396.5
944.7585	2150.8853	2264.65	1381.85
944.8938	2152.4005	2270.6	1388.75
945.029	2153.9149	2271.7	1390.05
945.1642	2155.4287	2265.7	1385.3
945.2994	2156.9417	2258.85	1376.65
945.4346	2158.454	2257.5	1372.6
945.5697	2159.9655	2255.8	1372.95
945.7048	2161.4764	2248.05	1365.35
945.8399	2162.9865	2239.6	1357.45
945.9749	2164.4958	2251.85	1367.35
946.1099	2166.0045	2243.15	1357.65
946.2449	2167.5124	2247.85	1366.15
946.3799	2169.0195	2226.9	1344.45
946.5148	2170.526	2222.5	1341.15
946.6498	2172.0317	2219.7	1338.05
946.7846	2173.5367	2223.35	1339.45
946.9195	2175.0409	2213.2	1330.7
947.0543	2176.5445	2216.2	1334.1
947.1891	2178.0473	2210.15	1327.35
947.3239	2179.5494	2202.6	1316.25
947.4587	2181.0507	2199.1	1317.35
947.5934	2182.5513	2201.8	1319
947.7281	2184.0512	2198.45	1315.3
947.8628	2185.5504	2192.55	1309.8
947.9974	2187.0488	2179.6	1297.2
948.132	2188.5465	2185.85	1302.6
948.2666	2190.0435	2185.35	1301.4
948.4012	2191.5397	2175.8	1294.15
948.5357	2193.0353	2170.7	1290
948.6702	2194.5301	2163.1	1278.1
948.8047	2196.0241	2159.85	1278.45
948.9392	2197.5175	2149.5	1267.9
949.0736	2199.0101	2152.9	1266.75
949.208	2200.502	2142.95	1262.95
949.3424	2201.9931	2140.15	1257.9
949.4767	2203.4835	2134.45	1249.1
949.611	2204.9733	2129.6	1242.1
949.7453	2206.4622	2121.6	1239.8
949.8796	2207.9505	2126.75	1241.25
950.0138	2209.438	2125	1243.3
950.148	2210.9248	2117.25	1233.55
950.2822	2212.4109	2116.95	1235.25
950.4164	2213.8962	2113.2	1227.2
950.5505	2215.3809	2106.95	1222.85
950.6846	2216.8648	2107.6	1223.6
950.8186	2218.3479	2105.25	1219.3
950.9527	2219.8304	2102.5	1217.5
951.0867	2221.3121	2099.1	1213.55
951.2207	2222.7931	2094.6	1212.45
951.3546	2224.2733	2076.7	1191.85
951.4886	2225.7529	2082.35	1197.7
951.6225	2227.2317	2080.65	1194.55
951.7563	2228.7098	2071.95	1190.05
951.8902	2230.1872	2064.95	1181.55
952.024	2231.6638	2067.75	1185.4
952.1578	2233.1397	2068	1179.2
952.2916	2234.6149	2055.25	1171.55
952.4253	2236.0894	2051.7	1167.65
952.559	2237.5632	2059.55	1166.25
952.6927	2239.0362	2045.05	1162.75
952.8263	2240.5085	2055.15	1170.85
952.9599	2241.9801	2034.7	1152.4
953.0935	2243.4509	2030.3	1148.8
953.2271	2244.921	2021.65	1139
953.3606	2246.3904	2022.9	1136.35
953.4941	2247.8591	2012.05	1127.85
953.6276	2249.3271	2022.75	1141.5
953.7611	2250.7943	2012.1	1129
953.8945	2252.2608	2015.8	1133.65
954.0279	2253.7266	2009.6	1126.8
954.1612	2255.1917	2005	1119.7
954.2946	2256.656	2008.55	1124.1
954.4279	2258.1197	1987.55	1106.7
954.5612	2259.5826	1985.95	1101.85
954.6944	2261.0447	1992.55	1108.5
954.8276	2262.5062	1991.85	1107.7
954.9608	2263.9669	1984.05	1099.05
955.094	2265.4269	1985.1	1104.6
955.2271	2266.8862	1975.65	1094.55
955.3602	2268.3448	1979.55	1097.3
955.4933	2269.8026	1970.8	1086.9
955.6264	2271.2598	1970.55	1087.05
955.7594	2272.7162	1967.45	1086.85
955.8924	2274.1719	1957.3	1073.25
956.0253	2275.6268	1960.35	1077.65
956.1583	2277.0811	1954.55	1071.35
956.2912	2278.5346	1964.3	1081.45
956.4241	2279.9874	1954.2	1070.05
956.5569	2281.4395	1954.45	1071.3
956.6897	2282.8908	1951.25	1062.25
956.8225	2284.3414	1945.5	1061
956.9553	2285.7914	1940.8	1058.95
957.088	2287.2406	1939.15	1055
957.2207	2288.689	1934.45	1050.75
957.3534	2290.1368	1933.25	1050.4
957.486	2291.5838	1928.1	1040.3
957.6186	2293.0302	1935.3	1050.9
957.7512	2294.4758	1920.95	1038.5
957.8838	2295.9206	1920.1	1035.65
958.0163	2297.3648	1915.7	1033.3
958.1488	2298.8082	1913.9	1028.95
958.2813	2300.251	1914.9	1034.45
958.4137	2301.693	1911.15	1026.2
958.5461	2303.1343	1911.6	1029.85
958.6785	2304.5748	1914.2	1030.95
958.8108	2306.0147	1905.3	1021.6
958.9432	2307.4538	1906.95	1024.95
959.0754	2308.8922	1890.65	1009.95
959.2077	2310.3299	1890.8	1007.8
959.3399	2311.7669	1886.2	1005
959.4721	2313.2031	1885	1002.2
959.6043	2314.6387	1893.45	1012.6
959.7365	2316.0735	1880.9	997.45
959.8686	2317.5076	1871.05	985.8
960.0006	2318.941	1868.1	985.05
960.1327	2320.3737	1869.45	985.05
960.2647	2321.8056	1869.55	984.4
960.3967	2323.2369	1865.25	982.1
960.5287	2324.6674	1862.7	975.65
960.6606	2326.0972	1850	964.6
960.7925	2327.5263	1853.05	971.2
960.9244	2328.9547	1850.1	967.8
961.0562	2330.3823	1854.35	972.3
961.1881	2331.8092	1855.35	969.95
961.3198	2333.2355	1839.45	956.3
961.4516	2334.661	1838	953.5
961.5833	2336.0858	1846.2	959
961.715	2337.5098	1845.95	962.4
961.8467	2338.9332	1834.7	951.75
961.9783	2340.3558	1840.6	953.55
962.1099	2341.7778	1836.1	954.45
962.2415	2343.199	1827.45	941.9
962.373	2344.6195	1830.85	948.8
962.5045	2346.0393	1824.65	940.3
962.636	2347.4583	1836.25	951.15
962.7675	2348.8767	1822	936.35
962.8989	2350.2943	1831.7	946.1
963.0303	2351.7113	1824.55	941.2
963.1617	2353.1275	1820.55	937.4
963.293	2354.543	1841	936.3
963.4243	2355.9578	1822.7	938.65
963.5556	2357.3718	1818.2	937.65
963.6868	2358.7852	1807.15	920.75
963.818	2360.1978	1804.25	918.9
963.9492	2361.6098	1802.55	917
964.0803	2363.021	1811.5	924.2
964.2114	2364.4315	1792.65	910.65
964.3425	2365.8413	1793.8	910.55
964.4736	2367.2504	1789.05	906.45
964.6046	2368.6587	1787.05	905.55
964.7356	2370.0664	1783.85	902.3
964.8666	2371.4733	1782.4	898.95
964.9975	2372.8795	1779.6	897.65
965.1284	2374.285	1777.75	895.05
965.2593	2375.6899	1764.05	882.55
965.3901	2377.0939	1768.5	887.65
965.5209	2378.4973	1769.7	887.25
965.6517	2379.9	1764.8	880.75
965.7825	2381.3019	1761.25	878.3
965.9132	2382.7032	1755.55	873
966.0439	2384.1037	1750.45	870.35
966.1745	2385.5035	1743.7	861.1
966.3051	2386.9027	1741.25	860
966.4357	2388.3011	1754.5	869.7
966.5663	2389.6987	1747.2	863.25
966.6968	2391.0957	1738.85	855.6
966.8273	2392.492	1729.9	848.9
966.9578	2393.8876	1738.8	855.15
967.0882	2395.2824	1724.8	841.45
967.2186	2396.6765	1716.05	834
967.349	2398.07	1716.05	836.15
967.4793	2399.4627	1722.7	839.9
967.6097	2400.8547	1719.05	837.85
967.7399	2402.246	1714.55	828.8
967.8702	2403.6366	1710.95	827.6
968.0004	2405.0265	1706.7	827.2
968.1306	2406.4156	1714.25	828.25
968.2607	2407.8041	1706.75	820.2
968.3909	2409.1918	1704.95	820.95
968.521	2410.5789	1699	816.1
968.651	2411.9652	1701.9	815.75
968.781	2413.3508	1692.15	810.95
968.911	2414.7358	1695.45	812.25
969.041	2416.12	1686.85	806.8
969.1709	2417.5035	1686.6	805.85
969.3008	2418.8863	1676.75	793.45
969.4307	2420.2684	1681.95	802.25
969.5606	2421.6497	1674	791.85
969.6904	2423.0304	1667.05	788.15
969.8201	2424.4104	1679	794.55
969.9499	2425.7896	1674.9	789.65
970.0796	2427.1682	1674.3	790.8
970.2093	2428.546	1671.25	787.6
970.3389	2429.9232	1666.65	783.5
970.4685	2431.2996	1662.1	779.95
970.5981	2432.6753	1653.45	771.8
970.7277	2434.0503	1663.1	780.4
970.8572	2435.4246	1659.05	778.9
970.9867	2436.7982	1657.8	773.4
971.1161	2438.1711	1648.8	766.7
971.2456	2439.5433	1649.55	767.15
971.375	2440.9148	1656	767.4
971.5043	2442.2856	1636.2	755.1
971.6336	2443.6557	1635.65	754.05
971.7629	2445.025	1637.1	754.65
971.8922	2446.3937	1637.55	755.4
972.0214	2447.7617	1641.2	758.95
972.1506	2449.1289	1634.75	753
972.2798	2450.4955	1639.95	755.15
972.4089	2451.8613	1633	751.1
972.538	2453.2265	1625.05	741.6
972.6671	2454.5909	1631.8	748.4
972.7961	2455.9546	1627.05	745.55
972.9251	2457.3177	1617.2	736.5
973.0541	2458.68	1625.45	741.65
973.1831	2460.0416	1624.65	743.25
973.312	2461.4025	1623.15	740.75
973.4408	2462.7627	1637.35	745.75
973.5697	2464.1222	1621.65	738.65
973.6985	2465.4811	1618	733.95
973.8273	2466.8392	1617	734.1
973.956	2468.1966	1613.6	730.55
974.0847	2469.5533	1611.5	726.5
974.2134	2470.9093	1613.2	730.05
974.3421	2472.2645	1612.85	727.75
974.4707	2473.6191	1610.55	728.15
974.5993	2474.973	1603.5	719.85
974.7278	2476.3262	1601.35	717.15
974.8563	2477.6787	1608.35	727.15
974.9848	2479.0305	1602.3	717.9
975.1132	2480.3816	1600.1	715.1
975.2417	2481.7319	1598	718.55
975.37	2483.0816	1599.3	715
975.4984	2484.4306	1591.3	706.75
975.6267	2485.7789	1585.95	703.55
975.755	2487.1264	1585.8	701.05
975.8833	2488.4733	1578	696.7
976.0115	2489.8195	1594.3	696.25
976.1397	2491.165	1585.45	697.75
976.2678	2492.5097	1575.85	691.75
976.3959	2493.8538	1573.9	691.45
976.524	2495.1972	1571.55	688.9
976.6521	2496.5398	1568.05	683.8
976.7801	2497.8818	1563.25	680.7
976.9081	2499.2231	1565.05	681.25
977.036	2500.5637	1557.85	673.2
977.164	2501.9035	1561.45	678.15
977.2918	2503.2427	1562	676.95
977.4197	2504.5812	1556.5	672.45
977.5475	2505.919	1553.15	669.1
977.6753	2507.256	1550	667.05
977.8031	2508.5924	1549.15	665.7
977.9308	2509.9281	1557.25	668.8
978.0585	2511.2631	1543.65	658.85
978.1861	2512.5974	1548.4	667.05
978.3137	2513.9309	1545.7	662.35
978.4413	2515.2638	1572.1	662.6
978.5689	2516.596	1544.5	661.1
978.6964	2517.9275	1536.2	652
978.8239	2519.2583	1539.4	656.55
978.9513	2520.5884	1534.75	650
979.0788	2521.9178	1533.5	650.2
979.2062	2523.2465	1531.8	649.35
979.3335	2524.5745	1528.9	645.2
979.4608	2525.9018	1521.1	637.55
979.5881	2527.2284	1528.85	647.95
979.7154	2528.5543	1529.25	649.2
979.8426	2529.8796	1526.45	644.1
979.9698	2531.2041	1523.95	641.75
980.0969	2532.5279	1519.95	638.3
980.224	2533.851	1518.75	637.6
980.3511	2535.1735	1517.95	636.05
980.4781	2536.4952	1514.25	632.2
980.6052	2537.8163	1519.75	635.75
980.7321	2539.1366	1512.75	630.45
980.8591	2540.4562	1514.8	627.75
980.986	2541.7752	1519.6	635.85
981.1129	2543.0935	1512.55	628.95
981.2397	2544.411	1509.7	626.3
981.3665	2545.7279	1508.8	627.05
981.4933	2547.0441	1507.15	624.35
981.62	2548.3596	1509.7	625.05
981.7467	2549.6744	1506.6	623
981.8734	2550.9885	1507.05	621.75
982.0001	2552.3019	1500.85	620.15
982.1267	2553.6146	1497.65	614.3
982.2532	2554.9266	1493.95	610
982.3798	2556.2379	1493.75	607.9
982.5063	2557.5485	1490.2	607.55
982.6327	2558.8585	1502.65	613
982.7592	2560.1677	1490.25	604.15
982.8856	2561.4762	1489.55	607.2
983.0119	2562.7841	1493.35	605.75
983.1383	2564.0913	1492.75	611.6
983.2646	2565.3977	1481.6	599.8
983.3908	2566.7035	1481.7	598.6
983.517	2568.0086	1484.6	599.6
983.6432	2569.313	1485.6	602.25
983.7694	2570.6167	1486.35	601.7
983.8955	2571.9197	1480.65	600.15
984.0216	2573.222	1487.1	599.95
984.1476	2574.5236	1487.35	603.9
984.2737	2575.8246	1481.05	595.4
984.3996	2577.1248	1477.45	592.5
984.5256	2578.4244	1474.45	592.35
984.6515	2579.7232	1476.1	592.85
984.7774	2581.0214	1509.6	593.4
984.9032	2582.3189	1476.25	593.7
985.029	2583.6157	1482	596.65
985.1548	2584.9118	1486.95	604.7
985.2806	2586.2072	1477.1	594.1
985.4063	2587.5019	1476.65	593.15
985.5319	2588.7959	1487.1	602.55
985.6576	2590.0893	1486.2	600.65
985.7832	2591.3819	1488.8	607.65
985.9087	2592.6739	1481.7	599.85
986.0343	2593.9652	1486	603.4
986.1597	2595.2557	1480.3	598.2
986.2852	2596.5456	1486.15	600.9
986.4106	2597.8348	1489.7	608.2
986.536	2599.1234	1484.55	602.35
986.6614	2600.4112	1487.95	605.5
986.7867	2601.6983	1499.75	613.8
986.912	2602.9848	1487.75	606.3
987.0372	2604.2705	1480.95	591.35
987.1624	2605.5556	1477.9	594.7
987.2876	2606.84	1487.25	604.95
987.4128	2608.1237	1479.15	595.8
987.5379	2609.4067	1477.65	593.9
987.6629	2610.689	1487.35	595.75
987.788	2611.9707	1476.75	590.55
987.913	2613.2516	1476	590.15
988.0379	2614.5319	1457.9	574.7
988.1629	2615.8115	1462.65	580.35
988.2878	2617.0903	1468.1	582.7
988.4126	2618.3685	1462.15	579.35
988.5375	2619.6461	1464.35	579.95
988.6622	2620.9229	1470.05	587.35
988.787	2622.199	1470.95	585.25
988.9117	2623.4745	1468.55	585.7
989.0364	2624.7493	1462.7	579.25
989.161	2626.0234	1460.55	577.15
989.2857	2627.2968	1462.6	580.2
989.4102	2628.5695	1467.35	582.7
989.5348	2629.8415	1460.5	579.35
989.6593	2631.1128	1461.35	574.8
989.7837	2632.3835	1464.5	581.85
989.9082	2633.6535	1457.35	573.65
990.0326	2634.9228	1453.45	572.35
990.1569	2636.1914	1452.1	570
990.2812	2637.4593	1460.05	574.95
990.4055	2638.7265	1453.9	571
990.5298	2639.9931	1455.8	572.35
990.654	2641.259	1456.25	574.25
990.7782	2642.5242	1451.7	568.45
990.9023	2643.7887	1440.3	558.7
991.0264	2645.0525	1443.5	560.6
991.1505	2646.3156	1444.2	559.95
991.2745	2647.5781	1443.15	561.55
991.3985	2648.8398	1438.8	554.55
991.5225	2650.1009	1474.2	554
991.6464	2651.3613	1446.7	561.95
991.7703	2652.6211	1436.1	554.55
991.8942	2653.8801	1433.45	552.45
992.018	2655.1385	1439.95	554.7
992.1418	2656.3961	1433.5	552.35
992.2655	2657.6531	1434.6	550.55
992.3892	2658.9094	1432.35	551.2
992.5129	2660.1651	1432.95	550.25
992.6366	2661.42	1442.55	560.3
992.7602	2662.6743	1446.35	561.95
992.8837	2663.9279	1448.1	565.25
993.0073	2665.1808	1440.05	555.15
993.1307	2666.433	1442.2	558
993.2542	2667.6846	1441.25	557.75
993.3776	2668.9354	1450.85	564.95
993.501	2670.1856	1438.65	555.05
993.6244	2671.4351	1442.2	559.95
993.7477	2672.6839	1456.2	573.55
993.8709	2673.9321	1459.85	576.2
993.9942	2675.1795	1458.7	575.4
994.1174	2676.4263	1458.25	575.35
994.2405	2677.6724	1458.25	575.9
994.3637	2678.9179	1469.35	585.8
994.4868	2680.1626	1460.75	577
994.6098	2681.4067	1459.2	577.85
994.7328	2682.6501	1461.2	577.95
994.8558	2683.8928	1454.2	570.25
994.9788	2685.1348	1452.2	571.7
995.1017	2686.3761	1450.55	568.1
995.2245	2687.6168	1449.9	566.95
995.3474	2688.8568	1448.7	567.15
995.4702	2690.0961	1440.7	561.15
995.5929	2691.3348	1437.05	553.65
995.7156	2692.5727	1432.85	549.75
995.8383	2693.81	1431.05	549.1
995.961	2695.0466	1427.9	546
996.0836	2696.2826	1428.3	544.35
996.2062	2697.5178	1430.55	544.35
996.3287	2698.7524	1434.2	550.1
996.4512	2699.9863	1427.15	540.3
996.5737	2701.2195	1437.55	557.95
996.6961	2702.452	1437.4	550.4
996.8185	2703.6839	1447.85	565.5
996.9408	2704.9151	1444.4	562.85
997.0631	2706.1456	1445.3	561.15
997.1854	2707.3755	1459.35	576.1
997.3077	2708.6046	1460.05	574.3
997.4299	2709.8331	1475.5	591.3
997.552	2711.0609	1479.75	598.05
997.6742	2712.2881	1491.15	609.6
997.7963	2713.5145	1491.05	605
997.9183	2714.7403	1503.05	619.6
998.0403	2715.9654	1519.4	635.9
998.1623	2717.1899	1536.65	639.45
998.2842	2718.4136	1540.4	658.25
998.4062	2719.6367	1547.7	665.3
998.528	2720.8591	1574.85	684.55
998.6498	2722.0809	1568.9	684.95
998.7716	2723.3019	1587.5	703
998.8934	2724.5223	1588.25	703.55
999.0151	2725.7421	1597.1	713.6
999.1368	2726.9611	1601.35	715.25
999.2584	2728.1795	1600.1	713.95
999.38	2729.3972	1591.95	710
999.5016	2730.6142	1599.7	703.8
999.6231	2731.8306	1567.75	684.05
999.7446	2733.0462	1554.9	670.35
999.8661	2734.2612	1532.75	645.35
999.9875	2735.4756	1515.65	632.35
1000.1089	2736.6892	1504.75	619.9
1000.2302	2737.9022	1482	601.4
1000.3515	2739.1145	1469.65	585.8
1000.4728	2740.3262	1467.55	577.75
1000.594	2741.5372	1446.25	562.6
1000.7152	2742.7475	1436	551.7
1000.8363	2743.9571	1431.7	546.85
1000.9575	2745.1661	1420.15	533.3
1001.0785	2746.3744	1405.65	522.6
1001.1996	2747.582	1400.25	517.45
1001.3206	2748.7889	1392.5	507.7
1001.4415	2749.9952	1381	499.15
1001.5625	2751.2008	1375.9	493.05
1001.6833	2752.4057	1376.35	492.05
1001.8042	2753.61	1377.75	492.15
1001.925	2754.8136	1371.35	485.85
1002.0458	2756.0165	1371.35	490.75
1002.1665	2757.2188	1366.25	482.3
1002.2872	2758.4204	1370.2	485.7
1002.4078	2759.6213	1374.2	490
1002.5285	2760.8215	1375.15	485.55
1002.649	2762.0211	1369.1	484.85
1002.7696	2763.22	1370.2	481.3
1002.8901	2764.4182	1365.7	482.65
1003.0106	2765.6158	1363.3	479.65
1003.131	2766.8127	1364	478.8
1003.2514	2768.009	1355.95	473.5
1003.3717	2769.2045	1353.25	469.05
1003.492	2770.3994	1354.55	469.25
1003.6123	2771.5936	1355.55	474.05
1003.7325	2772.7872	1351.35	468.9
1003.8527	2773.9801	1344.65	459.95
1003.9729	2775.1723	1361.05	462.95
1004.093	2776.3639	1347.1	465.4
1004.2131	2777.5548	1343.8	460.35
1004.3331	2778.745	1344.3	461.2
1004.4531	2779.9346	1349.45	466.4
1004.5731	2781.1235	1355.35	470.25
1004.693	2782.3117	1354.65	472.55
1004.8129	2783.4992	1357.5	475.6
1004.9328	2784.6861	1365.75	482.75
1005.0526	2785.8723	1366.45	482.15
1005.1723	2787.0579	1374.5	489.95
1005.2921	2788.2428	1374.3	491.05
1005.4118	2789.427	1391.6	510.15
1005.5314	2790.6106	1397.45	515.6
1005.651	2791.7935	1409.1	526.4
1005.7706	2792.9757	1412.1	529.5
1005.8902	2794.1573	1440	553.05
1006.0097	2795.3382	1442.5	561.65
1006.1291	2796.5184	1461.15	578.55
1006.2485	2797.698	1473.85	587.95
1006.3679	2798.8769	1494.45	611.7
1006.4873	2800.0551	1507.65	624.1
1006.6066	2801.2327	1525.9	643.1
1006.7258	2802.4096	1546.4	660.4
1006.8451	2803.5859	1569.8	685.5
1006.9642	2804.7615	1592.45	709.45
1007.0834	2805.9364	1616.85	734.25
1007.2025	2807.1106	1641.8	759.25
1007.3216	2808.2842	1672.35	788.6
1007.4406	2809.4572	1692.75	809.75
1007.5596	2810.6294	1742.35	857.9
1007.6785	2811.801	1780.25	897.6
1007.7975	2812.972	1824.55	941.85
1007.9163	2814.1423	1862.35	980.1
1008.0352	2815.3119	1910.75	1028.55
1008.154	2816.4808	1961.25	1081.25
1008.2727	2817.6491	2011.4	1126.05
1008.3914	2818.8167	2061.9	1181.55
1008.5101	2819.9837	2114.6	1226
1008.6288	2821.15	2161.65	1279.45
1008.7474	2822.3157	2204.05	1323.35
1008.8659	2823.4807	2257.15	1374.05
1008.9844	2824.645	2314.5	1432.65
1009.1029	2825.8086	2346.05	1462.9
1009.2214	2826.9716	2403.2	1521.45
1009.3398	2828.134	2439.45	1558.2
1009.4581	2829.2957	2475.2	1592.35
1009.5764	2830.4567	2504.45	1622.3
1009.6947	2831.617	2524.9	1643.4
1009.813	2832.7767	2532.8	1649.5
1009.9312	2833.9358	2529.3	1647.45
1010.0493	2835.0941	2530.4	1642.95
1010.1675	2836.2519	2514.15	1633.25
1010.2855	2837.4089	2499.7	1614.65
1010.4036	2838.5653	2492.4	1611.75
1010.5216	2839.7211	2485.6	1605.05
1010.6396	2840.8761	2486.05	1601.6
1010.7575	2842.0306	2516.25	1633.65
1010.8754	2843.1843	2538.85	1657.6
1010.9932	2844.3374	2593.1	1709.35
1011.111	2845.4899	2660.5	1775.25
1011.2288	2846.6417	2723.1	1841.15
1011.3465	2847.7928	2797.55	1913.85
1011.4642	2848.9433	2867.3	1987.05
1011.5818	2850.0931	2963.8	2079.6
1011.6995	2851.2422	3034.65	2150.35
1011.817	2852.3907	3093.1	2208.65
1011.9345	2853.5385	3160.4	2277.1
1012.052	2854.6857	3250.5	2340
1012.1695	2855.8323	3284.4	2402.4
1012.2869	2856.9781	3321.45	2439.3
1012.4042	2858.1233	3379.4	2496.8
1012.5216	2859.2679	3432.4	2547.25
1012.6389	2860.4118	3478.45	2597.35
1012.7561	2861.555	3522.1	2634.1
1012.8733	2862.6976	3554.8	2671
1012.9905	2863.8395	3583.45	2700.35
1013.1076	2864.9808	3623.95	2741.4
1013.2247	2866.1214	3628.15	2747
1013.3417	2867.2614	3646.5	2765.1
1013.4587	2868.4007	3653.8	2771.35
1013.5757	2869.5393	3677.8	2792.8
1013.6926	2870.6773	3690	2803.95
1013.8095	2871.8146	3692.5	2806.15
1013.9263	2872.9513	3698.95	2811.75
1014.0431	2874.0874	3691.5	2807.4
1014.1599	2875.2227	3694.55	2809.9
1014.2766	2876.3574	3664.7	2781.9
1014.3933	2877.4915	3637.4	2756.2
1014.51	2878.6249	3621.25	2738.2
1014.6266	2879.7577	3589.85	2707.25
1014.7431	2880.8898	3593.65	2699.1
1014.8596	2882.0212	3556.85	2674.05
1014.9761	2883.152	3551.65	2670.45
1015.0925	2884.2821	3546.85	2664.25
1015.2089	2885.4116	3532.7	2651.05
1015.3253	2886.5405	3531.55	2649
1015.4416	2887.6686	3531.2	2644.65
1015.5579	2888.7962	3533.3	2652.7
1015.6741	2889.923	3552.05	2668.35
1015.7903	2891.0493	3569.45	2687.95
1015.9065	2892.1748	3571.85	2689.3
1016.0226	2893.2997	3588.45	2704.95
1016.1387	2894.424	3605.95	2724.6
1016.2547	2895.5476	3626.2	2743.75
1016.3707	2896.6706	3647.5	2765.25
1016.4866	2897.7929	3670.5	2787.9
1016.6025	2898.9145	3701.5	2820.35
1016.7184	2900.0355	3730.95	2846.25
1016.8342	2901.1559	3771.2	2889.5
1016.95	2902.2756	3790.8	2909.55
1017.0658	2903.3946	3840.75	2955.9
1017.1815	2904.513	3861.85	2976.65
1017.2971	2905.6308	3875.9	2992.8
1017.4127	2906.7479	3910.35	3026.15
1017.5283	2907.8643	3932.2	3048.75
1017.6439	2908.9801	3953.1	3071.4
1017.7594	2910.0953	3954.9	3071.3
1017.8748	2911.2098	3953.75	3067.7
1017.9902	2912.3236	3951.6	3060.9
1018.1056	2913.4368	3936.35	3050.8
1018.2209	2914.5494	3915.55	3035.7
1018.3362	2915.6613	3883.15	2994
1018.4515	2916.7725	3876.2	2990.5
1018.5667	2917.8831	3843.95	2961
1018.6819	2918.9931	3823.2	2938.5
1018.797	2920.1024	3786.55	2903.4
1018.9121	2921.211	3748.75	2865.85
1019.0271	2922.319	3739.25	2856.15
1019.1421	2923.4264	3727.55	2841.9
1019.2571	2924.5331	3705	2824.5
1019.372	2925.6391	3704.85	2821.3
1019.4869	2926.7445	3676.65	2794.9
1019.6017	2927.8493	3689.5	2806.6
1019.7165	2928.9534	3698.35	2815.55
1019.8313	2930.0569	3663.85	2777.6
1019.946	2931.1597	3677.3	2795.7
1020.0606	2932.2619	3674.85	2790.45
1020.1753	2933.3634	3653.4	2770.7
1020.2899	2934.4643	3660.45	2771.1
1020.4044	2935.5645	3625.1	2735.65
1020.5189	2936.6641	3591.85	2704.6
1020.6334	2937.763	3561.55	2677.6
1020.7478	2938.8613	3498	2613.85
1020.8622	2939.959	3442.9	2554.5
1020.9765	2941.056	3378.15	2497.9
1021.0908	2942.1523	3300.4	2416.75
1021.2051	2943.248	3209.5	2328
1021.3193	2944.3431	3108.15	2226.7
1021.4334	2945.4375	3006	2121.4
1021.5476	2946.5313	2904.15	2021.45
1021.6617	2947.6244	2807.75	1923.7
1021.7757	2948.7169	2711.95	1829.6
1021.8897	2949.8087	2597.5	1716.2
1022.0037	2950.8999	2516.2	1634.35
1022.1176	2951.9904	2442	1558.75
1022.2315	2953.0803	2365.6	1481.1
1022.3453	2954.1696	2292.75	1408.95
1022.4591	2955.2582	2246.6	1363.45
1022.5728	2956.3462	2195.1	1313.25
1022.6865	2957.4335	2149.85	1265.35
1022.8002	2958.5202	2131	1242.95
1022.9138	2959.6062	2098.85	1216.2
1023.0274	2960.6916	2065.8	1182.7
1023.141	2961.7764	2051.25	1168.15
1023.2545	2962.8605	2029.75	1145.65
1023.3679	2963.9439	2023.2	1142.85
1023.4813	2965.0267	2015.05	1131.25
1023.5947	2966.1089	2035.6	1130.9
1023.708	2967.1905	1993.15	1111.4
1023.8213	2968.2714	1988.05	1105.55
1023.9346	2969.3516	1988.5	1105.2
1024.0478	2970.4312	2004.25	1112.15
1024.1609	2971.5102	2006.45	1123.15
1024.274	2972.5885	2001.35	1120.05
1024.3871	2973.6662	1998.8	1111.65
1024.5002	2974.7432	1983.05	1101.85
1024.6132	2975.8196	1989.15	1106.1
1024.7261	2976.8954	1975.9	1093.5
1024.839	2977.9705	1964.7	1082.6
1024.9519	2979.045	1965.3	1082.85
1025.0647	2980.1188	1945.55	1064.2
1025.1775	2981.192	1921.65	1038.15
1025.2902	2982.2645	1902.1	1021.1
1025.4029	2983.3364	1878.45	996.5
1025.5156	2984.4077	1848.3	965.7
1025.6282	2985.4783	1828.9	941.55
1025.7407	2986.5483	1786	902.85
1025.8532	2987.6177	1758.8	877.15
1025.9657	2988.6864	1720.5	837.45
1026.0782	2989.7545	1685.3	802.5
1026.1906	2990.8219	1644.75	762.95
1026.3029	2991.8887	1616.55	730
1026.4152	2992.9548	1588.45	704.05
1026.5275	2994.0204	1550.4	668.95
1026.6397	2995.0852	1523.05	642.95
1026.7519	2996.1495	1501.1	619.35
1026.864	2997.2131	1483.15	600.85
1026.9761	2998.276	1453.45	571.05
1027.0882	2999.3383	1439.55	558.3
1027.2002	3000.4	1419.15	535.25
1027.3122	3001.4611	1398.95	517.1
1027.4241	3002.5215	1393.55	510.3
1027.536	3003.5812	1376.65	492.75
1027.6478	3004.6404	1359.8	478.75
1027.7596	3005.6989	1352.55	468.75
1027.8714	3006.7567	1346.7	465.4
1027.9831	3007.8139	1358.75	448.05
1028.0947	3008.8705	1332.6	448.95
1028.2064	3009.9264	1337.95	438.5
1028.3179	3010.9818	1316.75	436.85
1028.4295	3012.0364	1313.1	430.65
1028.541	3013.0905	1308.55	425.4
1028.6524	3014.1439	1310.1	428.65
1028.7638	3015.1966	1300.3	418.6
1028.8752	3016.2487	1307.85	426.75
1028.9865	3017.3002	1307.9	423.45
1029.0978	3018.3511	1296.1	417.5
1029.209	3019.4013	1303.6	418.95
1029.3202	3020.4509	1307.55	425.8
1029.4314	3021.4998	1303.7	418
1029.5425	3022.5481	1299.6	399.95
1029.6535	3023.5958	1308.25	425.3
1029.7645	3024.6428	1300.7	416.15
1029.8755	3025.6892	1303.5	420.1
1029.9864	3026.735	1297	415.45
1030.0973	3027.7802	1301.75	418.4
1030.2082	3028.8247	1310.35	427.65
1030.319	3029.8685	1313.85	432.8
1030.4297	3030.9118	1314.15	431.45
1030.5404	3031.9544	1316.25	435.3
1030.6511	3032.9963	1327.4	445.5
1030.7617	3034.0376	1327.4	445.65
1030.8723	3035.0783	1341.1	457.1
1030.9829	3036.1184	1340.05	457.25
1031.0934	3037.1578	1340.2	458.4
1031.2038	3038.1966	1344.85	460.3
1031.3142	3039.2348	1345.85	465.8
1031.4246	3040.2723	1359.2	466.95
1031.5349	3041.3092	1339.95	459.15
1031.6452	3042.3455	1341	459.05
1031.7554	3043.3811	1343.9	461.05
1031.8656	3044.4161	1339	455.75
1031.9758	3045.4505	1335.1	454.15
1032.0859	3046.4842	1328.9	447.15
1032.1959	3047.5173	1321.8	441.05
1032.3059	3048.5498	1311	429.45
1032.4159	3049.5816	1302.55	418.1
1032.5258	3050.6128	1302.8	419.2
1032.6357	3051.6434	1298.2	413.55
1032.7455	3052.6734	1299.4	416.55
1032.8553	3053.7027	1289.75	406.45
1032.9651	3054.7314	1280.4	398.1
1033.0748	3055.7594	1277	396.1
1033.1845	3056.7868	1269.7	385.85
1033.2941	3057.8136	1269.15	387.6
1033.4037	3058.8398	1263.05	382.8
1033.5132	3059.8653	1259	376.65
1033.6227	3060.8902	1253.65	373.15
1033.7321	3061.9145	1253.35	370.75
1033.8415	3062.9381	1240.8	358.3
1033.9509	3063.9612	1254.8	356.45
1034.0602	3064.9835	1234.1	349.3
1034.1694	3066.0053	1230.5	344.7
1034.2787	3067.0264	1222.45	340.65
1034.3878	3068.0469	1215.4	333.5
1034.497	3069.0668	1208.55	323.8
1034.6061	3070.086	1199.55	318.4
1034.7151	3071.1046	1195.85	312.55
1034.8241	3072.1226	1184	300.55
1034.9331	3073.1399	1170.25	289.4
1035.042	3074.1567	1172.7	290.4
1035.1508	3075.1727	1157	272.8
1035.2597	3076.1882	1146.3	263.2
1035.3684	3077.203	1142.2	261.2
1035.4772	3078.2173	1132.3	249.55
1035.5859	3079.2308	1127.25	238.7
1035.6945	3080.2438	1122.45	236.8
1035.8031	3081.2561	1109.05	227.2
1035.9117	3082.2678	1100.85	220.2
1036.0202	3083.2789	1097.55	217.7
1036.1286	3084.2893	1093	213.05
1036.2371	3085.2991	1086.35	203.7
1036.3454	3086.3083	1086.9	201.45
1036.4538	3087.3169	1075.3	191.1
1036.562	3088.3248	1074.5	190.75
1036.6703	3089.3321	1065.55	180.6
1036.7785	3090.3388	1060	178.85
1036.8866	3091.3449	1059.25	177.6
1036.9948	3092.3503	1054.8	168.9
1037.1028	3093.3551	1054.05	174.55
1037.2108	3094.3593	1051.25	168.35
1037.3188	3095.3629	1048.3	167.7
1037.4267	3096.3658	1047.45	162.15
1037.5346	3097.3681	1041.55	159
1037.6425	3098.3698	1038.35	154.7
1037.7503	3099.3708	1042.4	154.05
1037.858	3100.3713	1029.85	148.2
1037.9657	3101.3711	1034.15	151.9
1038.0734	3102.3702	1164.6	141.8
1038.181	3103.3688	1033.05	147.9
1038.2886	3104.3667	1027.35	147.45
1038.3961	3105.364	1025.15	143.45
1038.5036	3106.3607	1020.15	138.45
1038.611	3107.3568	1020.8	136.4
1038.7184	3108.3522	1022.45	141.65
1038.8257	3109.347	1020.6	135.8
1038.933	3110.3412	1017.25	130.7
1039.0403	3111.3348	1011.95	130.05
1039.1475	3112.3277	1015.65	133.75
1039.2547	3113.32	1009.3	129.15
1039.3618	3114.3117	1015.6	135.2
1039.4689	3115.3028	1010.45	129.05
1039.5759	3116.2932	1012.1	130.3
1039.6829	3117.2831	1012.65	126.8
1039.7898	3118.2723	1008.65	127.15
1039.8967	3119.2608	1007.05	126.1
1040.0035	3120.2488	1003.1	121.9
1040.1103	3121.2361	1004.4	124.05
1040.2171	3122.2229	1002.8	120.6
1040.3238	3123.209	1003.85	122.2
1040.4305	3124.1944	999	118.15
1040.5371	3125.1793	1004.4	120.55
1040.6437	3126.1635	994.8	113.65
1040.7502	3127.1471	996.65	115
1040.8567	3128.1301	994.5	113.65
1040.9631	3129.1125	990.6	107.8
1041.0695	3130.0942	992	109.65
1041.1759	3131.0753	999.75	109.85
1041.2822	3132.0558	989.75	104.2
1041.3884	3133.0357	989.05	106.3
1041.4946	3134.015	987.2	103.9
1041.6008	3134.9936	988.25	105
1041.7069	3135.9716	1005.85	102.8
1041.813	3136.949	983.2	102.55
1041.919	3137.9258	1001.25	101.05
1042.025	3138.902	992.5	105.7
1042.1309	3139.8775	1007.45	126.25
1042.2368	3140.8524	985.1	103.5
1042.3427	3141.8267	981.5	97.1
1042.4485	3142.8004	980.65	98.35
1042.5542	3143.7735	987.4	100.15
1042.6599	3144.7459	981.4	98.6
1042.7656	3145.7178	976.25	94.55
1042.8712	3146.689	978.15	96.75
1042.9768	3147.6596	975.15	91.6
1043.0823	3148.6295	975.9	92.1
1043.1878	3149.5989	976.1	94.7
1043.2932	3150.5676	971.6	90.6
1043.3986	3151.5357	971.65	90.05
1043.5039	3152.5032	973.6	91.3
1043.6092	3153.4701	966.85	86.15
1043.7145	3154.4364	973.15	89.75
1043.8197	3155.402	967.05	87.05
1043.9248	3156.367	969.05	85.05
1044.03	3157.3315	1002.9	86.95
1044.135	3158.2952	969.2	86.45
1044.24	3159.2584	965	84.95
1044.345	3160.221	966.6	83.5
1044.4499	3161.1829	962.95	80.9
1044.5548	3162.1442	965.5	83.45
1044.6596	3163.105	965.55	83.7
1044.7644	3164.065	962.8	81.2
1044.8692	3165.0245	965.2	79.3
1044.9739	3165.9834	959.9	81
1045.0785	3166.9416	962.15	79.9
1045.1831	3167.8993	961.15	77.95
1045.2877	3168.8563	958.65	74.95
1045.3922	3169.8127	958.4	76.4
1045.4966	3170.7684	958.05	74.75
1045.6011	3171.7236	960.65	77.55
1045.7054	3172.6782	959.25	77.75
1045.8098	3173.6321	961.1	76.2
1045.914	3174.5854	965.7	81.6
1046.0183	3175.5381	957.05	75.4
1046.1224	3176.4902	954.05	71.45
1046.2266	3177.4417	955.25	75
1046.3307	3178.3926	952.55	72.5
1046.4347	3179.3428	950.65	69.8
1046.5387	3180.2924	953.6	72.25
1046.6427	3181.2415	956.9	75.05
1046.7466	3182.1899	952.3	71.7
1046.8504	3183.1377	952.55	69.15
1046.9542	3184.0848	954.7	70.1
1047.058	3185.0314	954.95	73.4
1047.1617	3185.9773	952.55	69.9
1047.2654	3186.9227	953	69.05
1047.369	3187.8674	951.7	70.85
1047.4726	3188.8115	954.5	69
1047.5761	3189.755	949.85	69.4
1047.6796	3190.6979	950.85	67.15
1047.783	3191.6402	948.3	67.9
1047.8864	3192.5818	947.65	66.9
1047.9898	3193.5229	971.2	67.7
1048.0931	3194.4633	945.8	65.2
1048.1963	3195.4031	947.95	66
1048.2995	3196.3423	947.35	65.4
1048.4027	3197.2809	947.45	65.35
1048.5058	3198.2189	947.75	64.5
1048.6089	3199.1563	961.5	62
1048.7119	3200.0931	946.25	64.45
1048.8148	3201.0292	946	65.95
1048.9178	3201.9648	943.7	61.2
1049.0206	3202.8997	948.5	63
1049.1235	3203.834	943.5	64.15
1049.2262	3204.7677	943.25	62.7
1049.329	3205.7008	944.75	58.9
1049.4317	3206.6333	940.8	61.4
1049.5343	3207.5652	943	59.1
1049.6369	3208.4964	941.7	58.7
1049.7394	3209.4271	943.75	64
1049.8419	3210.3571	942.25	61.3
1049.9444	3211.2865	941.6	59.45
1050.0468	3212.2154	944.85	61.75
1050.1491	3213.1436	944.45	60.4
1050.2514	3214.0712	944.45	56.2
1050.3537	3214.9982	939.25	58.3
1050.4559	3215.9246	937.25	54.35
1050.5581	3216.8503	939.15	59.1
1050.6602	3217.7755	938.1	53.55
1050.7623	3218.7001	939.7	59.4
1050.8643	3219.624	941.55	58.55
1050.9663	3220.5473	939.1	58.65
1051.0682	3221.4701	938.6	56.1
1051.1701	3222.3922	940.45	59.1
1051.2719	3223.3137	935.6	52.95
1051.3737	3224.2346	935.25	54.05
1051.4754	3225.1549	936.25	54.9
1051.5771	3226.0746	937.2	54.5
1051.6788	3226.9937	937	55
1051.7804	3227.9121	936.5	54.2
1051.8819	3228.83	938.3	57.75
1051.9834	3229.7473	934.45	52.05
1052.0849	3230.6639	935.2	55.65
1052.1863	3231.5799	935.3	54
1052.2876	3232.4954	935.1	51.1
1052.3889	3233.4102	934.65	54.85
1052.4902	3234.3244	935.2	52.2
1052.5914	3235.238	932.8	50.85
1052.6926	3236.151	956.7	51.75
1052.7937	3237.0634	931.85	51.8
1052.8948	3237.9752	930.85	49.05
1052.9958	3238.8864	932.2	51.9
1053.0968	3239.797	931.25	49.7
1053.1977	3240.7069	932.1	49.6
1053.2986	3241.6163	932.05	48
1053.3994	3242.5251	931.55	49.2
1053.5002	3243.4332	931	49.85
1053.6009	3244.3408	931.85	49.6
1053.7016	3245.2477	931.5	49.15
1053.8022	3246.154	929.55	46
1053.9028	3247.0598	929.85	48.45
1054.0034	3247.9649	925.6	44.3
1054.1039	3248.8694	927.65	46.35
1054.2043	3249.7733	926.9	44.85
1054.3047	3250.6766	927.5	43.7
1054.4051	3251.5793	930.4	47.7
1054.5054	3252.4814	926.5	45.5
1054.6056	3253.3829	925.7	45.15
1054.7058	3254.2838	927.4	46.1
1054.806	3255.1841	921.95	41.9
1054.9061	3256.0838	926.35	45.55
1055.0061	3256.9829	922.35	44.05
1055.1062	3257.8814	928.4	43.15
1055.2061	3258.7792	924.3	41.2
1055.306	3259.6765	923.5	37.1
1055.4059	3260.5731	920.45	39.15
1055.5057	3261.4692	921.55	39.35
1055.6055	3262.3647	922.8	41.45
1055.7052	3263.2595	920.5	39.75
1055.8049	3264.1538	919.65	38.15
1055.9045	3265.0474	918.5	36.1
1056.0041	3265.9404	918.3	38.9
1056.1036	3266.8329	916.05	36.45
1056.2031	3267.7247	928.3	36.3
1056.3025	3268.616	916.5	34.9
1056.4019	3269.5066	915.1	32.35
1056.5013	3270.3966	914.55	32.5
1056.6005	3271.286	912.4	32.8
