Software Version:	3.9.2.0
Unit SN:	10000200
Spectrometer SN:	6960
Date:	3/14/2024 2:19:36 PM
Data Line Index:	25
Spectral Points:	2048
Integration time (ms):	125
Averages:	20
Delay (ms):	30000
Sequence Number:	1
Processing:	dark subtract
Laser Power (mW):	300
Laser Current (mA):	824
Laser Diode Temp (C):	25
Laser Case Temp (C):	29.2
System Temp (C):	29.2
Spectrometer Temp (C):	26.9
CCD Temp (C):	0.004
Secondary Temp (C):	20.004
Heatsink Temp (C):	24.974
CCDPCB Temp (C):	38.152
SecondaryPCB Temp (C):	36.129

Wavelength	RamanShift	Raw Counts	Dark Subtracted
787.061	30.1047	451.95	42.8
787.2016	32.3739	454.15	47.3
787.3422	34.6426	460.55	53.05
787.4828	36.9109	466.95	58.6
787.6235	39.1787	475.4	64
787.7642	41.4461	483.5	67.35
787.9049	43.7131	493.5	71.25
788.0456	45.9796	502	76
788.1863	48.2456	511.85	81.7
788.3271	50.5112	519.25	85.15
788.4679	52.7764	529.55	93.4
788.6087	55.0411	537.25	99.4
788.7496	57.3054	546.4	102
788.8904	59.5692	563.8	115.8
789.0313	61.8326	572.5	118.55
789.1722	64.0955	587.45	128.35
789.3132	66.3579	601.7	135.75
789.4541	68.6199	616.05	148.8
789.5951	70.8815	645.7	176.45
789.7361	73.1426	723.5	251.45
789.8771	75.4032	904.8	426.9
790.0181	77.6634	1354.3	871.45
790.1592	79.9231	2434.6	1945.5
790.3003	82.1824	4782.65	4286.85
790.4414	84.4412	9137.75	8626.95
790.5825	86.6995	15305.1	14772.2
790.7237	88.9574	21536.65	20985.8
790.8648	91.2148	26023.5	25455.8
791.006	93.4717	28246.3	27671.85
791.1472	95.7282	28783	28203.3
791.2885	97.9842	28857.55	28271.45
791.4297	100.2398	28394.65	27810.85
791.571	102.4949	27822.15	27232.75
791.7123	104.7495	27073.15	26477.45
791.8536	107.0036	26248.75	25654.6
791.9949	109.2573	25436.5	24838.85
792.1363	111.5105	24608.95	24015.5
792.2777	113.7632	23808.9	23214.1
792.4191	116.0154	23108.15	22503
792.5605	118.2672	22585	21984.15
792.7019	120.5185	21992.55	21391.5
792.8434	122.7693	21599	20994.55
792.9849	125.0197	21285.3	20678.5
793.1264	127.2696	20975.6	20366.15
793.2679	129.519	20813.8	20200.05
793.4094	131.7679	20671.5	20054.55
793.551	134.0163	20566.55	19949.5
793.6926	136.2642	20390	19766.05
793.8342	138.5117	20205.2	19571.45
793.9758	140.7587	20021.05	19394.25
794.1175	143.0052	19878.25	19249.55
794.2591	145.2512	19639.9	19009.1
794.4008	147.4967	19479.45	18850.45
794.5425	149.7417	19296.6	18661.8
794.6842	151.9863	19197.3	18562
794.826	154.2304	19127.75	18491.25
794.9677	156.4739	18974.45	18331.7
795.1095	158.717	18925.75	18284.65
795.2513	160.9596	18764.6	18116
795.3931	163.2017	18498.1	17848.2
795.535	165.4433	18193.9	17546.65
795.6768	167.6844	17835.15	17179.5
795.8187	169.925	17473.25	16816.8
795.9606	172.1651	17070.75	16411.05
796.1025	174.4047	16756.95	16095
796.2445	176.6439	16432.65	15770.55
796.3864	178.8825	16184.45	15516.35
796.5284	181.1206	16013.05	15343.05
796.6704	183.3582	15809.05	15132.9
796.8124	185.5954	15645.25	14970.1
796.9544	187.832	15556.05	14874.1
797.0965	190.0681	15520.85	14838.65
797.2386	192.3037	15503.5	14818.8
797.3806	194.5388	15492.05	14805.35
797.5228	196.7734	15494.2	14802.35
797.6649	199.0075	15576.75	14882
797.807	201.2411	15684.5	14989.35
797.9492	203.4742	15711.15	15014.15
798.0914	205.7068	15830.75	15132.1
798.2336	207.9389	15949.4	15252.45
798.3758	210.1704	16075.65	15374.65
798.518	212.4015	16217.55	15510.7
798.6603	214.632	16403.1	15701.1
798.8025	216.862	16568.55	15869.9
798.9448	219.0915	16771.75	16082.45
799.0871	221.3205	17007.9	16320.55
799.2294	223.549	17335.2	16651.8
799.3718	225.777	17714.85	17030.25
799.5141	228.0044	18180.35	17492.35
799.6565	230.2314	18724.5	18042.85
799.7989	232.4578	19269.7	18584.65
799.9413	234.6837	19721.45	19027.8
800.0837	236.909	19952.1	19259.5
800.2262	239.1339	19876.9	19160.2
800.3687	241.3582	19515.45	18812.65
800.5111	243.582	19069.65	18342.7
800.6536	245.8053	18644.2	17922.6
800.7961	248.0281	18166.5	17446.05
800.9387	250.2503	17840	17119.05
801.0812	252.472	17606.75	16882.5
801.2238	254.6932	17446.8	16719.05
801.3664	256.9139	17306.6	16576.7
801.509	259.134	17237.6	16507.7
801.6516	261.3536	17069.9	16337.85
801.7942	263.5727	17020.95	16288.8
801.9369	265.7912	16865.55	16137.4
802.0795	268.0092	16802.95	16072.3
802.2222	270.2267	16671.1	15935.9
802.3649	272.4436	16624.65	15889.05
802.5076	274.6601	16544.35	15802.95
802.6504	276.8759	16492	15755.9
802.7931	279.0913	16494.95	15755.85
802.9359	281.3061	16538.7	15800.3
803.0787	283.5204	16647	15904.15
803.2215	285.7341	16764.3	16017.95
803.3643	287.9473	17001.65	16242.5
803.5071	290.16	17288.05	16533.95
803.6499	292.3721	17637.1	16889
803.7928	294.5837	18127.65	17379.95
803.9357	296.7947	18518.6	17772.5
804.0786	299.0052	18746.45	17998.9
804.2215	301.2152	18552.65	17801.6
804.3644	303.4246	18122.2	17373.4
804.5074	305.6334	17459.9	16708.75
804.6503	307.8418	16837.95	16085.45
804.7933	310.0495	16386.65	15635
804.9363	312.2568	16076.35	15324.55
805.0793	314.4635	15871.55	15118.35
805.2223	316.6696	15841.2	15087.05
805.3653	318.8752	15824.3	15061.35
805.5084	321.0802	15891.3	15139.1
805.6514	323.2847	16022.65	15266.2
805.7945	325.4887	16072.5	15315.55
805.9376	327.692	15992.45	15233.75
806.0807	329.8949	15848.8	15091.4
806.2238	332.0972	15529.3	14767.3
806.367	334.2989	15225.65	14461.05
806.5101	336.5001	14899.05	14134.15
806.6533	338.7007	14691.1	13928.2
806.7965	340.9008	14524.7	13755.75
806.9397	343.1003	14410.15	13644.3
807.0829	345.2992	14381.35	13611.7
807.2261	347.4976	14325.65	13554.5
807.3693	349.6955	14371.3	13594.55
807.5126	351.8927	14405	13628.2
807.6559	354.0895	14394.25	13608.55
807.7991	356.2856	14454.2	13677.5
807.9424	358.4812	14405.55	13630.4
808.0857	360.6763	14463.7	13684.85
808.2291	362.8707	14392.65	13615.8
808.3724	365.0646	14413.1	13632.35
808.5158	367.258	14396.1	13613.6
808.6591	369.4508	14392.8	13604.7
808.8025	371.643	14447.2	13660.9
808.9459	373.8346	14404.65	13616.2
809.0893	376.0257	14351.6	13560.05
809.2327	378.2162	14265.45	13473.45
809.3762	380.4062	14133.2	13339.3
809.5196	382.5956	13930.7	13135.6
809.6631	384.7844	13828.15	13034
809.8066	386.9726	13718.55	12923.8
809.9501	389.1603	13651.3	12854.9
810.0936	391.3474	13607.4	12771.7
810.2371	393.5339	13557.2	12760.8
810.3806	395.7199	13516.3	12727.85
810.5241	397.9052	13512.15	12724.8
810.6677	400.09	13496.8	12708
810.8113	402.2743	13539.75	12753.7
810.9548	404.4579	13593.45	12809.8
811.0984	406.641	13713.85	12928.2
811.2421	408.8235	13961.75	13174.55
811.3857	411.0054	14358.1	13571.05
811.5293	413.1868	14863.55	14076
811.673	415.3675	15252.9	14462.5
811.8166	417.5477	15508.05	14716.85
811.9603	419.7273	15578.25	14781.7
812.104	421.9064	15403.5	14600.25
812.2477	424.0848	15253.65	14453.85
812.3914	426.2627	14982.15	14177.45
812.5351	428.4399	14661.45	13856.55
812.6788	430.6166	14248.35	13441.5
812.8226	432.7928	13869.55	13063.3
812.9663	434.9683	13517.65	12711.45
813.1101	437.1432	13274.75	12466.2
813.2539	439.3176	13087.6	12277.05
813.3977	441.4914	12981.55	12169.7
813.5415	443.6645	12933.1	12118.9
813.6853	445.8371	12890.35	12077.3
813.8291	448.0091	12789.75	11978.95
813.973	450.1806	12704.95	11892.25
814.1168	452.3514	12661.2	11846.4
814.2607	454.5216	12622.05	11799.8
814.4046	456.6913	12575.2	11762.55
814.5485	458.8603	12565.35	11752.7
814.6924	461.0288	12591.1	11777.1
814.8363	463.1967	12658.75	11842.9
814.9802	465.3639	12798.9	11983.35
815.1241	467.5306	12922.75	12103.85
815.2681	469.6967	13122.4	12305.15
815.412	471.8622	13323.7	12507.3
815.556	474.0271	13486.05	12671.25
815.7	476.1914	13569.35	12749.05
815.844	478.3551	13518.8	12701
815.988	480.5182	13455.3	12635.35
816.132	482.6807	13361.35	12542.9
816.276	484.8426	13435.8	12616.5
816.4201	487.0039	13706.25	12886.1
816.5641	489.1647	14096.2	13275.7
816.7082	491.3248	14545.8	13723.75
816.8522	493.4843	14775.85	13955.8
816.9963	495.6432	14810.85	13988.75
817.1404	497.8015	14728.55	13904.15
817.2845	499.9592	14759.25	13939
817.4286	502.1163	14710.95	13888.6
817.5727	504.2728	14507.8	13682.85
817.7168	506.4287	14179.6	13354.4
817.861	508.5839	13686.9	12863.6
818.0051	510.7386	13294.25	12470.4
818.1493	512.8927	13076.7	12247.8
818.2935	515.0461	12874.35	12048.05
818.4377	517.199	12737.95	11914.15
818.5818	519.3512	12650.6	11822.45
818.726	521.5029	12624.2	11790
818.8703	523.6539	12638.05	11809.3
819.0145	525.8043	12643.2	11817.05
819.1587	527.9541	12694.75	11863.65
819.303	530.1033	12743.25	11912.2
819.4472	532.2519	12813.9	11981.55
819.5915	534.3999	13006.2	12172.4
819.7357	536.5472	13367	12533.9
819.88	538.694	13889.5	13057.8
820.0243	540.8401	14610.55	13778.75
820.1686	542.9856	15217.85	14384.6
820.3129	545.1305	15389	14555.9
820.4572	547.2748	15184.8	14352.7
820.6016	549.4185	14722	13888.65
820.7459	551.5615	14260.5	13425.1
820.8902	553.704	14032.55	13196.75
821.0346	555.8458	13903.4	13069.2
821.1789	557.987	13861.65	13028.75
821.3233	560.1276	13721.05	12885.3
821.4677	562.2675	13571.5	12736.95
821.6121	564.4069	13437.4	12600.85
821.7565	566.5456	13276.05	12442.2
821.9009	568.6837	13148	12313.2
822.0453	570.8212	12831.25	11998.1
822.1897	572.958	12620	11784.5
822.3342	575.0942	12446.1	11612.3
822.4786	577.2299	12355.45	11516.8
822.6231	579.3648	12359.05	11523.6
822.7675	581.4992	12485.9	11650
822.912	583.6329	12751.05	11914
823.0565	585.766	12998.5	12162.45
823.201	587.8985	13145.8	12308.6
823.3454	590.0304	13136.1	12286.45
823.4899	592.1616	13036.65	12192.65
823.6345	594.2922	12952.05	12112.8
823.779	596.4222	12776.6	11937.5
823.9235	598.5515	12590.85	11751.35
824.068	600.6802	12409.7	11569.25
824.2126	602.8083	12209.6	11370.3
824.3571	604.9358	12123.5	11278.95
824.5017	607.0626	12005.85	11164.1
824.6462	609.1888	11916.2	11071.6
824.7908	611.3144	11778.9	10935.65
824.9354	613.4393	11585.25	10743.35
825.08	615.5636	11427.1	10582.8
825.2246	617.6873	11288.55	10446.8
825.3692	619.8103	11223.05	10379.35
825.5138	621.9327	11161.35	10316.3
825.6584	624.0544	11140.6	10299.9
825.803	626.1756	11166.05	10323
825.9477	628.2961	11147.85	10302.85
826.0923	630.4159	11071.6	10226.8
826.237	632.5351	11009.4	10162.8
826.3816	634.6537	10936.5	10093.1
826.5263	636.7716	10874.2	10026.75
826.6709	638.8889	10883	10036.8
826.8156	641.0056	10904.6	10058.1
826.9603	643.1216	10888.75	10038.7
827.105	645.237	10884.25	10032.9
827.2497	647.3518	10900.4	10052.3
827.3944	649.4659	10931.3	10086.45
827.5391	651.5793	10953.3	10104.05
827.6838	653.6922	10910	10063.45
827.8285	655.8043	10875.3	10026.4
827.9733	657.9159	10815	9962.3
828.118	660.0268	10720.65	9868.05
828.2627	662.137	10667.6	9817.05
828.4075	664.2466	10618.75	9766.35
828.5522	666.3556	10584.5	9733.6
828.697	668.4639	10558.95	9706.9
828.8418	670.5716	10634.1	9781.65
828.9865	672.6786	10710.55	9859
829.1313	674.785	10783.1	9930.15
829.2761	676.8907	10877.95	10026.45
829.4209	678.9958	10949.95	10099.95
829.5657	681.1002	10908.95	10054.65
829.7105	683.204	10903.45	10049.9
829.8553	685.3072	10830.45	9975.15
830.0001	687.4097	10715.85	9864.1
830.1449	689.5115	10618.7	9764.95
830.2898	691.6127	10556.4	9705.35
830.4346	693.7132	10444.7	9591.2
830.5794	695.8131	10373.95	9494.95
830.7243	697.9123	10339.05	9485.2
830.8691	700.0109	10267.9	9412.9
831.014	702.1089	10248.55	9394.6
831.1588	704.2061	10243.2	9387.5
831.3037	706.3028	10243.55	9382.6
831.4486	708.3987	10297.2	9442.6
831.5935	710.4941	10405.75	9549.8
831.7383	712.5887	10613.6	9756.65
831.8832	714.6827	10968.45	10108.4
832.0281	716.7761	11371.55	10511.8
832.173	718.8688	11774.6	10918.95
832.3179	720.9608	11944.05	11083.05
832.4628	723.0522	11957.35	11096
832.6077	725.1429	11646.85	10790.05
832.7527	727.233	11270.85	10412.15
832.8976	729.3224	10867.1	10008.2
833.0425	731.4112	10524.7	9666.15
833.1874	733.4993	10282.65	9420.7
833.3324	735.5867	10120.6	9259.6
833.4773	737.6735	10041.05	9181.25
833.6222	739.7596	10000.85	9140.2
833.7672	741.845	9964.65	9104.5
833.9122	743.9298	9962.6	9099.45
834.0571	746.014	9987.1	9127.25
834.2021	748.0974	9975.1	9113.15
834.347	750.1802	9979.2	9118.6
834.492	752.2624	9965.95	9106.45
834.637	754.3439	9980.2	9119.15
834.782	756.4247	10036.05	9167.45
834.9269	758.5048	10090.9	9232.5
835.0719	760.5843	10298.95	9439.25
835.2169	762.6631	10563.45	9701.45
835.3619	764.7413	10973.8	10113.5
835.5069	766.8188	11577.9	10715.8
835.6519	768.8956	12056	11191.7
835.7969	770.9718	12366.65	11504.25
835.9419	773.0473	12255.15	11394.6
836.0869	775.1221	11871.1	11010.85
836.232	777.1962	11468.2	10608.05
836.377	779.2697	11260.35	10396.4
836.522	781.3426	11346.25	10463.6
836.667	783.4147	11675.05	10811
836.8121	785.4862	12000.65	11137.95
836.9571	787.557	12038.9	11175.9
837.1021	789.6271	11636.5	10774
837.2472	791.6966	11050.6	10184.1
837.3922	793.7654	10497.35	9633.65
837.5373	795.8335	10162.9	9299.15
837.6823	797.901	9984.1	9120.15
837.8274	799.9678	9934.95	9069
837.9724	802.0339	9961.15	9096.75
838.1175	804.0993	9980.5	9107.35
838.2626	806.1641	9997	9131.55
838.4076	808.2282	9933.5	9069.2
838.5527	810.2916	9827	8959.9
838.6978	812.3544	9686	8822.15
838.8428	814.4164	9602.85	8739.85
838.9879	816.4778	9594.6	8728.75
839.133	818.5385	9557.85	8693.15
839.2781	820.5986	9592.15	8726.5
839.4232	822.658	9620.5	8753.35
839.5682	824.7166	9659.05	8794.4
839.7133	826.7747	9777.75	8914.4
839.8584	828.832	9878.8	9013.75
840.0035	830.8886	9982.35	9116.45
840.1486	832.9446	10141.95	9273.6
840.2937	834.9999	10232.95	9370.35
840.4388	837.0545	10330.55	9460.05
840.5839	839.1085	10373.15	9507.2
840.729	841.1618	10383.25	9512.6
840.8741	843.2143	10376.25	9509.8
841.0192	845.2662	10322.45	9457.05
841.1643	847.3175	10250.05	9384.65
841.3095	849.368	10123.25	9258.4
841.4546	851.4179	9976.7	9110.45
841.5997	853.467	9837.5	8969.4
841.7448	855.5155	9711.05	8845.35
841.8899	857.5633	9599.4	8730.85
842.0351	859.6105	9481.85	8615.65
842.1802	861.6569	9416.75	8549.45
842.3253	863.7027	9342.35	8473.8
842.4704	865.7478	9321.7	8454.95
842.6156	867.7922	9299.6	8428.9
842.7607	869.8359	9339.9	8469.5
842.9058	871.8789	9473.45	8603.9
843.0509	873.9212	9696.75	8794.5
843.1961	875.9629	9862	8995.55
843.3412	878.0039	10061.7	9192.3
843.4863	880.0441	10137.9	9269.35
843.6315	882.0837	10116	9245.7
843.7766	884.1226	9974.8	9105.15
843.9218	886.1609	9784.9	8917.7
844.0669	888.1984	9620.3	8750.85
844.212	890.2352	9552.2	8684.65
844.3572	892.2714	9481.4	8607.3
844.5023	894.3069	9427.2	8557.8
844.6475	896.3416	9349.8	8478.2
844.7926	898.3757	9360.45	8491.5
844.9377	900.4091	9358.7	8487.7
845.0829	902.4418	9401.05	8527.95
845.228	904.4739	9369.95	8499.15
845.3732	906.5052	9346.65	8477.05
845.5183	908.5358	9232.6	8363.95
845.6635	910.5658	9064.45	8191.85
845.8086	912.595	8913.6	8043.35
845.9538	914.6236	8754.6	7887.25
846.0989	916.6515	8742.5	7872.85
846.2441	918.6786	8738.8	7866.45
846.3892	920.7051	8800.5	7927.6
846.5344	922.7309	8921.5	8050.8
846.6795	924.756	8989.95	8118.2
846.8246	926.7804	9096.25	8220.7
846.9698	928.8041	9018.8	8147
847.1149	930.8272	9057.2	8185.2
847.2601	932.8495	8999.9	8125.8
847.4052	934.8711	8897.65	8025.1
847.5504	936.892	8696.4	7823.95
847.6955	938.9123	8540	7667.5
847.8407	940.9318	8393.95	7520.35
847.9858	942.9506	8257.85	7386.1
848.131	944.9688	8170.25	7297.7
848.2761	946.9862	8111.85	7241.1
848.4213	949.003	8086.45	7213.15
848.5664	951.019	8061.55	7188.9
848.7115	953.0344	8086.95	7214.55
848.8567	955.0491	8144.05	7269.1
849.0018	957.063	8210	7338.7
849.147	959.0763	8326.95	7452.35
849.2921	961.0888	8368.75	7493.65
849.4373	963.1007	8450.8	7576.25
849.5824	965.1119	8475.3	7599.65
849.7275	967.1223	8522.7	7650.15
849.8727	969.1321	8553.75	7681.4
850.0178	971.1412	8563.5	7691.1
850.1629	973.1495	8583.85	7710.1
850.3081	975.1572	8645.55	7733.15
850.4532	977.1641	8658.1	7785.95
850.5983	979.1704	8622.1	7746.15
850.7435	981.1759	8620.1	7742
850.8886	983.1808	8716	7842.5
851.0337	985.1849	8808.4	7924.8
851.1788	987.1884	8973.25	8095.2
851.324	989.1911	9209.35	8332.7
851.4691	991.1932	9330.8	8453.7
851.6142	993.1945	9383.7	8508.75
851.7593	995.1951	9353.05	8477.25
851.9045	997.1951	9302.95	8422.4
852.0496	999.1943	9228.8	8355.1
852.1947	1001.1928	9163	8289.15
852.3398	1003.1906	9131.55	8259.35
852.4849	1005.1877	9167.9	8289.55
852.63	1007.1841	9111.5	8237.6
852.7751	1009.1798	9019.45	8145.75
852.9202	1011.1748	8809.7	7935.8
853.0653	1013.1691	8589.9	7714.7
853.2104	1015.1627	8382.4	7506.4
853.3555	1017.1556	8176.8	7301.9
853.5006	1019.1477	8086.4	7210.7
853.6457	1021.1392	8039.75	7166.15
853.7908	1023.1299	8020.7	7147.65
853.9359	1025.12	8065.8	7188.15
854.081	1027.1093	8136.7	7261.3
854.2261	1029.0979	8219.55	7346.2
854.3712	1031.0859	8257.7	7383
854.5163	1033.0731	8249.3	7373.35
854.6613	1035.0596	8159.1	7284.45
854.8064	1037.0454	8001.4	7123.95
854.9515	1039.0304	7881.75	7004.95
855.0965	1041.0148	7767.55	6893.8
855.2416	1042.9985	7689.4	6812.95
855.3867	1044.9814	7634	6757.55
855.5317	1046.9636	7574.1	6697.95
855.6768	1048.9452	7569.45	6694.55
855.8219	1050.926	7587.4	6714.05
855.9669	1052.9061	7571.9	6694.05
856.112	1054.8855	7530	6654.15
856.257	1056.8642	7581.75	6706.15
856.4021	1058.8421	7623.25	6743.9
856.5471	1060.8194	7642.45	6768.05
856.6921	1062.7959	7647.15	6771.05
856.8372	1064.7717	7680.85	6804.75
856.9822	1066.7469	7662.85	6786.35
857.1272	1068.7213	7613.1	6736.05
857.2723	1070.695	7600.5	6725.9
857.4173	1072.6679	7512.1	6637.6
857.5623	1074.6402	7482	6606.75
857.7073	1076.6117	7465.05	6582.5
857.8523	1078.5826	7493.2	6617.65
857.9973	1080.5527	7563.95	6682.45
858.1423	1082.5221	7722.1	6843.1
858.2873	1084.4908	7954.8	7076.95
858.4323	1086.4587	8177	7299.65
858.5773	1088.426	8359.85	7481.35
858.7223	1090.3925	8337.7	7456
858.8673	1092.3584	8239.5	7366.3
859.0123	1094.3235	8071.85	7196.6
859.1573	1096.2879	7943.25	7065.95
859.3022	1098.2515	7911.9	7034.2
859.4472	1100.2145	7922.75	7046.1
859.5922	1102.1767	7994.3	7114.2
859.7371	1104.1382	8139.95	7262.5
859.8821	1106.099	8357.75	7478.75
860.027	1108.0591	8563.25	7684.75
860.172	1110.0185	8703.1	7823.7
860.3169	1111.9771	8708.05	7832.9
860.4619	1113.9351	8451.4	7572.95
860.6068	1115.8923	8111.8	7233.55
860.7517	1117.8488	7737.55	6859.4
860.8967	1119.8045	7456	6579.4
861.0416	1121.7596	7302.3	6423.6
861.1865	1123.7139	7235.8	6359.45
861.3314	1125.6675	7255.6	6379.95
861.4763	1127.6204	7307.8	6429.05
861.6212	1129.5726	7333.3	6455.3
861.7661	1131.524	7376	6497.75
861.911	1133.4748	7438.25	6559.65
862.0559	1135.4248	7473.25	6592.6
862.2008	1137.3741	7506.7	6629.25
862.3457	1139.3226	7471.75	6593.65
862.4905	1141.2705	7444.5	6564.7
862.6354	1143.2176	7369.55	6486.25
862.7803	1145.164	7393.65	6516.1
862.9251	1147.1097	7424.1	6545.85
863.07	1149.0546	7430.75	6551.7
863.2148	1150.9989	7300.85	6422.35
863.3597	1152.9424	7106.05	6227.35
863.5045	1154.8852	6906.75	6027.05
863.6493	1156.8272	6767.2	5890.25
863.7942	1158.7686	6682.85	5797.6
863.939	1160.7092	6645.25	5766.3
864.0838	1162.6491	6656.25	5775.6
864.2286	1164.5883	6718.5	5840.05
864.3734	1166.5267	6799.4	5918.6
864.5182	1168.4644	6930.55	6052.7
864.663	1170.4014	7120.2	6238.25
864.8078	1172.3377	7365.1	6487
864.9526	1174.2732	7553.1	6675.35
865.0974	1176.2081	7755.95	6875.95
865.2421	1178.1421	7932.2	7050
865.3869	1180.0755	8030.4	7152.4
865.5317	1182.0082	8028.35	7148.95
865.6764	1183.9401	7936	7057
865.8212	1185.8713	7747	6866.7
865.9659	1187.8017	7486.6	6609.35
866.1106	1189.7315	7208.65	6331.9
866.2554	1191.6605	6985	6076.6
866.4001	1193.5888	6781.85	5901.8
866.5448	1195.5163	6660.5	5782.9
866.6895	1197.4432	6585.15	5703.1
866.8342	1199.3693	6507.6	5626.5
866.9789	1201.2947	6463.05	5583.45
867.1236	1203.2193	6438.15	5559.9
867.2683	1205.1432	6473.4	5595.6
867.413	1207.0664	6518.55	5639.7
867.5576	1208.9889	6600.7	5719.15
867.7023	1210.9106	6703.35	5824.9
867.847	1212.8316	6796.75	5919.65
867.9916	1214.7519	6881.7	5990.6
868.1363	1216.6715	6886.95	6008
868.2809	1218.5903	6853.9	5975.9
868.4255	1220.5084	6805.6	5927.15
868.5701	1222.4257	6765.8	5886.75
868.7148	1224.3424	6730.1	5850.55
868.8594	1226.2583	6778.2	5893.4
869.004	1228.1735	6897.1	6017
869.1486	1230.0879	7039.6	6159.55
869.2932	1232.0016	7146.75	6266.9
869.4377	1233.9146	7197.85	6315.8
869.5823	1235.8269	7105.75	6225.45
869.7269	1237.7384	6978.05	6096.5
869.8715	1239.6492	6783.25	5903.55
870.016	1241.5592	6687.25	5808.2
870.1606	1243.4686	6566.3	5685.65
870.3051	1245.3772	6492.75	5613.8
870.4496	1247.285	6431	5550.75
870.5941	1249.1922	6407.3	5527.9
870.7387	1251.0986	6401.75	5521.1
870.8832	1253.0042	6414.55	5536.45
871.0277	1254.9092	6484.85	5606.5
871.1722	1256.8134	6591.8	5713.9
871.3167	1258.7169	6755.8	5873.4
871.4611	1260.6196	6901.7	6022.75
871.6056	1262.5216	7076.05	6193.85
871.7501	1264.4229	7215.15	6336.25
871.8945	1266.3234	7304.25	6424.6
872.039	1268.2232	7338.9	6458.75
872.1834	1270.1223	7338.8	6456.2
872.3278	1272.0207	7302.15	6422
872.4723	1273.9183	7240.05	6355.85
872.6167	1275.8151	7175.05	6294.3
872.7611	1277.7113	7066.05	6183.3
872.9055	1279.6067	6920.2	6041.95
873.0499	1281.5014	6756.95	5875.45
873.1943	1283.3953	6605.65	5723.95
873.3386	1285.2885	6501.2	5622.75
873.483	1287.181	6447	5565.5
873.6274	1289.0727	6447.35	5569.6
873.7717	1290.9637	6492.4	5612.3
873.9161	1292.854	6607.55	5726.5
874.0604	1294.7435	6784.85	5904.95
874.2047	1296.6323	7006.85	6124.3
874.349	1298.5204	7243.85	6360.2
874.4933	1300.4077	7505.45	6624.4
874.6376	1302.2943	7705.45	6826.55
874.7819	1304.1802	7777.35	6896.35
874.9262	1306.0653	7705.55	6824.5
875.0705	1307.9497	7600.9	6721.85
875.2147	1309.8333	7523.95	6644.4
875.359	1311.7162	7539.85	6659.05
875.5032	1313.5984	7630.8	6746.95
875.6475	1315.4798	7782.45	6901.8
875.7917	1317.3605	7975.8	7081.55
875.9359	1319.2405	8143.55	7260.25
876.0801	1321.1197	8179	7295.9
876.2243	1322.9982	8164.95	7279.1
876.3685	1324.876	8148.55	7266.95
876.5127	1326.753	8111.35	7229.8
876.6569	1328.6293	8151.5	7268.25
876.801	1330.5048	8152.4	7271
876.9452	1332.3796	8093.8	7213.05
877.0893	1334.2537	8119.35	7211.45
877.2335	1336.127	8029.15	7149.3
877.3776	1337.9996	7981.65	7099.65
877.5217	1339.8714	7959.9	7076.95
877.6658	1341.7426	7937.05	7010.7
877.8099	1343.6129	7825.7	6945.55
877.954	1345.4826	7746.25	6864.45
878.0981	1347.3515	7696.25	6811.3
878.2422	1349.2196	7627.05	6745.55
878.3862	1351.087	7632.8	6749.85
878.5303	1352.9537	7681.8	6801.35
878.6743	1354.8197	7801.7	6919.95
878.8184	1356.6849	7945.75	7063.55
878.9624	1358.5493	8042.2	7159.05
879.1064	1360.4131	8018.6	7137.7
879.2504	1362.276	7922.95	7040.65
879.3944	1364.1383	7778.85	6897.2
879.5384	1365.9998	7550.85	6663.15
879.6823	1367.8606	7285.45	6404.55
879.8263	1369.7206	7040.45	6157.85
879.9702	1371.5799	6883.6	5999.85
880.1142	1373.4384	6757.6	5875.45
880.2581	1375.2962	6649.15	5768
880.402	1377.1533	6433.05	5551.85
880.5459	1379.0096	6119.5	5239.9
880.6898	1380.8652	5878.2	4995.75
880.8337	1382.7201	5643.85	4760.9
880.9776	1384.5742	5455.65	4574.05
881.1215	1386.4275	5345.1	4463.5
881.2653	1388.2802	5222	4342.95
881.4092	1390.132	5139.25	4257.8
881.553	1391.9832	5078	4194.75
881.6968	1393.8336	5019.1	4137.75
881.8406	1395.6832	4990	4108.5
881.9844	1397.5322	4956	4075.7
882.1282	1399.3803	4935.65	4049.95
882.272	1401.2278	4912.5	4030.25
882.4158	1403.0745	4928.6	4046.65
882.5595	1404.9204	4910.4	4026.55
882.7033	1406.7656	4933.45	4051.25
882.847	1408.6101	4972.15	4090.55
882.9908	1410.4538	4983.15	4100.35
883.1345	1412.2968	5035.2	4155.65
883.2782	1414.139	5080.35	4196.5
883.4219	1415.9805	5165.5	4285.05
883.5656	1417.8213	5271	4382.35
883.7092	1419.6613	5404.35	4523.8
883.8529	1421.5006	5604.05	4719.95
883.9965	1423.3391	5898.65	5016.75
884.1402	1425.1769	6270.7	5385.8
884.2838	1427.0139	6784.95	5905.4
884.4274	1428.8502	7433.05	6548.25
884.571	1430.6858	8040	7156.65
884.7146	1432.5206	8483	7601.65
884.8582	1434.3547	8763.55	7881.5
885.0018	1436.188	8796.05	7914.4
885.1453	1438.0206	8716.6	7833.5
885.2889	1439.8524	8557.25	7674.2
885.4324	1441.6835	8442.65	7559.55
885.5759	1443.5139	8379.15	7493.05
885.7194	1445.3435	8293.15	7411.15
885.8629	1447.1724	8273.4	7391.45
886.0064	1449.0005	8179.2	7296.15
886.1499	1450.8279	8081.1	7196.5
886.2933	1452.6545	8065.3	7183.5
886.4368	1454.4804	8067.9	7184.75
886.5802	1456.3056	8075.15	7186.25
886.7237	1458.13	7980.4	7100.15
886.8671	1459.9536	7719.95	6838.25
887.0105	1461.7766	7354	6470.7
887.1539	1463.5987	6933.55	6051.85
887.2972	1465.4202	6517.95	5635.4
887.4406	1467.2409	6176.8	5296.2
887.584	1469.0608	5884.85	5002.4
887.7273	1470.88	5657.85	4775.25
887.8706	1472.6984	5411.65	4531.85
888.0139	1474.5161	5221.7	4334.9
888.1572	1476.3331	5090.6	4207.6
888.3005	1478.1493	4968.35	4084.15
888.4438	1479.9648	4862.4	3978.15
888.5871	1481.7795	4754.1	3872.8
888.7303	1483.5935	4686	3805
888.8736	1485.4067	4651.15	3770.4
889.0168	1487.2192	4591.3	3710.1
889.16	1489.031	4564.15	3681.3
889.3032	1490.842	4505.7	3624.35
889.4464	1492.6522	4483.25	3600
889.5896	1494.4618	4454.6	3570.6
889.7327	1496.2705	4428	3546.7
889.8759	1498.0785	4401.95	3519.35
890.019	1499.8858	4387.95	3503.95
890.1622	1501.6924	4361.4	3480.2
890.3053	1503.4981	4348.05	3464.9
890.4484	1505.3032	4334.05	3452.9
890.5914	1507.1075	4303.85	3421.15
890.7345	1508.911	4286.6	3408
890.8776	1510.7138	4270.85	3389
891.0206	1512.5159	4215.45	3332.1
891.1637	1514.3172	4188.85	3306.35
891.3067	1516.1178	4181.45	3298.45
891.4497	1517.9176	4151.7	3264.65
891.5927	1519.7166	4123.45	3240.95
891.7357	1521.515	4103.25	3213.9
891.8786	1523.3126	4087.9	3206.25
892.0216	1525.1094	4047.75	3160.35
892.1645	1526.9055	4042.8	3163.8
892.3074	1528.7008	4033.2	3150.5
892.4503	1530.4954	4032.5	3142.65
892.5932	1532.2893	4015.4	3134.55
892.7361	1534.0824	3992.3	3102.65
892.879	1535.8747	3992.05	3109.55
893.0218	1537.6663	3986.45	3103.6
893.1647	1539.4572	3991.4	3106.1
893.3075	1541.2473	3968.05	3087.1
893.4503	1543.0367	3952.75	3072.55
893.5931	1544.8253	3965.25	3078.4
893.7359	1546.6132	3964.45	3080.95
893.8787	1548.4003	3959.05	3068.15
894.0214	1550.1867	3974.6	3083.1
894.1642	1551.9723	3990.35	3104.2
894.3069	1553.7572	4014.45	3132.5
894.4496	1555.5414	4042.2	3159.4
894.5923	1557.3247	4078.2	3194.6
894.735	1559.1074	4114.6	3233.8
894.8777	1560.8893	4163.65	3282.35
895.0204	1562.6705	4230.3	3347.2
895.163	1564.4509	4313.95	3432.55
895.3056	1566.2305	4375.5	3494.2
895.4482	1568.0094	4482.4	3603.25
895.5908	1569.7876	4572.15	3689.25
895.7334	1571.565	4637.05	3754.7
895.876	1573.3417	4680.95	3798.9
896.0186	1575.1176	4717.35	3834.35
896.1611	1576.8928	4652.35	3768.5
896.3036	1578.6672	4586.55	3705.6
896.4461	1580.4409	4475.4	3593.7
896.5886	1582.2138	4357.6	3472.95
896.7311	1583.986	4230.9	3346.95
896.8736	1585.7575	4139.4	3257.7
897.0161	1587.5282	4053.7	3172.6
897.1585	1589.2981	4002.8	3120.8
897.3009	1591.0673	3969.55	3089.5
897.4433	1592.8358	3937.05	3056.3
897.5857	1594.6035	3938.65	3053.45
897.7281	1596.3704	3938.85	3056.5
897.8705	1598.1366	3956.65	3075.85
898.0128	1599.9021	3972.15	3093.2
898.1551	1601.6668	3992.4	3108.95
898.2975	1603.4308	4054.6	3171.2
898.4398	1605.194	4106.75	3220.4
898.5821	1606.9564	4185.15	3301.5
898.7243	1608.7182	4303	3415.5
898.8666	1610.4791	4429.4	3547.35
899.0088	1612.2394	4585.15	3705.05
899.1511	1613.9988	4781.45	3900.4
899.2933	1615.7576	4989.35	4110.5
899.4355	1617.5156	5247.4	4358.45
899.5776	1619.2728	5475.15	4594.9
899.7198	1621.0293	5656	4775.65
899.862	1622.785	5733.65	4849.5
900.0041	1624.54	5689.25	4804.75
900.1462	1626.2942	5539.9	4658.1
900.2883	1628.0477	5312.2	4427.05
900.4304	1629.8005	5047.7	4163.55
900.5725	1631.5525	4825.65	3943.9
900.7145	1633.3037	4613.55	3729.4
900.8566	1635.0542	4449.5	3566.85
900.9986	1636.804	4319.6	3436.5
901.1406	1638.553	4301.3	3341.8
901.2826	1640.3013	4180.65	3300.45
901.4245	1642.0488	4139.05	3255.05
901.5665	1643.7955	4129.85	3248.75
901.7085	1645.5416	4154.05	3269.95
901.8504	1647.2868	4224.65	3346.1
901.9923	1649.0313	4288.9	3408.25
902.1342	1650.7751	4437.65	3554.05
902.2761	1652.5181	4614.5	3734.1
902.4179	1654.2604	4888.75	4006.7
902.5598	1656.0019	5204.3	4322.45
902.7016	1657.7427	5564.45	4683.4
902.8434	1659.4828	5929.05	5048.95
902.9852	1661.222	6149.05	5265.8
903.127	1662.9606	6175	5294.9
903.2687	1664.6984	6014.65	5134.4
903.4105	1666.4354	5656.45	4774.2
903.5522	1668.1717	5216.85	4336.15
903.6939	1669.9072	4780.85	3902.95
903.8356	1671.642	4424.25	3542.4
903.9773	1673.3761	4140.1	3260.25
904.119	1675.1094	3904.1	3023.6
904.2606	1676.8419	3758.05	2877.9
904.4022	1678.5737	3630.25	2751
904.5439	1680.3048	3544.75	2663.5
904.6855	1682.0351	3478.5	2596.25
904.827	1683.7646	3426.95	2544.85
904.9686	1685.4934	3369.9	2490.05
905.1101	1687.2215	3348.55	2467.5
905.2517	1688.9488	3301.45	2421.5
905.3932	1690.6754	3282.65	2402.35
905.5347	1692.4012	3262.85	2381.75
905.6761	1694.1263	3224.1	2344.4
905.8176	1695.8506	3217.75	2337.6
905.9591	1697.5742	3200.45	2318.15
906.1005	1699.297	3179.25	2299.9
906.2419	1701.0191	3177.75	2297.15
906.3833	1702.7404	3159.15	2280.15
906.5246	1704.461	3124.05	2241.55
906.666	1706.1808	3115.4	2233.65
906.8073	1707.8999	3113.15	2231.45
906.9487	1709.6182	3097.35	2215.8
907.09	1711.3358	3083.15	2201.8
907.2313	1713.0527	3055.7	2176.2
907.3725	1714.7688	3059.75	2172.9
907.5138	1716.4841	3045.25	2162.4
907.655	1718.1987	3034.3	2147
907.7962	1719.9126	3022.45	2143.45
907.9374	1721.6257	3016.65	2131.8
908.0786	1723.338	2999.8	2119
908.2198	1725.0496	2992.7	2110.2
908.3609	1726.7605	2971.3	2090.7
908.502	1728.4706	2962.25	2078.7
908.6431	1730.18	2948.85	2065.7
908.7842	1731.8886	2950	2069
908.9253	1733.5964	2946.6	2061.15
909.0664	1735.3036	2933.05	2049.3
909.2074	1737.0099	2927.55	2045.15
909.3484	1738.7156	2916.4	2033.45
909.4894	1740.4204	2901.1	2017.85
909.6304	1742.1246	2907.05	2022.8
909.7714	1743.8279	2900.75	2018.55
909.9123	1745.5306	2887.7	2006.2
910.0532	1747.2325	2876.7	1993.35
910.1941	1748.9336	2875.4	1995.95
910.335	1750.634	2853.6	1970.9
910.4759	1752.3336	2859	1978.8
910.6168	1754.0325	2852.4	1972.6
910.7576	1755.7307	2847.4	1966.65
910.8984	1757.4281	2846.4	1963.85
911.0392	1759.1247	2836.15	1947
911.18	1760.8206	2834.2	1948.85
911.3208	1762.5158	2837.25	1951.7
911.4615	1764.2102	2824.5	1944.75
911.6022	1765.9039	2808.05	1926.95
911.7429	1767.5968	2803.9	1923.65
911.8836	1769.289	2798.3	1917.5
912.0243	1770.9804	2792	1910.25
912.1649	1772.6711	2807.1	1926.65
912.3056	1774.361	2783.65	1902.8
912.4462	1776.0502	2783	1901.15
912.5868	1777.7386	2780.7	1895.1
912.7274	1779.4263	2761.35	1878.65
912.8679	1781.1132	2770.05	1888.45
913.0084	1782.7994	2761.3	1874.8
913.149	1784.4849	2759.05	1878.55
913.2895	1786.1696	2756.75	1858.15
913.4299	1787.8535	2743.15	1862.05
913.5704	1789.5367	2739.9	1858.8
913.7108	1791.2192	2732.3	1850.55
913.8513	1792.9009	2750.8	1845.2
913.9917	1794.5818	2715.1	1833.15
914.132	1796.2621	2715.75	1835.25
914.2724	1797.9415	2709.2	1829.15
914.4128	1799.6202	2712.75	1832.35
914.5531	1801.2982	2707.5	1827.6
914.6934	1802.9755	2695.1	1813.8
914.8337	1804.6519	2685.5	1804.2
914.9739	1806.3277	2681.6	1801.85
915.1142	1808.0027	2677.55	1796.7
915.2544	1809.6769	2677.6	1796.05
915.3946	1811.3504	2677.5	1792.95
915.5348	1813.0231	2663	1779.95
915.675	1814.6951	2672.25	1791.9
915.8151	1816.3664	2667.2	1785.3
915.9553	1818.0369	2662.55	1779.4
916.0954	1819.7067	2642.85	1764.7
916.2355	1821.3757	2646.35	1763.95
916.3755	1823.044	2646	1764.15
916.5156	1824.7115	2635.7	1752.95
916.6556	1826.3783	2637.2	1759.05
916.7956	1828.0443	2630.05	1750.4
916.9356	1829.7096	2628.85	1748.3
917.0756	1831.3741	2625.7	1742.25
917.2155	1833.0379	2626.75	1744.3
917.3555	1834.701	2611.7	1728.3
917.4954	1836.3633	2619.05	1736.05
917.6353	1838.0248	2604.9	1721.95
917.7751	1839.6856	2598.45	1718.35
917.915	1841.3457	2597.05	1717.6
918.0548	1843.005	2596.9	1716.65
918.1946	1844.6636	2597.6	1717.1
918.3344	1846.3214	2584.4	1703
918.4742	1847.9785	2593.7	1715
918.6139	1849.6349	2596	1715.35
918.7537	1851.2904	2582.85	1694.15
918.8934	1852.9453	2580.8	1700.1
919.0331	1854.5994	2567.85	1684.2
919.1727	1856.2528	2576.05	1689.35
919.3124	1857.9054	2565.15	1683.3
919.452	1859.5572	2564.65	1683.3
919.5916	1861.2083	2555.15	1672.45
919.7312	1862.8587	2567.65	1687.6
919.8708	1864.5084	2549.45	1668.45
920.0103	1866.1572	2555.4	1675.75
920.1498	1867.8054	2538.65	1658.8
920.2893	1869.4528	2531.05	1652.65
920.4288	1871.0994	2520.35	1640.95
920.5683	1872.7453	2524.95	1644.9
920.7077	1874.3905	2529.05	1628.8
920.8471	1876.0349	2497	1616.3
920.9865	1877.6786	2520.6	1639.7
921.1259	1879.3215	2503.8	1624.45
921.2653	1880.9637	2513.05	1631.45
921.4046	1882.6051	2506	1626.5
921.5439	1884.2458	2504.3	1621.55
921.6832	1885.8858	2482.5	1600.9
921.8225	1887.525	2479.6	1596.35
921.9617	1889.1634	2485.6	1606.85
922.101	1890.8011	2470.8	1589.4
922.2402	1892.4381	2472.75	1594.4
922.3794	1894.0743	2461.15	1579.25
922.5185	1895.7098	2468	1587.7
922.6577	1897.3446	2461.35	1579.4
922.7968	1898.9786	2449.75	1565.45
922.9359	1900.6118	2440.8	1563.1
923.075	1902.2443	2441.15	1557.15
923.214	1903.8761	2438.45	1558.5
923.3531	1905.5071	2418.1	1537.35
923.4921	1907.1374	2424.8	1542.45
923.6311	1908.7669	2415.3	1533.95
923.77	1910.3957	2422.15	1541.75
923.909	1912.0237	2411.25	1531.1
924.0479	1913.651	2411.8	1530
924.1868	1915.2776	2403	1524.5
924.3257	1916.9034	2396.2	1517.05
924.4646	1918.5285	2390.25	1508.3
924.6034	1920.1528	2379.4	1498.6
924.7422	1921.7764	2383.1	1503.85
924.881	1923.3992	2374.9	1495.2
925.0198	1925.0213	2362.1	1481.2
925.1586	1926.6427	2353.1	1474.2
925.2973	1928.2633	2454.6	1466.75
925.436	1929.8832	2372.25	1488.9
925.5747	1931.5023	2350.15	1468.9
925.7134	1933.1207	2351.15	1470.35
925.852	1934.7383	2354.05	1473
925.9906	1936.3552	2343.45	1463.25
926.1292	1937.9714	2340.7	1461.45
926.2678	1939.5868	2335.3	1453.2
926.4064	1941.2015	2318.1	1436.2
926.5449	1942.8154	2318.15	1435.6
926.6834	1944.4286	2313.6	1433.45
926.8219	1946.041	2328.8	1427
926.9604	1947.6528	2304	1417.9
927.0988	1949.2637	2301	1420.05
927.2372	1950.8739	2297.75	1414.95
927.3756	1952.4834	2286.5	1406.25
927.514	1954.0921	2275.85	1395.35
927.6523	1955.7001	2286.75	1401.95
927.7907	1957.3074	2273.85	1393.95
927.929	1958.9139	2266.2	1386.1
928.0673	1960.5197	2256.6	1371.95
928.2055	1962.1247	2254.05	1373.9
928.3438	1963.729	2248.3	1367.1
928.482	1965.3325	2252.45	1347.3
928.6202	1966.9353	2252.7	1373.7
928.7584	1968.5374	2236.75	1353.95
928.8965	1970.1387	2226.9	1344.7
929.0346	1971.7393	2223.1	1341.15
929.1727	1973.3392	2228.45	1346.35
929.3108	1974.9383	2210.95	1330.1
929.4489	1976.5366	2208.7	1327.65
929.5869	1978.1342	2222.8	1340.4
929.7249	1979.7311	2203.4	1319.75
929.8629	1981.3273	2197.6	1316.1
930.0009	1982.9227	2190.35	1307.65
930.1388	1984.5173	2189.35	1307.1
930.2767	1986.1112	2185.8	1304.6
930.4146	1987.7044	2183.1	1304.15
930.5525	1989.2968	2181.2	1298.6
930.6904	1990.8885	2191.25	1308.25
930.8282	1992.4795	2176.5	1294
930.966	1994.0697	2178.25	1297.3
931.1038	1995.6592	2164.1	1281.2
931.2415	1997.2479	2163.9	1281.9
931.3793	1998.8359	2167.4	1285.5
931.517	2000.4232	2150.9	1270.95
931.6547	2002.0097	2149.35	1269.85
931.7923	2003.5955	2139.65	1257.6
931.93	2005.1805	2145.8	1263.05
932.0676	2006.7648	2149.35	1268.35
932.2052	2008.3484	2137.5	1255.45
932.3427	2009.9312	2135.15	1251.75
932.4803	2011.5133	2134.45	1255.25
932.6178	2013.0946	2130.35	1246.7
932.7553	2014.6752	2121.6	1240.75
932.8928	2016.2551	2125.85	1242.9
933.0302	2017.8342	2120.55	1239.85
933.1676	2019.4126	2109.45	1226.85
933.305	2020.9902	2111.75	1231.25
933.4424	2022.5672	2119.8	1239.6
933.5798	2024.1433	2118.6	1230.45
933.7171	2025.7188	2097.9	1218.45
933.8544	2027.2935	2096.4	1214.55
933.9917	2028.8674	2091.55	1210.9
934.129	2030.4406	2081.75	1202
934.2662	2032.0131	2096.2	1213.9
934.4034	2033.5849	2075.2	1192.15
934.5406	2035.1559	2086.3	1207.35
934.6778	2036.7261	2080.15	1198.3
934.8149	2038.2957	2067.7	1188.1
934.952	2039.8645	2065.75	1185.95
935.0891	2041.4325	2065.6	1182.3
935.2262	2042.9998	2060.15	1179.55
935.3632	2044.5664	2058.75	1175.85
935.5002	2046.1323	2063.85	1183.6
935.6372	2047.6974	2046.85	1166.15
935.7742	2049.2617	2052.3	1169.95
935.9111	2050.8254	2065.15	1164.6
936.048	2052.3883	2044.4	1160.75
936.1849	2053.9504	2045.25	1162.25
936.3218	2055.5118	2039.6	1157.55
936.4586	2057.0725	2040.85	1156.2
936.5955	2058.6325	2034.25	1152.05
936.7323	2060.1917	2018.3	1137.95
936.869	2061.7502	2034.7	1150.6
937.0058	2063.3079	2023.5	1142.35
937.1425	2064.8649	2022.3	1137.65
937.2792	2066.4212	2018.4	1136.4
937.4159	2067.9767	2007.15	1127.15
937.5525	2069.5315	2004.05	1122.15
937.6891	2071.0856	2001.55	1120.95
937.8257	2072.6389	1997.35	1115.1
937.9623	2074.1915	1995.8	1116.15
938.0989	2075.7433	1989.25	1106.85
938.2354	2077.2945	1984.25	1104.9
938.3719	2078.8448	1990.15	1111.45
938.5084	2080.3945	1974.65	1095.75
938.6448	2081.9434	1973.6	1090.7
938.7812	2083.4916	1976.9	1094.6
938.9176	2085.039	1968.7	1084.85
939.054	2086.5857	1963.1	1080
939.1903	2088.1317	1965.45	1084.55
939.3267	2089.677	1962.25	1079.9
939.463	2091.2215	1965.95	1085.05
939.5992	2092.7652	1957.95	1075.05
939.7355	2094.3083	1965.85	1084.35
939.8717	2095.8506	1953.5	1071.6
940.0079	2097.3921	1955.6	1076.2
940.1441	2098.933	1944.55	1062.65
940.2802	2100.4731	1935.1	1054.65
940.4163	2102.0124	1950.95	1061.7
940.5524	2103.5511	1938.2	1057.1
940.6885	2105.089	1945.65	1064.65
940.8245	2106.6261	1944.25	1062.75
940.9606	2108.1626	1932.8	1049.15
941.0965	2109.6983	1954.75	1046.1
941.2325	2111.2332	1931.95	1049.4
941.3684	2112.7675	1918.4	1035.3
941.5044	2114.301	1925.35	1042.95
941.6403	2115.8337	1915.15	1033.4
941.7761	2117.3657	1912.8	1032.75
941.912	2118.897	1910.95	1026.25
942.0478	2120.4276	1914.15	1026.35
942.1835	2121.9575	1910.1	1029.6
942.3193	2123.4866	1913.5	1018.75
942.455	2125.0149	1913	1030.75
942.5907	2126.5426	1906.45	1025.3
942.7264	2128.0695	1896.85	1011.65
942.8621	2129.5956	1897.75	1015.55
942.9977	2131.1211	1889.45	1002.3
943.1333	2132.6458	1894.25	1012.8
943.2689	2134.1698	1891.8	1010.25
943.4044	2135.693	1886.75	1003.75
943.54	2137.2155	1885.1	1002.15
943.6755	2138.7373	1881.3	1000.2
943.8109	2140.2584	1880.85	997.85
943.9464	2141.7787	1874.9	986.55
944.0818	2143.2983	1870.05	989.7
944.2172	2144.8171	1864.2	981.85
944.3526	2146.3353	1855.95	972.95
944.4879	2147.8527	1857.45	976.7
944.6232	2149.3693	1870.75	986.9
944.7585	2150.8853	1864.2	982.9
944.8938	2152.4005	1848.75	969.15
945.029	2153.9149	1850.2	967.6
945.1642	2155.4287	1854.1	971.65
945.2994	2156.9417	1850.05	966.9
945.4346	2158.454	1848.75	963.6
945.5697	2159.9655	1841.3	959.55
945.7048	2161.4764	1837.25	956.85
945.8399	2162.9865	1839.55	955.8
945.9749	2164.4958	1840.8	957.85
946.1099	2166.0045	1842.25	957.75
946.2449	2167.5124	1823.6	943.15
946.3799	2169.0195	1825.95	945.05
946.5148	2170.526	1828.4	947
946.6498	2172.0317	1813.55	929.8
946.7846	2173.5367	1829.4	947.35
946.9195	2175.0409	1820.45	938.2
947.0543	2176.5445	1832.8	951.9
947.1891	2178.0473	1812.15	930.6
947.3239	2179.5494	1821.1	934.85
947.4587	2181.0507	1806.9	925.05
947.5934	2182.5513	1805.35	924.1
947.7281	2184.0512	1807.95	925.35
947.8628	2185.5504	1799.35	917.75
947.9974	2187.0488	1798.9	916.5
948.132	2188.5465	1790.7	907.8
948.2666	2190.0435	1796.6	914.2
948.4012	2191.5397	1795.05	911.75
948.5357	2193.0353	1788.95	909.35
948.6702	2194.5301	1785.85	903.2
948.8047	2196.0241	1783.75	901.25
948.9392	2197.5175	1781.65	900
949.0736	2199.0101	1777.65	894.9
949.208	2200.502	1769.8	888.75
949.3424	2201.9931	1774.65	891.1
949.4767	2203.4835	1762.8	879
949.611	2204.9733	1770.4	878.7
949.7453	2206.4622	1756	874.35
949.8796	2207.9505	1759.15	873.5
950.0138	2209.438	1748.15	869.75
950.148	2210.9248	1748.25	864.9
950.2822	2212.4109	1749.95	870.4
950.4164	2213.8962	1736.15	851.1
950.5505	2215.3809	1754.3	871.15
950.6846	2216.8648	1737.5	853.45
950.8186	2218.3479	1742.6	856.55
950.9527	2219.8304	1738.55	854.45
951.0867	2221.3121	1733.55	850.95
951.2207	2222.7931	1731.95	852.05
951.3546	2224.2733	1727.05	845.9
951.4886	2225.7529	1729	845.9
951.6225	2227.2317	1724.7	840.15
951.7563	2228.7098	1728.85	849
951.8902	2230.1872	1714.6	832.25
952.024	2231.6638	1710.5	827.45
952.1578	2233.1397	1709.7	824.1
952.2916	2234.6149	1710.8	828.75
952.4253	2236.0894	1701.45	817.5
952.559	2237.5632	1706.6	824.8
952.6927	2239.0362	1711.55	829.65
952.8263	2240.5085	1699.1	816
952.9599	2241.9801	1699.4	817.4
953.0935	2243.4509	1692.7	812.45
953.2271	2244.921	1695.5	813.6
953.3606	2246.3904	1684.35	799.7
953.4941	2247.8591	1688.65	807.35
953.6276	2249.3271	1669.15	786.6
953.7611	2250.7943	1672.8	790.2
953.8945	2252.2608	1675.6	793.45
954.0279	2253.7266	1673.8	794.5
954.1612	2255.1917	1678.05	796.05
954.2946	2256.656	1666.2	784.35
954.4279	2258.1197	1670.85	789.5
954.5612	2259.5826	1671.7	788.4
954.6944	2261.0447	1665.85	782.75
954.8276	2262.5062	1657.7	774.3
954.9608	2263.9669	1656.75	773.5
955.094	2265.4269	1655.8	775.05
955.2271	2266.8862	1653.6	771.6
955.3602	2268.3448	1651.95	768.35
955.4933	2269.8026	1662.45	778.9
955.6264	2271.2598	1647.2	764.4
955.7594	2272.7162	1649.5	768.3
955.8924	2274.1719	1645.9	762.85
956.0253	2275.6268	1648.65	766.45
956.1583	2277.0811	1650.1	767.2
956.2912	2278.5346	1649.75	767.95
956.4241	2279.9874	1644.25	762.75
956.5569	2281.4395	1642.15	760.8
956.6897	2282.8908	1645.5	757.4
956.8225	2284.3414	1640.55	758.65
956.9553	2285.7914	1636.85	755.75
957.088	2287.2406	1635.95	753.4
957.2207	2288.689	1627.2	745.45
957.3534	2290.1368	1639.7	757.65
957.486	2291.5838	1624.85	740.75
957.6186	2293.0302	1624.3	741.2
957.7512	2294.4758	1621.95	737.7
957.8838	2295.9206	1626.2	741.7
958.0163	2297.3648	1620.85	741.15
958.1488	2298.8082	1617.65	733.1
958.2813	2300.251	1610.9	731
958.4137	2301.693	1605.15	719.1
958.5461	2303.1343	1609.35	727.15
958.6785	2304.5748	1610.15	728.5
958.8108	2306.0147	1610.45	726.9
958.9432	2307.4538	1608.65	724.8
959.0754	2308.8922	1597.85	717.9
959.2077	2310.3299	1601.45	718.9
959.3399	2311.7669	1599.9	718.7
959.4721	2313.2031	1597.7	716.4
959.6043	2314.6387	1595.8	711.3
959.7365	2316.0735	1586.25	704.8
959.8686	2317.5076	1594.35	712.25
960.0006	2318.941	1578.5	697.6
960.1327	2320.3737	1572.95	691.4
960.2647	2321.8056	1583.4	699.5
960.3967	2323.2369	1571.75	689.75
960.5287	2324.6674	1582.7	698.2
960.6606	2326.0972	1582.7	699.6
960.7925	2327.5263	1574.15	692.85
960.9244	2328.9547	1573	688.7
961.0562	2330.3823	1573.4	690.8
961.1881	2331.8092	1574.55	687.6
961.3198	2333.2355	1571.05	689
961.4516	2334.661	1561.75	678.6
961.5833	2336.0858	1568.4	684.8
961.715	2337.5098	1562.35	681.95
961.8467	2338.9332	1569.7	685.2
961.9783	2340.3558	1562.15	678.25
962.1099	2341.7778	1563.15	681.15
962.2415	2343.199	1557.45	672.35
962.373	2344.6195	1553.35	672.1
962.5045	2346.0393	1548.4	668.4
962.636	2347.4583	1555.7	671.85
962.7675	2348.8767	1566.15	682.5
962.8989	2350.2943	1559.65	677.45
963.0303	2351.7113	1554	673.25
963.1617	2353.1275	1553.3	670.9
963.293	2354.543	1578.95	673.65
963.4243	2355.9578	1550.9	669.85
963.5556	2357.3718	1552.7	670.65
963.6868	2358.7852	1540.15	657.15
963.818	2360.1978	1539.05	656.25
963.9492	2361.6098	1533.05	650.3
964.0803	2363.021	1537.35	649.95
964.2114	2364.4315	1533.85	653.35
964.3425	2365.8413	1527.95	643.45
964.4736	2367.2504	1535.15	655.4
964.6046	2368.6587	1527.3	646.3
964.7356	2370.0664	1529.1	648.65
964.8666	2371.4733	1521.75	639.45
964.9975	2372.8795	1513.2	633.35
965.1284	2374.285	1521.85	639.4
965.2593	2375.6899	1512.25	631.2
965.3901	2377.0939	1509.35	627.85
965.5209	2378.4973	1509.35	628.05
965.6517	2379.9	1515.7	633.25
965.7825	2381.3019	1511.45	632.15
965.9132	2382.7032	1513.1	631.45
966.0439	2384.1037	1508.95	629.9
966.1745	2385.5035	1500.55	619.9
966.3051	2386.9027	1499	617.6
966.4357	2388.3011	1507.85	621.65
966.5663	2389.6987	1494.7	612.85
966.6968	2391.0957	1499.25	619.15
966.8273	2392.492	1493	613.4
966.9578	2393.8876	1490.75	609.95
967.0882	2395.2824	1484.4	603.55
967.2186	2396.6765	1486.7	607.15
967.349	2398.07	1482.55	601.7
967.4793	2399.4627	1474.95	592.85
967.6097	2400.8547	1485.25	605.5
967.7399	2402.246	1481.75	593.75
967.8702	2403.6366	1478.85	600.05
968.0004	2405.0265	1471	589
968.1306	2406.4156	1475	587.35
968.2607	2407.8041	1472.9	589.25
968.3909	2409.1918	1464.15	580.9
968.521	2410.5789	1468.25	587.65
968.651	2411.9652	1470.55	588.65
968.781	2413.3508	1460.05	577.4
968.911	2414.7358	1469	587.75
969.041	2416.12	1454.3	571.75
969.1709	2417.5035	1461.6	582.7
969.3008	2418.8863	1466.05	584.55
969.4307	2420.2684	1463.35	582.7
969.5606	2421.6497	1459.25	578.6
969.6904	2423.0304	1457.45	577.25
969.8201	2424.4104	1462.25	581.45
969.9499	2425.7896	1454.3	566.05
970.0796	2427.1682	1445.45	565.2
970.2093	2428.546	1446.85	564.15
970.3389	2429.9232	1449.15	566.8
970.4685	2431.2996	1440.85	560.95
970.5981	2432.6753	1442.9	561.5
970.7277	2434.0503	1442.7	562.35
970.8572	2435.4246	1436.35	555.85
970.9867	2436.7982	1435.85	551
971.1161	2438.1711	1431.45	549.65
971.2456	2439.5433	1432.6	551.6
971.375	2440.9148	1437	549.8
971.5043	2442.2856	1430.85	549.65
971.6336	2443.6557	1436.4	553.15
971.7629	2445.025	1429.7	548.55
971.8922	2446.3937	1425.8	542.65
972.0214	2447.7617	1424.25	542.6
972.1506	2449.1289	1428	546.5
972.2798	2450.4955	1426.7	539.7
972.4089	2451.8613	1419.3	540
972.538	2453.2265	1425	542.85
972.6671	2454.5909	1415.3	534.85
972.7961	2455.9546	1424.7	543.2
972.9251	2457.3177	1417.05	536.95
973.0541	2458.68	1417.6	535.85
973.1831	2460.0416	1421	541
973.312	2461.4025	1417.7	536.05
973.4408	2462.7627	1430.2	537.5
973.5697	2464.1222	1422.3	542.55
973.6985	2465.4811	1416.75	531.4
973.8273	2466.8392	1409.55	526.9
973.956	2468.1966	1413.25	527.9
974.0847	2469.5533	1413.7	531.1
974.2134	2470.9093	1412	530.75
974.3421	2472.2645	1406.6	523.7
974.4707	2473.6191	1414.95	533.55
974.5993	2474.973	1410.8	528.45
974.7278	2476.3262	1405.5	523.45
974.8563	2477.6787	1406.3	525.7
974.9848	2479.0305	1402.2	521.1
975.1132	2480.3816	1399.05	516.3
975.2417	2481.7319	1399.6	519.7
975.37	2483.0816	1394.3	510.15
975.4984	2484.4306	1397.8	514.5
975.6267	2485.7789	1398.5	517.9
975.755	2487.1264	1394.95	512.05
975.8833	2488.4733	1393.3	513.35
976.0115	2489.8195	1406.45	508.4
976.1397	2491.165	1395.35	510.3
976.2678	2492.5097	1394.25	511.6
976.3959	2493.8538	1395.6	516.5
976.524	2495.1972	1383	500.95
976.6521	2496.5398	1384.7	502.85
976.7801	2497.8818	1381.35	497.3
976.9081	2499.2231	1384.55	505.6
977.036	2500.5637	1381.55	499
977.164	2501.9035	1383.45	503.25
977.2918	2503.2427	1390.6	503.75
977.4197	2504.5812	1373.8	491.9
977.5475	2505.919	1382.6	499.15
977.6753	2507.256	1371.9	490.6
977.8031	2508.5924	1370.45	486.85
977.9308	2509.9281	1382.55	495.05
978.0585	2511.2631	1366.55	484.95
978.1861	2512.5974	1374.9	492.45
978.3137	2513.9309	1369.3	486.9
978.4413	2515.2638	1394.5	483.5
978.5689	2516.596	1360.6	480.95
978.6964	2517.9275	1367.75	484.25
978.8239	2519.2583	1361.8	480.55
978.9513	2520.5884	1367.7	484.6
979.0788	2521.9178	1368.8	486.05
979.2062	2523.2465	1362.1	479.45
979.3335	2524.5745	1348	467.05
979.4608	2525.9018	1357.4	474.55
979.5881	2527.2284	1351.45	471.6
979.7154	2528.5543	1354.15	473.7
979.8426	2529.8796	1350.95	467.35
979.9698	2531.2041	1357.7	475.75
980.0969	2532.5279	1351.75	470.2
980.224	2533.851	1355.1	473.35
980.3511	2535.1735	1356.55	474.2
980.4781	2536.4952	1348.1	467.2
980.6052	2537.8163	1352.25	467.6
980.7321	2539.1366	1349.7	469.2
980.8591	2540.4562	1346.55	465.2
980.986	2541.7752	1347.45	466.3
981.1129	2543.0935	1349.75	469.05
981.2397	2544.411	1343.55	461.55
981.3665	2545.7279	1341.95	459.5
981.4933	2547.0441	1344.3	462.5
981.62	2548.3596	1350.8	464.9
981.7467	2549.6744	1341.75	461.55
981.8734	2550.9885	1342.1	459.15
982.0001	2552.3019	1337.75	457.25
982.1267	2553.6146	1332.7	451.8
982.2532	2554.9266	1337.3	454.55
982.3798	2556.2379	1330.35	446.55
982.5063	2557.5485	1323.7	443.05
982.6327	2558.8585	1338.5	446.6
982.7592	2560.1677	1340.1	454.8
982.8856	2561.4762	1326.7	445.05
983.0119	2562.7841	1329.25	444.55
983.1383	2564.0913	1326.3	444.55
983.2646	2565.3977	1326.95	444.65
983.3908	2566.7035	1323.3	442.85
983.517	2568.0086	1325.8	443.7
983.6432	2569.313	1321.55	441.1
983.7694	2570.6167	1324	437.85
983.8955	2571.9197	1329.4	447.7
984.0216	2573.222	1323.15	438.1
984.1476	2574.5236	1330.85	448.45
984.2737	2575.8246	1317.95	434.45
984.3996	2577.1248	1328.75	444.75
984.5256	2578.4244	1319.65	438.9
984.6515	2579.7232	1321.65	440.05
984.7774	2581.0214	1350.9	437.65
984.9032	2582.3189	1324.05	443.35
985.029	2583.6157	1330	444.15
985.1548	2584.9118	1326.05	444.3
985.2806	2586.2072	1330.65	448.4
985.4063	2587.5019	1332.75	450.65
985.5319	2588.7959	1333.8	451.7
985.6576	2590.0893	1334.95	452.45
985.7832	2591.3819	1334.4	452.3
985.9087	2592.6739	1337.3	457.9
986.0343	2593.9652	1341.2	458.9
986.1597	2595.2557	1340.6	460.15
986.2852	2596.5456	1346.05	461.25
986.4106	2597.8348	1348.6	468.9
986.536	2599.1234	1337.3	456.5
986.6614	2600.4112	1337.3	455.05
986.7867	2601.6983	1347.2	462.45
986.912	2602.9848	1343.05	462.05
987.0372	2604.2705	1347.15	458.95
987.1624	2605.5556	1342.9	461.35
987.2876	2606.84	1338.6	454.85
987.4128	2608.1237	1343.75	461.8
987.5379	2609.4067	1343	460.35
987.6629	2610.689	1349.25	459.05
987.788	2611.9707	1341.8	456.6
987.913	2613.2516	1338.25	450.7
988.0379	2614.5319	1336.85	455.8
988.1629	2615.8115	1327.15	444.65
988.2878	2617.0903	1330.85	447.25
988.4126	2618.3685	1334.45	451.75
988.5375	2619.6461	1333.25	453.25
988.6622	2620.9229	1334.8	452.4
988.787	2622.199	1331.6	446.95
988.9117	2623.4745	1334.6	453.75
989.0364	2624.7493	1327.9	446.95
989.161	2626.0234	1326.25	447.1
989.2857	2627.2968	1336.25	453.4
989.4102	2628.5695	1340.85	456.2
989.5348	2629.8415	1325.7	443
989.6593	2631.1128	1333.2	449.05
989.7837	2632.3835	1324	442
989.9082	2633.6535	1327.45	445.85
990.0326	2634.9228	1330.85	449.6
990.1569	2636.1914	1331.2	449.5
990.2812	2637.4593	1334.3	450.7
990.4055	2638.7265	1331.85	447.4
990.5298	2639.9931	1327.5	446.75
990.654	2641.259	1328.3	444.05
990.7782	2642.5242	1334.5	451.55
990.9023	2643.7887	1326.3	445.6
991.0264	2645.0525	1331.4	449
991.1505	2646.3156	1329.35	447.45
991.2745	2647.5781	1320.45	440.15
991.3985	2648.8398	1317	436.75
991.5225	2650.1009	1324.45	433.5
991.6464	2651.3613	1316.15	435.2
991.7703	2652.6211	1320.1	437.5
991.8942	2653.8801	1313.8	432.65
992.018	2655.1385	1321.8	435.5
992.1418	2656.3961	1315.55	432.35
992.2655	2657.6531	1315.4	432.8
992.3892	2658.9094	1322.45	439.8
992.5129	2660.1651	1315.95	435.05
992.6366	2661.42	1319.05	435.65
992.7602	2662.6743	1323.6	440.65
992.8837	2663.9279	1321.75	441.4
993.0073	2665.1808	1321.4	438.55
993.1307	2666.433	1329.35	445.25
993.2542	2667.6846	1323.15	440.95
993.3776	2668.9354	1333.95	451.4
993.501	2670.1856	1336.85	453.2
993.6244	2671.4351	1330.45	449.45
993.7477	2672.6839	1337.55	455.05
993.8709	2673.9321	1340.2	457
993.9942	2675.1795	1344.1	461.5
994.1174	2676.4263	1340.6	458.7
994.2405	2677.6724	1344.4	463.05
994.3637	2678.9179	1349.3	465.9
994.4868	2680.1626	1350.05	468.15
994.6098	2681.4067	1352	468.9
994.7328	2682.6501	1348.05	466.1
994.8558	2683.8928	1349.5	467.7
994.9788	2685.1348	1343.95	463.65
995.1017	2686.3761	1340.8	457.3
995.2245	2687.6168	1343.5	461.65
995.3474	2688.8568	1335.85	453.55
995.4702	2690.0961	1331.05	449.2
995.5929	2691.3348	1328.6	447
995.7156	2692.5727	1331	446.9
995.8383	2693.81	1329.3	446.45
995.961	2695.0466	1318.6	437.35
996.0836	2696.2826	1328.4	444.7
996.2062	2697.5178	1322.35	437.05
996.3287	2698.7524	1324.4	440.95
996.4512	2699.9863	1330.2	449.15
996.5737	2701.2195	1328.55	446.1
996.6961	2702.452	1333.15	450.35
996.8185	2703.6839	1338.4	456.8
996.9408	2704.9151	1340.5	459.35
997.0631	2706.1456	1345.1	462.65
997.1854	2707.3755	1362.45	479.85
997.3077	2708.6046	1365.7	481.6
997.4299	2709.8331	1368.5	486.55
997.552	2711.0609	1374.35	492.1
997.6742	2712.2881	1388.35	506.45
997.7963	2713.5145	1395.85	510.85
997.9183	2714.7403	1406.55	524.6
998.0403	2715.9654	1420.2	539.85
998.1623	2717.1899	1440.85	544.9
998.2842	2718.4136	1437.65	556.8
998.4062	2719.6367	1451.8	570.9
998.528	2720.8591	1468	579.55
998.6498	2722.0809	1474	591.35
998.7716	2723.3019	1484.9	598.6
998.8934	2724.5223	1497.45	615
999.0151	2725.7421	1505.6	623.05
999.1368	2726.9611	1501.5	617.3
999.2584	2728.1795	1500.75	615.6
999.38	2729.3972	1493.3	613.5
999.5016	2730.6142	1490.65	596.4
999.6231	2731.8306	1471.2	588.5
999.7446	2733.0462	1457.75	574
999.8661	2734.2612	1443.3	556
999.9875	2735.4756	1423.9	541.1
1000.1089	2736.6892	1407.75	524.85
1000.2302	2737.9022	1389.35	509.2
1000.3515	2739.1145	1381.2	499.15
1000.4728	2740.3262	1372.6	483.6
1000.594	2741.5372	1349.55	467.7
1000.7152	2742.7475	1348.25	465.95
1000.8363	2743.9571	1334.4	452.9
1000.9575	2745.1661	1330.65	444.05
1001.0785	2746.3744	1318.75	435.2
1001.1996	2747.582	1311.6	430.1
1001.3206	2748.7889	1304.05	421
1001.4415	2749.9952	1294.8	413.5
1001.5625	2751.2008	1280.85	398.35
1001.6833	2752.4057	1293.55	407
1001.8042	2753.61	1285.55	400.25
1001.925	2754.8136	1287.65	401.6
1002.0458	2756.0165	1284.75	404.2
1002.1665	2757.2188	1275.3	392.65
1002.2872	2758.4204	1284.25	405.45
1002.4078	2759.6213	1285.95	402.25
1002.5285	2760.8215	1291.6	403.1
1002.649	2762.0211	1286.35	403.15
1002.7696	2763.22	1279.85	393.3
1002.8901	2764.4182	1276.15	392.95
1003.0106	2765.6158	1269.4	388.6
1003.131	2766.8127	1273.35	391.05
1003.2514	2768.009	1280.35	399.55
1003.3717	2769.2045	1275.7	391.65
1003.492	2770.3994	1269.45	384.35
1003.6123	2771.5936	1265.9	383.4
1003.7325	2772.7872	1268.95	388
1003.8527	2773.9801	1267.15	383.9
1003.9729	2775.1723	1287.35	388.95
1004.093	2776.3639	1266.3	385.9
1004.2131	2777.5548	1263.25	377.95
1004.3331	2778.745	1267.95	384.2
1004.4531	2779.9346	1272.2	390.75
1004.5731	2781.1235	1273.15	388.8
1004.693	2782.3117	1281	400
1004.8129	2783.4992	1290.2	409.3
1004.9328	2784.6861	1290	407.6
1005.0526	2785.8723	1294.4	410
1005.1723	2787.0579	1299.6	416.9
1005.2921	2788.2428	1313.15	427.5
1005.4118	2789.427	1324.55	442.8
1005.5314	2790.6106	1333.95	450.85
1005.651	2791.7935	1348.1	463.45
1005.7706	2792.9757	1358.9	478.75
1005.8902	2794.1573	1372.35	488.5
1006.0097	2795.3382	1390.3	510.35
1006.1291	2796.5184	1400.4	518.55
1006.2485	2797.698	1424.2	541.55
1006.3679	2798.8769	1442.7	560.85
1006.4873	2800.0551	1452.65	570.5
1006.6066	2801.2327	1474.55	590.15
1006.7258	2802.4096	1491.6	609.95
1006.8451	2803.5859	1518.4	636.2
1006.9642	2804.7615	1543.9	661.65
1007.0834	2805.9364	1573.25	689.8
1007.2025	2807.1106	1596.15	716.05
1007.3216	2808.2842	1631.6	747.85
1007.4406	2809.4572	1665.55	781.4
1007.5596	2810.6294	1698.65	817.85
1007.6785	2811.801	1741.2	856.8
1007.7975	2812.972	1783	903.4
1007.9163	2814.1423	1831.15	947.5
1008.0352	2815.3119	1878.25	998.8
1008.154	2816.4808	1921.3	1040.4
1008.2727	2817.6491	1981	1096.2
1008.3914	2818.8167	2033.05	1153.15
1008.5101	2819.9837	2087.05	1199.1
1008.6288	2821.15	2127.35	1244.6
1008.7474	2822.3157	2171.5	1292.6
1008.8659	2823.4807	2225.6	1340.5
1008.9844	2824.645	2255.75	1372.9
1009.1029	2825.8086	2295.25	1412.55
1009.2214	2826.9716	2345.35	1464.1
1009.3398	2828.134	2384.05	1503
1009.4581	2829.2957	2423	1540
1009.5764	2830.4567	2436	1557.2
1009.6947	2831.617	2449.35	1567.55
1009.813	2832.7767	2469.35	1587.55
1009.9312	2833.9358	2468.75	1586.9
1010.0493	2835.0941	2462.3	1578.65
1010.1675	2836.2519	2449.7	1566.5
1010.2855	2837.4089	2432.55	1550
1010.4036	2838.5653	2431	1546.95
1010.5216	2839.7211	2429.25	1549.45
1010.6396	2840.8761	2442.2	1557.75
1010.7575	2842.0306	2462	1580.25
1010.8754	2843.1843	2503.2	1624.05
1010.9932	2844.3374	2546.9	1665.6
1011.111	2845.4899	2617.6	1734.45
1011.2288	2846.6417	2690.55	1809
1011.3465	2847.7928	2778.4	1896.25
1011.4642	2848.9433	2852.9	1971.9
1011.5818	2850.0931	2930.95	2050.15
1011.6995	2851.2422	3024.35	2141.6
1011.817	2852.3907	3081.95	2198.1
1011.9345	2853.5385	3157.05	2271.4
1012.052	2854.6857	3218.7	2309.4
1012.1695	2855.8323	3271.95	2387.6
1012.2869	2856.9781	3321.35	2438.3
1012.4042	2858.1233	3373.55	2490.2
1012.5216	2859.2679	3417.9	2534.55
1012.6389	2860.4118	3466.3	2583.75
1012.7561	2861.555	3522.95	2637.35
1012.8733	2862.6976	3552.2	2667.75
1012.9905	2863.8395	3575.7	2695.8
1013.1076	2864.9808	3595.9	2714.15
1013.2247	2866.1214	3611	2730.95
1013.3417	2867.2614	3619.75	2737
1013.4587	2868.4007	3636.05	2750.3
1013.5757	2869.5393	3658.05	2773.4
1013.6926	2870.6773	3672.05	2783.55
1013.8095	2871.8146	3676.45	2790.85
1013.9263	2872.9513	3676.65	2792.15
1014.0431	2874.0874	3685.9	2803.5
1014.1599	2875.2227	3657.65	2776.3
1014.2766	2876.3574	3665.35	2783.75
1014.3933	2877.4915	3639.85	2760.75
1014.51	2878.6249	3611.15	2728.3
1014.6266	2879.7577	3583.05	2701.3
1014.7431	2880.8898	3576.6	2684.95
1014.8596	2882.0212	3544.25	2662.5
1014.9761	2883.152	3537.2	2654.15
1015.0925	2884.2821	3537.35	2657.1
1015.2089	2885.4116	3521.05	2639.9
1015.3253	2886.5405	3515.55	2635.05
1015.4416	2887.6686	3532.05	2644.3
1015.5579	2888.7962	3532.6	2652.45
1015.6741	2889.923	3529.75	2649.25
1015.7903	2891.0493	3550.75	2667.65
1015.9065	2892.1748	3567.25	2685.85
1016.0226	2893.2997	3578.2	2695.1
1016.1387	2894.424	3599	2718.9
1016.2547	2895.5476	3608.35	2725.55
1016.3707	2896.6706	3630.05	2750.55
1016.4866	2897.7929	3661.8	2778
1016.6025	2898.9145	3700.2	2818.3
1016.7184	2900.0355	3718.35	2836.15
1016.8342	2901.1559	3764.2	2880.5
1016.95	2902.2756	3796.25	2914.35
1017.0658	2903.3946	3831.65	2949.35
1017.1815	2904.513	3845.4	2960.3
1017.2971	2905.6308	3877.9	2997.9
1017.4127	2906.7479	3917.2	3034.95
1017.5283	2907.8643	3942.05	3059.75
1017.6439	2908.9801	3945.45	3064.6
1017.7594	2910.0953	3965.05	3081.1
1017.8748	2911.2098	3968.9	3084.4
1017.9902	2912.3236	3964.15	3072.7
1018.1056	2913.4368	3962.3	3077.15
1018.2209	2914.5494	3933.85	3052.3
1018.3362	2915.6613	3911.45	3023.45
1018.4515	2916.7725	3877	2991.6
1018.5667	2917.8831	3855.9	2974.6
1018.6819	2918.9931	3813.2	2927.5
1018.797	2920.1024	3786.7	2905.1
1018.9121	2921.211	3778.2	2896
1019.0271	2922.319	3750.8	2869.25
1019.1421	2923.4264	3734.5	2853.2
1019.2571	2924.5331	3725.35	2846.6
1019.372	2925.6391	3719.1	2840
1019.4869	2926.7445	3702.4	2821.4
1019.6017	2927.8493	3693.5	2811.2
1019.7165	2928.9534	3681.5	2798.1
1019.8313	2930.0569	3686.45	2800.5
1019.946	2931.1597	3668.7	2784.35
1020.0606	2932.2619	3654.45	2772.65
1020.1753	2933.3634	3638.2	2754.5
1020.2899	2934.4643	3645.25	2753.2
1020.4044	2935.5645	3621.65	2733.5
1020.5189	2936.6641	3579.75	2693.25
1020.6334	2937.763	3545.45	2664.3
1020.7478	2938.8613	3483.7	2601.05
1020.8622	2939.959	3427.85	2543.3
1020.9765	2941.056	3337	2456.7
1021.0908	2942.1523	3249.8	2365.15
1021.2051	2943.248	3164.35	2281.15
1021.3193	2944.3431	3083.85	2204.15
1021.4334	2945.4375	2972.6	2089.45
1021.5476	2946.5313	2864.85	1983.9
1021.6617	2947.6244	2760.65	1878.65
1021.7757	2948.7169	2663.6	1782.45
1021.8897	2949.8087	2561.75	1681.15
1022.0037	2950.8999	2477.6	1597.1
1022.1176	2951.9904	2385.7	1503.7
1022.2315	2953.0803	2328.6	1445.9
1022.3453	2954.1696	2249.35	1366.7
1022.4591	2955.2582	2195.15	1314.4
1022.5728	2956.3462	2154.5	1272.9
1022.6865	2957.4335	2114.6	1230.85
1022.8002	2958.5202	2088.5	1204.15
1022.9138	2959.6062	2049.2	1168.95
1023.0274	2960.6916	2035.3	1153.55
1023.141	2961.7764	2001.1	1119.05
1023.2545	2962.8605	1983.7	1100.8
1023.3679	2963.9439	1981.05	1099.45
1023.4813	2965.0267	1963.15	1080.85
1023.5947	2966.1089	1984.8	1078.05
1023.708	2967.1905	1964.4	1084.5
1023.8213	2968.2714	1951.2	1069.3
1023.9346	2969.3516	1950.5	1068.9
1024.0478	2970.4312	1968.75	1080.95
1024.1609	2971.5102	1969.85	1088.2
1024.274	2972.5885	1964.5	1083.55
1024.3871	2973.6662	1963.7	1075.5
1024.5002	2974.7432	1959.6	1077.9
1024.6132	2975.8196	1946.65	1063.05
1024.7261	2976.8954	1947.1	1064.6
1024.839	2977.9705	1924.45	1042.6
1024.9519	2979.045	1918.15	1036.05
1025.0647	2980.1188	1889.4	1005.8
1025.1775	2981.192	1885.3	1004.9
1025.2902	2982.2645	1856	971.95
1025.4029	2983.3364	1837.7	957.3
1025.5156	2984.4077	1810.6	929.15
1025.6282	2985.4783	1771.9	884.25
1025.7407	2986.5483	1742.5	863.8
1025.8532	2987.6177	1711	829.3
1025.9657	2988.6864	1670.2	788.2
1026.0782	2989.7545	1631.5	748.1
1026.1906	2990.8219	1604.95	722.95
1026.3029	2991.8887	1567.6	681.4
1026.4152	2992.9548	1544.7	663.15
1026.5275	2994.0204	1509.05	627.8
1026.6397	2995.0852	1482.3	601.85
1026.7519	2996.1495	1459.85	575
1026.864	2997.2131	1438.1	557.3
1026.9761	2998.276	1416.85	534.45
1027.0882	2999.3383	1398.75	516.55
1027.2002	3000.4	1376.95	495.1
1027.3122	3001.4611	1371	488.5
1027.4241	3002.5215	1349.05	467.4
1027.536	3003.5812	1337.95	456.35
1027.6478	3004.6404	1329.75	448.15
1027.7596	3005.6989	1320.55	439.1
1027.8714	3006.7567	1303.95	421.6
1027.9831	3007.8139	1317.9	417.25
1028.0947	3008.8705	1300.3	420.35
1028.2064	3009.9264	1294.6	409.7
1028.3179	3010.9818	1288.6	404.7
1028.4295	3012.0364	1289.2	406.5
1028.541	3013.0905	1288.05	405.5
1028.6524	3014.1439	1287.5	404.9
1028.7638	3015.1966	1283.6	402.35
1028.8752	3016.2487	1282.65	401.55
1028.9865	3017.3002	1283.35	397.55
1029.0978	3018.3511	1281.75	401.95
1029.209	3019.4013	1282.3	401.4
1029.3202	3020.4509	1276.05	394.4
1029.4314	3021.4998	1287.35	406.9
1029.5425	3022.5481	1283.55	401.2
1029.6535	3023.5958	1284.8	405.15
1029.7645	3024.6428	1290.25	406.7
1029.8755	3025.6892	1289.2	407.1
1029.9864	3026.735	1286.6	404.6
1030.0973	3027.7802	1294.9	412.75
1030.2082	3028.8247	1296.95	415.1
1030.319	3029.8685	1301.65	420.65
1030.4297	3030.9118	1313.2	431.35
1030.5404	3031.9544	1310	430.1
1030.6511	3032.9963	1317.3	436
1030.7617	3034.0376	1316.6	436.05
1030.8723	3035.0783	1329.6	446.65
1030.9829	3036.1184	1334.05	451
1031.0934	3037.1578	1333.05	452.9
1031.2038	3038.1966	1331.6	447.5
1031.3142	3039.2348	1334.25	453.55
1031.4246	3040.2723	1350.95	459.25
1031.5349	3041.3092	1333.7	453.5
1031.6452	3042.3455	1334.7	453.05
1031.7554	3043.3811	1329.7	448.1
1031.8656	3044.4161	1320.95	439.9
1031.9758	3045.4505	1325.15	444.05
1032.0859	3046.4842	1318.25	434.3
1032.1959	3047.5173	1310.65	430.05
1032.3059	3048.5498	1302.2	420.7
1032.4159	3049.5816	1296.55	414.45
1032.5258	3050.6128	1287.25	405.25
1032.6357	3051.6434	1288.75	405.25
1032.7455	3052.6734	1278	397.55
1032.8553	3053.7027	1271.55	391.3
1032.9651	3054.7314	1263.35	382.6
1033.0748	3055.7594	1260.6	380.55
1033.1845	3056.7868	1256.85	372.5
1033.2941	3057.8136	1248.1	366.05
1033.4037	3058.8398	1243.5	362.15
1033.5132	3059.8653	1231.85	350.75
1033.6227	3060.8902	1231.05	349
1033.7321	3061.9145	1226.2	344.85
1033.8415	3062.9381	1221.45	340.6
1033.9509	3063.9612	1230.4	333.2
1034.0602	3064.9835	1214.7	333.95
1034.1694	3066.0053	1207.1	325.25
1034.2787	3067.0264	1196.4	315.95
1034.3878	3068.0469	1190.7	309.6
1034.497	3069.0668	1183.2	301.6
1034.6061	3070.086	1173.6	291.3
1034.7151	3071.1046	1161.45	275.8
1034.8241	3072.1226	1152.7	268.1
1034.9331	3073.1399	1146.3	266.65
1035.042	3074.1567	1137.2	253.65
1035.1508	3075.1727	1133.75	251.2
1035.2597	3076.1882	1120.85	239.35
1035.3684	3077.203	1107.25	226.55
1035.4772	3078.2173	1109.25	225.65
1035.5859	3079.2308	1097.45	212.45
1035.6945	3080.2438	1097.75	212.8
1035.8031	3081.2561	1081.3	198.2
1035.9117	3082.2678	1072.7	191.15
1036.0202	3083.2789	1074.3	192.25
1036.1286	3084.2893	1064.2	185.2
1036.2371	3085.2991	1059.55	175.45
1036.3454	3086.3083	1054.95	169.75
1036.4538	3087.3169	1047.7	164.95
1036.562	3088.3248	1046.25	165.05
1036.6703	3089.3321	1038.65	155.4
1036.7785	3090.3388	1031.05	151.2
1036.8866	3091.3449	1030.75	149.95
1036.9948	3092.3503	1030.85	146.25
1037.1028	3093.3551	1022.15	142.95
1037.2108	3094.3593	1019.45	137.1
1037.3188	3095.3629	1019	138.7
1037.4267	3096.3658	1016.6	134.65
1037.5346	3097.3681	1010.3	131.2
1037.6425	3098.3698	1016	133.4
1037.7503	3099.3708	1011	125.15
1037.858	3100.3713	1004.2	124.7
1037.9657	3101.3711	1004.1	121.75
1038.0734	3102.3702	1142.05	123.1
1038.181	3103.3688	1004.25	121.95
1038.2886	3104.3667	997.75	117.75
1038.3961	3105.364	995.6	113.25
1038.5036	3106.3607	996.2	112.3
1038.611	3107.3568	993.7	110.95
1038.7184	3108.3522	991.3	110
1038.8257	3109.347	994.5	112.85
1038.933	3110.3412	992.45	108.2
1039.0403	3111.3348	992.45	111.75
1039.1475	3112.3277	986.15	105.9
1039.2547	3113.32	984.15	101.65
1039.3618	3114.3117	988.45	107.55
1039.4689	3115.3028	984	104.3
1039.5759	3116.2932	986.7	102.75
1039.6829	3117.2831	986.8	99.9
1039.7898	3118.2723	982.85	102.65
1039.8967	3119.2608	983.2	101.75
1040.0035	3120.2488	977.45	95.3
1040.1103	3121.2361	983.45	101.2
1040.2171	3122.2229	979.35	99.85
1040.3238	3123.209	980.25	99.5
1040.4305	3124.1944	976.85	95.9
1040.5371	3125.1793	977.6	93.1
1040.6437	3126.1635	975.4	96
1040.7502	3127.1471	973.6	91.35
1040.8567	3128.1301	969.8	88.5
1040.9631	3129.1125	970.2	88.5
1041.0695	3130.0942	974.15	90.85
1041.1759	3131.0753	977.1	88.35
1041.2822	3132.0558	972.95	90.6
1041.3884	3133.0357	966.8	84.5
1041.4946	3134.015	967.8	85.6
1041.6008	3134.9936	969.15	88.6
1041.7069	3135.9716	986.9	84.05
1041.813	3136.949	963.45	83.1
1041.919	3137.9258	981.4	82.8
1042.025	3138.902	967.1	81.4
1042.1309	3139.8775	961.85	83.5
1042.2368	3140.8524	961.95	80
1042.3427	3141.8267	965.45	82.55
1042.4485	3142.8004	959.4	74.3
1042.5542	3143.7735	964.5	77.8
1042.6599	3144.7459	959.7	78.15
1042.7656	3145.7178	959.75	78.7
1042.8712	3146.689	956.1	78.1
1042.9768	3147.6596	960.3	76.65
1043.0823	3148.6295	957.8	76.55
1043.1878	3149.5989	955	73.6
1043.2932	3150.5676	954.2	74.35
1043.3986	3151.5357	948.85	68.7
1043.5039	3152.5032	950.6	68
1043.6092	3153.4701	949.35	68.3
1043.7145	3154.4364	952.55	68.5
1043.8197	3155.402	948.35	67
1043.9248	3156.367	949.9	68.8
1044.03	3157.3315	989.9	67.95
1044.135	3158.2952	947.3	67.95
1044.24	3159.2584	947.6	67.7
1044.345	3160.221	950.45	68.4
1044.4499	3161.1829	948.05	67.7
1044.5548	3162.1442	943.2	59.85
1044.6596	3163.105	944.45	61.3
1044.7644	3164.065	943.4	61.5
1044.8692	3165.0245	944.6	58.55
1044.9739	3165.9834	940.15	61.3
1045.0785	3166.9416	944	63.1
1045.1831	3167.8993	941.8	59.7
1045.2877	3168.8563	940.5	60.65
1045.3922	3169.8127	939.85	59.3
1045.4966	3170.7684	940.55	60.35
1045.6011	3171.7236	944.2	61.95
1045.7054	3172.6782	939.55	60
1045.8098	3173.6321	938.45	57.35
1045.914	3174.5854	942.05	55.9
1046.0183	3175.5381	938.35	57.5
1046.1224	3176.4902	937.9	57.5
1046.2266	3177.4417	935.65	54.9
1046.3307	3178.3926	938.4	59.05
1046.4347	3179.3428	938.2	57.4
1046.5387	3180.2924	937.7	58.45
1046.6427	3181.2415	939.15	58.1
1046.7466	3182.1899	936.8	52.95
1046.8504	3183.1377	938	59.15
1046.9542	3184.0848	939.15	54.55
1047.058	3185.0314	934.5	52.85
1047.1617	3185.9773	935.1	53.5
1047.2654	3186.9227	938.25	54.4
1047.369	3187.8674	934.5	54.45
1047.4726	3188.8115	940.45	56.3
1047.5761	3189.755	932.1	52.6
1047.6796	3190.6979	932.75	51.95
1047.783	3191.6402	931.65	52.25
1047.8864	3192.5818	930.6	50.6
1047.9898	3193.5229	950	48.15
1048.0931	3194.4633	931.2	50.5
1048.1963	3195.4031	933.75	51.8
1048.2995	3196.3423	932.65	53.7
1048.4027	3197.2809	934	52.65
1048.5058	3198.2189	931.8	48.25
1048.6089	3199.1563	947.6	48.95
1048.7119	3200.0931	931.7	50.75
1048.8148	3201.0292	926.05	43.95
1048.9178	3201.9648	928.5	46.95
1049.0206	3202.8997	931	46.65
1049.1235	3203.834	929.85	48.95
1049.2262	3204.7677	929.9	50.3
1049.329	3205.7008	930.3	45.45
1049.4317	3206.6333	924.55	47.3
1049.5343	3207.5652	930.35	48.4
1049.6369	3208.4964	925.85	44.45
1049.7394	3209.4271	924.45	43.65
1049.8419	3210.3571	925.9	45.9
1049.9444	3211.2865	927.2	46.3
1050.0468	3212.2154	927.3	46.4
1050.1491	3213.1436	928	43.5
1050.2514	3214.0712	934.2	46.2
1050.3537	3214.9982	927.45	45.65
1050.4559	3215.9246	925.85	44.75
1050.5581	3216.8503	924.05	43.3
1050.6602	3217.7755	923.3	42.35
1050.7623	3218.7001	925	45.2
1050.8643	3219.624	922	39.55
1050.9663	3220.5473	922.1	42.7
1051.0682	3221.4701	926.35	44.75
1051.1701	3222.3922	927.15	43.95
1051.2719	3223.3137	924.15	44.75
1051.3737	3224.2346	922.35	41.3
1051.4754	3225.1549	923.35	43.35
1051.5771	3226.0746	922.7	43.2
1051.6788	3226.9937	923.85	41.65
1051.7804	3227.9121	921.8	43.6
1051.8819	3228.83	921.8	41.35
1051.9834	3229.7473	926.2	45.4
1052.0849	3230.6639	922.55	42.7
1052.1863	3231.5799	922.6	40.6
1052.2876	3232.4954	922.8	40.05
1052.3889	3233.4102	921.6	41.5
1052.4902	3234.3244	922	39.3
1052.5914	3235.238	918.7	40.95
1052.6926	3236.151	944.2	39.2
1052.7937	3237.0634	919.85	40.65
1052.8948	3237.9752	920.45	40.75
1052.9958	3238.8864	922.85	41.1
1053.0968	3239.797	918.9	36.55
1053.1977	3240.7069	917.25	35.45
1053.2986	3241.6163	920	37.8
1053.3994	3242.5251	921.1	41.15
1053.5002	3243.4332	919.25	38.55
1053.6009	3244.3408	918.2	37.9
1053.7016	3245.2477	915.7	33.6
1053.8022	3246.154	918.45	37.45
1053.9028	3247.0598	917.6	37.7
1054.0034	3247.9649	918.45	37.1
1054.1039	3248.8694	915.9	36.4
1054.2043	3249.7733	915.45	34.2
1054.3047	3250.6766	914.95	35.85
1054.4051	3251.5793	917.65	37
1054.5054	3252.4814	916.05	33.45
1054.6056	3253.3829	913.4	35.5
1054.7058	3254.2838	914.05	33.5
1054.806	3255.1841	916.65	35.8
1054.9061	3256.0838	913.7	34.2
1055.0061	3256.9829	910.3	31.4
1055.1062	3257.8814	914.8	31.35
1055.2061	3258.7792	912.15	30.05
1055.306	3259.6765	913	31.8
1055.4059	3260.5731	911.5	33.3
1055.5057	3261.4692	912.75	29.25
1055.6055	3262.3647	909.65	29.55
1055.7052	3263.2595	909.75	29.15
1055.8049	3264.1538	907.85	29.15
1055.9045	3265.0474	910.65	29.2
1056.0041	3265.9404	906.8	26.55
1056.1036	3266.8329	906.55	28.1
1056.2031	3267.7247	918.25	27.9
1056.3025	3268.616	904.45	24.8
1056.4019	3269.5066	906.45	27.95
1056.5013	3270.3966	907.5	26.55
1056.6005	3271.286	903.6	25.9
