Software Version:	3.9.2.0
Unit SN:	10000200
Spectrometer SN:	6960
Date:	3/14/2024 1:52:51 PM
Data Line Index:	25
Spectral Points:	2048
Integration time (ms):	125
Averages:	20
Delay (ms):	30000
Sequence Number:	1
Processing:	dark subtract
Laser Power (mW):	300
Laser Current (mA):	825
Laser Diode Temp (C):	25.1
Laser Case Temp (C):	28.9
System Temp (C):	28.9
Spectrometer Temp (C):	26.7
CCD Temp (C):	0.01
Secondary Temp (C):	20.013
Heatsink Temp (C):	24.789
CCDPCB Temp (C):	38.319
SecondaryPCB Temp (C):	35.929

Wavelength	RamanShift	Raw Counts	Dark Subtracted
787.061	30.1047	464.35	54.6
787.2016	32.3739	466.95	59.4
787.3422	34.6426	470	60.2
787.4828	36.9109	478.8	66.25
787.6235	39.1787	486.2	68.95
787.7642	41.4461	499.15	77.5
787.9049	43.7131	510.7	87
788.0456	45.9796	515.3	88.7
788.1863	48.2456	526.65	95.45
788.3271	50.5112	538.55	103.8
788.4679	52.7764	542.7	103.3
788.6087	55.0411	556.1	114.65
788.7496	57.3054	566.8	117.85
788.8904	59.5692	581.3	131.1
789.0313	61.8326	592	137.85
789.1722	64.0955	608.3	147.65
789.3132	66.3579	625.7	162.2
789.4541	68.6199	645.35	179
789.5951	70.8815	682	213.7
789.7361	73.1426	760	288.7
789.8771	75.4032	968.05	491
790.0181	77.6634	1476	992.9
790.1592	79.9231	2695.8	2206
790.3003	82.1824	5355.55	4856.15
790.4414	84.4412	10296.8	9781.5
790.5825	86.6995	17324.3	16787.9
790.7237	88.9574	24300.7	23740.45
790.8648	91.2148	29310.15	28738.45
791.006	93.4717	31779.9	31200.2
791.1472	95.7282	32384.75	31800.85
791.2885	97.9842	32398.65	31815.4
791.4297	100.2398	31927.6	31334.3
791.571	102.4949	31370.2	30774.85
791.7123	104.7495	30677	30078.35
791.8536	107.0036	29805.45	29205.2
791.9949	109.2573	29020	28423.8
792.1363	111.5105	28270.8	27672.1
792.2777	113.7632	27508.1	26905.1
792.4191	116.0154	26854.45	26243.5
792.5605	118.2672	26380.2	25775.3
792.7019	120.5185	25891.5	25286.2
792.8434	122.7693	25487.85	24880.55
792.9849	125.0197	25194.35	24582.55
793.1264	127.2696	24908.4	24295.1
793.2679	129.519	24752.55	24136.5
793.4094	131.7679	24576.15	23956.85
793.551	134.0163	24398.75	23775
793.6926	136.2642	24235.9	23607.35
793.8342	138.5117	24016.2	23378.65
793.9758	140.7587	23778.95	23149.6
794.1175	143.0052	23600.15	22962.25
794.2591	145.2512	23336.5	22702.35
794.4008	147.4967	23127.05	22492.35
794.5425	149.7417	22972.2	22333.3
794.6842	151.9863	22837.65	22195.45
794.826	154.2304	22809.15	22166.05
794.9677	156.4739	22617.05	21965.75
795.1095	158.717	22517.75	21868.85
795.2513	160.9596	22388.8	21734.95
795.3931	163.2017	22098.75	21446.8
795.535	165.4433	21807.1	21150.05
795.6768	167.6844	21452.75	20794.65
795.8187	169.925	21133.9	20469.85
795.9606	172.1651	20689.25	20023.6
796.1025	174.4047	20379.6	19711.5
796.2445	176.6439	20098.65	19428.9
796.3864	178.8825	19831.7	19158.5
796.5284	181.1206	19653.1	18977.2
796.6704	183.3582	19490.95	18809.85
796.8124	185.5954	19340.25	18659.15
796.9544	187.832	19282.95	18596.2
797.0965	190.0681	19197	18510.95
797.2386	192.3037	19180.05	18489.65
797.3806	194.5388	19136.7	18441.5
797.5228	196.7734	19211.1	18514.95
797.6649	199.0075	19276.3	18580.95
797.807	201.2411	19401.65	18700.05
797.9492	203.4742	19462.1	18761.8
798.0914	205.7068	19609.35	18908.55
798.2336	207.9389	19692.8	18990.3
798.3758	210.1704	19830.45	19124.8
798.518	212.4015	19940.75	19231.65
798.6603	214.632	20107.4	19399.35
798.8025	216.862	20290.5	19589.4
798.9448	219.0915	20419.25	19724.7
799.0871	221.3205	20680.6	19989.05
799.2294	223.549	20935.05	20249.05
799.3718	225.777	21233.45	20551.05
799.5141	228.0044	21622.75	20933.85
799.6565	230.2314	22181.55	21495.15
799.7989	232.4578	22575.65	21886.4
799.9413	234.6837	23006.85	22311.55
800.0837	236.909	23216.85	22518.9
800.2262	239.1339	23193.7	22471.95
800.3687	241.3582	22886.55	22179.65
800.5111	243.582	22528.65	21795.65
800.6536	245.8053	22134.05	21405.7
800.7961	248.0281	21734.7	21011.05
800.9387	250.2503	21465.05	20740.4
801.0812	252.472	21312.3	20581.85
801.2238	254.6932	21226.25	20494.55
801.3664	256.9139	21109.2	20372.55
801.509	259.134	21051.6	20316.1
801.6516	261.3536	21002.9	20269.35
801.7942	263.5727	21091.65	20353.8
801.9369	265.7912	20923.75	20190.15
802.0795	268.0092	20952.55	20215.4
802.2222	270.2267	20875.15	20138.25
802.3649	272.4436	20842.4	20102.6
802.5076	274.6601	20747.65	20000.5
802.6504	276.8759	20614.45	19870.9
802.7931	279.0913	20628.05	19884.25
802.9359	281.3061	20569.85	19824.55
803.0787	283.5204	20667	19918.8
803.2215	285.7341	20715.1	19966.4
803.3643	287.9473	20916.45	20151.2
803.5071	290.16	21152	20394.25
803.6499	292.3721	21463.3	20712.45
803.7928	294.5837	21946.25	21193.4
803.9357	296.7947	22302.55	21549.15
804.0786	299.0052	22477.15	21720.8
804.2215	301.2152	22298.15	21544.6
804.3644	303.4246	21927.05	21175.65
804.5074	305.6334	21292	20541
804.6503	307.8418	20694.6	19938.35
804.7933	310.0495	20264	19509.4
804.9363	312.2568	19904.4	19149.55
805.0793	314.4635	19664.2	18907.75
805.2223	316.6696	19586.9	18827.65
805.3653	318.8752	19551.35	18783.35
805.5084	321.0802	19595.7	18836.7
805.6514	323.2847	19681.4	18917.4
805.7945	325.4887	19754.9	18995.95
805.9376	327.692	19694.9	18932.35
806.0807	329.8949	19546	18781.25
806.2238	332.0972	19265.45	18500.25
806.367	334.2989	18956.4	18185.7
806.5101	336.5001	18651.3	17880.5
806.6533	338.7007	18451.4	17683.7
806.7965	340.9008	18293.25	17522.55
806.9397	343.1003	18182.1	17408.95
807.0829	345.2992	18090.15	17316.95
807.2261	347.4976	18082.4	17307.65
807.3693	349.6955	18056.5	17278.45
807.5126	351.8927	18113.15	17332.5
807.6559	354.0895	18116.25	17328.2
807.7991	356.2856	18130.3	17347.7
807.9424	358.4812	18107.45	17326.7
808.0857	360.6763	18125.35	17343.15
808.2291	362.8707	18074.7	17291.5
808.3724	365.0646	18115	17331.65
808.5158	367.258	18081.35	17291.7
808.6591	369.4508	18107.6	17315.2
808.8025	371.643	18195.05	17402.85
808.9459	373.8346	18117.9	17323.4
809.0893	376.0257	18084.1	17287.9
809.2327	378.2162	18004.55	17208.7
809.3762	380.4062	17842.15	17041.85
809.5196	382.5956	17689.35	16888.8
809.6631	384.7844	17579.5	16780.05
809.8066	386.9726	17439.45	16637.95
809.9501	389.1603	17392.45	16592.7
810.0936	391.3474	17344.7	16514.4
810.2371	393.5339	17292.9	16492.9
810.3806	395.7199	17222.55	16426.7
810.5241	397.9052	17257.25	16466.65
810.6677	400.09	17210.55	16419.95
810.8113	402.2743	17298	16508
810.9548	404.4579	17320.65	16531.75
811.0984	406.641	17476.9	16688.25
811.2421	408.8235	17700.5	16909.65
811.3857	411.0054	18004.75	17215.65
811.5293	413.1868	18481.4	17689.55
811.673	415.3675	18831.65	18036.25
811.8166	417.5477	19006.4	18209.15
811.9603	419.7273	19041.7	18244.5
812.104	421.9064	18939	18129.75
812.2477	424.0848	18750.5	17949.35
812.3914	426.2627	18538.65	17732.5
812.5351	428.4399	18191.75	17383.7
812.6788	430.6166	17834.65	17022.7
812.8226	432.7928	17418.45	16606.55
812.9663	434.9683	17066.7	16256.65
813.1101	437.1432	16830.65	16019.9
813.2539	439.3176	16639.55	15825.85
813.3977	441.4914	16499.1	15681
813.5415	443.6645	16477.5	15661.4
813.6853	445.8371	16375.85	15558.5
813.8291	448.0091	16302.85	15486.55
813.973	450.1806	16259.35	15444.6
814.1168	452.3514	16182.5	15364.85
814.2607	454.5216	16183.05	15353.1
814.4046	456.6913	16056.9	15240.2
814.5485	458.8603	16095.3	15278
814.6924	461.0288	16140.55	15322.3
814.8363	463.1967	16167.3	15348
814.9802	465.3639	16284.65	15466.45
815.1241	467.5306	16382.2	15563.55
815.2681	469.6967	16491.9	15673
815.412	471.8622	16679.3	15857.7
815.556	474.0271	16816.7	15996.7
815.7	476.1914	16906.35	16082.05
815.844	478.3551	16870.1	16047.8
815.988	480.5182	16785.65	15964.4
816.132	482.6807	16768.5	15946.2
816.276	484.8426	16876.65	16054.15
816.4201	487.0039	17127	16304.2
816.5641	489.1647	17552.8	16726.75
816.7082	491.3248	17994.7	17169.75
816.8522	493.4843	18166.2	17343.3
816.9963	495.6432	18150	17323.55
817.1404	497.8015	18056.25	17228.6
817.2845	499.9592	18039.9	17214.5
817.4286	502.1163	18004.05	17178.45
817.5727	504.2728	17758	16927.55
817.7168	506.4287	17401.95	16573.85
817.861	508.5839	16924.45	16098.35
818.0051	510.7386	16576.65	15749.65
818.1493	512.8927	16366.8	15532.2
818.2935	515.0461	16208.1	15380.45
818.4377	517.199	16127.5	15298.2
818.5818	519.3512	16099.45	15270.1
818.726	521.5029	16136.5	15299.9
818.8703	523.6539	16183.2	15351.95
819.0145	525.8043	16210.75	15381
819.1587	527.9541	16216.8	15382.55
819.303	530.1033	16222.85	15389.35
819.4472	532.2519	16228.35	15394.05
819.5915	534.3999	16363.75	15526.8
819.7357	536.5472	16660.8	15827.95
819.88	538.694	17143.1	16308.95
820.0243	540.8401	17767.95	16931.6
820.1686	542.9856	18312.1	17477.25
820.3129	545.1305	18498.35	17661.3
820.4572	547.2748	18266.65	17429.35
820.6016	549.4185	17865.6	17027.65
820.7459	551.5615	17455.6	16617.15
820.8902	553.704	17265.75	16426.6
821.0346	555.8458	17160.75	16319.7
821.1789	557.987	17161	16324.85
821.3233	560.1276	17087.55	16247
821.4677	562.2675	17057.7	16219.85
821.6121	564.4069	17026	16187.6
821.7565	566.5456	16977.95	16138.95
821.9009	568.6837	16849.95	16013.4
822.0453	570.8212	16554.15	15717.75
822.1897	572.958	16250	15410.35
822.3342	575.0942	15964.3	15125.65
822.4786	577.2299	15787.15	14945.35
822.6231	579.3648	15764.7	14927.35
822.7675	581.4992	15809.7	14969
822.912	583.6329	16034.7	15192.95
823.0565	585.766	16277.8	15438.55
823.201	587.8985	16396.1	15554.6
823.3454	590.0304	16393.25	15529.3
823.4899	592.1616	16324.85	15481.2
823.6345	594.2922	16165.45	15320.65
823.779	596.4222	15978.85	15136.8
823.9235	598.5515	15805.35	14961.3
824.068	600.6802	15604.95	14761.9
824.2126	602.8083	15415.35	14569
824.3571	604.9358	15334.7	14490
824.5017	607.0626	15247.55	14401.9
824.6462	609.1888	15162.85	14318.05
824.7908	611.3144	15110.55	14265.6
824.9354	613.4393	14938.15	14094.35
825.08	615.5636	14820.55	13975.65
825.2246	617.6873	14716.35	13872.8
825.3692	619.8103	14624.85	13777.1
825.5138	621.9327	14522.75	13674.3
825.6584	624.0544	14476.1	13630
825.803	626.1756	14475.6	13629.8
825.9477	628.2961	14422.05	13575.7
826.0923	630.4159	14344.5	13495.8
826.237	632.5351	14276.95	13428.2
826.3816	634.6537	14212.55	13361.65
826.5263	636.7716	14186	13333.65
826.6709	638.8889	14167.95	13319.85
826.8156	641.0056	14178.9	13331.85
826.9603	643.1216	14146.65	13296
827.105	645.237	14157.05	13305.05
827.2497	647.3518	14128.5	13277.85
827.3944	649.4659	14160	13307.6
827.5391	651.5793	14155.25	13303.7
827.6838	653.6922	14130.35	13281.3
827.8285	655.8043	14072.75	13223.15
827.9733	657.9159	14071.05	13218.65
828.118	660.0268	13946.2	13092.2
828.2627	662.137	13893.15	13040.45
828.4075	664.2466	13855.85	13001.3
828.5522	666.3556	13823.55	12970.65
828.697	668.4639	13817.2	12961.5
828.8418	670.5716	13842.05	12988.7
828.9865	672.6786	13874	13018.55
829.1313	674.785	13934.25	13078.3
829.2761	676.8907	14010.25	13154.85
829.4209	678.9958	14062.95	13209.15
829.5657	681.1002	14038.7	13185.7
829.7105	683.204	13971.95	13111.45
829.8553	685.3072	13932.75	13077.25
830.0001	687.4097	13829.45	12973
830.1449	689.5115	13774.6	12918.4
830.2898	691.6127	13703.6	12847.05
830.4346	693.7132	13613.6	12758.85
830.5794	695.8131	13551.1	12677.65
830.7243	697.9123	13489.15	12630
830.8691	700.0109	13435.55	12576.4
831.014	702.1089	13389.85	12531.95
831.1588	704.2061	13404.65	12545.95
831.3037	706.3028	13425.5	12565.3
831.4486	708.3987	13447.6	12589.9
831.5935	710.4941	13539.75	12681.2
831.7383	712.5887	13730.25	12871
831.8832	714.6827	13991.15	13125.95
832.0281	716.7761	14370.6	13511.35
832.173	718.8688	14754.85	13894.05
832.3179	720.9608	14949	14083.35
832.4628	723.0522	14973.2	14109.55
832.6077	725.1429	14710.3	13849.05
832.7527	727.233	14407.45	13548.1
832.8976	729.3224	14085.85	13225.3
833.0425	731.4112	13732.05	12870.2
833.1874	733.4993	13524.9	12661.7
833.3324	735.5867	13365.3	12502.45
833.4773	737.6735	13252.55	12387.25
833.6222	739.7596	13153.8	12291.15
833.7672	741.845	13112.7	12250.25
833.9122	743.9298	13068.3	12200.55
834.0571	746.014	13047.8	12187.6
834.2021	748.0974	13057.35	12191.2
834.347	750.1802	13054.3	12189.9
834.492	752.2624	13049.7	12187.15
834.637	754.3439	13090.1	12222.15
834.782	756.4247	13138.85	12266.25
834.9269	758.5048	13223.85	12360.85
835.0719	760.5843	13407.5	12542.5
835.2169	762.6631	13733.2	12864.75
835.3619	764.7413	14160.9	13295.8
835.5069	766.8188	14746.75	13880.5
835.6519	768.8956	15214.1	14348.35
835.7969	770.9718	15507.85	14645.95
835.9419	773.0473	15366.1	14501.25
836.0869	775.1221	15030.45	14168.85
836.232	777.1962	14611.9	13745.65
836.377	779.2697	14377.65	13512.15
836.522	781.3426	14422.85	13541.35
836.667	783.4147	14707.15	13842.5
836.8121	785.4862	15018.7	14154.8
836.9571	787.557	15022.85	14158.6
837.1021	789.6271	14645.4	13780.15
837.2472	791.6966	14042.35	13176.2
837.3922	793.7654	13439.8	12572.3
837.5373	795.8335	13118.95	12251.75
837.6823	797.901	12925.7	12058.4
837.8274	799.9678	12830.65	11959.35
837.9724	802.0339	12831.5	11965.5
838.1175	804.0993	12856.4	11981.9
838.2626	806.1641	12826.75	11959.7
838.4076	808.2282	12776.7	11910.75
838.5527	810.2916	12646.85	11776.15
838.6978	812.3544	12551.4	11685.95
838.8428	814.4164	12439.2	11573.3
838.9879	816.4778	12473.65	11605.85
839.133	818.5385	12421.5	11555.85
839.2781	820.5986	12460.4	11590.45
839.4232	822.658	12558.15	11688.9
839.5682	824.7166	12644.2	11779.9
839.7133	826.7747	12807.55	11938.3
839.8584	828.832	12972	12104.4
840.0035	830.8886	13114.35	12243.2
840.1486	832.9446	13244.6	12376.55
840.2937	834.9999	13263.45	12396.7
840.4388	837.0545	13281.65	12409.4
840.5839	839.1085	13272.6	12404.05
840.729	841.1618	13244.65	12372.8
840.8741	843.2143	13184.55	12314.45
841.0192	845.2662	13094.8	12227.15
841.1643	847.3175	13010.1	12140.1
841.3095	849.368	12890.65	12021.1
841.4546	851.4179	12748.15	11879.7
841.5997	853.467	12576.3	11706.7
841.7448	855.5155	12463.3	11592.15
841.8899	857.5633	12340.15	11471.5
842.0351	859.6105	12240	11370.35
842.1802	861.6569	12117.75	11248.25
842.3253	863.7027	12043.95	11174.1
842.4704	865.7478	12034.8	11163.6
842.6156	867.7922	12012.5	11141.5
842.7607	869.8359	12054	11184.5
842.9058	871.8789	12180.25	11308.55
843.0509	873.9212	12355.75	11450.25
843.1961	875.9629	12510.3	11639.9
843.3412	878.0039	12676.35	11807.4
843.4863	880.0441	12746.95	11875.35
843.6315	882.0837	12705.2	11833.2
843.7766	884.1226	12623.95	11749.95
843.9218	886.1609	12443.3	11572.45
844.0669	888.1984	12336.8	11464.7
844.212	890.2352	12295.45	11425.6
844.3572	892.2714	12239.8	11363.8
844.5023	894.3069	12205.45	11331.5
844.6475	896.3416	12125.8	11255.7
844.7926	898.3757	12069.75	11197.3
844.9377	900.4091	12045.95	11171.25
845.0829	902.4418	12081.4	11205.4
845.228	904.4739	12047.3	11173.55
845.3732	906.5052	12052.55	11180.4
845.5183	908.5358	11936.8	11064
845.6635	910.5658	11771.05	10896.55
845.8086	912.595	11577.15	10706
845.9538	914.6236	11431.4	10559.05
846.0989	916.6515	11349.4	10475.9
846.2441	918.6786	11336.9	10461.4
846.3892	920.7051	11408.85	10534.4
846.5344	922.7309	11497.5	10622.2
846.6795	924.756	11551.9	10677.55
846.8246	926.7804	11627.5	10751.25
846.9698	928.8041	11576.7	10701.05
847.1149	930.8272	11580.2	10707.9
847.2601	932.8495	11532.4	10657.35
847.4052	934.8711	11474.2	10599.65
847.5504	936.892	11320.9	10447.95
847.6955	938.9123	11130.9	10254.7
847.8407	940.9318	10988.5	10114.35
847.9858	942.9506	10868.3	9993.15
848.131	944.9688	10759	9883
848.2761	946.9862	10702.35	9831.2
848.4213	949.003	10631.1	9754.9
848.5664	951.019	10618.25	9742.05
848.7115	953.0344	10634.9	9762.1
848.8567	955.0491	10634.85	9758.2
849.0018	957.063	10725.6	9850.3
849.147	959.0763	10815.75	9939.9
849.2921	961.0888	10873.75	9995.95
849.4373	963.1007	10928.9	10052.25
849.5824	965.1119	10963.5	10088.6
849.7275	967.1223	10988.85	10114.2
849.8727	969.1321	10992.95	10119.2
850.0178	971.1412	11008.3	10134.35
850.1629	973.1495	11020.25	10145.3
850.3081	975.1572	11068.45	10158.05
850.4532	977.1641	11066.65	10193.3
850.5983	979.1704	11031.85	10156.65
850.7435	981.1759	11012.5	10133.3
850.8886	983.1808	11069.1	10192.75
851.0337	985.1849	11177.4	10290.75
851.1788	987.1884	11312.75	10433.1
851.324	989.1911	11502.1	10620.85
851.4691	991.1932	11621.6	10741.2
851.6142	993.1945	11671.45	10794.5
851.7593	995.1951	11622.65	10745.15
851.9045	997.1951	11560.2	10676.95
852.0496	999.1943	11449.9	10574.75
852.1947	1001.1928	11428.95	10549.7
852.3398	1003.1906	11408.75	10532.8
852.4849	1005.1877	11468.2	10591.2
852.63	1007.1841	11415	10540.45
852.7751	1009.1798	11325.1	10448.55
852.9202	1011.1748	11139.4	10263.7
853.0653	1013.1691	10925.7	10047.35
853.2104	1015.1627	10710.9	9833.05
853.3555	1017.1556	10491.15	9613.6
853.5006	1019.1477	10353.05	9476
853.6457	1021.1392	10283.15	9405.95
853.7908	1023.1299	10271.35	9392.05
853.9359	1025.12	10295.75	9415.55
854.081	1027.1093	10354.25	9477.3
854.2261	1029.0979	10416.55	9541.85
854.3712	1031.0859	10499.45	9623.3
854.5163	1033.0731	10489.65	9610.35
854.6613	1035.0596	10372.95	9496.05
854.8064	1037.0454	10217.5	9338.35
854.9515	1039.0304	10113.1	9234.95
855.0965	1041.0148	9955.6	9077.8
855.2416	1042.9985	9873.55	8995.05
855.3867	1044.9814	9793.05	8915.65
855.5317	1046.9636	9751.7	8871.8
855.6768	1048.9452	9737.1	8862.45
855.8219	1050.926	9727.8	8851.3
855.9669	1052.9061	9735.65	8859.3
856.112	1054.8855	9716.85	8839.2
856.257	1056.8642	9741.5	8863
856.4021	1058.8421	9795.1	8915.7
856.5471	1060.8194	9802.85	8925.8
856.6921	1062.7959	9823.1	8944.2
856.8372	1064.7717	9825.85	8943.65
856.9822	1066.7469	9839.95	8960.7
857.1272	1068.7213	9829.85	8951
857.2723	1070.695	9801.55	8922.35
857.4173	1072.6679	9718.95	8840.9
857.5623	1074.6402	9670.05	8790.25
857.7073	1076.6117	9627.75	8743
857.8523	1078.5826	9623.45	8745.65
857.9973	1080.5527	9669	8788.7
858.1423	1082.5221	9782.65	8903.35
858.2873	1084.4908	9964.45	9085.65
858.4323	1086.4587	10167.3	9288.45
858.5773	1088.426	10306.65	9427.35
858.7223	1090.3925	10306.7	9424
858.8673	1092.3584	10226.45	9348.3
859.0123	1094.3235	10076.05	9198.65
859.1573	1096.2879	9982.8	9101.95
859.3022	1098.2515	9965.05	9086.7
859.4472	1100.2145	10011.85	9131.75
859.5922	1102.1767	10054.8	9174.8
859.7371	1104.1382	10244.8	9365.25
859.8821	1106.099	10444.4	9562.55
860.027	1108.0591	10662.75	9783.15
860.172	1110.0185	10818	9935.7
860.3169	1111.9771	10795.75	9916.65
860.4619	1113.9351	10588.85	9709.6
860.6068	1115.8923	10286.9	9410.15
860.7517	1117.8488	9943.95	9060.8
860.8967	1119.8045	9676.75	8795.8
861.0416	1121.7596	9533.3	8650.35
861.1865	1123.7139	9436.7	8557.9
861.3314	1125.6675	9454.65	8578.55
861.4763	1127.6204	9516.9	8637.2
861.6212	1129.5726	9478.65	8596.05
861.7661	1131.524	9487	8608.5
861.911	1133.4748	9494.05	8616.6
862.0559	1135.4248	9492.9	8610.85
862.2008	1137.3741	9499.95	8619.55
862.3457	1139.3226	9431.4	8551.25
862.4905	1141.2705	9387.4	8506.7
862.6354	1143.2176	9298.45	8413.55
862.7803	1145.164	9291.25	8408.25
862.9251	1147.1097	9300.85	8420.35
863.07	1149.0546	9291.15	8408.85
863.2148	1150.9989	9161.75	8280.6
863.3597	1152.9424	9004.1	8124.05
863.5045	1154.8852	8828.35	7947.15
863.6493	1156.8272	8698.25	7818.8
863.7942	1158.7686	8627.65	7740.2
863.939	1160.7092	8610.75	7727.4
864.0838	1162.6491	8579.45	7695.1
864.2286	1164.5883	8665.25	7787.25
864.3734	1166.5267	8732	7850.45
864.5182	1168.4644	8875.1	7996.25
864.663	1170.4014	9075.1	8190.9
864.8078	1172.3377	9297.85	8420.6
864.9526	1174.2732	9515.6	8635.9
865.0974	1176.2081	9757.55	8878.2
865.2421	1178.1421	9963.65	9079.1
865.3869	1180.0755	10177.3	9297.05
865.5317	1182.0082	10261.85	9382.8
865.6764	1183.9401	10264.7	9381.65
865.8212	1185.8713	10068.3	9187.2
865.9659	1187.8017	9823.95	8943.5
866.1106	1189.7315	9550.05	8670.8
866.2554	1191.6605	9270.4	8361.85
866.4001	1193.5888	9046.95	8165.4
866.5448	1195.5163	8931.95	8050.95
866.6895	1197.4432	8851.3	7968
866.8342	1199.3693	8795.15	7915.3
866.9789	1201.2947	8783.35	7901.55
867.1236	1203.2193	8746	7865.15
867.2683	1205.1432	8782.15	7901.05
867.413	1207.0664	8779.2	7898
867.5576	1208.9889	8827.7	7943.15
867.7023	1210.9106	8893.8	8013.25
867.847	1212.8316	8938.75	8056.05
867.9916	1214.7519	9006.75	8116.9
868.1363	1216.6715	9031.85	8151.65
868.2809	1218.5903	8997.9	8115.8
868.4255	1220.5084	8974.4	8094.35
868.5701	1222.4257	8939.05	8058.75
868.7148	1224.3424	8929.2	8048.4
868.8594	1226.2583	8971.95	8086.45
869.004	1228.1735	9044.35	8162.75
869.1486	1230.0879	9186.15	8304.85
869.2932	1232.0016	9279.85	8399.75
869.4377	1233.9146	9299.4	8416.05
869.5823	1235.8269	9231.65	8351
869.7269	1237.7384	9077.65	8197.9
869.8715	1239.6492	8857.2	7975.25
870.016	1241.5592	8779.9	7899.6
870.1606	1243.4686	8671.15	7789.95
870.3051	1245.3772	8636.6	7756.2
870.4496	1247.285	8584.95	7705.7
870.5941	1249.1922	8566.4	7685.2
870.7387	1251.0986	8538	7659.6
870.8832	1253.0042	8535.7	7653.1
871.0277	1254.9092	8577.3	7697.45
871.1722	1256.8134	8689.8	7807.2
871.3167	1258.7169	8821.6	7940.7
871.4611	1260.6196	8982.9	8100.9
871.6056	1262.5216	9192.9	8308.6
871.7501	1264.4229	9351.8	8473.4
871.8945	1266.3234	9510.1	8628.2
872.039	1268.2232	9553.15	8668.8
872.1834	1270.1223	9536.4	8654.2
872.3278	1272.0207	9514.7	8631.2
872.4723	1273.9183	9483.05	8594.65
872.6167	1275.8151	9386.95	8506.3
872.7611	1277.7113	9318.6	8437.25
872.9055	1279.6067	9170.35	8290.85
873.0499	1281.5014	9072.8	8190.3
873.1943	1283.3953	8988.25	8104.85
873.3386	1285.2885	8950.85	8069.2
873.483	1287.181	8946.45	8062.45
873.6274	1289.0727	9004.9	8124.2
873.7717	1290.9637	9058.8	8174.8
873.9161	1292.854	9183.35	8300.95
874.0604	1294.7435	9291.6	8411.1
874.2047	1296.6323	9497.35	8613.45
874.349	1298.5204	9719.4	8833.5
874.4933	1300.4077	9917.5	9034.8
874.6376	1302.2943	10064.95	9183.4
874.7819	1304.1802	10108.05	9227.6
874.9262	1306.0653	9986.7	9101.8
875.0705	1307.9497	9819.25	8936.65
875.2147	1309.8333	9680.65	8798
875.359	1311.7162	9641.15	8759.3
875.5032	1313.5984	9667.55	8783
875.6475	1315.4798	9792.05	8899
875.7917	1317.3605	9943.35	9044.8
875.9359	1319.2405	10015.9	9130.6
876.0801	1321.1197	9992.15	9107.8
876.2243	1322.9982	9928.35	9041.15
876.3685	1324.876	9879.6	8995.6
876.5127	1326.753	9813.4	8931.8
876.6569	1328.6293	9808.65	8923.7
876.801	1330.5048	9794.6	8909.1
876.9452	1332.3796	9767.3	8885.65
877.0893	1334.2537	9766.8	8856.75
877.2335	1336.127	9693.9	8810.3
877.3776	1337.9996	9663.1	8779.3
877.5217	1339.8714	9623.15	8741.75
877.6658	1341.7426	9618.65	8695.15
877.8099	1343.6129	9543.35	8659.1
877.954	1345.4826	9470.15	8586.9
878.0981	1347.3515	9451.45	8566.65
878.2422	1349.2196	9408.55	8524.35
878.3862	1351.087	9429.45	8548.45
878.5303	1352.9537	9471.25	8585.15
878.6743	1354.8197	9588.95	8707.95
878.8184	1356.6849	9760.2	8877
878.9624	1358.5493	9843.55	8963.1
879.1064	1360.4131	9877.55	8995.1
879.2504	1362.276	9832.95	8950.15
879.3944	1364.1383	9697.75	8813.95
879.5384	1365.9998	9466.4	8576.5
879.6823	1367.8606	9140.1	8255.15
879.8263	1369.7206	8861.55	7978.25
879.9702	1371.5799	8650.6	7767.35
880.1142	1373.4384	8496.45	7615.4
880.2581	1375.2962	8341.35	7456.65
880.402	1377.1533	8091.4	7208.95
880.5459	1379.0096	7790.9	6907.15
880.6898	1380.8652	7502.4	6619.6
880.8337	1382.7201	7263.7	6380.25
880.9776	1384.5742	7042.2	6158.7
881.1215	1386.4275	6861.45	5976.65
881.2653	1388.2802	6766.05	5884.1
881.4092	1390.132	6642.6	5759.15
881.553	1391.9832	6588.15	5703
881.6968	1393.8336	6515.45	5632.85
881.8406	1395.6832	6501.15	5617.1
881.9844	1397.5322	6450.05	5565.7
882.1282	1399.3803	6441.45	5552.75
882.272	1401.2278	6416.8	5532.35
882.4158	1403.0745	6394.35	5511.95
882.5595	1404.9204	6387.1	5503.75
882.7033	1406.7656	6432.95	5550
882.847	1408.6101	6447.05	5563.45
882.9908	1410.4538	6454.2	5570.45
883.1345	1412.2968	6519.55	5636.5
883.2782	1414.139	6575.9	5693.05
883.4219	1415.9805	6666.15	5782.05
883.5656	1417.8213	6750.45	5861.85
883.7092	1419.6613	6896.75	6014.95
883.8529	1421.5006	7087.4	6203.8
883.9965	1423.3391	7329.2	6445.25
884.1402	1425.1769	7670.15	6785.5
884.2838	1427.0139	8186.05	7300.45
884.4274	1428.8502	8782.7	7897.2
884.571	1430.6858	9402.45	8518.9
884.7146	1432.5206	9849.95	8966.75
884.8582	1434.3547	10079.05	9193.55
885.0018	1436.188	10102.1	9219.25
885.1453	1438.0206	10012.9	9127.35
885.2889	1439.8524	9854.3	8969.95
885.4324	1441.6835	9746.6	8860.45
885.5759	1443.5139	9662.85	8776.65
885.7194	1445.3435	9583.35	8699.1
885.8629	1447.1724	9519.4	8637
886.0064	1449.0005	9454.7	8570.6
886.1499	1450.8279	9375.3	8491.7
886.2933	1452.6545	9314.15	8432.7
886.4368	1454.4804	9339.25	8457.75
886.5802	1456.3056	9330.05	8438.5
886.7237	1458.13	9233	8350.25
886.8671	1459.9536	8996.25	8111.65
887.0105	1461.7766	8664.55	7782.2
887.1539	1463.5987	8269.1	7384.45
887.2972	1465.4202	7856	6972.8
887.4406	1467.2409	7512.3	6629.85
887.584	1469.0608	7214.95	6331.9
887.7273	1470.88	6943.2	6059.45
887.8706	1472.6984	6717.8	5834.15
888.0139	1474.5161	6521.85	5635.45
888.1572	1476.3331	6354.9	5473.85
888.3005	1478.1493	6232	5347.45
888.4438	1479.9648	6138.35	5254.3
888.5871	1481.7795	6040.4	5155.35
888.7303	1483.5935	5971.2	5088.45
888.8736	1485.4067	5919.8	5036.15
889.0168	1487.2192	5873.85	4990.95
889.16	1489.031	5822.45	4936.85
889.3032	1490.842	5787.65	4906.6
889.4464	1492.6522	5739.45	4854.15
889.5896	1494.4618	5714.15	4830.45
889.7327	1496.2705	5664.75	4780.8
889.8759	1498.0785	5640.3	4757.65
890.019	1499.8858	5618.65	4734.7
890.1622	1501.6924	5589.95	4709.75
890.3053	1503.4981	5578.9	4696.2
890.4484	1505.3032	5554.3	4673.45
890.5914	1507.1075	5532.25	4647.85
890.7345	1508.911	5497.45	4611.85
890.8776	1510.7138	5468.85	4584.15
891.0206	1512.5159	5431.25	4548.6
891.1637	1514.3172	5399.45	4515.05
891.3067	1516.1178	5372.45	4491.35
891.4497	1517.9176	5337.75	4452
891.5927	1519.7166	5338	4455
891.7357	1521.515	5309	4420
891.8786	1523.3126	5284.35	4401.05
892.0216	1525.1094	5249.1	4364.05
892.1645	1526.9055	5213.55	4332.5
892.3074	1528.7008	5193.75	4309.45
892.4503	1530.4954	5179.15	4294.6
892.5932	1532.2893	5164.45	4284.45
892.7361	1534.0824	5175.6	4287.2
892.879	1535.8747	5162.2	4281.15
893.0218	1537.6663	5139.25	4254.05
893.1647	1539.4572	5137.7	4253.2
893.3075	1541.2473	5106.7	4223.1
893.4503	1543.0367	5108.8	4225.45
893.5931	1544.8253	5105.65	4216.2
893.7359	1546.6132	5129.35	4240.8
893.8787	1548.4003	5120.1	4226.45
894.0214	1550.1867	5156.05	4262.75
894.1642	1551.9723	5172.05	4283.8
894.3069	1553.7572	5175.95	4292.4
894.4496	1555.5414	5210.5	4328.3
894.5923	1557.3247	5274.35	4391.4
894.735	1559.1074	5338.65	4458.5
894.8777	1560.8893	5401.05	4518.6
895.0204	1562.6705	5489.4	4606.75
895.163	1564.4509	5587.9	4703.4
895.3056	1566.2305	5630.25	4746.1
895.4482	1568.0094	5718.05	4833.55
895.5908	1569.7876	5780.8	4897
895.7334	1571.565	5821.8	4938.9
895.876	1573.3417	5843.55	4962.15
896.0186	1575.1176	5816.45	4933.8
896.1611	1576.8928	5803.05	4920.05
896.3036	1578.6672	5722.25	4838.6
896.4461	1580.4409	5623.6	4740.15
896.5886	1582.2138	5499.95	4613.4
896.7311	1583.986	5396.85	4513.7
896.8736	1585.7575	5318.8	4436.4
897.0161	1587.5282	5266.4	4384.7
897.1585	1589.2981	5234.35	4350.6
897.3009	1591.0673	5198.9	4315.75
897.4433	1592.8358	5189.6	4307
897.5857	1594.6035	5209.15	4322.95
897.7281	1596.3704	5220.85	4337.5
897.8705	1598.1366	5251.35	4368.6
898.0128	1599.9021	5296.25	4414.35
898.1551	1601.6668	5332.55	4447.5
898.2975	1603.4308	5395.6	4512.85
898.4398	1605.194	5476.4	4591.7
898.5821	1606.9564	5587.2	4704.2
898.7243	1608.7182	5747.3	4858.6
898.8666	1610.4791	5898.45	5015
899.0088	1612.2394	6063.35	5179.4
899.1511	1613.9988	6271.35	5389.2
899.2933	1615.7576	6466.7	5582.6
899.4355	1617.5156	6697.95	5809.4
899.5776	1619.2728	6888.4	6008.1
899.7198	1621.0293	7031.4	6148.85
899.862	1622.785	7097.5	6210.35
900.0041	1624.54	7023.2	6138.95
900.1462	1626.2942	6878.7	5994.8
900.2883	1628.0477	6642.85	5755.85
900.4304	1629.8005	6426.35	5538.35
900.5725	1631.5525	6208.15	5322.85
900.7145	1633.3037	6033.15	5148.8
900.8566	1635.0542	5893.85	5011.7
900.9986	1636.804	5766.2	4884.6
901.1406	1638.553	5767.15	4805.85
901.2826	1640.3013	5673.55	4792.55
901.4245	1642.0488	5654.65	4772.2
901.5665	1643.7955	5680.4	4798.4
901.7085	1645.5416	5731.45	4848.25
901.8504	1647.2868	5794.75	4912.1
901.9923	1649.0313	5898.35	5015.65
902.1342	1650.7751	6044	5157.8
902.2761	1652.5181	6240.75	5357.8
902.4179	1654.2604	6459.4	5576.1
902.5598	1656.0019	6751.6	5866.55
902.7016	1657.7427	7090	6207.6
902.8434	1659.4828	7423.4	6540.45
902.9852	1661.222	7600.25	6717.6
903.127	1662.9606	7603.05	6721.9
903.2687	1664.6984	7398.3	6513.65
903.4105	1666.4354	7009	6126.35
903.5522	1668.1717	6534.7	5654.3
903.6939	1669.9072	6019.5	5138.1
903.8356	1671.642	5609.85	4726.35
903.9773	1673.3761	5284.1	4403.5
904.119	1675.1094	5029.35	4148.2
904.2606	1676.8419	4835.1	3953.9
904.4022	1678.5737	4689.05	3806.05
904.5439	1680.3048	4577.4	3695.35
904.6855	1682.0351	4497.65	3616.8
904.827	1683.7646	4413.4	3527.95
904.9686	1685.4934	4356.55	3477
905.1101	1687.2215	4326.4	3442.85
905.2517	1688.9488	4280.9	3397.85
905.3932	1690.6754	4223.7	3341.9
905.5347	1692.4012	4208.3	3326.8
905.6761	1694.1263	4183.65	3301.4
905.8176	1695.8506	4165.05	3281.1
905.9591	1697.5742	4142.2	3261.2
906.1005	1699.297	4115.3	3232.85
906.2419	1701.0191	4077.15	3194.65
906.3833	1702.7404	4058.35	3177.25
906.5246	1704.461	4033.15	3150.6
906.666	1706.1808	4031.45	3148.55
906.8073	1707.8999	4002.45	3120.35
906.9487	1709.6182	3981.55	3096.95
907.09	1711.3358	3964.2	3081.65
907.2313	1713.0527	3938.5	3058.25
907.3725	1714.7688	3926.05	3036.6
907.5138	1716.4841	3906.55	3021.35
907.655	1718.1987	3903.45	3017.55
907.7962	1719.9126	3876.2	2996.25
907.9374	1721.6257	3864.85	2979.65
908.0786	1723.338	3857.65	2975.5
908.2198	1725.0496	3826.55	2944.25
908.3609	1726.7605	3821.95	2939.5
908.502	1728.4706	3814.2	2932.25
908.6431	1730.18	3801.25	2916.05
908.7842	1731.8886	3783.4	2901.25
908.9253	1733.5964	3773.4	2887.05
909.0664	1735.3036	3763.1	2876.65
909.2074	1737.0099	3746.45	2863
909.3484	1738.7156	3729.75	2847.55
909.4894	1740.4204	3727.65	2841.8
909.6304	1742.1246	3725.45	2845.05
909.7714	1743.8279	3702.85	2821.7
909.9123	1745.5306	3698.25	2815.95
910.0532	1747.2325	3669.15	2788.95
910.1941	1748.9336	3652.65	2772.6
910.335	1750.634	3642.2	2758.7
910.4759	1752.3336	3648.4	2768.3
910.6168	1754.0325	3637.7	2755.45
910.7576	1755.7307	3623.4	2739.6
910.8984	1757.4281	3631.35	2750.15
911.0392	1759.1247	3619.6	2728.4
911.18	1760.8206	3603.55	2716.35
911.3208	1762.5158	3609.8	2726
911.4615	1764.2102	3584.1	2705.35
911.6022	1765.9039	3569.25	2684.8
911.7429	1767.5968	3581.65	2699.6
911.8836	1769.289	3558.1	2675
912.0243	1770.9804	3542.9	2659.95
912.1649	1772.6711	3552.3	2671.65
912.3056	1774.361	3546.7	2664.35
912.4462	1776.0502	3523.15	2639.65
912.5868	1777.7386	3525.8	2641.05
912.7274	1779.4263	3514.9	2631.6
912.8679	1781.1132	3506.9	2623.85
913.0084	1782.7994	3498.75	2614.4
913.149	1784.4849	3497.1	2615.65
913.2895	1786.1696	3509.35	2608.25
913.4299	1787.8535	3484.3	2602.55
913.5704	1789.5367	3474.85	2592.75
913.7108	1791.2192	3465.85	2584.3
913.8513	1792.9009	3466.75	2570.7
913.9917	1794.5818	3456.15	2573.2
914.132	1796.2621	3437.25	2555.4
914.2724	1797.9415	3431.2	2550.4
914.4128	1799.6202	3428.25	2546.6
914.5531	1801.2982	3421.55	2539.9
914.6934	1802.9755	3417.1	2535.15
914.8337	1804.6519	3420.4	2537.75
914.9739	1806.3277	3409.3	2528.1
915.1142	1808.0027	3393.6	2511.7
915.2544	1809.6769	3388.05	2503.95
915.3946	1811.3504	3379.65	2496.2
915.5348	1813.0231	3383.6	2502
915.675	1814.6951	3374.7	2490.55
915.8151	1816.3664	3379.85	2494.85
915.9553	1818.0369	3365.2	2485.55
916.0954	1819.7067	3353.15	2471.45
916.2355	1821.3757	3342.55	2459.2
916.3755	1823.044	3353.35	2470.7
916.5156	1824.7115	3337.3	2456.55
916.6556	1826.3783	3326.05	2445
916.7956	1828.0443	3315.75	2434.55
916.9356	1829.7096	3322.45	2437.9
917.0756	1831.3741	3314.85	2428.2
917.2155	1833.0379	3310.2	2430.1
917.3555	1834.701	3285.95	2400.45
917.4954	1836.3633	3306.9	2422.85
917.6353	1838.0248	3303.6	2420.65
917.7751	1839.6856	3289.75	2410.2
917.915	1841.3457	3286.6	2404.9
918.0548	1843.005	3281.1	2398.6
918.1946	1844.6636	3270.25	2390.8
918.3344	1846.3214	3259.05	2377.45
918.4742	1847.9785	3252.65	2370.05
918.6139	1849.6349	3263.3	2378.5
918.7537	1851.2904	3276.55	2385.15
918.8934	1852.9453	3242.85	2361.15
919.0331	1854.5994	3241.45	2358.85
919.1727	1856.2528	3250.5	2362.8
919.3124	1857.9054	3229.25	2347
919.452	1859.5572	3219.55	2337.8
919.5916	1861.2083	3213.35	2330.3
919.7312	1862.8587	3220.95	2338.95
919.8708	1864.5084	3204.45	2320.6
920.0103	1866.1572	3208.95	2327.5
920.1498	1867.8054	3185.25	2303.8
920.2893	1869.4528	3179.9	2299.6
920.4288	1871.0994	3175.85	2293.9
920.5683	1872.7453	3175.05	2293.3
920.7077	1874.3905	3180.45	2280.4
920.8471	1876.0349	3163.15	2282
920.9865	1877.6786	3148.6	2266.75
921.1259	1879.3215	3165.55	2282.85
921.2653	1880.9637	3153.9	2270.45
921.4046	1882.6051	3152.6	2271.25
921.5439	1884.2458	3133.2	2249.7
921.6832	1885.8858	3131.9	2249
921.8225	1887.525	3127.15	2245.6
921.9617	1889.1634	3110.45	2227.75
922.101	1890.8011	3097.4	2215.25
922.2402	1892.4381	3101.4	2217.95
922.3794	1894.0743	3104.5	2223.7
922.5185	1895.7098	3093.15	2212.2
922.6577	1897.3446	3082.05	2198
922.7968	1898.9786	3083.65	2196.4
922.9359	1900.6118	3066.25	2185.65
923.075	1902.2443	3055.95	2172.15
923.214	1903.8761	3057.95	2177.45
923.3531	1905.5071	3050.4	2167.1
923.4921	1907.1374	3047.55	2165
923.6311	1908.7669	3040.1	2160.6
923.77	1910.3957	3039.05	2157.85
923.909	1912.0237	3040.65	2158.9
924.0479	1913.651	3031.45	2150.75
924.1868	1915.2776	3027.15	2148.7
924.3257	1916.9034	3007.65	2126.3
924.4646	1918.5285	2985.2	2105.9
924.6034	1920.1528	2994.6	2112.7
924.7422	1921.7764	3001.7	2121
924.881	1923.3992	2983.2	2101.4
925.0198	1925.0213	2964.05	2082.55
925.1586	1926.6427	2947.4	2064.4
925.2973	1928.2633	3149.7	2050.8
925.436	1929.8832	2987.45	2102.5
925.5747	1931.5023	2940.05	2058.65
925.7134	1933.1207	2945.05	2061.95
925.852	1934.7383	2935.5	2054.15
925.9906	1936.3552	2926.2	2043.6
926.1292	1937.9714	2916.65	2035.4
926.2678	1939.5868	2911.55	2028.5
926.4064	1941.2015	2898.65	2015.75
926.5449	1942.8154	2879.55	1998.7
926.6834	1944.4286	2882.7	2000.1
926.8219	1946.041	2892.05	1986.5
926.9604	1947.6528	2872.4	1985.45
927.0988	1949.2637	2859.95	1979
927.2372	1950.8739	2856.45	1972.4
927.3756	1952.4834	2851.15	1968.7
927.514	1954.0921	2831.25	1948.6
927.6523	1955.7001	2835.55	1949.15
927.7907	1957.3074	2821.25	1938.5
927.929	1958.9139	2826.85	1945.05
928.0673	1960.5197	2828.8	1943.75
928.2055	1962.1247	2801.2	1919.25
928.3438	1963.729	2793.3	1912.4
928.482	1965.3325	2813.85	1908.05
928.6202	1966.9353	2787.95	1906.05
928.7584	1968.5374	2772.6	1889.15
928.8965	1970.1387	2771.7	1890.4
929.0346	1971.7393	2763	1879.15
929.1727	1973.3392	2758.5	1875.95
929.3108	1974.9383	2737.3	1856.05
929.4489	1976.5366	2753.45	1871.2
929.5869	1978.1342	2734.75	1851
929.7249	1979.7311	2744.05	1863.1
929.8629	1981.3273	2730.5	1848.9
930.0009	1982.9227	2738.85	1855.4
930.1388	1984.5173	2724.45	1843.35
930.2767	1986.1112	2701.75	1820.4
930.4146	1987.7044	2705.65	1826.25
930.5525	1989.2968	2698.1	1814.45
930.6904	1990.8885	2699.3	1813.75
930.8282	1992.4795	2703.4	1819.45
930.966	1994.0697	2693.4	1813.8
931.1038	1995.6592	2693.2	1811.65
931.2415	1997.2479	2673.9	1790.35
931.3793	1998.8359	2683.95	1803.3
931.517	2000.4232	2658.8	1776.05
931.6547	2002.0097	2659.9	1778
931.7923	2003.5955	2650	1764.95
931.93	2005.1805	2649.4	1766.05
932.0676	2006.7648	2649.05	1768.4
932.2052	2008.3484	2645.05	1761.05
932.3427	2009.9312	2634.15	1751.8
932.4803	2011.5133	2628.6	1745.3
932.6178	2013.0946	2633.9	1752.25
932.7553	2014.6752	2633.9	1751.8
932.8928	2016.2551	2613.45	1730.7
933.0302	2017.8342	2614.55	1731.35
933.1676	2019.4126	2621	1740.25
933.305	2020.9902	2600.7	1717.6
933.4424	2022.5672	2601.15	1716.35
933.5798	2024.1433	2610.2	1721.85
933.7171	2025.7188	2586	1704.8
933.8544	2027.2935	2588.35	1704
933.9917	2028.8674	2571.65	1690
934.129	2030.4406	2570.9	1688.2
934.2662	2032.0131	2561.55	1681.3
934.4034	2033.5849	2570.25	1684.5
934.5406	2035.1559	2546.25	1663.05
934.6778	2036.7261	2565.05	1684.05
934.8149	2038.2957	2547.2	1665.15
934.952	2039.8645	2542.4	1662.05
935.0891	2041.4325	2551.15	1665.4
935.2262	2042.9998	2530.25	1648.6
935.3632	2044.5664	2532.75	1649.2
935.5002	2046.1323	2527.1	1646.15
935.6372	2047.6974	2517.65	1638.15
935.7742	2049.2617	2522.65	1641.4
935.9111	2050.8254	2556.65	1640.85
936.048	2052.3883	2522.2	1638.5
936.1849	2053.9504	2496.8	1613.8
936.3218	2055.5118	2500.45	1618.1
936.4586	2057.0725	2499.5	1611.55
936.5955	2058.6325	2487.05	1603.6
936.7323	2060.1917	2488.95	1608
936.869	2061.7502	2489.3	1603.15
937.0058	2063.3079	2473.8	1591
937.1425	2064.8649	2466.35	1579.95
937.2792	2066.4212	2466.6	1583.4
937.4159	2067.9767	2466.4	1585.3
937.5525	2069.5315	2454.4	1573.3
937.6891	2071.0856	2451.35	1565.75
937.8257	2072.6389	2454	1569.85
937.9623	2074.1915	2429.95	1549.5
938.0989	2075.7433	2427.85	1543.05
938.2354	2077.2945	2420.95	1540
938.3719	2078.8448	2416.4	1534.35
938.5084	2080.3945	2410.35	1529.85
938.6448	2081.9434	2412.9	1530.95
938.7812	2083.4916	2400.8	1517.6
938.9176	2085.039	2393.3	1508.8
939.054	2086.5857	2399.6	1516.2
939.1903	2088.1317	2403.2	1521.25
939.3267	2089.677	2396.65	1513
939.463	2091.2215	2374.85	1493.6
939.5992	2092.7652	2389.8	1504.8
939.7355	2094.3083	2374.1	1492.4
939.8717	2095.8506	2372.2	1491.4
940.0079	2097.3921	2377.7	1495.9
940.1441	2098.933	2367.8	1486.2
940.2802	2100.4731	2376.35	1493.2
940.4163	2102.0124	2380.45	1491.8
940.5524	2103.5511	2364.75	1482.4
940.6885	2105.089	2361.7	1478.5
940.8245	2106.6261	2354.2	1470.3
940.9606	2108.1626	2352	1469.3
941.0965	2109.6983	2380.55	1469.95
941.2325	2111.2332	2349.95	1466.75
941.3684	2112.7675	2343.85	1458.55
941.5044	2114.301	2330.2	1447.6
941.6403	2115.8337	2331.35	1449.65
941.7761	2117.3657	2334.05	1450.15
941.912	2118.897	2331.55	1449.2
942.0478	2120.4276	2329.4	1438.5
942.1835	2121.9575	2322.9	1440.75
942.3193	2123.4866	2326.75	1432.25
942.455	2125.0149	2313.65	1427.2
942.5907	2126.5426	2295.25	1413.7
942.7264	2128.0695	2310.95	1423.85
942.8621	2129.5956	2292.5	1411.8
942.9977	2131.1211	2300.15	1412.55
943.1333	2132.6458	2287.4	1405.3
943.2689	2134.1698	2284.55	1403.2
943.4044	2135.693	2283.4	1397.2
943.54	2137.2155	2284.35	1398.45
943.6755	2138.7373	2269.35	1388.05
943.8109	2140.2584	2268.75	1384.05
943.9464	2141.7787	2277.8	1390.6
944.0818	2143.2983	2268.75	1386.45
944.2172	2144.8171	2251.3	1370.35
944.3526	2146.3353	2256.6	1372.75
944.4879	2147.8527	2247.3	1365.05
944.6232	2149.3693	2251	1367.55
944.7585	2150.8853	2240.15	1358.1
944.8938	2152.4005	2231.2	1347.1
945.029	2153.9149	2241.6	1358.3
945.1642	2155.4287	2218.2	1335.9
945.2994	2156.9417	2226.9	1343.8
945.4346	2158.454	2227.1	1341.6
945.5697	2159.9655	2227.2	1342.65
945.7048	2161.4764	2219.7	1337.2
945.8399	2162.9865	2207.05	1323.45
945.9749	2164.4958	2214.7	1331.2
946.1099	2166.0045	2211.35	1326.15
946.2449	2167.5124	2211.95	1330.65
946.3799	2169.0195	2199.7	1318.7
946.5148	2170.526	2206.6	1323.65
946.6498	2172.0317	2193.5	1310.2
946.7846	2173.5367	2195.7	1311.2
946.9195	2175.0409	2193.1	1310.05
947.0543	2176.5445	2189.95	1309
947.1891	2178.0473	2176	1292.9
947.3239	2179.5494	2178.45	1293.55
947.4587	2181.0507	2183.75	1299.35
947.5934	2182.5513	2168.7	1284.7
947.7281	2184.0512	2176.45	1292.65
947.8628	2185.5504	2174.95	1292.65
947.9974	2187.0488	2155.75	1272.55
948.132	2188.5465	2154.85	1272.4
948.2666	2190.0435	2147.2	1264.95
948.4012	2191.5397	2148.95	1265.8
948.5357	2193.0353	2144.05	1262.05
948.6702	2194.5301	2133.6	1251.5
948.8047	2196.0241	2143.4	1260.1
948.9392	2197.5175	2123.6	1241.65
949.0736	2199.0101	2130.85	1243.85
949.208	2200.502	2121.35	1239.2
949.3424	2201.9931	2105.75	1223.05
949.4767	2203.4835	2114.7	1230.95
949.611	2204.9733	2124.1	1233.7
949.7453	2206.4622	2111.45	1229.85
949.8796	2207.9505	2105.4	1219.3
950.0138	2209.438	2098.75	1216.2
950.148	2210.9248	2101	1219.45
950.2822	2212.4109	2090.1	1207.9
950.4164	2213.8962	2082.75	1199.45
950.5505	2215.3809	2083.15	1197.8
950.6846	2216.8648	2090.3	1208.5
950.8186	2218.3479	2080.05	1193.55
950.9527	2219.8304	2066.9	1181.9
951.0867	2221.3121	2077	1191.35
951.2207	2222.7931	2062.4	1179.8
951.3546	2224.2733	2062.45	1176.45
951.4886	2225.7529	2060.3	1176
951.6225	2227.2317	2059.05	1173.1
951.7563	2228.7098	2052.65	1168.5
951.8902	2230.1872	2039.45	1156.7
952.024	2231.6638	2040.35	1159.15
952.1578	2233.1397	2044.55	1155.65
952.2916	2234.6149	2027.95	1147.5
952.4253	2236.0894	2023.85	1138.2
952.559	2237.5632	2036.7	1144.65
952.6927	2239.0362	2027.3	1143.65
952.8263	2240.5085	2014.5	1132.05
952.9599	2241.9801	2016.5	1133.25
953.0935	2243.4509	2008.5	1126.55
953.2271	2244.921	2007.6	1126.45
953.3606	2246.3904	2004	1118.75
953.4941	2247.8591	2001.25	1118.75
953.6276	2249.3271	1994.25	1111.5
953.7611	2250.7943	1983.25	1101.15
953.8945	2252.2608	1986.25	1105.15
954.0279	2253.7266	1974.65	1092.35
954.1612	2255.1917	1974.8	1091
954.2946	2256.656	1967.75	1083.95
954.4279	2258.1197	1976	1093.1
954.5612	2259.5826	1973.15	1090.35
954.6944	2261.0447	1973.8	1088.9
954.8276	2262.5062	1968.9	1085.05
954.9608	2263.9669	1962.95	1076.95
955.094	2265.4269	1959	1077.15
955.2271	2266.8862	1955.15	1073.1
955.3602	2268.3448	1958.15	1074.75
955.4933	2269.8026	1951.9	1066.15
955.6264	2271.2598	1952.55	1069.95
955.7594	2272.7162	1948.6	1066.35
955.8924	2274.1719	1944.5	1062.45
956.0253	2275.6268	1940.25	1058.1
956.1583	2277.0811	1949.75	1065.95
956.2912	2278.5346	1938.05	1054.7
956.4241	2279.9874	1932.1	1050.05
956.5569	2281.4395	1935.45	1053.6
956.6897	2282.8908	1930.7	1043.2
956.8225	2284.3414	1928.85	1045.2
956.9553	2285.7914	1920	1038.9
957.088	2287.2406	1926.2	1041.45
957.2207	2288.689	1918.25	1034.8
957.3534	2290.1368	1917.5	1034.9
957.486	2291.5838	1906.2	1022.6
957.6186	2293.0302	1914	1030.35
957.7512	2294.4758	1898.05	1014.8
957.8838	2295.9206	1901.65	1015.6
958.0163	2297.3648	1897.4	1012.9
958.1488	2298.8082	1903.1	1018.3
958.2813	2300.251	1894.65	1011.55
958.4137	2301.693	1901.1	1016.5
958.5461	2303.1343	1896.15	1010.75
958.6785	2304.5748	1890.15	1008.2
958.8108	2306.0147	1879.95	996.35
958.9432	2307.4538	1885.85	999.2
959.0754	2308.8922	1869.15	988.05
959.2077	2310.3299	1881.2	997.25
959.3399	2311.7669	1874.6	992.2
959.4721	2313.2031	1864.1	981.8
959.6043	2314.6387	1858.5	975.8
959.7365	2316.0735	1854.95	970.75
959.8686	2317.5076	1861.9	977.8
960.0006	2318.941	1857.5	975.05
960.1327	2320.3737	1851.7	970.3
960.2647	2321.8056	1849.55	963.95
960.3967	2323.2369	1849	964.9
960.5287	2324.6674	1854.15	968.6
960.6606	2326.0972	1842.75	959.8
960.7925	2327.5263	1840.7	958.7
960.9244	2328.9547	1837.25	954.85
961.0562	2330.3823	1843.8	961.35
961.1881	2331.8092	1832.9	948.05
961.3198	2333.2355	1825.1	944.65
961.4516	2334.661	1829.6	945.25
961.5833	2336.0858	1826.9	942.1
961.715	2337.5098	1814.9	932.35
961.8467	2338.9332	1827.5	944
961.9783	2340.3558	1820.85	932.65
962.1099	2341.7778	1817.2	933.9
962.2415	2343.199	1822.85	938.85
962.373	2344.6195	1811.85	928.05
962.5045	2346.0393	1817.55	934.75
962.636	2347.4583	1812.35	928.05
962.7675	2348.8767	1802	917.5
962.8989	2350.2943	1804.65	921.4
963.0303	2351.7113	1807.35	927.3
963.1617	2353.1275	1803.1	919.85
963.293	2354.543	1823.55	914.35
963.4243	2355.9578	1798.95	913.1
963.5556	2357.3718	1795.2	910.75
963.6868	2358.7852	1790.6	904.1
963.818	2360.1978	1797.7	914.8
963.9492	2361.6098	1792.95	910.15
964.0803	2363.021	1784.7	897.05
964.2114	2364.4315	1778.7	894.15
964.3425	2365.8413	1779.2	893.25
964.4736	2367.2504	1774.55	893.4
964.6046	2368.6587	1770.25	887.5
964.7356	2370.0664	1766.1	885.3
964.8666	2371.4733	1765.5	884.6
964.9975	2372.8795	1771.5	889.85
965.1284	2374.285	1760.35	879.65
965.2593	2375.6899	1753.8	870.4
965.3901	2377.0939	1744.45	863.2
965.5209	2378.4973	1747.6	864.95
965.6517	2379.9	1742.3	859.05
965.7825	2381.3019	1742.2	862.05
965.9132	2382.7032	1739.15	856.4
966.0439	2384.1037	1742.15	862.25
966.1745	2385.5035	1734.35	849.5
966.3051	2386.9027	1739.65	857
966.4357	2388.3011	1731	846.3
966.5663	2389.6987	1723.35	841.05
966.6968	2391.0957	1715.3	833.6
966.8273	2392.492	1716	833.85
966.9578	2393.8876	1708.65	826.55
967.0882	2395.2824	1714.1	832.45
967.2186	2396.6765	1703.35	819.6
967.349	2398.07	1700.7	818.9
967.4793	2399.4627	1698.25	813.35
967.6097	2400.8547	1694.95	811.9
967.7399	2402.246	1704.6	817.5
967.8702	2403.6366	1694.1	811
968.0004	2405.0265	1696.7	816.6
968.1306	2406.4156	1701.95	817.15
968.2607	2407.8041	1686	800.85
968.3909	2409.1918	1696.9	812.5
968.521	2410.5789	1678.55	796.25
968.651	2411.9652	1671.95	787.65
968.781	2413.3508	1675.65	795.2
968.911	2414.7358	1678.75	794.95
969.041	2416.12	1678.35	799.25
969.1709	2417.5035	1679.05	797.65
969.3008	2418.8863	1672.5	789.95
969.4307	2420.2684	1668.45	787.6
969.5606	2421.6497	1668.5	785.5
969.6904	2423.0304	1665.15	784
969.8201	2424.4104	1656.7	773.8
969.9499	2425.7896	1660.7	776.3
970.0796	2427.1682	1658.3	776.6
970.2093	2428.546	1650.35	766.9
970.3389	2429.9232	1660.75	776.45
970.4685	2431.2996	1654.85	773.95
970.5981	2432.6753	1650.1	767.8
970.7277	2434.0503	1643.3	760.25
970.8572	2435.4246	1648.5	764.7
970.9867	2436.7982	1645.8	763.35
971.1161	2438.1711	1642	761.2
971.2456	2439.5433	1640.1	756.3
971.375	2440.9148	1634.65	749.5
971.5043	2442.2856	1626.75	745.65
971.6336	2443.6557	1627.2	742.15
971.7629	2445.025	1627	745.55
971.8922	2446.3937	1625.4	743.1
972.0214	2447.7617	1623.55	739.95
972.1506	2449.1289	1616.6	734.9
972.2798	2450.4955	1621.5	734.4
972.4089	2451.8613	1620.35	742.25
972.538	2453.2265	1620.9	738.65
972.6671	2454.5909	1613.95	731.45
972.7961	2455.9546	1617.1	735.25
972.9251	2457.3177	1606.55	724.1
973.0541	2458.68	1608.3	724.75
973.1831	2460.0416	1603.35	720.8
973.312	2461.4025	1614.8	731.3
973.4408	2462.7627	1628.5	734.55
973.5697	2464.1222	1599.45	717.95
973.6985	2465.4811	1600	716.45
973.8273	2466.8392	1601.05	719
973.956	2468.1966	1602.9	718.4
974.0847	2469.5533	1600.65	716.55
974.2134	2470.9093	1598.7	715.7
974.3421	2472.2645	1593.4	710.1
974.4707	2473.6191	1594.8	713.7
974.5993	2474.973	1596.15	711.65
974.7278	2476.3262	1589.55	707.5
974.8563	2477.6787	1582.65	698.4
974.9848	2479.0305	1585.95	704.6
975.1132	2480.3816	1589.4	704.45
975.2417	2481.7319	1581.8	699.95
975.37	2483.0816	1581.6	697.4
975.4984	2484.4306	1587.2	703.1
975.6267	2485.7789	1578.8	698.5
975.755	2487.1264	1577.3	692.75
975.8833	2488.4733	1569.25	684.7
976.0115	2489.8195	1579.4	678.7
976.1397	2491.165	1573.7	686.6
976.2678	2492.5097	1569.85	686.35
976.3959	2493.8538	1557.35	675.55
976.524	2495.1972	1555.85	673.7
976.6521	2496.5398	1556.35	673.75
976.7801	2497.8818	1557.6	671.25
976.9081	2499.2231	1551.95	669.85
977.036	2500.5637	1550.35	665.55
977.164	2501.9035	1554.3	669.6
977.2918	2503.2427	1554.7	668.75
977.4197	2504.5812	1539.5	657.25
977.5475	2505.919	1549.6	664.85
977.6753	2507.256	1542.45	660.35
977.8031	2508.5924	1541.35	660.75
977.9308	2509.9281	1546.3	657.45
978.0585	2511.2631	1535.05	653.05
978.1861	2512.5974	1538.8	656
978.3137	2513.9309	1538.55	655
978.4413	2515.2638	1560.1	649.75
978.5689	2516.596	1534.55	651.95
978.6964	2517.9275	1530.45	648.1
978.8239	2519.2583	1534.1	652.7
978.9513	2520.5884	1531.85	646.5
979.0788	2521.9178	1522.1	638.05
979.2062	2523.2465	1528.5	646.4
979.3335	2524.5745	1522.85	638.95
979.4608	2525.9018	1510.15	626.3
979.5881	2527.2284	1514.55	633.8
979.7154	2528.5543	1515.05	632.85
979.8426	2529.8796	1512.35	629.7
979.9698	2531.2041	1518.2	637.3
980.0969	2532.5279	1513.3	631.05
980.224	2533.851	1509.5	627.5
980.3511	2535.1735	1503.95	621.8
980.4781	2536.4952	1500.65	619.4
980.6052	2537.8163	1507.95	623.7
980.7321	2539.1366	1508.55	625.8
980.8591	2540.4562	1505.2	621.85
980.986	2541.7752	1502.8	621.95
981.1129	2543.0935	1497.15	614
981.2397	2544.411	1503.2	621.15
981.3665	2545.7279	1501.55	617.65
981.4933	2547.0441	1497.1	613.9
981.62	2548.3596	1496.65	610
981.7467	2549.6744	1493.2	611.25
981.8734	2550.9885	1493.85	611.85
982.0001	2552.3019	1490.2	606.2
982.1267	2553.6146	1490.9	610.15
982.2532	2554.9266	1486.65	603.9
982.3798	2556.2379	1481.85	596.4
982.5063	2557.5485	1478.8	597.1
982.6327	2558.8585	1484.85	594.25
982.7592	2560.1677	1484.6	597.35
982.8856	2561.4762	1479.95	597.7
983.0119	2562.7841	1476.35	590.6
983.1383	2564.0913	1470.25	587.4
983.2646	2565.3977	1478.2	596.55
983.3908	2566.7035	1472.45	589.4
983.517	2568.0086	1481	596.65
983.6432	2569.313	1470.05	588.85
983.7694	2570.6167	1476.7	592.05
983.8955	2571.9197	1468.35	584.75
984.0216	2573.222	1472.7	586.4
984.1476	2574.5236	1477.15	593.75
984.2737	2575.8246	1472.9	585.7
984.3996	2577.1248	1468.6	584.95
984.5256	2578.4244	1463.55	579.7
984.6515	2579.7232	1475.2	594.15
984.7774	2581.0214	1501.5	588.3
984.9032	2582.3189	1467.95	586.65
985.029	2583.6157	1470.15	584.8
985.1548	2584.9118	1466.8	584.5
985.2806	2586.2072	1463.7	580.9
985.4063	2587.5019	1470.95	588.75
985.5319	2588.7959	1465.1	580.4
985.6576	2590.0893	1472.15	589.3
985.7832	2591.3819	1471.75	590.75
985.9087	2592.6739	1471.25	589.4
986.0343	2593.9652	1480.25	595.55
986.1597	2595.2557	1471.2	590.4
986.2852	2596.5456	1485.05	600.95
986.4106	2597.8348	1477.85	594.25
986.536	2599.1234	1474.45	591.85
986.6614	2600.4112	1481.85	598.3
986.7867	2601.6983	1482.95	597
986.912	2602.9848	1473.55	590.5
987.0372	2604.2705	1479.5	590.1
987.1624	2605.5556	1479.25	596.95
987.2876	2606.84	1468.75	584.3
987.4128	2608.1237	1471.7	589.45
987.5379	2609.4067	1466.85	582.6
987.6629	2610.689	1474.7	582.75
987.788	2611.9707	1465.95	581.15
987.913	2613.2516	1471.6	584.25
988.0379	2614.5319	1468.6	585.95
988.1629	2615.8115	1457.5	573.85
988.2878	2617.0903	1461.3	576.65
988.4126	2618.3685	1456	572.65
988.5375	2619.6461	1460.5	579.2
988.6622	2620.9229	1456.35	572.35
988.787	2622.199	1457.25	574.4
988.9117	2623.4745	1459.3	574.65
989.0364	2624.7493	1449.65	567.45
989.161	2626.0234	1453.45	572.05
989.2857	2627.2968	1456.25	575.35
989.4102	2628.5695	1456.65	571.25
989.5348	2629.8415	1449.05	566.7
989.6593	2631.1128	1452.95	567.9
989.7837	2632.3835	1447.9	565.45
989.9082	2633.6535	1452.35	569.2
990.0326	2634.9228	1448.4	567.35
990.1569	2636.1914	1448.75	567.6
990.2812	2637.4593	1443.75	560.3
990.4055	2638.7265	1447.05	563.25
990.5298	2639.9931	1448.85	568.25
990.654	2641.259	1451.4	568.1
990.7782	2642.5242	1438.7	554.05
990.9023	2643.7887	1438.5	554.95
991.0264	2645.0525	1443.5	559.4
991.1505	2646.3156	1434.1	548.4
991.2745	2647.5781	1435.9	553.2
991.3985	2648.8398	1430.45	547.85
991.5225	2650.1009	1467.1	546.6
991.6464	2651.3613	1429.3	546.35
991.7703	2652.6211	1427.3	542.6
991.8942	2653.8801	1428.05	547.25
992.018	2655.1385	1427.15	543.5
992.1418	2656.3961	1426.2	543.05
992.2655	2657.6531	1429.7	548.9
992.3892	2658.9094	1429	548
992.5129	2660.1651	1425.95	544.7
992.6366	2661.42	1433.3	551.25
992.7602	2662.6743	1429.3	544.65
992.8837	2663.9279	1443	560.25
993.0073	2665.1808	1434.85	553.05
993.1307	2666.433	1436.25	552.55
993.2542	2667.6846	1433	551.7
993.3776	2668.9354	1438.2	551.9
993.501	2670.1856	1440.8	557.25
993.6244	2671.4351	1436.85	554.25
993.7477	2672.6839	1448.05	564.15
993.8709	2673.9321	1446.45	565.65
993.9942	2675.1795	1453.65	569.9
994.1174	2676.4263	1457.25	573.65
994.2405	2677.6724	1445.35	563.95
994.3637	2678.9179	1453.35	568.8
994.4868	2680.1626	1450.4	568.75
994.6098	2681.4067	1461.05	578.45
994.7328	2682.6501	1448.35	564.3
994.8558	2683.8928	1447.65	564.1
994.9788	2685.1348	1445.95	563.3
995.1017	2686.3761	1441.65	559.3
995.2245	2687.6168	1437.1	554.85
995.3474	2688.8568	1445.4	561.7
995.4702	2690.0961	1430.95	550.85
995.5929	2691.3348	1432	547.75
995.7156	2692.5727	1424	541
995.8383	2693.81	1428	545
995.961	2695.0466	1426.8	545.35
996.0836	2696.2826	1427.1	543.95
996.2062	2697.5178	1425.6	539.05
996.3287	2698.7524	1426.4	543.05
996.4512	2699.9863	1437.05	553.7
996.5737	2701.2195	1423.6	540.25
996.6961	2702.452	1432.2	547.9
996.8185	2703.6839	1436.2	551
996.9408	2704.9151	1446.45	564.4
997.0631	2706.1456	1455.25	573.45
997.1854	2707.3755	1454.9	571.3
997.3077	2708.6046	1457.9	573.1
997.4299	2709.8331	1461.85	578.8
997.552	2711.0609	1463.85	580.85
997.6742	2712.2881	1479.8	596.85
997.7963	2713.5145	1488.95	605.35
997.9183	2714.7403	1496.9	614.25
998.0403	2715.9654	1506.75	622.35
998.1623	2717.1899	1542.05	643.35
998.2842	2718.4136	1522.25	638.85
998.4062	2719.6367	1540.7	655.85
998.528	2720.8591	1560.65	670.5
998.6498	2722.0809	1564.65	681.05
998.7716	2723.3019	1575.25	689.5
998.8934	2724.5223	1580.2	694
999.0151	2725.7421	1587.35	702.8
999.1368	2726.9611	1592.75	707.3
999.2584	2728.1795	1591.5	703.3
999.38	2729.3972	1585.1	702.2
999.5016	2730.6142	1585.6	690.1
999.6231	2731.8306	1556.6	673.1
999.7446	2733.0462	1542.75	657.65
999.8661	2734.2612	1526.8	639.5
999.9875	2735.4756	1512.65	627.9
1000.1089	2736.6892	1489.4	606.8
1000.2302	2737.9022	1487.55	606.55
1000.3515	2739.1145	1461.15	577.9
1000.4728	2740.3262	1462.7	571.1
1000.594	2741.5372	1443.25	560.35
1000.7152	2742.7475	1430.25	545.05
1000.8363	2743.9571	1421.35	538.05
1000.9575	2745.1661	1414.2	524.85
1001.0785	2746.3744	1397.35	512.2
1001.1996	2747.582	1388.3	505.5
1001.3206	2748.7889	1386.1	501.5
1001.4415	2749.9952	1381.1	500.6
1001.5625	2751.2008	1372.05	488.5
1001.6833	2752.4057	1375.5	491.1
1001.8042	2753.61	1367.45	482.95
1001.925	2754.8136	1367.05	481.6
1002.0458	2756.0165	1363.35	481.25
1002.1665	2757.2188	1359.45	475.5
1002.2872	2758.4204	1356.85	473.6
1002.4078	2759.6213	1359.8	474.95
1002.5285	2760.8215	1370.85	480.1
1002.649	2762.0211	1367.15	482.45
1002.7696	2763.22	1363.5	478.2
1002.8901	2764.4182	1357.75	473.55
1003.0106	2765.6158	1348.5	464.4
1003.131	2766.8127	1359.1	476.55
1003.2514	2768.009	1347.35	464.45
1003.3717	2769.2045	1353.85	472.15
1003.492	2770.3994	1354.1	469.95
1003.6123	2771.5936	1345.3	461.1
1003.7325	2772.7872	1339.85	457.85
1003.8527	2773.9801	1342.15	458.35
1003.9729	2775.1723	1356.7	457.45
1004.093	2776.3639	1339.85	455.55
1004.2131	2777.5548	1339.55	455
1004.3331	2778.745	1340.1	456.6
1004.4531	2779.9346	1340.05	458.75
1004.5731	2781.1235	1349.05	465.85
1004.693	2782.3117	1353.7	470.3
1004.8129	2783.4992	1353.95	470.75
1004.9328	2784.6861	1356.2	473.55
1005.0526	2785.8723	1373.5	488.2
1005.1723	2787.0579	1372.2	488.4
1005.2921	2788.2428	1379.1	495.4
1005.4118	2789.427	1393.8	510.05
1005.5314	2790.6106	1398.9	514.2
1005.651	2791.7935	1412.8	529
1005.7706	2792.9757	1416.85	534.05
1005.8902	2794.1573	1433.9	550
1006.0097	2795.3382	1442.95	558.8
1006.1291	2796.5184	1458.15	578.75
1006.2485	2797.698	1473.25	587.7
1006.3679	2798.8769	1493.7	609.75
1006.4873	2800.0551	1508.2	623.45
1006.6066	2801.2327	1531	644.15
1006.7258	2802.4096	1547.45	666.3
1006.8451	2803.5859	1567.4	683.4
1006.9642	2804.7615	1583.45	699.5
1007.0834	2805.9364	1610.65	730.4
1007.2025	2807.1106	1640.5	756.25
1007.3216	2808.2842	1667.85	784.35
1007.4406	2809.4572	1705.1	821.55
1007.5596	2810.6294	1732.85	846.7
1007.6785	2811.801	1778.9	895.45
1007.7975	2812.972	1825.15	942.75
1007.9163	2814.1423	1857.95	974.6
1008.0352	2815.3119	1906.6	1022.75
1008.154	2816.4808	1953.65	1073.25
1008.2727	2817.6491	2011.7	1126.45
1008.3914	2818.8167	2064.45	1182.65
1008.5101	2819.9837	2115.1	1226.25
1008.6288	2821.15	2162.2	1277.5
1008.7474	2822.3157	2207.45	1324.05
1008.8659	2823.4807	2258.35	1374.55
1008.9844	2824.645	2308.5	1422.45
1009.1029	2825.8086	2348.65	1467.8
1009.2214	2826.9716	2383.8	1500.65
1009.3398	2828.134	2432.7	1550.25
1009.4581	2829.2957	2478.75	1597.1
1009.5764	2830.4567	2500.2	1618.75
1009.6947	2831.617	2511.85	1628.35
1009.813	2832.7767	2522.95	1640.55
1009.9312	2833.9358	2530.25	1647.5
1010.0493	2835.0941	2512.65	1627.9
1010.1675	2836.2519	2509.5	1627.5
1010.2855	2837.4089	2495.2	1612.35
1010.4036	2838.5653	2489.9	1608.45
1010.5216	2839.7211	2484.85	1603.8
1010.6396	2840.8761	2492.5	1608.2
1010.7575	2842.0306	2507.45	1626.45
1010.8754	2843.1843	2550.65	1667.25
1010.9932	2844.3374	2583.15	1699.1
1011.111	2845.4899	2647.15	1762.1
1011.2288	2846.6417	2718.95	1834.95
1011.3465	2847.7928	2800.8	1916.7
1011.4642	2848.9433	2873.65	1989.8
1011.5818	2850.0931	2955	2071.35
1011.6995	2851.2422	3036.1	2150.6
1011.817	2852.3907	3102	2219.6
1011.9345	2853.5385	3170.75	2284.9
1012.052	2854.6857	3233.4	2323.3
1012.1695	2855.8323	3280.15	2397.55
1012.2869	2856.9781	3321.3	2439.95
1012.4042	2858.1233	3376.1	2495.05
1012.5216	2859.2679	3418.8	2536.95
1012.6389	2860.4118	3480	2596.25
1012.7561	2861.555	3527.7	2641
1012.8733	2862.6976	3570.05	2682.4
1012.9905	2863.8395	3576.65	2693.6
1013.1076	2864.9808	3611.15	2728.8
1013.2247	2866.1214	3631.95	2749.3
1013.3417	2867.2614	3647	2764.2
1013.4587	2868.4007	3663.95	2779.4
1013.5757	2869.5393	3662.95	2778.05
1013.6926	2870.6773	3690.6	2806.05
1013.8095	2871.8146	3696.95	2809.85
1013.9263	2872.9513	3693.2	2806.5
1014.0431	2874.0874	3699.65	2815
1014.1599	2875.2227	3685.25	2801.05
1014.2766	2876.3574	3672.15	2790.15
1014.3933	2877.4915	3656.15	2773.75
1014.51	2878.6249	3620	2740.25
1014.6266	2879.7577	3603.55	2717.85
1014.7431	2880.8898	3581.05	2687.85
1014.8596	2882.0212	3567.15	2686.2
1014.9761	2883.152	3550.15	2666.2
1015.0925	2884.2821	3541.35	2658.15
1015.2089	2885.4116	3532.2	2647.9
1015.3253	2886.5405	3533.45	2650.55
1015.4416	2887.6686	3534.75	2649.35
1015.5579	2888.7962	3549.45	2669.2
1015.6741	2889.923	3570.1	2686.85
1015.7903	2891.0493	3587.8	2708.5
1015.9065	2892.1748	3584	2701.6
1016.0226	2893.2997	3591.45	2710.25
1016.1387	2894.424	3611.2	2729.55
1016.2547	2895.5476	3614.15	2732.15
1016.3707	2896.6706	3653.75	2771.35
1016.4866	2897.7929	3674.95	2791.85
1016.6025	2898.9145	3706.2	2827
1016.7184	2900.0355	3736.05	2851.5
1016.8342	2901.1559	3763.7	2880.5
1016.95	2902.2756	3806.15	2922.95
1017.0658	2903.3946	3829.75	2945.2
1017.1815	2904.513	3867.75	2982.4
1017.2971	2905.6308	3886.45	3003.9
1017.4127	2906.7479	3917.55	3031.55
1017.5283	2907.8643	3941.8	3058.1
1017.6439	2908.9801	3944.3	3060.7
1017.7594	2910.0953	3964.75	3082.15
1017.8748	2911.2098	3963.75	3077.1
1017.9902	2912.3236	3954.05	3064.15
1018.1056	2913.4368	3927.5	3041.35
1018.2209	2914.5494	3921.75	3038.5
1018.3362	2915.6613	3899.95	3011.35
1018.4515	2916.7725	3876.95	2990.15
1018.5667	2917.8831	3848.1	2964.05
1018.6819	2918.9931	3807.6	2922.55
1018.797	2920.1024	3782.6	2898.1
1018.9121	2921.211	3748.4	2868.1
1019.0271	2922.319	3725.75	2842
1019.1421	2923.4264	3714.4	2831
1019.2571	2924.5331	3715.85	2833.7
1019.372	2925.6391	3702.6	2815.8
1019.4869	2926.7445	3697.1	2816.25
1019.6017	2927.8493	3708.05	2824.85
1019.7165	2928.9534	3680.9	2797.05
1019.8313	2930.0569	3683.3	2799.15
1019.946	2931.1597	3673.4	2789.95
1020.0606	2932.2619	3663.6	2780
1020.1753	2933.3634	3655.15	2770.6
1020.2899	2934.4643	3654.8	2764.9
1020.4044	2935.5645	3620.35	2731.15
1020.5189	2936.6641	3591.9	2704.05
1020.6334	2937.763	3555.95	2673.8
1020.7478	2938.8613	3499.1	2614
1020.8622	2939.959	3456.15	2568
1020.9765	2941.056	3377.15	2497.15
1021.0908	2942.1523	3299.15	2415.35
1021.2051	2943.248	3216.85	2336.15
1021.3193	2944.3431	3101.7	2219.5
1021.4334	2945.4375	3001.1	2118.3
1021.5476	2946.5313	2904.05	2024.35
1021.6617	2947.6244	2806.85	1923.2
1021.7757	2948.7169	2705.95	1821.45
1021.8897	2949.8087	2599.3	1716.75
1022.0037	2950.8999	2513.25	1632.1
1022.1176	2951.9904	2425.7	1543.85
1022.2315	2953.0803	2363.9	1479.7
1022.3453	2954.1696	2291.75	1408.65
1022.4591	2955.2582	2236.3	1355
1022.5728	2956.3462	2198.5	1315.1
1022.6865	2957.4335	2159.1	1275.15
1022.8002	2958.5202	2110.4	1224.9
1022.9138	2959.6062	2093.95	1213.5
1023.0274	2960.6916	2068.45	1185.45
1023.141	2961.7764	2044.05	1161.7
1023.2545	2962.8605	2024.25	1140.3
1023.3679	2963.9439	2020.75	1136.5
1023.4813	2965.0267	2008.85	1125.5
1023.5947	2966.1089	2017.35	1112.5
1023.708	2967.1905	1991.5	1108.35
1023.8213	2968.2714	1991.9	1109.9
1023.9346	2969.3516	1980	1097.85
1024.0478	2970.4312	1999.65	1109.85
1024.1609	2971.5102	1985.45	1103.2
1024.274	2972.5885	1996.25	1112.5
1024.3871	2973.6662	2005.2	1118.75
1024.5002	2974.7432	1998.3	1117.5
1024.6132	2975.8196	1984.95	1102.3
1024.7261	2976.8954	1979.25	1097.85
1024.839	2977.9705	1967.25	1083.95
1024.9519	2979.045	1951.9	1072.65
1025.0647	2980.1188	1936.85	1056.35
1025.1775	2981.192	1924.3	1041.75
1025.2902	2982.2645	1903.5	1020.45
1025.4029	2983.3364	1871	988.65
1025.5156	2984.4077	1840	956.05
1025.6282	2985.4783	1814.25	927.15
1025.7407	2986.5483	1776.45	894.4
1025.8532	2987.6177	1739.75	858.25
1025.9657	2988.6864	1719.3	837.25
1026.0782	2989.7545	1678.5	794.8
1026.1906	2990.8219	1645.2	763.45
1026.3029	2991.8887	1621.95	736.75
1026.4152	2992.9548	1586.1	703.7
1026.5275	2994.0204	1556.6	673.9
1026.6397	2995.0852	1518.9	638.3
1026.7519	2996.1495	1496.45	612.2
1026.864	2997.2131	1473.1	589.7
1026.9761	2998.276	1448.45	564.95
1027.0882	2999.3383	1438.2	554.85
1027.2002	3000.4	1420.45	536.1
1027.3122	3001.4611	1394.15	513.2
1027.4241	3002.5215	1392	508.4
1027.536	3003.5812	1369.4	487.35
1027.6478	3004.6404	1363.2	480.85
1027.7596	3005.6989	1349.5	463.85
1027.8714	3006.7567	1334.1	451
1027.9831	3007.8139	1357.25	449.45
1028.0947	3008.8705	1322.8	439.45
1028.2064	3009.9264	1341.6	442.05
1028.3179	3010.9818	1319.3	436.65
1028.4295	3012.0364	1309.7	425.75
1028.541	3013.0905	1305.75	423.35
1028.6524	3014.1439	1308.8	426.85
1028.7638	3015.1966	1306.2	423.1
1028.8752	3016.2487	1297.05	413.9
1028.9865	3017.3002	1308.4	421.05
1029.0978	3018.3511	1299.85	418.3
1029.209	3019.4013	1298.6	416.1
1029.3202	3020.4509	1305.9	423.6
1029.4314	3021.4998	1307.2	425.3
1029.5425	3022.5481	1300.5	418.9
1029.6535	3023.5958	1302.85	422.55
1029.7645	3024.6428	1305.2	422.8
1029.8755	3025.6892	1306.2	425.15
1029.9864	3026.735	1308.6	426.15
1030.0973	3027.7802	1312.9	430.75
1030.2082	3028.8247	1315.6	433.7
1030.319	3029.8685	1311.3	429.65
1030.4297	3030.9118	1317.15	432.5
1030.5404	3031.9544	1323.8	443.8
1030.6511	3032.9963	1327	443.2
1030.7617	3034.0376	1329.15	446.15
1030.8723	3035.0783	1342.9	456.05
1030.9829	3036.1184	1340.65	458.7
1031.0934	3037.1578	1340	460.4
1031.2038	3038.1966	1349.5	464.95
1031.3142	3039.2348	1342.3	460.2
1031.4246	3040.2723	1353.75	463.15
1031.5349	3041.3092	1345.15	465.7
1031.6452	3042.3455	1338.25	455.9
1031.7554	3043.3811	1344.35	461.65
1031.8656	3044.4161	1339.15	458
1031.9758	3045.4505	1335.15	454
1032.0859	3046.4842	1331.85	449.2
1032.1959	3047.5173	1318.3	435.75
1032.3059	3048.5498	1317.15	437.4
1032.4159	3049.5816	1313	430.1
1032.5258	3050.6128	1310.75	429.65
1032.6357	3051.6434	1295.6	412.05
1032.7455	3052.6734	1296.5	413.9
1032.8553	3053.7027	1286.7	404.8
1032.9651	3054.7314	1283.25	400.35
1033.0748	3055.7594	1275.3	393.45
1033.1845	3056.7868	1267.7	383
1033.2941	3057.8136	1259.05	376.3
1033.4037	3058.8398	1261.35	380.75
1033.5132	3059.8653	1253.8	372.15
1033.6227	3060.8902	1256.1	375.7
1033.7321	3061.9145	1239.3	356.4
1033.8415	3062.9381	1240.55	360.2
1033.9509	3063.9612	1254.15	355.75
1034.0602	3064.9835	1229.95	346.2
1034.1694	3066.0053	1230.9	347.45
1034.2787	3067.0264	1218.25	335.4
1034.3878	3068.0469	1207.2	325
1034.497	3069.0668	1208.05	322.05
1034.6061	3070.086	1196.2	315.8
1034.7151	3071.1046	1195.05	309.1
1034.8241	3072.1226	1184.65	301
1034.9331	3073.1399	1175.1	292.95
1035.042	3074.1567	1171.35	291.75
1035.1508	3075.1727	1161.15	276.3
1035.2597	3076.1882	1146.55	263
1035.3684	3077.203	1137.05	256.55
1035.4772	3078.2173	1136.7	251.5
1035.5859	3079.2308	1123	237.05
1035.6945	3080.2438	1115.6	231.1
1035.8031	3081.2561	1106.7	226.05
1035.9117	3082.2678	1101.45	218.65
1036.0202	3083.2789	1095.25	212.45
1036.1286	3084.2893	1094.95	211.15
1036.2371	3085.2991	1086.4	204.25
1036.3454	3086.3083	1082.9	197.45
1036.4538	3087.3169	1075	190.65
1036.562	3088.3248	1067.75	183.2
1036.6703	3089.3321	1067.65	184.85
1036.7785	3090.3388	1061.8	178.85
1036.8866	3091.3449	1058.15	175.45
1036.9948	3092.3503	1061.8	175.8
1037.1028	3093.3551	1052.1	170.5
1037.2108	3094.3593	1046.6	166.3
1037.3188	3095.3629	1039.65	158.7
1037.4267	3096.3658	1043.4	161.45
1037.5346	3097.3681	1039.05	156.05
1037.6425	3098.3698	1036.65	154.7
1037.7503	3099.3708	1036.7	149.35
1037.858	3100.3713	1032.5	151.5
1037.9657	3101.3711	1030.65	146.85
1038.0734	3102.3702	1167.55	143.15
1038.181	3103.3688	1026.9	144.55
1038.2886	3104.3667	1019.75	139.6
1038.3961	3105.364	1023.55	141.8
1038.5036	3106.3607	1021.65	138.6
1038.611	3107.3568	1019.1	134.7
1038.7184	3108.3522	1020.25	137.6
1038.8257	3109.347	1018.45	134.7
1038.933	3110.3412	1016.9	129.6
1039.0403	3111.3348	1012	131.45
1039.1475	3112.3277	1013.4	130.45
1039.2547	3113.32	1013.4	133.75
1039.3618	3114.3117	1012.05	129.1
1039.4689	3115.3028	1007.5	125.25
1039.5759	3116.2932	1010.15	126.8
1039.6829	3117.2831	1011.4	121.4
1039.7898	3118.2723	1002.9	121
1039.8967	3119.2608	1001.45	118.85
1040.0035	3120.2488	1001.1	118.85
1040.1103	3121.2361	999.45	118.35
1040.2171	3122.2229	999.6	117.75
1040.3238	3123.209	1000.75	117.65
1040.4305	3124.1944	995.2	116.15
1040.5371	3125.1793	994.8	109.65
1040.6437	3126.1635	994.95	112.1
1040.7502	3127.1471	996.15	112.4
1040.8567	3128.1301	992.45	109.45
1040.9631	3129.1125	991.2	108.6
1041.0695	3130.0942	994.05	111.1
1041.1759	3131.0753	1002.45	111.75
1041.2822	3132.0558	993	108.25
1041.3884	3133.0357	986.85	104.9
1041.4946	3134.015	984.85	101.7
1041.6008	3134.9936	987.65	104.05
1041.7069	3135.9716	1007.35	102.65
1041.813	3136.949	980.95	98.65
1041.919	3137.9258	1002.25	101.8
1042.025	3138.902	987.45	97.9
1042.1309	3139.8775	982.05	98.65
1042.2368	3140.8524	980.6	96.25
1042.3427	3141.8267	980.95	96.05
1042.4485	3142.8004	977.95	96.65
1042.5542	3143.7735	979.7	89.3
1042.6599	3144.7459	978.95	94.65
1042.7656	3145.7178	980.7	98.9
1042.8712	3146.689	971.75	91.2
1042.9768	3147.6596	977.55	94.85
1043.0823	3148.6295	976	92.9
1043.1878	3149.5989	974.1	91.9
1043.2932	3150.5676	969	87.25
1043.3986	3151.5357	970	89.75
1043.5039	3152.5032	969	88.15
1043.6092	3153.4701	968.7	85.6
1043.7145	3154.4364	970.6	85.55
1043.8197	3155.402	966.35	86.05
1043.9248	3156.367	968.75	85.2
1044.03	3157.3315	1003.05	83.3
1044.135	3158.2952	968.05	85.2
1044.24	3159.2584	964	82.9
1044.345	3160.221	964.75	83.1
1044.4499	3161.1829	966.7	85.3
1044.5548	3162.1442	961.95	81.55
1044.6596	3163.105	964.85	81.75
1044.7644	3164.065	960.55	79.55
1044.8692	3165.0245	963.95	77.45
1044.9739	3165.9834	959.65	80.3
1045.0785	3166.9416	961.2	78.4
1045.1831	3167.8993	959.7	76.9
1045.2877	3168.8563	960.3	77.15
1045.3922	3169.8127	962.05	80.1
1045.4966	3170.7684	955.8	73.15
1045.6011	3171.7236	960.45	77.35
1045.7054	3172.6782	957.7	75.15
1045.8098	3173.6321	956.8	76.45
1045.914	3174.5854	961.55	74.15
1046.0183	3175.5381	955.8	73.45
1046.1224	3176.4902	953.35	72.1
1046.2266	3177.4417	954.85	71.1
1046.3307	3178.3926	953.55	70.75
1046.4347	3179.3428	952	70.3
1046.5387	3180.2924	953.35	72.45
1046.6427	3181.2415	950.7	69.75
1046.7466	3182.1899	953.4	70.15
1046.8504	3183.1377	949.4	68.75
1046.9542	3184.0848	951.85	67.6
1047.058	3185.0314	951.55	68.35
1047.1617	3185.9773	948.65	67.05
1047.2654	3186.9227	954.5	71.85
1047.369	3187.8674	951.1	69.1
1047.4726	3188.8115	951.3	64.9
1047.5761	3189.755	948.6	66.4
1047.6796	3190.6979	949.1	67.15
1047.783	3191.6402	946.4	65.15
1047.8864	3192.5818	948.6	67.25
1047.9898	3193.5229	965.5	63.6
1048.0931	3194.4633	948.55	66.9
1048.1963	3195.4031	948.25	67.65
1048.2995	3196.3423	948.05	65.6
1048.4027	3197.2809	947.85	65.5
1048.5058	3198.2189	947.45	63.85
1048.6089	3199.1563	963.45	62.85
1048.7119	3200.0931	942.25	60.55
1048.8148	3201.0292	947.1	66.9
1048.9178	3201.9648	939.7	57.7
1049.0206	3202.8997	946.9	63.65
1049.1235	3203.834	943.85	61.45
1049.2262	3204.7677	940.5	59.85
1049.329	3205.7008	942.6	59.75
1049.4317	3206.6333	938.85	59.75
1049.5343	3207.5652	944.6	61.85
1049.6369	3208.4964	942.8	59.9
1049.7394	3209.4271	938.4	56.55
1049.8419	3210.3571	938.7	57.8
1049.9444	3211.2865	940.7	56.3
1050.0468	3212.2154	940.95	60.15
1050.1491	3213.1436	941.65	56
1050.2514	3214.0712	940.6	51.5
1050.3537	3214.9982	940.5	58.35
1050.4559	3215.9246	939.05	56.6
1050.5581	3216.8503	934.95	54.6
1050.6602	3217.7755	935.65	52.5
1050.7623	3218.7001	939.7	58.9
1050.8643	3219.624	938.1	58.25
1050.9663	3220.5473	936.5	53.45
1051.0682	3221.4701	939.85	57.65
1051.1701	3222.3922	939.05	53.1
1051.2719	3223.3137	937.05	54.3
1051.3737	3224.2346	933.55	51.35
1051.4754	3225.1549	936.1	54
1051.5771	3226.0746	934.9	51.75
1051.6788	3226.9937	934.6	51.5
1051.7804	3227.9121	934.1	55.55
1051.8819	3228.83	932.9	51.45
1051.9834	3229.7473	934.75	50.35
1052.0849	3230.6639	932.1	51.8
1052.1863	3231.5799	933.45	52.4
1052.2876	3232.4954	934.85	51.65
1052.3889	3233.4102	931.5	50
1052.4902	3234.3244	932.85	50.75
1052.5914	3235.238	930.25	50.9
1052.6926	3236.151	958.05	53.3
1052.7937	3237.0634	932.55	51.4
1052.8948	3237.9752	932.65	51.3
1052.9958	3238.8864	934	51.4
1053.0968	3239.797	930.85	49.95
1053.1977	3240.7069	930.6	47.85
1053.2986	3241.6163	931.9	51.15
1053.3994	3242.5251	930.45	50.9
1053.5002	3243.4332	930.65	49.4
1053.6009	3244.3408	930.4	49.1
1053.7016	3245.2477	928.4	46.4
1053.8022	3246.154	929.5	48.6
1053.9028	3247.0598	928.75	46.25
1054.0034	3247.9649	926.7	46.1
1054.1039	3248.8694	925.15	42.7
1054.2043	3249.7733	927.15	46.3
1054.3047	3250.6766	924.35	43.25
1054.4051	3251.5793	925.6	42.85
1054.5054	3252.4814	925.75	43.55
1054.6056	3253.3829	924.85	42.2
1054.7058	3254.2838	922.45	41.35
1054.806	3255.1841	924.5	44.15
1054.9061	3256.0838	922.25	41.85
1055.0061	3256.9829	923.95	44.1
1055.1062	3257.8814	928.55	44.1
1055.2061	3258.7792	925.55	41.7
1055.306	3259.6765	924.7	42
1055.4059	3260.5731	919	38.4
1055.5057	3261.4692	919	37
1055.6055	3262.3647	919.8	36.8
1055.7052	3263.2595	918.45	38.3
1055.8049	3264.1538	920.6	39.2
1055.9045	3265.0474	918.8	37.5
1056.0041	3265.9404	914.9	34.85
1056.1036	3266.8329	916.85	36.2
1056.2031	3267.7247	925.25	35
1056.3025	3268.616	915.75	34.85
1056.4019	3269.5066	914.65	32.3
1056.5013	3270.3966	916.95	33
1056.6005	3271.286	911	27.8
