Software Version:	3.9.2.0
Unit SN:	10000200
Spectrometer SN:	6960
Date:	3/14/2024 1:34:45 PM
Data Line Index:	25
Spectral Points:	2048
Integration time (ms):	125
Averages:	20
Delay (ms):	30000
Sequence Number:	1
Processing:	dark subtract
Laser Power (mW):	305
Laser Current (mA):	824
Laser Diode Temp (C):	25
Laser Case Temp (C):	28.6
System Temp (C):	28.6
Spectrometer Temp (C):	26.4
CCD Temp (C):	0.012
Secondary Temp (C):	20.004
Heatsink Temp (C):	24.575
CCDPCB Temp (C):	38.208
SecondaryPCB Temp (C):	35.662

Wavelength	RamanShift	Raw Counts	Dark Subtracted
787.061	30.1047	466.65	56.25
787.2016	32.3739	464.9	53.95
787.3422	34.6426	469.15	57.65
787.4828	36.9109	477.15	65.55
787.6235	39.1787	488.1	71.65
787.7642	41.4461	498.25	76.15
787.9049	43.7131	506.7	81.4
788.0456	45.9796	512.35	85.1
788.1863	48.2456	524.25	91.75
788.3271	50.5112	534.7	96.85
788.4679	52.7764	544.95	105.8
788.6087	55.0411	561.8	117.5
788.7496	57.3054	566.95	117.9
788.8904	59.5692	581.9	132.3
789.0313	61.8326	599.65	146.45
789.1722	64.0955	607.55	150.05
789.3132	66.3579	626.75	163.3
789.4541	68.6199	645.9	182.4
789.5951	70.8815	680.55	210.95
789.7361	73.1426	768.15	297.8
789.8771	75.4032	987.45	510.7
790.0181	77.6634	1520.25	1035.9
790.1592	79.9231	2801.45	2313.3
790.3003	82.1824	5595	5093.5
790.4414	84.4412	10710.35	10192.3
790.5825	86.6995	17888.2	17342.45
790.7237	88.9574	24974.2	24407.85
790.8648	91.2148	29954.05	29370.25
791.006	93.4717	32286.1	31687.35
791.1472	95.7282	32735.4	32135.35
791.2885	97.9842	32646.85	32039.15
791.4297	100.2398	32015.9	31409.8
791.571	102.4949	31232.5	30620.85
791.7123	104.7495	30399.9	29783.95
791.8536	107.0036	29493.5	28879.3
791.9949	109.2573	28704.35	28089.3
792.1363	111.5105	27980.5	27368.15
792.2777	113.7632	27293.3	26676.05
792.4191	116.0154	26737.85	26108.65
792.5605	118.2672	26328.55	25708.15
792.7019	120.5185	25905	25282.9
792.8434	122.7693	25641.65	25017.85
792.9849	125.0197	25358.55	24730.45
793.1264	127.2696	25071.45	24442
793.2679	129.519	24891.95	24256.45
793.4094	131.7679	24644.5	24010.9
793.551	134.0163	24436.65	23797.9
793.6926	136.2642	24094.65	23453.4
793.8342	138.5117	23829.85	23177.8
793.9758	140.7587	23436	22789.15
794.1175	143.0052	23141.8	22492.4
794.2591	145.2512	22818.8	22166.55
794.4008	147.4967	22540	21888.05
794.5425	149.7417	22361.8	21709.7
794.6842	151.9863	22154.05	21499.05
794.826	154.2304	22058.5	21401.55
794.9677	156.4739	21907.45	21244.7
795.1095	158.717	21788.4	21125.6
795.2513	160.9596	21633.75	20961.5
795.3931	163.2017	21349.2	20683.6
795.535	165.4433	21038.55	20368.25
795.6768	167.6844	20737.1	20063.9
795.8187	169.925	20395.05	19718.55
795.9606	172.1651	20004	19324.65
796.1025	174.4047	19754.45	19071.05
796.2445	176.6439	19467.75	18783.55
796.3864	178.8825	19242.6	18559.55
796.5284	181.1206	19130.05	18439.85
796.6704	183.3582	18972.75	18278.65
796.8124	185.5954	18868.5	18173.7
796.9544	187.832	18775.45	18077.25
797.0965	190.0681	18713.1	18014.45
797.2386	192.3037	18710.35	18007.3
797.3806	194.5388	18691.45	17981.8
797.5228	196.7734	18730.15	18021.1
797.6649	199.0075	18809.6	18095.6
797.807	201.2411	18937.85	18219.2
797.9492	203.4742	19019.55	18304.2
798.0914	205.7068	19144.8	18428.6
798.2336	207.9389	19257.8	18541.8
798.3758	210.1704	19393.45	18675.95
798.518	212.4015	19514.85	18792.45
798.6603	214.632	19651.7	18927.1
798.8025	216.862	19803.1	19085.5
798.9448	219.0915	19902.9	19193.8
799.0871	221.3205	20027.1	19320.2
799.2294	223.549	20132.35	19430.95
799.3718	225.777	20266.15	19567.1
799.5141	228.0044	20455.95	19752.35
799.6565	230.2314	20690.95	19990.8
799.7989	232.4578	20868.5	20165.5
799.9413	234.6837	21060.7	20351.45
800.0837	236.909	21192.5	20483.35
800.2262	239.1339	21198.65	20466.35
800.3687	241.3582	21091.45	20374.45
800.5111	243.582	20898.15	20156.85
800.6536	245.8053	20762.2	20024.3
800.7961	248.0281	20596.95	19861.55
800.9387	250.2503	20502.35	19764.9
801.0812	252.472	20545.7	19803.75
801.2238	254.6932	20632.6	19884.4
801.3664	256.9139	20658.9	19915
801.509	259.134	20787.7	20039.65
801.6516	261.3536	20944.15	20196.3
801.7942	263.5727	21219	20469.95
801.9369	265.7912	21366.8	20618.1
802.0795	268.0092	21582.25	20832.4
802.2222	270.2267	21681.35	20931.9
802.3649	272.4436	21741.45	20987.6
802.5076	274.6601	21720.95	20959.6
802.6504	276.8759	21603.2	20849.15
802.7931	279.0913	21488.85	20734.35
802.9359	281.3061	21385.4	20628.75
803.0787	283.5204	21368.3	20607.55
803.2215	285.7341	21314.35	20549.6
803.3643	287.9473	21383.35	20608.3
803.5071	290.16	21480.3	20709.1
803.6499	292.3721	21636.15	20873.2
803.7928	294.5837	21916.55	21152.2
803.9357	296.7947	22151.05	21387.75
804.0786	299.0052	22289.7	21524.75
804.2215	301.2152	22227.5	21459.65
804.3644	303.4246	21973.7	21208.15
804.5074	305.6334	21594.8	20832.2
804.6503	307.8418	21132.4	20366.35
804.7933	310.0495	20671.85	19904.15
804.9363	312.2568	20250.8	19482.9
805.0793	314.4635	19881.4	19109.55
805.2223	316.6696	19628	18855.05
805.3653	318.8752	19460	18680.4
805.5084	321.0802	19408.85	18635.4
805.6514	323.2847	19440.35	18668.9
805.7945	325.4887	19443.55	18670.1
805.9376	327.692	19425.25	18651.35
806.0807	329.8949	19364.85	18590.65
806.2238	332.0972	19133.45	18355.2
806.367	334.2989	18912	18132.3
806.5101	336.5001	18671.85	17890.2
806.6533	338.7007	18469.45	17686.6
806.7965	340.9008	18267.25	17484.15
806.9397	343.1003	18126.25	17342.35
807.0829	345.2992	18014.65	17227.85
807.2261	347.4976	17906.55	17119.75
807.3693	349.6955	17850.65	17061.1
807.5126	351.8927	17870.85	17079.45
807.6559	354.0895	17766.15	16964.9
807.7991	356.2856	17785.25	16992.6
807.9424	358.4812	17711.9	16920.7
808.0857	360.6763	17738.4	16948.05
808.2291	362.8707	17680.2	16883
808.3724	365.0646	17708.9	16915.75
808.5158	367.258	17732.5	16932.7
808.6591	369.4508	17785.9	16985.8
808.8025	371.643	17899.95	17099.1
808.9459	373.8346	17897.05	17093.95
809.0893	376.0257	17993.9	17187.9
809.2327	378.2162	17918.95	17112.65
809.3762	380.4062	17870.1	17062.95
809.5196	382.5956	17729.2	16920.9
809.6631	384.7844	17587.35	16776.15
809.8066	386.9726	17475.65	16665.5
809.9501	389.1603	17376.95	16566.2
810.0936	391.3474	17323.65	16481
810.2371	393.5339	17283.95	16468.55
810.3806	395.7199	17205.2	16398.9
810.5241	397.9052	17224.3	16422
810.6677	400.09	17254.1	16450
810.8113	402.2743	17361.05	16562.3
810.9548	404.4579	17480.2	16679.95
811.0984	406.641	17667.4	16867.45
811.2421	408.8235	17857.4	17054.95
811.3857	411.0054	18046.4	17244.4
811.5293	413.1868	18302.15	17497.95
811.673	415.3675	18425.9	17620.5
811.8166	417.5477	18484.5	17680.3
811.9603	419.7273	18417.15	17607.9
812.104	421.9064	18362.25	17547.8
812.2477	424.0848	18248.75	17437.45
812.3914	426.2627	18038.9	17227.15
812.5351	428.4399	17814.2	16996.55
812.6788	430.6166	17423.25	16605.85
812.8226	432.7928	17082	16258.8
812.9663	434.9683	16753.7	15934.6
813.1101	437.1432	16507.75	15685.2
813.2539	439.3176	16332.55	15510.5
813.3977	441.4914	16179.3	15353.4
813.5415	443.6645	16161.95	15333.3
813.6853	445.8371	16066.7	15243.65
813.8291	448.0091	16000.65	15177.2
813.973	450.1806	15967.45	15143.45
814.1168	452.3514	15889.15	15058.6
814.2607	454.5216	15907.7	15071.95
814.4046	456.6913	15856.45	15026.05
814.5485	458.8603	15911.4	15081.25
814.6924	461.0288	15920.4	15091.3
814.8363	463.1967	15913.2	15085.15
814.9802	465.3639	15981.85	15152.65
815.1241	467.5306	15960.7	15129.55
815.2681	469.6967	15988.75	15159.65
815.412	471.8622	16029.9	15199
815.556	474.0271	16089.25	15258.95
815.7	476.1914	16137.25	15304.45
815.844	478.3551	16157.4	15326.75
815.988	480.5182	16154.95	15324.75
816.132	482.6807	16217.3	15383.45
816.276	484.8426	16340.1	15506.35
816.4201	487.0039	16678.8	15848.35
816.5641	489.1647	17066.65	16230.95
816.7082	491.3248	17427.6	16595.65
816.8522	493.4843	17510.8	16676.4
816.9963	495.6432	17464.8	16633.15
817.1404	497.8015	17322.15	16485.7
817.2845	499.9592	17192.35	16356.65
817.4286	502.1163	17061.6	16226.85
817.5727	504.2728	16747.25	15906.75
817.7168	506.4287	16456.45	15620.05
817.861	508.5839	16081.2	15245.15
818.0051	510.7386	15841.3	15005.3
818.1493	512.8927	15718	14873.2
818.2935	515.0461	15672.6	14832.45
818.4377	517.199	15695.8	14856.6
818.5818	519.3512	15781.35	14941.65
818.726	521.5029	15997.9	15153.05
818.8703	523.6539	16168.9	15325.8
819.0145	525.8043	16265.95	15424.1
819.1587	527.9541	16229	15387.2
819.303	530.1033	16053.1	15209.2
819.4472	532.2519	15942.2	15100.2
819.5915	534.3999	15907.65	15062.45
819.7357	536.5472	16019.65	15173.5
819.88	538.694	16296.55	15453.2
820.0243	540.8401	16645.65	15802
820.1686	542.9856	16929.05	16082.9
820.3129	545.1305	16948.75	16102.05
820.4572	547.2748	16864.2	16019
820.6016	549.4185	16609.05	15762.65
820.7459	551.5615	16394.05	15548.65
820.8902	553.704	16331.65	15482.85
821.0346	555.8458	16344.1	15499.1
821.1789	557.987	16477.45	15635.15
821.3233	560.1276	16625.5	15778.6
821.4677	562.2675	16916.55	16070.95
821.6121	564.4069	17273.3	16426.3
821.7565	566.5456	17587.65	16744.7
821.9009	568.6837	17679.25	16831.85
822.0453	570.8212	17320.45	16472.25
822.1897	572.958	16696.75	15849
822.3342	575.0942	16092.05	15245.95
822.4786	577.2299	15734.95	14886.5
822.6231	579.3648	15550.95	14701.9
822.7675	581.4992	15497.85	14650.5
822.912	583.6329	15615.65	14766.4
823.0565	585.766	15793.75	14944.55
823.201	587.8985	15913.35	15067.1
823.3454	590.0304	15986.5	15116.5
823.4899	592.1616	15882.15	15032.2
823.6345	594.2922	15752.9	14902.5
823.779	596.4222	15496.25	14643.25
823.9235	598.5515	15303.9	14451.25
824.068	600.6802	15148.55	14295.3
824.2126	602.8083	14944.8	14092.25
824.3571	604.9358	14948.4	14094.95
824.5017	607.0626	14917.3	14065.15
824.6462	609.1888	14964.5	14110.35
824.7908	611.3144	15041.1	14186.75
824.9354	613.4393	15078	14224.4
825.08	615.5636	15127.7	14274.3
825.2246	617.6873	15106.2	14251.65
825.3692	619.8103	15038.8	14182.6
825.5138	621.9327	14861.4	14005.25
825.6584	624.0544	14677.1	13825.15
825.803	626.1756	14521.8	13668.25
825.9477	628.2961	14403.3	13547.8
826.0923	630.4159	14319.8	13465.5
826.237	632.5351	14267.85	13413.8
826.3816	634.6537	14227.9	13371.6
826.5263	636.7716	14191.95	13334.85
826.6709	638.8889	14201	13343.05
826.8156	641.0056	14239.25	13380.9
826.9603	643.1216	14193.25	13335.55
827.105	645.237	14161.5	13300.2
827.2497	647.3518	14090.45	13231.6
827.3944	649.4659	14040.95	13182.8
827.5391	651.5793	13982.45	13122.15
827.6838	653.6922	13941.15	13082.8
827.8285	655.8043	13912.8	13052.9
827.9733	657.9159	13887.05	13023.5
828.118	660.0268	13864.25	13002.6
828.2627	662.137	13818	12956.2
828.4075	664.2466	13783.05	12921.25
828.5522	666.3556	13790.1	12928.45
828.697	668.4639	13733.7	12871.8
828.8418	670.5716	13726.6	12863.9
828.9865	672.6786	13689.25	12825.85
829.1313	674.785	13670	12806.2
829.2761	676.8907	13626.55	12763.7
829.4209	678.9958	13658.85	12796.9
829.5657	681.1002	13633.55	12771.65
829.7105	683.204	13629.1	12765.05
829.8553	685.3072	13574.9	12711.8
830.0001	687.4097	13524.5	12660.55
830.1449	689.5115	13532.55	12666.6
830.2898	691.6127	13481.1	12616.75
830.4346	693.7132	13436.7	12572.6
830.5794	695.8131	13417.25	12538.85
830.7243	697.9123	13434.5	12569
830.8691	700.0109	13395.1	12529.85
831.014	702.1089	13422.75	12560.05
831.1588	704.2061	13457.95	12591.95
831.3037	706.3028	13457.25	12589.35
831.4486	708.3987	13482.35	12618.05
831.5935	710.4941	13505.1	12639.65
831.7383	712.5887	13607.05	12739.6
831.8832	714.6827	13711.4	12839.8
832.0281	716.7761	13888.05	13022.35
832.173	718.8688	14142.15	13276.1
832.3179	720.9608	14285.15	13416.8
832.4628	723.0522	14407.9	13539.9
832.6077	725.1429	14387.75	13521.65
832.7527	727.233	14340.4	13471.9
832.8976	729.3224	14301.1	13431.25
833.0425	731.4112	14142.9	13274.75
833.1874	733.4993	13993.05	13122.4
833.3324	735.5867	13775.85	12907.45
833.4773	737.6735	13538.4	12668.65
833.6222	739.7596	13342.2	12472.15
833.7672	741.845	13212.95	12342.9
833.9122	743.9298	13151.55	12277.75
834.0571	746.014	13098.6	12232.05
834.2021	748.0974	13067.65	12195.05
834.347	750.1802	13084.1	12214.95
834.492	752.2624	13067.25	12197.65
834.637	754.3439	13110.15	12239
834.782	756.4247	13221.85	12344.9
834.9269	758.5048	13347.2	12477.3
835.0719	760.5843	13594.75	12724.25
835.2169	762.6631	13986.1	13115.3
835.3619	764.7413	14531.8	13662.2
835.5069	766.8188	15194.45	14320.55
835.6519	768.8956	15732.7	14859.8
835.7969	770.9718	16084.85	15212.8
835.9419	773.0473	16007.05	15138.3
836.0869	775.1221	15736.95	14867.4
836.232	777.1962	15387	14515.3
836.377	779.2697	15278.5	14405.85
836.522	781.3426	15289.7	14406.45
836.667	783.4147	15394.9	14524.25
836.8121	785.4862	15551.4	14682.2
836.9571	787.557	15398.6	14525.3
837.1021	789.6271	14971.4	14099.3
837.2472	791.6966	14353.95	13482.55
837.3922	793.7654	13725.7	12851.4
837.5373	795.8335	13312.2	12437.25
837.6823	797.901	13036	12162.95
837.8274	799.9678	12884	12008.2
837.9724	802.0339	12764.8	11894.9
838.1175	804.0993	12777	11895.45
838.2626	806.1641	12704.85	11830.65
838.4076	808.2282	12628.2	11756.5
838.5527	810.2916	12553.2	11677.7
838.6978	812.3544	12460.95	11591.5
838.8428	814.4164	12379.2	11506.6
838.9879	816.4778	12404.5	11530.75
839.133	818.5385	12414.1	11542.55
839.2781	820.5986	12521.5	11651.25
839.4232	822.658	12717.75	11842.6
839.5682	824.7166	13006.65	12135.7
839.7133	826.7747	13426.95	12551.9
839.8584	828.832	13866.6	12993
840.0035	830.8886	14181.65	13306.45
840.1486	832.9446	14335.15	13462.05
840.2937	834.9999	14237.3	13364.8
840.4388	837.0545	13993.8	13117.1
840.5839	839.1085	13705.8	12828.9
840.729	841.1618	13463.75	12585.9
840.8741	843.2143	13253.75	12378.5
841.0192	845.2662	13061.85	12187.1
841.1643	847.3175	12916.5	12041.65
841.3095	849.368	12824.1	11948.55
841.4546	851.4179	12695.8	11824.85
841.5997	853.467	12561.5	11687.9
841.7448	855.5155	12492.9	11616.3
841.8899	857.5633	12392.95	11517.7
842.0351	859.6105	12279.95	11403.3
842.1802	861.6569	12196.9	11321.7
842.3253	863.7027	12120.9	11243.1
842.4704	865.7478	12075.45	11199.7
842.6156	867.7922	12033.05	11156
842.7607	869.8359	12000.4	11122.8
842.9058	871.8789	12032.15	11154.15
843.0509	873.9212	12139.85	11230.4
843.1961	875.9629	12235.75	11359.3
843.3412	878.0039	12337.15	11459.25
843.4863	880.0441	12424.3	11552.05
843.6315	882.0837	12484.85	11605.75
843.7766	884.1226	12466.25	11589.4
843.9218	886.1609	12463	11586.1
844.0669	888.1984	12508.8	11634.7
844.212	890.2352	12587.2	11710.4
844.3572	892.2714	12577.95	11698.8
844.5023	894.3069	12501.3	11624.2
844.6475	896.3416	12355.5	11474.4
844.7926	898.3757	12219.6	11343.95
844.9377	900.4091	12137.25	11258
845.0829	902.4418	12174.75	11293.5
845.228	904.4739	12135.6	11256.1
845.3732	906.5052	12191.2	11313.85
845.5183	908.5358	12128.1	11249.6
845.6635	910.5658	12002.15	11121.55
845.8086	912.595	11764.65	10888.95
845.9538	914.6236	11579.1	10701.95
846.0989	916.6515	11470.3	10593.3
846.2441	918.6786	11364.55	10482.3
846.3892	920.7051	11357.95	10478.15
846.5344	922.7309	11429.05	10551.15
846.6795	924.756	11422.75	10543.8
846.8246	926.7804	11532.55	10651.45
846.9698	928.8041	11493.85	10613.4
847.1149	930.8272	11518.8	10637.95
847.2601	932.8495	11496.05	10613.75
847.4052	934.8711	11473.9	10594.3
847.5504	936.892	11368.9	10488.65
847.6955	938.9123	11307.35	10426.9
847.8407	940.9318	11281.8	10402.8
847.9858	942.9506	11230.45	10349.3
848.131	944.9688	11160.75	10282.2
848.2761	946.9862	11083.6	10206.4
848.4213	949.003	10926.25	10047.45
848.5664	951.019	10859.75	9979.45
848.7115	953.0344	10834	9953.15
848.8567	955.0491	10796.2	9916.35
849.0018	957.063	10814.6	9933.65
849.147	959.0763	10903.85	10026.1
849.2921	961.0888	10892	10009.55
849.4373	963.1007	10979.45	10101
849.5824	965.1119	11025.25	10144.7
849.7275	967.1223	10985.85	10104.7
849.8727	969.1321	11001.75	10121.7
850.0178	971.1412	10961.35	10082.45
850.1629	973.1495	10946.3	10068
850.3081	975.1572	11004.4	10090.05
850.4532	977.1641	10979.35	10100.15
850.5983	979.1704	10929.1	10049.1
850.7435	981.1759	10922.1	10041.45
850.8886	983.1808	10904.8	10025.6
851.0337	985.1849	10973.85	10081.6
851.1788	987.1884	11036.5	10150.7
851.324	989.1911	11148.25	10264.85
851.4691	991.1932	11235.5	10352.5
851.6142	993.1945	11248.65	10365.45
851.7593	995.1951	11195.05	10314.6
851.9045	997.1951	11175.35	10286.45
852.0496	999.1943	11100.2	10217.9
852.1947	1001.1928	11110.9	10230.4
852.3398	1003.1906	11115.4	10237.9
852.4849	1005.1877	11211.45	10327.6
852.63	1007.1841	11240.7	10359.6
852.7751	1009.1798	11230.4	10348.3
852.9202	1011.1748	11138.4	10256.9
853.0653	1013.1691	10981.35	10098.8
853.2104	1015.1627	10762.25	9881.3
853.3555	1017.1556	10516.1	9634.05
853.5006	1019.1477	10409.25	9526.35
853.6457	1021.1392	10295.1	9415.5
853.7908	1023.1299	10259.25	9376.7
853.9359	1025.12	10272.45	9389.95
854.081	1027.1093	10303.85	9421.4
854.2261	1029.0979	10419.45	9540.15
854.3712	1031.0859	10486.1	9605.3
854.5163	1033.0731	10515.15	9632.2
854.6613	1035.0596	10450.05	9569.4
854.8064	1037.0454	10314.2	9432.15
854.9515	1039.0304	10200.25	9319.6
855.0965	1041.0148	10093.7	9213.35
855.2416	1042.9985	9963.7	9082.15
855.3867	1044.9814	9919.9	9038.55
855.5317	1046.9636	9833.9	8951.75
855.6768	1048.9452	9828.65	8948.2
855.8219	1050.926	9858.05	8978.35
855.9669	1052.9061	9873.5	8989.95
856.112	1054.8855	9875.05	8993.7
856.257	1056.8642	9905.9	9024.1
856.4021	1058.8421	9940.5	9058.85
856.5471	1060.8194	9990.55	9109.45
856.6921	1062.7959	10018.15	9135.8
856.8372	1064.7717	10083.75	9199.4
856.9822	1066.7469	10132.2	9248.65
857.1272	1068.7213	10169.25	9283.8
857.2723	1070.695	10201.7	9321.1
857.4173	1072.6679	10231.25	9347.2
857.5623	1074.6402	10233.3	9349.55
857.7073	1076.6117	10202.35	9315.45
857.8523	1078.5826	10104.95	9223.7
857.9973	1080.5527	9998.15	9111.8
858.1423	1082.5221	9943.75	9061.7
858.2873	1084.4908	9958.8	9075.55
858.4323	1086.4587	10006.5	9122.8
858.5773	1088.426	10060.7	9175.5
858.7223	1090.3925	10079.6	9194.35
858.8673	1092.3584	10085.9	9202.2
859.0123	1094.3235	10045.95	9167.15
859.1573	1096.2879	10073.2	9189.95
859.3022	1098.2515	10153.9	9271.15
859.4472	1100.2145	10284.85	9401.95
859.5922	1102.1767	10463.85	9577.3
859.7371	1104.1382	10664.1	9783.55
859.8821	1106.099	10893.15	10007.95
860.027	1108.0591	11114.5	10232.4
860.172	1110.0185	11286.3	10402.3
860.3169	1111.9771	11343	10462.2
860.4619	1113.9351	11219.85	10336.9
860.6068	1115.8923	11035.65	10153.1
860.7517	1117.8488	10837	9951.65
860.8967	1119.8045	10628.8	9747.15
861.0416	1121.7596	10469.65	9586.35
861.1865	1123.7139	10343.05	9458.4
861.3314	1125.6675	10350.95	9466.05
861.4763	1127.6204	10365.4	9481.95
861.6212	1129.5726	10325.6	9440.1
861.7661	1131.524	10245.9	9364.8
861.911	1133.4748	10139.25	9257.75
862.0559	1135.4248	9977.25	9090.5
862.2008	1137.3741	9853.3	8970.3
862.3457	1139.3226	9735.4	8849.75
862.4905	1141.2705	9681.4	8795.7
862.6354	1143.2176	9556.8	8664.15
862.7803	1145.164	9521.4	8635.8
862.9251	1147.1097	9489.65	8604.85
863.07	1149.0546	9419.6	8534.85
863.2148	1150.9989	9304.7	8421.85
863.3597	1152.9424	9223.9	8340.95
863.5045	1154.8852	9092.55	8207.4
863.6493	1156.8272	9031.85	8150.2
863.7942	1158.7686	9020.7	8130.1
863.939	1160.7092	9009.2	8126.25
864.0838	1162.6491	9048.1	8162.85
864.2286	1164.5883	9125.65	8245.05
864.3734	1166.5267	9237.25	8353.15
864.5182	1168.4644	9380	8496.65
864.663	1170.4014	9570.85	8684.9
864.8078	1172.3377	9829.35	8947
864.9526	1174.2732	10098.95	9217.6
865.0974	1176.2081	10490.9	9608.25
865.2421	1178.1421	10902.15	10014.25
865.3869	1180.0755	11358.15	10473.7
865.5317	1182.0082	11693.95	10809.85
865.6764	1183.9401	11815.9	10930.85
865.8212	1185.8713	11701	10815.9
865.9659	1187.8017	11404.35	10521.6
866.1106	1189.7315	11048.4	10166.25
866.2554	1191.6605	10679.7	9767.45
866.4001	1193.5888	10389.15	9504.3
866.5448	1195.5163	10207.55	9323.6
866.6895	1197.4432	10084.5	9200.7
866.8342	1199.3693	10075.2	9190.5
866.9789	1201.2947	10042.75	9153.05
867.1236	1203.2193	10021	9138.65
867.2683	1205.1432	9986.6	9101.3
867.413	1207.0664	9991.1	9106.65
867.5576	1208.9889	9981.65	9094.7
867.7023	1210.9106	9942.75	9059.85
867.847	1212.8316	9942.95	9061.35
867.9916	1214.7519	10004.8	9113.2
868.1363	1216.6715	10022.9	9140.65
868.2809	1218.5903	10076.25	9191.7
868.4255	1220.5084	10127.35	9242.35
868.5701	1222.4257	10189.9	9305.9
868.7148	1224.3424	10234.65	9351.35
868.8594	1226.2583	10342.75	9454.05
869.004	1228.1735	10475.8	9591.3
869.1486	1230.0879	10574.9	9690.2
869.2932	1232.0016	10735.05	9851.9
869.4377	1233.9146	10850.3	9965.1
869.5823	1235.8269	10829.85	9947.1
869.7269	1237.7384	10763.45	9880.75
869.8715	1239.6492	10577.7	9693.35
870.016	1241.5592	10534.05	9650.9
870.1606	1243.4686	10522.1	9638.4
870.3051	1245.3772	10658.15	9775.25
870.4496	1247.285	10809.3	9925.3
870.5941	1249.1922	10947.45	10059.8
870.7387	1251.0986	11053.2	10167.95
870.8832	1253.0042	11110	10225.45
871.0277	1254.9092	11166	10281.7
871.1722	1256.8134	11256.55	10373.2
871.3167	1258.7169	11418.6	10532.05
871.4611	1260.6196	11567.9	10685.55
871.6056	1262.5216	11801.15	10915.25
871.7501	1264.4229	11988.05	11107.3
871.8945	1266.3234	12180.95	11295.85
872.039	1268.2232	12298.4	11414.1
872.1834	1270.1223	12376.05	11490.2
872.3278	1272.0207	12381.75	11499.3
872.4723	1273.9183	12355.85	11462.4
872.6167	1275.8151	12282.35	11398.1
872.7611	1277.7113	12251.2	11366.6
872.9055	1279.6067	12236.05	11349.8
873.0499	1281.5014	12397.55	11511.4
873.1943	1283.3953	12677.7	11790.8
873.3386	1285.2885	13052.7	12168.9
873.483	1287.181	13463.35	12578.2
873.6274	1289.0727	13868.3	12984.05
873.7717	1290.9637	14142.8	13257.65
873.9161	1292.854	14320.4	13437.7
874.0604	1294.7435	14330.9	13446.25
874.2047	1296.6323	14281.1	13395.9
874.349	1298.5204	14210.6	13323
874.4933	1300.4077	14082.75	13198.7
874.6376	1302.2943	13932.65	13047.8
874.7819	1304.1802	13716.9	12833.4
874.9262	1306.0653	13325	12441.2
875.0705	1307.9497	12907.8	12023.05
875.2147	1309.8333	12566	11681.15
875.359	1311.7162	12291.9	11408
875.5032	1313.5984	12147.65	11260.4
875.6475	1315.4798	12048.35	11148.95
875.7917	1317.3605	12000.85	11100.35
875.9359	1319.2405	11948.55	11062.35
876.0801	1321.1197	11763.45	10875.7
876.2243	1322.9982	11500.05	10611.95
876.3685	1324.876	11265.2	10379.3
876.5127	1326.753	11006.95	10122.6
876.6569	1328.6293	10846.95	9958.55
876.801	1330.5048	10741.45	9854.75
876.9452	1332.3796	10577.2	9692.15
877.0893	1334.2537	10523.45	9608.15
877.2335	1336.127	10440.9	9553.7
877.3776	1337.9996	10404.95	9520.45
877.5217	1339.8714	10409.55	9524.5
877.6658	1341.7426	10439.6	9508.15
877.8099	1343.6129	10410.7	9525.25
877.954	1345.4826	10399.95	9514.25
878.0981	1347.3515	10389.8	9502.75
878.2422	1349.2196	10375	9489.5
878.3862	1351.087	10396.6	9511.5
878.5303	1352.9537	10451.55	9566.5
878.6743	1354.8197	10542.95	9658.05
878.8184	1356.6849	10729.2	9845.3
878.9624	1358.5493	10902.8	10019.45
879.1064	1360.4131	11035.95	10151.45
879.2504	1362.276	11150.8	10267.7
879.3944	1364.1383	11125.65	10239.35
879.5384	1365.9998	10961.7	10072.9
879.6823	1367.8606	10624.65	9739.6
879.8263	1369.7206	10232.65	9349.1
879.9702	1371.5799	9920.05	9033.1
880.1142	1373.4384	9673.2	8787.9
880.2581	1375.2962	9415.35	8528.7
880.402	1377.1533	9129.3	8243.9
880.5459	1379.0096	8772.5	7885.8
880.6898	1380.8652	8448.95	7563.1
880.8337	1382.7201	8163.85	7277.3
880.9776	1384.5742	7885.45	7000.6
881.1215	1386.4275	7732.9	6847.45
881.2653	1388.2802	7583.3	6699.1
881.4092	1390.132	7487.9	6603.4
881.553	1391.9832	7406.3	6520.6
881.6968	1393.8336	7316.4	6430.1
881.8406	1395.6832	7263.85	6377.05
881.9844	1397.5322	7236.1	6350.4
882.1282	1399.3803	7218.95	6326.6
882.272	1401.2278	7184.2	6298.35
882.4158	1403.0745	7176.45	6293.5
882.5595	1404.9204	7165.4	6281.6
882.7033	1406.7656	7180	6295.9
882.847	1408.6101	7187.3	6302.6
882.9908	1410.4538	7207.45	6321.65
883.1345	1412.2968	7270.2	6383.65
883.2782	1414.139	7308.7	6422.45
883.4219	1415.9805	7392.7	6507.45
883.5656	1417.8213	7495.55	6604.25
883.7092	1419.6613	7591.35	6706.45
883.8529	1421.5006	7739.85	6854.15
883.9965	1423.3391	7945.7	7062.65
884.1402	1425.1769	8264.95	7379.45
884.2838	1427.0139	8690.05	7802.55
884.4274	1428.8502	9217.4	8330.85
884.571	1430.6858	9766.9	8882.4
884.7146	1432.5206	10163.5	9276.65
884.8582	1434.3547	10394.35	9508.05
885.0018	1436.188	10423.4	9538.5
885.1453	1438.0206	10328.15	9441.05
885.2889	1439.8524	10144.1	9260.5
885.4324	1441.6835	10024.55	9138.6
885.5759	1443.5139	9933.8	9047.3
885.7194	1445.3435	9875.5	8989.8
885.8629	1447.1724	9810.3	8926.3
886.0064	1449.0005	9766.1	8881.6
886.1499	1450.8279	9712.35	8824.7
886.2933	1452.6545	9686.95	8800.45
886.4368	1454.4804	9717.3	8832.05
886.5802	1456.3056	9709.65	8819.6
886.7237	1458.13	9636.8	8753.2
886.8671	1459.9536	9475.95	8592.65
887.0105	1461.7766	9186.6	8301.1
887.1539	1463.5987	8844.75	7960.3
887.2972	1465.4202	8504.5	7619.2
887.4406	1467.2409	8161.6	7276.8
887.584	1469.0608	7893.15	7006.65
887.7273	1470.88	7632.75	6746.8
887.8706	1472.6984	7398	6513.5
888.0139	1474.5161	7196.2	6307.15
888.1572	1476.3331	7035.5	6149.5
888.3005	1478.1493	6931.5	6047.25
888.4438	1479.9648	6840.55	5956.1
888.5871	1481.7795	6768.55	5882.85
888.7303	1483.5935	6687.95	5804.2
888.8736	1485.4067	6648.65	5764
889.0168	1487.2192	6595.75	5712.4
889.16	1489.031	6551.65	5664.85
889.3032	1490.842	6522.4	5638.9
889.4464	1492.6522	6474.9	5589.15
889.5896	1494.4618	6435.4	5551.3
889.7327	1496.2705	6401.3	5516.1
889.8759	1498.0785	6353.95	5467.8
890.019	1499.8858	6326.4	5439.25
890.1622	1501.6924	6295.9	5410.25
890.3053	1503.4981	6252.8	5369.2
890.4484	1505.3032	6209.55	5324.45
890.5914	1507.1075	6191.45	5304.45
890.7345	1508.911	6154.85	5270.6
890.8776	1510.7138	6108.15	5223.2
891.0206	1512.5159	6070	5185.65
891.1637	1514.3172	6011.6	5126.65
891.3067	1516.1178	5988.7	5104.65
891.4497	1517.9176	5971.45	5082.85
891.5927	1519.7166	5934.15	5052.3
891.7357	1521.515	5926.55	5034.35
891.8786	1523.3126	5877.5	4991.85
892.0216	1525.1094	5855.1	4969.6
892.1645	1526.9055	5842.05	4957.4
892.3074	1528.7008	5813.7	4931.15
892.4503	1530.4954	5781.9	4895.6
892.5932	1532.2893	5783.45	4900.25
892.7361	1534.0824	5735.7	4844.6
892.879	1535.8747	5741.6	4855.75
893.0218	1537.6663	5729.3	4843.85
893.1647	1539.4572	5741.2	4855.8
893.3075	1541.2473	5750.1	4865.2
893.4503	1543.0367	5731.25	4847.4
893.5931	1544.8253	5748.15	4856.9
893.7359	1546.6132	5761.55	4874.95
893.8787	1548.4003	5773.3	4881.15
894.0214	1550.1867	5830.7	4936.65
894.1642	1551.9723	5880.65	4992
894.3069	1553.7572	5947.9	5062.7
894.4496	1555.5414	6046	5162.95
894.5923	1557.3247	6157.6	5271
894.735	1559.1074	6314.1	5429.85
894.8777	1560.8893	6476.95	5592.75
895.0204	1562.6705	6603.45	5719.15
895.163	1564.4509	6749.2	5865.5
895.3056	1566.2305	6811.9	5927.2
895.4482	1568.0094	6862.7	5978.35
895.5908	1569.7876	6886.8	6001.45
895.7334	1571.565	6854.6	5967.35
895.876	1573.3417	6845.55	5963.2
896.0186	1575.1176	6816.2	5930.6
896.1611	1576.8928	6783.25	5899.65
896.3036	1578.6672	6778.4	5892.35
896.4461	1580.4409	6761.65	5876.7
896.5886	1582.2138	6764	5879.1
896.7311	1583.986	6791.45	5906.65
896.8736	1585.7575	6837.3	5953.2
897.0161	1587.5282	6874.35	5992.1
897.1585	1589.2981	6942.95	6059
897.3009	1591.0673	7003.05	6118.9
897.4433	1592.8358	7103.75	6220.75
897.5857	1594.6035	7182.05	6296.55
897.7281	1596.3704	7251	6364.8
897.8705	1598.1366	7352.15	6468.75
898.0128	1599.9021	7432.35	6547.4
898.1551	1601.6668	7502.3	6615.8
898.2975	1603.4308	7626.75	6741
898.4398	1605.194	7760.65	6871.3
898.5821	1606.9564	7950.1	7065.8
898.7243	1608.7182	8197.55	7308.75
898.8666	1610.4791	8456.7	7572.35
899.0088	1612.2394	8749.5	7867
899.1511	1613.9988	9039.65	8154.4
899.2933	1615.7576	9322.2	8438.2
899.4355	1617.5156	9531.75	8642.55
899.5776	1619.2728	9631.65	8748.9
899.7198	1621.0293	9616.5	8733.25
899.862	1622.785	9464.1	8576.1
900.0041	1624.54	9200.05	8312.5
900.1462	1626.2942	8910.05	8024.15
900.2883	1628.0477	8524.3	7637.8
900.4304	1629.8005	8210.25	7321.55
900.5725	1631.5525	7938.25	7055.6
900.7145	1633.3037	7684	6798.45
900.8566	1635.0542	7464.4	6580.75
900.9986	1636.804	7319.45	6435.1
901.1406	1638.553	7234.75	6293.75
901.2826	1640.3013	7141.5	6257.35
901.4245	1642.0488	7108.6	6222.1
901.5665	1643.7955	7136.1	6252.35
901.7085	1645.5416	7183.05	6298.95
901.8504	1647.2868	7284.2	6399.95
901.9923	1649.0313	7393.6	6511.35
902.1342	1650.7751	7533.55	6647.3
902.2761	1652.5181	7712.95	6830.3
902.4179	1654.2604	7867.2	6982.15
902.5598	1656.0019	8085.65	7201.7
902.7016	1657.7427	8360.55	7476.4
902.8434	1659.4828	8602.05	7715
902.9852	1661.222	8778.9	7892.75
903.127	1662.9606	8767.7	7884.05
903.2687	1664.6984	8521.1	7638.1
903.4105	1666.4354	8119.4	7235.35
903.5522	1668.1717	7594.65	6708.05
903.6939	1669.9072	7031.45	6147.6
903.8356	1671.642	6573.65	5689.75
903.9773	1673.3761	6185.75	5305.9
904.119	1675.1094	5876.25	4993.2
904.2606	1676.8419	5629.45	4745.7
904.4022	1678.5737	5430.8	4547.5
904.5439	1680.3048	5295.2	4411.6
904.6855	1682.0351	5160.7	4279.65
904.827	1683.7646	5080.8	4195.1
904.9686	1685.4934	4976.15	4094.55
905.1101	1687.2215	4918.95	4033.3
905.2517	1688.9488	4841.45	3959.5
905.3932	1690.6754	4785.15	3903.9
905.5347	1692.4012	4746.7	3863
905.6761	1694.1263	4709.7	3825.85
905.8176	1695.8506	4675.2	3791.55
905.9591	1697.5742	4625.8	3741.8
906.1005	1699.297	4593.95	3712.15
906.2419	1701.0191	4544.95	3660.5
906.3833	1702.7404	4520.1	3637
906.5246	1704.461	4486.2	3603
906.666	1706.1808	4463.05	3579.25
906.8073	1707.8999	4447.9	3563.75
906.9487	1709.6182	4429.75	3543.45
907.09	1711.3358	4394.4	3509.65
907.2313	1713.0527	4361.65	3478
907.3725	1714.7688	4344.1	3454.4
907.5138	1716.4841	4320.9	3436.25
907.655	1718.1987	4307	3417.65
907.7962	1719.9126	4287.3	3405.7
907.9374	1721.6257	4273.1	3386.3
908.0786	1723.338	4270	3386.2
908.2198	1725.0496	4230.6	3348.55
908.3609	1726.7605	4215.15	3330.15
908.502	1728.4706	4228.5	3345.2
908.6431	1730.18	4194.95	3307.8
908.7842	1731.8886	4192.85	3310.55
908.9253	1733.5964	4177.7	3289.75
909.0664	1735.3036	4151.25	3264.95
909.2074	1737.0099	4149.2	3267.2
909.3484	1738.7156	4121.55	3239.15
909.4894	1740.4204	4085.9	3200.9
909.6304	1742.1246	4097.45	3213.85
909.7714	1743.8279	4061.5	3180.75
909.9123	1745.5306	4056.4	3172.15
910.0532	1747.2325	4016.2	3132.9
910.1941	1748.9336	4002.75	3120.15
910.335	1750.634	3986.45	3103.25
910.4759	1752.3336	3979.3	3096.55
910.6168	1754.0325	3963.8	3080.15
910.7576	1755.7307	3953.35	3070.9
910.8984	1757.4281	3951.4	3068.25
911.0392	1759.1247	3963.45	3072.25
911.18	1760.8206	3940.7	3055.95
911.3208	1762.5158	3936.95	3048.95
911.4615	1764.2102	3926.75	3046.65
911.6022	1765.9039	3901.3	3016.2
911.7429	1767.5968	3897	3015.3
911.8836	1769.289	3877.5	2994.4
912.0243	1770.9804	3868.15	2984.05
912.1649	1772.6711	3877.5	2995.7
912.3056	1774.361	3853.6	2970.6
912.4462	1776.0502	3860.75	2978.95
912.5868	1777.7386	3842.7	2957.8
912.7274	1779.4263	3825.55	2941.35
912.8679	1781.1132	3816.6	2932.05
913.0084	1782.7994	3822.15	2936.5
913.149	1784.4849	3809.2	2928.15
913.2895	1786.1696	3817.3	2915
913.4299	1787.8535	3796.5	2913.75
913.5704	1789.5367	3790.75	2907.55
913.7108	1791.2192	3788.75	2906.7
913.8513	1792.9009	3782.75	2886
913.9917	1794.5818	3752.65	2868.35
914.132	1796.2621	3755	2874.2
914.2724	1797.9415	3756.3	2873.75
914.4128	1799.6202	3757.7	2874.45
914.5531	1801.2982	3726.35	2841.1
914.6934	1802.9755	3724.75	2841.75
914.8337	1804.6519	3723.7	2838.95
914.9739	1806.3277	3698.4	2815.6
915.1142	1808.0027	3687.3	2804.15
915.2544	1809.6769	3693.2	2810.4
915.3946	1811.3504	3675.1	2789.35
915.5348	1813.0231	3668.85	2783.75
915.675	1814.6951	3672.2	2791.35
915.8151	1816.3664	3667.65	2783.3
915.9553	1818.0369	3659.6	2778.1
916.0954	1819.7067	3651.25	2768.75
916.2355	1821.3757	3635.5	2750.25
916.3755	1823.044	3642.8	2760.2
916.5156	1824.7115	3634.9	2751.8
916.6556	1826.3783	3625.7	2744.35
916.7956	1828.0443	3626.85	2744.8
916.9356	1829.7096	3626.55	2742.7
917.0756	1831.3741	3612.5	2725.65
917.2155	1833.0379	3608.3	2726.55
917.3555	1834.701	3596.6	2709.5
917.4954	1836.3633	3582.45	2698.2
917.6353	1838.0248	3587.1	2702.15
917.7751	1839.6856	3578.95	2697.35
917.915	1841.3457	3571	2690.95
918.0548	1843.005	3563.1	2679.5
918.1946	1844.6636	3561.6	2679.75
918.3344	1846.3214	3556.05	2671.75
918.4742	1847.9785	3554.5	2673
918.6139	1849.6349	3539.35	2655
918.7537	1851.2904	3543.3	2651.3
918.8934	1852.9453	3517.2	2634.05
919.0331	1854.5994	3515.65	2629.95
919.1727	1856.2528	3516.2	2627.8
919.3124	1857.9054	3524.15	2640.65
919.452	1859.5572	3515.75	2633.65
919.5916	1861.2083	3499.4	2617.2
919.7312	1862.8587	3496.4	2613.25
919.8708	1864.5084	3499.45	2614.25
920.0103	1866.1572	3489.2	2606.8
920.1498	1867.8054	3467.3	2585.5
920.2893	1869.4528	3476.8	2595.5
920.4288	1871.0994	3461.25	2577.65
920.5683	1872.7453	3455.65	2574.45
920.7077	1874.3905	3461.75	2560.45
920.8471	1876.0349	3440.75	2557.5
920.9865	1877.6786	3428.05	2542.65
921.1259	1879.3215	3443.25	2561.15
921.2653	1880.9637	3430.25	2545.9
921.4046	1882.6051	3426.3	2543.95
921.5439	1884.2458	3419.45	2533.85
921.6832	1885.8858	3404.7	2520.85
921.8225	1887.525	3406.85	2523.7
921.9617	1889.1634	3379.55	2498.65
922.101	1890.8011	3380.4	2497.5
922.2402	1892.4381	3372.7	2491.4
922.3794	1894.0743	3374.3	2493.1
922.5185	1895.7098	3374.95	2492
922.6577	1897.3446	3365.2	2481.8
922.7968	1898.9786	3341.6	2454.75
922.9359	1900.6118	3355.35	2475.1
923.075	1902.2443	3319.9	2434.75
923.214	1903.8761	3320.8	2439.35
923.3531	1905.5071	3321.45	2436.7
923.4921	1907.1374	3311.75	2429.6
923.6311	1908.7669	3313.45	2430.05
923.77	1910.3957	3301.6	2418.95
923.909	1912.0237	3301.45	2419
924.0479	1913.651	3287.65	2404.6
924.1868	1915.2776	3284.9	2403.35
924.3257	1916.9034	3269.6	2388.45
924.4646	1918.5285	3262.25	2380.6
924.6034	1920.1528	3255.7	2373.1
924.7422	1921.7764	3248.55	2366.95
924.881	1923.3992	3235.5	2353.75
925.0198	1925.0213	3213.05	2330.25
925.1586	1926.6427	3216.7	2335.9
925.2973	1928.2633	3300.45	2315
925.436	1929.8832	3213.25	2328.55
925.5747	1931.5023	3194.95	2312.1
925.7134	1933.1207	3181.55	2299.25
925.852	1934.7383	3189.1	2306.6
925.9906	1936.3552	3179	2296.45
926.1292	1937.9714	3172.9	2290.85
926.2678	1939.5868	3167.5	2282.7
926.4064	1941.2015	3152.3	2271.3
926.5449	1942.8154	3145.2	2261.7
926.6834	1944.4286	3134.75	2252.6
926.8219	1946.041	3137.85	2232.4
926.9604	1947.6528	3113.05	2224.7
927.0988	1949.2637	3113.2	2231.25
927.2372	1950.8739	3109.4	2225.1
927.3756	1952.4834	3098.05	2215.6
927.514	1954.0921	3088.6	2205.25
927.6523	1955.7001	3091.55	2204.95
927.7907	1957.3074	3085.55	2205.85
927.929	1958.9139	3062.25	2181.15
928.0673	1960.5197	3057.8	2173.9
928.2055	1962.1247	3049.95	2168.4
928.3438	1963.729	3039.15	2157.15
928.482	1965.3325	3052.95	2145.1
928.6202	1966.9353	3030.35	2148.1
928.7584	1968.5374	3023.15	2140
928.8965	1970.1387	3016.35	2135.45
929.0346	1971.7393	3012.65	2129.25
929.1727	1973.3392	2990.45	2108.4
929.3108	1974.9383	2987.75	2107.4
929.4489	1976.5366	2983.7	2103.15
929.5869	1978.1342	2971.9	2087.15
929.7249	1979.7311	2977.05	2094.5
929.8629	1981.3273	2961.4	2078.2
930.0009	1982.9227	2961.55	2078.25
930.1388	1984.5173	2952.75	2072.25
930.2767	1986.1112	2952.2	2068.2
930.4146	1987.7044	2932.95	2051.95
930.5525	1989.2968	2937.05	2052.3
930.6904	1990.8885	2921.55	2036
930.8282	1992.4795	2922.7	2038.6
930.966	1994.0697	2913.95	2032.2
931.1038	1995.6592	2903	2020.6
931.2415	1997.2479	2899	2015.7
931.3793	1998.8359	2911.05	2028.3
931.517	2000.4232	2894.15	2011.6
931.6547	2002.0097	2875.6	1993.8
931.7923	2003.5955	2864.2	1981.55
931.93	2005.1805	2893.55	2008.9
932.0676	2006.7648	2873.6	1992.85
932.2052	2008.3484	2877.35	1993.8
932.3427	2009.9312	2872.6	1987.15
932.4803	2011.5133	2853.4	1970.45
932.6178	2013.0946	2843.05	1961.85
932.7553	2014.6752	2854.2	1972.55
932.8928	2016.2551	2836.55	1955.4
933.0302	2017.8342	2835.75	1953.6
933.1676	2019.4126	2830.7	1947.85
933.305	2020.9902	2812.35	1929.8
933.4424	2022.5672	2818.55	1934.55
933.5798	2024.1433	2823.5	1933.6
933.7171	2025.7188	2794.05	1912.7
933.8544	2027.2935	2795	1911.45
933.9917	2028.8674	2793.8	1911.55
934.129	2030.4406	2789.8	1907.45
934.2662	2032.0131	2769.1	1886.35
934.4034	2033.5849	2780.25	1893.35
934.5406	2035.1559	2764.8	1881.45
934.6778	2036.7261	2773.6	1890.75
934.8149	2038.2957	2769.45	1886.45
934.952	2039.8645	2754.5	1872.55
935.0891	2041.4325	2759.15	1872.9
935.2262	2042.9998	2755.5	1873.75
935.3632	2044.5664	2751.95	1868
935.5002	2046.1323	2741.9	1859.55
935.6372	2047.6974	2728	1845.8
935.7742	2049.2617	2733.25	1852.15
935.9111	2050.8254	2760.4	1842.75
936.048	2052.3883	2727.85	1845.4
936.1849	2053.9504	2722.75	1839.35
936.3218	2055.5118	2701.85	1817.2
936.4586	2057.0725	2698.6	1810.65
936.5955	2058.6325	2697.6	1814.3
936.7323	2060.1917	2706.2	1824.85
936.869	2061.7502	2699.95	1815.5
937.0058	2063.3079	2680.2	1798.25
937.1425	2064.8649	2691.35	1806.5
937.2792	2066.4212	2681.2	1796.4
937.4159	2067.9767	2665.65	1782.2
937.5525	2069.5315	2654.7	1772.35
937.6891	2071.0856	2661.75	1777.1
937.8257	2072.6389	2658.4	1772.85
937.9623	2074.1915	2641.4	1759.95
938.0989	2075.7433	2633.65	1750.3
938.2354	2077.2945	2632.15	1749.7
938.3719	2078.8448	2624.1	1739.95
938.5084	2080.3945	2605.8	1722.4
938.6448	2081.9434	2624.35	1742.1
938.7812	2083.4916	2599.7	1718.25
938.9176	2085.039	2603.45	1720.15
939.054	2086.5857	2607.05	1723.1
939.1903	2088.1317	2593.85	1711.05
939.3267	2089.677	2593.75	1711.25
939.463	2091.2215	2582.45	1700.15
939.5992	2092.7652	2585.6	1700.8
939.7355	2094.3083	2580.4	1697
939.8717	2095.8506	2581.15	1700.2
940.0079	2097.3921	2581.85	1701.45
940.1441	2098.933	2573.3	1689.1
940.2802	2100.4731	2562.95	1681.85
940.4163	2102.0124	2584.05	1683.85
940.5524	2103.5511	2566.85	1682.95
940.6885	2105.089	2559.2	1676.2
940.8245	2106.6261	2548.5	1666
940.9606	2108.1626	2540.2	1656.8
941.0965	2109.6983	2576.2	1664.7
941.2325	2111.2332	2530.8	1648.15
941.3684	2112.7675	2536.35	1653.35
941.5044	2114.301	2526.65	1642.85
941.6403	2115.8337	2540.6	1655.6
941.7761	2117.3657	2528.4	1646.3
941.912	2118.897	2520.35	1636.25
942.0478	2120.4276	2521.9	1632.35
942.1835	2121.9575	2516.25	1631.5
942.3193	2123.4866	2515.75	1617.8
942.455	2125.0149	2501.5	1615.25
942.5907	2126.5426	2495.65	1615.25
942.7264	2128.0695	2495.65	1608.05
942.8621	2129.5956	2493.15	1611.4
942.9977	2131.1211	2488.25	1602.15
943.1333	2132.6458	2473.65	1591.15
943.2689	2134.1698	2473.9	1592.05
943.4044	2135.693	2473.55	1589.4
943.54	2137.2155	2467.2	1581.85
943.6755	2138.7373	2458.3	1575.1
943.8109	2140.2584	2460.4	1577.55
943.9464	2141.7787	2455.15	1566.55
944.0818	2143.2983	2452.85	1570.35
944.2172	2144.8171	2436.55	1554.35
944.3526	2146.3353	2436	1552.2
944.4879	2147.8527	2432.3	1550.35
944.6232	2149.3693	2427.65	1544.2
944.7585	2150.8853	2417.05	1535.6
944.8938	2152.4005	2417.55	1535.35
945.029	2153.9149	2422.45	1538.05
945.1642	2155.4287	2405.5	1524.95
945.2994	2156.9417	2408	1522.9
945.4346	2158.454	2398.4	1513.95
945.5697	2159.9655	2399.9	1517.65
945.7048	2161.4764	2393.25	1509.55
945.8399	2162.9865	2398.25	1512.9
945.9749	2164.4958	2392	1506.75
946.1099	2166.0045	2386.35	1496.45
946.2449	2167.5124	2384.05	1500.85
946.3799	2169.0195	2374.95	1494.75
946.5148	2170.526	2380.55	1495.75
946.6498	2172.0317	2378.95	1497.75
946.7846	2173.5367	2373.4	1491.5
946.9195	2175.0409	2366.9	1484.5
947.0543	2176.5445	2372.25	1490.5
947.1891	2178.0473	2353.65	1469.9
947.3239	2179.5494	2349.35	1464.55
947.4587	2181.0507	2340.15	1457.95
947.5934	2182.5513	2341.35	1456.65
947.7281	2184.0512	2336.85	1453.65
947.8628	2185.5504	2327.7	1443.1
947.9974	2187.0488	2324.7	1442.85
948.132	2188.5465	2319.25	1437.45
948.2666	2190.0435	2319.25	1436.75
948.4012	2191.5397	2315.5	1433.05
948.5357	2193.0353	2316.85	1434.45
948.6702	2194.5301	2320.85	1436
948.8047	2196.0241	2306.45	1424
948.9392	2197.5175	2289.1	1406.4
949.0736	2199.0101	2300.25	1416.25
949.208	2200.502	2284.55	1402.8
949.3424	2201.9931	2289.65	1408.45
949.4767	2203.4835	2284.6	1400.3
949.611	2204.9733	2278.95	1389.2
949.7453	2206.4622	2262.45	1379.85
949.8796	2207.9505	2266.1	1379.95
950.0138	2209.438	2261.7	1380.8
950.148	2210.9248	2252.6	1368.1
950.2822	2212.4109	2259.55	1376.7
950.4164	2213.8962	2262	1378.1
950.5505	2215.3809	2256.2	1373.5
950.6846	2216.8648	2244.25	1363.25
950.8186	2218.3479	2232.7	1347.45
950.9527	2219.8304	2236.2	1350.35
951.0867	2221.3121	2231.4	1347.05
951.2207	2222.7931	2219.7	1338.05
951.3546	2224.2733	2208.05	1325.95
951.4886	2225.7529	2210.3	1326.55
951.6225	2227.2317	2206	1320.8
951.7563	2228.7098	2209.7	1328.6
951.8902	2230.1872	2194.35	1311.55
952.024	2231.6638	2193.85	1311.45
952.1578	2233.1397	2194.8	1307.1
952.2916	2234.6149	2190.6	1307.85
952.4253	2236.0894	2184.65	1299.7
952.559	2237.5632	2180.4	1289.5
952.6927	2239.0362	2174.2	1291.3
952.8263	2240.5085	2164.65	1282.45
952.9599	2241.9801	2167.25	1283.9
953.0935	2243.4509	2154.45	1271.25
953.2271	2244.921	2159.95	1278.9
953.3606	2246.3904	2157.75	1273.2
953.4941	2247.8591	2146.15	1263.85
953.6276	2249.3271	2141.45	1259.8
953.7611	2250.7943	2130.7	1248.1
953.8945	2252.2608	2127.2	1245.85
954.0279	2253.7266	2131.5	1249.15
954.1612	2255.1917	2124.75	1243.95
954.2946	2256.656	2120.55	1235.65
954.4279	2258.1197	2112.9	1232.5
954.5612	2259.5826	2125.75	1240.65
954.6944	2261.0447	2117.6	1232.4
954.8276	2262.5062	2106.85	1222.85
954.9608	2263.9669	2100.55	1215.3
955.094	2265.4269	2104.25	1221.05
955.2271	2266.8862	2096.3	1211.7
955.3602	2268.3448	2096.1	1213.5
955.4933	2269.8026	2098.35	1215.45
955.6264	2271.2598	2090.7	1207.95
955.7594	2272.7162	2086.45	1204.05
955.8924	2274.1719	2089.95	1207.85
956.0253	2275.6268	2080.25	1198.8
956.1583	2277.0811	2079.85	1197.6
956.2912	2278.5346	2082.5	1198.9
956.4241	2279.9874	2080.1	1196.1
956.5569	2281.4395	2075.25	1193.2
956.6897	2282.8908	2072.95	1184.8
956.8225	2284.3414	2065.05	1182.4
956.9553	2285.7914	2054.7	1172.45
957.088	2287.2406	2053.2	1168.65
957.2207	2288.689	2059.95	1177.1
957.3534	2290.1368	2056.2	1172.25
957.486	2291.5838	2056.8	1173.7
957.6186	2293.0302	2051.55	1166.2
957.7512	2294.4758	2042.65	1161.65
957.8838	2295.9206	2043.8	1157.85
958.0163	2297.3648	2039.1	1157.15
958.1488	2298.8082	2037.25	1153.1
958.2813	2300.251	2033.6	1151.05
958.4137	2301.693	2028.15	1142.8
958.5461	2303.1343	2033.35	1150.75
958.6785	2304.5748	2022.1	1140.05
958.8108	2306.0147	2019.3	1136.4
958.9432	2307.4538	2014.3	1127.15
959.0754	2308.8922	2011.95	1131.15
959.2077	2310.3299	2008.45	1125.55
959.3399	2311.7669	2001.35	1118.4
959.4721	2313.2031	2002.85	1119.65
959.6043	2314.6387	2000.75	1117.85
959.7365	2316.0735	1993.85	1114.5
959.8686	2317.5076	1997.45	1113.9
960.0006	2318.941	1983.65	1100.15
960.1327	2320.3737	1993.25	1108.65
960.2647	2321.8056	1981.55	1095.65
960.3967	2323.2369	1978.8	1094.55
960.5287	2324.6674	1983.15	1097.5
960.6606	2326.0972	1974.4	1088.85
960.7925	2327.5263	1968.75	1086.05
960.9244	2328.9547	1975.4	1092.15
961.0562	2330.3823	1957.15	1073.3
961.1881	2331.8092	1962.7	1078.55
961.3198	2333.2355	1958.8	1075.75
961.4516	2334.661	1951.65	1069.4
961.5833	2336.0858	1960.2	1076.05
961.715	2337.5098	1955.45	1073.05
961.8467	2338.9332	1944.65	1062.85
961.9783	2340.3558	1948.2	1062.7
962.1099	2341.7778	1949.8	1067.25
962.2415	2343.199	1947.25	1061.85
962.373	2344.6195	1944	1063.65
962.5045	2346.0393	1936.35	1055.4
962.636	2347.4583	1930.25	1046
962.7675	2348.8767	1931.75	1047.8
962.8989	2350.2943	1930.6	1048
963.0303	2351.7113	1936.65	1053.35
963.1617	2353.1275	1936.6	1053
963.293	2354.543	1944.3	1036.35
963.4243	2355.9578	1930.85	1049.2
963.5556	2357.3718	1922.75	1040.45
963.6868	2358.7852	1920.15	1034.55
963.818	2360.1978	1912.85	1029
963.9492	2361.6098	1901.5	1017.85
964.0803	2363.021	1913.05	1025.2
964.2114	2364.4315	1903.65	1020.8
964.3425	2365.8413	1907.2	1023.15
964.4736	2367.2504	1895.5	1013.6
964.6046	2368.6587	1888.35	1004.75
964.7356	2370.0664	1890.15	1006.55
964.8666	2371.4733	1886.4	1004.65
964.9975	2372.8795	1883.15	1001.6
965.1284	2374.285	1878.1	995.45
965.2593	2375.6899	1863.75	982.05
965.3901	2377.0939	1867.1	983.8
965.5209	2378.4973	1876.2	996.05
965.6517	2379.9	1873.75	990.4
965.7825	2381.3019	1865.25	982.4
965.9132	2382.7032	1863	981.3
966.0439	2384.1037	1861.95	979.05
966.1745	2385.5035	1851.85	971.5
966.3051	2386.9027	1854.95	974.05
966.4357	2388.3011	1857.55	971.75
966.5663	2389.6987	1849.75	965.75
966.6968	2391.0957	1836.8	956.25
966.8273	2392.492	1833.4	952.6
966.9578	2393.8876	1827.15	943.4
967.0882	2395.2824	1836.15	953.45
967.2186	2396.6765	1824.3	942.65
967.349	2398.07	1816.1	933.45
967.4793	2399.4627	1810.4	927.65
967.6097	2400.8547	1821.65	938.1
967.7399	2402.246	1819.5	931.85
967.8702	2403.6366	1809.25	927.7
968.0004	2405.0265	1805.35	922.15
968.1306	2406.4156	1813.25	925.7
968.2607	2407.8041	1804.15	918.65
968.3909	2409.1918	1803.85	920.55
968.521	2410.5789	1797.1	915.7
968.651	2411.9652	1803	916.25
968.781	2413.3508	1802.85	921.55
968.911	2414.7358	1791.15	907.95
969.041	2416.12	1785.15	903.95
969.1709	2417.5035	1785.75	903.6
969.3008	2418.8863	1784.95	901.75
969.4307	2420.2684	1778.2	895.6
969.5606	2421.6497	1779.6	897
969.6904	2423.0304	1775.9	893.45
969.8201	2424.4104	1767.1	885.4
969.9499	2425.7896	1775.15	889.15
970.0796	2427.1682	1763.5	880.4
970.2093	2428.546	1766.6	883
970.3389	2429.9232	1752.7	870.9
970.4685	2431.2996	1758.5	875.5
970.5981	2432.6753	1758.5	878.75
970.7277	2434.0503	1760.45	878.3
970.8572	2435.4246	1752.25	870.45
970.9867	2436.7982	1754.4	870.25
971.1161	2438.1711	1743.35	862.8
971.2456	2439.5433	1748.05	864.8
971.375	2440.9148	1749.35	861.5
971.5043	2442.2856	1735.7	853.15
971.6336	2443.6557	1727.55	841.75
971.7629	2445.025	1738.4	855.85
971.8922	2446.3937	1726.95	844.65
972.0214	2447.7617	1725	840.9
972.1506	2449.1289	1729.7	848.35
972.2798	2450.4955	1717.95	832.5
972.4089	2451.8613	1721.55	839.65
972.538	2453.2265	1715.2	832.05
972.6671	2454.5909	1717.5	834.85
972.7961	2455.9546	1704.55	821.9
972.9251	2457.3177	1710.55	828.85
973.0541	2458.68	1710.75	825.9
973.1831	2460.0416	1704.5	821.85
973.312	2461.4025	1707.1	823.75
973.4408	2462.7627	1718.3	825.25
973.5697	2464.1222	1704.35	821.85
973.6985	2465.4811	1704.1	820.45
973.8273	2466.8392	1707.55	823.7
973.956	2468.1966	1695.6	810.1
974.0847	2469.5533	1704.6	820.15
974.2134	2470.9093	1705	822.15
974.3421	2472.2645	1702.9	816.55
974.4707	2473.6191	1693.45	812.3
974.5993	2474.973	1696.2	813.8
974.7278	2476.3262	1692.7	808.05
974.8563	2477.6787	1684.1	805.15
974.9848	2479.0305	1680.5	796.55
975.1132	2480.3816	1672.6	788.1
975.2417	2481.7319	1680.6	798.3
975.37	2483.0816	1672	786.25
975.4984	2484.4306	1677.95	794.05
975.6267	2485.7789	1670	787.1
975.755	2487.1264	1673.45	789.9
975.8833	2488.4733	1662.55	779.9
976.0115	2489.8195	1667.5	765.15
976.1397	2491.165	1664	776.15
976.2678	2492.5097	1658.35	773
976.3959	2493.8538	1655.15	773.85
976.524	2495.1972	1651.3	768.55
976.6521	2496.5398	1651.65	767.7
976.7801	2497.8818	1662.95	778.3
976.9081	2499.2231	1652	769
977.036	2500.5637	1637.15	752.65
977.164	2501.9035	1642.55	757.5
977.2918	2503.2427	1642.8	756.85
977.4197	2504.5812	1637.05	753.05
977.5475	2505.919	1637.1	753.7
977.6753	2507.256	1631.3	748.4
977.8031	2508.5924	1624.6	740.65
977.9308	2509.9281	1630.45	741.75
978.0585	2511.2631	1629.75	747.7
978.1861	2512.5974	1634.65	753.5
978.3137	2513.9309	1627.55	745.8
978.4413	2515.2638	1652.7	745.6
978.5689	2516.596	1614.6	730.45
978.6964	2517.9275	1614.85	733.15
978.8239	2519.2583	1618.2	735.45
978.9513	2520.5884	1612.5	725.75
979.0788	2521.9178	1613.5	730
979.2062	2523.2465	1606.6	723.1
979.3335	2524.5745	1604.2	722.9
979.4608	2525.9018	1603.15	721.05
979.5881	2527.2284	1601.65	722.2
979.7154	2528.5543	1600.75	719.6
979.8426	2529.8796	1599.25	718.6
979.9698	2531.2041	1597.35	715.55
980.0969	2532.5279	1597.2	715.8
980.224	2533.851	1591.35	709.3
980.3511	2535.1735	1599.1	717.15
980.4781	2536.4952	1596.2	712.35
980.6052	2537.8163	1583.05	700.3
980.7321	2539.1366	1588.25	706.55
980.8591	2540.4562	1587.35	703.9
980.986	2541.7752	1592.65	709.45
981.1129	2543.0935	1589.15	707.5
981.2397	2544.411	1581.75	699.1
981.3665	2545.7279	1584.35	701.8
981.4933	2547.0441	1578	697.05
981.62	2548.3596	1584.35	699.55
981.7467	2549.6744	1579.3	697.7
981.8734	2550.9885	1576.7	692.95
982.0001	2552.3019	1571.9	689.35
982.1267	2553.6146	1569.85	687.45
982.2532	2554.9266	1580.55	698.6
982.3798	2556.2379	1568.95	684.45
982.5063	2557.5485	1570.35	689.8
982.6327	2558.8585	1585.5	696.1
982.7592	2560.1677	1574.75	689.15
982.8856	2561.4762	1560.9	678
983.0119	2562.7841	1568.1	682.35
983.1383	2564.0913	1565.35	685
983.2646	2565.3977	1562.75	679.9
983.3908	2566.7035	1567.6	683
983.517	2568.0086	1556.65	673.15
983.6432	2569.313	1559.9	678.7
983.7694	2570.6167	1564.1	676.55
983.8955	2571.9197	1555.2	674
984.0216	2573.222	1563.05	677.9
984.1476	2574.5236	1554.35	669.8
984.2737	2575.8246	1554.95	669.6
984.3996	2577.1248	1556.65	672.4
984.5256	2578.4244	1552.65	668.45
984.6515	2579.7232	1557.4	673.4
984.7774	2581.0214	1582.55	668.85
984.9032	2582.3189	1552.05	670.55
985.029	2583.6157	1555.9	666.15
985.1548	2584.9118	1556.35	673.35
985.2806	2586.2072	1548.25	664.7
985.4063	2587.5019	1558.75	676.15
985.5319	2588.7959	1548	664.05
985.6576	2590.0893	1558.45	675.5
985.7832	2591.3819	1550.3	669.25
985.9087	2592.6739	1553.05	671.35
986.0343	2593.9652	1554.4	672.35
986.1597	2595.2557	1555.1	672.85
986.2852	2596.5456	1556.9	672.5
986.4106	2597.8348	1550.45	668.8
986.536	2599.1234	1551.2	669.1
986.6614	2600.4112	1542.35	659.1
986.7867	2601.6983	1553.4	666.85
986.912	2602.9848	1551.5	668.7
987.0372	2604.2705	1551.55	663.05
987.1624	2605.5556	1547	664.35
987.2876	2606.84	1549.65	667.8
987.4128	2608.1237	1546.35	662.55
987.5379	2609.4067	1545.85	664.4
987.6629	2610.689	1550.7	659.85
987.788	2611.9707	1539.15	652.15
987.913	2613.2516	1541.9	655.7
988.0379	2614.5319	1530.1	645.95
988.1629	2615.8115	1528.3	644.5
988.2878	2617.0903	1526.35	642.4
988.4126	2618.3685	1521.4	638.65
988.5375	2619.6461	1516.4	633.1
988.6622	2620.9229	1528.9	648.4
988.787	2622.199	1518.5	633.3
988.9117	2623.4745	1519.45	637.25
989.0364	2624.7493	1517.35	635.9
989.161	2626.0234	1507.35	626.35
989.2857	2627.2968	1512.85	631.9
989.4102	2628.5695	1517.7	634.55
989.5348	2629.8415	1511.7	627.95
989.6593	2631.1128	1517.3	632.85
989.7837	2632.3835	1505.8	624.35
989.9082	2633.6535	1513.05	631.85
990.0326	2634.9228	1502.15	619.6
990.1569	2636.1914	1507.15	625.2
990.2812	2637.4593	1512.6	628.4
990.4055	2638.7265	1508.55	625.45
990.5298	2639.9931	1496.75	614.2
990.654	2641.259	1500.1	616.45
990.7782	2642.5242	1507.75	624.9
990.9023	2643.7887	1499.1	617.55
991.0264	2645.0525	1497.4	615.9
991.1505	2646.3156	1488.4	606.3
991.2745	2647.5781	1489.15	607.95
991.3985	2648.8398	1482.6	600.15
991.5225	2650.1009	1525.9	605.6
991.6464	2651.3613	1484.85	604.25
991.7703	2652.6211	1477.7	596.4
991.8942	2653.8801	1475.5	593.4
992.018	2655.1385	1486.45	601.25
992.1418	2656.3961	1481.6	599.35
992.2655	2657.6531	1482.7	599.7
992.3892	2658.9094	1483.7	599.75
992.5129	2660.1651	1484.55	602.25
992.6366	2661.42	1478.25	598.1
992.7602	2662.6743	1481.65	597.7
992.8837	2663.9279	1489.25	607.15
993.0073	2665.1808	1486.15	602.05
993.1307	2666.433	1490.05	606.75
993.2542	2667.6846	1493.85	613.55
993.3776	2668.9354	1498.35	610.75
993.501	2670.1856	1490	607.2
993.6244	2671.4351	1500.5	618
993.7477	2672.6839	1494.1	611.05
993.8709	2673.9321	1500.65	621.2
993.9942	2675.1795	1501.1	619.6
994.1174	2676.4263	1501.65	619.15
994.2405	2677.6724	1497.4	617.9
994.3637	2678.9179	1502.7	620.05
994.4868	2680.1626	1507.45	624.3
994.6098	2681.4067	1497.6	616.7
994.7328	2682.6501	1495.85	613.55
994.8558	2683.8928	1496.75	614.4
994.9788	2685.1348	1488.85	606.75
995.1017	2686.3761	1484.05	602
995.2245	2687.6168	1478.8	597.2
995.3474	2688.8568	1480	596.4
995.4702	2690.0961	1474.1	593.4
995.5929	2691.3348	1477.35	595.9
995.7156	2692.5727	1475.3	592.7
995.8383	2693.81	1471.3	589.65
995.961	2695.0466	1458.65	577.75
996.0836	2696.2826	1465.6	582.45
996.2062	2697.5178	1472.75	587.25
996.3287	2698.7524	1465.75	582.1
996.4512	2699.9863	1472.95	588
996.5737	2701.2195	1473.35	593.45
996.6961	2702.452	1477.75	595.95
996.8185	2703.6839	1483.6	597.75
996.9408	2704.9151	1481.15	600.95
997.0631	2706.1456	1484.3	599.9
997.1854	2707.3755	1492.35	611.75
997.3077	2708.6046	1503.7	618.1
997.4299	2709.8331	1506.3	623.85
997.552	2711.0609	1503.35	622.75
997.6742	2712.2881	1513.85	631
997.7963	2713.5145	1529.2	644.4
997.9183	2714.7403	1533.25	651
998.0403	2715.9654	1537.3	654.3
998.1623	2717.1899	1570.1	672.55
998.2842	2718.4136	1561.8	680.55
998.4062	2719.6367	1567.7	685.3
998.528	2720.8591	1591.45	703.15
998.6498	2722.0809	1591.3	707.8
998.7716	2723.3019	1596.8	712.05
998.8934	2724.5223	1615.55	732.7
999.0151	2725.7421	1619.85	736.2
999.1368	2726.9611	1615.95	731.7
999.2584	2728.1795	1614	727
999.38	2729.3972	1604.35	723.55
999.5016	2730.6142	1613.9	719.95
999.6231	2731.8306	1579.35	695.05
999.7446	2733.0462	1567.75	682.6
999.8661	2734.2612	1557.1	668.85
999.9875	2735.4756	1533.75	650.1
1000.1089	2736.6892	1526.35	642.75
1000.2302	2737.9022	1506.15	624.05
1000.3515	2739.1145	1496.3	614.55
1000.4728	2740.3262	1496.75	607.3
1000.594	2741.5372	1476	593.95
1000.7152	2742.7475	1468.95	587.2
1000.8363	2743.9571	1460.25	576.5
1000.9575	2745.1661	1452.6	566.6
1001.0785	2746.3744	1435.45	552.25
1001.1996	2747.582	1427.3	543.05
1001.3206	2748.7889	1422.4	537.2
1001.4415	2749.9952	1417.7	534.7
1001.5625	2751.2008	1406.4	522.7
1001.6833	2752.4057	1407.95	524.25
1001.8042	2753.61	1407.85	524.75
1001.925	2754.8136	1413.1	530.7
1002.0458	2756.0165	1400.85	520.6
1002.1665	2757.2188	1398.45	516.95
1002.2872	2758.4204	1395.75	513.4
1002.4078	2759.6213	1397.5	511.6
1002.5285	2760.8215	1406.95	520
1002.649	2762.0211	1399.75	514.7
1002.7696	2763.22	1397.4	511.85
1002.8901	2764.4182	1395.65	512.35
1003.0106	2765.6158	1390.35	505.75
1003.131	2766.8127	1388.2	504.95
1003.2514	2768.009	1383.65	500.15
1003.3717	2769.2045	1382.1	498.85
1003.492	2770.3994	1381.6	496.45
1003.6123	2771.5936	1374.3	490
1003.7325	2772.7872	1377.3	495.1
1003.8527	2773.9801	1374.4	489.05
1003.9729	2775.1723	1386.1	489.75
1004.093	2776.3639	1368.9	487.8
1004.2131	2777.5548	1371.05	486.95
1004.3331	2778.745	1370.95	488.65
1004.4531	2779.9346	1368.25	486.05
1004.5731	2781.1235	1377.05	494.05
1004.693	2782.3117	1378.1	495.65
1004.8129	2783.4992	1365.7	483.25
1004.9328	2784.6861	1377.7	494.25
1005.0526	2785.8723	1381.8	495.85
1005.1723	2787.0579	1388.3	504.4
1005.2921	2788.2428	1392.7	510
1005.4118	2789.427	1397.2	515.75
1005.5314	2790.6106	1394.75	513.4
1005.651	2791.7935	1415.05	530.85
1005.7706	2792.9757	1414.4	532.85
1005.8902	2794.1573	1424.4	538.9
1006.0097	2795.3382	1426.7	543.5
1006.1291	2796.5184	1439.2	559.3
1006.2485	2797.698	1456.75	572.9
1006.3679	2798.8769	1460.45	578.25
1006.4873	2800.0551	1480.45	596.95
1006.6066	2801.2327	1495.55	610.35
1006.7258	2802.4096	1501.05	618.7
1006.8451	2803.5859	1523	638.6
1006.9642	2804.7615	1538.05	657.45
1007.0834	2805.9364	1557.3	674
1007.2025	2807.1106	1575.5	693.05
1007.3216	2808.2842	1596.1	714
1007.4406	2809.4572	1636.2	752
1007.5596	2810.6294	1662.2	777.65
1007.6785	2811.801	1692.2	812.1
1007.7975	2812.972	1736.75	853.45
1007.9163	2814.1423	1769.75	885.95
1008.0352	2815.3119	1811.05	929.4
1008.154	2816.4808	1846.85	964.1
1008.2727	2817.6491	1900.8	1018.9
1008.3914	2818.8167	1949.7	1068.9
1008.5101	2819.9837	2006.3	1119.55
1008.6288	2821.15	2054.4	1170.75
1008.7474	2822.3157	2113.95	1232.65
1008.8659	2823.4807	2154.6	1271.95
1008.9844	2824.645	2227.5	1344.45
1009.1029	2825.8086	2273.3	1390.85
1009.2214	2826.9716	2327.35	1445.9
1009.3398	2828.134	2373.55	1490.85
1009.4581	2829.2957	2416.1	1533.7
1009.5764	2830.4567	2442.45	1560.9
1009.6947	2831.617	2469.5	1585.8
1009.813	2832.7767	2483.7	1601.65
1009.9312	2833.9358	2491.8	1610.85
1010.0493	2835.0941	2482.55	1599.25
1010.1675	2836.2519	2460.25	1579.7
1010.2855	2837.4089	2443.55	1560.1
1010.4036	2838.5653	2425.25	1544.15
1010.5216	2839.7211	2420.7	1537.9
1010.6396	2840.8761	2417.15	1531.2
1010.7575	2842.0306	2418.3	1536.65
1010.8754	2843.1843	2447.9	1566.75
1010.9932	2844.3374	2475.95	1592.9
1011.111	2845.4899	2519.35	1634.85
1011.2288	2846.6417	2577.85	1693.95
1011.3465	2847.7928	2635.85	1755.6
1011.4642	2848.9433	2685.4	1801.65
1011.5818	2850.0931	2753.85	1870.85
1011.6995	2851.2422	2828.9	1943.8
1011.817	2852.3907	2876.75	1993.6
1011.9345	2853.5385	2920.25	2037.9
1012.052	2854.6857	3003.5	2092.4
1012.1695	2855.8323	3035.55	2153.25
1012.2869	2856.9781	3082.25	2198.3
1012.4042	2858.1233	3130.3	2248.95
1012.5216	2859.2679	3170.45	2288.65
1012.6389	2860.4118	3227.85	2344.25
1012.7561	2861.555	3274.7	2386.15
1012.8733	2862.6976	3319.6	2435.6
1012.9905	2863.8395	3341.4	2456.55
1013.1076	2864.9808	3370.05	2486.25
1013.2247	2866.1214	3400.7	2518
1013.3417	2867.2614	3409.7	2525.9
1013.4587	2868.4007	3427.25	2544.15
1013.5757	2869.5393	3435.15	2551.25
1013.6926	2870.6773	3450.25	2565.7
1013.8095	2871.8146	3474.2	2589.75
1013.9263	2872.9513	3471.3	2585.95
1014.0431	2874.0874	3461.95	2581.2
1014.1599	2875.2227	3447.3	2563.35
1014.2766	2876.3574	3429.6	2547.5
1014.3933	2877.4915	3418.9	2534.4
1014.51	2878.6249	3392.75	2509.35
1014.6266	2879.7577	3370.75	2486.75
1014.7431	2880.8898	3357.9	2462.85
1014.8596	2882.0212	3332.55	2450.8
1014.9761	2883.152	3321	2437.4
1015.0925	2884.2821	3294.7	2415
1015.2089	2885.4116	3301.2	2419.1
1015.3253	2886.5405	3297.9	2416.65
1015.4416	2887.6686	3308.3	2423
1015.5579	2888.7962	3307.85	2427.95
1015.6741	2889.923	3316.25	2435.5
1015.7903	2891.0493	3341.75	2461.3
1015.9065	2892.1748	3338.5	2455.9
1016.0226	2893.2997	3346.1	2462.55
1016.1387	2894.424	3357.5	2477.15
1016.2547	2895.5476	3376.8	2494.95
1016.3707	2896.6706	3398.8	2516.4
1016.4866	2897.7929	3410.7	2526.3
1016.6025	2898.9145	3432.1	2549.65
1016.7184	2900.0355	3483.95	2600.4
1016.8342	2901.1559	3497.3	2613.85
1016.95	2902.2756	3524	2641.8
1017.0658	2903.3946	3548.85	2668.15
1017.1815	2904.513	3590.7	2705.05
1017.2971	2905.6308	3594.05	2711.6
1017.4127	2906.7479	3627.7	2744.4
1017.5283	2907.8643	3656.2	2774.05
1017.6439	2908.9801	3671.1	2789.4
1017.7594	2910.0953	3683	2801.25
1017.8748	2911.2098	3671.55	2783.95
1017.9902	2912.3236	3687.75	2796.6
1018.1056	2913.4368	3672.8	2788.15
1018.2209	2914.5494	3631	2748.05
1018.3362	2915.6613	3598.65	2707.4
1018.4515	2916.7725	3591.8	2705.6
1018.5667	2917.8831	3547.15	2664.85
1018.6819	2918.9931	3522.6	2637
1018.797	2920.1024	3491.25	2607.45
1018.9121	2921.211	3461.25	2579.45
1019.0271	2922.319	3453.45	2570.8
1019.1421	2923.4264	3451.05	2569.3
1019.2571	2924.5331	3430.1	2549.05
1019.372	2925.6391	3416.5	2534
1019.4869	2926.7445	3422.45	2542.55
1019.6017	2927.8493	3412.2	2530.6
1019.7165	2928.9534	3435.35	2550.5
1019.8313	2930.0569	3426.85	2544.25
1019.946	2931.1597	3429.4	2544.65
1020.0606	2932.2619	3433.7	2553.6
1020.1753	2933.3634	3434.15	2551.8
1020.2899	2934.4643	3432	2542.8
1020.4044	2935.5645	3436.9	2548.9
1020.5189	2936.6641	3418.25	2532.05
1020.6334	2937.763	3377.2	2495.8
1020.7478	2938.8613	3344.35	2461.1
1020.8622	2939.959	3298.95	2410.25
1020.9765	2941.056	3234.35	2351.9
1021.0908	2942.1523	3158.7	2275.8
1021.2051	2943.248	3082.4	2200.95
1021.3193	2944.3431	3008.25	2127.25
1021.4334	2945.4375	2920.2	2036
1021.5476	2946.5313	2816.1	1934.85
1021.6617	2947.6244	2731.6	1848
1021.7757	2948.7169	2630.45	1747.25
1021.8897	2949.8087	2540.45	1657.9
1022.0037	2950.8999	2447.45	1562.5
1022.1176	2951.9904	2380.5	1497.8
1022.2315	2953.0803	2312.15	1428.85
1022.3453	2954.1696	2246.3	1365.25
1022.4591	2955.2582	2188.15	1307.35
1022.5728	2956.3462	2146.95	1265.35
1022.6865	2957.4335	2109.75	1226.25
1022.8002	2958.5202	2068.7	1184.55
1022.9138	2959.6062	2042.65	1160.7
1023.0274	2960.6916	2019.5	1137.35
1023.141	2961.7764	2002.3	1119.2
1023.2545	2962.8605	2000.75	1118.05
1023.3679	2963.9439	1970.4	1087.75
1023.4813	2965.0267	1966.4	1083.15
1023.5947	2966.1089	1987.15	1082.8
1023.708	2967.1905	1954.15	1073.85
1023.8213	2968.2714	1954.25	1071.9
1023.9346	2969.3516	1941.8	1059.7
1024.0478	2970.4312	1972.25	1080.95
1024.1609	2971.5102	1958.3	1075.55
1024.274	2972.5885	1952.55	1071.15
1024.3871	2973.6662	1967.4	1080.7
1024.5002	2974.7432	1958.05	1074.45
1024.6132	2975.8196	1958.75	1076.7
1024.7261	2976.8954	1948.55	1065.35
1024.839	2977.9705	1936.15	1053.5
1024.9519	2979.045	1938.8	1057.95
1025.0647	2980.1188	1916.1	1033.5
1025.1775	2981.192	1903.3	1022
1025.2902	2982.2645	1887.25	1003.8
1025.4029	2983.3364	1863.5	981.9
1025.5156	2984.4077	1838.3	957
1025.6282	2985.4783	1812.45	924.7
1025.7407	2986.5483	1778.5	895.8
1025.8532	2987.6177	1748.85	868
1025.9657	2988.6864	1724.7	842.4
1026.0782	2989.7545	1680.65	796.85
1026.1906	2990.8219	1652.4	770.5
1026.3029	2991.8887	1625.45	740.7
1026.4152	2992.9548	1593.1	710.7
1026.5275	2994.0204	1558.15	677.75
1026.6397	2995.0852	1540.15	660.4
1026.7519	2996.1495	1509.7	625.5
1026.864	2997.2131	1486.7	605.6
1026.9761	2998.276	1459.85	577.7
1027.0882	2999.3383	1443.85	559.7
1027.2002	3000.4	1420.5	537
1027.3122	3001.4611	1407.5	525.8
1027.4241	3002.5215	1384.8	500.7
1027.536	3003.5812	1371.25	488.3
1027.6478	3004.6404	1364.2	480.8
1027.7596	3005.6989	1346.65	463
1027.8714	3006.7567	1334.45	452.65
1027.9831	3007.8139	1355.6	446.9
1028.0947	3008.8705	1316.45	435.65
1028.2064	3009.9264	1333.3	434.5
1028.3179	3010.9818	1308.4	425.9
1028.4295	3012.0364	1307.95	424.45
1028.541	3013.0905	1293.8	411.65
1028.6524	3014.1439	1291.8	410
1028.7638	3015.1966	1286.25	403.95
1028.8752	3016.2487	1278.8	396.95
1028.9865	3017.3002	1283.6	398.95
1029.0978	3018.3511	1271.2	390.6
1029.209	3019.4013	1273.65	391.35
1029.3202	3020.4509	1279.45	397.35
1029.4314	3021.4998	1262.8	379.55
1029.5425	3022.5481	1274.05	393.1
1029.6535	3023.5958	1272.5	390
1029.7645	3024.6428	1268.05	386.25
1029.8755	3025.6892	1265	381.85
1029.9864	3026.735	1266.1	384.45
1030.0973	3027.7802	1257.3	374.55
1030.2082	3028.8247	1261.8	380.3
1030.319	3029.8685	1269.4	389.55
1030.4297	3030.9118	1272.8	389.4
1030.5404	3031.9544	1263.2	383.1
1030.6511	3032.9963	1271.45	389.95
1030.7617	3034.0376	1272.55	391.85
1030.8723	3035.0783	1282.7	397.2
1030.9829	3036.1184	1285.75	402.85
1031.0934	3037.1578	1283.8	403.35
1031.2038	3038.1966	1285.55	400.2
1031.3142	3039.2348	1279.2	398.6
1031.4246	3040.2723	1292.9	402.85
1031.5349	3041.3092	1290.55	410.05
1031.6452	3042.3455	1285.3	402.55
1031.7554	3043.3811	1285.2	403.15
1031.8656	3044.4161	1283	399.7
1031.9758	3045.4505	1270.5	390.3
1032.0859	3046.4842	1279.1	397.45
1032.1959	3047.5173	1276.05	394.45
1032.3059	3048.5498	1269.75	389.55
1032.4159	3049.5816	1269.25	386.9
1032.5258	3050.6128	1263.2	380.1
1032.6357	3051.6434	1260	376.85
1032.7455	3052.6734	1259.2	376.45
1032.8553	3053.7027	1254.4	370.6
1032.9651	3054.7314	1251.35	369.35
1033.0748	3055.7594	1244.65	362.8
1033.1845	3056.7868	1247.7	365.9
1033.2941	3057.8136	1246.35	363.65
1033.4037	3058.8398	1243	362.8
1033.5132	3059.8653	1237.2	354.8
1033.6227	3060.8902	1229.95	348.4
1033.7321	3061.9145	1228.55	345.1
1033.8415	3062.9381	1222.8	340
1033.9509	3063.9612	1244.15	346.7
1034.0602	3064.9835	1225.2	344.05
1034.1694	3066.0053	1224.8	340.8
1034.2787	3067.0264	1212.5	332.8
1034.3878	3068.0469	1206.75	322.8
1034.497	3069.0668	1202.2	317.1
1034.6061	3070.086	1197.4	314.15
1034.7151	3071.1046	1195.25	310.1
1034.8241	3072.1226	1189.55	305.15
1034.9331	3073.1399	1182.05	299.55
1035.042	3074.1567	1172.25	290.2
1035.1508	3075.1727	1168	285.2
1035.2597	3076.1882	1166.85	285.05
1035.3684	3077.203	1153.2	270.05
1035.4772	3078.2173	1149.8	267.75
1035.5859	3079.2308	1142	257.35
1035.6945	3080.2438	1141.5	257.75
1035.8031	3081.2561	1131.65	248.35
1035.9117	3082.2678	1122.2	238.7
1036.0202	3083.2789	1120.3	237.7
1036.1286	3084.2893	1110.45	229.6
1036.2371	3085.2991	1110.6	227.8
1036.3454	3086.3083	1109.15	221.55
1036.4538	3087.3169	1098.1	215.5
1036.562	3088.3248	1097.25	213.8
1036.6703	3089.3321	1088.25	204.7
1036.7785	3090.3388	1081.9	199.7
1036.8866	3091.3449	1084.15	200.7
1036.9948	3092.3503	1080.4	195.15
1037.1028	3093.3551	1073.4	191.6
1037.2108	3094.3593	1069.35	188
1037.3188	3095.3629	1069.3	187.6
1037.4267	3096.3658	1069.7	186.3
1037.5346	3097.3681	1064.75	183
1037.6425	3098.3698	1065.55	180.95
1037.7503	3099.3708	1062.8	174.8
1037.858	3100.3713	1054.35	173.45
1037.9657	3101.3711	1055	172.35
1038.0734	3102.3702	1189.15	165.95
1038.181	3103.3688	1052.95	169.85
1038.2886	3104.3667	1045.8	166.1
1038.3961	3105.364	1045.1	164.85
1038.5036	3106.3607	1043.7	160.3
1038.611	3107.3568	1043.1	158.35
1038.7184	3108.3522	1036.55	153.45
1038.8257	3109.347	1036	152.9
1038.933	3110.3412	1041.75	155.3
1039.0403	3111.3348	1034.9	153.85
1039.1475	3112.3277	1030	148.9
1039.2547	3113.32	1030	147.3
1039.3618	3114.3117	1025.85	144.6
1039.4689	3115.3028	1025.9	143.45
1039.5759	3116.2932	1029.95	147.55
1039.6829	3117.2831	1027.4	140.65
1039.7898	3118.2723	1022.1	139.8
1039.8967	3119.2608	1026	143.95
1040.0035	3120.2488	1024.25	141.35
1040.1103	3121.2361	1021.45	140.65
1040.2171	3122.2229	1018	135.4
1040.3238	3123.209	1021.1	139.3
1040.4305	3124.1944	1013.6	132.9
1040.5371	3125.1793	1016	131.65
1040.6437	3126.1635	1013.6	132.1
1040.7502	3127.1471	1010.35	128.8
1040.8567	3128.1301	1006.6	124.1
1040.9631	3129.1125	1004.75	123.35
1041.0695	3130.0942	1007	124.25
1041.1759	3131.0753	1015.3	126.45
1041.2822	3132.0558	1011.6	126.8
1041.3884	3133.0357	1008.3	126.05
1041.4946	3134.015	1005.75	122.85
1041.6008	3134.9936	1004.3	120.8
1041.7069	3135.9716	1025.6	122.45
1041.813	3136.949	996.65	116.3
1041.919	3137.9258	1020.7	117.35
1042.025	3138.902	1004.85	119.35
1042.1309	3139.8775	996.55	114.9
1042.2368	3140.8524	1000.45	116.7
1042.3427	3141.8267	993.6	110.2
1042.4485	3142.8004	992.7	109.15
1042.5542	3143.7735	998.3	109.1
1042.6599	3144.7459	997.15	112.35
1042.7656	3145.7178	996.1	115.15
1042.8712	3146.689	992.5	111.8
1042.9768	3147.6596	992.05	108.95
1043.0823	3148.6295	988.35	106.15
1043.1878	3149.5989	988.6	107.55
1043.2932	3150.5676	989.95	109.2
1043.3986	3151.5357	985.95	105.95
1043.5039	3152.5032	983.1	97.4
1043.6092	3153.4701	985.55	105.6
1043.7145	3154.4364	988.6	104.35
1043.8197	3155.402	985.35	106.05
1043.9248	3156.367	982	98
1044.03	3157.3315	1009.55	99.75
1044.135	3158.2952	978.75	96.55
1044.24	3159.2584	981.2	99.55
1044.345	3160.221	979.5	97.8
1044.4499	3161.1829	979.5	96.75
1044.5548	3162.1442	975.8	95.3
1044.6596	3163.105	975.9	94.15
1044.7644	3164.065	974.8	91.45
1044.8692	3165.0245	981.1	96.1
1044.9739	3165.9834	973.2	93.65
1045.0785	3166.9416	976.05	94.7
1045.1831	3167.8993	975.65	93.3
1045.2877	3168.8563	971.4	89.5
1045.3922	3169.8127	973.45	92.75
1045.4966	3170.7684	974.3	92.95
1045.6011	3171.7236	976.05	93.75
1045.7054	3172.6782	972.15	90.3
1045.8098	3173.6321	972.8	91.3
1045.914	3174.5854	975.4	88.85
1046.0183	3175.5381	973.85	91
1046.1224	3176.4902	968.4	88.1
1046.2266	3177.4417	971.3	87.6
1046.3307	3178.3926	969.85	89.55
1046.4347	3179.3428	968.6	89.05
1046.5387	3180.2924	964.45	84.9
1046.6427	3181.2415	966.35	85.5
1046.7466	3182.1899	964.6	82
1046.8504	3183.1377	968.9	87.4
1046.9542	3184.0848	967.25	83
1047.058	3185.0314	962.4	80.05
1047.1617	3185.9773	968.85	84.25
1047.2654	3186.9227	967.6	83.3
1047.369	3187.8674	963.45	79.95
1047.4726	3188.8115	967.35	82.3
1047.5761	3189.755	963.75	82.2
1047.6796	3190.6979	965.05	84.4
1047.783	3191.6402	960.15	79.75
1047.8864	3192.5818	960.75	78.8
1047.9898	3193.5229	982.8	81.9
1048.0931	3194.4633	962.7	80.5
1048.1963	3195.4031	959.35	77.3
1048.2995	3196.3423	958.55	76.45
1048.4027	3197.2809	959.8	76.3
1048.5058	3198.2189	957.45	75.1
1048.6089	3199.1563	978.05	81.4
1048.7119	3200.0931	956.65	75.75
1048.8148	3201.0292	956.25	74.35
1048.9178	3201.9648	957.2	74.4
1049.0206	3202.8997	957.65	73
1049.1235	3203.834	955.45	73.6
1049.2262	3204.7677	953.85	71.45
1049.329	3205.7008	956.55	74
1049.4317	3206.6333	954.55	73.8
1049.5343	3207.5652	956.3	70
1049.6369	3208.4964	954	72.55
1049.7394	3209.4271	948.7	64.55
1049.8419	3210.3571	951.45	70.95
1049.9444	3211.2865	954.95	71.75
1050.0468	3212.2154	952.5	70.9
1050.1491	3213.1436	957.4	73.65
1050.2514	3214.0712	957.65	68.95
1050.3537	3214.9982	948.35	67.65
1050.4559	3215.9246	951.1	67.1
1050.5581	3216.8503	949.05	68.45
1050.6602	3217.7755	952	69
1050.7623	3218.7001	951.4	70.15
1050.8643	3219.624	949.5	66.05
1050.9663	3220.5473	948.05	66.35
1051.0682	3221.4701	949.45	65.3
1051.1701	3222.3922	949.4	64.7
1051.2719	3223.3137	948.9	68.4
1051.3737	3224.2346	949.1	66.4
1051.4754	3225.1549	946.85	64.85
1051.5771	3226.0746	947.25	67.05
1051.6788	3226.9937	950.1	68.6
1051.7804	3227.9121	943.75	63.5
1051.8819	3228.83	941.05	59.95
1051.9834	3229.7473	945.95	64.85
1052.0849	3230.6639	948.2	67.45
1052.1863	3231.5799	946.65	65.65
1052.2876	3232.4954	943.65	60.5
1052.3889	3233.4102	942.1	62.05
1052.4902	3234.3244	944.15	61
1052.5914	3235.238	942.5	62.5
1052.6926	3236.151	964.5	58.35
1052.7937	3237.0634	941.2	60.55
1052.8948	3237.9752	940.6	59.3
1052.9958	3238.8864	937.7	55
1053.0968	3239.797	939.5	59.5
1053.1977	3240.7069	943.25	60.1
1053.2986	3241.6163	940.9	57.6
1053.3994	3242.5251	940.35	61.2
1053.5002	3243.4332	937.7	55.7
1053.6009	3244.3408	939	56.8
1053.7016	3245.2477	939.85	58.45
1053.8022	3246.154	938.35	55.65
1053.9028	3247.0598	940.3	58.35
1054.0034	3247.9649	936.85	54.3
1054.1039	3248.8694	936.4	54.65
1054.2043	3249.7733	935	54.45
1054.3047	3250.6766	933.5	52.05
1054.4051	3251.5793	934.55	51
1054.5054	3252.4814	934.35	52.7
1054.6056	3253.3829	934.4	53.35
1054.7058	3254.2838	933.55	51.3
1054.806	3255.1841	932.95	53.55
1054.9061	3256.0838	933.9	52
1055.0061	3256.9829	930.1	50.95
1055.1062	3257.8814	934.85	51.65
1055.2061	3258.7792	931.55	49.55
1055.306	3259.6765	929.7	47.15
1055.4059	3260.5731	931	51.2
1055.5057	3261.4692	927.75	45.6
1055.6055	3262.3647	929.55	46.25
1055.7052	3263.2595	926.9	44.6
1055.8049	3264.1538	926.15	43.6
1055.9045	3265.0474	927.7	47.15
1056.0041	3265.9404	925.2	44.4
1056.1036	3266.8329	924.6	43.45
1056.2031	3267.7247	932.9	42.15
1056.3025	3268.616	923.4	44
1056.4019	3269.5066	923.6	41.5
1056.5013	3270.3966	921.1	36.6
1056.6005	3271.286	915.5	34.45
