Software Version:	3.9.2.0
Unit SN:	10000200
Spectrometer SN:	6960
Date:	3/14/2024 1:53:38 PM
Data Line Index:	25
Spectral Points:	2048
Integration time (ms):	125
Averages:	20
Delay (ms):	30000
Sequence Number:	1
Processing:	dark subtract
Laser Power (mW):	300
Laser Current (mA):	825
Laser Diode Temp (C):	25
Laser Case Temp (C):	28.9
System Temp (C):	28.9
Spectrometer Temp (C):	26.7
CCD Temp (C):	0.004
Secondary Temp (C):	20.011
Heatsink Temp (C):	24.692
CCDPCB Temp (C):	38.208
SecondaryPCB Temp (C):	36.007

Wavelength	RamanShift	Raw Counts	Dark Subtracted
787.061	30.1047	460.85	50.5
787.2016	32.3739	462.9	54.5
787.3422	34.6426	469.85	58.95
787.4828	36.9109	477.65	66.85
787.6235	39.1787	488.4	74.9
787.7642	41.4461	494.5	75
787.9049	43.7131	502.65	81.9
788.0456	45.9796	513.05	87.65
788.1863	48.2456	527.45	95.35
788.3271	50.5112	535.5	100.45
788.4679	52.7764	538.85	102.3
788.6087	55.0411	553.3	112.95
788.7496	57.3054	569.2	122.75
788.8904	59.5692	578	127.6
789.0313	61.8326	595.55	143
789.1722	64.0955	608.7	150.4
789.3132	66.3579	624.45	160.65
789.4541	68.6199	642.1	175.9
789.5951	70.8815	680.05	211.9
789.7361	73.1426	760.2	289.8
789.8771	75.4032	962.9	485.45
790.0181	77.6634	1477.8	995.2
790.1592	79.9231	2667.55	2180.1
790.3003	82.1824	5332.35	4836.8
790.4414	84.4412	10213.9	9698.25
790.5825	86.6995	17120.15	16584.15
790.7237	88.9574	24102.55	23543.8
790.8648	91.2148	29059.05	28487.75
791.006	93.4717	31524.8	30945.3
791.1472	95.7282	32086.25	31502.9
791.2885	97.9842	32132.05	31545.05
791.4297	100.2398	31698	31107.95
791.571	102.4949	31099.9	30504.5
791.7123	104.7495	30401	29800.7
791.8536	107.0036	29546.95	28945.2
791.9949	109.2573	28793.3	28194.55
792.1363	111.5105	28024.1	27423.1
792.2777	113.7632	27274.2	26673.2
792.4191	116.0154	26625.7	26014.65
792.5605	118.2672	26109.75	25506.7
792.7019	120.5185	25611	25007.15
792.8434	122.7693	25229.05	24620.8
792.9849	125.0197	24952.3	24339.8
793.1264	127.2696	24634.35	24018.85
793.2679	129.519	24521.6	23904.15
793.4094	131.7679	24264.1	23647.45
793.551	134.0163	24130.65	23507.65
793.6926	136.2642	23941.6	23312.55
793.8342	138.5117	23787.25	23149.7
793.9758	140.7587	23568.8	22940.4
794.1175	143.0052	23354.45	22719.4
794.2591	145.2512	23120.4	22486.3
794.4008	147.4967	22945.65	22309.65
794.5425	149.7417	22756.7	22118.6
794.6842	151.9863	22610.6	21969.15
794.826	154.2304	22554.6	21909.9
794.9677	156.4739	22405.5	21755.7
795.1095	158.717	22315.55	21667.65
795.2513	160.9596	22174.05	21519.65
795.3931	163.2017	21867.4	21212.9
795.535	165.4433	21569.05	20912.05
795.6768	167.6844	21228.95	20571.7
795.8187	169.925	20878.6	20218.5
795.9606	172.1651	20464.5	19801.35
796.1025	174.4047	20176.9	19507.4
796.2445	176.6439	19886.3	19217.45
796.3864	178.8825	19649.7	18978.3
796.5284	181.1206	19455.7	18779.2
796.6704	183.3582	19262.55	18585.25
796.8124	185.5954	19165.15	18481.6
796.9544	187.832	19047.65	18365.4
797.0965	190.0681	18998.8	18315
797.2386	192.3037	18954.85	18266.95
797.3806	194.5388	18976.15	18281.25
797.5228	196.7734	19016.85	18321.7
797.6649	199.0075	19063.45	18364.8
797.807	201.2411	19172.7	18471.3
797.9492	203.4742	19231.7	18527.95
798.0914	205.7068	19350.45	18647.6
798.2336	207.9389	19464.65	18758.75
798.3758	210.1704	19613.45	18906.55
798.518	212.4015	19716.6	19005.2
798.6603	214.632	19877.55	19167.95
798.8025	216.862	20083.15	19380.05
798.9448	219.0915	20238.1	19542.45
799.0871	221.3205	20472	19780.35
799.2294	223.549	20753.45	20066.65
799.3718	225.777	21022.95	20338.55
799.5141	228.0044	21433.15	20743
799.6565	230.2314	21957.5	21269.05
799.7989	232.4578	22390.65	21703.2
799.9413	234.6837	22799.45	22102.3
800.0837	236.909	23033.75	22335.25
800.2262	239.1339	22982.55	22260.85
800.3687	241.3582	22696.25	21990.05
800.5111	243.582	22326.2	21590.3
800.6536	245.8053	21937.3	21212.75
800.7961	248.0281	21544.8	20826.15
800.9387	250.2503	21244.95	20518
801.0812	252.472	21066.1	20337.4
801.2238	254.6932	20979.8	20246.1
801.3664	256.9139	20833.7	20098.4
801.509	259.134	20795.6	20059.5
801.6516	261.3536	20778.85	20046.95
801.7942	263.5727	20793.15	20059
801.9369	265.7912	20707.5	19972.1
802.0795	268.0092	20716.8	19978.3
802.2222	270.2267	20612.8	19877.2
802.3649	272.4436	20544.8	19806.8
802.5076	274.6601	20454.65	19706.35
802.6504	276.8759	20396.7	19656.95
802.7931	279.0913	20357.4	19612.6
802.9359	281.3061	20301.85	19562.4
803.0787	283.5204	20396.4	19650.5
803.2215	285.7341	20486.55	19736.15
803.3643	287.9473	20657.5	19893.8
803.5071	290.16	20873.1	20115.35
803.6499	292.3721	21224.9	20474.3
803.7928	294.5837	21684.6	20932.35
803.9357	296.7947	22044.25	21291.75
804.0786	299.0052	22230.3	21478.5
804.2215	301.2152	22048.5	21298.6
804.3644	303.4246	21657.8	20907.35
804.5074	305.6334	21023.9	20269.9
804.6503	307.8418	20478.1	19721.95
804.7933	310.0495	20035	19279.95
804.9363	312.2568	19700.3	18944.15
805.0793	314.4635	19451.3	18693.55
805.2223	316.6696	19376.7	18614.4
805.3653	318.8752	19310.75	18543.15
805.5084	321.0802	19385.65	18623.9
805.6514	323.2847	19466.45	18704.05
805.7945	325.4887	19516.75	18754.6
805.9376	327.692	19433.85	18668.65
806.0807	329.8949	19326.9	18563.1
806.2238	332.0972	19022.65	18255.15
806.367	334.2989	18729.6	17959.2
806.5101	336.5001	18422.35	17653.65
806.6533	338.7007	18222.5	17453.55
806.7965	340.9008	18083.1	17310.85
806.9397	343.1003	17951.75	17180.4
807.0829	345.2992	17858.9	17082.65
807.2261	347.4976	17826.7	17048.9
807.3693	349.6955	17813.4	17035.2
807.5126	351.8927	17903.3	17121.95
807.6559	354.0895	17864.55	17077.1
807.7991	356.2856	17917.05	17133.85
807.9424	358.4812	17849.1	17069.25
808.0857	360.6763	17922.85	17141.55
808.2291	362.8707	17857.75	17075
808.3724	365.0646	17901.45	17114.2
808.5158	367.258	17871	17083.25
808.6591	369.4508	17873.5	17078.65
808.8025	371.643	17960.4	17169.85
808.9459	373.8346	17904.6	17111.5
809.0893	376.0257	17836.65	17041.25
809.2327	378.2162	17730.85	16936.75
809.3762	380.4062	17619.4	16818.95
809.5196	382.5956	17454.6	16655.6
809.6631	384.7844	17335.85	16535.45
809.8066	386.9726	17187.6	16387.5
809.9501	389.1603	17126.4	16325.5
810.0936	391.3474	17124.1	16293.4
810.2371	393.5339	17069.7	16271.25
810.3806	395.7199	16980	16183.2
810.5241	397.9052	16968.45	16176
810.6677	400.09	16961.45	16167.15
810.8113	402.2743	16999.8	16211.5
810.9548	404.4579	17077.4	16288.45
811.0984	406.641	17264.1	16473.85
811.2421	408.8235	17483.65	16693.25
811.3857	411.0054	17801.8	17010.6
811.5293	413.1868	18260.55	17466.75
811.673	415.3675	18621.25	17824.25
811.8166	417.5477	18822.95	18027.65
811.9603	419.7273	18830.75	18031.3
812.104	421.9064	18708.25	17900.95
812.2477	424.0848	18533.05	17730.7
812.3914	426.2627	18302.75	17495.2
812.5351	428.4399	17980.45	17174.15
812.6788	430.6166	17579.05	16766.95
812.8226	432.7928	17197.25	16385.6
812.9663	434.9683	16841.05	16026.4
813.1101	437.1432	16591.5	15775.3
813.2539	439.3176	16411.85	15596.9
813.3977	441.4914	16315.4	15500.1
813.5415	443.6645	16249.95	15434.2
813.6853	445.8371	16180.05	15364.2
813.8291	448.0091	16099.5	15284.3
813.973	450.1806	16027.2	15211.6
814.1168	452.3514	15943.45	15125.9
814.2607	454.5216	15978.45	15150.3
814.4046	456.6913	15870.3	15050.2
814.5485	458.8603	15865.5	15047.7
814.6924	461.0288	15908	15089.45
814.8363	463.1967	15961.95	15145.55
814.9802	465.3639	16061.8	15240.65
815.1241	467.5306	16171.35	15351.85
815.2681	469.6967	16276.3	15454.35
815.412	471.8622	16486.75	15667.2
815.556	474.0271	16624.4	15800.95
815.7	476.1914	16698.9	15878
815.844	478.3551	16657.35	15833.75
815.988	480.5182	16603.95	15781.9
816.132	482.6807	16583.75	15761.8
816.276	484.8426	16652.95	15829.25
816.4201	487.0039	16881.45	16058.95
816.5641	489.1647	17298.6	16473.05
816.7082	491.3248	17744.05	16918.6
816.8522	493.4843	17975.85	17152.35
816.9963	495.6432	17972.8	17149.9
817.1404	497.8015	17826.15	16997.25
817.2845	499.9592	17843.2	17018.5
817.4286	502.1163	17753	16926.1
817.5727	504.2728	17512.7	16684.5
817.7168	506.4287	17210.9	16381.35
817.861	508.5839	16734.8	15905
818.0051	510.7386	16364.05	15538.75
818.1493	512.8927	16165.4	15329.85
818.2935	515.0461	16019.65	15191.25
818.4377	517.199	15945.95	15115.65
818.5818	519.3512	15890.9	15062.3
818.726	521.5029	15914.05	15075.95
818.8703	523.6539	15963.85	15132.3
819.0145	525.8043	15962.8	15132.95
819.1587	527.9541	16023.3	15190.2
819.303	530.1033	15954	15119.4
819.4472	532.2519	16033.95	15199.45
819.5915	534.3999	16148.65	15309.85
819.7357	536.5472	16449	15611.05
819.88	538.694	16977.55	16140.5
820.0243	540.8401	17568.4	16734
820.1686	542.9856	18098.55	17259.7
820.3129	545.1305	18265.2	17426.2
820.4572	547.2748	18101.5	17263.95
820.6016	549.4185	17652.2	16811.35
820.7459	551.5615	17234.8	16396.1
820.8902	553.704	17089.55	16250.05
821.0346	555.8458	16977.4	16141.95
821.1789	557.987	16940.8	16103.8
821.3233	560.1276	16846.65	16007.45
821.4677	562.2675	16808.9	15970.8
821.6121	564.4069	16777.25	15939.65
821.7565	566.5456	16689.05	15851.8
821.9009	568.6837	16599	15763
822.0453	570.8212	16263.05	15426.5
822.1897	572.958	15973.35	15132.2
822.3342	575.0942	15734.8	14898.9
822.4786	577.2299	15569.6	14730.1
822.6231	579.3648	15510.35	14670.9
822.7675	581.4992	15619.55	14778.15
822.912	583.6329	15829.9	14990.75
823.0565	585.766	16048.1	15209.95
823.201	587.8985	16174.65	15333.25
823.3454	590.0304	16150.25	15284.35
823.4899	592.1616	16068.95	15224.05
823.6345	594.2922	15923.35	15079.9
823.779	596.4222	15802.9	14959.75
823.9235	598.5515	15602.7	14758.6
824.068	600.6802	15411.1	14568.85
824.2126	602.8083	15220.15	14377.15
824.3571	604.9358	15171	14326.1
824.5017	607.0626	15059.9	14215.95
824.6462	609.1888	14968.05	14122.6
824.7908	611.3144	14872.5	14023.7
824.9354	613.4393	14733	13884.95
825.08	615.5636	14597.75	13751.55
825.2246	617.6873	14469.75	13623.55
825.3692	619.8103	14407.55	13561.95
825.5138	621.9327	14293.35	13444.65
825.6584	624.0544	14265	13418.7
825.803	626.1756	14249.6	13401.55
825.9477	628.2961	14199.5	13354.45
826.0923	630.4159	14097.9	13253.1
826.237	632.5351	14096.85	13248.25
826.3816	634.6537	13997.2	13150.05
826.5263	636.7716	13955.3	13104.55
826.6709	638.8889	13932.1	13083.4
826.8156	641.0056	13943.8	13093.55
826.9603	643.1216	13929.3	13079.9
827.105	645.237	13944.5	13092.55
827.2497	647.3518	13955.85	13104.9
827.3944	649.4659	13915.6	13062.85
827.5391	651.5793	13913.95	13059.65
827.6838	653.6922	13911.25	13058.8
827.8285	655.8043	13881.9	13029.8
827.9733	657.9159	13849.45	12996.95
828.118	660.0268	13732.6	12878.35
828.2627	662.137	13675.5	12823.25
828.4075	664.2466	13612.45	12759.1
828.5522	666.3556	13600.05	12748.5
828.697	668.4639	13558.65	12702.5
828.8418	670.5716	13590.05	12737.05
828.9865	672.6786	13696.5	12839.5
829.1313	674.785	13724.45	12866.8
829.2761	676.8907	13800.85	12946.7
829.4209	678.9958	13877.7	13022.75
829.5657	681.1002	13839.5	12983.7
829.7105	683.204	13804.55	12943
829.8553	685.3072	13706.85	12846.5
830.0001	687.4097	13619.35	12763.4
830.1449	689.5115	13564.3	12707.55
830.2898	691.6127	13534.7	12682.15
830.4346	693.7132	13429.7	12572.05
830.5794	695.8131	13364.85	12488.6
830.7243	697.9123	13298.2	12443.1
830.8691	700.0109	13260.45	12403.2
831.014	702.1089	13212.85	12356.65
831.1588	704.2061	13208.55	12350.3
831.3037	706.3028	13211.65	12349.3
831.4486	708.3987	13262.3	12407
831.5935	710.4941	13336	12477.4
831.7383	712.5887	13497.6	12638.15
831.8832	714.6827	13835.65	12973.55
832.0281	716.7761	14165.45	13304.25
832.173	718.8688	14553.5	13692.6
832.3179	720.9608	14738.15	13872.4
832.4628	723.0522	14736.4	13871.65
832.6077	725.1429	14483	13622.9
832.7527	727.233	14189.45	13328.2
832.8976	729.3224	13893.95	13032.45
833.0425	731.4112	13544.8	12685.5
833.1874	733.4993	13308.45	12445.9
833.3324	735.5867	13115.4	12252.7
833.4773	737.6735	13019.5	12155.4
833.6222	739.7596	12936.05	12073.8
833.7672	741.845	12879.75	12016.8
833.9122	743.9298	12864.75	11999.8
834.0571	746.014	12857.4	11995.9
834.2021	748.0974	12866.45	11997.75
834.347	750.1802	12825.9	11964.25
834.492	752.2624	12864.8	12003.6
834.637	754.3439	12859.05	11993.5
834.782	756.4247	12909.6	12037.15
834.9269	758.5048	12981.5	12117.8
835.0719	760.5843	13208.85	12344.25
835.2169	762.6631	13510.55	12644.05
835.3619	764.7413	13950.9	13088.35
835.5069	766.8188	14577.55	13711.6
835.6519	768.8956	15004.8	14135.25
835.7969	770.9718	15290.35	14427.35
835.9419	773.0473	15163	14298.8
836.0869	775.1221	14830.45	13968.65
836.232	777.1962	14385.05	13521.6
836.377	779.2697	14173	13306.65
836.522	781.3426	14205.65	13323.85
836.667	783.4147	14478.8	13613.25
836.8121	785.4862	14801.55	13937.55
836.9571	787.557	14801.55	13933.25
837.1021	789.6271	14424.7	13557.25
837.2472	791.6966	13835.3	12969.25
837.3922	793.7654	13260.4	12393.35
837.5373	795.8335	12910.25	12043.85
837.6823	797.901	12690.5	11824.35
837.8274	799.9678	12633.8	11764.5
837.9724	802.0339	12621.95	11758.2
838.1175	804.0993	12664	11788.35
838.2626	806.1641	12664	11795.85
838.4076	808.2282	12576.3	11708.45
838.5527	810.2916	12456.85	11586
838.6978	812.3544	12379.15	11515.05
838.8428	814.4164	12253.9	11387.9
838.9879	816.4778	12253.4	11386.45
839.133	818.5385	12236.8	11368.45
839.2781	820.5986	12288.4	11422.25
839.4232	822.658	12324.7	11455.65
839.5682	824.7166	12427.85	11563.75
839.7133	826.7747	12563.35	11696.75
839.8584	828.832	12771.45	11903.7
840.0035	830.8886	12852.3	11981.3
840.1486	832.9446	12992.95	12123.2
840.2937	834.9999	13021.1	12155.35
840.4388	837.0545	13061.4	12187.3
840.5839	839.1085	13053.95	12182.95
840.729	841.1618	13028.9	12154.7
840.8741	843.2143	12974.25	12106.15
841.0192	845.2662	12882	12014.25
841.1643	847.3175	12803.35	11937.1
841.3095	849.368	12677.55	11809
841.4546	851.4179	12548.6	11679.5
841.5997	853.467	12372.6	11502.65
841.7448	855.5155	12302.3	11429.8
841.8899	857.5633	12170.25	11299.15
842.0351	859.6105	12045.1	11176.35
842.1802	861.6569	11951.3	11082.5
842.3253	863.7027	11871.6	11000.85
842.4704	865.7478	11824	10949.6
842.6156	867.7922	11824.25	10952.5
842.7607	869.8359	11863.15	10991.85
842.9058	871.8789	11970.85	11100.95
843.0509	873.9212	12160.5	11254
843.1961	875.9629	12295	11425.1
843.3412	878.0039	12477.85	11602.5
843.4863	880.0441	12560.45	11692.45
843.6315	882.0837	12543.75	11671.6
843.7766	884.1226	12437.95	11565.5
843.9218	886.1609	12295.5	11424.45
844.0669	888.1984	12173.2	11302.3
844.212	890.2352	12147.1	11276.25
844.3572	892.2714	12049.2	11172.25
844.5023	894.3069	11994.7	11121.35
844.6475	896.3416	11932.8	11061.65
844.7926	898.3757	11891.7	11017.85
844.9377	900.4091	11865.65	10991.25
845.0829	902.4418	11873.95	10996.35
845.228	904.4739	11881.1	11005.4
845.3732	906.5052	11854.95	10979.8
845.5183	908.5358	11730.45	10857.5
845.6635	910.5658	11555.05	10681.6
845.8086	912.595	11388.7	10516.7
845.9538	914.6236	11256.7	10382.95
846.0989	916.6515	11178.35	10304.85
846.2441	918.6786	11159.7	10283.95
846.3892	920.7051	11205.35	10328.35
846.5344	922.7309	11314.2	10440.75
846.6795	924.756	11368.5	10493.3
846.8246	926.7804	11450.75	10575.65
846.9698	928.8041	11423.9	10548.45
847.1149	930.8272	11413.9	10539.75
847.2601	932.8495	11362.9	10487.95
847.4052	934.8711	11294	10420.5
847.5504	936.892	11095.8	10221.65
847.6955	938.9123	10910.8	10035.7
847.8407	940.9318	10812.5	9937.8
847.9858	942.9506	10676.3	9801.8
848.131	944.9688	10566.3	9690.7
848.2761	946.9862	10513.2	9639.7
848.4213	949.003	10437.5	9562.4
848.5664	951.019	10432.1	9554.85
848.7115	953.0344	10460.05	9585.05
848.8567	955.0491	10466.5	9590
849.0018	957.063	10560.65	9684
849.147	959.0763	10651.55	9777.2
849.2921	961.0888	10669.2	9793.05
849.4373	963.1007	10746.65	9872.35
849.5824	965.1119	10791.05	9913.6
849.7275	967.1223	10815.8	9940.9
849.8727	969.1321	10811	9935.7
850.0178	971.1412	10836.95	9962.8
850.1629	973.1495	10844.55	9972.15
850.3081	975.1572	10899.6	9991.1
850.4532	977.1641	10878.2	10004.9
850.5983	979.1704	10842.4	9965.9
850.7435	981.1759	10825.2	9945
850.8886	983.1808	10902.8	10027.75
851.0337	985.1849	10977.5	10088.1
851.1788	987.1884	11138.45	10261.2
851.324	989.1911	11321.15	10439.7
851.4691	991.1932	11442.35	10565.05
851.6142	993.1945	11483.45	10606.5
851.7593	995.1951	11466.45	10589.15
851.9045	997.1951	11405.7	10523.7
852.0496	999.1943	11312.45	10438.15
852.1947	1001.1928	11270.95	10393.65
852.3398	1003.1906	11262.8	10386.3
852.4849	1005.1877	11297.2	10416.3
852.63	1007.1841	11278.4	10400.9
852.7751	1009.1798	11190.15	10312.75
852.9202	1011.1748	10968.7	10092.8
853.0653	1013.1691	10740.75	9862.15
853.2104	1015.1627	10495.25	9617.5
853.3555	1017.1556	10311.05	9435.3
853.5006	1019.1477	10192.5	9312.25
853.6457	1021.1392	10104.5	9229.6
853.7908	1023.1299	10112.9	9235.35
853.9359	1025.12	10121.9	9243.25
854.081	1027.1093	10174.65	9296.45
854.2261	1029.0979	10255.25	9378
854.3712	1031.0859	10290.25	9413.55
854.5163	1033.0731	10299.1	9421.45
854.6613	1035.0596	10199.45	9321.45
854.8064	1037.0454	10044.55	9167.45
854.9515	1039.0304	9963.05	9084.8
855.0965	1041.0148	9804.6	8925
855.2416	1042.9985	9699.45	8821.65
855.3867	1044.9814	9631.85	8756.4
855.5317	1046.9636	9577.05	8698.2
855.6768	1048.9452	9572.05	8695.6
855.8219	1050.926	9549.8	8671.95
855.9669	1052.9061	9557.45	8681.4
856.112	1054.8855	9514.25	8637.4
856.257	1056.8642	9534.95	8656.6
856.4021	1058.8421	9615.35	8734.8
856.5471	1060.8194	9619.15	8740.05
856.6921	1062.7959	9642.45	8765.1
856.8372	1064.7717	9659.05	8779.75
856.9822	1066.7469	9657.25	8775.7
857.1272	1068.7213	9638.25	8757.2
857.2723	1070.695	9617.25	8739.1
857.4173	1072.6679	9562.8	8684.9
857.5623	1074.6402	9495.45	8616.35
857.7073	1076.6117	9487.35	8604.6
857.8523	1078.5826	9459.4	8581.55
857.9973	1080.5527	9503.2	8621.5
858.1423	1082.5221	9632.05	8753.4
858.2873	1084.4908	9818.75	8938.3
858.4323	1086.4587	10016.55	9135.8
858.5773	1088.426	10155.3	9276.55
858.7223	1090.3925	10157.55	9273.85
858.8673	1092.3584	10095.05	9217.8
859.0123	1094.3235	9906.25	9028.15
859.1573	1096.2879	9829	8950.25
859.3022	1098.2515	9798.15	8917.75
859.4472	1100.2145	9850.15	8972.2
859.5922	1102.1767	9932.8	9050.3
859.7371	1104.1382	10067.4	9188.95
859.8821	1106.099	10300.8	9418.85
860.027	1108.0591	10499.45	9621.35
860.172	1110.0185	10641.55	9762.3
860.3169	1111.9771	10630.6	9752.25
860.4619	1113.9351	10437.4	9562.7
860.6068	1115.8923	10086.6	9207.55
860.7517	1117.8488	9749.65	8869.45
860.8967	1119.8045	9476.35	8595.75
861.0416	1121.7596	9335.95	8456.75
861.1865	1123.7139	9264.3	8386.1
861.3314	1125.6675	9238.75	8358.95
861.4763	1127.6204	9304.2	8424.8
861.6212	1129.5726	9314.95	8433.75
861.7661	1131.524	9297.15	8419.85
861.911	1133.4748	9318.2	8441.2
862.0559	1135.4248	9318.6	8437.65
862.2008	1137.3741	9328.25	8450.1
862.3457	1139.3226	9271.65	8391.7
862.4905	1141.2705	9234.45	8354.7
862.6354	1143.2176	9138.9	8254.65
862.7803	1145.164	9112.85	8232.75
862.9251	1147.1097	9127.9	8248.7
863.07	1149.0546	9112.5	8231.6
863.2148	1150.9989	9033.2	8153.25
863.3597	1152.9424	8876.4	7996.65
863.5045	1154.8852	8688.6	7808.65
863.6493	1156.8272	8542.25	7664
863.7942	1158.7686	8479.9	7592.6
863.939	1160.7092	8455	7575.2
864.0838	1162.6491	8437.05	7554.8
864.2286	1164.5883	8517.05	7637.45
864.3734	1166.5267	8579.75	7701.85
864.5182	1168.4644	8702.35	7822.35
864.663	1170.4014	8903.05	8020.9
864.8078	1172.3377	9149.8	8273.25
864.9526	1174.2732	9374.65	8495.7
865.0974	1176.2081	9591.5	8711.75
865.2421	1178.1421	9806.85	8921.65
865.3869	1180.0755	9972.8	9094.4
865.5317	1182.0082	10046.6	9167.9
865.6764	1183.9401	10042.55	9158.7
865.8212	1185.8713	9882.5	9003.6
865.9659	1187.8017	9602.4	8719.3
866.1106	1189.7315	9333.5	8454.4
866.2554	1191.6605	9086.75	8179.25
866.4001	1193.5888	8871.9	7994.4
866.5448	1195.5163	8743.35	7862.85
866.6895	1197.4432	8655.4	7772.4
866.8342	1199.3693	8577.55	7697.6
866.9789	1201.2947	8562.4	7680.45
867.1236	1203.2193	8543.35	7662.5
867.2683	1205.1432	8578.8	7696.95
867.413	1207.0664	8575.6	7694.25
867.5576	1208.9889	8625	7741.3
867.7023	1210.9106	8681.45	7799.5
867.847	1212.8316	8742.35	7861.1
867.9916	1214.7519	8809.25	7918
868.1363	1216.6715	8843.1	7964.45
868.2809	1218.5903	8825.05	7946.05
868.4255	1220.5084	8767.55	7887.2
868.5701	1222.4257	8764.15	7885.75
868.7148	1224.3424	8720.9	7840.15
868.8594	1226.2583	8762.1	7875.05
869.004	1228.1735	8859.3	7974.3
869.1486	1230.0879	8968.85	8089.65
869.2932	1232.0016	9086.75	8205.9
869.4377	1233.9146	9091.95	8209.9
869.5823	1235.8269	9009.9	8130.65
869.7269	1237.7384	8889.15	8006.9
869.8715	1239.6492	8680.95	7798.85
870.016	1241.5592	8575.8	7692.7
870.1606	1243.4686	8497.8	7617.15
870.3051	1245.3772	8432.85	7551.7
870.4496	1247.285	8403.95	7522.8
870.5941	1249.1922	8352.15	7470
870.7387	1251.0986	8346.3	7468.2
870.8832	1253.0042	8352.9	7471.45
871.0277	1254.9092	8385.35	7504.8
871.1722	1256.8134	8464.15	7585.15
871.3167	1258.7169	8649.85	7768.3
871.4611	1260.6196	8790.6	7910.25
871.6056	1262.5216	8994.65	8110.55
871.7501	1264.4229	9129.1	8248.45
871.8945	1266.3234	9281.85	8401.45
872.039	1268.2232	9300.9	8418.15
872.1834	1270.1223	9310	8429.35
872.3278	1272.0207	9271.6	8389.2
872.4723	1273.9183	9253.3	8366.8
872.6167	1275.8151	9161.15	8278.05
872.7611	1277.7113	9071.9	8189.9
872.9055	1279.6067	8939.85	8059
873.0499	1281.5014	8816.9	7933.3
873.1943	1283.3953	8731.2	7848.9
873.3386	1285.2885	8694.75	7815
873.483	1287.181	8666.5	7783.45
873.6274	1289.0727	8721.6	7841.25
873.7717	1290.9637	8802.6	7919.7
873.9161	1292.854	8895.35	8012.6
874.0604	1294.7435	9012.4	8132.8
874.2047	1296.6323	9200.1	8319.5
874.349	1298.5204	9408.1	8522.3
874.4933	1300.4077	9665.05	8781.05
874.6376	1302.2943	9810.05	8928.55
874.7819	1304.1802	9852	8971
874.9262	1306.0653	9764.35	8880.25
875.0705	1307.9497	9588.3	8706.3
875.2147	1309.8333	9445	8563.6
875.359	1311.7162	9393.45	8512.55
875.5032	1313.5984	9494.75	8609.9
875.6475	1315.4798	9611.85	8719.05
875.7917	1317.3605	9708.65	8810.6
875.9359	1319.2405	9817.9	8933.25
876.0801	1321.1197	9819.5	8934.6
876.2243	1322.9982	9760.25	8875.95
876.3685	1324.876	9697.45	8815.05
876.5127	1326.753	9636.45	8755.15
876.6569	1328.6293	9625.85	8743.7
876.801	1330.5048	9636	8750.15
876.9452	1332.3796	9586.5	8704.45
877.0893	1334.2537	9564.2	8655.85
877.2335	1336.127	9525.8	8641.7
877.3776	1337.9996	9480.2	8594.8
877.5217	1339.8714	9464.8	8580.85
877.6658	1341.7426	9450.85	8525.15
877.8099	1343.6129	9366.1	8484
877.954	1345.4826	9320.55	8439
878.0981	1347.3515	9294.2	8409.95
878.2422	1349.2196	9251.95	8367.05
878.3862	1351.087	9241.1	8358.6
878.5303	1352.9537	9305.1	8422.4
878.6743	1354.8197	9430.3	8547.95
878.8184	1356.6849	9582.95	8701.65
878.9624	1358.5493	9671.6	8787.05
879.1064	1360.4131	9697.15	8812.65
879.2504	1362.276	9653	8769.85
879.3944	1364.1383	9501.3	8619.25
879.5384	1365.9998	9270.5	8381.7
879.6823	1367.8606	8957.2	8072.7
879.8263	1369.7206	8670.35	7788.55
879.9702	1371.5799	8455.45	7570.75
880.1142	1373.4384	8311.95	7430.7
880.2581	1375.2962	8188.55	7305.85
880.402	1377.1533	7935.5	7053.1
880.5459	1379.0096	7636.85	6752.65
880.6898	1380.8652	7347	6463.6
880.8337	1382.7201	7105.5	6221.9
880.9776	1384.5742	6919.1	6034.15
881.1215	1386.4275	6727.45	5840.75
881.2653	1388.2802	6613.8	5731.4
881.4092	1390.132	6514.25	5631.4
881.553	1391.9832	6453.8	5569.2
881.6968	1393.8336	6371.1	5490.85
881.8406	1395.6832	6348.15	5462.4
881.9844	1397.5322	6303.65	5418.7
882.1282	1399.3803	6307.85	5418.95
882.272	1401.2278	6291.5	5409.2
882.4158	1403.0745	6273.85	5389.75
882.5595	1404.9204	6269.25	5387.95
882.7033	1406.7656	6294.9	5409.7
882.847	1408.6101	6291.9	5407.9
882.9908	1410.4538	6330.15	5444.3
883.1345	1412.2968	6393.1	5509.9
883.2782	1414.139	6423.9	5542.25
883.4219	1415.9805	6524.25	5641.75
883.5656	1417.8213	6615.2	5727.65
883.7092	1419.6613	6753.3	5872.25
883.8529	1421.5006	6945.95	6061.15
883.9965	1423.3391	7202	6319.05
884.1402	1425.1769	7540.9	6656.35
884.2838	1427.0139	8053.1	7170.5
884.4274	1428.8502	8671.85	7787.5
884.571	1430.6858	9250.75	8367.75
884.7146	1432.5206	9697.45	8814.75
884.8582	1434.3547	9921.85	9037.65
885.0018	1436.188	9974.2	9091.45
885.1453	1438.0206	9889.9	9006.25
885.2889	1439.8524	9730.05	8845.95
885.4324	1441.6835	9624.35	8741.75
885.5759	1443.5139	9525.1	8637.75
885.7194	1445.3435	9442.15	8558.7
885.8629	1447.1724	9389.4	8506.3
886.0064	1449.0005	9318.45	8437.6
886.1499	1450.8279	9222.4	8338.75
886.2933	1452.6545	9209.25	8327.5
886.4368	1454.4804	9230.25	8346.6
886.5802	1456.3056	9210.2	8321.4
886.7237	1458.13	9096.25	8212.8
886.8671	1459.9536	8899.05	8014.4
887.0105	1461.7766	8535.65	7652.6
887.1539	1463.5987	8103.5	7216.8
887.2972	1465.4202	7715	6832.4
887.4406	1467.2409	7378.1	6494.6
887.584	1469.0608	7079.75	6196.85
887.7273	1470.88	6830.8	5945.95
887.8706	1472.6984	6601.2	5718.85
888.0139	1474.5161	6426.6	5541.35
888.1572	1476.3331	6247.95	5366.75
888.3005	1478.1493	6110.75	5227.7
888.4438	1479.9648	6017.25	5133.35
888.5871	1481.7795	5927.4	5043.8
888.7303	1483.5935	5871.25	4987.7
888.8736	1485.4067	5797.8	4913.3
889.0168	1487.2192	5742	4858.15
889.16	1489.031	5702.45	4816.75
889.3032	1490.842	5660.2	4778.55
889.4464	1492.6522	5618.35	4733.95
889.5896	1494.4618	5566.25	4682.25
889.7327	1496.2705	5557.1	4674.35
889.8759	1498.0785	5525.55	4644.5
890.019	1499.8858	5495.1	4610.35
890.1622	1501.6924	5489.1	4607.5
890.3053	1503.4981	5452.9	4568.35
890.4484	1505.3032	5438.1	4555.5
890.5914	1507.1075	5407.45	4528
890.7345	1508.911	5393.15	4510.35
890.8776	1510.7138	5353.95	4470
891.0206	1512.5159	5319.85	4433.95
891.1637	1514.3172	5284.45	4400.3
891.3067	1516.1178	5265.8	4383.7
891.4497	1517.9176	5225.45	4342
891.5927	1519.7166	5186.55	4302.45
891.7357	1521.515	5181.1	4291.15
891.8786	1523.3126	5151.6	4269.25
892.0216	1525.1094	5135.55	4250.45
892.1645	1526.9055	5108.5	4225.8
892.3074	1528.7008	5088.25	4205.95
892.4503	1530.4954	5055.65	4169.8
892.5932	1532.2893	5060	4177.4
892.7361	1534.0824	5043.05	4156.45
892.879	1535.8747	5036.1	4153.1
893.0218	1537.6663	5038.05	4153.9
893.1647	1539.4572	5009.6	4122.75
893.3075	1541.2473	5004.5	4120.6
893.4503	1543.0367	5009.35	4127.2
893.5931	1544.8253	5007.1	4120.9
893.7359	1546.6132	5007.2	4121.9
893.8787	1548.4003	5008.5	4118.35
894.0214	1550.1867	5020.3	4129.05
894.1642	1551.9723	5041.65	4153.2
894.3069	1553.7572	5071.75	4186.8
894.4496	1555.5414	5117.05	4232.15
894.5923	1557.3247	5151.2	4268
894.735	1559.1074	5210.9	4330.05
894.8777	1560.8893	5285.3	4405.75
895.0204	1562.6705	5361.5	4479
895.163	1564.4509	5441.55	4559.3
895.3056	1566.2305	5509	4628.25
895.4482	1568.0094	5575.7	4692.4
895.5908	1569.7876	5639.15	4757.35
895.7334	1571.565	5695.2	4812.9
895.876	1573.3417	5714.25	4832.25
896.0186	1575.1176	5692.6	4811
896.1611	1576.8928	5681.95	4797.5
896.3036	1578.6672	5602.4	4718.1
896.4461	1580.4409	5497.65	4615.55
896.5886	1582.2138	5395.65	4509.2
896.7311	1583.986	5279.75	4395.8
896.8736	1585.7575	5190.95	4309.05
897.0161	1587.5282	5155.55	4273.6
897.1585	1589.2981	5111.65	4231.7
897.3009	1591.0673	5078.15	4196.65
897.4433	1592.8358	5084.7	4203.2
897.5857	1594.6035	5058.2	4173.05
897.7281	1596.3704	5080.25	4198.85
897.8705	1598.1366	5113.5	4230.2
898.0128	1599.9021	5138.75	4255.9
898.1551	1601.6668	5191.8	4307.4
898.2975	1603.4308	5247.65	4363.4
898.4398	1605.194	5330.9	4445.15
898.5821	1606.9564	5430.4	4548.55
898.7243	1608.7182	5585.8	4697.35
898.8666	1610.4791	5731.4	4850.55
899.0088	1612.2394	5902.35	5020.05
899.1511	1613.9988	6084.05	5201
899.2933	1615.7576	6312.15	5430.7
899.4355	1617.5156	6535.75	5646.55
899.5776	1619.2728	6747.7	5866.55
899.7198	1621.0293	6891.9	6010
899.862	1622.785	6951.2	6063.1
900.0041	1624.54	6863.6	5978.1
900.1462	1626.2942	6726.05	5840.35
900.2883	1628.0477	6485.4	5601.75
900.4304	1629.8005	6289.95	5403.05
900.5725	1631.5525	6067.25	5184.35
900.7145	1633.3037	5893.5	5010.1
900.8566	1635.0542	5736.95	4853.15
900.9986	1636.804	5632.3	4749.6
901.1406	1638.553	5604.45	4649.6
901.2826	1640.3013	5532.35	4649.85
901.4245	1642.0488	5519.25	4637.9
901.5665	1643.7955	5530.55	4649.9
901.7085	1645.5416	5553.15	4668.9
901.8504	1647.2868	5639.15	4758.65
901.9923	1649.0313	5745.4	4862.9
902.1342	1650.7751	5903.3	5018.2
902.2761	1652.5181	6067.15	5185.75
902.4179	1654.2604	6301.9	5419.4
902.5598	1656.0019	6610.9	5729.25
902.7016	1657.7427	6923.4	6040.1
902.8434	1659.4828	7241.9	6360.25
902.9852	1661.222	7435.8	6552.65
903.127	1662.9606	7441.85	6561.8
903.2687	1664.6984	7261.3	6378.7
903.4105	1666.4354	6891.95	6008.65
903.5522	1668.1717	6404.8	5523.6
903.6939	1669.9072	5906.95	5025.25
903.8356	1671.642	5496.3	4612.55
903.9773	1673.3761	5172.9	4291.95
904.119	1675.1094	4933.95	4053.25
904.2606	1676.8419	4722.3	3839.6
904.4022	1678.5737	4592.95	3709.9
904.5439	1680.3048	4473.15	3590.15
904.6855	1682.0351	4391.25	3509.1
904.827	1683.7646	4318.05	3432.8
904.9686	1685.4934	4275.65	3394.5
905.1101	1687.2215	4228.95	3347.3
905.2517	1688.9488	4161	3279.55
905.3932	1690.6754	4128.35	3246.15
905.5347	1692.4012	4107.9	3226.3
905.6761	1694.1263	4081.1	3200.25
905.8176	1695.8506	4072.6	3193.45
905.9591	1697.5742	4032.65	3150.75
906.1005	1699.297	4015.2	3133.5
906.2419	1701.0191	3992.25	3111
906.3833	1702.7404	3969.95	3089.2
906.5246	1704.461	3937.85	3053.05
906.666	1706.1808	3911.75	3027.3
906.8073	1707.8999	3908.75	3023.75
906.9487	1709.6182	3900.8	3017.4
907.09	1711.3358	3880	2999
907.2313	1713.0527	3861.5	2981.45
907.3725	1714.7688	3847.75	2959.9
907.5138	1716.4841	3830.55	2947.95
907.655	1718.1987	3823.3	2934.85
907.7962	1719.9126	3800.05	2920.8
907.9374	1721.6257	3789.1	2902.25
908.0786	1723.338	3785.05	2901.25
908.2198	1725.0496	3752.4	2869.4
908.3609	1726.7605	3735.95	2855.9
908.502	1728.4706	3724.7	2842.1
908.6431	1730.18	3715	2832.05
908.7842	1731.8886	3694.5	2813.4
908.9253	1733.5964	3702	2816
909.0664	1735.3036	3690.6	2805.7
909.2074	1737.0099	3687.25	2804.9
909.3484	1738.7156	3671.95	2792.45
909.4894	1740.4204	3642.95	2757.55
909.6304	1742.1246	3621.35	2737.55
909.7714	1743.8279	3621.1	2739.95
909.9123	1745.5306	3606	2725.25
910.0532	1747.2325	3580.85	2700.15
910.1941	1748.9336	3584.55	2703.6
910.335	1750.634	3565.25	2680.3
910.4759	1752.3336	3568.95	2686.95
910.6168	1754.0325	3561.4	2680.65
910.7576	1755.7307	3553.7	2672.45
910.8984	1757.4281	3544.65	2664.7
911.0392	1759.1247	3535.95	2644.75
911.18	1760.8206	3539.7	2654.95
911.3208	1762.5158	3516.75	2631
911.4615	1764.2102	3507.6	2626.2
911.6022	1765.9039	3490.45	2609.2
911.7429	1767.5968	3491.3	2609.05
911.8836	1769.289	3481.65	2598.75
912.0243	1770.9804	3475.25	2593.05
912.1649	1772.6711	3470.45	2589.8
912.3056	1774.361	3473.7	2590.3
912.4462	1776.0502	3455.5	2574.9
912.5868	1777.7386	3452.75	2568.45
912.7274	1779.4263	3447.1	2565.65
912.8679	1781.1132	3441.9	2560
913.0084	1782.7994	3425.15	2540.7
913.149	1784.4849	3404.4	2522.2
913.2895	1786.1696	3430.6	2529.55
913.4299	1787.8535	3411	2529.75
913.5704	1789.5367	3394.85	2512.25
913.7108	1791.2192	3393.1	2512.15
913.8513	1792.9009	3406.85	2499
913.9917	1794.5818	3392.4	2509.8
914.132	1796.2621	3369.45	2490.5
914.2724	1797.9415	3374.9	2493.55
914.4128	1799.6202	3364.3	2481.65
914.5531	1801.2982	3352.9	2472.2
914.6934	1802.9755	3345.45	2462.3
914.8337	1804.6519	3335.95	2453.7
914.9739	1806.3277	3332.65	2450.5
915.1142	1808.0027	3311.4	2430.65
915.2544	1809.6769	3327.1	2446
915.3946	1811.3504	3311.4	2428.25
915.5348	1813.0231	3302.4	2419.2
915.675	1814.6951	3299.95	2418.65
915.8151	1816.3664	3307.9	2425.65
915.9553	1818.0369	3303.6	2422.8
916.0954	1819.7067	3292.25	2410.85
916.2355	1821.3757	3282.35	2396.9
916.3755	1823.044	3285.95	2405.65
916.5156	1824.7115	3276.55	2394.85
916.6556	1826.3783	3261.1	2381
916.7956	1828.0443	3244.9	2362.85
916.9356	1829.7096	3249.35	2365.85
917.0756	1831.3741	3244.6	2359.15
917.2155	1833.0379	3234.75	2353.4
917.3555	1834.701	3237.6	2351.95
917.4954	1836.3633	3225.7	2341.3
917.6353	1838.0248	3227.75	2343.95
917.7751	1839.6856	3222.6	2340.1
917.915	1841.3457	3213.25	2331.55
918.0548	1843.005	3209.45	2329.15
918.1946	1844.6636	3203.4	2321.9
918.3344	1846.3214	3192.55	2310.25
918.4742	1847.9785	3192.05	2312.95
918.6139	1849.6349	3195.95	2314.1
918.7537	1851.2904	3197.65	2306.75
918.8934	1852.9453	3171.55	2290.25
919.0331	1854.5994	3169.2	2286.05
919.1727	1856.2528	3187.9	2303.1
919.3124	1857.9054	3180.3	2300.35
919.452	1859.5572	3174.85	2294.65
919.5916	1861.2083	3144.3	2262.6
919.7312	1862.8587	3163.3	2282.3
919.8708	1864.5084	3138.35	2258.15
920.0103	1866.1572	3138	2257.8
920.1498	1867.8054	3134.1	2253.45
920.2893	1869.4528	3121.5	2242.65
920.4288	1871.0994	3111.45	2228.95
920.5683	1872.7453	3114.9	2233.05
920.7077	1874.3905	3125.35	2224.7
920.8471	1876.0349	3098.3	2218.2
920.9865	1877.6786	3098.95	2217.8
921.1259	1879.3215	3103.4	2223.5
921.2653	1880.9637	3100.5	2216.4
921.4046	1882.6051	3065.55	2183.75
921.5439	1884.2458	3075.3	2191.55
921.6832	1885.8858	3073.3	2190.95
921.8225	1887.525	3051.55	2168.35
921.9617	1889.1634	3045.9	2165.55
922.101	1890.8011	3043.65	2160.85
922.2402	1892.4381	3036.3	2155.35
922.3794	1894.0743	3024.65	2143.4
922.5185	1895.7098	3028.35	2148.8
922.6577	1897.3446	3025.9	2143.4
922.7968	1898.9786	3018.8	2134.2
922.9359	1900.6118	3020.35	2138.7
923.075	1902.2443	3009.05	2124.85
923.214	1903.8761	2999.15	2118.7
923.3531	1905.5071	2980.7	2096.35
923.4921	1907.1374	2979.6	2096.85
923.6311	1908.7669	2982.35	2100.4
923.77	1910.3957	2967.2	2087.55
923.909	1912.0237	2958.6	2076
924.0479	1913.651	2965.85	2083.65
924.1868	1915.2776	2958.4	2079.5
924.3257	1916.9034	2950.75	2069.6
924.4646	1918.5285	2915	2034.55
924.6034	1920.1528	2939.9	2059.3
924.7422	1921.7764	2927.3	2046.1
924.881	1923.3992	2926.65	2046
925.0198	1925.0213	2911.05	2028.35
925.1586	1926.6427	2907.15	2027.4
925.2973	1928.2633	3080.7	1972.9
925.436	1929.8832	2917.45	2031.55
925.5747	1931.5023	2891.2	2010.9
925.7134	1933.1207	2888.5	2005.65
925.852	1934.7383	2885.45	2004.8
925.9906	1936.3552	2863.15	1980.7
926.1292	1937.9714	2853.35	1972.9
926.2678	1939.5868	2846.2	1962.45
926.4064	1941.2015	2830.8	1949.05
926.5449	1942.8154	2829.6	1949.7
926.6834	1944.4286	2827.75	1945.75
926.8219	1946.041	2837.75	1933.8
926.9604	1947.6528	2822.85	1936.95
927.0988	1949.2637	2806.95	1925.45
927.2372	1950.8739	2802.25	1919.05
927.3756	1952.4834	2797.3	1915.6
927.514	1954.0921	2782.3	1900.75
927.6523	1955.7001	2784.4	1900.25
927.7907	1957.3074	2779.65	1898.95
927.929	1958.9139	2774	1894.8
928.0673	1960.5197	2763.5	1881.6
928.2055	1962.1247	2745.5	1865.4
928.3438	1963.729	2738.65	1859.25
928.482	1965.3325	2752.7	1845.3
928.6202	1966.9353	2719.35	1837.05
928.7584	1968.5374	2730.85	1848.65
928.8965	1970.1387	2724.05	1844.15
929.0346	1971.7393	2715.55	1832.3
929.1727	1973.3392	2707.8	1825.15
929.3108	1974.9383	2699.05	1818.2
929.4489	1976.5366	2687.1	1804.45
929.5869	1978.1342	2687.8	1805
929.7249	1979.7311	2695.5	1812.7
929.8629	1981.3273	2671.75	1786.7
930.0009	1982.9227	2678.4	1794.95
930.1388	1984.5173	2660.65	1780
930.2767	1986.1112	2654.4	1771.55
930.4146	1987.7044	2648.45	1767.4
930.5525	1989.2968	2638.4	1755.8
930.6904	1990.8885	2644.7	1760.25
930.8282	1992.4795	2646.15	1762.8
930.966	1994.0697	2636.35	1753.4
931.1038	1995.6592	2616.65	1735.1
931.2415	1997.2479	2618.75	1735.6
931.3793	1998.8359	2612.45	1731.9
931.517	2000.4232	2603.85	1721
931.6547	2002.0097	2620.8	1741.05
931.7923	2003.5955	2609.4	1726.85
931.93	2005.1805	2598.15	1713.35
932.0676	2006.7648	2592.35	1709.6
932.2052	2008.3484	2591.45	1707.15
932.3427	2009.9312	2599.75	1716.35
932.4803	2011.5133	2592	1712.75
932.6178	2013.0946	2582.7	1699
932.7553	2014.6752	2564.45	1682.5
932.8928	2016.2551	2561.75	1680
933.0302	2017.8342	2554.35	1673.55
933.1676	2019.4126	2550.65	1670.5
933.305	2020.9902	2552.5	1672.35
933.4424	2022.5672	2549.5	1665.35
933.5798	2024.1433	2556.2	1669.6
933.7171	2025.7188	2530.75	1650.85
933.8544	2027.2935	2521.95	1638.65
933.9917	2028.8674	2533.2	1651.95
934.129	2030.4406	2521.85	1639.95
934.2662	2032.0131	2517.45	1634
934.4034	2033.5849	2510.4	1626.45
934.5406	2035.1559	2510.45	1625.85
934.6778	2036.7261	2503.75	1621.8
934.8149	2038.2957	2501.3	1618.95
934.952	2039.8645	2486.95	1605.35
935.0891	2041.4325	2497.45	1612.95
935.2262	2042.9998	2485.05	1602.9
935.3632	2044.5664	2485.3	1601.85
935.5002	2046.1323	2479.05	1597.7
935.6372	2047.6974	2478.2	1596.45
935.7742	2049.2617	2477.95	1595.15
935.9111	2050.8254	2488.8	1573.5
936.048	2052.3883	2471.1	1588.75
936.1849	2053.9504	2457.75	1575.35
936.3218	2055.5118	2451.7	1568.4
936.4586	2057.0725	2446.25	1559.05
936.5955	2058.6325	2442	1559.8
936.7323	2060.1917	2438.5	1555.85
936.869	2061.7502	2441.95	1559.15
937.0058	2063.3079	2430.95	1550.1
937.1425	2064.8649	2433.5	1549.8
937.2792	2066.4212	2442.25	1559.7
937.4159	2067.9767	2412.75	1532.3
937.5525	2069.5315	2403.15	1520.45
937.6891	2071.0856	2406.1	1523.65
937.8257	2072.6389	2402.75	1518.5
937.9623	2074.1915	2388.8	1507.95
938.0989	2075.7433	2382.9	1497.9
938.2354	2077.2945	2385.45	1503.5
938.3719	2078.8448	2381.4	1499.9
938.5084	2080.3945	2366.75	1485.95
938.6448	2081.9434	2383.3	1500.35
938.7812	2083.4916	2363.45	1481.05
938.9176	2085.039	2354.55	1471.05
939.054	2086.5857	2353.25	1469.15
939.1903	2088.1317	2346.4	1465.35
939.3267	2089.677	2351.6	1469.25
939.463	2091.2215	2348.75	1467.6
939.5992	2092.7652	2346.65	1463.05
939.7355	2094.3083	2332.35	1451.15
939.8717	2095.8506	2328.75	1449.55
940.0079	2097.3921	2333.7	1452.6
940.1441	2098.933	2317.6	1435.2
940.2802	2100.4731	2321.9	1440.65
940.4163	2102.0124	2330.7	1443.75
940.5524	2103.5511	2325.8	1445.95
940.6885	2105.089	2320.05	1438.15
940.8245	2106.6261	2306.3	1423
940.9606	2108.1626	2312.25	1426.75
941.0965	2109.6983	2321.3	1412.15
941.2325	2111.2332	2301.25	1417
941.3684	2112.7675	2293.4	1408.75
941.5044	2114.301	2294.7	1410.35
941.6403	2115.8337	2285.15	1403.3
941.7761	2117.3657	2277.55	1396.2
941.912	2118.897	2283.95	1403.1
942.0478	2120.4276	2282.65	1393.75
942.1835	2121.9575	2273.5	1391.6
942.3193	2123.4866	2284	1389.05
942.455	2125.0149	2279.65	1395.95
942.5907	2126.5426	2251.1	1369.25
942.7264	2128.0695	2259.15	1372.8
942.8621	2129.5956	2255.2	1373.75
942.9977	2131.1211	2252.9	1363.45
943.1333	2132.6458	2249.75	1368.3
943.2689	2134.1698	2243.9	1361.8
943.4044	2135.693	2238.85	1353.1
943.54	2137.2155	2247.25	1361.65
943.6755	2138.7373	2239.05	1357.75
943.8109	2140.2584	2229.95	1348.55
943.9464	2141.7787	2227.05	1340.75
944.0818	2143.2983	2224.1	1343.95
944.2172	2144.8171	2217.85	1336.75
944.3526	2146.3353	2216.05	1332.3
944.4879	2147.8527	2213.1	1332.9
944.6232	2149.3693	2211.5	1327.15
944.7585	2150.8853	2207.4	1326.2
944.8938	2152.4005	2191.1	1308.25
945.029	2153.9149	2199.6	1317.05
945.1642	2155.4287	2194.3	1312.15
945.2994	2156.9417	2189.75	1306.8
945.4346	2158.454	2185.05	1299.5
945.5697	2159.9655	2184.15	1301.25
945.7048	2161.4764	2167.9	1284.3
945.8399	2162.9865	2176.25	1294.95
945.9749	2164.4958	2178.25	1294.2
946.1099	2166.0045	2162.9	1275
946.2449	2167.5124	2170	1284.65
946.3799	2169.0195	2160.7	1278.4
946.5148	2170.526	2169.55	1288.75
946.6498	2172.0317	2156.15	1274.25
946.7846	2173.5367	2151.55	1268.65
946.9195	2175.0409	2149.65	1268.65
947.0543	2176.5445	2148.7	1266.15
947.1891	2178.0473	2145.95	1265.5
947.3239	2179.5494	2145.35	1259.35
947.4587	2181.0507	2137.65	1255.4
947.5934	2182.5513	2131.65	1248.2
947.7281	2184.0512	2131.9	1250.8
947.8628	2185.5504	2127.35	1245.55
947.9974	2187.0488	2123.95	1241.2
948.132	2188.5465	2117.85	1235.25
948.2666	2190.0435	2115.4	1232.8
948.4012	2191.5397	2109.8	1226.35
948.5357	2193.0353	2105	1221.85
948.6702	2194.5301	2100.15	1216.35
948.8047	2196.0241	2094.6	1211.55
948.9392	2197.5175	2086.85	1205.85
949.0736	2199.0101	2089.55	1202.65
949.208	2200.502	2082.8	1201.8
949.3424	2201.9931	2085.45	1200.7
949.4767	2203.4835	2068.2	1183.8
949.611	2204.9733	2074.9	1183.5
949.7453	2206.4622	2079.35	1195.3
949.8796	2207.9505	2064	1178.4
950.0138	2209.438	2067.65	1187.4
950.148	2210.9248	2055.5	1172.35
950.2822	2212.4109	2057.65	1176.35
950.4164	2213.8962	2060.9	1176.05
950.5505	2215.3809	2057.35	1174.45
950.6846	2216.8648	2048.05	1167.55
950.8186	2218.3479	2043.6	1157.4
950.9527	2219.8304	2042.2	1158.7
951.0867	2221.3121	2034.6	1149.95
951.2207	2222.7931	2028.55	1148.05
951.3546	2224.2733	2030.3	1145.7
951.4886	2225.7529	2021.15	1138.1
951.6225	2227.2317	2017.1	1130.1
951.7563	2228.7098	2005.8	1123.4
951.8902	2230.1872	1999.75	1116.05
952.024	2231.6638	2011.7	1129.3
952.1578	2233.1397	2003.2	1114.1
952.2916	2234.6149	2000.05	1119.7
952.4253	2236.0894	1990.1	1107.55
952.559	2237.5632	2017.9	1124.7
952.6927	2239.0362	1993.1	1111.15
952.8263	2240.5085	1984.5	1103.65
952.9599	2241.9801	1974.45	1093.45
953.0935	2243.4509	1981.5	1098
953.2271	2244.921	1962.15	1076.05
953.3606	2246.3904	1964.65	1082.15
953.4941	2247.8591	1961.7	1080.1
953.6276	2249.3271	1965	1084.05
953.7611	2250.7943	1961.55	1078.05
953.8945	2252.2608	1947.45	1064.95
954.0279	2253.7266	1955.85	1074.65
954.1612	2255.1917	1946.65	1065.65
954.2946	2256.656	1944.9	1059.8
954.4279	2258.1197	1935.05	1051.1
954.5612	2259.5826	1936.8	1050.45
954.6944	2261.0447	1929.2	1045.55
954.8276	2262.5062	1930.95	1044.6
954.9608	2263.9669	1925.65	1040.35
955.094	2265.4269	1927.8	1047.2
955.2271	2266.8862	1918.75	1036.55
955.3602	2268.3448	1920.5	1038.1
955.4933	2269.8026	1913.05	1029.95
955.6264	2271.2598	1915.3	1034.7
955.7594	2272.7162	1918.85	1036.85
955.8924	2274.1719	1920.35	1035.4
956.0253	2275.6268	1912.4	1030.05
956.1583	2277.0811	1911.75	1026.7
956.2912	2278.5346	1903.8	1019.6
956.4241	2279.9874	1892.6	1010.55
956.5569	2281.4395	1902.45	1021.5
956.6897	2282.8908	1915.05	1028.1
956.8225	2284.3414	1904.85	1021.6
956.9553	2285.7914	1883.95	1003.95
957.088	2287.2406	1898.05	1012.6
957.2207	2288.689	1891.55	1009.7
957.3534	2290.1368	1886.2	1003.3
957.486	2291.5838	1890.7	1007.3
957.6186	2293.0302	1878	993.45
957.7512	2294.4758	1877.3	995.15
957.8838	2295.9206	1875	990.6
958.0163	2297.3648	1871.45	989.8
958.1488	2298.8082	1878.4	994.35
958.2813	2300.251	1861.8	979.9
958.4137	2301.693	1867.6	982.6
958.5461	2303.1343	1861.85	978.7
958.6785	2304.5748	1852.8	971.7
958.8108	2306.0147	1854.6	971.6
958.9432	2307.4538	1850.75	964.3
959.0754	2308.8922	1841	958.75
959.2077	2310.3299	1843.6	959.3
959.3399	2311.7669	1844.05	961.15
959.4721	2313.2031	1841.95	960.1
959.6043	2314.6387	1826.35	943.35
959.7365	2316.0735	1831.5	947.35
959.8686	2317.5076	1831.45	949.15
960.0006	2318.941	1824.05	942.65
960.1327	2320.3737	1827.05	943.3
960.2647	2321.8056	1830.45	945.85
960.3967	2323.2369	1824.4	939.7
960.5287	2324.6674	1817.3	933.3
960.6606	2326.0972	1817	933.4
960.7925	2327.5263	1816.35	935.7
960.9244	2328.9547	1809.1	927.65
961.0562	2330.3823	1810.7	927.15
961.1881	2331.8092	1810.65	926.2
961.3198	2333.2355	1797.75	914.65
961.4516	2334.661	1801.6	920.5
961.5833	2336.0858	1799.2	913.85
961.715	2337.5098	1791.2	910
961.8467	2338.9332	1790.6	906.55
961.9783	2340.3558	1791.25	903.5
962.1099	2341.7778	1795.25	913.1
962.2415	2343.199	1787.1	903.85
962.373	2344.6195	1784.7	902.5
962.5045	2346.0393	1789.1	906.8
962.636	2347.4583	1786.15	902.7
962.7675	2348.8767	1777.15	894.4
962.8989	2350.2943	1784.5	902.55
963.0303	2351.7113	1781.5	899.65
963.1617	2353.1275	1765.3	882.7
963.293	2354.543	1797.6	891.15
963.4243	2355.9578	1775.35	893
963.5556	2357.3718	1759.25	876.9
963.6868	2358.7852	1763.3	879.4
963.818	2360.1978	1764.35	882.15
963.9492	2361.6098	1759	876.45
964.0803	2363.021	1761.15	875.8
964.2114	2364.4315	1757.45	876.75
964.3425	2365.8413	1753.45	869.85
964.4736	2367.2504	1747.7	865.15
964.6046	2368.6587	1740.6	859.45
964.7356	2370.0664	1744.2	861.55
964.8666	2371.4733	1731.75	849.15
964.9975	2372.8795	1734.95	852.8
965.1284	2374.285	1728.65	847.55
965.2593	2375.6899	1722.95	841.7
965.3901	2377.0939	1734	850.85
965.5209	2378.4973	1721.85	839.65
965.6517	2379.9	1713.6	829.9
965.7825	2381.3019	1712.85	832.25
965.9132	2382.7032	1710.15	829.1
966.0439	2384.1037	1711.5	831.25
966.1745	2385.5035	1705.3	823.85
966.3051	2386.9027	1698.05	817.35
966.4357	2388.3011	1700.85	813.2
966.5663	2389.6987	1704.65	822.05
966.6968	2391.0957	1701.35	821.2
966.8273	2392.492	1686.95	806.55
966.9578	2393.8876	1688	806.2
967.0882	2395.2824	1688.2	805.9
967.2186	2396.6765	1691	811.45
967.349	2398.07	1674.65	794
967.4793	2399.4627	1677.1	794.9
967.6097	2400.8547	1674.7	792.8
967.7399	2402.246	1682.25	795.75
967.8702	2403.6366	1675.5	793.8
968.0004	2405.0265	1674.15	791.85
968.1306	2406.4156	1673	788.4
968.2607	2407.8041	1664.65	780.75
968.3909	2409.1918	1665.7	780.5
968.521	2410.5789	1661.25	778.85
968.651	2411.9652	1654.35	770.65
968.781	2413.3508	1659.3	777.4
968.911	2414.7358	1649.25	765.6
969.041	2416.12	1657.2	776.45
969.1709	2417.5035	1642.65	762.1
969.3008	2418.8863	1649.25	765.25
969.4307	2420.2684	1643.85	763.05
969.5606	2421.6497	1647.05	764.45
969.6904	2423.0304	1641.75	760.75
969.8201	2424.4104	1639.2	758.25
969.9499	2425.7896	1642.15	758.9
970.0796	2427.1682	1638.7	756.9
970.2093	2428.546	1636.45	755.45
970.3389	2429.9232	1635.45	752.65
970.4685	2431.2996	1625.95	744.15
970.5981	2432.6753	1624.15	744.55
970.7277	2434.0503	1623.25	741.5
970.8572	2435.4246	1618.8	738
970.9867	2436.7982	1617.45	733.15
971.1161	2438.1711	1616.15	735.3
971.2456	2439.5433	1614	732.3
971.375	2440.9148	1617.5	731.7
971.5043	2442.2856	1605.55	723.75
971.6336	2443.6557	1610.75	726.4
971.7629	2445.025	1605.35	724.2
971.8922	2446.3937	1593.1	711.15
972.0214	2447.7617	1601.1	719.4
972.1506	2449.1289	1596.35	714.25
972.2798	2450.4955	1602.7	715.85
972.4089	2451.8613	1596.8	717.75
972.538	2453.2265	1587.05	706.35
972.6671	2454.5909	1592.3	709.7
972.7961	2455.9546	1594.65	714.75
972.9251	2457.3177	1586.8	705.1
973.0541	2458.68	1589	705.85
973.1831	2460.0416	1589.3	708.3
973.312	2461.4025	1590.75	708.55
973.4408	2462.7627	1593.65	700.85
973.5697	2464.1222	1579	696.9
973.6985	2465.4811	1580.35	698.4
973.8273	2466.8392	1585.05	700.5
973.956	2468.1966	1582.7	699.65
974.0847	2469.5533	1582.2	698
974.2134	2470.9093	1574.75	692.6
974.3421	2472.2645	1578.85	693.95
974.4707	2473.6191	1574.8	694.5
974.5993	2474.973	1571.1	687.85
974.7278	2476.3262	1572.6	690.35
974.8563	2477.6787	1563.75	682.2
974.9848	2479.0305	1564.6	683.9
975.1132	2480.3816	1564.45	681.05
975.2417	2481.7319	1559.95	680.6
975.37	2483.0816	1561.15	678.5
975.4984	2484.4306	1562.35	679.3
975.6267	2485.7789	1552.35	671.85
975.755	2487.1264	1555.65	672.25
975.8833	2488.4733	1539.45	658.65
976.0115	2489.8195	1565.9	664.75
976.1397	2491.165	1550.25	666.1
976.2678	2492.5097	1544.2	660
976.3959	2493.8538	1539.15	656.5
976.524	2495.1972	1538.15	655.05
976.6521	2496.5398	1537.45	654.35
976.7801	2497.8818	1535.7	651.55
976.9081	2499.2231	1532.8	651.45
977.036	2500.5637	1534.85	648.75
977.164	2501.9035	1532.8	649.45
977.2918	2503.2427	1532.5	646.15
977.4197	2504.5812	1521.85	641.85
977.5475	2505.919	1531.5	648.3
977.6753	2507.256	1533.9	653.85
977.8031	2508.5924	1521.95	640.55
977.9308	2509.9281	1524.95	638.05
978.0585	2511.2631	1510.95	628.7
978.1861	2512.5974	1518.6	636.1
978.3137	2513.9309	1512.7	633.2
978.4413	2515.2638	1537.7	626.8
978.5689	2516.596	1508.75	627.45
978.6964	2517.9275	1517.65	634
978.8239	2519.2583	1499.2	617.6
978.9513	2520.5884	1506.75	625.05
979.0788	2521.9178	1506.35	623.3
979.2062	2523.2465	1505.1	621.7
979.3335	2524.5745	1497.2	615.8
979.4608	2525.9018	1501.55	621.2
979.5881	2527.2284	1495.95	614.7
979.7154	2528.5543	1494.2	612.55
979.8426	2529.8796	1497.45	614.55
979.9698	2531.2041	1495.8	613.5
980.0969	2532.5279	1488.2	609.65
980.224	2533.851	1489.85	606.15
980.3511	2535.1735	1489.2	608.6
980.4781	2536.4952	1482.45	601.65
980.6052	2537.8163	1485.8	602.05
980.7321	2539.1366	1491	608.6
980.8591	2540.4562	1489.55	604.55
980.986	2541.7752	1483.6	602.4
981.1129	2543.0935	1482.3	599.8
981.2397	2544.411	1481.3	599.5
981.3665	2545.7279	1477.55	597.9
981.4933	2547.0441	1480.4	599.05
981.62	2548.3596	1488.05	603.9
981.7467	2549.6744	1474.35	593.15
981.8734	2550.9885	1484.4	599.3
982.0001	2552.3019	1471.35	591
982.1267	2553.6146	1475.3	593
982.2532	2554.9266	1466.1	581.35
982.3798	2556.2379	1475.45	592.1
982.5063	2557.5485	1457.5	576.4
982.6327	2558.8585	1475.55	586.2
982.7592	2560.1677	1471.85	585.75
982.8856	2561.4762	1463.7	581.65
983.0119	2562.7841	1458.75	573.35
983.1383	2564.0913	1461.8	582
983.2646	2565.3977	1456.85	575.75
983.3908	2566.7035	1453.7	570.2
983.517	2568.0086	1461.95	578.6
983.6432	2569.313	1450	567.1
983.7694	2570.6167	1447.45	561.1
983.8955	2571.9197	1452	571.05
984.0216	2573.222	1457.8	569.9
984.1476	2574.5236	1453.15	570.05
984.2737	2575.8246	1453.3	568.5
984.3996	2577.1248	1457.5	572.9
984.5256	2578.4244	1453.7	572.75
984.6515	2579.7232	1450.75	568
984.7774	2581.0214	1477.35	562.05
984.9032	2582.3189	1457.75	575.4
985.029	2583.6157	1454.95	568.45
985.1548	2584.9118	1448.45	565.3
985.2806	2586.2072	1455.65	575.65
985.4063	2587.5019	1449.45	567.45
985.5319	2588.7959	1456.95	574.3
985.6576	2590.0893	1447.2	565.45
985.7832	2591.3819	1461	579.2
985.9087	2592.6739	1460.1	580.6
986.0343	2593.9652	1457.6	574
986.1597	2595.2557	1466.4	585.15
986.2852	2596.5456	1460.85	577.1
986.4106	2597.8348	1452.7	571.25
986.536	2599.1234	1456.8	575.7
986.6614	2600.4112	1461.75	579.9
986.7867	2601.6983	1463.75	579.45
986.912	2602.9848	1458.85	575.65
987.0372	2604.2705	1470.9	583
987.1624	2605.5556	1462.15	581.55
987.2876	2606.84	1465.45	582.65
987.4128	2608.1237	1458.15	576.6
987.5379	2609.4067	1447.95	566.05
987.6629	2610.689	1462.7	570.7
987.788	2611.9707	1451.5	565.55
987.913	2613.2516	1451.25	563.35
988.0379	2614.5319	1448.4	567.75
988.1629	2615.8115	1444.05	560.8
988.2878	2617.0903	1448.4	564.75
988.4126	2618.3685	1441.45	558.8
988.5375	2619.6461	1439.45	557.2
988.6622	2620.9229	1442.75	562.1
988.787	2622.199	1434.95	550.95
988.9117	2623.4745	1435.05	552.3
989.0364	2624.7493	1437.85	555
989.161	2626.0234	1433.8	553.55
989.2857	2627.2968	1430.75	548.5
989.4102	2628.5695	1435.5	550.85
989.5348	2629.8415	1432.85	551.7
989.6593	2631.1128	1438.25	554.95
989.7837	2632.3835	1435.5	553.95
989.9082	2633.6535	1432.55	551.5
990.0326	2634.9228	1432.25	551
990.1569	2636.1914	1438.25	556
990.2812	2637.4593	1435.35	552.05
990.4055	2638.7265	1439.05	554.7
990.5298	2639.9931	1427.15	543.15
990.654	2641.259	1434.1	551.85
990.7782	2642.5242	1428.9	547.2
990.9023	2643.7887	1426.8	545.2
991.0264	2645.0525	1426.5	545.95
991.1505	2646.3156	1413.3	530.25
991.2745	2647.5781	1422.15	541
991.3985	2648.8398	1413.4	530
991.5225	2650.1009	1455.3	537.3
991.6464	2651.3613	1419.45	536.85
991.7703	2652.6211	1416.7	535
991.8942	2653.8801	1412.2	532.1
992.018	2655.1385	1413.05	526.75
992.1418	2656.3961	1411.85	529.55
992.2655	2657.6531	1412.7	530.8
992.3892	2658.9094	1421.35	541.05
992.5129	2660.1651	1413.15	531.5
992.6366	2661.42	1415.55	533.25
992.7602	2662.6743	1414.5	530.9
992.8837	2663.9279	1417.6	535.9
993.0073	2665.1808	1426.5	543.4
993.1307	2666.433	1422.5	538.9
993.2542	2667.6846	1418	535
993.3776	2668.9354	1427.35	540.45
993.501	2670.1856	1428.25	545.35
993.6244	2671.4351	1432.1	549.7
993.7477	2672.6839	1432.75	550.5
993.8709	2673.9321	1434.95	550.65
993.9942	2675.1795	1436.65	554.55
994.1174	2676.4263	1437.6	555.85
994.2405	2677.6724	1432.45	553.35
994.3637	2678.9179	1437.1	555.95
994.4868	2680.1626	1441.7	558.6
994.6098	2681.4067	1443.15	559.8
994.7328	2682.6501	1441.1	560.2
994.8558	2683.8928	1434	550.05
994.9788	2685.1348	1443.5	562.2
995.1017	2686.3761	1432.1	550.3
995.2245	2687.6168	1430.05	546.1
995.3474	2688.8568	1428.25	547.3
995.4702	2690.0961	1418.3	536.1
995.5929	2691.3348	1416.2	535.3
995.7156	2692.5727	1419.95	536.35
995.8383	2693.81	1413.7	532.2
995.961	2695.0466	1409.1	527.25
996.0836	2696.2826	1407.35	521.9
996.2062	2697.5178	1422.9	534.2
996.3287	2698.7524	1408.8	527.3
996.4512	2699.9863	1411.05	524.45
996.5737	2701.2195	1412.6	534.45
996.6961	2702.452	1419.5	534.65
996.8185	2703.6839	1416.45	533
996.9408	2704.9151	1425.15	542.85
997.0631	2706.1456	1429.75	546.25
997.1854	2707.3755	1445.6	562.95
997.3077	2708.6046	1444.9	560.35
997.4299	2709.8331	1451.35	568
997.552	2711.0609	1459.65	576.1
997.6742	2712.2881	1466.6	583.55
997.7963	2713.5145	1481.65	596.05
997.9183	2714.7403	1481.15	600.35
998.0403	2715.9654	1498.1	615.5
998.1623	2717.1899	1521.45	624.4
998.2842	2718.4136	1525.1	643.2
998.4062	2719.6367	1537.85	655.6
998.528	2720.8591	1545.3	655.75
998.6498	2722.0809	1551.75	668.25
998.7716	2723.3019	1561.9	676.5
998.8934	2724.5223	1568.85	684.75
999.0151	2725.7421	1579.05	693.65
999.1368	2726.9611	1576.2	691.05
999.2584	2728.1795	1584.55	696.75
999.38	2729.3972	1565.55	681.65
999.5016	2730.6142	1571.8	675.9
999.6231	2731.8306	1546.85	662.3
999.7446	2733.0462	1529.95	646.85
999.8661	2734.2612	1512.75	625.9
999.9875	2735.4756	1503.1	618.45
1000.1089	2736.6892	1478.35	594.45
1000.2302	2737.9022	1470	587.2
1000.3515	2739.1145	1458.25	573.85
1000.4728	2740.3262	1439.1	549.6
1000.594	2741.5372	1429.15	547.55
1000.7152	2742.7475	1414.6	531.05
1000.8363	2743.9571	1412.85	531.65
1000.9575	2745.1661	1399.3	511.6
1001.0785	2746.3744	1385.35	503
1001.1996	2747.582	1384.3	500.6
1001.3206	2748.7889	1381.1	497.85
1001.4415	2749.9952	1367.45	486.2
1001.5625	2751.2008	1364.45	481.8
1001.6833	2752.4057	1354.05	468.65
1001.8042	2753.61	1354.4	472.9
1001.925	2754.8136	1354.5	468.55
1002.0458	2756.0165	1352.5	471.05
1002.1665	2757.2188	1355.25	472.55
1002.2872	2758.4204	1349.9	468.9
1002.4078	2759.6213	1353.95	467.25
1002.5285	2760.8215	1355.95	466.1
1002.649	2762.0211	1349.5	467.05
1002.7696	2763.22	1354.35	467.3
1002.8901	2764.4182	1350	463.5
1003.0106	2765.6158	1343.6	458.75
1003.131	2766.8127	1342.5	459.95
1003.2514	2768.009	1337.45	454.3
1003.3717	2769.2045	1342.3	459.3
1003.492	2770.3994	1340.75	457.75
1003.6123	2771.5936	1335	451.75
1003.7325	2772.7872	1331.75	448.55
1003.8527	2773.9801	1330.95	448.15
1003.9729	2775.1723	1345.35	444.5
1004.093	2776.3639	1328.95	447.65
1004.2131	2777.5548	1330.1	445.3
1004.3331	2778.745	1329.05	445.15
1004.4531	2779.9346	1330.9	450.15
1004.5731	2781.1235	1338.35	456.35
1004.693	2782.3117	1339.75	457.2
1004.8129	2783.4992	1343.4	463.3
1004.9328	2784.6861	1349.4	467.6
1005.0526	2785.8723	1355.05	470.3
1005.1723	2787.0579	1361.4	478.1
1005.2921	2788.2428	1366.9	484.45
1005.4118	2789.427	1375.6	493.25
1005.5314	2790.6106	1384.8	503.5
1005.651	2791.7935	1389.6	505.5
1005.7706	2792.9757	1403.75	520.7
1005.8902	2794.1573	1425.95	542.45
1006.0097	2795.3382	1435.75	554.4
1006.1291	2796.5184	1446.85	563.95
1006.2485	2797.698	1471.65	588.25
1006.3679	2798.8769	1478.7	594.85
1006.4873	2800.0551	1500.15	617.55
1006.6066	2801.2327	1520.8	636.45
1006.7258	2802.4096	1533.3	651.05
1006.8451	2803.5859	1557.85	674.8
1006.9642	2804.7615	1574	691.7
1007.0834	2805.9364	1607.4	726.4
1007.2025	2807.1106	1628.35	746.3
1007.3216	2808.2842	1669.95	787.1
1007.4406	2809.4572	1692.5	809.35
1007.5596	2810.6294	1732.9	848.95
1007.6785	2811.801	1773.45	891.65
1007.7975	2812.972	1809.2	926.9
1007.9163	2814.1423	1849.7	966.65
1008.0352	2815.3119	1893.2	1008.85
1008.154	2816.4808	1960.95	1081.05
1008.2727	2817.6491	2002	1118.75
1008.3914	2818.8167	2051.65	1169.65
1008.5101	2819.9837	2102.7	1212.95
1008.6288	2821.15	2152.6	1269.35
1008.7474	2822.3157	2194.55	1311.75
1008.8659	2823.4807	2240.75	1359.55
1008.9844	2824.645	2292.85	1409.55
1009.1029	2825.8086	2326.4	1443.55
1009.2214	2826.9716	2376.95	1493.9
1009.3398	2828.134	2428.1	1544.6
1009.4581	2829.2957	2458	1572.7
1009.5764	2830.4567	2490.7	1609.4
1009.6947	2831.617	2497.35	1613.35
1009.813	2832.7767	2515.45	1634.35
1009.9312	2833.9358	2510.3	1628.6
1010.0493	2835.0941	2504.15	1621.65
1010.1675	2836.2519	2496.2	1616.05
1010.2855	2837.4089	2473.05	1589.05
1010.4036	2838.5653	2469.95	1588.65
1010.5216	2839.7211	2471.65	1590.55
1010.6396	2840.8761	2467.2	1582.25
1010.7575	2842.0306	2498.2	1617.6
1010.8754	2843.1843	2534.35	1651.15
1010.9932	2844.3374	2582.2	1699.6
1011.111	2845.4899	2636.85	1753.2
1011.2288	2846.6417	2711.45	1829.25
1011.3465	2847.7928	2784.85	1902.75
1011.4642	2848.9433	2863.85	1982.1
1011.5818	2850.0931	2937.35	2055.7
1011.6995	2851.2422	3010.8	2125.05
1011.817	2852.3907	3090.7	2207.6
1011.9345	2853.5385	3151.85	2268.6
1012.052	2854.6857	3236.4	2327.8
1012.1695	2855.8323	3260.2	2378.45
1012.2869	2856.9781	3319.95	2438.7
1012.4042	2858.1233	3362.45	2478.6
1012.5216	2859.2679	3415.45	2534.55
1012.6389	2860.4118	3459	2575.05
1012.7561	2861.555	3496.6	2609.15
1012.8733	2862.6976	3542.65	2658.85
1012.9905	2863.8395	3566.45	2684.85
1013.1076	2864.9808	3599.45	2718.05
1013.2247	2866.1214	3605.2	2724.9
1013.3417	2867.2614	3624.85	2742.1
1013.4587	2868.4007	3652	2767.2
1013.5757	2869.5393	3654.35	2767.7
1013.6926	2870.6773	3670.9	2783.95
1013.8095	2871.8146	3681.95	2796.8
1013.9263	2872.9513	3688.25	2802
1014.0431	2874.0874	3696.3	2814.7
1014.1599	2875.2227	3678.7	2797.25
1014.2766	2876.3574	3666.6	2782.9
1014.3933	2877.4915	3635.9	2753.4
1014.51	2878.6249	3613.35	2730.85
1014.6266	2879.7577	3589.1	2704.55
1014.7431	2880.8898	3576.2	2680.95
1014.8596	2882.0212	3552.3	2668.65
1014.9761	2883.152	3537.95	2654.65
1015.0925	2884.2821	3525.2	2642.2
1015.2089	2885.4116	3509.6	2629.2
1015.3253	2886.5405	3517.3	2635.2
1015.4416	2887.6686	3535.4	2650.35
1015.5579	2888.7962	3534.9	2653.45
1015.6741	2889.923	3520.6	2638.75
1015.7903	2891.0493	3558.5	2677.45
1015.9065	2892.1748	3562	2677.3
1016.0226	2893.2997	3557.9	2675.15
1016.1387	2894.424	3591.85	2711.25
1016.2547	2895.5476	3609.7	2727.05
1016.3707	2896.6706	3629.65	2749.65
1016.4866	2897.7929	3637.4	2754.75
1016.6025	2898.9145	3695.3	2813.65
1016.7184	2900.0355	3712.55	2829.6
1016.8342	2901.1559	3766.9	2883
1016.95	2902.2756	3787.85	2906.85
1017.0658	2903.3946	3832.45	2950.6
1017.1815	2904.513	3848.95	2964.1
1017.2971	2905.6308	3874.15	2992.25
1017.4127	2906.7479	3889.55	3006.65
1017.5283	2907.8643	3924.9	3043.3
1017.6439	2908.9801	3952.15	3069.5
1017.7594	2910.0953	3941.4	3059.75
1017.8748	2911.2098	3935.7	3050.7
1017.9902	2912.3236	3954	3063.2
1018.1056	2913.4368	3943.4	3058.5
1018.2209	2914.5494	3927.4	3043.55
1018.3362	2915.6613	3897.25	3009.4
1018.4515	2916.7725	3861.65	2976.5
1018.5667	2917.8831	3829.7	2946.05
1018.6819	2918.9931	3815.3	2928.65
1018.797	2920.1024	3771	2888.15
1018.9121	2921.211	3753.55	2869.7
1019.0271	2922.319	3721.65	2840.15
1019.1421	2923.4264	3715.65	2835.1
1019.2571	2924.5331	3695.5	2813.65
1019.372	2925.6391	3681.45	2799.05
1019.4869	2926.7445	3678.05	2796.95
1019.6017	2927.8493	3667.1	2784.85
1019.7165	2928.9534	3673.65	2790.5
1019.8313	2930.0569	3672.7	2786.9
1019.946	2931.1597	3651.55	2767.65
1020.0606	2932.2619	3641.05	2756.5
1020.1753	2933.3634	3628.65	2744.55
1020.2899	2934.4643	3640.85	2751.45
1020.4044	2935.5645	3620.5	2732.15
1020.5189	2936.6641	3598.05	2711.15
1020.6334	2937.763	3544.3	2662.65
1020.7478	2938.8613	3499.5	2617.25
1020.8622	2939.959	3431.35	2542.4
1020.9765	2941.056	3359.25	2477.25
1021.0908	2942.1523	3284.05	2400.65
1021.2051	2943.248	3202.6	2320.1
1021.3193	2944.3431	3097.85	2216.7
1021.4334	2945.4375	2995.3	2112.95
1021.5476	2946.5313	2884.1	2002.2
1021.6617	2947.6244	2793.65	1910.35
1021.7757	2948.7169	2689.55	1805.7
1021.8897	2949.8087	2587.75	1705.65
1022.0037	2950.8999	2490.2	1609.25
1022.1176	2951.9904	2407.85	1525
1022.2315	2953.0803	2340.5	1456.9
1022.3453	2954.1696	2278.35	1396.15
1022.4591	2955.2582	2234.95	1353.7
1022.5728	2956.3462	2182.9	1300.55
1022.6865	2957.4335	2139.5	1255.4
1022.8002	2958.5202	2114.3	1230.8
1022.9138	2959.6062	2078.7	1197.4
1023.0274	2960.6916	2048.45	1166.35
1023.141	2961.7764	2033.95	1151.65
1023.2545	2962.8605	2016.85	1133.65
1023.3679	2963.9439	2005.2	1124.15
1023.4813	2965.0267	1992.1	1108.5
1023.5947	2966.1089	2011.55	1106.55
1023.708	2967.1905	1986.1	1103.9
1023.8213	2968.2714	1977.15	1095.3
1023.9346	2969.3516	1972.45	1088.85
1024.0478	2970.4312	1993.1	1104.6
1024.1609	2971.5102	1985.2	1103.35
1024.274	2972.5885	1991.8	1108.75
1024.3871	2973.6662	1992.4	1105.3
1024.5002	2974.7432	1985.95	1103.95
1024.6132	2975.8196	1976.75	1094.4
1024.7261	2976.8954	1971.45	1089.35
1024.839	2977.9705	1961.4	1079.8
1024.9519	2979.045	1934.6	1053.9
1025.0647	2980.1188	1923.55	1040.9
1025.1775	2981.192	1903.65	1022.1
1025.2902	2982.2645	1888.1	1005.15
1025.4029	2983.3364	1863.15	981.6
1025.5156	2984.4077	1832.25	951.95
1025.6282	2985.4783	1811.6	920.85
1025.7407	2986.5483	1771.5	887.75
1025.8532	2987.6177	1736.9	857.2
1025.9657	2988.6864	1697.2	815.65
1026.0782	2989.7545	1677.7	793.85
1026.1906	2990.8219	1632.7	752.25
1026.3029	2991.8887	1615.8	732.1
1026.4152	2992.9548	1578.25	696.6
1026.5275	2994.0204	1548.5	668.65
1026.6397	2995.0852	1508.45	628.4
1026.7519	2996.1495	1495.85	611.5
1026.864	2997.2131	1463.6	581.1
1026.9761	2998.276	1450.1	568.85
1027.0882	2999.3383	1425.85	541.85
1027.2002	3000.4	1413	529.25
1027.3122	3001.4611	1393.85	513.2
1027.4241	3002.5215	1381.45	499.9
1027.536	3003.5812	1366.05	483.35
1027.6478	3004.6404	1348.8	466.25
1027.7596	3005.6989	1347.95	463.4
1027.8714	3006.7567	1330.7	448.7
1027.9831	3007.8139	1354.65	444.95
1028.0947	3008.8705	1320.65	437.55
1028.2064	3009.9264	1312.25	427.6
1028.3179	3010.9818	1308.15	426.75
1028.4295	3012.0364	1312.8	431.1
1028.541	3013.0905	1304.15	421.4
1028.6524	3014.1439	1295.8	412
1028.7638	3015.1966	1301.05	420.9
1028.8752	3016.2487	1297.7	417.4
1028.9865	3017.3002	1300.2	412.55
1029.0978	3018.3511	1298.55	419.45
1029.209	3019.4013	1295	413.25
1029.3202	3020.4509	1289.55	408.9
1029.4314	3021.4998	1293.3	409.35
1029.5425	3022.5481	1295.15	412.25
1029.6535	3023.5958	1293.3	409.7
1029.7645	3024.6428	1297.4	414.9
1029.8755	3025.6892	1303.45	421.25
1029.9864	3026.735	1307	424.85
1030.0973	3027.7802	1313.05	430
1030.2082	3028.8247	1301.15	418.5
1030.319	3029.8685	1310.05	428
1030.4297	3030.9118	1313.65	431.95
1030.5404	3031.9544	1327.2	444.6
1030.6511	3032.9963	1329.2	446.55
1030.7617	3034.0376	1326.3	446.2
1030.8723	3035.0783	1335.75	450.15
1030.9829	3036.1184	1338.75	455.2
1031.0934	3037.1578	1340.6	460.3
1031.2038	3038.1966	1345.8	463.35
1031.3142	3039.2348	1342.35	459.15
1031.4246	3040.2723	1348.75	457.7
1031.5349	3041.3092	1337.5	455.05
1031.6452	3042.3455	1341.1	458.65
1031.7554	3043.3811	1339.4	455.85
1031.8656	3044.4161	1333.15	450.25
1031.9758	3045.4505	1330.15	448.55
1032.0859	3046.4842	1323.15	441.05
1032.1959	3047.5173	1319.05	436.65
1032.3059	3048.5498	1314.35	431.4
1032.4159	3049.5816	1308.6	426.35
1032.5258	3050.6128	1303.15	420.8
1032.6357	3051.6434	1293.1	410.2
1032.7455	3052.6734	1293.15	410.35
1032.8553	3053.7027	1285.15	401.45
1032.9651	3054.7314	1269.85	387.7
1033.0748	3055.7594	1275.5	395.35
1033.1845	3056.7868	1268.3	384.5
1033.2941	3057.8136	1253.35	372.5
1033.4037	3058.8398	1256.5	375.45
1033.5132	3059.8653	1256.15	373.65
1033.6227	3060.8902	1246.1	364.9
1033.7321	3061.9145	1239.9	357.85
1033.8415	3062.9381	1235.05	351.6
1033.9509	3063.9612	1251.4	353.6
1034.0602	3064.9835	1228.9	347.2
1034.1694	3066.0053	1225.55	339.95
1034.2787	3067.0264	1214.6	334.9
1034.3878	3068.0469	1210.8	327.55
1034.497	3069.0668	1208.1	324.5
1034.6061	3070.086	1196.35	314.35
1034.7151	3071.1046	1187.75	302.65
1034.8241	3072.1226	1179.6	296.7
1034.9331	3073.1399	1172.6	289.25
1035.042	3074.1567	1156.9	274.55
1035.1508	3075.1727	1153.05	268.85
1035.2597	3076.1882	1143.9	263.95
1035.3684	3077.203	1140	258.05
1035.4772	3078.2173	1127.3	244.85
1035.5859	3079.2308	1117.1	231.9
1035.6945	3080.2438	1111.75	227.55
1035.8031	3081.2561	1102.1	222.05
1035.9117	3082.2678	1097.15	214.6
1036.0202	3083.2789	1088.75	206.3
1036.1286	3084.2893	1082.3	198.85
1036.2371	3085.2991	1083.55	201.65
1036.3454	3086.3083	1079.4	193.95
1036.4538	3087.3169	1073.7	188.75
1036.562	3088.3248	1059.35	174.65
1036.6703	3089.3321	1057.8	174.9
1036.7785	3090.3388	1054.7	172
1036.8866	3091.3449	1052.25	169.4
1036.9948	3092.3503	1052.85	168.35
1037.1028	3093.3551	1040.1	159.2
1037.2108	3094.3593	1041.35	160.85
1037.3188	3095.3629	1036.6	155.4
1037.4267	3096.3658	1039.65	157.8
1037.5346	3097.3681	1029.55	147.8
1037.6425	3098.3698	1029.65	146.15
1037.7503	3099.3708	1036.95	148
1037.858	3100.3713	1030.7	150.25
1037.9657	3101.3711	1027.25	145.55
1038.0734	3102.3702	1165.6	138.6
1038.181	3103.3688	1023.8	138.8
1038.2886	3104.3667	1021.35	140.85
1038.3961	3105.364	1016	135.15
1038.5036	3106.3607	1020.35	137.1
1038.611	3107.3568	1015.2	131.75
1038.7184	3108.3522	1014.3	133.85
1038.8257	3109.347	1010.6	126.3
1038.933	3110.3412	1014.1	128.05
1039.0403	3111.3348	1008.5	127.1
1039.1475	3112.3277	1010.05	126.4
1039.2547	3113.32	1003.45	124.5
1039.3618	3114.3117	1007.55	124.05
1039.4689	3115.3028	1004.6	123.25
1039.5759	3116.2932	1007.1	122.45
1039.6829	3117.2831	1006.8	119.4
1039.7898	3118.2723	1001.15	119.75
1039.8967	3119.2608	997.55	115.15
1040.0035	3120.2488	995.6	113.7
1040.1103	3121.2361	996.6	115.4
1040.2171	3122.2229	994.55	111.8
1040.3238	3123.209	999.45	118.4
1040.4305	3124.1944	996.85	115.95
1040.5371	3125.1793	996.2	114.3
1040.6437	3126.1635	987.45	106.05
1040.7502	3127.1471	996.35	114.45
1040.8567	3128.1301	990.3	109.5
1040.9631	3129.1125	990.7	108.15
1041.0695	3130.0942	991.6	110.85
1041.1759	3131.0753	998	109.15
1041.2822	3132.0558	986.45	101.4
1041.3884	3133.0357	986.95	106.4
1041.4946	3134.015	983.25	100.15
1041.6008	3134.9936	986.75	102.75
1041.7069	3135.9716	1002.25	99.6
1041.813	3136.949	981.05	98.4
1041.919	3137.9258	1001.45	102.7
1042.025	3138.902	984.1	94.65
1042.1309	3139.8775	976.8	94.15
1042.2368	3140.8524	978.2	97.75
1042.3427	3141.8267	980.8	96.55
1042.4485	3142.8004	972.65	91.4
1042.5542	3143.7735	982.05	93.4
1042.6599	3144.7459	977.05	92.6
1042.7656	3145.7178	974.85	93.15
1042.8712	3146.689	972.35	91
1042.9768	3147.6596	973	90.25
1043.0823	3148.6295	972.55	92.1
1043.1878	3149.5989	969.6	89.2
1043.2932	3150.5676	969.3	90.7
1043.3986	3151.5357	967.25	84.75
1043.5039	3152.5032	967.7	86.1
1043.6092	3153.4701	965.2	83.8
1043.7145	3154.4364	969.15	83.15
1043.8197	3155.402	963.75	85.25
1043.9248	3156.367	967.25	82.9
1044.03	3157.3315	999.75	84.15
1044.135	3158.2952	964.8	83.5
1044.24	3159.2584	961.35	78.3
1044.345	3160.221	962.7	80.95
1044.4499	3161.1829	960.1	79.15
1044.5548	3162.1442	960.85	79.45
1044.6596	3163.105	960.1	78.9
1044.7644	3164.065	957.2	74.45
1044.8692	3165.0245	962.6	79
1044.9739	3165.9834	958.05	78.15
1045.0785	3166.9416	958.85	75.95
1045.1831	3167.8993	959.1	77.3
1045.2877	3168.8563	951.95	68.85
1045.3922	3169.8127	954.4	73.6
1045.4966	3170.7684	952.5	72.2
1045.6011	3171.7236	952.3	71.55
1045.7054	3172.6782	954.5	72.05
1045.8098	3173.6321	953.1	71.75
1045.914	3174.5854	957.25	70.05
1046.0183	3175.5381	951.15	70.85
1046.1224	3176.4902	949.9	68.4
1046.2266	3177.4417	951.25	70
1046.3307	3178.3926	952.85	71.35
1046.4347	3179.3428	949.35	69.1
1046.5387	3180.2924	951.3	71.65
1046.6427	3181.2415	949.65	67.5
1046.7466	3182.1899	953.8	74.1
1046.8504	3183.1377	950.25	68.3
1046.9542	3184.0848	951.4	67.35
1047.058	3185.0314	951	67.35
1047.1617	3185.9773	948.65	66.05
1047.2654	3186.9227	949.2	65.25
1047.369	3187.8674	947.85	63.6
1047.4726	3188.8115	950.2	64.05
1047.5761	3189.755	944.8	63.7
1047.6796	3190.6979	945.75	65.8
1047.783	3191.6402	941.55	59.75
1047.8864	3192.5818	945.35	65.5
1047.9898	3193.5229	964.05	62.1
1048.0931	3194.4633	945.45	65.35
1048.1963	3195.4031	943.05	58
1048.2995	3196.3423	943.9	64.55
1048.4027	3197.2809	944.35	63.45
1048.5058	3198.2189	942.85	61.3
1048.6089	3199.1563	962.25	64
1048.7119	3200.0931	942.25	62.15
1048.8148	3201.0292	940.7	59.35
1048.9178	3201.9648	940.15	57.6
1049.0206	3202.8997	942.2	58.35
1049.1235	3203.834	941.15	61.75
1049.2262	3204.7677	939.75	58.6
1049.329	3205.7008	940.7	59.5
1049.4317	3206.6333	940.6	61.4
1049.5343	3207.5652	940.45	57.7
1049.6369	3208.4964	938.5	57.55
1049.7394	3209.4271	936.7	56.4
1049.8419	3210.3571	936.65	57.55
1049.9444	3211.2865	938.8	56.2
1050.0468	3212.2154	937.55	54.5
1050.1491	3213.1436	942.75	58.95
1050.2514	3214.0712	945	56.4
1050.3537	3214.9982	936	55.45
1050.4559	3215.9246	937.2	55.45
1050.5581	3216.8503	934.6	53.6
1050.6602	3217.7755	935.65	53.95
1050.7623	3218.7001	932.65	51.25
1050.8643	3219.624	935.65	54.3
1050.9663	3220.5473	935.5	52.15
1051.0682	3221.4701	936	51.9
1051.1701	3222.3922	939	55.7
1051.2719	3223.3137	934.5	54.55
1051.3737	3224.2346	932.3	51.85
1051.4754	3225.1549	932.3	52.25
1051.5771	3226.0746	934.8	54.1
1051.6788	3226.9937	933.65	51.7
1051.7804	3227.9121	932.6	51.9
1051.8819	3228.83	934.45	50.8
1051.9834	3229.7473	934.4	53.95
1052.0849	3230.6639	931.55	49.65
1052.1863	3231.5799	930.8	49.75
1052.2876	3232.4954	932.9	50
1052.3889	3233.4102	932.55	50.25
1052.4902	3234.3244	932.5	51.35
1052.5914	3235.238	930.05	48.25
1052.6926	3236.151	954.85	50.35
1052.7937	3237.0634	927.9	47.9
1052.8948	3237.9752	929	49.5
1052.9958	3238.8864	930.95	51.2
1053.0968	3239.797	931.5	48.9
1053.1977	3240.7069	928.85	47.6
1053.2986	3241.6163	929	46.1
1053.3994	3242.5251	928.65	47.7
1053.5002	3243.4332	923.25	45
1053.6009	3244.3408	926.9	44.5
1053.7016	3245.2477	926.45	45.15
1053.8022	3246.154	926.85	42.8
1053.9028	3247.0598	927.35	44.8
1054.0034	3247.9649	927.7	46.1
1054.1039	3248.8694	926.95	45.9
1054.2043	3249.7733	926.1	44.35
1054.3047	3250.6766	925.2	43.35
1054.4051	3251.5793	925.3	45.85
1054.5054	3252.4814	925.6	43.9
1054.6056	3253.3829	922.3	41.4
1054.7058	3254.2838	923.95	43.85
1054.806	3255.1841	921.3	41.4
1054.9061	3256.0838	922.7	41.25
1055.0061	3256.9829	923.45	43.05
1055.1062	3257.8814	920.95	37.55
1055.2061	3258.7792	925.1	41.4
1055.306	3259.6765	920.65	37.25
1055.4059	3260.5731	919.75	38.65
1055.5057	3261.4692	919.45	36.6
1055.6055	3262.3647	919.25	37.95
1055.7052	3263.2595	917.3	36.15
1055.8049	3264.1538	919.35	39
1055.9045	3265.0474	917.5	36.25
1056.0041	3265.9404	915.3	36.9
1056.1036	3266.8329	912.8	31.85
1056.2031	3267.7247	924.8	34.85
1056.3025	3268.616	912.7	34.7
1056.4019	3269.5066	914.15	33
1056.5013	3270.3966	915.4	33.75
1056.6005	3271.286	910.4	30.35
