Software Version:	3.9.2.0
Unit SN:	10000200
Spectrometer SN:	6960
Date:	3/14/2024 1:40:15 PM
Data Line Index:	25
Spectral Points:	2048
Integration time (ms):	125
Averages:	20
Delay (ms):	30000
Sequence Number:	1
Processing:	dark subtract
Laser Power (mW):	300
Laser Current (mA):	825
Laser Diode Temp (C):	25
Laser Case Temp (C):	28.7
System Temp (C):	28.7
Spectrometer Temp (C):	26.5
CCD Temp (C):	0.005
Secondary Temp (C):	20.011
Heatsink Temp (C):	24.73
CCDPCB Temp (C):	38.197
SecondaryPCB Temp (C):	35.751

Wavelength	RamanShift	Raw Counts	Dark Subtracted
787.061	30.1047	465.4	53.9
787.2016	32.3739	470.25	61.8
787.3422	34.6426	474.5	65.85
787.4828	36.9109	481.8	69.2
787.6235	39.1787	492.3	77.4
787.7642	41.4461	503.7	84.8
787.9049	43.7131	514.2	90.7
788.0456	45.9796	521.65	95.45
788.1863	48.2456	532.15	100.5
788.3271	50.5112	540.3	103.45
788.4679	52.7764	551.75	114.4
788.6087	55.0411	564.35	122.55
788.7496	57.3054	574.65	127.2
788.8904	59.5692	587.9	138.25
789.0313	61.8326	598.8	144.5
789.1722	64.0955	613.1	153.85
789.3132	66.3579	632.55	167.75
789.4541	68.6199	658.8	191.8
789.5951	70.8815	689.15	220.6
789.7361	73.1426	778.2	306.8
789.8771	75.4032	995.5	517.4
790.0181	77.6634	1541.4	1058.15
790.1592	79.9231	2844.5	2354.75
790.3003	82.1824	5705.5	5206.35
790.4414	84.4412	10897.85	10378.5
790.5825	86.6995	18289.85	17745.95
790.7237	88.9574	25623.95	25057.15
790.8648	91.2148	30743	30163.65
791.006	93.4717	33163.9	32572.55
791.1472	95.7282	33689.7	33095.65
791.2885	97.9842	33607.05	33010.85
791.4297	100.2398	32991.5	32389.5
791.571	102.4949	32335.85	31733.25
791.7123	104.7495	31496.9	30889.4
791.8536	107.0036	30593.95	29982.65
791.9949	109.2573	29786.5	29177.75
792.1363	111.5105	29089.55	28477.3
792.2777	113.7632	28346.75	27733.7
792.4191	116.0154	27759.15	27134.55
792.5605	118.2672	27356.25	26740.8
792.7019	120.5185	26914.55	26298.05
792.8434	122.7693	26539	25919.95
792.9849	125.0197	26269.25	25647.2
793.1264	127.2696	26022.3	25396.05
793.2679	129.519	25862.4	25235.85
793.4094	131.7679	25596	24968
793.551	134.0163	25400.05	24765.6
793.6926	136.2642	25094.3	24454.5
793.8342	138.5117	24858.25	24210.4
793.9758	140.7587	24452.2	23810.8
794.1175	143.0052	24211.5	23564.5
794.2591	145.2512	23913.6	23268.6
794.4008	147.4967	23638	22991.85
794.5425	149.7417	23461.55	22813.65
794.6842	151.9863	23289.8	22640.65
794.826	154.2304	23222.15	22568.8
794.9677	156.4739	23052.75	22391.65
795.1095	158.717	22974.75	22314.15
795.2513	160.9596	22787.65	22124.15
795.3931	163.2017	22514.1	21852.25
795.535	165.4433	22180	21513
795.6768	167.6844	21819.25	21150.55
795.8187	169.925	21509.9	20837.1
795.9606	172.1651	21102.05	20429.8
796.1025	174.4047	20821	20141.35
796.2445	176.6439	20545.25	19864.75
796.3864	178.8825	20296	19613.45
796.5284	181.1206	20117.25	19434.45
796.6704	183.3582	19970.55	19282.35
796.8124	185.5954	19846.3	19156.45
796.9544	187.832	19771.95	19080
797.0965	190.0681	19719.25	19022.1
797.2386	192.3037	19691.6	18992.4
797.3806	194.5388	19682.95	18979.85
797.5228	196.7734	19720.2	19019.4
797.6649	199.0075	19791.95	19083.75
797.807	201.2411	19938.8	19228.9
797.9492	203.4742	20000.05	19290.95
798.0914	205.7068	20159.15	19445.65
798.2336	207.9389	20294.1	19581.25
798.3758	210.1704	20387.55	19671.75
798.518	212.4015	20522.6	19803.25
798.6603	214.632	20626.05	19905.7
798.8025	216.862	20814.2	20103.2
798.9448	219.0915	20952.75	20250
799.0871	221.3205	21100.15	20398.55
799.2294	223.549	21268.2	20567.55
799.3718	225.777	21458.15	20765.6
799.5141	228.0044	21697.65	20998.35
799.6565	230.2314	22017.75	21321.6
799.7989	232.4578	22323.9	21625.25
799.9413	234.6837	22592.65	21888.35
800.0837	236.909	22707.7	21999.75
800.2262	239.1339	22724.55	21991.45
800.3687	241.3582	22562.4	21846.2
800.5111	243.582	22340.7	21601.15
800.6536	245.8053	22124.9	21389.15
800.7961	248.0281	21904.6	21172.8
800.9387	250.2503	21788.4	21056.5
801.0812	252.472	21699.65	20963.4
801.2238	254.6932	21708.6	20967
801.3664	256.9139	21705.55	20962.3
801.509	259.134	21841.1	21096.6
801.6516	261.3536	21911.1	21165.8
801.7942	263.5727	22117.9	21374.05
801.9369	265.7912	22152.75	21404.35
802.0795	268.0092	22358.35	21613.55
802.2222	270.2267	22382.3	21637.5
802.3649	272.4436	22420	21672.25
802.5076	274.6601	22374.95	21618.5
802.6504	276.8759	22251.2	21499.85
802.7931	279.0913	22177.65	21425.3
802.9359	281.3061	22019.95	21264.6
803.0787	283.5204	22053.85	21296.3
803.2215	285.7341	22037.4	21280.5
803.3643	287.9473	22120.6	21348.15
803.5071	290.16	22258.6	21494.15
803.6499	292.3721	22525.45	21765.7
803.7928	294.5837	22811.15	22048.6
803.9357	296.7947	23101.6	22340.45
804.0786	299.0052	23294.35	22534.55
804.2215	301.2152	23190.85	22425.75
804.3644	303.4246	22912	22150.9
804.5074	305.6334	22395.15	21633.2
804.6503	307.8418	21897.95	21132.5
804.7933	310.0495	21436.05	20670.3
804.9363	312.2568	21050.2	20288.4
805.0793	314.4635	20685.9	19923.2
805.2223	316.6696	20519.8	19752.85
805.3653	318.8752	20372.85	19595.85
805.5084	321.0802	20349.1	19584.4
805.6514	323.2847	20370.45	19599.15
805.7945	325.4887	20396.1	19622.7
805.9376	327.692	20350.85	19578.8
806.0807	329.8949	20289.7	19518.05
806.2238	332.0972	20027.25	19253.4
806.367	334.2989	19741.45	18961.3
806.5101	336.5001	19482.85	18707.55
806.6533	338.7007	19284.35	18505.95
806.7965	340.9008	19144.45	18361.4
806.9397	343.1003	18977.7	18196.6
807.0829	345.2992	18864.05	18082.5
807.2261	347.4976	18841.25	18060.55
807.3693	349.6955	18773.6	17986.3
807.5126	351.8927	18784.75	17998.35
807.6559	354.0895	18710.2	17912.55
807.7991	356.2856	18722.9	17936.05
807.9424	358.4812	18654.55	17865.65
808.0857	360.6763	18703.9	17915.05
808.2291	362.8707	18674.55	17883.45
808.3724	365.0646	18681.6	17891.2
808.5158	367.258	18664.1	17868.75
808.6591	369.4508	18730.85	17933.4
808.8025	371.643	18808.8	18012.65
808.9459	373.8346	18819.6	18020.2
809.0893	376.0257	18819.8	18016.35
809.2327	378.2162	18754.3	17950.45
809.3762	380.4062	18717.95	17913.9
809.5196	382.5956	18547.45	17742.35
809.6631	384.7844	18416.25	17610.8
809.8066	386.9726	18270.15	17461.35
809.9501	389.1603	18201.2	17392
810.0936	391.3474	18156.7	17319.55
810.2371	393.5339	18121.95	17316.9
810.3806	395.7199	18012.65	17213.15
810.5241	397.9052	18050.55	17252.35
810.6677	400.09	18086.25	17284.3
810.8113	402.2743	18155.25	17357.35
810.9548	404.4579	18262.7	17464.05
811.0984	406.641	18455.4	17657.55
811.2421	408.8235	18647.4	17847.75
811.3857	411.0054	18880.4	18080.55
811.5293	413.1868	19213.5	18409.55
811.673	415.3675	19390.25	18589.2
811.8166	417.5477	19497.6	18694.35
811.9603	419.7273	19513.7	18706.3
812.104	421.9064	19389.9	18575.15
812.2477	424.0848	19270	18457.2
812.3914	426.2627	19030.55	18216.55
812.5351	428.4399	18738.65	17924
812.6788	430.6166	18403.25	17585.4
812.8226	432.7928	18013.5	17196.05
812.9663	434.9683	17647.3	16829.05
813.1101	437.1432	17414.2	16593.45
813.2539	439.3176	17226.1	16408
813.3977	441.4914	17081.2	16261.5
813.5415	443.6645	17069.9	16244.95
813.6853	445.8371	16973.1	16150.2
813.8291	448.0091	16897.75	16079.8
813.973	450.1806	16829.2	16007.45
814.1168	452.3514	16780.05	15955.95
814.2607	454.5216	16778.6	15941.8
814.4046	456.6913	16697.85	15874.2
814.5485	458.8603	16756.35	15930.1
814.6924	461.0288	16812.85	15990.65
814.8363	463.1967	16795.45	15969.95
814.9802	465.3639	16860.35	16035.85
815.1241	467.5306	16871.95	16043.7
815.2681	469.6967	16932.05	16102.85
815.412	471.8622	17048.05	16220.55
815.556	474.0271	17115.95	16291.8
815.7	476.1914	17178.7	16348.65
815.844	478.3551	17139.4	16314.6
815.988	480.5182	17146.65	16318.95
816.132	482.6807	17157.25	16327.5
816.276	484.8426	17303.45	16474.65
816.4201	487.0039	17627.6	16799.6
816.5641	489.1647	18030	17196
816.7082	491.3248	18426.45	17597.4
816.8522	493.4843	18554.15	17723.8
816.9963	495.6432	18525.4	17693.55
817.1404	497.8015	18370.75	17534.9
817.2845	499.9592	18288	17455
817.4286	502.1163	18132.5	17300.55
817.5727	504.2728	17849.25	17011.3
817.7168	506.4287	17556.3	16722.1
817.861	508.5839	17123.55	16287.3
818.0051	510.7386	16862.05	16026.3
818.1493	512.8927	16702.35	15856.55
818.2935	515.0461	16599.8	15763.95
818.4377	517.199	16602.9	15768.9
818.5818	519.3512	16690.7	15857.4
818.726	521.5029	16821.8	15977.8
818.8703	523.6539	16979.5	16138.7
819.0145	525.8043	17041.95	16201.45
819.1587	527.9541	17010.5	16168.45
819.303	530.1033	16899.35	16059.4
819.4472	532.2519	16795.35	15953.25
819.5915	534.3999	16848	16006.35
819.7357	536.5472	17005.5	16161.9
819.88	538.694	17355.25	16513.65
820.0243	540.8401	17787.55	16945.1
820.1686	542.9856	18172.25	17326.85
820.3129	545.1305	18244.65	17399.55
820.4572	547.2748	18147.65	17302
820.6016	549.4185	17800.95	16952.95
820.7459	551.5615	17502.75	16659
820.8902	553.704	17399.65	16553.35
821.0346	555.8458	17361.1	16517.9
821.1789	557.987	17480.5	16636.8
821.3233	560.1276	17549.15	16701.55
821.4677	562.2675	17757.65	16915.45
821.6121	564.4069	17994.9	17150.4
821.7565	566.5456	18239.3	17396.2
821.9009	568.6837	18258.85	17411.5
822.0453	570.8212	17891.7	17047.7
822.1897	572.958	17355	16507.95
822.3342	575.0942	16830	15983.05
822.4786	577.2299	16496.05	15650.85
822.6231	579.3648	16376.85	15530.45
822.7675	581.4992	16358.7	15510.45
822.912	583.6329	16523.7	15674.7
823.0565	585.766	16731.1	15886.3
823.201	587.8985	16834.55	15989.2
823.3454	590.0304	16868.75	15998.3
823.4899	592.1616	16743.35	15891.1
823.6345	594.2922	16620.5	15773.15
823.779	596.4222	16406.55	15555.65
823.9235	598.5515	16185.6	15335
824.068	600.6802	16055.55	15207.25
824.2126	602.8083	15828	14976.5
824.3571	604.9358	15776.75	14925.75
824.5017	607.0626	15737.35	14885.95
824.6462	609.1888	15767.05	14914.35
824.7908	611.3144	15781.9	14930.25
824.9354	613.4393	15769.2	14919.2
825.08	615.5636	15761.35	14906.85
825.2246	617.6873	15687.6	14836.15
825.3692	619.8103	15641.25	14788.8
825.5138	621.9327	15507.2	14650.8
825.6584	624.0544	15327.5	14473.3
825.803	626.1756	15209.3	14360
825.9477	628.2961	15105.15	14253.45
826.0923	630.4159	15060.2	14209.1
826.237	632.5351	14995.3	14140
826.3816	634.6537	14947.35	14092.4
826.5263	636.7716	14923.85	14067.35
826.6709	638.8889	14922.1	14066.1
826.8156	641.0056	14911.15	14054.3
826.9603	643.1216	14876.95	14018.2
827.105	645.237	14890.5	14033.55
827.2497	647.3518	14812.75	13955.4
827.3944	649.4659	14783.85	13928.05
827.5391	651.5793	14739.05	13883.1
827.6838	653.6922	14688.3	13831.85
827.8285	655.8043	14673.3	13815.9
827.9733	657.9159	14648.35	13787.7
828.118	660.0268	14566.95	13704.85
828.2627	662.137	14534.5	13677.9
828.4075	664.2466	14518.4	13660.45
828.5522	666.3556	14488.65	13627.7
828.697	668.4639	14415.75	13555.55
828.8418	670.5716	14460.65	13600.6
828.9865	672.6786	14453.35	13593.95
829.1313	674.785	14440.6	13579.9
829.2761	676.8907	14435.15	13575.2
829.4209	678.9958	14482.4	13624.05
829.5657	681.1002	14466	13605.05
829.7105	683.204	14417.2	13553.8
829.8553	685.3072	14367.45	13505.35
830.0001	687.4097	14312.65	13451
830.1449	689.5115	14298.05	13435.7
830.2898	691.6127	14241.6	13379.2
830.4346	693.7132	14173.5	13310.7
830.5794	695.8131	14162.4	13287.6
830.7243	697.9123	14104.25	13238.65
830.8691	700.0109	14104.4	13240.4
831.014	702.1089	14119.6	13259.9
831.1588	704.2061	14113.3	13248.95
831.3037	706.3028	14108	13243.35
831.4486	708.3987	14153.75	13291.15
831.5935	710.4941	14172.5	13308.6
831.7383	712.5887	14282.35	13419.3
831.8832	714.6827	14508.7	13638.75
832.0281	716.7761	14730.85	13866.4
832.173	718.8688	15028.5	14160.3
832.3179	720.9608	15186.65	14316.25
832.4628	723.0522	15252.4	14384.95
832.6077	725.1429	15154.5	14288.7
832.7527	727.233	15053.7	14185.45
832.8976	729.3224	14947.85	14079.55
833.0425	731.4112	14730.7	13862.55
833.1874	733.4993	14525.1	13656.95
833.3324	735.5867	14299.4	13429.2
833.4773	737.6735	14120.5	13251.15
833.6222	739.7596	13984.25	13115.45
833.7672	741.845	13869.1	12999.95
833.9122	743.9298	13772.45	12902.3
834.0571	746.014	13793.15	12924.8
834.2021	748.0974	13730.85	12862.85
834.347	750.1802	13722.4	12855.3
834.492	752.2624	13719.9	12852.3
834.637	754.3439	13783.7	12913.4
834.782	756.4247	13877	13001.65
834.9269	758.5048	14008.35	13139.9
835.0719	760.5843	14266.4	13398.45
835.2169	762.6631	14607.2	13738.25
835.3619	764.7413	15120.2	14251.55
835.5069	766.8188	15761.65	14890.9
835.6519	768.8956	16288.45	15416.45
835.7969	770.9718	16629.95	15760.65
835.9419	773.0473	16532.75	15661.1
836.0869	775.1221	16176.05	15306.35
836.232	777.1962	15821.3	14949.15
836.377	779.2697	15644	14771.95
836.522	781.3426	15657.15	14777.65
836.667	783.4147	15844.05	14973.35
836.8121	785.4862	16005.95	15138.95
836.9571	787.557	15936.7	15065.35
837.1021	789.6271	15531.65	14659.1
837.2472	791.6966	14911.3	14040.25
837.3922	793.7654	14279	13407
837.5373	795.8335	13912.8	13040.25
837.6823	797.901	13648.65	12777.95
837.8274	799.9678	13527.95	12655.2
837.9724	802.0339	13424.7	12555.55
838.1175	804.0993	13439.7	12558.9
838.2626	806.1641	13370.05	12498.25
838.4076	808.2282	13305	12433.85
838.5527	810.2916	13196.1	12320.6
838.6978	812.3544	13124.25	12253
838.8428	814.4164	13011.1	12139.35
838.9879	816.4778	13003.25	12128.15
839.133	818.5385	13026.3	12155.25
839.2781	820.5986	13126.85	12255.45
839.4232	822.658	13298.1	12424.3
839.5682	824.7166	13517.65	12648.75
839.7133	826.7747	13867.4	12994.65
839.8584	828.832	14271.1	13399.2
840.0035	830.8886	14469.2	13592.3
840.1486	832.9446	14647.95	13775.85
840.2937	834.9999	14580.95	13709.4
840.4388	837.0545	14395.25	13516.65
840.5839	839.1085	14222.3	13347.65
840.729	841.1618	14007.35	13130.15
840.8741	843.2143	13853.25	12980.35
841.0192	845.2662	13678.35	12804.7
841.1643	847.3175	13566.3	12692.6
841.3095	849.368	13433.55	12561.3
841.4546	851.4179	13318.65	12445.1
841.5997	853.467	13172.75	12298
841.7448	855.5155	13076.9	12201.3
841.8899	857.5633	12973.65	12101.25
842.0351	859.6105	12869.95	11997
842.1802	861.6569	12765.5	11889.25
842.3253	863.7027	12681.2	11805.85
842.4704	865.7478	12661.5	11785.8
842.6156	867.7922	12641.15	11767.65
842.7607	869.8359	12604.75	11729.15
842.9058	871.8789	12684.55	11808.75
843.0509	873.9212	12793.45	11881.35
843.1961	875.9629	12868.05	11990.7
843.3412	878.0039	13024.9	12149.55
843.4863	880.0441	13130.45	12255.45
843.6315	882.0837	13147.35	12270.55
843.7766	884.1226	13110.4	12232.85
843.9218	886.1609	13047.35	12171.25
844.0669	888.1984	13056.3	12180.95
844.212	890.2352	13111.1	12237.85
844.3572	892.2714	13083.95	12204.25
844.5023	894.3069	13011.5	12134.45
844.6475	896.3416	12843.25	11966.55
844.7926	898.3757	12789.4	11912.4
844.9377	900.4091	12679.95	11803.85
845.0829	902.4418	12722.15	11840.35
845.228	904.4739	12720.15	11842.15
845.3732	906.5052	12741.35	11864.15
845.5183	908.5358	12631.9	11755.8
845.6635	910.5658	12489.9	11609.2
845.8086	912.595	12303.35	11426.05
845.9538	914.6236	12070.05	11194.25
846.0989	916.6515	11978.8	11102.75
846.2441	918.6786	11927.55	11048.2
846.3892	920.7051	11951.4	11070.85
846.5344	922.7309	12024.3	11146.9
846.6795	924.756	12046.95	11169.95
846.8246	926.7804	12106.65	11225.55
846.9698	928.8041	12065.05	11184.15
847.1149	930.8272	12108.75	11229.35
847.2601	932.8495	12056.1	11176
847.4052	934.8711	12036.1	11155.1
847.5504	936.892	11918.25	11039.9
847.6955	938.9123	11807.65	10926.95
847.8407	940.9318	11761.3	10884.15
847.9858	942.9506	11676.55	10798.3
848.131	944.9688	11587.2	10708.45
848.2761	946.9862	11478.8	10599.4
848.4213	949.003	11352	10472.9
848.5664	951.019	11312.95	10435.55
848.7115	953.0344	11283.15	10403.8
848.8567	955.0491	11278.15	10397.25
849.0018	957.063	11348.85	10470.8
849.147	959.0763	11408.05	10531.4
849.2921	961.0888	11456.2	10573.5
849.4373	963.1007	11546.65	10666.95
849.5824	965.1119	11544.3	10664.85
849.7275	967.1223	11527.3	10648.15
849.8727	969.1321	11517.55	10640.5
850.0178	971.1412	11536	10657.35
850.1629	973.1495	11527.15	10646.85
850.3081	975.1572	11556.5	10645.3
850.4532	977.1641	11528.45	10651.3
850.5983	979.1704	11496.9	10616.25
850.7435	981.1759	11466.6	10582.95
850.8886	983.1808	11489.55	10609.45
851.0337	985.1849	11551.85	10659.6
851.1788	987.1884	11648.9	10766.95
851.324	989.1911	11781.4	10896.25
851.4691	991.1932	11876.75	10992.05
851.6142	993.1945	11875.75	10994.5
851.7593	995.1951	11861.55	10981
851.9045	997.1951	11806.8	10920.6
852.0496	999.1943	11725.95	10844.2
852.1947	1001.1928	11733.6	10852.3
852.3398	1003.1906	11726.65	10848
852.4849	1005.1877	11814.9	10932.1
852.63	1007.1841	11842.3	10959.85
852.7751	1009.1798	11803.5	10922.75
852.9202	1011.1748	11660.15	10780.45
853.0653	1013.1691	11472.3	10591.05
853.2104	1015.1627	11251.1	10369.2
853.3555	1017.1556	11017.8	10137.8
853.5006	1019.1477	10899.05	10016.9
853.6457	1021.1392	10783.2	9902.15
853.7908	1023.1299	10761.55	9879.6
853.9359	1025.12	10756.4	9872.75
854.081	1027.1093	10811.6	9929.95
854.2261	1029.0979	10902.2	10021.65
854.3712	1031.0859	10980.7	10098.55
854.5163	1033.0731	10991.95	10109
854.6613	1035.0596	10937.85	10055.35
854.8064	1037.0454	10782.4	9901.55
854.9515	1039.0304	10672.75	9793.15
855.0965	1041.0148	10535.85	9654
855.2416	1042.9985	10412.9	9530.05
855.3867	1044.9814	10372.55	9494.85
855.5317	1046.9636	10299.8	9417.6
855.6768	1048.9452	10262.85	9382.65
855.8219	1050.926	10288.35	9408.55
855.9669	1052.9061	10310.75	9430.5
856.112	1054.8855	10314.2	9432.8
856.257	1056.8642	10330.7	9449.9
856.4021	1058.8421	10379.2	9496.4
856.5471	1060.8194	10398.95	9516.85
856.6921	1062.7959	10442.75	9561.35
856.8372	1064.7717	10465.35	9580.65
856.9822	1066.7469	10511.65	9628.5
857.1272	1068.7213	10553.15	9669.35
857.2723	1070.695	10565.85	9684.25
857.4173	1072.6679	10529	9646.8
857.5623	1074.6402	10538.35	9655.75
857.7073	1076.6117	10501.9	9615.65
857.8523	1078.5826	10421.25	9538.5
857.9973	1080.5527	10362.5	9478.85
858.1423	1082.5221	10336.85	9455.9
858.2873	1084.4908	10400.85	9519.3
858.4323	1086.4587	10525.3	9644.35
858.5773	1088.426	10612.9	9730.25
858.7223	1090.3925	10611.15	9725.25
858.8673	1092.3584	10607.7	9725.75
859.0123	1094.3235	10531	9649.05
859.1573	1096.2879	10534.6	9652.4
859.3022	1098.2515	10560.9	9678.95
859.4472	1100.2145	10698.9	9817.85
859.5922	1102.1767	10816.2	9931.25
859.7371	1104.1382	11034.15	10152.1
859.8821	1106.099	11248.6	10363.4
860.027	1108.0591	11450.15	10567.75
860.172	1110.0185	11626.75	10741.8
860.3169	1111.9771	11682.1	10799.3
860.4619	1113.9351	11500.05	10617.4
860.6068	1115.8923	11287	10404.75
860.7517	1117.8488	11038.85	10154.45
860.8967	1119.8045	10803.15	9919.6
861.0416	1121.7596	10685.1	9802.2
861.1865	1123.7139	10592.7	9708.5
861.3314	1125.6675	10537.75	9655.75
861.4763	1127.6204	10559.1	9674.45
861.6212	1129.5726	10544.35	9661
861.7661	1131.524	10478.15	9596.7
861.911	1133.4748	10380.05	9497.5
862.0559	1135.4248	10294.3	9408.35
862.2008	1137.3741	10190.6	9308.55
862.3457	1139.3226	10103.1	9220.25
862.4905	1141.2705	10034.7	9154.9
862.6354	1143.2176	9923.7	9034.7
862.7803	1145.164	9895	9012.1
862.9251	1147.1097	9853.3	8970.45
863.07	1149.0546	9802.55	8916.6
863.2148	1150.9989	9697.15	8813.75
863.3597	1152.9424	9576.85	8692.3
863.5045	1154.8852	9435.1	8550.35
863.6493	1156.8272	9353.95	8471.4
863.7942	1158.7686	9333.55	8441.5
863.939	1160.7092	9324.5	8440.25
864.0838	1162.6491	9343.35	8458.55
864.2286	1164.5883	9423.35	8541.45
864.3734	1166.5267	9516.25	8631.05
864.5182	1168.4644	9669.3	8784.7
864.663	1170.4014	9859.55	8972.5
864.8078	1172.3377	10124.15	9241.3
864.9526	1174.2732	10369.9	9487.8
865.0974	1176.2081	10721.6	9839.45
865.2421	1178.1421	11094.75	10206.5
865.3869	1180.0755	11476.75	10592.85
865.5317	1182.0082	11702.5	10819.6
865.6764	1183.9401	11802	10916.4
865.8212	1185.8713	11691.4	10810.35
865.9659	1187.8017	11405.4	10521.3
866.1106	1189.7315	11081.45	10196.95
866.2554	1191.6605	10763.1	9848.7
866.4001	1193.5888	10463	9579.75
866.5448	1195.5163	10328.9	9446.2
866.6895	1197.4432	10206.55	9321.2
866.8342	1199.3693	10198.2	9316.15
866.9789	1201.2947	10170.3	9281.65
867.1236	1203.2193	10145.25	9260.1
867.2683	1205.1432	10132.75	9248.45
867.413	1207.0664	10120.65	9236.7
867.5576	1208.9889	10096	9211.3
867.7023	1210.9106	10122.3	9238.05
867.847	1212.8316	10124	9241.1
867.9916	1214.7519	10203.75	9313.55
868.1363	1216.6715	10203.65	9320.6
868.2809	1218.5903	10244.2	9361.65
868.4255	1220.5084	10253.15	9369.8
868.5701	1222.4257	10321.4	9437.05
868.7148	1224.3424	10335.1	9451.6
868.8594	1226.2583	10381.9	9492.2
869.004	1228.1735	10475.25	9590.5
869.1486	1230.0879	10621	9736.85
869.2932	1232.0016	10770.15	9886.9
869.4377	1233.9146	10820.4	9934.8
869.5823	1235.8269	10781.05	9897.85
869.7269	1237.7384	10669.45	9787.95
869.8715	1239.6492	10500.55	9619.3
870.016	1241.5592	10426.7	9542.1
870.1606	1243.4686	10388.6	9504.2
870.3051	1245.3772	10460.05	9579.6
870.4496	1247.285	10523.5	9639.5
870.5941	1249.1922	10587.35	9703.65
870.7387	1251.0986	10647.35	9763.8
870.8832	1253.0042	10659.75	9774.45
871.0277	1254.9092	10731.85	9848.85
871.1722	1256.8134	10819.9	9936.05
871.3167	1258.7169	10956.35	10071.85
871.4611	1260.6196	11130.6	10248.2
871.6056	1262.5216	11388.65	10502.5
871.7501	1264.4229	11525.9	10644.1
871.8945	1266.3234	11753.5	10868.5
872.039	1268.2232	11820.25	10936.65
872.1834	1270.1223	11869.65	10985.55
872.3278	1272.0207	11887.4	11002.9
872.4723	1273.9183	11846.65	10954.35
872.6167	1275.8151	11767.85	10883.15
872.7611	1277.7113	11701.05	10816
872.9055	1279.6067	11683.35	10800.75
873.0499	1281.5014	11736	10851
873.1943	1283.3953	11916.15	11030.7
873.3386	1285.2885	12163.1	11278.45
873.483	1287.181	12417.85	11533.5
873.6274	1289.0727	12707.75	11824.15
873.7717	1290.9637	12902.95	12015.25
873.9161	1292.854	13070.85	12186.1
874.0604	1294.7435	13124.7	12237
874.2047	1296.6323	13118.8	12234.15
874.349	1298.5204	13140.7	12252.55
874.4933	1300.4077	13141.85	12254.2
874.6376	1302.2943	13101.05	12217.4
874.7819	1304.1802	12986	12100.8
874.9262	1306.0653	12690.6	11804.3
875.0705	1307.9497	12318.55	11435.55
875.2147	1309.8333	12038.65	11154.45
875.359	1311.7162	11844.55	10961.05
875.5032	1313.5984	11736.45	10850.05
875.6475	1315.4798	11717.5	10820.35
875.7917	1317.3605	11729.7	10830.65
875.9359	1319.2405	11713.1	10827.45
876.0801	1321.1197	11593.2	10706.25
876.2243	1322.9982	11388.2	10499.15
876.3685	1324.876	11221.45	10336.6
876.5127	1326.753	11006.2	10122.95
876.6569	1328.6293	10898.85	10012.25
876.801	1330.5048	10834.3	9947.3
876.9452	1332.3796	10723.85	9839.5
877.0893	1334.2537	10689.75	9777.75
877.2335	1336.127	10617.75	9735.7
877.3776	1337.9996	10583.1	9696.7
877.5217	1339.8714	10607.15	9720.15
877.6658	1341.7426	10616.45	9685.25
877.8099	1343.6129	10600.2	9716.85
877.954	1345.4826	10556.95	9670.1
878.0981	1347.3515	10546.45	9659.3
878.2422	1349.2196	10519.55	9635.3
878.3862	1351.087	10542.8	9658.15
878.5303	1352.9537	10573.2	9686.3
878.6743	1354.8197	10738.2	9855.2
878.8184	1356.6849	10885.4	10000.2
878.9624	1358.5493	11024.05	10138.95
879.1064	1360.4131	11160.75	10276
879.2504	1362.276	11213.25	10328.1
879.3944	1364.1383	11167.2	10282.25
879.5384	1365.9998	10941.9	10050.85
879.6823	1367.8606	10588.3	9700.9
879.8263	1369.7206	10231.1	9346.65
879.9702	1371.5799	9931.05	9043.1
880.1142	1373.4384	9694.7	8809.45
880.2581	1375.2962	9478.35	8590.2
880.402	1377.1533	9174.1	8288.25
880.5459	1379.0096	8840.25	7955.2
880.6898	1380.8652	8516.5	7630.55
880.8337	1382.7201	8230.1	7345.4
880.9776	1384.5742	7988.4	7104.55
881.1215	1386.4275	7802.2	6915.85
881.2653	1388.2802	7652.55	6767.3
881.4092	1390.132	7542.9	6656.4
881.553	1391.9832	7471.75	6584.65
881.6968	1393.8336	7383.1	6497.1
881.8406	1395.6832	7343.5	6456
881.9844	1397.5322	7290.95	6406.45
882.1282	1399.3803	7281	6391.25
882.272	1401.2278	7258.95	6375.55
882.4158	1403.0745	7243.65	6359
882.5595	1404.9204	7234.35	6351.3
882.7033	1406.7656	7257.9	6371.55
882.847	1408.6101	7284.85	6398.95
882.9908	1410.4538	7302.8	6415.55
883.1345	1412.2968	7372.4	6485.45
883.2782	1414.139	7409.25	6521.7
883.4219	1415.9805	7515.55	6632.45
883.5656	1417.8213	7609.7	6715.3
883.7092	1419.6613	7729.25	6845.25
883.8529	1421.5006	7878.3	6991.05
883.9965	1423.3391	8111.85	7225.2
884.1402	1425.1769	8416.7	7532.1
884.2838	1427.0139	8870.3	7984.6
884.4274	1428.8502	9439.75	8553.2
884.571	1430.6858	10016.9	9131.65
884.7146	1432.5206	10422.1	9535.7
884.8582	1434.3547	10674.25	9787.3
885.0018	1436.188	10683.4	9798.55
885.1453	1438.0206	10585.65	9700.1
885.2889	1439.8524	10432.5	9546.5
885.4324	1441.6835	10299.5	9414
885.5759	1443.5139	10207.8	9319.85
885.7194	1445.3435	10122.45	9236.45
885.8629	1447.1724	10113.8	9228.65
886.0064	1449.0005	10027.65	9140.55
886.1499	1450.8279	9926.55	9040.5
886.2933	1452.6545	9926.25	9040.95
886.4368	1454.4804	9961.6	9078.4
886.5802	1456.3056	9949.4	9057.65
886.7237	1458.13	9883.4	8998.3
886.8671	1459.9536	9695.1	8808.1
887.0105	1461.7766	9393.25	8508.2
887.1539	1463.5987	9003.25	8116
887.2972	1465.4202	8642	7755.45
887.4406	1467.2409	8278.9	7394.05
887.584	1469.0608	7985.95	7102
887.7273	1470.88	7718.85	6834.5
887.8706	1472.6984	7493.6	6609.85
888.0139	1474.5161	7298.5	6410
888.1572	1476.3331	7126.2	6242.3
888.3005	1478.1493	6993.35	6106.35
888.4438	1479.9648	6917.35	6032.6
888.5871	1481.7795	6814.65	5929.4
888.7303	1483.5935	6730	5844.7
888.8736	1485.4067	6679.8	5796.3
889.0168	1487.2192	6626.75	5740.35
889.16	1489.031	6595.8	5710.4
889.3032	1490.842	6550.7	5665.5
889.4464	1492.6522	6518.05	5633.7
889.5896	1494.4618	6479.55	5591.5
889.7327	1496.2705	6438.6	5553.65
889.8759	1498.0785	6411	5523.25
890.019	1499.8858	6379.3	5491.95
890.1622	1501.6924	6340.15	5456.3
890.3053	1503.4981	6316.2	5430.7
890.4484	1505.3032	6283.6	5397.25
890.5914	1507.1075	6239.2	5351.75
890.7345	1508.911	6197.25	5312.9
890.8776	1510.7138	6147.3	5261.8
891.0206	1512.5159	6133.15	5248
891.1637	1514.3172	6095.35	5211.5
891.3067	1516.1178	6040.45	5157.65
891.4497	1517.9176	6008.45	5121.7
891.5927	1519.7166	5981.25	5094.75
891.7357	1521.515	5965.9	5075.2
891.8786	1523.3126	5932.6	5045.85
892.0216	1525.1094	5894.55	5007.9
892.1645	1526.9055	5886.9	5001.25
892.3074	1528.7008	5878.1	4994.05
892.4503	1530.4954	5832.25	4946.5
892.5932	1532.2893	5830.2	4947.75
892.7361	1534.0824	5819.55	4931.55
892.879	1535.8747	5806.95	4920.15
893.0218	1537.6663	5804.6	4919.7
893.1647	1539.4572	5780.35	4894.7
893.3075	1541.2473	5809.15	4922
893.4503	1543.0367	5780.15	4894.35
893.5931	1544.8253	5796.5	4905.8
893.7359	1546.6132	5804.7	4915.1
893.8787	1548.4003	5828.55	4935.4
894.0214	1550.1867	5859.7	4965.4
894.1642	1551.9723	5901.25	5012.55
894.3069	1553.7572	5963.35	5076.45
894.4496	1555.5414	6028.85	5141.2
894.5923	1557.3247	6151.15	5265.85
894.735	1559.1074	6264.85	5379.6
894.8777	1560.8893	6389.15	5505.25
895.0204	1562.6705	6534.6	5650.2
895.163	1564.4509	6640.15	5755.65
895.3056	1566.2305	6702.45	5818
895.4482	1568.0094	6756.35	5870.8
895.5908	1569.7876	6774.3	5887.75
895.7334	1571.565	6766.2	5882.3
895.876	1573.3417	6744.75	5859.45
896.0186	1575.1176	6718.2	5833.65
896.1611	1576.8928	6706.7	5823.2
896.3036	1578.6672	6667.8	5783.45
896.4461	1580.4409	6628.45	5746
896.5886	1582.2138	6584.8	5698.25
896.7311	1583.986	6558.45	5672.35
896.8736	1585.7575	6554.25	5671.1
897.0161	1587.5282	6573.3	5689.15
897.1585	1589.2981	6609.1	5725.7
897.3009	1591.0673	6631.95	5746.95
897.4433	1592.8358	6706.3	5822.4
897.5857	1594.6035	6765.9	5879.3
897.7281	1596.3704	6808.9	5924.75
897.8705	1598.1366	6880.35	5996.25
898.0128	1599.9021	6966.3	6081.6
898.1551	1601.6668	7032.3	6145.05
898.2975	1603.4308	7131.3	6247.65
898.4398	1605.194	7299.05	6409.3
898.5821	1606.9564	7436.5	6553.5
898.7243	1608.7182	7659.6	6769.75
898.8666	1610.4791	7903.2	7017.95
899.0088	1612.2394	8139.35	7255.4
899.1511	1613.9988	8422.85	7537.35
899.2933	1615.7576	8650.8	7765.6
899.4355	1617.5156	8893.9	8004.35
899.5776	1619.2728	9006.35	8120.9
899.7198	1621.0293	9040.7	8158.65
899.862	1622.785	8960.05	8068.45
900.0041	1624.54	8780	7892.7
900.1462	1626.2942	8534.05	7646.4
900.2883	1628.0477	8239.9	7352.85
900.4304	1629.8005	7953	7064.25
900.5725	1631.5525	7689.1	6806.3
900.7145	1633.3037	7450.05	6564.95
900.8566	1635.0542	7287.15	6404.15
900.9986	1636.804	7134.65	6250.95
901.1406	1638.553	7113.7	6168.2
901.2826	1640.3013	7032.35	6146.15
901.4245	1642.0488	6996	6112.6
901.5665	1643.7955	7026.8	6144.6
901.7085	1645.5416	7095	6209.85
901.8504	1647.2868	7201.65	6318.5
901.9923	1649.0313	7311.85	6429.1
902.1342	1650.7751	7476.25	6589.65
902.2761	1652.5181	7615.25	6732.15
902.4179	1654.2604	7807.05	6922.5
902.5598	1656.0019	8042.4	7160.25
902.7016	1657.7427	8382.7	7498.95
902.8434	1659.4828	8644.4	7760.1
902.9852	1661.222	8793.25	7910.3
903.127	1662.9606	8808.6	7923.9
903.2687	1664.6984	8538.75	7652.95
903.4105	1666.4354	8113.1	7229.9
903.5522	1668.1717	7577.5	6692.6
903.6939	1669.9072	7002.7	6121.25
903.8356	1671.642	6541.1	5655.2
903.9773	1673.3761	6154.55	5271.45
904.119	1675.1094	5861.45	4977
904.2606	1676.8419	5630.95	4747.65
904.4022	1678.5737	5448.6	4562.65
904.5439	1680.3048	5308	4422.5
904.6855	1682.0351	5189	4304.8
904.827	1683.7646	5085	4199.5
904.9686	1685.4934	5020.15	4136.45
905.1101	1687.2215	4941.15	4057.75
905.2517	1688.9488	4885.25	4000.95
905.3932	1690.6754	4813.3	3931.2
905.5347	1692.4012	4792	3908.35
905.6761	1694.1263	4750.9	3868.3
905.8176	1695.8506	4721.8	3840.7
905.9591	1697.5742	4674.6	3790.65
906.1005	1699.297	4649.85	3766.3
906.2419	1701.0191	4619.55	3734.75
906.3833	1702.7404	4580.05	3697.35
906.5246	1704.461	4559.75	3673.7
906.666	1706.1808	4512.5	3627.6
906.8073	1707.8999	4494.85	3610.1
906.9487	1709.6182	4468.95	3585.8
907.09	1711.3358	4441.85	3558.8
907.2313	1713.0527	4431	3550.1
907.3725	1714.7688	4409.35	3520.55
907.5138	1716.4841	4365.3	3481.5
907.655	1718.1987	4367.85	3478.65
907.7962	1719.9126	4345.55	3464.6
907.9374	1721.6257	4347.45	3460.85
908.0786	1723.338	4319.15	3434
908.2198	1725.0496	4285.9	3400.95
908.3609	1726.7605	4284.5	3401.4
908.502	1728.4706	4298.6	3411.15
908.6431	1730.18	4260	3374.1
908.7842	1731.8886	4254	3370.85
908.9253	1733.5964	4243.25	3355.9
909.0664	1735.3036	4208.3	3323.3
909.2074	1737.0099	4201.95	3320.05
909.3484	1738.7156	4187.3	3305.9
909.4894	1740.4204	4165.75	3277.7
909.6304	1742.1246	4149.15	3261.85
909.7714	1743.8279	4121.75	3238.35
909.9123	1745.5306	4115.1	3231.1
910.0532	1747.2325	4084	3200.5
910.1941	1748.9336	4073.4	3191.15
910.335	1750.634	4054.45	3169.65
910.4759	1752.3336	4047.05	3162.3
910.6168	1754.0325	4025.8	3143.3
910.7576	1755.7307	4001.25	3117.45
910.8984	1757.4281	4012.55	3128.75
911.0392	1759.1247	4017.4	3127.2
911.18	1760.8206	4008.45	3122.25
911.3208	1762.5158	3995.3	3110.05
911.4615	1764.2102	3966.35	3082.85
911.6022	1765.9039	3978.45	3095.95
911.7429	1767.5968	3957.35	3074.8
911.8836	1769.289	3949.4	3064.75
912.0243	1770.9804	3937.75	3054.85
912.1649	1772.6711	3932.15	3050.2
912.3056	1774.361	3916.45	3034.2
912.4462	1776.0502	3916.9	3034.5
912.5868	1777.7386	3910.55	3021.6
912.7274	1779.4263	3892.8	3010.75
912.8679	1781.1132	3888.25	3003.65
913.0084	1782.7994	3880.6	2995.1
913.149	1784.4849	3876.3	2993.3
913.2895	1786.1696	3877.9	2974.8
913.4299	1787.8535	3866.15	2982.1
913.5704	1789.5367	3851.5	2968
913.7108	1791.2192	3841.55	2958.25
913.8513	1792.9009	3834.05	2934.25
913.9917	1794.5818	3805.5	2922.3
914.132	1796.2621	3807	2923.45
914.2724	1797.9415	3806.15	2923.75
914.4128	1799.6202	3793	2909.1
914.5531	1801.2982	3788.4	2904.1
914.6934	1802.9755	3795.05	2911
914.8337	1804.6519	3778.05	2893.7
914.9739	1806.3277	3755.75	2871.75
915.1142	1808.0027	3746.45	2863.5
915.2544	1809.6769	3730.15	2845
915.3946	1811.3504	3754.4	2869.55
915.5348	1813.0231	3733.85	2849
915.675	1814.6951	3726.15	2842.4
915.8151	1816.3664	3726.65	2841.55
915.9553	1818.0369	3713.15	2831.05
916.0954	1819.7067	3711	2830.5
916.2355	1821.3757	3714.15	2830.95
916.3755	1823.044	3687	2804.95
916.5156	1824.7115	3701.3	2818
916.6556	1826.3783	3678.5	2795.85
916.7956	1828.0443	3671.2	2788.75
916.9356	1829.7096	3670.45	2786.9
917.0756	1831.3741	3668.1	2780.55
917.2155	1833.0379	3657.65	2774.55
917.3555	1834.701	3650	2764.95
917.4954	1836.3633	3638.9	2755.3
917.6353	1838.0248	3637.8	2751.15
917.7751	1839.6856	3648	2764.1
917.915	1841.3457	3632.6	2747.8
918.0548	1843.005	3626.25	2744.55
918.1946	1844.6636	3617.05	2735
918.3344	1846.3214	3611.25	2727.45
918.4742	1847.9785	3615.45	2733.15
918.6139	1849.6349	3602.05	2719.35
918.7537	1851.2904	3608.85	2717.55
918.8934	1852.9453	3589.2	2703.5
919.0331	1854.5994	3571.55	2687
919.1727	1856.2528	3589.25	2700.9
919.3124	1857.9054	3561.55	2677.9
919.452	1859.5572	3577.6	2694.95
919.5916	1861.2083	3570.7	2687.65
919.7312	1862.8587	3563	2681.2
919.8708	1864.5084	3551.6	2668.5
920.0103	1866.1572	3534.8	2653.5
920.1498	1867.8054	3528.5	2647.55
920.2893	1869.4528	3511.1	2627.6
920.4288	1871.0994	3501.55	2618.75
920.5683	1872.7453	3513.75	2629.1
920.7077	1874.3905	3515.45	2616
920.8471	1876.0349	3501.55	2619.8
920.9865	1877.6786	3477.65	2593.45
921.1259	1879.3215	3492.1	2608.8
921.2653	1880.9637	3469.15	2586
921.4046	1882.6051	3482.3	2600.6
921.5439	1884.2458	3453	2566
921.6832	1885.8858	3449.1	2566.05
921.8225	1887.525	3447.85	2564.3
921.9617	1889.1634	3440.25	2557.15
922.101	1890.8011	3423.6	2541.5
922.2402	1892.4381	3430.9	2546.4
922.3794	1894.0743	3425	2543.35
922.5185	1895.7098	3402.7	2519.7
922.6577	1897.3446	3426.95	2542.5
922.7968	1898.9786	3414.5	2527
922.9359	1900.6118	3387.75	2504.8
923.075	1902.2443	3394.2	2509.15
923.214	1903.8761	3368.5	2485.75
923.3531	1905.5071	3372.75	2489.35
923.4921	1907.1374	3356.2	2474.55
923.6311	1908.7669	3366.7	2484.8
923.77	1910.3957	3357.5	2475.8
923.909	1912.0237	3337.8	2453.9
924.0479	1913.651	3330.95	2447.25
924.1868	1915.2776	3324.25	2442.8
924.3257	1916.9034	3312.6	2428.6
924.4646	1918.5285	3307	2424.8
924.6034	1920.1528	3310.15	2428.75
924.7422	1921.7764	3295.35	2412.65
924.881	1923.3992	3307.1	2426
925.0198	1925.0213	3268.8	2386.05
925.1586	1926.6427	3239.8	2358.35
925.2973	1928.2633	3462.3	2341.55
925.436	1929.8832	3277.9	2390.7
925.5747	1931.5023	3245	2362.25
925.7134	1933.1207	3239.55	2356.55
925.852	1934.7383	3233.9	2350.8
925.9906	1936.3552	3231	2346.75
926.1292	1937.9714	3228.3	2345
926.2678	1939.5868	3219.45	2334
926.4064	1941.2015	3200.25	2316
926.5449	1942.8154	3187.3	2302.8
926.6834	1944.4286	3182.7	2299.55
926.8219	1946.041	3190.7	2283.85
926.9604	1947.6528	3156.4	2269.75
927.0988	1949.2637	3155.05	2273.3
927.2372	1950.8739	3152.15	2267.9
927.3756	1952.4834	3135.15	2250.65
927.514	1954.0921	3134.55	2249.85
927.6523	1955.7001	3130.55	2243.25
927.7907	1957.3074	3128.55	2246.25
927.929	1958.9139	3107.25	2225.1
928.0673	1960.5197	3098.8	2213.7
928.2055	1962.1247	3103.05	2219.4
928.3438	1963.729	3086.4	2204.45
928.482	1965.3325	3094.25	2186.75
928.6202	1966.9353	3073.55	2192.15
928.7584	1968.5374	3065.85	2182.25
928.8965	1970.1387	3047.05	2164.35
929.0346	1971.7393	3054.75	2170.5
929.1727	1973.3392	3030.65	2148.25
929.3108	1974.9383	3029.6	2147.45
929.4489	1976.5366	3018.4	2136.3
929.5869	1978.1342	3025.5	2140
929.7249	1979.7311	3012.85	2128.85
929.8629	1981.3273	3009.05	2126.3
930.0009	1982.9227	2999.65	2113.75
930.1388	1984.5173	2983.15	2099.75
930.2767	1986.1112	2969.3	2085.05
930.4146	1987.7044	2981.6	2097.75
930.5525	1989.2968	2958.95	2075.2
930.6904	1990.8885	2978	2091.15
930.8282	1992.4795	2959.35	2077.25
930.966	1994.0697	2960.45	2077.8
931.1038	1995.6592	2942.1	2061.1
931.2415	1997.2479	2943.75	2059.95
931.3793	1998.8359	2938.65	2054.5
931.517	2000.4232	2933.85	2050.05
931.6547	2002.0097	2934.55	2052.2
931.7923	2003.5955	2918.45	2034.55
931.93	2005.1805	2910.5	2025.65
932.0676	2006.7648	2916.65	2033.4
932.2052	2008.3484	2901.2	2018.1
932.3427	2009.9312	2910.7	2025.3
932.4803	2011.5133	2898.85	2017
932.6178	2013.0946	2884.2	2001.15
932.7553	2014.6752	2874.95	1994.85
932.8928	2016.2551	2885.85	2000.5
933.0302	2017.8342	2866.35	1985.2
933.1676	2019.4126	2873.15	1990.3
933.305	2020.9902	2860.8	1978
933.4424	2022.5672	2860.15	1975.05
933.5798	2024.1433	2855.95	1964
933.7171	2025.7188	2846.8	1964.55
933.8544	2027.2935	2833.4	1948.9
933.9917	2028.8674	2822.4	1937.75
934.129	2030.4406	2819.05	1937.35
934.2662	2032.0131	2816.4	1934.1
934.4034	2033.5849	2803.45	1913.2
934.5406	2035.1559	2803.75	1922.3
934.6778	2036.7261	2801.1	1917.35
934.8149	2038.2957	2788.95	1907.75
934.952	2039.8645	2788.05	1905.65
935.0891	2041.4325	2791.95	1905.15
935.2262	2042.9998	2782.65	1899.35
935.3632	2044.5664	2778.3	1892.8
935.5002	2046.1323	2770.75	1885.75
935.6372	2047.6974	2766	1881.65
935.7742	2049.2617	2763.4	1879.35
935.9111	2050.8254	2777.85	1857.25
936.048	2052.3883	2759.7	1875.65
936.1849	2053.9504	2748.45	1864.95
936.3218	2055.5118	2729.85	1846.3
936.4586	2057.0725	2734.55	1846.35
936.5955	2058.6325	2736.5	1852.65
936.7323	2060.1917	2722.5	1839.35
936.869	2061.7502	2723.65	1838.95
937.0058	2063.3079	2720.95	1837.1
937.1425	2064.8649	2719.75	1832.7
937.2792	2066.4212	2710.3	1826
937.4159	2067.9767	2697.95	1815.15
937.5525	2069.5315	2693.05	1810.2
937.6891	2071.0856	2678.2	1794
937.8257	2072.6389	2687.45	1801.8
937.9623	2074.1915	2670.9	1790.65
938.0989	2075.7433	2657.05	1769.85
938.2354	2077.2945	2661	1779.1
938.3719	2078.8448	2662.95	1781.15
938.5084	2080.3945	2643.8	1761.05
938.6448	2081.9434	2642.05	1759.35
938.7812	2083.4916	2640.65	1758
938.9176	2085.039	2632.7	1746.45
939.054	2086.5857	2628.45	1744.85
939.1903	2088.1317	2631.3	1748.75
939.3267	2089.677	2619.5	1735
939.463	2091.2215	2611.65	1728.95
939.5992	2092.7652	2608.95	1726.3
939.7355	2094.3083	2606	1723.3
939.8717	2095.8506	2598.55	1717.35
940.0079	2097.3921	2598.05	1715.3
940.1441	2098.933	2596.5	1714.1
940.2802	2100.4731	2599.5	1716.75
940.4163	2102.0124	2598.6	1696.8
940.5524	2103.5511	2597.8	1715.25
940.6885	2105.089	2576.1	1690.55
940.8245	2106.6261	2572.85	1691.3
940.9606	2108.1626	2574.6	1688.95
941.0965	2109.6983	2591.1	1680.2
941.2325	2111.2332	2565.35	1681.7
941.3684	2112.7675	2562.1	1677.65
941.5044	2114.301	2553.65	1668.9
941.6403	2115.8337	2552.15	1668.95
941.7761	2117.3657	2550.6	1666.5
941.912	2118.897	2539.3	1658.05
942.0478	2120.4276	2551.7	1662.6
942.1835	2121.9575	2531.5	1647.15
942.3193	2123.4866	2541.9	1645.45
942.455	2125.0149	2528.8	1643.45
942.5907	2126.5426	2519.75	1635.6
942.7264	2128.0695	2520.5	1632.3
942.8621	2129.5956	2521.55	1638.2
942.9977	2131.1211	2510.75	1622.2
943.1333	2132.6458	2494	1610
943.2689	2134.1698	2507.05	1623.7
943.4044	2135.693	2505.05	1619.5
943.54	2137.2155	2500.3	1613.15
943.6755	2138.7373	2482.85	1599.2
943.8109	2140.2584	2484.7	1603.05
943.9464	2141.7787	2478.6	1587.85
944.0818	2143.2983	2470.95	1587.4
944.2172	2144.8171	2462.65	1578.65
944.3526	2146.3353	2474.9	1589.45
944.4879	2147.8527	2454.2	1572.5
944.6232	2149.3693	2449	1563.15
944.7585	2150.8853	2447.55	1563.6
944.8938	2152.4005	2449.65	1565.1
945.029	2153.9149	2438.6	1555.3
945.1642	2155.4287	2426.9	1544.6
945.2994	2156.9417	2426.85	1544.65
945.4346	2158.454	2431.75	1544.95
945.5697	2159.9655	2427.75	1544.65
945.7048	2161.4764	2419.3	1535.4
945.8399	2162.9865	2414.25	1532.7
945.9749	2164.4958	2417.5	1532.4
946.1099	2166.0045	2399.8	1513.4
946.2449	2167.5124	2404.75	1521.2
946.3799	2169.0195	2403.5	1521.85
946.5148	2170.526	2391.4	1508.05
946.6498	2172.0317	2397.55	1514.9
946.7846	2173.5367	2398.6	1514.8
946.9195	2175.0409	2386.05	1504.3
947.0543	2176.5445	2375.65	1494.5
947.1891	2178.0473	2385.9	1505.2
947.3239	2179.5494	2376.65	1489.55
947.4587	2181.0507	2364.2	1479.9
947.5934	2182.5513	2363.85	1479.8
947.7281	2184.0512	2362.35	1478.35
947.8628	2185.5504	2359.8	1475.4
947.9974	2187.0488	2352	1469.35
948.132	2188.5465	2341	1457.25
948.2666	2190.0435	2338.35	1456.45
948.4012	2191.5397	2333.35	1451.35
948.5357	2193.0353	2335.85	1454
948.6702	2194.5301	2333.15	1446.4
948.8047	2196.0241	2318.05	1434.3
948.9392	2197.5175	2329.35	1446.2
949.0736	2199.0101	2321.15	1433.7
949.208	2200.502	2303.1	1419.95
949.3424	2201.9931	2309.8	1424.75
949.4767	2203.4835	2300.3	1414.65
949.611	2204.9733	2297	1408.05
949.7453	2206.4622	2299.65	1416.35
949.8796	2207.9505	2293.15	1407.4
950.0138	2209.438	2283.6	1402.95
950.148	2210.9248	2257.45	1373.3
950.2822	2212.4109	2272.75	1388.9
950.4164	2213.8962	2261.3	1375.45
950.5505	2215.3809	2272.7	1387.9
950.6846	2216.8648	2261.9	1378.65
950.8186	2218.3479	2259.25	1371.8
950.9527	2219.8304	2244.3	1359.05
951.0867	2221.3121	2243.95	1358.8
951.2207	2222.7931	2242.3	1361.1
951.3546	2224.2733	2236.3	1353.15
951.4886	2225.7529	2227.85	1344.9
951.6225	2227.2317	2227.15	1340.75
951.7563	2228.7098	2218.5	1335.7
951.8902	2230.1872	2210.6	1327.2
952.024	2231.6638	2221.4	1336.6
952.1578	2233.1397	2218.2	1328.85
952.2916	2234.6149	2212.25	1327.25
952.4253	2236.0894	2199.3	1314.15
952.559	2237.5632	2207.9	1314.15
952.6927	2239.0362	2191.25	1309
952.8263	2240.5085	2190.2	1306.2
952.9599	2241.9801	2184.15	1301.45
953.0935	2243.4509	2182.85	1300.25
953.2271	2244.921	2172	1287.25
953.3606	2246.3904	2172.35	1284.55
953.4941	2247.8591	2163.05	1278.85
953.6276	2249.3271	2159.15	1275.4
953.7611	2250.7943	2154.6	1269.75
953.8945	2252.2608	2145.85	1263.1
954.0279	2253.7266	2152.95	1269.35
954.1612	2255.1917	2155.7	1273.7
954.2946	2256.656	2150.05	1264.9
954.4279	2258.1197	2139.75	1257.8
954.5612	2259.5826	2132.55	1247.4
954.6944	2261.0447	2122.4	1236.15
954.8276	2262.5062	2126.35	1240.35
954.9608	2263.9669	2130.95	1246.4
955.094	2265.4269	2125.7	1241.3
955.2271	2266.8862	2126.9	1242.1
955.3602	2268.3448	2111.7	1226.8
955.4933	2269.8026	2120.85	1237.1
955.6264	2271.2598	2109.45	1226.25
955.7594	2272.7162	2116.55	1234.95
955.8924	2274.1719	2105	1220.8
956.0253	2275.6268	2093.85	1210.55
956.1583	2277.0811	2099.9	1217.05
956.2912	2278.5346	2094.3	1211.65
956.4241	2279.9874	2093.15	1209.6
956.5569	2281.4395	2093.05	1210.5
956.6897	2282.8908	2080.5	1193.55
956.8225	2284.3414	2086.85	1201.1
956.9553	2285.7914	2085.25	1202.65
957.088	2287.2406	2083.1	1199.25
957.2207	2288.689	2069.05	1184.9
957.3534	2290.1368	2071.25	1187.75
957.486	2291.5838	2070.9	1185.3
957.6186	2293.0302	2064.85	1181.4
957.7512	2294.4758	2063.7	1183.5
957.8838	2295.9206	2060	1173.9
958.0163	2297.3648	2050.25	1165.3
958.1488	2298.8082	2047.4	1163.8
958.2813	2300.251	2042.8	1159
958.4137	2301.693	2047.35	1160.95
958.5461	2303.1343	2051.4	1165.75
958.6785	2304.5748	2038.4	1155.75
958.8108	2306.0147	2038.3	1154.95
958.9432	2307.4538	2041.3	1153.6
959.0754	2308.8922	2026.3	1144.2
959.2077	2310.3299	2029.25	1143.95
959.3399	2311.7669	2019.35	1137.35
959.4721	2313.2031	2012.35	1126.95
959.6043	2314.6387	2013	1128.95
959.7365	2316.0735	2006.8	1124.75
959.8686	2317.5076	2008.45	1124.75
960.0006	2318.941	2002.15	1119.3
960.1327	2320.3737	1998.7	1112.25
960.2647	2321.8056	1992.95	1108.25
960.3967	2323.2369	2008.7	1124.45
960.5287	2324.6674	2005.35	1119.9
960.6606	2326.0972	2000.15	1115.9
960.7925	2327.5263	1982.4	1101.55
960.9244	2328.9547	1986.75	1105.6
961.0562	2330.3823	1976.8	1093.25
961.1881	2331.8092	1989.15	1104.35
961.3198	2333.2355	1973.05	1090
961.4516	2334.661	1975.8	1092.9
961.5833	2336.0858	1969.4	1080.8
961.715	2337.5098	1965.95	1082.7
961.8467	2338.9332	1963.9	1080.65
961.9783	2340.3558	1959.85	1072
962.1099	2341.7778	1968.95	1085.3
962.2415	2343.199	1953.95	1067
962.373	2344.6195	1946.9	1062.8
962.5045	2346.0393	1950.7	1068.45
962.636	2347.4583	1952.05	1067.55
962.7675	2348.8767	1942.4	1056.65
962.8989	2350.2943	1942.45	1056.65
963.0303	2351.7113	1940.25	1055.4
963.1617	2353.1275	1941.05	1057.25
963.293	2354.543	1970.6	1064.1
963.4243	2355.9578	1937.5	1054.95
963.5556	2357.3718	1931.9	1047.4
963.6868	2358.7852	1930.35	1045.5
963.818	2360.1978	1929.8	1045.95
963.9492	2361.6098	1928.9	1045.55
964.0803	2363.021	1925.65	1040.65
964.2114	2364.4315	1909.25	1026.3
964.3425	2365.8413	1923.1	1039.7
964.4736	2367.2504	1912.45	1029.7
964.6046	2368.6587	1901.85	1017.55
964.7356	2370.0664	1902.85	1020.95
964.8666	2371.4733	1903.45	1020
964.9975	2372.8795	1901.7	1019.55
965.1284	2374.285	1892.4	1008.25
965.2593	2375.6899	1889.3	1007.2
965.3901	2377.0939	1886.9	1002.4
965.5209	2378.4973	1884	1000.7
965.6517	2379.9	1880.3	996.7
965.7825	2381.3019	1879.3	996.75
965.9132	2382.7032	1875.95	993.05
966.0439	2384.1037	1859.5	975.4
966.1745	2385.5035	1864.35	981.1
966.3051	2386.9027	1862.4	979.05
966.4357	2388.3011	1864.2	977.6
966.5663	2389.6987	1861.3	979.3
966.6968	2391.0957	1850.75	969.5
966.8273	2392.492	1861.35	978.85
966.9578	2393.8876	1836.8	953.7
967.0882	2395.2824	1846.05	962.75
967.2186	2396.6765	1833.25	953.1
967.349	2398.07	1841.75	959.9
967.4793	2399.4627	1831.05	948.65
967.6097	2400.8547	1826.4	942.55
967.7399	2402.246	1834.25	947.45
967.8702	2403.6366	1821.45	938.1
968.0004	2405.0265	1822.55	941.4
968.1306	2406.4156	1833.45	946.75
968.2607	2407.8041	1811.65	924.9
968.3909	2409.1918	1813.5	928.65
968.521	2410.5789	1807.85	924.85
968.651	2411.9652	1804.55	919.25
968.781	2413.3508	1800.3	918
968.911	2414.7358	1803.6	918.85
969.041	2416.12	1800	918.2
969.1709	2417.5035	1804.7	923.15
969.3008	2418.8863	1794.4	911.8
969.4307	2420.2684	1789.7	906.65
969.5606	2421.6497	1786.2	902.5
969.6904	2423.0304	1778.7	897.2
969.8201	2424.4104	1776.05	892.3
969.9499	2425.7896	1776.7	891
970.0796	2427.1682	1778.9	895.1
970.2093	2428.546	1774.5	888.8
970.3389	2429.9232	1774.3	891.3
970.4685	2431.2996	1765.65	883.5
970.5981	2432.6753	1765.05	883.2
970.7277	2434.0503	1764.25	880.4
970.8572	2435.4246	1761.8	879.5
970.9867	2436.7982	1765.95	881.05
971.1161	2438.1711	1745.8	864.5
971.2456	2439.5433	1758.65	875.85
971.375	2440.9148	1751.7	864.1
971.5043	2442.2856	1741	857.4
971.6336	2443.6557	1747.35	862.05
971.7629	2445.025	1738.75	857.25
971.8922	2446.3937	1734.5	851.25
972.0214	2447.7617	1728.45	844.05
972.1506	2449.1289	1738.1	856.05
972.2798	2450.4955	1736.3	849
972.4089	2451.8613	1729.25	847.8
972.538	2453.2265	1727.25	843.25
972.6671	2454.5909	1727.55	844.45
972.7961	2455.9546	1718.6	836.45
972.9251	2457.3177	1723.65	840.9
973.0541	2458.68	1718.75	836.15
973.1831	2460.0416	1712.85	827.05
973.312	2461.4025	1716.35	832.5
973.4408	2462.7627	1720.6	825.85
973.5697	2464.1222	1713.75	832.45
973.6985	2465.4811	1719.1	834.35
973.8273	2466.8392	1705.85	823.15
973.956	2468.1966	1713.1	826.95
974.0847	2469.5533	1711.55	826.15
974.2134	2470.9093	1699.95	814.15
974.3421	2472.2645	1704.55	820.15
974.4707	2473.6191	1703.55	820.1
974.5993	2474.973	1702.6	818.6
974.7278	2476.3262	1705.3	821.1
974.8563	2477.6787	1700	817.35
974.9848	2479.0305	1694.3	812.05
975.1132	2480.3816	1688.2	801.95
975.2417	2481.7319	1685	801.45
975.37	2483.0816	1688.65	803.8
975.4984	2484.4306	1686	803.5
975.6267	2485.7789	1682.6	799.35
975.755	2487.1264	1680	795.8
975.8833	2488.4733	1682.55	803.25
976.0115	2489.8195	1694.4	792.2
976.1397	2491.165	1665.65	779.65
976.2678	2492.5097	1669.3	785
976.3959	2493.8538	1657.8	773.15
976.524	2495.1972	1658.1	775.1
976.6521	2496.5398	1659.15	774.9
976.7801	2497.8818	1659.95	774.6
976.9081	2499.2231	1653.3	768.35
977.036	2500.5637	1655.6	771.85
977.164	2501.9035	1639.7	754.45
977.2918	2503.2427	1659	773.35
977.4197	2504.5812	1655.7	774.6
977.5475	2505.919	1643.2	757.4
977.6753	2507.256	1645.8	762.45
977.8031	2508.5924	1628.75	744.95
977.9308	2509.9281	1640.1	752.55
978.0585	2511.2631	1624.55	743.7
978.1861	2512.5974	1635.6	751.5
978.3137	2513.9309	1634.4	749.55
978.4413	2515.2638	1652.55	741.85
978.5689	2516.596	1631.75	748.85
978.6964	2517.9275	1616.25	732.05
978.8239	2519.2583	1622.45	737.8
978.9513	2520.5884	1617.95	733.35
979.0788	2521.9178	1626.85	744.25
979.2062	2523.2465	1611.5	728.9
979.3335	2524.5745	1614.9	731.7
979.4608	2525.9018	1607.75	723.85
979.5881	2527.2284	1611.5	730.5
979.7154	2528.5543	1599.4	717.7
979.8426	2529.8796	1607.35	724.9
979.9698	2531.2041	1613.5	730.25
980.0969	2532.5279	1597.4	713.95
980.224	2533.851	1602.2	718.65
980.3511	2535.1735	1603.25	721.25
980.4781	2536.4952	1595.35	712.05
980.6052	2537.8163	1594.15	712.75
980.7321	2539.1366	1596.75	713.5
980.8591	2540.4562	1597.2	714.15
980.986	2541.7752	1597.95	713.55
981.1129	2543.0935	1589.4	707.95
981.2397	2544.411	1596.05	711.25
981.3665	2545.7279	1589.8	707.4
981.4933	2547.0441	1590.6	706.55
981.62	2548.3596	1586.7	699.8
981.7467	2549.6744	1587.05	703.35
981.8734	2550.9885	1585.75	700.85
982.0001	2552.3019	1586.95	706.3
982.1267	2553.6146	1581.95	698.8
982.2532	2554.9266	1582.65	699.4
982.3798	2556.2379	1575.5	689
982.5063	2557.5485	1577.5	694.6
982.6327	2558.8585	1580.25	689.3
982.7592	2560.1677	1578.15	690.45
982.8856	2561.4762	1568.1	682.7
983.0119	2562.7841	1574	686.9
983.1383	2564.0913	1567.7	685.65
983.2646	2565.3977	1565.8	682.5
983.3908	2566.7035	1565.55	682.4
983.517	2568.0086	1565.95	681.75
983.6432	2569.313	1567.1	684.15
983.7694	2570.6167	1561.15	674.05
983.8955	2571.9197	1564.15	682.55
984.0216	2573.222	1568.3	682.1
984.1476	2574.5236	1563.5	680.4
984.2737	2575.8246	1560.85	674.75
984.3996	2577.1248	1562.4	674.1
984.5256	2578.4244	1557.05	675.3
984.6515	2579.7232	1566.3	684.7
984.7774	2581.0214	1586.8	666.7
984.9032	2582.3189	1558.1	676.2
985.029	2583.6157	1559.15	670.3
985.1548	2584.9118	1555.45	672.55
985.2806	2586.2072	1545.7	662.65
985.4063	2587.5019	1548.45	665.9
985.5319	2588.7959	1551.1	669.4
985.6576	2590.0893	1567.45	682.45
985.7832	2591.3819	1556.65	673.95
985.9087	2592.6739	1559.5	675.5
986.0343	2593.9652	1558.55	672.85
986.1597	2595.2557	1561.5	681.1
986.2852	2596.5456	1564	679.05
986.4106	2597.8348	1552.3	669.65
986.536	2599.1234	1549.35	666.55
986.6614	2600.4112	1558.05	674.5
986.7867	2601.6983	1562.45	676.65
986.912	2602.9848	1564.45	682.75
987.0372	2604.2705	1562.2	672.25
987.1624	2605.5556	1553.1	671.45
987.2876	2606.84	1545.9	662.75
987.4128	2608.1237	1553.05	668.7
987.5379	2609.4067	1549.2	666.15
987.6629	2610.689	1555.85	662.55
987.788	2611.9707	1550.8	664.2
987.913	2613.2516	1549.1	661.3
988.0379	2614.5319	1539.5	657.7
988.1629	2615.8115	1537.05	653.4
988.2878	2617.0903	1531.4	647.6
988.4126	2618.3685	1535.4	653.1
988.5375	2619.6461	1524.3	641.5
988.6622	2620.9229	1526.95	643.75
988.787	2622.199	1520.6	635.9
988.9117	2623.4745	1524.15	640.2
989.0364	2624.7493	1522.9	640.3
989.161	2626.0234	1527.95	645.25
989.2857	2627.2968	1529.45	645.8
989.4102	2628.5695	1521.5	638.3
989.5348	2629.8415	1526.5	644.15
989.6593	2631.1128	1518.9	634.4
989.7837	2632.3835	1525.65	643.3
989.9082	2633.6535	1518.9	634.7
990.0326	2634.9228	1520.85	639.65
990.1569	2636.1914	1519.6	636.95
990.2812	2637.4593	1515.2	630.95
990.4055	2638.7265	1514.75	630.5
990.5298	2639.9931	1509.9	627.45
990.654	2641.259	1507.65	623.4
990.7782	2642.5242	1514.3	630.6
990.9023	2643.7887	1503.65	620.2
991.0264	2645.0525	1501.9	619.7
991.1505	2646.3156	1498.9	614.7
991.2745	2647.5781	1497.65	615.3
991.3985	2648.8398	1501.4	618.95
991.5225	2650.1009	1529.8	610.05
991.6464	2651.3613	1503	619.55
991.7703	2652.6211	1489.2	605.9
991.8942	2653.8801	1487.6	606.2
992.018	2655.1385	1489	603.4
992.1418	2656.3961	1488.1	605
992.2655	2657.6531	1494.1	609.4
992.3892	2658.9094	1493.95	610.4
992.5129	2660.1651	1488.85	607.45
992.6366	2661.42	1498.3	615.4
992.7602	2662.6743	1491.35	606.7
992.8837	2663.9279	1492.6	609.6
993.0073	2665.1808	1491.7	607.05
993.1307	2666.433	1498.65	613.15
993.2542	2667.6846	1503.6	620.4
993.3776	2668.9354	1498.9	611.45
993.501	2670.1856	1502.15	617.75
993.6244	2671.4351	1511	628.55
993.7477	2672.6839	1508.6	623.1
993.8709	2673.9321	1509.9	626.95
993.9942	2675.1795	1509.05	624.8
994.1174	2676.4263	1507.3	625.05
994.2405	2677.6724	1510.4	626.5
994.3637	2678.9179	1510.5	628.3
994.4868	2680.1626	1518.15	635.8
994.6098	2681.4067	1507.05	624.3
994.7328	2682.6501	1517.3	633.2
994.8558	2683.8928	1514.15	630.05
994.9788	2685.1348	1504.35	621.75
995.1017	2686.3761	1498.8	614.8
995.2245	2687.6168	1502.15	619.6
995.3474	2688.8568	1494.05	612.45
995.4702	2690.0961	1493.2	611.35
995.5929	2691.3348	1491.55	610.5
995.7156	2692.5727	1484.3	601.65
995.8383	2693.81	1483.85	601.2
995.961	2695.0466	1477.7	596.45
996.0836	2696.2826	1486.95	601.6
996.2062	2697.5178	1506.15	603.3
996.3287	2698.7524	1480.1	597.65
996.4512	2699.9863	1481.85	597
996.5737	2701.2195	1477.95	597.55
996.6961	2702.452	1485.1	597.6
996.8185	2703.6839	1491.8	608.6
996.9408	2704.9151	1493.75	612.25
997.0631	2706.1456	1497.8	614.25
997.1854	2707.3755	1506.35	623.35
997.3077	2708.6046	1520.95	636.45
997.4299	2709.8331	1517.15	633.85
997.552	2711.0609	1518.8	636.5
997.6742	2712.2881	1536.3	653.85
997.7963	2713.5145	1535.4	648.75
997.9183	2714.7403	1544.35	660.55
998.0403	2715.9654	1554.2	669.8
998.1623	2717.1899	1586.65	687.65
998.2842	2718.4136	1576.3	693.5
998.4062	2719.6367	1592.6	711.4
998.528	2720.8591	1609.5	719.9
998.6498	2722.0809	1610.4	727.6
998.7716	2723.3019	1621.75	735.85
998.8934	2724.5223	1630.15	746.8
999.0151	2725.7421	1633.55	749.05
999.1368	2726.9611	1642.95	757.65
999.2584	2728.1795	1639.15	750.45
999.38	2729.3972	1625.5	742.55
999.5016	2730.6142	1629.8	734.4
999.6231	2731.8306	1607.35	721.7
999.7446	2733.0462	1590.75	704.8
999.8661	2734.2612	1575.05	687.85
999.9875	2735.4756	1557.9	672.1
1000.1089	2736.6892	1538.7	655.6
1000.2302	2737.9022	1531.75	648.6
1000.3515	2739.1145	1507.5	623.55
1000.4728	2740.3262	1503.2	612.05
1000.594	2741.5372	1489.15	607.45
1000.7152	2742.7475	1477.05	595
1000.8363	2743.9571	1476.05	592.3
1000.9575	2745.1661	1464.25	575.4
1001.0785	2746.3744	1450.15	565.65
1001.1996	2747.582	1433.25	550.1
1001.3206	2748.7889	1434.75	548.2
1001.4415	2749.9952	1428.95	546.3
1001.5625	2751.2008	1422.9	540.3
1001.6833	2752.4057	1419.95	534.25
1001.8042	2753.61	1414.35	531.15
1001.925	2754.8136	1406.7	521.75
1002.0458	2756.0165	1411.95	529.55
1002.1665	2757.2188	1406.8	524.45
1002.2872	2758.4204	1410.8	527.9
1002.4078	2759.6213	1412.75	527.3
1002.5285	2760.8215	1415.75	527.2
1002.649	2762.0211	1401.95	517.2
1002.7696	2763.22	1407	520.05
1002.8901	2764.4182	1402.6	517.15
1003.0106	2765.6158	1402.3	518.75
1003.131	2766.8127	1399.2	514.1
1003.2514	2768.009	1400.7	517.2
1003.3717	2769.2045	1396.35	512.15
1003.492	2770.3994	1392.6	509.7
1003.6123	2771.5936	1390.6	506.25
1003.7325	2772.7872	1392.95	510.9
1003.8527	2773.9801	1386.9	504
1003.9729	2775.1723	1401.2	499.25
1004.093	2776.3639	1384.75	501.9
1004.2131	2777.5548	1373.75	488.2
1004.3331	2778.745	1381.85	498.05
1004.4531	2779.9346	1380.6	498.6
1004.5731	2781.1235	1383.5	498.3
1004.693	2782.3117	1380.35	496.75
1004.8129	2783.4992	1385.65	503.75
1004.9328	2784.6861	1396.25	514.05
1005.0526	2785.8723	1397.25	514.2
1005.1723	2787.0579	1402.65	521.3
1005.2921	2788.2428	1406.95	522.95
1005.4118	2789.427	1415.6	533.7
1005.5314	2790.6106	1422.65	537.75
1005.651	2791.7935	1426.35	541.75
1005.7706	2792.9757	1431.5	547.5
1005.8902	2794.1573	1445.25	559.95
1006.0097	2795.3382	1459.05	575.6
1006.1291	2796.5184	1468.2	586
1006.2485	2797.698	1484.6	600.25
1006.3679	2798.8769	1494.2	610.45
1006.4873	2800.0551	1513.65	630.6
1006.6066	2801.2327	1528.2	641.95
1006.7258	2802.4096	1541.3	658.6
1006.8451	2803.5859	1546.95	662.9
1006.9642	2804.7615	1580.35	696.95
1007.0834	2805.9364	1598.8	715.9
1007.2025	2807.1106	1617.25	734.15
1007.3216	2808.2842	1652.3	768.3
1007.4406	2809.4572	1667.35	784.5
1007.5596	2810.6294	1706.6	823.35
1007.6785	2811.801	1742.2	859.25
1007.7975	2812.972	1781.5	899.35
1007.9163	2814.1423	1822.1	939.75
1008.0352	2815.3119	1869.35	986.15
1008.154	2816.4808	1908.5	1024.85
1008.2727	2817.6491	1962.8	1079.15
1008.3914	2818.8167	2013.1	1130.85
1008.5101	2819.9837	2070.95	1183.7
1008.6288	2821.15	2119.3	1236.3
1008.7474	2822.3157	2168.35	1285.65
1008.8659	2823.4807	2228.5	1343.2
1008.9844	2824.645	2289.8	1406.85
1009.1029	2825.8086	2341.55	1459.1
1009.2214	2826.9716	2382.2	1499.25
1009.3398	2828.134	2438.5	1557.1
1009.4581	2829.2957	2474.25	1590.95
1009.5764	2830.4567	2500.85	1617.65
1009.6947	2831.617	2527.4	1644.65
1009.813	2832.7767	2529.35	1646.9
1009.9312	2833.9358	2544.2	1661.1
1010.0493	2835.0941	2536.85	1650.45
1010.1675	2836.2519	2529.05	1646.1
1010.2855	2837.4089	2496.75	1612.05
1010.4036	2838.5653	2483.15	1600.45
1010.5216	2839.7211	2479.1	1597.7
1010.6396	2840.8761	2482.3	1597.95
1010.7575	2842.0306	2496.35	1614.7
1010.8754	2843.1843	2515.45	1632.15
1010.9932	2844.3374	2563.2	1682.5
1011.111	2845.4899	2611.05	1727.75
1011.2288	2846.6417	2670.75	1788.85
1011.3465	2847.7928	2729.1	1846.75
1011.4642	2848.9433	2783.7	1901.35
1011.5818	2850.0931	2870.85	1988.75
1011.6995	2851.2422	2934.7	2048.5
1011.817	2852.3907	3001.55	2119.05
1011.9345	2853.5385	3057.4	2170.5
1012.052	2854.6857	3142.65	2229.7
1012.1695	2855.8323	3168.1	2285.1
1012.2869	2856.9781	3221.75	2337.8
1012.4042	2858.1233	3276.8	2395.1
1012.5216	2859.2679	3313.2	2429.55
1012.6389	2860.4118	3362.45	2479.8
1012.7561	2861.555	3421.7	2533.7
1012.8733	2862.6976	3456.55	2572.5
1012.9905	2863.8395	3497.5	2614.6
1013.1076	2864.9808	3522.55	2639.85
1013.2247	2866.1214	3539	2656.05
1013.3417	2867.2614	3556.55	2673.35
1013.4587	2868.4007	3570.25	2684.6
1013.5757	2869.5393	3575.35	2689.05
1013.6926	2870.6773	3606.45	2720.75
1013.8095	2871.8146	3632.15	2744.05
1013.9263	2872.9513	3608.6	2720.55
1014.0431	2874.0874	3608.5	2725.15
1014.1599	2875.2227	3601.4	2718.8
1014.2766	2876.3574	3580.4	2698
1014.3933	2877.4915	3555.9	2673.05
1014.51	2878.6249	3533.25	2650.25
1014.6266	2879.7577	3510.95	2625.05
1014.7431	2880.8898	3495.3	2600.7
1014.8596	2882.0212	3457.35	2574.35
1014.9761	2883.152	3446.4	2562.55
1015.0925	2884.2821	3446	2563.45
1015.2089	2885.4116	3436.7	2554.6
1015.3253	2886.5405	3431.15	2548.8
1015.4416	2887.6686	3450.25	2564.8
1015.5579	2888.7962	3435.35	2552.6
1015.6741	2889.923	3444	2561.8
1015.7903	2891.0493	3468.8	2584.85
1015.9065	2892.1748	3479.6	2596.65
1016.0226	2893.2997	3489.25	2605.75
1016.1387	2894.424	3513.55	2631.35
1016.2547	2895.5476	3520.25	2638.85
1016.3707	2896.6706	3541.95	2658.75
1016.4866	2897.7929	3560.9	2676.55
1016.6025	2898.9145	3588.8	2705.1
1016.7184	2900.0355	3619.55	2734.6
1016.8342	2901.1559	3649.3	2766.2
1016.95	2902.2756	3687.6	2804.85
1017.0658	2903.3946	3716.9	2834.05
1017.1815	2904.513	3738.8	2852.35
1017.2971	2905.6308	3766.45	2882.85
1017.4127	2906.7479	3785.8	2901.7
1017.5283	2907.8643	3813.15	2929.75
1017.6439	2908.9801	3831.3	2946.8
1017.7594	2910.0953	3827.55	2942.75
1017.8748	2911.2098	3826.25	2940.7
1017.9902	2912.3236	3834.55	2944.4
1018.1056	2913.4368	3823.3	2937.35
1018.2209	2914.5494	3809.45	2925.35
1018.3362	2915.6613	3775.7	2886.75
1018.4515	2916.7725	3743.4	2858.5
1018.5667	2917.8831	3708.5	2823.15
1018.6819	2918.9931	3673.7	2787.25
1018.797	2920.1024	3643.25	2758.25
1018.9121	2921.211	3620.35	2737.5
1019.0271	2922.319	3610.45	2726.25
1019.1421	2923.4264	3596.9	2713.25
1019.2571	2924.5331	3592.4	2709.6
1019.372	2925.6391	3584.2	2701.2
1019.4869	2926.7445	3584.25	2703.15
1019.6017	2927.8493	3565.5	2680.8
1019.7165	2928.9534	3567.45	2683.85
1019.8313	2930.0569	3579.65	2692.5
1019.946	2931.1597	3571.8	2688.55
1020.0606	2932.2619	3571.2	2687.2
1020.1753	2933.3634	3579.3	2693.15
1020.2899	2934.4643	3585.65	2694.6
1020.4044	2935.5645	3571.55	2683.5
1020.5189	2936.6641	3547.25	2658.9
1020.6334	2937.763	3500.1	2620
1020.7478	2938.8613	3458.15	2573.9
1020.8622	2939.959	3412.65	2524.8
1020.9765	2941.056	3337.55	2456.35
1021.0908	2942.1523	3273.3	2389.4
1021.2051	2943.248	3186.7	2303.25
1021.3193	2944.3431	3108.25	2225.4
1021.4334	2945.4375	2998.25	2113.75
1021.5476	2946.5313	2906.4	2025.35
1021.6617	2947.6244	2792.35	1907.6
1021.7757	2948.7169	2686.05	1804.15
1021.8897	2949.8087	2613.6	1729.55
1022.0037	2950.8999	2508.95	1624.75
1022.1176	2951.9904	2428.05	1545.15
1022.2315	2953.0803	2367.1	1482.5
1022.3453	2954.1696	2298.8	1416.2
1022.4591	2955.2582	2250.85	1367.8
1022.5728	2956.3462	2202.3	1319.9
1022.6865	2957.4335	2155.1	1271.7
1022.8002	2958.5202	2124.85	1240.05
1022.9138	2959.6062	2090.15	1206.65
1023.0274	2960.6916	2078.15	1195.05
1023.141	2961.7764	2051.05	1166
1023.2545	2962.8605	2038.45	1155.7
1023.3679	2963.9439	2017.65	1137.6
1023.4813	2965.0267	2017.05	1131.7
1023.5947	2966.1089	2025.65	1119.85
1023.708	2967.1905	1992	1108.9
1023.8213	2968.2714	2002.05	1120.7
1023.9346	2969.3516	1998.35	1114.55
1024.0478	2970.4312	2001.65	1112.1
1024.1609	2971.5102	2002.35	1120.5
1024.274	2972.5885	1988.45	1106
1024.3871	2973.6662	2017.85	1129.45
1024.5002	2974.7432	2004.15	1121.9
1024.6132	2975.8196	1998.85	1115.6
1024.7261	2976.8954	1994.8	1112.65
1024.839	2977.9705	1981.3	1097.2
1024.9519	2979.045	1971.05	1088.8
1025.0647	2980.1188	1945.85	1063.4
1025.1775	2981.192	1928.75	1048
1025.2902	2982.2645	1911.4	1028.45
1025.4029	2983.3364	1897.9	1014.25
1025.5156	2984.4077	1870.7	988.1
1025.6282	2985.4783	1839	949.15
1025.7407	2986.5483	1803.35	922.65
1025.8532	2987.6177	1785.15	901.4
1025.9657	2988.6864	1739.05	856.7
1026.0782	2989.7545	1709.45	825.7
1026.1906	2990.8219	1674.55	793.7
1026.3029	2991.8887	1644.85	760.15
1026.4152	2992.9548	1610.8	727.95
1026.5275	2994.0204	1575.2	694.6
1026.6397	2995.0852	1556.75	675.55
1026.7519	2996.1495	1530.25	645.05
1026.864	2997.2131	1500.7	617.6
1026.9761	2998.276	1478.25	594.7
1027.0882	2999.3383	1452.35	567.85
1027.2002	3000.4	1437.6	552.9
1027.3122	3001.4611	1421.55	539.9
1027.4241	3002.5215	1409.25	527.9
1027.536	3003.5812	1385.9	503.55
1027.6478	3004.6404	1370.8	487.9
1027.7596	3005.6989	1370.7	486.6
1027.8714	3006.7567	1358.8	475.5
1027.9831	3007.8139	1373.9	464.2
1028.0947	3008.8705	1335.5	452.7
1028.2064	3009.9264	1348.25	448.15
1028.3179	3010.9818	1326.25	442.5
1028.4295	3012.0364	1315.9	432.8
1028.541	3013.0905	1315.6	434.75
1028.6524	3014.1439	1314.5	431.75
1028.7638	3015.1966	1302.9	420.7
1028.8752	3016.2487	1307.25	424.75
1028.9865	3017.3002	1298.45	411.25
1029.0978	3018.3511	1298.2	415
1029.209	3019.4013	1295.75	413
1029.3202	3020.4509	1291	408.15
1029.4314	3021.4998	1293.6	409.7
1029.5425	3022.5481	1288.4	405.95
1029.6535	3023.5958	1291.45	408.6
1029.7645	3024.6428	1290.9	409.4
1029.8755	3025.6892	1292.05	410.8
1029.9864	3026.735	1290.45	406.65
1030.0973	3027.7802	1295.15	413.05
1030.2082	3028.8247	1297.25	414.1
1030.319	3029.8685	1298.8	415.65
1030.4297	3030.9118	1295.6	410.8
1030.5404	3031.9544	1304.7	421.85
1030.6511	3032.9963	1305.05	422.4
1030.7617	3034.0376	1307.3	424.3
1030.8723	3035.0783	1316.75	431.55
1030.9829	3036.1184	1312.1	428.2
1031.0934	3037.1578	1317.35	436.15
1031.2038	3038.1966	1315.7	429.9
1031.3142	3039.2348	1316.5	434.2
1031.4246	3040.2723	1327.9	437.55
1031.5349	3041.3092	1315.8	434.55
1031.6452	3042.3455	1325.65	442.95
1031.7554	3043.3811	1311.6	427.25
1031.8656	3044.4161	1312.65	429.75
1031.9758	3045.4505	1315.05	433.45
1032.0859	3046.4842	1310.8	426.25
1032.1959	3047.5173	1300.3	419.5
1032.3059	3048.5498	1300.3	416.65
1032.4159	3049.5816	1296.95	414.6
1032.5258	3050.6128	1293.1	409.65
1032.6357	3051.6434	1292.8	408.55
1032.7455	3052.6734	1280.1	397.1
1032.8553	3053.7027	1274.05	389.3
1032.9651	3054.7314	1273.1	392.45
1033.0748	3055.7594	1273.4	391.15
1033.1845	3056.7868	1267.95	384.5
1033.2941	3057.8136	1255.3	373.1
1033.4037	3058.8398	1255.2	372.35
1033.5132	3059.8653	1252.65	370.4
1033.6227	3060.8902	1247.85	365.8
1033.7321	3061.9145	1254.8	372.05
1033.8415	3062.9381	1241.75	359.75
1033.9509	3063.9612	1258.9	360.2
1034.0602	3064.9835	1238.9	355.6
1034.1694	3066.0053	1238.15	351.05
1034.2787	3067.0264	1232.15	349.7
1034.3878	3068.0469	1224.8	342.15
1034.497	3069.0668	1223.2	338.75
1034.6061	3070.086	1212.65	333.75
1034.7151	3071.1046	1206.25	320.55
1034.8241	3072.1226	1200.1	315.2
1034.9331	3073.1399	1191.9	309
1035.042	3074.1567	1182.9	299.25
1035.1508	3075.1727	1175.45	290.4
1035.2597	3076.1882	1164.15	281
1035.3684	3077.203	1163.3	281
1035.4772	3078.2173	1154.45	270.25
1035.5859	3079.2308	1146	262.7
1035.6945	3080.2438	1139.35	253.55
1035.8031	3081.2561	1126.7	243.9
1035.9117	3082.2678	1124.35	240.55
1036.0202	3083.2789	1115.85	233.4
1036.1286	3084.2893	1114.95	231.15
1036.2371	3085.2991	1107.15	223.45
1036.3454	3086.3083	1101.7	214.15
1036.4538	3087.3169	1102.6	220.1
1036.562	3088.3248	1094.65	210.4
1036.6703	3089.3321	1088.95	204.45
1036.7785	3090.3388	1084.1	200.7
1036.8866	3091.3449	1083.25	200.25
1036.9948	3092.3503	1080.25	193.5
1037.1028	3093.3551	1073.1	193.45
1037.2108	3094.3593	1073.1	192.3
1037.3188	3095.3629	1066.35	184.85
1037.4267	3096.3658	1066.95	182.85
1037.5346	3097.3681	1064.5	181.45
1037.6425	3098.3698	1059.2	174.2
1037.7503	3099.3708	1066.85	179
1037.858	3100.3713	1053.15	170.3
1037.9657	3101.3711	1051.1	167.15
1038.0734	3102.3702	1189.65	164.6
1038.181	3103.3688	1051.9	166.4
1038.2886	3104.3667	1047.2	165.45
1038.3961	3105.364	1045.9	164.35
1038.5036	3106.3607	1045.8	161.05
1038.611	3107.3568	1043	159.9
1038.7184	3108.3522	1034	153.35
1038.8257	3109.347	1035.6	151.6
1038.933	3110.3412	1040	154.05
1039.0403	3111.3348	1036.05	151.95
1039.1475	3112.3277	1034.1	152.35
1039.2547	3113.32	1026.55	144.9
1039.3618	3114.3117	1027	144.2
1039.4689	3115.3028	1026.05	143.05
1039.5759	3116.2932	1026.75	142.1
1039.6829	3117.2831	1029.45	140.5
1039.7898	3118.2723	1021.35	139
1039.8967	3119.2608	1021	140.5
1040.0035	3120.2488	1019.65	135.55
1040.1103	3121.2361	1018.45	136
1040.2171	3122.2229	1014.6	131.95
1040.3238	3123.209	1017.3	133.95
1040.4305	3124.1944	1020	138.7
1040.5371	3125.1793	1013.25	128.8
1040.6437	3126.1635	1012.55	129.9
1040.7502	3127.1471	1010.05	127.6
1040.8567	3128.1301	1009.65	127.8
1040.9631	3129.1125	1008.5	125.7
1041.0695	3130.0942	1006.8	125.05
1041.1759	3131.0753	1016.45	126.55
1041.2822	3132.0558	1011.65	126.05
1041.3884	3133.0357	1005.8	123.6
1041.4946	3134.015	1001.45	118.75
1041.6008	3134.9936	1006.9	123.9
1041.7069	3135.9716	1017.5	112.05
1041.813	3136.949	1000.85	118.85
1041.919	3137.9258	1016.3	115.1
1042.025	3138.902	1003.2	117.65
1042.1309	3139.8775	998.3	116.9
1042.2368	3140.8524	996.1	111.5
1042.3427	3141.8267	995.05	110.55
1042.4485	3142.8004	991.2	107.5
1042.5542	3143.7735	998	109
1042.6599	3144.7459	996.15	111.35
1042.7656	3145.7178	989.7	107.8
1042.8712	3146.689	987.5	106.25
1042.9768	3147.6596	991.25	107.05
1043.0823	3148.6295	990.1	107.7
1043.1878	3149.5989	988.95	107.5
1043.2932	3150.5676	985.35	103.5
1043.3986	3151.5357	984.7	105.15
1043.5039	3152.5032	983.75	101.6
1043.6092	3153.4701	983.85	101.4
1043.7145	3154.4364	985.5	99.95
1043.8197	3155.402	979.15	97.95
1043.9248	3156.367	986.3	100.65
1044.03	3157.3315	1012.8	98.2
1044.135	3158.2952	979.65	95.55
1044.24	3159.2584	980.6	98
1044.345	3160.221	980.95	96.75
1044.4499	3161.1829	980.65	99.5
1044.5548	3162.1442	977	94.2
1044.6596	3163.105	978.6	96.85
1044.7644	3164.065	977.7	94.55
1044.8692	3165.0245	976.85	91.6
1044.9739	3165.9834	973.8	92.9
1045.0785	3166.9416	976.15	93.05
1045.1831	3167.8993	977.7	94.1
1045.2877	3168.8563	976.8	93.9
1045.3922	3169.8127	973.9	93.45
1045.4966	3170.7684	971.15	89.05
1045.6011	3171.7236	971.55	87.7
1045.7054	3172.6782	970.6	87.55
1045.8098	3173.6321	970.65	86.8
1045.914	3174.5854	973.35	86.95
1046.0183	3175.5381	971.4	89.65
1046.1224	3176.4902	969.15	88.15
1046.2266	3177.4417	968.7	85.55
1046.3307	3178.3926	962.35	80
1046.4347	3179.3428	965.2	84.95
1046.5387	3180.2924	966.15	83.45
1046.6427	3181.2415	965.15	81.1
1046.7466	3182.1899	967.1	83.65
1046.8504	3183.1377	967.95	85.3
1046.9542	3184.0848	969.55	85.75
1047.058	3185.0314	964.8	79.8
1047.1617	3185.9773	964.6	81.65
1047.2654	3186.9227	966.1	82.3
1047.369	3187.8674	964.2	82
1047.4726	3188.8115	967.6	80.55
1047.5761	3189.755	963.8	81.2
1047.6796	3190.6979	963	79.7
1047.783	3191.6402	959.85	77.6
1047.8864	3192.5818	960.9	79.1
1047.9898	3193.5229	982.65	82.05
1048.0931	3194.4633	962.1	82.3
1048.1963	3195.4031	959	76.65
1048.2995	3196.3423	962.75	78.25
1048.4027	3197.2809	956.8	73.45
1048.5058	3198.2189	959	76.5
1048.6089	3199.1563	976.65	74.7
1048.7119	3200.0931	955.7	71.95
1048.8148	3201.0292	954.25	74
1048.9178	3201.9648	956.25	71.95
1049.0206	3202.8997	956.95	72.15
1049.1235	3203.834	953.8	69.7
1049.2262	3204.7677	954.05	72
1049.329	3205.7008	954.75	70.6
1049.4317	3206.6333	954.25	71.6
1049.5343	3207.5652	953.95	69.45
1049.6369	3208.4964	956.75	73.25
1049.7394	3209.4271	951.75	69.45
1049.8419	3210.3571	950.45	67.8
1049.9444	3211.2865	951.7	68.85
1050.0468	3212.2154	952.35	70.95
1050.1491	3213.1436	952.8	68.2
1050.2514	3214.0712	959.95	70.95
1050.3537	3214.9982	949.85	67.5
1050.4559	3215.9246	951.05	68.55
1050.5581	3216.8503	947.35	67.45
1050.6602	3217.7755	951.05	70.65
1050.7623	3218.7001	947.55	64.5
1050.8643	3219.624	947.3	64.05
1050.9663	3220.5473	946.9	63.15
1051.0682	3221.4701	951.75	67.95
1051.1701	3222.3922	949.8	64.75
1051.2719	3223.3137	946.7	63.55
1051.3737	3224.2346	949.45	68.35
1051.4754	3225.1549	947.95	66.95
1051.5771	3226.0746	946.35	64.7
1051.6788	3226.9937	946	62.1
1051.7804	3227.9121	947.25	63.55
1051.8819	3228.83	945.15	63.8
1051.9834	3229.7473	946.1	63.05
1052.0849	3230.6639	946.2	64.65
1052.1863	3231.5799	944.55	64.15
1052.2876	3232.4954	946.45	62.3
1052.3889	3233.4102	942.85	62.95
1052.4902	3234.3244	941.6	57.7
1052.5914	3235.238	943.8	62.45
1052.6926	3236.151	965.2	58.55
1052.7937	3237.0634	940.4	58.95
1052.8948	3237.9752	942.75	60.8
1052.9958	3238.8864	941.15	59.75
1053.0968	3239.797	940.35	57.25
1053.1977	3240.7069	940.7	56.55
1053.2986	3241.6163	937.65	54.05
1053.3994	3242.5251	942.35	60.1
1053.5002	3243.4332	938.4	56.7
1053.6009	3244.3408	939.25	55.95
1053.7016	3245.2477	939.3	57.85
1053.8022	3246.154	938.45	54.45
1053.9028	3247.0598	940.15	58.2
1054.0034	3247.9649	934	50.9
1054.1039	3248.8694	939.8	57.25
1054.2043	3249.7733	935.2	53
1054.3047	3250.6766	936.05	53.4
1054.4051	3251.5793	936.3	50.85
1054.5054	3252.4814	934.65	52.45
1054.6056	3253.3829	932.6	49.45
1054.7058	3254.2838	932.25	50.2
1054.806	3255.1841	934.8	53.5
1054.9061	3256.0838	935.35	51
1055.0061	3256.9829	933.45	53
1055.1062	3257.8814	934.55	47.95
1055.2061	3258.7792	937.25	53.75
1055.306	3259.6765	931.85	48.1
1055.4059	3260.5731	928.8	46
1055.5057	3261.4692	927.45	43.45
1055.6055	3262.3647	929	43.95
1055.7052	3263.2595	929.6	48.85
1055.8049	3264.1538	929.6	48.15
1055.9045	3265.0474	925.2	43
1056.0041	3265.9404	926.1	45.1
1056.1036	3266.8329	924.65	44.35
1056.2031	3267.7247	935.2	43.55
1056.3025	3268.616	922.15	42.3
1056.4019	3269.5066	925.4	39.45
1056.5013	3270.3966	922.35	39.5
1056.6005	3271.286	918.9	37.4
