Software Version:	3.9.2.0
Unit SN:	10000200
Spectrometer SN:	6960
Date:	3/14/2024 2:11:45 PM
Data Line Index:	25
Spectral Points:	2048
Integration time (ms):	125
Averages:	20
Delay (ms):	30000
Sequence Number:	1
Processing:	dark subtract
Laser Power (mW):	300
Laser Current (mA):	824
Laser Diode Temp (C):	25.1
Laser Case Temp (C):	29.1
System Temp (C):	29
Spectrometer Temp (C):	26.9
CCD Temp (C):	0.009
Secondary Temp (C):	20.01
Heatsink Temp (C):	24.838
CCDPCB Temp (C):	38.085
SecondaryPCB Temp (C):	36.051

Wavelength	RamanShift	Raw Counts	Dark Subtracted
787.061	30.1047	448.25	39.3
787.2016	32.3739	446.45	38.65
787.3422	34.6426	455.1	47.25
787.4828	36.9109	455.3	44
787.6235	39.1787	461.7	48.65
787.7642	41.4461	475.25	55.9
787.9049	43.7131	482.75	59.15
788.0456	45.9796	490.95	64.15
788.1863	48.2456	499.55	68.6
788.3271	50.5112	509.65	72.95
788.4679	52.7764	515.35	76.7
788.6087	55.0411	522.25	80.45
788.7496	57.3054	533.35	86.25
788.8904	59.5692	543.5	93.1
789.0313	61.8326	554.3	101.15
789.1722	64.0955	570.2	112.6
789.3132	66.3579	581.95	120.05
789.4541	68.6199	593.75	128.3
789.5951	70.8815	623.2	155.8
789.7361	73.1426	683.25	212.55
789.8771	75.4032	839.3	362
790.0181	77.6634	1228.4	745.05
790.1592	79.9231	2139.1	1652.1
790.3003	82.1824	4136.45	3639.6
790.4414	84.4412	7824.25	7309.15
790.5825	86.6995	13048.2	12510.05
790.7237	88.9574	18293.7	17737.2
790.8648	91.2148	22146.4	21575.85
791.006	93.4717	24017.85	23437.45
791.1472	95.7282	24519.25	23931.15
791.2885	97.9842	24535.55	23944.65
791.4297	100.2398	24137.25	23544.75
791.571	102.4949	23696.85	23100.9
791.7123	104.7495	23077.2	22479.3
791.8536	107.0036	22377.55	21774.95
791.9949	109.2573	21727.1	21130.75
792.1363	111.5105	21004.75	20403.5
792.2777	113.7632	20322.95	19721.75
792.4191	116.0154	19744.75	19131.5
792.5605	118.2672	19308.2	18700.95
792.7019	120.5185	18809.75	18202.2
792.8434	122.7693	18484.1	17875.35
792.9849	125.0197	18199.9	17592.25
793.1264	127.2696	17932.4	17317.8
793.2679	129.519	17817.15	17199.75
793.4094	131.7679	17643.45	17023.1
793.551	134.0163	17577.6	16951.1
793.6926	136.2642	17431.55	16804.5
793.8342	138.5117	17304.25	16664.3
793.9758	140.7587	17123.5	16491.8
794.1175	143.0052	16991.55	16358.15
794.2591	145.2512	16842.2	16205.65
794.4008	147.4967	16676.3	16043.45
794.5425	149.7417	16534.85	15895.8
794.6842	151.9863	16437.45	15796.5
794.826	154.2304	16376.65	15735.3
794.9677	156.4739	16254.55	15602.7
795.1095	158.717	16186.95	15539.7
795.2513	160.9596	16054.35	15401.45
795.3931	163.2017	15818.45	15163.85
795.535	165.4433	15600.25	14942.65
795.6768	167.6844	15285.85	14627.45
795.8187	169.925	14994.25	14333.85
795.9606	172.1651	14641.2	13975.1
796.1025	174.4047	14358.05	13687.3
796.2445	176.6439	14126.1	13457.25
796.3864	178.8825	13878.7	13203.65
796.5284	181.1206	13737.45	13063.1
796.6704	183.3582	13584.9	12904.35
796.8124	185.5954	13464.6	12782.5
796.9544	187.832	13388.9	12700.3
797.0965	190.0681	13357.55	12668.4
797.2386	192.3037	13325.5	12635.8
797.3806	194.5388	13310.6	12617.55
797.5228	196.7734	13329	12634.4
797.6649	199.0075	13360.65	12660.35
797.807	201.2411	13479.35	12777.8
797.9492	203.4742	13503.25	12799.2
798.0914	205.7068	13618.1	12917.65
798.2336	207.9389	13682.9	12977.8
798.3758	210.1704	13822.95	13117.75
798.518	212.4015	13924.3	13215.55
798.6603	214.632	14056.25	13343.1
798.8025	216.862	14221.85	13520.4
798.9448	219.0915	14343.35	13649.9
799.0871	221.3205	14566.15	13875
799.2294	223.549	14844.65	14158.65
799.3718	225.777	15114.65	14426.2
799.5141	228.0044	15521.5	14832.5
799.6565	230.2314	16016.95	15325.8
799.7989	232.4578	16447.55	15757.95
799.9413	234.6837	16835.45	16141.6
800.0837	236.909	17035.5	16338.5
800.2262	239.1339	16972.35	16252.4
800.3687	241.3582	16684.6	15978.85
800.5111	243.582	16337.3	15604.7
800.6536	245.8053	15921.35	15196.6
800.7961	248.0281	15531.65	14812.3
800.9387	250.2503	15251.6	14528.65
801.0812	252.472	15055.55	14324.5
801.2238	254.6932	14959.15	14224.3
801.3664	256.9139	14828.7	14092.85
801.509	259.134	14765.5	14024.85
801.6516	261.3536	14665.9	13932.9
801.7942	263.5727	14591.55	13853.45
801.9369	265.7912	14478.1	13744.6
802.0795	268.0092	14405.55	13667.55
802.2222	270.2267	14308.25	13569.5
802.3649	272.4436	14227.2	13489.75
802.5076	274.6601	14162.25	13414.05
802.6504	276.8759	14113.6	13373.5
802.7931	279.0913	14148.95	13406.5
802.9359	281.3061	14137.2	13390.55
803.0787	283.5204	14236.25	13489.8
803.2215	285.7341	14348.6	13600.05
803.3643	287.9473	14532.45	13768.65
803.5071	290.16	14783.6	14027.6
803.6499	292.3721	15053.85	14300.3
803.7928	294.5837	15497.8	14746.55
803.9357	296.7947	15817.95	15068.1
804.0786	299.0052	15991.65	15237.45
804.2215	301.2152	15808.7	15051.45
804.3644	303.4246	15426.4	14675.55
804.5074	305.6334	14911.55	14160
804.6503	307.8418	14424.55	13670.6
804.7933	310.0495	14064.4	13309.7
804.9363	312.2568	13807.65	13051.55
805.0793	314.4635	13633.5	12875.35
805.2223	316.6696	13567.45	12809.3
805.3653	318.8752	13545.85	12779.85
805.5084	321.0802	13629.75	12867.65
805.6514	323.2847	13750.45	12991.4
805.7945	325.4887	13767.15	13007.15
805.9376	327.692	13728.1	12965.75
806.0807	329.8949	13613.35	12847.7
806.2238	332.0972	13351.8	12585.75
806.367	334.2989	13102.25	12334.5
806.5101	336.5001	12842.95	12075.6
806.6533	338.7007	12671.65	11903.6
806.7965	340.9008	12549.65	11779.3
806.9397	343.1003	12409.15	11633.15
807.0829	345.2992	12385.4	11612.65
807.2261	347.4976	12357.55	11583.65
807.3693	349.6955	12361.45	11583.25
807.5126	351.8927	12402.1	11625.9
807.6559	354.0895	12402.2	11611.8
807.7991	356.2856	12439.6	11660.1
807.9424	358.4812	12409.05	11631.05
808.0857	360.6763	12404.85	11622.15
808.2291	362.8707	12389.95	11610
808.3724	365.0646	12416.2	11634.3
808.5158	367.258	12390.35	11606.55
808.6591	369.4508	12380.75	11588.55
808.8025	371.643	12424.75	11632.55
808.9459	373.8346	12380.45	11588.4
809.0893	376.0257	12325.25	11529.65
809.2327	378.2162	12271.2	11477.7
809.3762	380.4062	12156	11357.45
809.5196	382.5956	12007.25	11206.1
809.6631	384.7844	11928.45	11129.05
809.8066	386.9726	11845.55	11044.5
809.9501	389.1603	11751.9	10950.55
810.0936	391.3474	11754.35	10913.05
810.2371	393.5339	11675.75	10876.2
810.3806	395.7199	11652.55	10857.85
810.5241	397.9052	11636.1	10843.95
810.6677	400.09	11654.8	10865
810.8113	402.2743	11671.25	10883.5
810.9548	404.4579	11697.15	10908.6
811.0984	406.641	11843.2	11057.2
811.2421	408.8235	12044.75	11256.35
811.3857	411.0054	12353.15	11564.6
811.5293	413.1868	12792.8	12000
811.673	415.3675	13137.25	12342.85
811.8166	417.5477	13331.25	12537.4
811.9603	419.7273	13343.2	12544.5
812.104	421.9064	13247.65	12441.75
812.2477	424.0848	13118.4	12314.25
812.3914	426.2627	12848.15	12040.9
812.5351	428.4399	12582.95	11777.5
812.6788	430.6166	12254.15	11441.7
812.8226	432.7928	11937.5	11126.45
812.9663	434.9683	11643.9	10836.45
813.1101	437.1432	11429.8	10616.85
813.2539	439.3176	11306.5	10490.95
813.3977	441.4914	11189.45	10376
813.5415	443.6645	11201.8	10384.35
813.6853	445.8371	11105.2	10289.3
813.8291	448.0091	11021.5	10205.55
813.973	450.1806	10980.05	10166.35
814.1168	452.3514	10932.45	10116.95
814.2607	454.5216	10921.4	10097.9
814.4046	456.6913	10848.35	10027.8
814.5485	458.8603	10849.6	10033.05
814.6924	461.0288	10910.65	10092.45
814.8363	463.1967	10940.9	10124
814.9802	465.3639	11058.9	10239.1
815.1241	467.5306	11190.65	10369.65
815.2681	469.6967	11347.9	10529.45
815.412	471.8622	11476.85	10658.05
815.556	474.0271	11614.05	10795.5
815.7	476.1914	11678.65	10853.85
815.844	478.3551	11640.15	10817.35
815.988	480.5182	11562.85	10739.15
816.132	482.6807	11520.15	10698.15
816.276	484.8426	11562.05	10741.65
816.4201	487.0039	11782.2	10959.7
816.5641	489.1647	12142.1	11319.3
816.7082	491.3248	12524.8	11699.55
816.8522	493.4843	12671.6	11849.7
816.9963	495.6432	12692.8	11869
817.1404	497.8015	12629.1	11803.55
817.2845	499.9592	12645.25	11822.55
817.4286	502.1163	12644.9	11819.7
817.5727	504.2728	12454.05	11624.95
817.7168	506.4287	12164.95	11338.65
817.861	508.5839	11785.1	10958.05
818.0051	510.7386	11457.1	10630.1
818.1493	512.8927	11243.55	10407.05
818.2935	515.0461	11077.7	10247.55
818.4377	517.199	10998.2	10168.4
818.5818	519.3512	10938.8	10108.35
818.726	521.5029	10933.45	10097.2
818.8703	523.6539	10906.5	10074.15
819.0145	525.8043	10916.05	10085.6
819.1587	527.9541	10964.9	10131.1
819.303	530.1033	11002.8	10170.8
819.4472	532.2519	11055.55	10221.55
819.5915	534.3999	11187.4	10352.8
819.7357	536.5472	11504.7	10668.75
819.88	538.694	11973.1	11140.5
820.0243	540.8401	12519.5	11682.55
820.1686	542.9856	13010.45	12172.65
820.3129	545.1305	13165	12328.45
820.4572	547.2748	13008	12171.75
820.6016	549.4185	12614.1	11777.25
820.7459	551.5615	12251.7	11417.05
820.8902	553.704	12090.55	11252.15
821.0346	555.8458	11961.05	11128.4
821.1789	557.987	11883.25	11045.75
821.3233	560.1276	11793.4	10955.7
821.4677	562.2675	11690.5	10853.8
821.6121	564.4069	11566.6	10729.1
821.7565	566.5456	11443.25	10608.25
821.9009	568.6837	11298.5	10460.15
822.0453	570.8212	11113.8	10275.85
822.1897	572.958	10903.9	10064.4
822.3342	575.0942	10758.85	9921.9
822.4786	577.2299	10643.9	9806.35
822.6231	579.3648	10677.8	9838.35
822.7675	581.4992	10804.4	9966.1
822.912	583.6329	10988.55	10150
823.0565	585.766	11176.1	10338.2
823.201	587.8985	11286.25	10448.85
823.3454	590.0304	11284.05	10435.85
823.4899	592.1616	11206.7	10362.95
823.6345	594.2922	11151.95	10310.7
823.779	596.4222	10995.9	10156.65
823.9235	598.5515	10870.5	10030.2
824.068	600.6802	10717.15	9874.4
824.2126	602.8083	10535.3	9693.5
824.3571	604.9358	10455.1	9611.6
824.5017	607.0626	10372.4	9528.1
824.6462	609.1888	10279.4	9436.95
824.7908	611.3144	10176.35	9331.2
824.9354	613.4393	10018.15	9173.55
825.08	615.5636	9903.45	9059.4
825.2246	617.6873	9782.85	8940.3
825.3692	619.8103	9687.15	8842
825.5138	621.9327	9635.85	8789.25
825.6584	624.0544	9636.85	8792.9
825.803	626.1756	9655.6	8811.45
825.9477	628.2961	9620.85	8773.7
826.0923	630.4159	9562.65	8716.85
826.237	632.5351	9505.4	8659.4
826.3816	634.6537	9465.15	8617.8
826.5263	636.7716	9438.5	8590.75
826.6709	638.8889	9397.75	8548.05
826.8156	641.0056	9407.6	8560.35
826.9603	643.1216	9431.2	8585.1
827.105	645.237	9422.8	8572.35
827.2497	647.3518	9433.45	8583.05
827.3944	649.4659	9455.05	8606.35
827.5391	651.5793	9451.1	8601.05
827.6838	653.6922	9409.8	8561.75
827.8285	655.8043	9398.25	8549.6
827.9733	657.9159	9366.7	8513.15
828.118	660.0268	9294.75	8437.85
828.2627	662.137	9211.5	8360.2
828.4075	664.2466	9160.6	8308.9
828.5522	666.3556	9155.2	8305.5
828.697	668.4639	9153.95	8299.8
828.8418	670.5716	9200.65	8345.8
828.9865	672.6786	9262.75	8409.65
829.1313	674.785	9330.9	8476.55
829.2761	676.8907	9397	8542.45
829.4209	678.9958	9469.25	8617.2
829.5657	681.1002	9428.55	8575.65
829.7105	683.204	9392.3	8533.6
829.8553	685.3072	9322.5	8466.5
830.0001	687.4097	9253.5	8399.65
830.1449	689.5115	9206.95	8348.3
830.2898	691.6127	9115.85	8260.85
830.4346	693.7132	9028.15	8172.9
830.5794	695.8131	9016.05	8138.6
830.7243	697.9123	8947.95	8089.85
830.8691	700.0109	8882.4	8025.45
831.014	702.1089	8864.65	8008.3
831.1588	704.2061	8849.2	7991.35
831.3037	706.3028	8858.35	7999.5
831.4486	708.3987	8904.75	8047.2
831.5935	710.4941	8985.1	8128.8
831.7383	712.5887	9158.45	8302.3
831.8832	714.6827	9451.65	8587.85
832.0281	716.7761	9774.35	8916.85
832.173	718.8688	10108.1	9249.85
832.3179	720.9608	10302.4	9439.3
832.4628	723.0522	10266.7	9403.6
832.6077	725.1429	10028.85	9170.1
832.7527	727.233	9665.15	8805.7
832.8976	729.3224	9358.05	8499.45
833.0425	731.4112	9062.7	8202.2
833.1874	733.4993	8858.25	7995.25
833.3324	735.5867	8741.5	7878.8
833.4773	737.6735	8689.2	7827.5
833.6222	739.7596	8639.05	7776.05
833.7672	741.845	8610.05	7747.75
833.9122	743.9298	8587.75	7725.85
834.0571	746.014	8606.1	7745.9
834.2021	748.0974	8604.95	7742.9
834.347	750.1802	8601.15	7740.55
834.492	752.2624	8628.25	7766.25
834.637	754.3439	8603	7738.35
834.782	756.4247	8648.25	7777.8
834.9269	758.5048	8735.5	7874.95
835.0719	760.5843	8873.35	8012.75
835.2169	762.6631	9079.75	8218.3
835.3619	764.7413	9455.05	8593.9
835.5069	766.8188	9924.95	9060.25
835.6519	768.8956	10312.6	9448.55
835.7969	770.9718	10589.95	9728.6
835.9419	773.0473	10441.35	9577.95
836.0869	775.1221	10151.2	9288.6
836.232	777.1962	9808.85	8946
836.377	779.2697	9624.55	8761.1
836.522	781.3426	9695.25	8820.5
836.667	783.4147	9962.4	9100.15
836.8121	785.4862	10244.9	9381
836.9571	787.557	10297.55	9432.1
837.1021	789.6271	9926.1	9060
837.2472	791.6966	9467.75	8602.75
837.3922	793.7654	9006.3	8140.95
837.5373	795.8335	8719.95	7856
837.6823	797.901	8567.75	7704.05
837.8274	799.9678	8518.6	7653.15
837.9724	802.0339	8522.75	7661.75
838.1175	804.0993	8573.5	7702.1
838.2626	806.1641	8575.55	7710.85
838.4076	808.2282	8525.6	7657.85
838.5527	810.2916	8424.05	7556.5
838.6978	812.3544	8336.45	7471.05
838.8428	814.4164	8239.4	7377.15
838.9879	816.4778	8224.2	7357.6
839.133	818.5385	8198.85	7333.2
839.2781	820.5986	8238.3	7373.15
839.4232	822.658	8281.75	7414.9
839.5682	824.7166	8283.65	7420.1
839.7133	826.7747	8392.25	7526.2
839.8584	828.832	8476.9	7611.4
840.0035	830.8886	8551.45	7682.15
840.1486	832.9446	8652.65	7785.45
840.2937	834.9999	8736.7	7872.85
840.4388	837.0545	8800.55	7931
840.5839	839.1085	8871.15	8003.15
840.729	841.1618	8869.8	7995.15
840.8741	843.2143	8868.95	8001.8
841.0192	845.2662	8803.35	7936.45
841.1643	847.3175	8755.9	7890.2
841.3095	849.368	8646.7	7777.75
841.4546	851.4179	8542.55	7674.85
841.5997	853.467	8406.2	7539.25
841.7448	855.5155	8299.7	7435.05
841.8899	857.5633	8213.25	7346.65
842.0351	859.6105	8103.35	7235.2
842.1802	861.6569	8018.45	7150.2
842.3253	863.7027	7977.25	7106.4
842.4704	865.7478	7939.55	7070.8
842.6156	867.7922	7952.95	7082.6
842.7607	869.8359	7967.1	7097.6
842.9058	871.8789	8097.7	7228.15
843.0509	873.9212	8272.5	7371.55
843.1961	875.9629	8424	7553.35
843.3412	878.0039	8553.4	7682.25
843.4863	880.0441	8641.35	7773.1
843.6315	882.0837	8605.65	7733.55
843.7766	884.1226	8492.55	7620.05
843.9218	886.1609	8339.45	7468.7
844.0669	888.1984	8211.9	7344.4
844.212	890.2352	8134.75	7265.85
844.3572	892.2714	8063.55	7190.45
844.5023	894.3069	8055.2	7180.6
844.6475	896.3416	7997.8	7124.25
844.7926	898.3757	7983.95	7111.1
844.9377	900.4091	7958.3	7085.85
845.0829	902.4418	7991.25	7116.1
845.228	904.4739	8004.4	7130.35
845.3732	906.5052	7945.3	7074.7
845.5183	908.5358	7860.15	6988.65
845.6635	910.5658	7736.5	6864.9
845.8086	912.595	7598.1	6724.9
845.9538	914.6236	7484.6	6614.25
846.0989	916.6515	7455.3	6585.05
846.2441	918.6786	7432.1	6557.2
846.3892	920.7051	7502.85	6630.05
846.5344	922.7309	7587	6715.15
846.6795	924.756	7633.8	6763.95
846.8246	926.7804	7709.7	6837.75
846.9698	928.8041	7695.8	6820.75
847.1149	930.8272	7685.3	6814.1
847.2601	932.8495	7640	6764.75
847.4052	934.8711	7586.7	6714.1
847.5504	936.892	7424.35	6550.6
847.6955	938.9123	7281.75	6407.7
847.8407	940.9318	7130.9	6258.3
847.9858	942.9506	7043.15	6168.25
848.131	944.9688	6957.05	6085.2
848.2761	946.9862	6931.6	6057.45
848.4213	949.003	6890.5	6015.3
848.5664	951.019	6875.4	6003.25
848.7115	953.0344	6898.95	6025.7
848.8567	955.0491	6952.75	6077.95
849.0018	957.063	6980.6	6109.6
849.147	959.0763	7071.5	6197.8
849.2921	961.0888	7107.4	6231.65
849.4373	963.1007	7174.25	6299.35
849.5824	965.1119	7214.05	6341.2
849.7275	967.1223	7242.5	6369.95
849.8727	969.1321	7264.25	6392.65
850.0178	971.1412	7271.85	6397.95
850.1629	973.1495	7290.9	6419.4
850.3081	975.1572	7371.6	6464.05
850.4532	977.1641	7334.3	6458.2
850.5983	979.1704	7302.5	6425.9
850.7435	981.1759	7301.9	6423.8
850.8886	983.1808	7373.2	6498.1
851.0337	985.1849	7452.4	6569.1
851.1788	987.1884	7616.5	6739.3
851.324	989.1911	7788	6909.9
851.4691	991.1932	7890.6	7015.35
851.6142	993.1945	7945.5	7070.75
851.7593	995.1951	7928.9	7055.45
851.9045	997.1951	7895.85	7014.4
852.0496	999.1943	7785.7	6912.7
852.1947	1001.1928	7738.4	6862.95
852.3398	1003.1906	7733.1	6857.6
852.4849	1005.1877	7757.05	6881.5
852.63	1007.1841	7719.5	6842.95
852.7751	1009.1798	7629.45	6753.25
852.9202	1011.1748	7449	6575.75
853.0653	1013.1691	7296.2	6421.7
853.2104	1015.1627	7109.45	6234.1
853.3555	1017.1556	6945.15	6067.35
853.5006	1019.1477	6874.25	5997.05
853.6457	1021.1392	6798.85	5925.7
853.7908	1023.1299	6821.95	5947.1
853.9359	1025.12	6843.95	5966.8
854.081	1027.1093	6883.9	6009.15
854.2261	1029.0979	6943.55	6069.3
854.3712	1031.0859	7004.5	6128.75
854.5163	1033.0731	6980.35	6102.8
854.6613	1035.0596	6901.65	6026.7
854.8064	1037.0454	6802.55	5927
854.9515	1039.0304	6694.5	5817.75
855.0965	1041.0148	6584.95	5708.05
855.2416	1042.9985	6495.25	5616.1
855.3867	1044.9814	6473.6	5596.5
855.5317	1046.9636	6436.7	5557.8
855.6768	1048.9452	6404.15	5529.25
855.8219	1050.926	6415.3	5540.45
855.9669	1052.9061	6417.35	5542.15
856.112	1054.8855	6371.7	5495.7
856.257	1056.8642	6399.4	5523.35
856.4021	1058.8421	6435.1	5555.7
856.5471	1060.8194	6459.9	5583.35
856.6921	1062.7959	6480.05	5602.25
856.8372	1064.7717	6482.65	5604.3
856.9822	1066.7469	6476.5	5597.25
857.1272	1068.7213	6450	5570
857.2723	1070.695	6408.9	5534.1
857.4173	1072.6679	6355	5476.65
857.5623	1074.6402	6313.9	5436.75
857.7073	1076.6117	6306.8	5425.65
857.8523	1078.5826	6329.9	5453.5
857.9973	1080.5527	6377.65	5499.3
858.1423	1082.5221	6507.3	5628.55
858.2873	1084.4908	6705.05	5829.55
858.4323	1086.4587	6898.9	6019.8
858.5773	1088.426	7041.95	6162.15
858.7223	1090.3925	7039.8	6157.1
858.8673	1092.3584	6942.7	6066.5
859.0123	1094.3235	6784.9	5909.05
859.1573	1096.2879	6697.35	5819.65
859.3022	1098.2515	6663.4	5784.6
859.4472	1100.2145	6686.75	5808.75
859.5922	1102.1767	6748.2	5867.15
859.7371	1104.1382	6851.3	5973.4
859.8821	1106.099	7033.65	6154.75
860.027	1108.0591	7211.9	6335.25
860.172	1110.0185	7318.1	6438.6
860.3169	1111.9771	7298.95	6422.4
860.4619	1113.9351	7102.75	6223.3
860.6068	1115.8923	6817.9	5941.65
860.7517	1117.8488	6539.35	5659.85
860.8967	1119.8045	6290.25	5412.7
861.0416	1121.7596	6145.45	5268.55
861.1865	1123.7139	6101.95	5223.45
861.3314	1125.6675	6111.6	5235.4
861.4763	1127.6204	6156.15	5279.35
861.6212	1129.5726	6172.9	5293.1
861.7661	1131.524	6212.55	5336.2
861.911	1133.4748	6249.95	5372.6
862.0559	1135.4248	6279.7	5401.4
862.2008	1137.3741	6293.6	5417.25
862.3457	1139.3226	6281.85	5400.9
862.4905	1141.2705	6264.8	5387.2
862.6354	1143.2176	6210.05	5327.25
862.7803	1145.164	6206.4	5328.6
862.9251	1147.1097	6235.4	5357.4
863.07	1149.0546	6241.4	5360.8
863.2148	1150.9989	6152.35	5274.7
863.3597	1152.9424	5991.3	5111.75
863.5045	1154.8852	5821	4945.3
863.6493	1156.8272	5678.95	4802.6
863.7942	1158.7686	5624.2	4738.3
863.939	1160.7092	5594.75	4717.15
864.0838	1162.6491	5572.75	4693.25
864.2286	1164.5883	5637.85	4762.75
864.3734	1166.5267	5713.4	4833.05
864.5182	1168.4644	5826.95	4948.65
864.663	1170.4014	5970.2	5089.2
864.8078	1172.3377	6159.4	5282.1
864.9526	1174.2732	6331.7	5454.35
865.0974	1176.2081	6511.15	5632.7
865.2421	1178.1421	6639.85	5756.65
865.3869	1180.0755	6742.05	5865.4
865.5317	1182.0082	6751	5871.85
865.6764	1183.9401	6672.7	5793.25
865.8212	1185.8713	6484.1	5608.2
865.9659	1187.8017	6282.5	5402.8
866.1106	1189.7315	6065.5	5187.6
866.2554	1191.6605	5874.6	4967.25
866.4001	1193.5888	5694.3	4813.8
866.5448	1195.5163	5592	4713.8
866.6895	1197.4432	5523.2	4642.85
866.8342	1199.3693	5459.3	4578.75
866.9789	1201.2947	5424.75	4544.75
867.1236	1203.2193	5404.1	4525.7
867.2683	1205.1432	5436	4558.2
867.413	1207.0664	5472.45	4593.2
867.5576	1208.9889	5540.75	4657.75
867.7023	1210.9106	5626.5	4748.3
867.847	1212.8316	5709.6	4831.85
867.9916	1214.7519	5769.45	4881.85
868.1363	1216.6715	5793.25	4915.55
868.2809	1218.5903	5756.4	4877.4
868.4255	1220.5084	5710.65	4831.95
868.5701	1222.4257	5684.4	4804.15
868.7148	1224.3424	5637.85	4762.15
868.8594	1226.2583	5679.75	4795.65
869.004	1228.1735	5773.05	4893.85
869.1486	1230.0879	5900.95	5020.85
869.2932	1232.0016	6006.2	5128.7
869.4377	1233.9146	6038.1	5158.25
869.5823	1235.8269	5942.2	5063
869.7269	1237.7384	5822.7	4943.25
869.8715	1239.6492	5691.25	4811.45
870.016	1241.5592	5588.45	4708.3
870.1606	1243.4686	5506.65	4630.15
870.3051	1245.3772	5459.3	4579.05
870.4496	1247.285	5395.45	4514.3
870.5941	1249.1922	5369.2	4491.25
870.7387	1251.0986	5363.1	4484.8
870.8832	1253.0042	5359.4	4482.2
871.0277	1254.9092	5428.1	4547.85
871.1722	1256.8134	5521.25	4640.3
871.3167	1258.7169	5640.5	4761.25
871.4611	1260.6196	5762.15	4882.75
871.6056	1262.5216	5901	5018.6
871.7501	1264.4229	6018.3	5137.8
871.8945	1266.3234	6094.3	5213.65
872.039	1268.2232	6125.65	5245.65
872.1834	1270.1223	6126.75	5245.45
872.3278	1272.0207	6086.95	5205.9
872.4723	1273.9183	6065.85	5182.2
872.6167	1275.8151	5982.3	5102.55
872.7611	1277.7113	5904.55	5026.4
872.9055	1279.6067	5785.85	4907.35
873.0499	1281.5014	5638.1	4755.55
873.1943	1283.3953	5540.25	4658.65
873.3386	1285.2885	5445.35	4563.95
873.483	1287.181	5395.35	4515.15
873.6274	1289.0727	5399.9	4519.3
873.7717	1290.9637	5401.45	4520.95
873.9161	1292.854	5524	4644
874.0604	1294.7435	5632.9	4750.55
874.2047	1296.6323	5825.35	4947.4
874.349	1298.5204	6041.05	5156.5
874.4933	1300.4077	6282.4	5402.2
874.6376	1302.2943	6444	5563
874.7819	1304.1802	6506.8	5627.6
874.9262	1306.0653	6454.55	5573.8
875.0705	1307.9497	6341.05	5460.25
875.2147	1309.8333	6283.9	5404.9
875.359	1311.7162	6289.8	5411
875.5032	1313.5984	6374.55	5492.85
875.6475	1315.4798	6516.15	5624.6
875.7917	1317.3605	6648.5	5752.4
875.9359	1319.2405	6779.4	5897.05
876.0801	1321.1197	6826.6	5945.2
876.2243	1322.9982	6788.6	5905.95
876.3685	1324.876	6776.85	5896.35
876.5127	1326.753	6748.05	5869.7
876.6569	1328.6293	6778.9	5897.15
876.801	1330.5048	6763.6	5882.25
876.9452	1332.3796	6745.1	5865
877.0893	1334.2537	6754.25	5847.85
877.2335	1336.127	6700.25	5820.05
877.3776	1337.9996	6651.7	5769.15
877.5217	1339.8714	6610.2	5730.25
877.6658	1341.7426	6580.35	5656.95
877.8099	1343.6129	6513.7	5633.6
877.954	1345.4826	6456.85	5575.75
878.0981	1347.3515	6412.4	5531.5
878.2422	1349.2196	6366.35	5484.3
878.3862	1351.087	6352.8	5471.8
878.5303	1352.9537	6393.4	5512.1
878.6743	1354.8197	6495.55	5612.5
878.8184	1356.6849	6626.4	5744.5
878.9624	1358.5493	6683.95	5803.8
879.1064	1360.4131	6696	5814.75
879.2504	1362.276	6610.85	5732.2
879.3944	1364.1383	6451.4	5570.95
879.5384	1365.9998	6291.6	5405.05
879.6823	1367.8606	6055.6	5175.25
879.8263	1369.7206	5864.5	4982.45
879.9702	1371.5799	5742.3	4860.3
880.1142	1373.4384	5659.5	4777
880.2581	1375.2962	5554.55	4674.3
880.402	1377.1533	5366.65	4485.15
880.5459	1379.0096	5121.9	4240.4
880.6898	1380.8652	4906.8	4024.65
880.8337	1382.7201	4696.2	3814.95
880.9776	1384.5742	4564.1	3684.1
881.1215	1386.4275	4448.95	3570.35
881.2653	1388.2802	4361.9	3481.1
881.4092	1390.132	4292.2	3412
881.553	1391.9832	4253	3371.05
881.6968	1393.8336	4185.75	3303.55
881.8406	1395.6832	4172.05	3289.85
881.9844	1397.5322	4142	3259.2
882.1282	1399.3803	4138.85	3251.3
882.272	1401.2278	4120.9	3241.65
882.4158	1403.0745	4132.2	3248.7
882.5595	1404.9204	4114.35	3233.75
882.7033	1406.7656	4119.6	3238.05
882.847	1408.6101	4131.9	3248.75
882.9908	1410.4538	4160.45	3278.9
883.1345	1412.2968	4208.9	3329.2
883.2782	1414.139	4248.95	3367.5
883.4219	1415.9805	4311.65	3430.75
883.5656	1417.8213	4406	3519.45
883.7092	1419.6613	4518.4	3635.55
883.8529	1421.5006	4684.85	3804.15
883.9965	1423.3391	4928.95	4048
884.1402	1425.1769	5211.7	4329.8
884.2838	1427.0139	5672.95	4790.95
884.4274	1428.8502	6157.45	5275.5
884.571	1430.6858	6691.05	5809.7
884.7146	1432.5206	7070.2	6190.2
884.8582	1434.3547	7303.25	6421.4
885.0018	1436.188	7290	6406.7
885.1453	1438.0206	7231.3	6350.95
885.2889	1439.8524	7144.7	6264.1
885.4324	1441.6835	7056.15	6173.15
885.5759	1443.5139	6985	6100.45
885.7194	1445.3435	6922.65	6041.05
885.8629	1447.1724	6873.55	5992.3
886.0064	1449.0005	6808.35	5926.65
886.1499	1450.8279	6731.15	5849
886.2933	1452.6545	6716.5	5834.3
886.4368	1454.4804	6737.7	5857.55
886.5802	1456.3056	6726.1	5839.15
886.7237	1458.13	6622.25	5742.4
886.8671	1459.9536	6426.4	5544
887.0105	1461.7766	6135.3	5256.55
887.1539	1463.5987	5781.85	4899.3
887.2972	1465.4202	5423.6	4541.65
887.4406	1467.2409	5153.3	4272.35
887.584	1469.0608	4919.65	4038.25
887.7273	1470.88	4709.8	3827.75
887.8706	1472.6984	4521.25	3639.5
888.0139	1474.5161	4375.65	3491.85
888.1572	1476.3331	4224	3340.85
888.3005	1478.1493	4133.15	3250.1
888.4438	1479.9648	4047.35	3167.5
888.5871	1481.7795	3976.95	3094
888.7303	1483.5935	3930.6	3048.95
888.8736	1485.4067	3884.35	3001
889.0168	1487.2192	3819.9	2938.95
889.16	1489.031	3796.2	2913.05
889.3032	1490.842	3750.25	2868.95
889.4464	1492.6522	3742.25	2861.8
889.5896	1494.4618	3717.45	2835.55
889.7327	1496.2705	3693.5	2812.25
889.8759	1498.0785	3692.8	2809.85
890.019	1499.8858	3668.8	2788.45
890.1622	1501.6924	3655.95	2777.25
890.3053	1503.4981	3645.1	2764.05
890.4484	1505.3032	3619.55	2738.95
890.5914	1507.1075	3614.5	2731.6
890.7345	1508.911	3580.65	2700.4
890.8776	1510.7138	3555.15	2671.2
891.0206	1512.5159	3536.65	2654.2
891.1637	1514.3172	3514.2	2633.9
891.3067	1516.1178	3488.25	2608.85
891.4497	1517.9176	3457.2	2575.4
891.5927	1519.7166	3439.3	2557
891.7357	1521.515	3427.2	2538.05
891.8786	1523.3126	3419.2	2536.55
892.0216	1525.1094	3398.15	2515
892.1645	1526.9055	3380	2499.6
892.3074	1528.7008	3372.45	2491.3
892.4503	1530.4954	3368.05	2479.3
892.5932	1532.2893	3343.2	2466.45
892.7361	1534.0824	3352.9	2467.1
892.879	1535.8747	3339.45	2459.95
893.0218	1537.6663	3334.15	2452.95
893.1647	1539.4572	3346.1	2463.15
893.3075	1541.2473	3323.15	2439.95
893.4503	1543.0367	3320.25	2440.05
893.5931	1544.8253	3314.85	2430.4
893.7359	1546.6132	3325.15	2442.1
893.8787	1548.4003	3319.65	2427.35
894.0214	1550.1867	3330.9	2442.35
894.1642	1551.9723	3340.4	2452.55
894.3069	1553.7572	3351.55	2468.85
894.4496	1555.5414	3378.8	2496.5
894.5923	1557.3247	3406.35	2522.3
894.735	1559.1074	3433.2	2553.3
894.8777	1560.8893	3482.1	2603.45
895.0204	1562.6705	3521.9	2638.95
895.163	1564.4509	3598.9	2717.55
895.3056	1566.2305	3650.4	2768.85
895.4482	1568.0094	3748.35	2867.15
895.5908	1569.7876	3818.85	2938.2
895.7334	1571.565	3868.5	2988.4
895.876	1573.3417	3931.1	3049.9
896.0186	1575.1176	3914.25	3033.4
896.1611	1576.8928	3902.75	3020
896.3036	1578.6672	3830.7	2949.1
896.4461	1580.4409	3754	2873.55
896.5886	1582.2138	3631.8	2747.8
896.7311	1583.986	3538.75	2657.7
896.8736	1585.7575	3453	2572.9
897.0161	1587.5282	3391.1	2509.55
897.1585	1589.2981	3347.05	2465.45
897.3009	1591.0673	3326.85	2445.55
897.4433	1592.8358	3300.4	2419.45
897.5857	1594.6035	3296.35	2413.25
897.7281	1596.3704	3294.4	2413.95
897.8705	1598.1366	3312.7	2433
898.0128	1599.9021	3324.9	2442.8
898.1551	1601.6668	3340.2	2458
898.2975	1603.4308	3381.1	2499.3
898.4398	1605.194	3446.25	2561.45
898.5821	1606.9564	3518.25	2638.65
898.7243	1608.7182	3599.65	2713.95
898.8666	1610.4791	3707.25	2826.45
899.0088	1612.2394	3836.6	2954.8
899.1511	1613.9988	3992.15	3107.45
899.2933	1615.7576	4168.95	3288.65
899.4355	1617.5156	4383	3497.25
899.5776	1619.2728	4579.65	3700.2
899.7198	1621.0293	4708.6	3827.1
899.862	1622.785	4777.5	3890.35
900.0041	1624.54	4740.65	3856.4
900.1462	1626.2942	4627.3	3745.55
900.2883	1628.0477	4427.85	3543.25
900.4304	1629.8005	4241.8	3356.1
900.5725	1631.5525	4026.9	3146.45
900.7145	1633.3037	3877.6	2996.95
900.8566	1635.0542	3729.25	2849.8
900.9986	1636.804	3623.5	2742.9
901.1406	1638.553	3606.8	2653.6
901.2826	1640.3013	3510.35	2629.45
901.4245	1642.0488	3477.6	2595.8
901.5665	1643.7955	3474.15	2593.95
901.7085	1645.5416	3497.8	2615.8
901.8504	1647.2868	3524.75	2645.2
901.9923	1649.0313	3595.85	2715.25
902.1342	1650.7751	3720	2834.8
902.2761	1652.5181	3865.75	2986.25
902.4179	1654.2604	4085.85	3205.8
902.5598	1656.0019	4347.25	3467.85
902.7016	1657.7427	4650.7	3769.6
902.8434	1659.4828	4947.35	4067.3
902.9852	1661.222	5137.25	4254.35
903.127	1662.9606	5157.45	4277.75
903.2687	1664.6984	5010.45	4130.95
903.4105	1666.4354	4722.3	3841.9
903.5522	1668.1717	4363.6	3483.9
903.6939	1669.9072	4018.25	3138.5
903.8356	1671.642	3694.2	2810.1
903.9773	1673.3761	3468.2	2588.45
904.119	1675.1094	3284.25	2403.45
904.2606	1676.8419	3153.15	2273.55
904.4022	1678.5737	3057.25	2176.15
904.5439	1680.3048	2987.95	2107.55
904.6855	1682.0351	2916.9	2036.3
904.827	1683.7646	2879.95	1996.95
904.9686	1685.4934	2840.65	1960.2
905.1101	1687.2215	2804.55	1922.85
905.2517	1688.9488	2789	1909.2
905.3932	1690.6754	2759.6	1880.85
905.5347	1692.4012	2756.8	1877.45
905.6761	1694.1263	2737.6	1855.55
905.8176	1695.8506	2704.95	1826.15
905.9591	1697.5742	2706.7	1827.75
906.1005	1699.297	2687.3	1805.05
906.2419	1701.0191	2676	1796.5
906.3833	1702.7404	2652.9	1774.45
906.5246	1704.461	2640	1757.05
906.666	1706.1808	2619.6	1738.15
906.8073	1707.8999	2615.55	1732.6
906.9487	1709.6182	2612.55	1733
907.09	1711.3358	2598.55	1716.15
907.2313	1713.0527	2580.5	1701.6
907.3725	1714.7688	2577.5	1690.5
907.5138	1716.4841	2568	1684.5
907.655	1718.1987	2564.35	1679.85
907.7962	1719.9126	2556.5	1677.45
907.9374	1721.6257	2535.4	1650.35
908.0786	1723.338	2540.25	1659.3
908.2198	1725.0496	2513.25	1632.85
908.3609	1726.7605	2522.1	1641.6
908.502	1728.4706	2507.35	1628.15
908.6431	1730.18	2503.7	1621.2
908.7842	1731.8886	2490.75	1611.3
908.9253	1733.5964	2487.2	1603.4
909.0664	1735.3036	2484.4	1602.6
909.2074	1737.0099	2483.6	1602.35
909.3484	1738.7156	2464.85	1584.7
909.4894	1740.4204	2465.4	1581.45
909.6304	1742.1246	2462.6	1581.35
909.7714	1743.8279	2454.7	1573.3
909.9123	1745.5306	2453.4	1573.05
910.0532	1747.2325	2437.5	1558.1
910.1941	1748.9336	2430.55	1551.3
910.335	1750.634	2422.4	1542.6
910.4759	1752.3336	2426.1	1546.2
910.6168	1754.0325	2411.95	1532.25
910.7576	1755.7307	2425.05	1545.85
910.8984	1757.4281	2402.65	1520.35
911.0392	1759.1247	2411.55	1523.85
911.18	1760.8206	2401.15	1515.15
911.3208	1762.5158	2406.6	1523.75
911.4615	1764.2102	2390.9	1512.05
911.6022	1765.9039	2388.35	1507.85
911.7429	1767.5968	2377.85	1496.75
911.8836	1769.289	2379.75	1499.8
912.0243	1770.9804	2375.5	1494.95
912.1649	1772.6711	2359.25	1478.6
912.3056	1774.361	2365.05	1483.4
912.4462	1776.0502	2354.8	1476.9
912.5868	1777.7386	2357.95	1475.9
912.7274	1779.4263	2358.2	1477.85
912.8679	1781.1132	2349.3	1468
913.0084	1782.7994	2341.85	1460
913.149	1784.4849	2332.35	1451.9
913.2895	1786.1696	2346.85	1447.95
913.4299	1787.8535	2321.05	1441.5
913.5704	1789.5367	2314.55	1433
913.7108	1791.2192	2320.4	1439.95
913.8513	1792.9009	2333.35	1429.9
913.9917	1794.5818	2315.55	1434
914.132	1796.2621	2300.6	1419.9
914.2724	1797.9415	2303.7	1424.65
914.4128	1799.6202	2299.45	1419.2
914.5531	1801.2982	2281.3	1403.3
914.6934	1802.9755	2293.8	1413.55
914.8337	1804.6519	2292.5	1412.3
914.9739	1806.3277	2278.9	1398.95
915.1142	1808.0027	2274.3	1393.35
915.2544	1809.6769	2277.55	1397.25
915.3946	1811.3504	2278.55	1396.75
915.5348	1813.0231	2268.65	1387.5
915.675	1814.6951	2264.05	1383.95
915.8151	1816.3664	2263	1383.05
915.9553	1818.0369	2266.05	1387.2
916.0954	1819.7067	2258.1	1381.15
916.2355	1821.3757	2253.9	1370.85
916.3755	1823.044	2250.85	1370.9
916.5156	1824.7115	2255.9	1376.85
916.6556	1826.3783	2241.45	1362.55
916.7956	1828.0443	2240.5	1362.25
916.9356	1829.7096	2231.4	1350.6
917.0756	1831.3741	2236.8	1354.7
917.2155	1833.0379	2233.1	1354.7
917.3555	1834.701	2218.65	1335.15
917.4954	1836.3633	2223.65	1342.55
917.6353	1838.0248	2222.95	1340.75
917.7751	1839.6856	2235.05	1355.05
917.915	1841.3457	2217.55	1339.5
918.0548	1843.005	2218.85	1339.9
918.1946	1844.6636	2210.9	1331.4
918.3344	1846.3214	2200.7	1320.75
918.4742	1847.9785	2211.05	1332.15
918.6139	1849.6349	2194.4	1315.5
918.7537	1851.2904	2193.15	1306.9
918.8934	1852.9453	2203.65	1322.6
919.0331	1854.5994	2188.55	1307.75
919.1727	1856.2528	2189.05	1303.25
919.3124	1857.9054	2187.35	1307.6
919.452	1859.5572	2194.2	1314.35
919.5916	1861.2083	2186.8	1304.9
919.7312	1862.8587	2179.15	1301
919.8708	1864.5084	2175.2	1295.6
920.0103	1866.1572	2163.4	1283.35
920.1498	1867.8054	2169.5	1290.5
920.2893	1869.4528	2157.25	1278.05
920.4288	1871.0994	2158.2	1278.15
920.5683	1872.7453	2146.05	1265.6
920.7077	1874.3905	2160.7	1273.85
920.8471	1876.0349	2142.65	1262.1
920.9865	1877.6786	2142.3	1260.3
921.1259	1879.3215	2139	1258.95
921.2653	1880.9637	2136	1254.25
921.4046	1882.6051	2128.75	1248.1
921.5439	1884.2458	2124.85	1241.85
921.6832	1885.8858	2119.25	1239.85
921.8225	1887.525	2118.6	1237.7
921.9617	1889.1634	2118.55	1239.7
922.101	1890.8011	2110.05	1228.8
922.2402	1892.4381	2115.05	1236.35
922.3794	1894.0743	2110.05	1231.25
922.5185	1895.7098	2094	1213.6
922.6577	1897.3446	2103.9	1225.1
922.7968	1898.9786	2089.95	1205.5
922.9359	1900.6118	2099.8	1222.1
923.075	1902.2443	2085.3	1204.15
923.214	1903.8761	2075.75	1196.7
923.3531	1905.5071	2076.8	1195.85
923.4921	1907.1374	2078.2	1197.3
923.6311	1908.7669	2072	1192.9
923.77	1910.3957	2074.6	1193.9
923.909	1912.0237	2058.1	1176.6
924.0479	1913.651	2053.55	1173.3
924.1868	1915.2776	2052.3	1171.75
924.3257	1916.9034	2058.15	1178.7
924.4646	1918.5285	2044.35	1165.7
924.6034	1920.1528	2043.2	1161.85
924.7422	1921.7764	2045.25	1167.15
924.881	1923.3992	2042.5	1163.25
925.0198	1925.0213	2039.15	1158.95
925.1586	1926.6427	2024.4	1145.8
925.2973	1928.2633	2123.25	1136.85
925.436	1929.8832	2027.9	1146.65
925.5747	1931.5023	2008.95	1130.85
925.7134	1933.1207	2014	1133.9
925.852	1934.7383	2002.4	1121.55
925.9906	1936.3552	2008.8	1128.3
926.1292	1937.9714	2008.05	1127.2
926.2678	1939.5868	1998.45	1118.7
926.4064	1941.2015	1997.95	1119.4
926.5449	1942.8154	1988.8	1107.45
926.6834	1944.4286	1989	1109
926.8219	1946.041	1992.05	1089.7
926.9604	1947.6528	1974.5	1091
927.0988	1949.2637	1966.1	1084.8
927.2372	1950.8739	1965.6	1084.85
927.3756	1952.4834	1966.55	1085.5
927.514	1954.0921	1962.1	1083.85
927.6523	1955.7001	1969.3	1085.5
927.7907	1957.3074	1949.3	1070.2
927.929	1958.9139	1952.9	1072.8
928.0673	1960.5197	1950.7	1068.35
928.2055	1962.1247	1936.9	1058.55
928.3438	1963.729	1931.1	1052.85
928.482	1965.3325	1947.25	1043.45
928.6202	1966.9353	1924.95	1046.65
928.7584	1968.5374	1929.9	1047.95
928.8965	1970.1387	1920.45	1041.4
929.0346	1971.7393	1920.8	1039.6
929.1727	1973.3392	1926.1	1045.05
929.3108	1974.9383	1911.7	1033.75
929.4489	1976.5366	1906.4	1023.85
929.5869	1978.1342	1904.45	1024.85
929.7249	1979.7311	1909	1026.95
929.8629	1981.3273	1907.95	1028.1
930.0009	1982.9227	1897.05	1014.3
930.1388	1984.5173	1892.5	1014.1
930.2767	1986.1112	1884.7	1005
930.4146	1987.7044	1880.3	1002.4
930.5525	1989.2968	1885.25	1002.55
930.6904	1990.8885	1880.7	996.75
930.8282	1992.4795	1883.05	1000.05
930.966	1994.0697	1875.6	996.15
931.1038	1995.6592	1867.7	989.55
931.2415	1997.2479	1866.5	985.4
931.3793	1998.8359	1866.7	985.3
931.517	2000.4232	1862.35	983
931.6547	2002.0097	1857.45	977.4
931.7923	2003.5955	1852	971.45
931.93	2005.1805	1854.9	972.8
932.0676	2006.7648	1851.3	972.75
932.2052	2008.3484	1847.3	965.6
932.3427	2009.9312	1855.2	972.3
932.4803	2011.5133	1849.35	970.6
932.6178	2013.0946	1836.15	954.1
932.7553	2014.6752	1830.1	950.6
932.8928	2016.2551	1837.9	959.3
933.0302	2017.8342	1830.95	951.4
933.1676	2019.4126	1821.4	943.95
933.305	2020.9902	1819.4	939.45
933.4424	2022.5672	1828.85	946.3
933.5798	2024.1433	1833.6	948.45
933.7171	2025.7188	1826	947.8
933.8544	2027.2935	1823.45	943.6
933.9917	2028.8674	1814.05	933.65
934.129	2030.4406	1802.15	922.5
934.2662	2032.0131	1803.6	925.8
934.4034	2033.5849	1804.85	920
934.5406	2035.1559	1794.35	915.85
934.6778	2036.7261	1806.05	926.2
934.8149	2038.2957	1794.55	914.4
934.952	2039.8645	1787.85	908.25
935.0891	2041.4325	1799.25	918.15
935.2262	2042.9998	1793.95	914.6
935.3632	2044.5664	1795	913.55
935.5002	2046.1323	1788.8	909.25
935.6372	2047.6974	1787.6	908.15
935.7742	2049.2617	1777.8	897.65
935.9111	2050.8254	1800.1	896.55
936.048	2052.3883	1776.1	896.65
936.1849	2053.9504	1771.75	889.35
936.3218	2055.5118	1764.9	885.3
936.4586	2057.0725	1769.25	886.4
936.5955	2058.6325	1773.3	894.7
936.7323	2060.1917	1767.7	887.1
936.869	2061.7502	1762.9	878.5
937.0058	2063.3079	1754.4	875.85
937.1425	2064.8649	1757.15	870.75
937.2792	2066.4212	1757.75	878.3
937.4159	2067.9767	1747.65	867.8
937.5525	2069.5315	1739.9	861.25
937.6891	2071.0856	1739.65	859.8
937.8257	2072.6389	1739.85	858.9
937.9623	2074.1915	1732.45	853.7
938.0989	2075.7433	1732.3	851.35
938.2354	2077.2945	1726.35	849.2
938.3719	2078.8448	1728.55	850.05
938.5084	2080.3945	1731.35	852.35
938.6448	2081.9434	1724.7	844.1
938.7812	2083.4916	1718.9	837.85
938.9176	2085.039	1716.15	834.05
939.054	2086.5857	1719.8	838.55
939.1903	2088.1317	1711.25	830.4
939.3267	2089.677	1707.7	827.65
939.463	2091.2215	1709	829.9
939.5992	2092.7652	1702.75	820.75
939.7355	2094.3083	1697.75	816.25
939.8717	2095.8506	1702.35	823.6
940.0079	2097.3921	1702.85	821.55
940.1441	2098.933	1690.95	809.95
940.2802	2100.4731	1689.65	809.1
940.4163	2102.0124	1711.05	826.95
940.5524	2103.5511	1690.3	809.75
940.6885	2105.089	1688.45	808.7
940.8245	2106.6261	1680.2	798.95
940.9606	2108.1626	1689.7	808.75
941.0965	2109.6983	1710.8	802.9
941.2325	2111.2332	1691.7	810.5
941.3684	2112.7675	1688.45	806.7
941.5044	2114.301	1677.1	795
941.6403	2115.8337	1683.2	803.55
941.7761	2117.3657	1670.5	791
941.912	2118.897	1676.85	795.85
942.0478	2120.4276	1681.5	796.65
942.1835	2121.9575	1659.7	780.55
942.3193	2123.4866	1677.55	783
942.455	2125.0149	1662.85	779.4
942.5907	2126.5426	1663.95	782.55
942.7264	2128.0695	1656.9	772.6
942.8621	2129.5956	1652.95	773.55
942.9977	2131.1211	1648.7	762.65
943.1333	2132.6458	1650.45	770.2
943.2689	2134.1698	1649.35	770.95
943.4044	2135.693	1647.25	764.75
943.54	2137.2155	1655.15	773.8
943.6755	2138.7373	1654.75	773.1
943.8109	2140.2584	1638	758.65
943.9464	2141.7787	1655.75	768.75
944.0818	2143.2983	1631.6	751.85
944.2172	2144.8171	1639.95	760.85
944.3526	2146.3353	1641.1	758.7
944.4879	2147.8527	1635.1	756.35
944.6232	2149.3693	1633	751.05
944.7585	2150.8853	1639.8	758.35
944.8938	2152.4005	1621.8	742.25
945.029	2153.9149	1621.4	742.05
945.1642	2155.4287	1621.15	741.25
945.2994	2156.9417	1620.7	739.6
945.4346	2158.454	1624.45	741.25
945.5697	2159.9655	1618.1	737.45
945.7048	2161.4764	1610.3	728.85
945.8399	2162.9865	1617.65	737.15
945.9749	2164.4958	1617.95	733.9
946.1099	2166.0045	1607.65	723.75
946.2449	2167.5124	1605.7	725
946.3799	2169.0195	1603.6	723.35
946.5148	2170.526	1609.25	728.65
946.6498	2172.0317	1607.5	725.7
946.7846	2173.5367	1601.2	721.7
946.9195	2175.0409	1604.3	723.9
947.0543	2176.5445	1605.15	726.95
947.1891	2178.0473	1594.35	714.25
947.3239	2179.5494	1592.65	710.2
947.4587	2181.0507	1594	711.95
947.5934	2182.5513	1594.05	713.6
947.7281	2184.0512	1590.3	710.5
947.8628	2185.5504	1588.8	710.25
947.9974	2187.0488	1577.75	697.15
948.132	2188.5465	1581.7	701.9
948.2666	2190.0435	1575.45	695.3
948.4012	2191.5397	1579.05	698.75
948.5357	2193.0353	1575.85	697.9
948.6702	2194.5301	1581.1	699.25
948.8047	2196.0241	1570.5	690.15
948.9392	2197.5175	1571.9	692.75
949.0736	2199.0101	1571.95	687.55
949.208	2200.502	1566.1	686.95
949.3424	2201.9931	1563.55	682.45
949.4767	2203.4835	1558.5	676.85
949.611	2204.9733	1565.7	680.9
949.7453	2206.4622	1554.35	672.95
949.8796	2207.9505	1551.5	669.45
950.0138	2209.438	1545.3	665.1
950.148	2210.9248	1550.95	668.35
950.2822	2212.4109	1548.1	667.95
950.4164	2213.8962	1541.6	658.1
950.5505	2215.3809	1543.45	662.1
950.6846	2216.8648	1544.45	664.45
950.8186	2218.3479	1540.1	655.5
950.9527	2219.8304	1529.3	647.05
951.0867	2221.3121	1533.55	651.1
951.2207	2222.7931	1530.9	651.8
951.3546	2224.2733	1534.25	652.6
951.4886	2225.7529	1531.5	650.95
951.6225	2227.2317	1525.25	640.35
951.7563	2228.7098	1516.95	636
951.8902	2230.1872	1518.75	638.2
952.024	2231.6638	1519.5	639.15
952.1578	2233.1397	1517.75	632.55
952.2916	2234.6149	1518.3	637.6
952.4253	2236.0894	1511.75	629.15
952.559	2237.5632	1519.4	627.2
952.6927	2239.0362	1509.3	630.75
952.8263	2240.5085	1506.55	625
952.9599	2241.9801	1502.8	623.5
953.0935	2243.4509	1505	623
953.2271	2244.921	1500.9	621.6
953.3606	2246.3904	1492.55	610.4
953.4941	2247.8591	1485	606
953.6276	2249.3271	1491.15	612.1
953.7611	2250.7943	1487.75	607
953.8945	2252.2608	1484.55	603.55
954.0279	2253.7266	1482.8	601.55
954.1612	2255.1917	1481.25	601.35
954.2946	2256.656	1481.15	599.55
954.4279	2258.1197	1489.4	610.7
954.5612	2259.5826	1488.9	605.9
954.6944	2261.0447	1488	607.9
954.8276	2262.5062	1472.15	589.45
954.9608	2263.9669	1474.8	593.4
955.094	2265.4269	1475.65	596
955.2271	2266.8862	1466.5	585.2
955.3602	2268.3448	1467.75	587.45
955.4933	2269.8026	1472.45	590.6
955.6264	2271.2598	1474.1	593.8
955.7594	2272.7162	1466.25	586.1
955.8924	2274.1719	1465.9	584.2
956.0253	2275.6268	1466.1	584.3
956.1583	2277.0811	1466.4	585.85
956.2912	2278.5346	1459.1	579
956.4241	2279.9874	1473.95	593
956.5569	2281.4395	1459.35	580.6
956.6897	2282.8908	1466.1	582.35
956.8225	2284.3414	1460	579.1
956.9553	2285.7914	1454.55	576.35
957.088	2287.2406	1455.6	573.45
957.2207	2288.689	1447.85	566.8
957.3534	2290.1368	1457.2	575.2
957.486	2291.5838	1454.25	572.55
957.6186	2293.0302	1451	569.6
957.7512	2294.4758	1442.75	561.9
957.8838	2295.9206	1451.7	568.35
958.0163	2297.3648	1445.9	566.45
958.1488	2298.8082	1444.45	563.9
958.2813	2300.251	1444.55	563.45
958.4137	2301.693	1445.95	563
958.5461	2303.1343	1439.7	558.05
958.6785	2304.5748	1430.15	549.85
958.8108	2306.0147	1442.6	560.5
958.9432	2307.4538	1439.65	555.25
959.0754	2308.8922	1430.2	551.2
959.2077	2310.3299	1428.4	547.15
959.3399	2311.7669	1418.65	538.55
959.4721	2313.2031	1429.65	548.2
959.6043	2314.6387	1426.25	544.35
959.7365	2316.0735	1424.5	545.95
959.8686	2317.5076	1421.85	540.55
960.0006	2318.941	1419.75	540.65
960.1327	2320.3737	1417.5	536
960.2647	2321.8056	1414.75	533.65
960.3967	2323.2369	1413.8	532.65
960.5287	2324.6674	1416.35	532.25
960.6606	2326.0972	1415.9	532.9
960.7925	2327.5263	1417.7	537.4
960.9244	2328.9547	1414.3	531.15
961.0562	2330.3823	1405.65	524.9
961.1881	2331.8092	1408.9	525.35
961.3198	2333.2355	1402.65	522.15
961.4516	2334.661	1398.7	520.2
961.5833	2336.0858	1401.25	520.65
961.715	2337.5098	1399.1	521.05
961.8467	2338.9332	1404.8	522.4
961.9783	2340.3558	1400	513.75
962.1099	2341.7778	1399.35	518.6
962.2415	2343.199	1406.2	521.7
962.373	2344.6195	1402.25	520.65
962.5045	2346.0393	1390.15	510.7
962.636	2347.4583	1393.25	511.1
962.7675	2348.8767	1395.5	513.9
962.8989	2350.2943	1389.15	506.4
963.0303	2351.7113	1392.2	510.45
963.1617	2353.1275	1390.45	512.25
963.293	2354.543	1410.55	505.55
963.4243	2355.9578	1389.75	511.55
963.5556	2357.3718	1388.95	509.9
963.6868	2358.7852	1382.6	498.25
963.818	2360.1978	1384.1	501.4
963.9492	2361.6098	1382.1	501.25
964.0803	2363.021	1386.35	503.2
964.2114	2364.4315	1384.2	504.1
964.3425	2365.8413	1389.25	508
964.4736	2367.2504	1379.2	499.75
964.6046	2368.6587	1371.2	489.75
964.7356	2370.0664	1373.3	495.2
964.8666	2371.4733	1369.55	490.6
964.9975	2372.8795	1368.1	488.1
965.1284	2374.285	1364	484.55
965.2593	2375.6899	1368.95	488.9
965.3901	2377.0939	1365.05	487.4
965.5209	2378.4973	1360.1	482.6
965.6517	2379.9	1365.1	485.25
965.7825	2381.3019	1359.6	479.25
965.9132	2382.7032	1358.75	478.9
966.0439	2384.1037	1358.15	478.7
966.1745	2385.5035	1349.55	469.05
966.3051	2386.9027	1355.45	473.5
966.4357	2388.3011	1354.4	471.9
966.5663	2389.6987	1351.35	470.45
966.6968	2391.0957	1350.8	472.45
966.8273	2392.492	1344	464.9
966.9578	2393.8876	1339.95	461
967.0882	2395.2824	1343.75	464.35
967.2186	2396.6765	1337.6	459.85
967.349	2398.07	1334.6	457.2
967.4793	2399.4627	1332.75	454
967.6097	2400.8547	1335.9	455.75
967.7399	2402.246	1337.3	452.2
967.8702	2403.6366	1333.8	451.55
968.0004	2405.0265	1337.5	458.8
968.1306	2406.4156	1335.6	451.35
968.2607	2407.8041	1334.8	452.6
968.3909	2409.1918	1330.25	449.55
968.521	2410.5789	1326.8	449.2
968.651	2411.9652	1335.8	456.35
968.781	2413.3508	1328.15	449.05
968.911	2414.7358	1326.8	445.55
969.041	2416.12	1319.8	440.15
969.1709	2417.5035	1325.25	445.45
969.3008	2418.8863	1327.7	445.65
969.4307	2420.2684	1323.6	444.7
969.5606	2421.6497	1321.3	442.7
969.6904	2423.0304	1321.2	442.1
969.8201	2424.4104	1313.9	432.5
969.9499	2425.7896	1319.9	436.65
970.0796	2427.1682	1317.85	438
970.2093	2428.546	1314.15	432
970.3389	2429.9232	1309.7	428.3
970.4685	2431.2996	1311.65	432.35
970.5981	2432.6753	1306.5	427
970.7277	2434.0503	1312.7	433.35
970.8572	2435.4246	1303.85	424.85
970.9867	2436.7982	1313.5	432.45
971.1161	2438.1711	1297.55	418.35
971.2456	2439.5433	1307.7	426.95
971.375	2440.9148	1307.8	423.3
971.5043	2442.2856	1298.05	418.95
971.6336	2443.6557	1303.65	422.6
971.7629	2445.025	1301.25	421.7
971.8922	2446.3937	1293	411.95
972.0214	2447.7617	1303.9	421.6
972.1506	2449.1289	1296.2	417.25
972.2798	2450.4955	1300.55	417.6
972.4089	2451.8613	1294.25	414.9
972.538	2453.2265	1289.05	408.5
972.6671	2454.5909	1291.65	410.9
972.7961	2455.9546	1296.35	417.55
972.9251	2457.3177	1293.75	412.6
973.0541	2458.68	1294.8	414.6
973.1831	2460.0416	1293.5	413.05
973.312	2461.4025	1298	416.9
973.4408	2462.7627	1310.1	416.3
973.5697	2464.1222	1291.2	410.65
973.6985	2465.4811	1292.5	411.3
973.8273	2466.8392	1295.05	414.65
973.956	2468.1966	1297.75	415.45
974.0847	2469.5533	1291.6	409.3
974.2134	2470.9093	1289.35	408.15
974.3421	2472.2645	1298.7	416.3
974.4707	2473.6191	1282.8	403.5
974.5993	2474.973	1278.9	398.55
974.7278	2476.3262	1290.85	408.55
974.8563	2477.6787	1286.6	407.3
974.9848	2479.0305	1279.05	398.55
975.1132	2480.3816	1280.2	401.15
975.2417	2481.7319	1275.9	396.9
975.37	2483.0816	1277.7	396.7
975.4984	2484.4306	1272.05	390.15
975.6267	2485.7789	1277.75	399.5
975.755	2487.1264	1280.7	399.6
975.8833	2488.4733	1276	398.4
976.0115	2489.8195	1287.4	390.05
976.1397	2491.165	1275.6	392.45
976.2678	2492.5097	1270.15	386.5
976.3959	2493.8538	1265.3	384.7
976.524	2495.1972	1265.4	382.7
976.6521	2496.5398	1271.35	391.4
976.7801	2497.8818	1265	383.45
976.9081	2499.2231	1266.65	387.75
977.036	2500.5637	1268.95	386.9
977.164	2501.9035	1262.35	382.25
977.2918	2503.2427	1263.65	378.25
977.4197	2504.5812	1252.7	372.1
977.5475	2505.919	1259.5	378.35
977.6753	2507.256	1261.5	381.65
977.8031	2508.5924	1254.05	374.3
977.9308	2509.9281	1260.75	375.5
978.0585	2511.2631	1257.3	375.6
978.1861	2512.5974	1255.85	376.75
978.3137	2513.9309	1258.35	376.2
978.4413	2515.2638	1284	369.5
978.5689	2516.596	1250.45	371.35
978.6964	2517.9275	1254.1	372.45
978.8239	2519.2583	1249.85	370.65
978.9513	2520.5884	1252.25	370.2
979.0788	2521.9178	1243.75	363.25
979.2062	2523.2465	1242.25	361.7
979.3335	2524.5745	1249.85	368.1
979.4608	2525.9018	1246.2	366.15
979.5881	2527.2284	1246.75	365.8
979.7154	2528.5543	1243.55	364.05
979.8426	2529.8796	1245.35	365.1
979.9698	2531.2041	1245.3	365.55
980.0969	2532.5279	1249.6	370.75
980.224	2533.851	1245.15	364.15
980.3511	2535.1735	1246.8	365.3
980.4781	2536.4952	1242.95	363.7
980.6052	2537.8163	1239.85	357.85
980.7321	2539.1366	1234.7	356.2
980.8591	2540.4562	1238.95	357.7
980.986	2541.7752	1234.5	355.6
981.1129	2543.0935	1239.3	359.65
981.2397	2544.411	1233.95	354.65
981.3665	2545.7279	1233.75	355.95
981.4933	2547.0441	1235.45	353.55
981.62	2548.3596	1238.3	356.15
981.7467	2549.6744	1233.65	351.25
981.8734	2550.9885	1234.55	353.9
982.0001	2552.3019	1225.35	344.35
982.1267	2553.6146	1233.95	353.3
982.2532	2554.9266	1230.6	350.55
982.3798	2556.2379	1228.8	347.6
982.5063	2557.5485	1227.65	350.25
982.6327	2558.8585	1232.8	345.4
982.7592	2560.1677	1230.95	345.8
982.8856	2561.4762	1226.15	344.75
983.0119	2562.7841	1221.1	338.15
983.1383	2564.0913	1223.2	344.35
983.2646	2565.3977	1223.65	344
983.3908	2566.7035	1223.3	341.95
983.517	2568.0086	1222	339.25
983.6432	2569.313	1225.1	343.4
983.7694	2570.6167	1224.7	340.4
983.8955	2571.9197	1218.15	339.65
984.0216	2573.222	1221.55	337.5
984.1476	2574.5236	1213.35	333.75
984.2737	2575.8246	1219.35	333.7
984.3996	2577.1248	1225.45	341.25
984.5256	2578.4244	1218.4	336.75
984.6515	2579.7232	1225.95	343.25
984.7774	2581.0214	1256.5	344.85
984.9032	2582.3189	1222.7	343.8
985.029	2583.6157	1231.85	346.35
985.1548	2584.9118	1225.1	347.3
985.2806	2586.2072	1217	336.75
985.4063	2587.5019	1223.15	343.2
985.5319	2588.7959	1227	345.4
985.6576	2590.0893	1227.7	344.55
985.7832	2591.3819	1227.7	347.85
985.9087	2592.6739	1229.05	349.9
986.0343	2593.9652	1230.35	348.45
986.1597	2595.2557	1237.25	356.65
986.2852	2596.5456	1234.75	351.6
986.4106	2597.8348	1230.15	349.45
986.536	2599.1234	1236.2	356.1
986.6614	2600.4112	1233.25	352.3
986.7867	2601.6983	1241.5	358.9
986.912	2602.9848	1240.6	358.85
987.0372	2604.2705	1245.95	357.1
987.1624	2605.5556	1235.45	355.8
987.2876	2606.84	1237.1	356.65
987.4128	2608.1237	1237.85	355
987.5379	2609.4067	1238.25	357.9
987.6629	2610.689	1238.85	349.7
987.788	2611.9707	1231.95	349.45
987.913	2613.2516	1232.1	348.2
988.0379	2614.5319	1230.35	351.65
988.1629	2615.8115	1228.35	346.8
988.2878	2617.0903	1229.85	349
988.4126	2618.3685	1229.9	348.65
988.5375	2619.6461	1228.4	347.05
988.6622	2620.9229	1226.35	346.15
988.787	2622.199	1227.35	346.05
988.9117	2623.4745	1232.05	350.6
989.0364	2624.7493	1231.3	352.1
989.161	2626.0234	1228	347.8
989.2857	2627.2968	1229.45	350.75
989.4102	2628.5695	1230.9	347.65
989.5348	2629.8415	1230.5	349.75
989.6593	2631.1128	1230.35	349.65
989.7837	2632.3835	1233.05	352.35
989.9082	2633.6535	1235.85	355.8
990.0326	2634.9228	1229.15	350.6
990.1569	2636.1914	1233.05	352.9
990.2812	2637.4593	1230.9	350.5
990.4055	2638.7265	1226.7	344.05
990.5298	2639.9931	1227	346.05
990.654	2641.259	1230.75	349.4
990.7782	2642.5242	1224.4	342.65
990.9023	2643.7887	1228.5	348.3
991.0264	2645.0525	1226.95	345.75
991.1505	2646.3156	1220.4	338.5
991.2745	2647.5781	1221.55	343.35
991.3985	2648.8398	1220.4	341.6
991.5225	2650.1009	1222.8	333.8
991.6464	2651.3613	1219.5	340.55
991.7703	2652.6211	1220.55	339.05
991.8942	2653.8801	1213.1	334.25
992.018	2655.1385	1222.2	338.3
992.1418	2656.3961	1223.7	340.5
992.2655	2657.6531	1222.6	342.85
992.3892	2658.9094	1221.85	339.4
992.5129	2660.1651	1217.55	338.1
992.6366	2661.42	1227.55	345.65
992.7602	2662.6743	1225.5	344.05
992.8837	2663.9279	1223.3	343.8
993.0073	2665.1808	1226.2	345.9
993.1307	2666.433	1231.35	348.65
993.2542	2667.6846	1228.85	348
993.3776	2668.9354	1232.55	348.9
993.501	2670.1856	1227.7	346.75
993.6244	2671.4351	1232.5	352.4
993.7477	2672.6839	1240.05	359
993.8709	2673.9321	1236	356.95
993.9942	2675.1795	1240.4	361.5
994.1174	2676.4263	1242.4	363.65
994.2405	2677.6724	1244.35	365.9
994.3637	2678.9179	1246.45	364.8
994.4868	2680.1626	1244.75	365.35
994.6098	2681.4067	1246.35	365.05
994.7328	2682.6501	1251.9	372.15
994.8558	2683.8928	1253.1	371.7
994.9788	2685.1348	1244.3	364.8
995.1017	2686.3761	1239.65	359.3
995.2245	2687.6168	1239.25	361.35
995.3474	2688.8568	1232.6	351.3
995.4702	2690.0961	1230.95	352.8
995.5929	2691.3348	1232.6	352.65
995.7156	2692.5727	1234.35	354.2
995.8383	2693.81	1227	347.85
995.961	2695.0466	1220.4	339.75
996.0836	2696.2826	1226.6	345
996.2062	2697.5178	1236.65	352.5
996.3287	2698.7524	1228.45	348.2
996.4512	2699.9863	1231.45	347
996.5737	2701.2195	1227.35	346.6
996.6961	2702.452	1240.3	356.25
996.8185	2703.6839	1241.5	359
996.9408	2704.9151	1244.2	365.4
997.0631	2706.1456	1246.05	366.15
997.1854	2707.3755	1251.45	371.2
997.3077	2708.6046	1262.8	380.05
997.4299	2709.8331	1265.25	382.9
997.552	2711.0609	1273.35	393.9
997.6742	2712.2881	1270.85	389.4
997.7963	2713.5145	1292.5	411.15
997.9183	2714.7403	1293.8	414.1
998.0403	2715.9654	1300.75	420.75
998.1623	2717.1899	1327.75	433.8
998.2842	2718.4136	1325.5	444.6
998.4062	2719.6367	1341.55	460.9
998.528	2720.8591	1345.75	457.7
998.6498	2722.0809	1351.6	471.35
998.7716	2723.3019	1363.2	479.95
998.8934	2724.5223	1370.8	487.3
999.0151	2725.7421	1375.35	494.85
999.1368	2726.9611	1374.3	490.95
999.2584	2728.1795	1384.8	500.95
999.38	2729.3972	1365.1	484.1
999.5016	2730.6142	1364.7	468.9
999.6231	2731.8306	1349.45	465.8
999.7446	2733.0462	1333.55	449.15
999.8661	2734.2612	1320.65	434.55
999.9875	2735.4756	1309.4	427.35
1000.1089	2736.6892	1297.5	416.8
1000.2302	2737.9022	1282.1	403.2
1000.3515	2739.1145	1270.85	390.6
1000.4728	2740.3262	1267.4	380.35
1000.594	2741.5372	1258.35	379.45
1000.7152	2742.7475	1242.65	361.65
1000.8363	2743.9571	1238.65	357.85
1000.9575	2745.1661	1232.3	345.85
1001.0785	2746.3744	1224.1	343.3
1001.1996	2747.582	1218.6	338.05
1001.3206	2748.7889	1215.4	332.05
1001.4415	2749.9952	1202.3	322
1001.5625	2751.2008	1204.85	323.4
1001.6833	2752.4057	1195.85	313.1
1001.8042	2753.61	1195.1	312.95
1001.925	2754.8136	1194.9	312.65
1002.0458	2756.0165	1200.25	319.8
1002.1665	2757.2188	1194.1	314.85
1002.2872	2758.4204	1194.7	314.1
1002.4078	2759.6213	1198.55	316.4
1002.5285	2760.8215	1203.7	318.6
1002.649	2762.0211	1198.65	317.65
1002.7696	2763.22	1199.65	315.05
1002.8901	2764.4182	1193.9	311.7
1003.0106	2765.6158	1194.75	313.25
1003.131	2766.8127	1191.9	311.2
1003.2514	2768.009	1185.05	305.45
1003.3717	2769.2045	1189.05	307
1003.492	2770.3994	1191.25	307.05
1003.6123	2771.5936	1181.95	301.65
1003.7325	2772.7872	1179.65	300.5
1003.8527	2773.9801	1185.2	302.4
1003.9729	2775.1723	1202.15	305.75
1004.093	2776.3639	1182.55	302.95
1004.2131	2777.5548	1187.15	302.65
1004.3331	2778.745	1188.85	306.5
1004.4531	2779.9346	1185.05	304.35
1004.5731	2781.1235	1191.9	309.4
1004.693	2782.3117	1191.8	313.35
1004.8129	2783.4992	1203.5	322.6
1004.9328	2784.6861	1201.95	321
1005.0526	2785.8723	1206.05	324.35
1005.1723	2787.0579	1218.4	335.25
1005.2921	2788.2428	1224.55	344.8
1005.4118	2789.427	1226.6	346
1005.5314	2790.6106	1230.75	350.05
1005.651	2791.7935	1243.5	362.65
1005.7706	2792.9757	1259.65	380.4
1005.8902	2794.1573	1274.6	391.75
1006.0097	2795.3382	1283.4	402.35
1006.1291	2796.5184	1300	419.75
1006.2485	2797.698	1312	429.65
1006.3679	2798.8769	1324.55	444.05
1006.4873	2800.0551	1338.05	455.9
1006.6066	2801.2327	1354.8	472.1
1006.7258	2802.4096	1373.95	494.6
1006.8451	2803.5859	1392.3	510.7
1006.9642	2804.7615	1413.05	531.65
1007.0834	2805.9364	1431.95	551.65
1007.2025	2807.1106	1452.7	574.05
1007.3216	2808.2842	1477.9	595.55
1007.4406	2809.4572	1508.85	627.55
1007.5596	2810.6294	1548.3	667.05
1007.6785	2811.801	1574.7	696.95
1007.7975	2812.972	1607.95	726.15
1007.9163	2814.1423	1643.95	762.85
1008.0352	2815.3119	1683.4	802.25
1008.154	2816.4808	1728.95	850.1
1008.2727	2817.6491	1767.25	886.75
1008.3914	2818.8167	1811.85	933.35
1008.5101	2819.9837	1855.95	972.1
1008.6288	2821.15	1893.2	1014.3
1008.7474	2822.3157	1927.05	1045.95
1008.8659	2823.4807	1963.25	1081.45
1008.9844	2824.645	2002.6	1121.95
1009.1029	2825.8086	2037.05	1156.35
1009.2214	2826.9716	2069.15	1187.65
1009.3398	2828.134	2097.4	1215.55
1009.4581	2829.2957	2127.55	1246.55
1009.5764	2830.4567	2145.05	1265.75
1009.6947	2831.617	2167.15	1287.1
1009.813	2832.7767	2180.75	1300
1009.9312	2833.9358	2181.85	1302.35
1010.0493	2835.0941	2167.5	1283.8
1010.1675	2836.2519	2159.1	1280.8
1010.2855	2837.4089	2151.95	1270.9
1010.4036	2838.5653	2158.05	1277.05
1010.5216	2839.7211	2145.8	1267.1
1010.6396	2840.8761	2161.65	1280.15
1010.7575	2842.0306	2160.85	1284.45
1010.8754	2843.1843	2197.2	1316.05
1010.9932	2844.3374	2254.1	1373.55
1011.111	2845.4899	2294.6	1412.95
1011.2288	2846.6417	2359.45	1478.7
1011.3465	2847.7928	2419.5	1539.35
1011.4642	2848.9433	2497.85	1617.5
1011.5818	2850.0931	2555.85	1675.6
1011.6995	2851.2422	2629.15	1747.25
1011.817	2852.3907	2681.2	1799.7
1011.9345	2853.5385	2746.25	1864.05
1012.052	2854.6857	2807.8	1898.55
1012.1695	2855.8323	2835.85	1953.6
1012.2869	2856.9781	2873.2	1991.55
1012.4042	2858.1233	2920.65	2037.75
1012.5216	2859.2679	2966.25	2086.7
1012.6389	2860.4118	2994.75	2112.35
1012.7561	2861.555	3031.2	2147.2
1012.8733	2862.6976	3054.35	2170.3
1012.9905	2863.8395	3090.1	2210.25
1013.1076	2864.9808	3103.5	2222.6
1013.2247	2866.1214	3110.75	2231
1013.3417	2867.2614	3133.45	2251.15
1013.4587	2868.4007	3136.9	2255.15
1013.5757	2869.5393	3157.25	2275.5
1013.6926	2870.6773	3162.45	2278.1
1013.8095	2871.8146	3183.3	2300.65
1013.9263	2872.9513	3174.15	2291.25
1014.0431	2874.0874	3173.75	2291.85
1014.1599	2875.2227	3172.55	2289.9
1014.2766	2876.3574	3155.7	2274.8
1014.3933	2877.4915	3136.2	2253.5
1014.51	2878.6249	3110.4	2231.55
1014.6266	2879.7577	3079.5	2195.65
1014.7431	2880.8898	3091.4	2200.2
1014.8596	2882.0212	3068.15	2191.3
1014.9761	2883.152	3047.05	2167.75
1015.0925	2884.2821	3039.65	2158.2
1015.2089	2885.4116	3036.1	2155.55
1015.3253	2886.5405	3045.65	2164.45
1015.4416	2887.6686	3058.8	2175.9
1015.5579	2888.7962	3055.9	2175.65
1015.6741	2889.923	3069.55	2189.55
1015.7903	2891.0493	3064.2	2182.45
1015.9065	2892.1748	3077.05	2198.55
1016.0226	2893.2997	3083.45	2201.55
1016.1387	2894.424	3109.4	2230
1016.2547	2895.5476	3117	2237.75
1016.3707	2896.6706	3138.8	2261.1
1016.4866	2897.7929	3173.5	2292.5
1016.6025	2898.9145	3198.35	2316.95
1016.7184	2900.0355	3219.7	2338.4
1016.8342	2901.1559	3265.5	2384.75
1016.95	2902.2756	3270.45	2389.1
1017.0658	2903.3946	3316.9	2436.1
1017.1815	2904.513	3341.1	2456.4
1017.2971	2905.6308	3347.65	2468.15
1017.4127	2906.7479	3375.95	2493.35
1017.5283	2907.8643	3397.55	2513.75
1017.6439	2908.9801	3406.6	2526.25
1017.7594	2910.0953	3402.1	2520.35
1017.8748	2911.2098	3413.35	2528.85
1017.9902	2912.3236	3410.65	2520.45
1018.1056	2913.4368	3399.6	2514.8
1018.2209	2914.5494	3376.85	2496.45
1018.3362	2915.6613	3358.1	2470.7
1018.4515	2916.7725	3335.1	2452.25
1018.5667	2917.8831	3322.55	2440.25
1018.6819	2918.9931	3296.4	2413.4
1018.797	2920.1024	3267	2385.4
1018.9121	2921.211	3251.7	2369.75
1019.0271	2922.319	3223.25	2345.3
1019.1421	2923.4264	3224.3	2344.8
1019.2571	2924.5331	3205.3	2326
1019.372	2925.6391	3200.85	2320.7
1019.4869	2926.7445	3202.3	2323
1019.6017	2927.8493	3185.6	2304.05
1019.7165	2928.9534	3176.9	2296.95
1019.8313	2930.0569	3176.1	2295.15
1019.946	2931.1597	3168.85	2286.9
1020.0606	2932.2619	3150.95	2270.15
1020.1753	2933.3634	3149.05	2268.15
1020.2899	2934.4643	3145.75	2257.65
1020.4044	2935.5645	3129.25	2244
1020.5189	2936.6641	3101.75	2217.85
1020.6334	2937.763	3063.5	2184.85
1020.7478	2938.8613	3017.7	2136.25
1020.8622	2939.959	2971.6	2085.3
1020.9765	2941.056	2896.5	2017.2
1021.0908	2942.1523	2830.4	1948.55
1021.2051	2943.248	2764.45	1884.1
1021.3193	2944.3431	2673.45	1794.05
1021.4334	2945.4375	2596	1715.4
1021.5476	2946.5313	2504.55	1626.25
1021.6617	2947.6244	2422.45	1539.05
1021.7757	2948.7169	2337.3	1455.4
1021.8897	2949.8087	2257.5	1375.6
1022.0037	2950.8999	2187.6	1307.1
1022.1176	2951.9904	2124.9	1246.9
1022.2315	2953.0803	2057.55	1175.65
1022.3453	2954.1696	1998.6	1119.3
1022.4591	2955.2582	1952.45	1072.65
1022.5728	2956.3462	1920.9	1042.4
1022.6865	2957.4335	1888.3	1007.3
1022.8002	2958.5202	1864.6	981
1022.9138	2959.6062	1834	953.4
1023.0274	2960.6916	1819.45	936.9
1023.141	2961.7764	1805.1	923.35
1023.2545	2962.8605	1790.95	909.5
1023.3679	2963.9439	1781.15	899.1
1023.4813	2965.0267	1766.95	885.75
1023.5947	2966.1089	1797.15	895.35
1023.708	2967.1905	1763.4	882.9
1023.8213	2968.2714	1754.05	873
1023.9346	2969.3516	1752.3	872.45
1024.0478	2970.4312	1768.9	880.65
1024.1609	2971.5102	1763.5	883.65
1024.274	2972.5885	1761.6	881.7
1024.3871	2973.6662	1767.85	882.8
1024.5002	2974.7432	1761.15	881.15
1024.6132	2975.8196	1765.7	884.6
1024.7261	2976.8954	1751.65	870.8
1024.839	2977.9705	1740.6	859.75
1024.9519	2979.045	1731.85	852.5
1025.0647	2980.1188	1709.25	828.7
1025.1775	2981.192	1693.45	812.4
1025.2902	2982.2645	1679	797.15
1025.4029	2983.3364	1660.55	781.25
1025.5156	2984.4077	1632.35	751.55
1025.6282	2985.4783	1622.4	737.2
1025.7407	2986.5483	1580.45	701.8
1025.8532	2987.6177	1553.35	674.9
1025.9657	2988.6864	1524.7	644
1026.0782	2989.7545	1498.1	617.45
1026.1906	2990.8219	1469.15	590.25
1026.3029	2991.8887	1441.25	559.8
1026.4152	2992.9548	1424.2	543.45
1026.5275	2994.0204	1399.8	519.5
1026.6397	2995.0852	1368.15	489.25
1026.7519	2996.1495	1350.05	469.85
1026.864	2997.2131	1335.85	456.4
1026.9761	2998.276	1317.35	435.85
1027.0882	2999.3383	1298.8	416.75
1027.2002	3000.4	1284.4	403
1027.3122	3001.4611	1276.6	397.15
1027.4241	3002.5215	1261.2	380
1027.536	3003.5812	1258.6	377.3
1027.6478	3004.6404	1241.15	360.05
1027.7596	3005.6989	1235.65	352.9
1027.8714	3006.7567	1232.95	353.35
1027.9831	3007.8139	1241.1	341.9
1028.0947	3008.8705	1220.5	339.8
1028.2064	3009.9264	1219.55	336.6
1028.3179	3010.9818	1214.4	334
1028.4295	3012.0364	1217.9	336.85
1028.541	3013.0905	1206.05	326.45
1028.6524	3014.1439	1203.7	324.15
1028.7638	3015.1966	1211.45	330.45
1028.8752	3016.2487	1203.8	322.35
1028.9865	3017.3002	1212.3	327.6
1029.0978	3018.3511	1201.5	323.25
1029.209	3019.4013	1206.95	326.95
1029.3202	3020.4509	1200.5	322.3
1029.4314	3021.4998	1208.75	329.15
1029.5425	3022.5481	1207.8	326.75
1029.6535	3023.5958	1203.5	324.3
1029.7645	3024.6428	1211.3	330.55
1029.8755	3025.6892	1210.15	330.9
1029.9864	3026.735	1209.95	331.05
1030.0973	3027.7802	1218.05	337.75
1030.2082	3028.8247	1219.35	339.3
1030.319	3029.8685	1220.35	340.4
1030.4297	3030.9118	1222.15	340.15
1030.5404	3031.9544	1224.85	345.8
1030.6511	3032.9963	1239.2	359.05
1030.7617	3034.0376	1235.9	359.15
1030.8723	3035.0783	1243.3	360.2
1030.9829	3036.1184	1245.55	364.35
1031.0934	3037.1578	1251.75	373.3
1031.2038	3038.1966	1256.25	373.35
1031.3142	3039.2348	1250.6	370.5
1031.4246	3040.2723	1263.25	373.6
1031.5349	3041.3092	1252.7	374.7
1031.6452	3042.3455	1252.5	374.5
1031.7554	3043.3811	1242.3	360.7
1031.8656	3044.4161	1237.55	359.1
1031.9758	3045.4505	1232.1	352.75
1032.0859	3046.4842	1236.9	355.5
1032.1959	3047.5173	1224.35	343.35
1032.3059	3048.5498	1226.65	345.15
1032.4159	3049.5816	1220.35	340.8
1032.5258	3050.6128	1211.35	328.9
1032.6357	3051.6434	1207.8	327
1032.7455	3052.6734	1199.6	318.15
1032.8553	3053.7027	1198.7	319.5
1032.9651	3054.7314	1193.8	313.65
1033.0748	3055.7594	1184.45	305.9
1033.1845	3056.7868	1189.65	308.95
1033.2941	3057.8136	1174.8	296.75
1033.4037	3058.8398	1175.35	294.2
1033.5132	3059.8653	1165.15	285
1033.6227	3060.8902	1166.95	287.25
1033.7321	3061.9145	1159.25	278.95
1033.8415	3062.9381	1157.1	278
1033.9509	3063.9612	1171.95	276.55
1034.0602	3064.9835	1148.9	269.6
1034.1694	3066.0053	1140.3	258.85
1034.2787	3067.0264	1136.9	256.45
1034.3878	3068.0469	1132.1	251.85
1034.497	3069.0668	1127.95	243.45
1034.6061	3070.086	1119.4	239.7
1034.7151	3071.1046	1111.15	228.6
1034.8241	3072.1226	1103.75	222.4
1034.9331	3073.1399	1095.9	216.75
1035.042	3074.1567	1083.6	201.4
1035.1508	3075.1727	1082.4	199.7
1035.2597	3076.1882	1072.5	193.35
1035.3684	3077.203	1062.65	181.9
1035.4772	3078.2173	1058.1	176.7
1035.5859	3079.2308	1055.35	172.3
1035.6945	3080.2438	1047.55	166.75
1035.8031	3081.2561	1039.15	159.7
1035.9117	3082.2678	1035.8	157.1
1036.0202	3083.2789	1029.65	149.8
1036.1286	3084.2893	1025.9	145.45
1036.2371	3085.2991	1019.4	140.5
1036.3454	3086.3083	1023	140.2
1036.4538	3087.3169	1013.55	132.65
1036.562	3088.3248	1011.75	130.45
1036.6703	3089.3321	1011.4	129.5
1036.7785	3090.3388	1004.45	123.3
1036.8866	3091.3449	996.55	116.55
1036.9948	3092.3503	1002.45	118.4
1037.1028	3093.3551	988.45	112.15
1037.2108	3094.3593	989.2	110.85
1037.3188	3095.3629	990.6	111.75
1037.4267	3096.3658	988.65	109.1
1037.5346	3097.3681	983.9	104.25
1037.6425	3098.3698	985.7	103.85
1037.7503	3099.3708	987.8	102.6
1037.858	3100.3713	975.45	96.2
1037.9657	3101.3711	976.95	95.35
1038.0734	3102.3702	1114.1	91.6
1038.181	3103.3688	975.25	92.75
1038.2886	3104.3667	970.3	92.9
1038.3961	3105.364	974	94.5
1038.5036	3106.3607	976.3	93.8
1038.611	3107.3568	971.85	91.65
1038.7184	3108.3522	968.1	88.75
1038.8257	3109.347	968.3	85.95
1038.933	3110.3412	974.95	92.3
1039.0403	3111.3348	966.2	87.95
1039.1475	3112.3277	962.25	81.5
1039.2547	3113.32	962.55	83.35
1039.3618	3114.3117	960.75	79.1
1039.4689	3115.3028	959.7	81.05
1039.5759	3116.2932	963.15	82.4
1039.6829	3117.2831	964.7	77.35
1039.7898	3118.2723	959.1	77.6
1039.8967	3119.2608	958.45	76.4
1040.0035	3120.2488	957.35	78.05
1040.1103	3121.2361	960.8	81.2
1040.2171	3122.2229	957.45	77.85
1040.3238	3123.209	959.1	75.35
1040.4305	3124.1944	952.6	74.3
1040.5371	3125.1793	958.7	79.25
1040.6437	3126.1635	952.25	73.25
1040.7502	3127.1471	952.05	72.9
1040.8567	3128.1301	952.3	72.9
1040.9631	3129.1125	949.85	71.95
1041.0695	3130.0942	952.1	72.1
1041.1759	3131.0753	956.25	67.4
1041.2822	3132.0558	951.1	67.5
1041.3884	3133.0357	948.2	65.9
1041.4946	3134.015	948.05	65.45
1041.6008	3134.9936	951.4	70.35
1041.7069	3135.9716	968.3	67.35
1041.813	3136.949	944.75	63.7
1041.919	3137.9258	961.6	64.95
1042.025	3138.902	949.45	62.35
1042.1309	3139.8775	941.45	61.8
1042.2368	3140.8524	939.4	58.25
1042.3427	3141.8267	944.3	62.05
1042.4485	3142.8004	942.3	62.05
1042.5542	3143.7735	948.45	64.1
1042.6599	3144.7459	940.65	59.35
1042.7656	3145.7178	940.25	59.65
1042.8712	3146.689	938.5	60.25
1042.9768	3147.6596	940.2	58.55
1043.0823	3148.6295	935.55	54.9
1043.1878	3149.5989	936.95	58.2
1043.2932	3150.5676	934.85	56.1
1043.3986	3151.5357	934.15	55.15
1043.5039	3152.5032	938.75	61.2
1043.6092	3153.4701	933.85	52.6
1043.7145	3154.4364	937.4	56.5
1043.8197	3155.402	933.95	55.45
1043.9248	3156.367	935.8	52.35
1044.03	3157.3315	968.85	51.5
1044.135	3158.2952	930.45	50.9
1044.24	3159.2584	929.9	51.6
1044.345	3160.221	929.9	49.65
1044.4499	3161.1829	930.75	49.4
1044.5548	3162.1442	928.5	47.35
1044.6596	3163.105	930.4	50.3
1044.7644	3164.065	928.05	49.05
1044.8692	3165.0245	928.55	46.75
1044.9739	3165.9834	925.95	47.45
1045.0785	3166.9416	927.3	47.95
1045.1831	3167.8993	930.85	50.15
1045.2877	3168.8563	929.1	47.45
1045.3922	3169.8127	930	53.3
1045.4966	3170.7684	926	46.85
1045.6011	3171.7236	923.7	43
1045.7054	3172.6782	923.8	43.25
1045.8098	3173.6321	922.5	43.85
1045.914	3174.5854	927.95	42.95
1046.0183	3175.5381	924.35	43.95
1046.1224	3176.4902	924.55	44.7
1046.2266	3177.4417	920.8	42.6
1046.3307	3178.3926	920.65	40.1
1046.4347	3179.3428	922.15	44.4
1046.5387	3180.2924	922.6	44.6
1046.6427	3181.2415	922.5	42.15
1046.7466	3182.1899	922.65	40.7
1046.8504	3183.1377	924.7	45.6
1046.9542	3184.0848	924.9	42.05
1047.058	3185.0314	921.8	42
1047.1617	3185.9773	922.05	41.85
1047.2654	3186.9227	921.05	40.2
1047.369	3187.8674	923.1	43.95
1047.4726	3188.8115	924.65	40.1
1047.5761	3189.755	919.1	39.6
1047.6796	3190.6979	919.45	39.7
1047.783	3191.6402	918.55	41.65
1047.8864	3192.5818	922.55	43.85
1047.9898	3193.5229	946.65	38.65
1048.0931	3194.4633	920.75	41.55
1048.1963	3195.4031	922.1	40.85
1048.2995	3196.3423	916.85	38.5
1048.4027	3197.2809	917.8	38.3
1048.5058	3198.2189	920.3	40.75
1048.6089	3199.1563	935.3	39
1048.7119	3200.0931	917.15	38.65
1048.8148	3201.0292	917.75	39.85
1048.9178	3201.9648	915.9	37.25
1049.0206	3202.8997	920	35.9
1049.1235	3203.834	916.95	36.75
1049.2262	3204.7677	916.95	37.95
1049.329	3205.7008	916.9	35.65
1049.4317	3206.6333	916.35	38.2
1049.5343	3207.5652	918.25	36.4
1049.6369	3208.4964	913.25	33.6
1049.7394	3209.4271	915.55	36.6
1049.8419	3210.3571	915	34.85
1049.9444	3211.2865	914.35	32.1
1050.0468	3212.2154	916.3	35
1050.1491	3213.1436	918.65	37.75
1050.2514	3214.0712	922.4	36.95
1050.3537	3214.9982	913.05	34.55
1050.4559	3215.9246	914.15	31.6
1050.5581	3216.8503	912	33.55
1050.6602	3217.7755	912.6	32.55
1050.7623	3218.7001	914.15	33.7
1050.8643	3219.624	914.25	33.85
1050.9663	3220.5473	911.35	33.6
1051.0682	3221.4701	914.55	33
1051.1701	3222.3922	915	33.4
1051.2719	3223.3137	912.15	33.35
1051.3737	3224.2346	912.3	33.45
1051.4754	3225.1549	911.35	32.95
1051.5771	3226.0746	912.15	31.7
1051.6788	3226.9937	913.3	32.55
1051.7804	3227.9121	909.6	30.05
1051.8819	3228.83	910.6	30.5
1051.9834	3229.7473	911.5	29
1052.0849	3230.6639	911.3	32.15
1052.1863	3231.5799	913.35	34.3
1052.2876	3232.4954	912.05	30.2
1052.3889	3233.4102	910.35	30.35
1052.4902	3234.3244	911.7	31.35
1052.5914	3235.238	911.7	31.5
1052.6926	3236.151	936.65	31.45
1052.7937	3237.0634	908.35	30.95
1052.8948	3237.9752	909.7	29.6
1052.9958	3238.8864	911.35	31.25
1053.0968	3239.797	908.9	27.45
1053.1977	3240.7069	910.3	30.1
1053.2986	3241.6163	911.8	30.4
1053.3994	3242.5251	905.45	27.3
1053.5002	3243.4332	907.2	28.55
1053.6009	3244.3408	910.3	30.2
1053.7016	3245.2477	908.7	30.8
1053.8022	3246.154	908.75	29.15
1053.9028	3247.0598	906.6	26.9
1054.0034	3247.9649	908.35	29.8
1054.1039	3248.8694	906.65	28.5
1054.2043	3249.7733	907.45	29.1
1054.3047	3250.6766	904.65	24.75
1054.4051	3251.5793	906.75	28.35
1054.5054	3252.4814	904.65	24.9
1054.6056	3253.3829	904.5	26.4
1054.7058	3254.2838	903.7	25.05
1054.806	3255.1841	902.95	24.25
1054.9061	3256.0838	902.9	23.9
1055.0061	3256.9829	903.6	25.65
1055.1062	3257.8814	906.25	24.65
1055.2061	3258.7792	907.8	26.25
1055.306	3259.6765	903.7	24.2
1055.4059	3260.5731	901.1	22.65
1055.5057	3261.4692	903.95	27.55
1055.6055	3262.3647	902	21.9
1055.7052	3263.2595	901.4	22.85
1055.8049	3264.1538	902.6	22.9
1055.9045	3265.0474	902.75	23.35
1056.0041	3265.9404	900.3	20.5
1056.1036	3266.8329	900.7	20.15
1056.2031	3267.7247	911.75	21.45
1056.3025	3268.616	897.3	19.55
1056.4019	3269.5066	900.05	21.1
1056.5013	3270.3966	899.35	17.9
1056.6005	3271.286	896.55	18.4
