Software Version:	3.9.2.0
Unit SN:	10000200
Spectrometer SN:	6960
Date:	3/14/2024 12:43:57 PM
Data Line Index:	25
Spectral Points:	2048
Integration time (ms):	125
Averages:	20
Delay (ms):	30000
Sequence Number:	1
Processing:	dark subtract
Laser Power (mW):	300
Laser Current (mA):	823
Laser Diode Temp (C):	25.1
Laser Case Temp (C):	27.2
System Temp (C):	27.2
Spectrometer Temp (C):	24.9
CCD Temp (C):	0.004
Secondary Temp (C):	20.007
Heatsink Temp (C):	23.256
CCDPCB Temp (C):	36.963
SecondaryPCB Temp (C):	34.551

Wavelength	RamanShift	Raw Counts	Dark Subtracted
787.061	30.1047	417.65	5.35
787.2016	32.3739	416.25	6.25
787.3422	34.6426	416.05	3.9
787.4828	36.9109	421.15	8.15
787.6235	39.1787	422.7	4.75
787.7642	41.4461	428	6.35
787.9049	43.7131	433.4	8
788.0456	45.9796	437.45	8.3
788.1863	48.2456	442	8.7
788.3271	50.5112	447.1	9.9
788.4679	52.7764	448.45	9.3
788.6087	55.0411	452.75	10.8
788.7496	57.3054	458.65	10.95
788.8904	59.5692	461.25	12.7
789.0313	61.8326	465.1	12.25
789.1722	64.0955	472.15	14.2
789.3132	66.3579	480.8	16.95
789.4541	68.6199	485.45	20.85
789.5951	70.8815	493.55	26.7
789.7361	73.1426	505.55	35.5
789.8771	75.4032	535.05	59.55
790.0181	77.6634	596.15	116.35
790.1592	79.9231	736.7	252.3
790.3003	82.1824	1027.95	538.05
790.4414	84.4412	1527.95	1031.45
790.5825	86.6995	2179.65	1671.85
790.7237	88.9574	2818.55	2303.95
790.8648	91.2148	3260.45	2742.65
791.006	93.4717	3470.55	2947.15
791.1472	95.7282	3528.15	3000.8
791.2885	97.9842	3545.85	3017.9
791.4297	100.2398	3524.7	2992.15
791.571	102.4949	3498.95	2963.7
791.7123	104.7495	3483.55	2942.65
791.8536	107.0036	3440.05	2898.45
791.9949	109.2573	3407.1	2867.85
792.1363	111.5105	3341.9	2800.1
792.2777	113.7632	3293.45	2750.85
792.4191	116.0154	3231.85	2677.15
792.5605	118.2672	3163.5	2616.05
792.7019	120.5185	3103.95	2555.95
792.8434	122.7693	3052.65	2502.6
792.9849	125.0197	2994.95	2440.9
793.1264	127.2696	2936.75	2381
793.2679	129.519	2918.85	2360.75
793.4094	131.7679	2886	2324.5
793.551	134.0163	2887.7	2324.7
793.6926	136.2642	2882.7	2311.6
793.8342	138.5117	2885.7	2309
793.9758	140.7587	2874.55	2301.4
794.1175	143.0052	2841	2262.05
794.2591	145.2512	2807.8	2231.35
794.4008	147.4967	2765.6	2187.3
794.5425	149.7417	2745.7	2164.65
794.6842	151.9863	2717	2131.9
794.826	154.2304	2711.15	2123.95
794.9677	156.4739	2698.65	2104.55
795.1095	158.717	2706	2115.75
795.2513	160.9596	2727.35	2128.7
795.3931	163.2017	2736.45	2139.25
795.535	165.4433	2745.65	2143.55
795.6768	167.6844	2745.2	2141.85
795.8187	169.925	2728.05	2121.75
795.9606	172.1651	2689.9	2079.35
796.1025	174.4047	2656.45	2044.7
796.2445	176.6439	2628.9	2014.1
796.3864	178.8825	2603.45	1986.65
796.5284	181.1206	2585.25	1965.35
796.6704	183.3582	2586.45	1959
796.8124	185.5954	2588.6	1961.4
796.9544	187.832	2582.3	1953.3
797.0965	190.0681	2590.35	1956.4
797.2386	192.3037	2587.5	1951.85
797.3806	194.5388	2584.85	1946.3
797.5228	196.7734	2598.5	1957.65
797.6649	199.0075	2606.3	1960.05
797.807	201.2411	2625.5	1976.95
797.9492	203.4742	2635.8	1988
798.0914	205.7068	2654.45	2003.5
798.2336	207.9389	2651.6	2003.85
798.3758	210.1704	2660.35	2010.9
798.518	212.4015	2679.05	2021.3
798.6603	214.632	2681.6	2022.15
798.8025	216.862	2664.8	2014.45
798.9448	219.0915	2671.15	2030.45
799.0871	221.3205	2661.6	2022.45
799.2294	223.549	2661.15	2025.95
799.3718	225.777	2646	2011.1
799.5141	228.0044	2647.55	2007.1
799.6565	230.2314	2647.1	2010.7
799.7989	232.4578	2632.7	1996.5
799.9413	234.6837	2631.65	1985.8
800.0837	236.909	2613.6	1970
800.2262	239.1339	2618.25	1948.1
800.3687	241.3582	2604.55	1950.3
800.5111	243.582	2625.15	1945
800.6536	245.8053	2620.4	1945.3
800.7961	248.0281	2622.3	1952.4
800.9387	250.2503	2626.15	1952.15
801.0812	252.472	2636.3	1956.35
801.2238	254.6932	2636	1952.55
801.3664	256.9139	2628.75	1944.1
801.509	259.134	2650.05	1964.4
801.6516	261.3536	2648.4	1964.4
801.7942	263.5727	2675.95	1988.2
801.9369	265.7912	2695.2	2007.6
802.0795	268.0092	2731.6	2044.45
802.2222	270.2267	2760.75	2072.75
802.3649	272.4436	2785.5	2095.25
802.5076	274.6601	2817.35	2117.75
802.6504	276.8759	2819.2	2127.45
802.7931	279.0913	2819.65	2125.4
802.9359	281.3061	2839.55	2143
803.0787	283.5204	2853.5	2154.7
803.2215	285.7341	2870.8	2168.05
803.3643	287.9473	2881.25	2176.75
803.5071	290.16	2892.15	2180.45
803.6499	292.3721	2855	2150.55
803.7928	294.5837	2825.75	2118.95
803.9357	296.7947	2798.9	2094.7
804.0786	299.0052	2791.35	2085.3
804.2215	301.2152	2774.55	2065.7
804.3644	303.4246	2763.9	2060.05
804.5074	305.6334	2747.2	2043.2
804.6503	307.8418	2737	2028.45
804.7933	310.0495	2723.15	2013
804.9363	312.2568	2698.8	1989.4
805.0793	314.4635	2662.3	1949.3
805.2223	316.6696	2628.15	1914.8
805.3653	318.8752	2604.6	1880.95
805.5084	321.0802	2582.5	1868.55
805.6514	323.2847	2563.75	1847.8
805.7945	325.4887	2564.2	1847.3
805.9376	327.692	2577.75	1858.8
806.0807	329.8949	2600.95	1880.6
806.2238	332.0972	2619.55	1900.15
806.367	334.2989	2638.35	1914.45
806.5101	336.5001	2634.4	1906.85
806.6533	338.7007	2622.35	1896.85
806.7965	340.9008	2600.45	1870.75
806.9397	343.1003	2544.8	1813.95
807.0829	345.2992	2520.25	1789.7
807.2261	347.4976	2487.05	1755.05
807.3693	349.6955	2464.9	1730.25
807.5126	351.8927	2460.95	1723.75
807.6559	354.0895	2454.15	1706.85
807.7991	356.2856	2427.75	1689.25
807.9424	358.4812	2426	1688.7
808.0857	360.6763	2415.45	1675.3
808.2291	362.8707	2405.4	1665
808.3724	365.0646	2406.55	1660.8
808.5158	367.258	2410.8	1665.4
808.6591	369.4508	2422.85	1672.8
808.8025	371.643	2444.8	1696.7
808.9459	373.8346	2457.8	1706.2
809.0893	376.0257	2486.35	1730.6
809.2327	378.2162	2492.6	1738.15
809.3762	380.4062	2517.1	1760.45
809.5196	382.5956	2490.55	1731.8
809.6631	384.7844	2457.4	1698.75
809.8066	386.9726	2421.2	1660.55
809.9501	389.1603	2409.25	1650.55
810.0936	391.3474	2421	1629.15
810.2371	393.5339	2390.95	1630.95
810.3806	395.7199	2381.95	1626.9
810.5241	397.9052	2400.6	1647.45
810.6677	400.09	2416.55	1663.25
810.8113	402.2743	2439.65	1689.4
810.9548	404.4579	2465.85	1712.95
811.0984	406.641	2484.2	1729.7
811.2421	408.8235	2517.9	1765.35
811.3857	411.0054	2559.5	1804.2
811.5293	413.1868	2617.45	1860.7
811.673	415.3675	2687.5	1929.2
811.8166	417.5477	2701.65	1942.35
811.9603	419.7273	2640.75	1877.85
812.104	421.9064	2549.2	1778
812.2477	424.0848	2503.45	1736.25
812.3914	426.2627	2455.85	1684.2
812.5351	428.4399	2418.25	1645.9
812.6788	430.6166	2370.9	1597.1
812.8226	432.7928	2336.05	1560.25
812.9663	434.9683	2306.8	1530.6
813.1101	437.1432	2277.1	1500.1
813.2539	439.3176	2268.4	1488.1
813.3977	441.4914	2253.9	1473.7
813.5415	443.6645	2253.55	1471.45
813.6853	445.8371	2258.7	1476.7
813.8291	448.0091	2257.9	1476
813.973	450.1806	2255.5	1474.85
814.1168	452.3514	2243.25	1461.1
814.2607	454.5216	2240.65	1448.45
814.4046	456.6913	2231.8	1448.4
814.5485	458.8603	2232.95	1447.25
814.6924	461.0288	2245.2	1460.6
814.8363	463.1967	2238.65	1454.8
814.9802	465.3639	2237.6	1451.8
815.1241	467.5306	2234.85	1445.7
815.2681	469.6967	2223.8	1434.95
815.412	471.8622	2219.1	1429.2
815.556	474.0271	2213.1	1425.45
815.7	476.1914	2205.5	1414.35
815.844	478.3551	2191.4	1399.3
815.988	480.5182	2202.35	1409.6
816.132	482.6807	2206.8	1412.4
816.276	484.8426	2211.9	1418.9
816.4201	487.0039	2246.1	1452.4
816.5641	489.1647	2266.8	1471.95
816.7082	491.3248	2300.9	1509.25
816.8522	493.4843	2320.8	1529.95
816.9963	495.6432	2302.35	1508
817.1404	497.8015	2268.1	1469.6
817.2845	499.9592	2256.7	1461.9
817.4286	502.1163	2224.15	1429.35
817.5727	504.2728	2183.55	1384.35
817.7168	506.4287	2178.05	1379.9
817.861	508.5839	2169.45	1371.15
818.0051	510.7386	2147.1	1348.65
818.1493	512.8927	2158.65	1351.95
818.2935	515.0461	2164	1362.9
818.4377	517.199	2166.65	1368.3
818.5818	519.3512	2189.8	1389.95
818.726	521.5029	2246.3	1438.75
818.8703	523.6539	2276.6	1474.2
819.0145	525.8043	2280.5	1477.3
819.1587	527.9541	2244.55	1436
819.303	530.1033	2201.35	1395.45
819.4472	532.2519	2164.85	1358.1
819.5915	534.3999	2153.25	1344.75
819.7357	536.5472	2139.3	1330.9
819.88	538.694	2141.75	1333.25
820.0243	540.8401	2156.55	1349.7
820.1686	542.9856	2166.4	1356.3
820.3129	545.1305	2163.4	1354.85
820.4572	547.2748	2172.5	1364.5
820.6016	549.4185	2187.8	1373.9
820.7459	551.5615	2177.4	1365.8
820.8902	553.704	2195.75	1381.45
821.0346	555.8458	2200.3	1389.1
821.1789	557.987	2217.05	1408.3
821.3233	560.1276	2229.5	1416.65
821.4677	562.2675	2264.85	1456.15
821.6121	564.4069	2306.45	1494.2
821.7565	566.5456	2333.3	1527.15
821.9009	568.6837	2322.3	1512.55
822.0453	570.8212	2267.45	1456.1
822.1897	572.958	2211.85	1398.8
822.3342	575.0942	2199.75	1388.95
822.4786	577.2299	2166.85	1353.7
822.6231	579.3648	2146.75	1334.1
822.7675	581.4992	2135.9	1319.6
822.912	583.6329	2131.75	1318.4
823.0565	585.766	2133.25	1318.65
823.201	587.8985	2162.3	1348
823.3454	590.0304	2211.15	1383
823.4899	592.1616	2215.8	1393.95
823.6345	594.2922	2218.35	1400.1
823.779	596.4222	2183.1	1364.15
823.9235	598.5515	2152.85	1335.2
824.068	600.6802	2105.05	1283.6
824.2126	602.8083	2085.85	1262.6
824.3571	604.9358	2083	1261.75
824.5017	607.0626	2068.4	1247.75
824.6462	609.1888	2079.75	1257.95
824.7908	611.3144	2085.4	1264.8
824.9354	613.4393	2112.85	1291.4
825.08	615.5636	2151.75	1328.8
825.2246	617.6873	2178	1358.05
825.3692	619.8103	2197.05	1372.6
825.5138	621.9327	2195.5	1369.4
825.6584	624.0544	2191.25	1367.9
825.803	626.1756	2132.85	1309.1
825.9477	628.2961	2102.9	1278.15
826.0923	630.4159	2088.2	1263
826.237	632.5351	2080.3	1256.9
826.3816	634.6537	2080.05	1253.6
826.5263	636.7716	2074.65	1246.9
826.6709	638.8889	2062.85	1234.8
826.8156	641.0056	2067.75	1237.7
826.9603	643.1216	2073.45	1245.7
827.105	645.237	2079.85	1248.15
827.2497	647.3518	2075.35	1245.15
827.3944	649.4659	2053.6	1224.15
827.5391	651.5793	2031.45	1201
827.6838	653.6922	2019.2	1188.65
827.8285	655.8043	2018.9	1188.9
827.9733	657.9159	2006.3	1172.4
828.118	660.0268	1999.65	1164.05
828.2627	662.137	1996.05	1163.95
828.4075	664.2466	1990.85	1158.25
828.5522	666.3556	2006.35	1174.65
828.697	668.4639	1993.7	1154.6
828.8418	670.5716	1990.3	1157.05
828.9865	672.6786	1987.3	1151.45
829.1313	674.785	1976.3	1139.25
829.2761	676.8907	1974.3	1139.8
829.4209	678.9958	1966.3	1130.15
829.5657	681.1002	1962	1127.1
829.7105	683.204	1969.5	1130.3
829.8553	685.3072	1964.3	1127.6
830.0001	687.4097	1964.4	1128.7
830.1449	689.5115	1963.65	1124.15
830.2898	691.6127	1967.05	1130.7
830.4346	693.7132	1965.4	1127.1
830.5794	695.8131	1980.9	1129.3
830.7243	697.9123	1964.75	1125.1
830.8691	700.0109	1975.35	1134.75
831.014	702.1089	1976.4	1136.2
831.1588	704.2061	1984.75	1146.6
831.3037	706.3028	1987.85	1145.7
831.4486	708.3987	2013.3	1173.5
831.5935	710.4941	2011.7	1169.65
831.7383	712.5887	2022.1	1181.9
831.8832	714.6827	2021.45	1176.05
832.0281	716.7761	2023	1182.7
832.173	718.8688	2008.85	1165
832.3179	720.9608	2012.9	1165.9
832.4628	723.0522	2013.65	1168.85
832.6077	725.1429	2019.8	1177.85
832.7527	727.233	2044.6	1201.3
832.8976	729.3224	2090.45	1247.3
833.0425	731.4112	2131.9	1288.5
833.1874	733.4993	2139.85	1293.85
833.3324	735.5867	2109.6	1265.2
833.4773	737.6735	2065.95	1220.6
833.6222	739.7596	2030.45	1183.95
833.7672	741.845	2016.75	1168.45
833.9122	743.9298	2016.85	1166.3
834.0571	746.014	2026.1	1179
834.2021	748.0974	2040.4	1192.7
834.347	750.1802	2039.95	1192.45
834.492	752.2624	2020.8	1175.35
834.637	754.3439	2012.9	1165.65
834.782	756.4247	2002	1146.1
834.9269	758.5048	1993.05	1145.5
835.0719	760.5843	2002.1	1154.35
835.2169	762.6631	2013.55	1164.8
835.3619	764.7413	2035.15	1186.6
835.5069	766.8188	2106	1256
835.6519	768.8956	2155.05	1302.5
835.7969	770.9718	2186.75	1338.5
835.9419	773.0473	2180.55	1332.65
836.0869	775.1221	2151.75	1302.5
836.232	777.1962	2139.1	1289.45
836.377	779.2697	2172.85	1321.35
836.522	781.3426	2246.4	1385.2
836.667	783.4147	2285.4	1434.25
836.8121	785.4862	2276.25	1425.45
836.9571	787.557	2233.1	1382.2
837.1021	789.6271	2135.8	1285.3
837.2472	791.6966	2057.6	1207.05
837.3922	793.7654	1983.55	1130.25
837.5373	795.8335	1949.3	1097.4
837.6823	797.901	1928.4	1075.4
837.8274	799.9678	1928.25	1075.15
837.9724	802.0339	1920.65	1070.9
838.1175	804.0993	1939.1	1077.7
838.2626	806.1641	1921.45	1066.35
838.4076	808.2282	1902	1049.05
838.5527	810.2916	1900.5	1044.75
838.6978	812.3544	1886.6	1033.4
838.8428	814.4164	1880.6	1028.4
838.9879	816.4778	1888.7	1033.6
839.133	818.5385	1887.55	1033.5
839.2781	820.5986	1908.4	1055.25
839.4232	822.658	1939.9	1085.7
839.5682	824.7166	1979.4	1126.35
839.7133	826.7747	2042.1	1188.15
839.8584	828.832	2087.3	1232.7
840.0035	830.8886	2119.05	1260.05
840.1486	832.9446	2139.45	1284.1
840.2937	834.9999	2120.3	1265.35
840.4388	837.0545	2074.75	1215.75
840.5839	839.1085	2025.25	1171.1
840.729	841.1618	1967.9	1109.1
840.8741	843.2143	1934.5	1078.95
841.0192	845.2662	1913.45	1057.85
841.1643	847.3175	1897.35	1040.15
841.3095	849.368	1881.8	1025.2
841.4546	851.4179	1883.45	1026.35
841.5997	853.467	1890.15	1035.25
841.7448	855.5155	1881.15	1025
841.8899	857.5633	1890.25	1033.8
842.0351	859.6105	1880.5	1023.2
842.1802	861.6569	1872.55	1014.75
842.3253	863.7027	1862.95	1004.05
842.4704	865.7478	1862.15	1002.15
842.6156	867.7922	1850.6	993.2
842.7607	869.8359	1839.3	981.6
842.9058	871.8789	1843.7	982.15
843.0509	873.9212	1866.9	971.25
843.1961	875.9629	1840.1	981.15
843.3412	878.0039	1842.55	983.15
843.4863	880.0441	1863.4	1004.75
843.6315	882.0837	1869.1	1008.25
843.7766	884.1226	1876.25	1015.45
843.9218	886.1609	1899.1	1040
844.0669	888.1984	1930.55	1072.05
844.212	890.2352	1960.25	1100.2
844.3572	892.2714	1975.1	1109.7
844.5023	894.3069	1941.3	1080.65
844.6475	896.3416	1919.7	1058.15
844.7926	898.3757	1886.4	1026.45
844.9377	900.4091	1868.45	1008.35
845.0829	902.4418	1870.35	1004.05
845.228	904.4739	1899.1	1034.8
845.3732	906.5052	1894.55	1031.2
845.5183	908.5358	1888.75	1028.45
845.6635	910.5658	1885.3	1022.4
845.8086	912.595	1855.9	993.2
845.9538	914.6236	1822.85	961.15
846.0989	916.6515	1815.4	952.75
846.2441	918.6786	1799.9	935.55
846.3892	920.7051	1782.45	919.05
846.5344	922.7309	1779.85	916
846.6795	924.756	1781.15	918.95
846.8246	926.7804	1796.6	931.3
846.9698	928.8041	1793.75	927.85
847.1149	930.8272	1799.9	937.15
847.2601	932.8495	1809.85	944.75
847.4052	934.8711	1819.55	957.2
847.5504	936.892	1815.75	950.55
847.6955	938.9123	1818.6	953.2
847.8407	940.9318	1843.1	981.1
847.9858	942.9506	1850.05	985.8
848.131	944.9688	1846.75	980.85
848.2761	946.9862	1832.75	967.2
848.4213	949.003	1806.65	941
848.5664	951.019	1782	916.75
848.7115	953.0344	1776	908.6
848.8567	955.0491	1768.05	901.75
849.0018	957.063	1757.4	891.3
849.147	959.0763	1753.1	887.7
849.2921	961.0888	1752.45	885
849.4373	963.1007	1755.75	889.7
849.5824	965.1119	1746.95	881.25
849.7275	967.1223	1742.1	875.95
849.8727	969.1321	1744.4	877.5
850.0178	971.1412	1734.65	870.1
850.1629	973.1495	1726.75	859.5
850.3081	975.1572	1777.3	859.25
850.4532	977.1641	1734.75	868.1
850.5983	979.1704	1727.65	859.6
850.7435	981.1759	1722.4	850.7
850.8886	983.1808	1722.7	853.95
851.0337	985.1849	1729.65	852.75
851.1788	987.1884	1716.2	846
851.324	989.1911	1722.15	851.3
851.4691	991.1932	1719.2	852.5
851.6142	993.1945	1710.05	842.15
851.7593	995.1951	1712	844.9
851.9045	997.1951	1713.15	839
852.0496	999.1943	1705.2	836.1
852.1947	1001.1928	1708.65	840.05
852.3398	1003.1906	1710.3	842.95
852.4849	1005.1877	1730.45	860.2
852.63	1007.1841	1730.05	860.95
852.7751	1009.1798	1749.35	879.4
852.9202	1011.1748	1744.15	874
853.0653	1013.1691	1723.55	853.1
853.2104	1015.1627	1703.35	834
853.3555	1017.1556	1672.05	804.15
853.5006	1019.1477	1661.9	789.75
853.6457	1021.1392	1653.45	784.2
853.7908	1023.1299	1650.85	780.25
853.9359	1025.12	1645.35	773.45
854.081	1027.1093	1649.2	778.85
854.2261	1029.0979	1659.45	790.8
854.3712	1031.0859	1670.9	801.65
854.5163	1033.0731	1671.75	801.5
854.6613	1035.0596	1672.3	802.9
854.8064	1037.0454	1668.8	797.8
854.9515	1039.0304	1657.55	785.35
855.0965	1041.0148	1644.75	774.6
855.2416	1042.9985	1627.85	756.7
855.3867	1044.9814	1628.2	757.75
855.5317	1046.9636	1618.1	746.8
855.6768	1048.9452	1622.7	751.15
855.8219	1050.926	1632.85	762.8
855.9669	1052.9061	1636.3	766.35
856.112	1054.8855	1642.15	769.4
856.257	1056.8642	1644.25	773.2
856.4021	1058.8421	1639	764
856.5471	1060.8194	1643	771.95
856.6921	1062.7959	1630.45	760.65
856.8372	1064.7717	1632.7	760.5
856.9822	1066.7469	1624.6	752.55
857.1272	1068.7213	1636.05	760.35
857.2723	1070.695	1639.75	767.75
857.4173	1072.6679	1647.55	775.35
857.5623	1074.6402	1660.55	786.75
857.7073	1076.6117	1676.25	800.45
857.8523	1078.5826	1649.35	775.85
857.9973	1080.5527	1623.5	747.1
858.1423	1082.5221	1603.55	730.3
858.2873	1084.4908	1583.5	712.05
858.4323	1086.4587	1574.75	700.7
858.5773	1088.426	1573	700.3
858.7223	1090.3925	1570.35	689.9
858.8673	1092.3584	1565.9	694.5
859.0123	1094.3235	1581.05	709.1
859.1573	1096.2879	1581.6	708.75
859.3022	1098.2515	1592.65	718.9
859.4472	1100.2145	1613.65	739.45
859.5922	1102.1767	1635.55	759.15
859.7371	1104.1382	1654.9	782.35
859.8821	1106.099	1686.35	811.05
860.027	1108.0591	1717.9	846.15
860.172	1110.0185	1740.85	864.75
860.3169	1111.9771	1761.4	886.1
860.4619	1113.9351	1792.95	917
860.6068	1115.8923	1827.8	954.75
860.7517	1117.8488	1855.85	978
860.8967	1119.8045	1822.35	948.95
861.0416	1121.7596	1755.2	880.1
861.1865	1123.7139	1684.25	809.75
861.3314	1125.6675	1648.9	774.45
861.4763	1127.6204	1660.55	787.2
861.6212	1129.5726	1673	797.25
861.7661	1131.524	1660.25	786.65
861.911	1133.4748	1640.1	764.3
862.0559	1135.4248	1598.2	720.25
862.2008	1137.3741	1564	690.55
862.3457	1139.3226	1549.8	674.95
862.4905	1141.2705	1544.05	668.1
862.6354	1143.2176	1556.75	675.65
862.7803	1145.164	1563.8	687.15
862.9251	1147.1097	1556.45	681.2
863.07	1149.0546	1548.55	671.35
863.2148	1150.9989	1524.95	648.1
863.3597	1152.9424	1517.25	641.35
863.5045	1154.8852	1503.15	625.35
863.6493	1156.8272	1491.15	616.45
863.7942	1158.7686	1504.25	621.3
863.939	1160.7092	1496.1	621.05
864.0838	1162.6491	1501.2	623.85
864.2286	1164.5883	1499.6	622.55
864.3734	1166.5267	1512.4	635.6
864.5182	1168.4644	1531.8	657.5
864.663	1170.4014	1537.3	657.25
864.8078	1172.3377	1563.55	691.85
864.9526	1174.2732	1597.65	722.15
865.0974	1176.2081	1639	763.75
865.2421	1178.1421	1719.9	838.45
865.3869	1180.0755	1786.8	910.4
865.5317	1182.0082	1840.8	964.55
865.6764	1183.9401	1834.9	955.95
865.8212	1185.8713	1771.05	895.75
865.9659	1187.8017	1693.8	816.7
866.1106	1189.7315	1620.8	743.7
866.2554	1191.6605	1597.75	692.8
866.4001	1193.5888	1535.2	658.75
866.5448	1195.5163	1521.9	645.4
866.6895	1197.4432	1509.2	630.3
866.8342	1199.3693	1491.65	617.1
866.9789	1201.2947	1483.75	601.1
867.1236	1203.2193	1481.95	604.55
867.2683	1205.1432	1473.75	596.45
867.413	1207.0664	1471.4	592.45
867.5576	1208.9889	1474.3	592.65
867.7023	1210.9106	1473.35	598
867.847	1212.8316	1462.6	583.55
867.9916	1214.7519	1482.65	594.2
868.1363	1216.6715	1466.85	590.05
868.2809	1218.5903	1485.7	608.05
868.4255	1220.5084	1483.65	606.3
868.5701	1222.4257	1494.9	615.45
868.7148	1224.3424	1504.05	627.65
868.8594	1226.2583	1517.95	633.1
869.004	1228.1735	1537.75	658.9
869.1486	1230.0879	1551.7	673.2
869.2932	1232.0016	1580.3	701.2
869.4377	1233.9146	1603.15	722.65
869.5823	1235.8269	1609.7	730.55
869.7269	1237.7384	1610.25	730.55
869.8715	1239.6492	1606.1	730.15
870.016	1241.5592	1623.85	744.55
870.1606	1243.4686	1644.65	767.45
870.3051	1245.3772	1679.25	800.25
870.4496	1247.285	1737.05	857.2
870.5941	1249.1922	1777.75	899.3
870.7387	1251.0986	1828.3	951.6
870.8832	1253.0042	1862.2	982.95
871.0277	1254.9092	1926.85	1047.7
871.1722	1256.8134	1972.9	1095.9
871.3167	1258.7169	2025.75	1145.85
871.4611	1260.6196	2061	1183.9
871.6056	1262.5216	2071.5	1189.05
871.7501	1264.4229	2064.4	1186.75
871.8945	1266.3234	2045.75	1167.6
872.039	1268.2232	2010.55	1129.65
872.1834	1270.1223	1974.05	1093
872.3278	1272.0207	1950.1	1069.25
872.4723	1273.9183	1941.6	1057.3
872.6167	1275.8151	1933.55	1054.45
872.7611	1277.7113	1956.55	1075.35
872.9055	1279.6067	2005	1126.05
873.0499	1281.5014	2088.95	1207.15
873.1943	1283.3953	2202.75	1320.55
873.3386	1285.2885	2310.25	1433.35
873.483	1287.181	2413.25	1531.4
873.6274	1289.0727	2452.9	1575.15
873.7717	1290.9637	2410.5	1529.05
873.9161	1292.854	2361.3	1481.35
874.0604	1294.7435	2282.15	1400.45
874.2047	1296.6323	2195	1315.25
874.349	1298.5204	2142.65	1258.25
874.4933	1300.4077	2084.55	1202.9
874.6376	1302.2943	2047.5	1167.6
874.7819	1304.1802	2024.9	1145.35
874.9262	1306.0653	2004.5	1121.9
875.0705	1307.9497	1987.1	1108.3
875.2147	1309.8333	1977.75	1097.95
875.359	1311.7162	1949.45	1069.7
875.5032	1313.5984	1936.35	1051.5
875.6475	1315.4798	1937	1045.5
875.7917	1317.3605	1945.15	1049.55
875.9359	1319.2405	1930.1	1047.15
876.0801	1321.1197	1928	1044.6
876.2243	1322.9982	1897.5	1011.8
876.3685	1324.876	1847.65	966.65
876.5127	1326.753	1801.45	921.5
876.6569	1328.6293	1733.4	850.6
876.801	1330.5048	1686.05	803.9
876.9452	1332.3796	1632.8	753.85
877.0893	1334.2537	1629.45	722.85
877.2335	1336.127	1575.25	692.35
877.3776	1337.9996	1554.5	672.25
877.5217	1339.8714	1545.05	663.4
877.6658	1341.7426	1568.25	644.9
877.8099	1343.6129	1520.75	640.45
877.954	1345.4826	1503.35	621.6
878.0981	1347.3515	1500	615.55
878.2422	1349.2196	1488.6	605.7
878.3862	1351.087	1494.7	614.6
878.5303	1352.9537	1480.1	598.35
878.6743	1354.8197	1476.6	595.15
878.8184	1356.6849	1485.55	603.8
878.9624	1358.5493	1498.95	618.9
879.1064	1360.4131	1516	633.15
879.2504	1362.276	1530.95	653
879.3944	1364.1383	1550.7	671.8
879.5384	1365.9998	1571.5	685.85
879.6823	1367.8606	1552.05	671.6
879.8263	1369.7206	1553.9	670.1
879.9702	1371.5799	1545.75	662.95
880.1142	1373.4384	1547.55	666.4
880.2581	1375.2962	1530.35	646.75
880.402	1377.1533	1499.25	619.35
880.5459	1379.0096	1462.3	579.75
880.6898	1380.8652	1447.8	565.65
880.8337	1382.7201	1437.45	556.15
880.9776	1384.5742	1415.75	531.8
881.1215	1386.4275	1399.7	516.95
881.2653	1388.2802	1393.4	513.7
881.4092	1390.132	1389.95	507.9
881.553	1391.9832	1372.35	490.3
881.6968	1393.8336	1374.3	491.8
881.8406	1395.6832	1368.4	483.05
881.9844	1397.5322	1363.4	480.5
882.1282	1399.3803	1361.3	475.8
882.272	1401.2278	1348.85	467
882.4158	1403.0745	1348.1	466.4
882.5595	1404.9204	1334.85	454.65
882.7033	1406.7656	1334.9	451.3
882.847	1408.6101	1331.85	448.9
882.9908	1410.4538	1323.9	441.75
883.1345	1412.2968	1324.5	442.4
883.2782	1414.139	1328.45	447.15
883.4219	1415.9805	1332.95	450.5
883.5656	1417.8213	1344.9	456.05
883.7092	1419.6613	1347.25	466.85
883.8529	1421.5006	1365.35	482.85
883.9965	1423.3391	1389.35	507.4
884.1402	1425.1769	1416.35	531.6
884.2838	1427.0139	1460.7	577.45
884.4274	1428.8502	1510.15	626.25
884.571	1430.6858	1551.75	669.55
884.7146	1432.5206	1565	679.9
884.8582	1434.3547	1563.35	680.7
885.0018	1436.188	1547.4	663.75
885.1453	1438.0206	1540.6	659.65
885.2889	1439.8524	1529.35	645.9
885.4324	1441.6835	1526.55	643.3
885.5759	1443.5139	1536.35	650.4
885.7194	1445.3435	1518.05	634.35
885.8629	1447.1724	1534.8	654.95
886.0064	1449.0005	1526.9	644.2
886.1499	1450.8279	1532.4	646
886.2933	1452.6545	1523.55	640.8
886.4368	1454.4804	1519.25	635.4
886.5802	1456.3056	1519.9	630.65
886.7237	1458.13	1503.95	621.15
886.8671	1459.9536	1482.45	600.9
887.0105	1461.7766	1463.05	580.95
887.1539	1463.5987	1437.35	552.4
887.2972	1465.4202	1420.5	541.6
887.4406	1467.2409	1397.95	512.4
887.584	1469.0608	1382.7	500.35
887.7273	1470.88	1358.55	475.25
887.8706	1472.6984	1343.05	460.6
888.0139	1474.5161	1331.55	444.95
888.1572	1476.3331	1321.3	437.5
888.3005	1478.1493	1322.05	437.85
888.4438	1479.9648	1315.2	430.45
888.5871	1481.7795	1313.6	429
888.7303	1483.5935	1310.1	427.45
888.8736	1485.4067	1314.9	431.75
889.0168	1487.2192	1309.35	426.7
889.16	1489.031	1312.05	426.55
889.3032	1490.842	1307.25	423.15
889.4464	1492.6522	1304.65	423.3
889.5896	1494.4618	1309.8	426.15
889.7327	1496.2705	1302	417.5
889.8759	1498.0785	1299.95	415.95
890.019	1499.8858	1298.15	413.8
890.1622	1501.6924	1285.8	403.3
890.3053	1503.4981	1291.5	410.2
890.4484	1505.3032	1287.1	401.8
890.5914	1507.1075	1277.15	395
890.7345	1508.911	1279.7	396
890.8776	1510.7138	1274.6	390.6
891.0206	1512.5159	1267.4	383.95
891.1637	1514.3172	1265.45	382.95
891.3067	1516.1178	1259.35	376.1
891.4497	1517.9176	1262.45	375.35
891.5927	1519.7166	1252.45	370.25
891.7357	1521.515	1255.75	365.9
891.8786	1523.3126	1246.95	364.35
892.0216	1525.1094	1244.35	361.15
892.1645	1526.9055	1243.3	360.45
892.3074	1528.7008	1238	353.2
892.4503	1530.4954	1241.75	350.7
892.5932	1532.2893	1235.95	354.3
892.7361	1534.0824	1235.8	347.35
892.879	1535.8747	1231.5	348.4
893.0218	1537.6663	1230.95	344.95
893.1647	1539.4572	1227.35	343.4
893.3075	1541.2473	1228.9	342.55
893.4503	1543.0367	1230.85	348.4
893.5931	1544.8253	1233.55	347.1
893.7359	1546.6132	1230.45	341.25
893.8787	1548.4003	1241.2	347.25
894.0214	1550.1867	1241.1	345.1
894.1642	1551.9723	1246.8	354.95
894.3069	1553.7572	1244.65	359.45
894.4496	1555.5414	1256.55	372.3
894.5923	1557.3247	1266.75	382.5
894.735	1559.1074	1294.45	409.45
894.8777	1560.8893	1307.75	425.65
895.0204	1562.6705	1334.65	451.05
895.163	1564.4509	1346.35	461.7
895.3056	1566.2305	1356	473.05
895.4482	1568.0094	1354.75	469.95
895.5908	1569.7876	1349.85	465.2
895.7334	1571.565	1354.75	470.7
895.876	1573.3417	1345.5	461.05
896.0186	1575.1176	1346.4	460.8
896.1611	1576.8928	1361.3	474.55
896.3036	1578.6672	1364.05	480.3
896.4461	1580.4409	1386.5	504.75
896.5886	1582.2138	1398.3	512.45
896.7311	1583.986	1435	551.1
896.8736	1585.7575	1440.4	558
897.0161	1587.5282	1468.65	586.4
897.1585	1589.2981	1473.3	590
897.3009	1591.0673	1483.1	597.8
897.4433	1592.8358	1489.7	605.7
897.5857	1594.6035	1492.5	605.65
897.7281	1596.3704	1483.8	599.55
897.8705	1598.1366	1465.9	582.85
898.0128	1599.9021	1448.5	564.1
898.1551	1601.6668	1438.85	551.5
898.2975	1603.4308	1427.85	543.05
898.4398	1605.194	1431.2	542.55
898.5821	1606.9564	1447.8	562.4
898.7243	1608.7182	1476.1	588.45
898.8666	1610.4791	1514.6	629.4
899.0088	1612.2394	1573.35	688.2
899.1511	1613.9988	1625.9	742
899.2933	1615.7576	1669.7	785.95
899.4355	1617.5156	1692.6	804.2
899.5776	1619.2728	1681.45	799.5
899.7198	1621.0293	1622.45	741.05
899.862	1622.785	1568.95	680.35
900.0041	1624.54	1495.5	608.95
900.1462	1626.2942	1433.1	547.2
900.2883	1628.0477	1375.5	486.8
900.4304	1629.8005	1335.65	447.95
900.5725	1631.5525	1288.35	401.6
900.7145	1633.3037	1267.2	382.55
900.8566	1635.0542	1239.1	353.4
900.9986	1636.804	1224.3	339.7
901.1406	1638.553	1267.4	318.6
901.2826	1640.3013	1192.9	308.15
901.4245	1642.0488	1184.6	299
901.5665	1643.7955	1179.15	294.55
901.7085	1645.5416	1165.95	279.5
901.8504	1647.2868	1162.2	278.5
901.9923	1649.0313	1159.4	275.7
902.1342	1650.7751	1158.5	271.15
902.2761	1652.5181	1147.85	262.35
902.4179	1654.2604	1151.85	267.15
902.5598	1656.0019	1154	270.8
902.7016	1657.7427	1159.15	273.95
902.8434	1659.4828	1168.9	285
902.9852	1661.222	1192.25	306.25
903.127	1662.9606	1208.3	323.35
903.2687	1664.6984	1216.85	333.35
903.4105	1666.4354	1230.25	342.9
903.5522	1668.1717	1221.5	336.9
903.6939	1669.9072	1200.85	317.55
903.8356	1671.642	1171.05	284.9
903.9773	1673.3761	1151.2	267.35
904.119	1675.1094	1134.6	249.95
904.2606	1676.8419	1123.4	237.65
904.4022	1678.5737	1115.6	230.7
904.5439	1680.3048	1113.8	229.75
904.6855	1682.0351	1107.75	223.55
904.827	1683.7646	1101.7	213.1
904.9686	1685.4934	1091.65	206.7
905.1101	1687.2215	1096.45	211.65
905.2517	1688.9488	1095.6	210.25
905.3932	1690.6754	1086.9	204.2
905.5347	1692.4012	1088.8	202.7
905.6761	1694.1263	1088.4	203.7
905.8176	1695.8506	1090.85	206.25
905.9591	1697.5742	1086.05	201.9
906.1005	1699.297	1080.95	195.7
906.2419	1701.0191	1084.2	198.3
906.3833	1702.7404	1079.05	194.35
906.5246	1704.461	1077.1	190
906.666	1706.1808	1076.45	190.3
906.8073	1707.8999	1075.85	189.15
906.9487	1709.6182	1073.5	186.6
907.09	1711.3358	1068.1	184.3
907.2313	1713.0527	1073.3	190.7
907.3725	1714.7688	1078.05	187.4
907.5138	1716.4841	1073.9	186.2
907.655	1718.1987	1073.8	182.55
907.7962	1719.9126	1065.25	181.1
907.9374	1721.6257	1072.85	185.55
908.0786	1723.338	1068.65	181.3
908.2198	1725.0496	1066.05	179.9
908.3609	1726.7605	1064.6	178.75
908.502	1728.4706	1066.55	180.2
908.6431	1730.18	1064.45	175.05
908.7842	1731.8886	1061.25	174.95
908.9253	1733.5964	1085.8	180.1
909.0664	1735.3036	1067.4	180.35
909.2074	1737.0099	1062.95	177.55
909.3484	1738.7156	1061.8	180.9
909.4894	1740.4204	1064.2	175.5
909.6304	1742.1246	1064	178.5
909.7714	1743.8279	1061.2	176.45
909.9123	1745.5306	1064.7	177.9
910.0532	1747.2325	1059	172.3
910.1941	1748.9336	1061.8	176.7
910.335	1750.634	1060.7	174.95
910.4759	1752.3336	1061	174.55
910.6168	1754.0325	1057.15	171.95
910.7576	1755.7307	1054.3	169.25
910.8984	1757.4281	1056.8	172.6
911.0392	1759.1247	1062.15	168.8
911.18	1760.8206	1068.45	178.75
911.3208	1762.5158	1062.9	172.8
911.4615	1764.2102	1056.4	172.4
911.6022	1765.9039	1057.55	170.95
911.7429	1767.5968	1054.2	170.85
911.8836	1769.289	1050.45	164
912.0243	1770.9804	1056.45	171.2
912.1649	1772.6711	1053.95	168.4
912.3056	1774.361	1054	166.7
912.4462	1776.0502	1055	170.3
912.5868	1777.7386	1054.6	164.8
912.7274	1779.4263	1053.6	166.45
912.8679	1781.1132	1050.1	164.35
913.0084	1782.7994	1054.4	165.5
913.149	1784.4849	1051.9	167.45
913.2895	1786.1696	1068.95	163
913.4299	1787.8535	1050.4	163.7
913.5704	1789.5367	1045.15	157.4
913.7108	1791.2192	1048.75	161.05
913.8513	1792.9009	1061.95	162.9
913.9917	1794.5818	1047.25	160.55
914.132	1796.2621	1044.8	159.9
914.2724	1797.9415	1047.65	163.15
914.4128	1799.6202	1043.45	157.85
914.5531	1801.2982	1039.3	155.85
914.6934	1802.9755	1042.55	156.65
914.8337	1804.6519	1041.75	156.75
914.9739	1806.3277	1043.95	159.05
915.1142	1808.0027	1040.05	155.25
915.2544	1809.6769	1044.4	157.25
915.3946	1811.3504	1041.65	155.15
915.5348	1813.0231	1040.65	154.3
915.675	1814.6951	1043.25	158.95
915.8151	1816.3664	1044.15	155.6
915.9553	1818.0369	1044.55	159.7
916.0954	1819.7067	1039.65	156.25
916.2355	1821.3757	1043.4	156.25
916.3755	1823.044	1039.3	153.6
916.5156	1824.7115	1036.85	149.7
916.6556	1826.3783	1037.15	152.7
916.7956	1828.0443	1035.1	151.05
916.9356	1829.7096	1038.6	149.7
917.0756	1831.3741	1042.55	153.95
917.2155	1833.0379	1033.7	148.85
917.3555	1834.701	1036.4	148.7
917.4954	1836.3633	1037.3	150.6
917.6353	1838.0248	1038.15	150.75
917.7751	1839.6856	1036.2	150.7
917.915	1841.3457	1033.35	149.1
918.0548	1843.005	1032.9	145.05
918.1946	1844.6636	1032.65	147.95
918.3344	1846.3214	1034.7	146.9
918.4742	1847.9785	1028.45	144.1
918.6139	1849.6349	1033.2	146.5
918.7537	1851.2904	1044.15	150.5
918.8934	1852.9453	1030.55	144.45
919.0331	1854.5994	1034.7	148.4
919.1727	1856.2528	1030.55	139.4
919.3124	1857.9054	1034.65	149.55
919.452	1859.5572	1033.95	150.2
919.5916	1861.2083	1031.95	144.9
919.7312	1862.8587	1029.45	144.5
919.8708	1864.5084	1032.15	147.9
920.0103	1866.1572	1031.55	148.75
920.1498	1867.8054	1030.9	145.15
920.2893	1869.4528	1026.25	142
920.4288	1871.0994	1029.05	143.55
920.5683	1872.7453	1032	147.25
920.7077	1874.3905	1036.35	143.05
920.8471	1876.0349	1029.25	143.35
920.9865	1877.6786	1025.35	139.55
921.1259	1879.3215	1029.35	143.7
921.2653	1880.9637	1029.9	142.55
921.4046	1882.6051	1027.75	144.1
921.5439	1884.2458	1028.5	139.65
921.6832	1885.8858	1028.3	142.5
921.8225	1887.525	1026.55	140.4
921.9617	1889.1634	1025.65	140.25
922.101	1890.8011	1023.35	138.8
922.2402	1892.4381	1026.65	144.15
922.3794	1894.0743	1023.25	138.2
922.5185	1895.7098	1022.7	136.1
922.6577	1897.3446	1023.35	138.35
922.7968	1898.9786	1023.95	134.85
922.9359	1900.6118	1019.9	134.3
923.075	1902.2443	1023.1	136.65
923.214	1903.8761	1021.6	135.2
923.3531	1905.5071	1025.35	139.1
923.4921	1907.1374	1020.75	134.3
923.6311	1908.7669	1017.5	131.2
923.77	1910.3957	1019.15	132.5
923.909	1912.0237	1020.4	134.75
924.0479	1913.651	1017.75	132.4
924.1868	1915.2776	1014.75	132.1
924.3257	1916.9034	1014.15	129.9
924.4646	1918.5285	1017.75	135.35
924.6034	1920.1528	1009.35	123.8
924.7422	1921.7764	1017.65	131.9
924.881	1923.3992	1011.65	127.15
925.0198	1925.0213	1017.4	131.6
925.1586	1926.6427	1013.45	128.45
925.2973	1928.2633	1121.1	125.85
925.436	1929.8832	1015.95	129.1
925.5747	1931.5023	1012.3	126.6
925.7134	1933.1207	1012.1	126.25
925.852	1934.7383	1018.2	131.25
925.9906	1936.3552	1010.5	127.8
926.1292	1937.9714	1013.7	124.95
926.2678	1939.5868	1011.65	122.65
926.4064	1941.2015	1014.9	129.5
926.5449	1942.8154	1009.75	126.05
926.6834	1944.4286	1012.65	127.7
926.8219	1946.041	1035.3	126.3
926.9604	1947.6528	1011.85	120.75
927.0988	1949.2637	1007.7	122.65
927.2372	1950.8739	1010.95	126.5
927.3756	1952.4834	1008.1	121.85
927.514	1954.0921	1009.4	122.65
927.6523	1955.7001	1015.4	125.25
927.7907	1957.3074	1009.8	124.9
927.929	1958.9139	1005.3	118
928.0673	1960.5197	1005.35	119.7
928.2055	1962.1247	1008.6	121.15
928.3438	1963.729	1006.95	122.75
928.482	1965.3325	1029.5	120.85
928.6202	1966.9353	1006.7	120.45
928.7584	1968.5374	1007.3	121.3
928.8965	1970.1387	1005.45	119.95
929.0346	1971.7393	1007.45	120.45
929.1727	1973.3392	1004	116.05
929.3108	1974.9383	1003.9	118
929.4489	1976.5366	1004.35	121.1
929.5869	1978.1342	1004.65	118.3
929.7249	1979.7311	1007.95	120.2
929.8629	1981.3273	1006.5	120.8
930.0009	1982.9227	1005.75	117.7
930.1388	1984.5173	999.9	114.7
930.2767	1986.1112	1002.6	118.95
930.4146	1987.7044	1005.75	120.35
930.5525	1989.2968	1004.7	116.35
930.6904	1990.8885	1006.35	116.85
930.8282	1992.4795	1003.6	115.55
930.966	1994.0697	1001.9	113.6
931.1038	1995.6592	1004.15	118
931.2415	1997.2479	996.3	109.7
931.3793	1998.8359	999.05	111.05
931.517	2000.4232	996.75	110.35
931.6547	2002.0097	997.3	112
931.7923	2003.5955	1003.1	116.35
931.93	2005.1805	1004.35	116
932.0676	2006.7648	997.5	112.35
932.2052	2008.3484	1000.2	112.9
932.3427	2009.9312	1002.8	115.95
932.4803	2011.5133	997.75	112.9
932.6178	2013.0946	1002.5	117
932.7553	2014.6752	1000.2	115.35
932.8928	2016.2551	999.7	112.5
933.0302	2017.8342	1000.25	116.9
933.1676	2019.4126	997.55	109.9
933.305	2020.9902	995.55	110.5
933.4424	2022.5672	998.25	109
933.5798	2024.1433	1004.35	112.4
933.7171	2025.7188	993.05	106.45
933.8544	2027.2935	998.35	111.65
933.9917	2028.8674	1000.5	114.5
934.129	2030.4406	997.3	114.6
934.2662	2032.0131	997.1	110.6
934.4034	2033.5849	1004.2	110.75
934.5406	2035.1559	996.3	110.5
934.6778	2036.7261	994.5	108.45
934.8149	2038.2957	997.5	113
934.952	2039.8645	997.2	111.45
935.0891	2041.4325	1002	113.25
935.2262	2042.9998	995.75	108.6
935.3632	2044.5664	998.4	110.5
935.5002	2046.1323	995.2	109.65
935.6372	2047.6974	997.75	113.05
935.7742	2049.2617	993.4	108.75
935.9111	2050.8254	1029	109.9
936.048	2052.3883	995.25	108.45
936.1849	2053.9504	997.9	113.4
936.3218	2055.5118	997.2	110.55
936.4586	2057.0725	997.5	109.8
936.5955	2058.6325	993.7	106.85
936.7323	2060.1917	994.15	108.05
936.869	2061.7502	998.5	108.65
937.0058	2063.3079	992.05	105.05
937.1425	2064.8649	996.5	108.25
937.2792	2066.4212	996.6	109.25
937.4159	2067.9767	988.65	103.75
937.5525	2069.5315	991.5	107.2
937.6891	2071.0856	992.55	106.55
937.8257	2072.6389	994.7	108.4
937.9623	2074.1915	993.4	108.45
938.0989	2075.7433	993.25	103.2
938.2354	2077.2945	991.55	106.15
938.3719	2078.8448	991.5	106.35
938.5084	2080.3945	991.2	105.8
938.6448	2081.9434	991.55	104.9
938.7812	2083.4916	990.9	104.65
938.9176	2085.039	993.7	107.55
939.054	2086.5857	994	106.65
939.1903	2088.1317	993.45	107.55
939.3267	2089.677	988.55	104.45
939.463	2091.2215	991	107.65
939.5992	2092.7652	990.2	104.05
939.7355	2094.3083	991.55	107.5
939.8717	2095.8506	987.5	102.3
940.0079	2097.3921	989.2	104.05
940.1441	2098.933	989.9	104.1
940.2802	2100.4731	990.75	106.75
940.4163	2102.0124	996.4	105.35
940.5524	2103.5511	990.4	104.7
940.6885	2105.089	992.9	109.35
940.8245	2106.6261	992.4	105.6
940.9606	2108.1626	993.1	104.7
941.0965	2109.6983	1021	108.05
941.2325	2111.2332	995.7	108.75
941.3684	2112.7675	992.95	105.15
941.5044	2114.301	987.4	99.95
941.6403	2115.8337	989.65	104.15
941.7761	2117.3657	985.95	98.75
941.912	2118.897	990.6	104.75
942.0478	2120.4276	995.35	102.4
942.1835	2121.9575	991.9	106.2
942.3193	2123.4866	1002	102.35
942.455	2125.0149	993.05	104.55
942.5907	2126.5426	989.4	103.85
942.7264	2128.0695	991.95	103.3
942.8621	2129.5956	988.35	102.4
942.9977	2131.1211	992.8	102.95
943.1333	2132.6458	988.95	104.35
943.2689	2134.1698	988.8	103.55
943.4044	2135.693	989.7	101.35
943.54	2137.2155	990.7	101.1
943.6755	2138.7373	991.85	104.95
943.8109	2140.2584	990.45	103.65
943.9464	2141.7787	995.05	104.15
944.0818	2143.2983	985.9	100.7
944.2172	2144.8171	988.1	102.25
944.3526	2146.3353	990.55	103.2
944.4879	2147.8527	987.7	102.05
944.6232	2149.3693	988.3	103.15
944.7585	2150.8853	990.15	105.2
944.8938	2152.4005	986.25	100.65
945.029	2153.9149	985.75	99
945.1642	2155.4287	984.45	99.2
945.2994	2156.9417	985.4	95.15
945.4346	2158.454	985.5	98
945.5697	2159.9655	985	98.95
945.7048	2161.4764	983.25	97.45
945.8399	2162.9865	987.75	103.3
945.9749	2164.4958	989.05	100.55
946.1099	2166.0045	988.75	100.05
946.2449	2167.5124	982.1	96.35
946.3799	2169.0195	985.15	100
946.5148	2170.526	982.9	95.55
946.6498	2172.0317	984.65	100
946.7846	2173.5367	982.6	96.3
946.9195	2175.0409	981.85	97.35
947.0543	2176.5445	982.1	98.55
947.1891	2178.0473	983.95	99.8
947.3239	2179.5494	985.35	99.2
947.4587	2181.0507	982.55	96.2
947.5934	2182.5513	987.4	101.9
947.7281	2184.0512	985.2	98.65
947.8628	2185.5504	985.05	99.7
947.9974	2187.0488	981.1	94.7
948.132	2188.5465	983.45	96.4
948.2666	2190.0435	982.25	93.8
948.4012	2191.5397	981.55	98.7
948.5357	2193.0353	980.4	96.1
948.6702	2194.5301	980.95	94.2
948.8047	2196.0241	980.5	93.4
948.9392	2197.5175	983.25	96.55
949.0736	2199.0101	982.75	91.55
949.208	2200.502	979.3	94.1
949.3424	2201.9931	980.4	96.2
949.4767	2203.4835	981.45	94.05
949.611	2204.9733	990.45	98.3
949.7453	2206.4622	980.3	94.55
949.8796	2207.9505	983.4	94.7
950.0138	2209.438	976.85	92.75
950.148	2210.9248	981.5	94.25
950.2822	2212.4109	974.5	90.75
950.4164	2213.8962	980	91.45
950.5505	2215.3809	978.7	92
950.6846	2216.8648	977.35	90.75
950.8186	2218.3479	983.75	94.8
950.9527	2219.8304	978.65	91.3
951.0867	2221.3121	982.25	97.5
951.2207	2222.7931	977	90
951.3546	2224.2733	976.85	92.65
951.4886	2225.7529	980.45	92.3
951.6225	2227.2317	977.6	89.75
951.7563	2228.7098	977.5	90.8
951.8902	2230.1872	974.3	88.2
952.024	2231.6638	974.55	88.25
952.1578	2233.1397	980.8	90.7
952.2916	2234.6149	976.65	91.25
952.4253	2236.0894	978.15	92.5
952.559	2237.5632	985.15	90.45
952.6927	2239.0362	974.25	89.5
952.8263	2240.5085	973.6	87.3
952.9599	2241.9801	974.1	87.45
953.0935	2243.4509	973.25	87.75
953.2271	2244.921	975.85	90.1
953.3606	2246.3904	973.75	84.75
953.4941	2247.8591	972.4	87.1
953.6276	2249.3271	971.7	84.5
953.7611	2250.7943	972.65	86.9
953.8945	2252.2608	969	84.7
954.0279	2253.7266	971.05	87.2
954.1612	2255.1917	973	86.9
954.2946	2256.656	970.85	83.25
954.4279	2258.1197	973.85	88.15
954.5612	2259.5826	972.45	83.2
954.6944	2261.0447	973.2	85.7
954.8276	2262.5062	968.35	81.1
954.9608	2263.9669	973.15	83.3
955.094	2265.4269	971.7	86.2
955.2271	2266.8862	970.45	83.6
955.3602	2268.3448	970.95	83.55
955.4933	2269.8026	970.1	82.35
955.6264	2271.2598	968.7	83.65
955.7594	2272.7162	968.75	81.8
955.8924	2274.1719	971.5	85.05
956.0253	2275.6268	970.2	83.15
956.1583	2277.0811	969.55	85.05
956.2912	2278.5346	966.25	79.8
956.4241	2279.9874	969.2	84.7
956.5569	2281.4395	966.75	80.9
956.6897	2282.8908	972.7	82.6
956.8225	2284.3414	970	81.55
956.9553	2285.7914	966.8	80.4
957.088	2287.2406	969.75	82.2
957.2207	2288.689	968.25	83.7
957.3534	2290.1368	966	79.2
957.486	2291.5838	968.05	81.4
957.6186	2293.0302	967.3	80.7
957.7512	2294.4758	965.65	81.1
957.8838	2295.9206	967.9	80.8
958.0163	2297.3648	967.15	82.25
958.1488	2298.8082	970.2	85.6
958.2813	2300.251	964.2	77.7
958.4137	2301.693	969.6	82.85
958.5461	2303.1343	967.8	81.3
958.6785	2304.5748	968	83.2
958.8108	2306.0147	965.15	79.35
958.9432	2307.4538	968.15	79.2
959.0754	2308.8922	965.3	83.05
959.2077	2310.3299	967.3	81.55
959.3399	2311.7669	963.1	76.95
959.4721	2313.2031	967.25	80.6
959.6043	2314.6387	962.55	76.45
959.7365	2316.0735	965.7	79.95
959.8686	2317.5076	963.2	77.55
960.0006	2318.941	965.65	81.35
960.1327	2320.3737	965.5	79.9
960.2647	2321.8056	965.25	77.95
960.3967	2323.2369	965.3	78.4
960.5287	2324.6674	968.65	78.95
960.6606	2326.0972	971.25	83.4
960.7925	2327.5263	970	86.8
960.9244	2328.9547	972.5	86.65
961.0562	2330.3823	971.05	85.8
961.1881	2331.8092	971.15	82.4
961.3198	2333.2355	964.5	78.3
961.4516	2334.661	965.35	77.95
961.5833	2336.0858	963.75	76.9
961.715	2337.5098	958.4	72.85
961.8467	2338.9332	959.85	73.95
961.9783	2340.3558	963.15	74.1
962.1099	2341.7778	960.65	74.05
962.2415	2343.199	963.55	74.7
962.373	2344.6195	960.8	75.65
962.5045	2346.0393	961.65	76.6
962.636	2347.4583	963.45	76.9
962.7675	2348.8767	960.85	74.25
962.8989	2350.2943	960.25	72.35
963.0303	2351.7113	957.5	69.7
963.1617	2353.1275	960.1	74.8
963.293	2354.543	966.25	72.65
963.4243	2355.9578	957.1	72.2
963.5556	2357.3718	959.9	72.75
963.6868	2358.7852	959.75	70.65
963.818	2360.1978	961.6	75.7
963.9492	2361.6098	955.3	68.05
964.0803	2363.021	958.65	69.3
964.2114	2364.4315	959.25	72.4
964.3425	2365.8413	958.55	71
964.4736	2367.2504	959.05	72.15
964.6046	2368.6587	957.55	72.15
964.7356	2370.0664	955.95	70.15
964.8666	2371.4733	956.5	71.95
964.9975	2372.8795	957.5	72.95
965.1284	2374.285	954.25	69.2
965.2593	2375.6899	953.5	67.6
965.3901	2377.0939	956.1	71.2
965.5209	2378.4973	958.1	73.1
965.6517	2379.9	957.95	72.2
965.7825	2381.3019	956.5	70.05
965.9132	2382.7032	953.15	66.95
966.0439	2384.1037	952.3	69.25
966.1745	2385.5035	954.45	69.4
966.3051	2386.9027	957.2	72.85
966.4357	2388.3011	955.75	69.35
966.5663	2389.6987	956	69.4
966.6968	2391.0957	953.45	66.95
966.8273	2392.492	955.3	70.55
966.9578	2393.8876	954.4	68.05
967.0882	2395.2824	953.1	68.4
967.2186	2396.6765	952.15	65.45
967.349	2398.07	954.15	69.3
967.4793	2399.4627	953	65.8
967.6097	2400.8547	949.15	63.15
967.7399	2402.246	957.9	65.55
967.8702	2403.6366	952.3	66.15
968.0004	2405.0265	952	66.05
968.1306	2406.4156	953.15	63.25
968.2607	2407.8041	952.7	64.1
968.3909	2409.1918	953.85	67.25
968.521	2410.5789	950.05	64.8
968.651	2411.9652	952.8	62.55
968.781	2413.3508	951.55	64.75
968.911	2414.7358	949.35	62.65
969.041	2416.12	948.75	63.85
969.1709	2417.5035	950.7	62.8
969.3008	2418.8863	951.75	66.55
969.4307	2420.2684	949.15	62.8
969.5606	2421.6497	949.45	63
969.6904	2423.0304	949.65	64.55
969.8201	2424.4104	946.4	59.85
969.9499	2425.7896	954.25	60.85
970.0796	2427.1682	948.15	63.3
970.2093	2428.546	951.6	65.45
970.3389	2429.9232	948.65	62
970.4685	2431.2996	949.6	62.9
970.5981	2432.6753	946.4	61.4
970.7277	2434.0503	947.55	60.6
970.8572	2435.4246	946.2	59.95
970.9867	2436.7982	949.05	60.05
971.1161	2438.1711	943.7	57.55
971.2456	2439.5433	945.95	60.25
971.375	2440.9148	952.75	62.4
971.5043	2442.2856	948.05	63.45
971.6336	2443.6557	949.35	61.9
971.7629	2445.025	944.65	59.4
971.8922	2446.3937	948.7	61.25
972.0214	2447.7617	943.4	57.7
972.1506	2449.1289	945.9	60.05
972.2798	2450.4955	950	62.4
972.4089	2451.8613	944.3	61.15
972.538	2453.2265	943.05	57.75
972.6671	2454.5909	946	60.05
972.7961	2455.9546	944.2	60.6
972.9251	2457.3177	945.6	60.6
973.0541	2458.68	943.45	55.85
973.1831	2460.0416	943.6	58.55
973.312	2461.4025	945.35	57.55
973.4408	2462.7627	953	54.95
973.5697	2464.1222	943.85	56.95
973.6985	2465.4811	947.45	60
973.8273	2466.8392	943.3	58.25
973.956	2468.1966	946.95	58.65
974.0847	2469.5533	947.15	57.4
974.2134	2470.9093	945.5	60.2
974.3421	2472.2645	944.05	57.45
974.4707	2473.6191	942	58.8
974.5993	2474.973	945.25	59.55
974.7278	2476.3262	944.95	57.95
974.8563	2477.6787	942.45	56.9
974.9848	2479.0305	943.25	59.55
975.1132	2480.3816	942.45	54.3
975.2417	2481.7319	939.75	53.65
975.37	2483.0816	941.95	52.55
975.4984	2484.4306	944.65	56.4
975.6267	2485.7789	942.1	55.9
975.755	2487.1264	940.35	52.55
975.8833	2488.4733	941.6	56.8
976.0115	2489.8195	959.05	56.95
976.1397	2491.165	943.2	55.45
976.2678	2492.5097	944.75	54.7
976.3959	2493.8538	940.3	54.1
976.524	2495.1972	941.05	54.3
976.6521	2496.5398	938.95	54.3
976.7801	2497.8818	941.15	53.15
976.9081	2499.2231	940.9	56.25
977.036	2500.5637	943.05	55.75
977.164	2501.9035	939.7	55.1
977.2918	2503.2427	942.55	52.65
977.4197	2504.5812	939.2	52.95
977.5475	2505.919	941	51.95
977.6753	2507.256	939	53.35
977.8031	2508.5924	939.75	52.85
977.9308	2509.9281	944.35	53.5
978.0585	2511.2631	940.1	53.85
978.1861	2512.5974	938.6	52.4
978.3137	2513.9309	939.35	51.85
978.4413	2515.2638	969.25	52.3
978.5689	2516.596	936.65	50.6
978.6964	2517.9275	940.2	51.4
978.8239	2519.2583	937.4	49.2
978.9513	2520.5884	937	50.7
979.0788	2521.9178	936.55	50.7
979.2062	2523.2465	939.6	54.55
979.3335	2524.5745	934.85	48.15
979.4608	2525.9018	938.1	52.85
979.5881	2527.2284	936.05	50.8
979.7154	2528.5543	933.15	47.45
979.8426	2529.8796	937.4	50.85
979.9698	2531.2041	934.9	47.2
980.0969	2532.5279	935.15	49.05
980.224	2533.851	936.8	49.85
980.3511	2535.1735	934.85	51.3
980.4781	2536.4952	936.1	50.15
980.6052	2537.8163	937.4	52.75
980.7321	2539.1366	934.85	49.85
980.8591	2540.4562	935.1	49.3
980.986	2541.7752	935.4	50.65
981.1129	2543.0935	933	48.35
981.2397	2544.411	936.6	50.8
981.3665	2545.7279	931.4	48.3
981.4933	2547.0441	936.95	50.65
981.62	2548.3596	937.2	48.9
981.7467	2549.6744	934.5	49.55
981.8734	2550.9885	936.65	50
982.0001	2552.3019	931.5	47.6
982.1267	2553.6146	934.6	48.7
982.2532	2554.9266	932.95	48.8
982.3798	2556.2379	934.35	47.2
982.5063	2557.5485	932.4	47.1
982.6327	2558.8585	941.85	48.1
982.7592	2560.1677	938.85	49.6
982.8856	2561.4762	937.2	52.65
983.0119	2562.7841	939.4	49.7
983.1383	2564.0913	934.85	51.45
983.2646	2565.3977	931.3	44.5
983.3908	2566.7035	931.65	44.8
983.517	2568.0086	934.3	46.35
983.6432	2569.313	933.9	48.4
983.7694	2570.6167	934.6	44.35
983.8955	2571.9197	932.95	49
984.0216	2573.222	937.15	47.8
984.1476	2574.5236	930.1	42.3
984.2737	2575.8246	935.05	47.95
984.3996	2577.1248	935.85	47.2
984.5256	2578.4244	930.9	47.7
984.6515	2579.7232	931.4	45.85
984.7774	2581.0214	964.5	48.55
984.9032	2582.3189	932.35	47.85
985.029	2583.6157	937.7	46.15
985.1548	2584.9118	930.75	44.15
985.2806	2586.2072	932.8	47
985.4063	2587.5019	929.85	43.45
985.5319	2588.7959	933.3	46.3
985.6576	2590.0893	933.6	47.05
985.7832	2591.3819	931.15	47.4
985.9087	2592.6739	928.25	43.85
986.0343	2593.9652	933.55	47.55
986.1597	2595.2557	929.35	43.55
986.2852	2596.5456	936.5	48.2
986.4106	2597.8348	932.2	47.3
986.536	2599.1234	930.6	45.2
986.6614	2600.4112	931.55	45.05
986.7867	2601.6983	936.6	46.35
986.912	2602.9848	933.15	45.6
987.0372	2604.2705	940.2	44.85
987.1624	2605.5556	933	46.65
987.2876	2606.84	929.75	42.45
987.4128	2608.1237	931.9	45.1
987.5379	2609.4067	930.65	43.2
987.6629	2610.689	938.5	44.95
987.788	2611.9707	933.05	42.45
987.913	2613.2516	932.75	42.8
988.0379	2614.5319	929.35	42.85
988.1629	2615.8115	928	41.65
988.2878	2617.0903	928	41.4
988.4126	2618.3685	932.05	46.1
988.5375	2619.6461	928.55	41.2
988.6622	2620.9229	929.55	43.65
988.787	2622.199	931.2	43.45
988.9117	2623.4745	932	45
989.0364	2624.7493	928.9	44.25
989.161	2626.0234	927.85	43.5
989.2857	2627.2968	926.75	41.8
989.4102	2628.5695	926.1	37.5
989.5348	2629.8415	926.3	40.2
989.6593	2631.1128	928.5	43.25
989.7837	2632.3835	928.6	41.35
989.9082	2633.6535	926.15	39.2
990.0326	2634.9228	926.15	41.1
990.1569	2636.1914	925.9	38.8
990.2812	2637.4593	932.8	41.05
990.4055	2638.7265	928.8	41.1
990.5298	2639.9931	926.45	42.3
990.654	2641.259	926.55	37.9
990.7782	2642.5242	924.6	37.85
990.9023	2643.7887	925.25	40.1
991.0264	2645.0525	924.1	39
991.1505	2646.3156	926	39.85
991.2745	2647.5781	923.4	40.1
991.3985	2648.8398	924.4	40.6
991.5225	2650.1009	964.6	39.65
991.6464	2651.3613	926.7	38.95
991.7703	2652.6211	924.25	37.3
991.8942	2653.8801	925	38.6
992.018	2655.1385	928.15	36.95
992.1418	2656.3961	922.85	37.15
992.2655	2657.6531	925.55	41.25
992.3892	2658.9094	924.15	36.25
992.5129	2660.1651	925.7	41.65
992.6366	2661.42	923.8	36.8
992.7602	2662.6743	925	37.7
992.8837	2663.9279	922.75	37.5
993.0073	2665.1808	926.35	39.4
993.1307	2666.433	924.8	36.5
993.2542	2667.6846	923.75	40.15
993.3776	2668.9354	927.05	35.9
993.501	2670.1856	926.05	37
993.6244	2671.4351	925.1	39.25
993.7477	2672.6839	927.3	43.6
993.8709	2673.9321	924.35	38.55
993.9942	2675.1795	927.6	41.65
994.1174	2676.4263	924.1	38.2
994.2405	2677.6724	923.1	38.2
994.3637	2678.9179	923.9	38.55
994.4868	2680.1626	923.45	36.85
994.6098	2681.4067	923.95	38.55
994.7328	2682.6501	923.25	37.55
994.8558	2683.8928	923.1	37.35
994.9788	2685.1348	922.8	37.8
995.1017	2686.3761	920.6	36.2
995.2245	2687.6168	923.5	38.45
995.3474	2688.8568	921.55	35.8
995.4702	2690.0961	920.8	35.75
995.5929	2691.3348	922.6	37.95
995.7156	2692.5727	920.35	32.15
995.8383	2693.81	921.95	36.4
995.961	2695.0466	920.95	37.8
996.0836	2696.2826	923.35	36.55
996.2062	2697.5178	926.3	37.5
996.3287	2698.7524	921.35	34.8
996.4512	2699.9863	924.4	34.6
996.5737	2701.2195	920.6	35
996.6961	2702.452	923.55	34.35
996.8185	2703.6839	923.8	35.45
996.9408	2704.9151	924.05	39.15
997.0631	2706.1456	922.75	34.15
997.1854	2707.3755	923.15	36.85
997.3077	2708.6046	925.25	36.35
997.4299	2709.8331	925.25	39.65
997.552	2711.0609	921.35	37.25
997.6742	2712.2881	923.8	37.65
997.7963	2713.5145	924.95	36.85
997.9183	2714.7403	926	40.5
998.0403	2715.9654	925.5	37.8
998.1623	2717.1899	924.3	36.55
998.2842	2718.4136	926.35	40.15
998.4062	2719.6367	926.3	41.65
998.528	2720.8591	934.6	43.4
998.6498	2722.0809	929.1	42.9
998.7716	2723.3019	928.6	40.25
998.8934	2724.5223	930.3	42.2
999.0151	2725.7421	925.6	38.7
999.1368	2726.9611	929.95	42.1
999.2584	2728.1795	930.75	39.3
999.38	2729.3972	923.35	38.9
999.5016	2730.6142	936.8	35.5
999.6231	2731.8306	925.1	39.15
999.7446	2733.0462	923.85	35.1
999.8661	2734.2612	927.05	37.6
999.9875	2735.4756	921.6	32.9
1000.1089	2736.6892	921.75	33.8
1000.2302	2737.9022	920.6	37.4
1000.3515	2739.1145	920.05	32.6
1000.4728	2740.3262	931.1	37.3
1000.594	2741.5372	919.05	33.9
1000.7152	2742.7475	922.45	36.1
1000.8363	2743.9571	920.6	32.05
1000.9575	2745.1661	923.4	34.2
1001.0785	2746.3744	917.6	31.1
1001.1996	2747.582	917.55	32.6
1001.3206	2748.7889	919.85	31.65
1001.4415	2749.9952	918.2	35.1
1001.5625	2751.2008	918.85	30.75
1001.6833	2752.4057	918.3	31.2
1001.8042	2753.61	917.8	30.95
1001.925	2754.8136	917.9	29.1
1002.0458	2756.0165	914.45	28.55
1002.1665	2757.2188	915.7	31.95
1002.2872	2758.4204	915.65	30.15
1002.4078	2759.6213	919.95	32.6
1002.5285	2760.8215	919.9	27.05
1002.649	2762.0211	917	28.9
1002.7696	2763.22	917.95	28.8
1002.8901	2764.4182	918.55	29.8
1003.0106	2765.6158	918.25	32.75
1003.131	2766.8127	917.6	32.15
1003.2514	2768.009	917.55	30.95
1003.3717	2769.2045	916.45	30.55
1003.492	2770.3994	915.9	29.1
1003.6123	2771.5936	917.1	31.1
1003.7325	2772.7872	914.85	29.85
1003.8527	2773.9801	916.95	29.55
1003.9729	2775.1723	929.25	26.5
1004.093	2776.3639	913.1	28.85
1004.2131	2777.5548	915.8	27.65
1004.3331	2778.745	914.35	26.85
1004.4531	2779.9346	915.15	30.7
1004.5731	2781.1235	914.55	27.45
1004.693	2782.3117	910.45	24.6
1004.8129	2783.4992	913.75	27.9
1004.9328	2784.6861	913.8	28.45
1005.0526	2785.8723	916.15	27.15
1005.1723	2787.0579	915.8	29.2
1005.2921	2788.2428	912.1	26.5
1005.4118	2789.427	913.7	27.3
1005.5314	2790.6106	912.35	27.95
1005.651	2791.7935	914.8	27.5
1005.7706	2792.9757	914.25	29.85
1005.8902	2794.1573	916.7	25.9
1006.0097	2795.3382	912.55	27.4
1006.1291	2796.5184	911.8	26.2
1006.2485	2797.698	913.9	26.4
1006.3679	2798.8769	914.15	29.1
1006.4873	2800.0551	915.8	29.45
1006.6066	2801.2327	917	26.2
1006.7258	2802.4096	913.55	27.85
1006.8451	2803.5859	915.75	28.45
1006.9642	2804.7615	914.2	28.3
1007.0834	2805.9364	915.4	31
1007.2025	2807.1106	914.75	28.9
1007.3216	2808.2842	916.7	30.95
1007.4406	2809.4572	915.9	28.6
1007.5596	2810.6294	918.45	29.5
1007.6785	2811.801	917	31.6
1007.7975	2812.972	917.6	33.05
1007.9163	2814.1423	921.4	35.25
1008.0352	2815.3119	921.45	36.1
1008.154	2816.4808	919.6	34.9
1008.2727	2817.6491	925.15	38.45
1008.3914	2818.8167	926.9	41
1008.5101	2819.9837	932.15	40.5
1008.6288	2821.15	928.3	42.35
1008.7474	2822.3157	931.25	45.15
1008.8659	2823.4807	936.4	50.05
1008.9844	2824.645	941.9	54.15
1009.1029	2825.8086	940.65	54.95
1009.2214	2826.9716	947.5	62.4
1009.3398	2828.134	950	63.3
1009.4581	2829.2957	960.7	75.7
1009.5764	2830.4567	955.85	70.95
1009.6947	2831.617	961.85	76.25
1009.813	2832.7767	960.75	73.55
1009.9312	2833.9358	962.95	77.6
1010.0493	2835.0941	963.15	73.85
1010.1675	2836.2519	961.3	76.2
1010.2855	2837.4089	961.2	74.35
1010.4036	2838.5653	956.45	69.65
1010.5216	2839.7211	956	72.05
1010.6396	2840.8761	955.75	66.3
1010.7575	2842.0306	951.1	67.5
1010.8754	2843.1843	954.15	69.3
1010.9932	2844.3374	957.35	71.95
1011.111	2845.4899	952.35	65.9
1011.2288	2846.6417	955.05	70.1
1011.3465	2847.7928	952.75	68.6
1011.4642	2848.9433	954.55	69.05
1011.5818	2850.0931	957.35	72.1
1011.6995	2851.2422	957.6	69.35
1011.817	2852.3907	959.1	70.6
1011.9345	2853.5385	961.5	73.2
1012.052	2854.6857	986.5	72.65
1012.1695	2855.8323	960.75	76.65
1012.2869	2856.9781	960.6	74.9
1012.4042	2858.1233	964.6	77.1
1012.5216	2859.2679	964.05	81.25
1012.6389	2860.4118	970.6	84.25
1012.7561	2861.555	973.6	82.15
1012.8733	2862.6976	971.3	83.8
1012.9905	2863.8395	968.55	83.75
1013.1076	2864.9808	970.35	84.8
1013.2247	2866.1214	972.05	86.45
1013.3417	2867.2614	973.1	85.15
1013.4587	2868.4007	977.15	90.3
1013.5757	2869.5393	980.45	92
1013.6926	2870.6773	980.1	92.75
1013.8095	2871.8146	980.35	91.95
1013.9263	2872.9513	983.1	94.4
1014.0431	2874.0874	977.95	93.35
1014.1599	2875.2227	982.3	96.35
1014.2766	2876.3574	982.7	97.5
1014.3933	2877.4915	984.5	98.25
1014.51	2878.6249	984.15	97.3
1014.6266	2879.7577	985	99.3
1014.7431	2880.8898	996.9	99.9
1014.8596	2882.0212	985.8	99.5
1014.9761	2883.152	989.45	101.15
1015.0925	2884.2821	990.8	104.95
1015.2089	2885.4116	987.35	101.05
1015.3253	2886.5405	992.85	106.7
1015.4416	2887.6686	998.05	108.05
1015.5579	2888.7962	994.45	110.85
1015.6741	2889.923	992.3	105.6
1015.7903	2891.0493	993.95	107.3
1015.9065	2892.1748	993.45	107.85
1016.0226	2893.2997	992.35	106.15
1016.1387	2894.424	993	108.1
1016.2547	2895.5476	991.5	105.05
1016.3707	2896.6706	993.45	108.8
1016.4866	2897.7929	992	105.35
1016.6025	2898.9145	992.1	106.4
1016.7184	2900.0355	994.35	107.65
1016.8342	2901.1559	996.25	108.3
1016.95	2902.2756	995.75	104.55
1017.0658	2903.3946	993.1	106.65
1017.1815	2904.513	991.25	102.65
1017.2971	2905.6308	990.75	104.95
1017.4127	2906.7479	990.75	103.7
1017.5283	2907.8643	989.35	102.75
1017.6439	2908.9801	988.9	103.95
1017.7594	2910.0953	991.25	104.25
1017.8748	2911.2098	994.15	105.45
1017.9902	2912.3236	998.55	105.6
1018.1056	2913.4368	990.9	100.9
1018.2209	2914.5494	987.65	100.85
1018.3362	2915.6613	993.75	100.7
1018.4515	2916.7725	992.45	103.1
1018.5667	2917.8831	987.15	100.8
1018.6819	2918.9931	983.95	97
1018.797	2920.1024	982.55	96.9
1018.9121	2921.211	978.25	94.3
1019.0271	2922.319	977.6	91
1019.1421	2923.4264	976.9	91
1019.2571	2924.5331	977.9	94.85
1019.372	2925.6391	976.85	91.95
1019.4869	2926.7445	980.7	94.4
1019.6017	2927.8493	980.6	93.25
1019.7165	2928.9534	979.35	92.4
1019.8313	2930.0569	985.15	95.75
1019.946	2931.1597	979.5	94.15
1020.0606	2932.2619	979.55	93.65
1020.1753	2933.3634	980.3	95.35
1020.2899	2934.4643	983.8	90.55
1020.4044	2935.5645	990.85	98.95
1020.5189	2936.6641	988.25	98.6
1020.6334	2937.763	981.35	96
1020.7478	2938.8613	983.4	97.55
1020.8622	2939.959	988.1	95.55
1020.9765	2941.056	978.9	92.5
1021.0908	2942.1523	976.25	89.4
1021.2051	2943.248	975	88.3
1021.3193	2944.3431	970.9	83.4
1021.4334	2945.4375	968.6	81.9
1021.5476	2946.5313	958.9	74.4
1021.6617	2947.6244	961.45	74.6
1021.7757	2948.7169	952.45	63.95
1021.8897	2949.8087	952.35	64.95
1022.0037	2950.8999	948	61.1
1022.1176	2951.9904	943	57.75
1022.2315	2953.0803	945.4	57
1022.3453	2954.1696	942.4	56.2
1022.4591	2955.2582	939	54.65
1022.5728	2956.3462	937.4	51.45
1022.6865	2957.4335	937.45	49.75
1022.8002	2958.5202	937.85	49.65
1022.9138	2959.6062	935.95	49.9
1023.0274	2960.6916	935.15	50.05
1023.141	2961.7764	936.05	49.1
1023.2545	2962.8605	936.3	49.65
1023.3679	2963.9439	935.65	50.3
1023.4813	2965.0267	935.2	45.85
1023.5947	2966.1089	957.6	49.4
1023.708	2967.1905	933.25	49.6
1023.8213	2968.2714	934.55	49.75
1023.9346	2969.3516	930.95	46.3
1024.0478	2970.4312	940.15	48.15
1024.1609	2971.5102	933.05	46.2
1024.274	2972.5885	930.7	45.6
1024.3871	2973.6662	939.25	49.5
1024.5002	2974.7432	931.3	46.4
1024.6132	2975.8196	932.9	47.45
1024.7261	2976.8954	933.55	48.2
1024.839	2977.9705	934.8	47.65
1024.9519	2979.045	934	47.7
1025.0647	2980.1188	932.05	46.3
1025.1775	2981.192	931.95	48.3
1025.2902	2982.2645	931.8	44.8
1025.4029	2983.3364	931.85	45.15
1025.5156	2984.4077	932.1	45.15
1025.6282	2985.4783	938.05	45.15
1025.7407	2986.5483	929	43.3
1025.8532	2987.6177	924.25	39.95
1025.9657	2988.6864	924.3	38.5
1026.0782	2989.7545	925.05	37.5
1026.1906	2990.8219	925.2	40.25
1026.3029	2991.8887	923.45	34.9
1026.4152	2992.9548	917.15	30.6
1026.5275	2994.0204	915.55	29.6
1026.6397	2995.0852	915.45	32.05
1026.7519	2996.1495	918.2	32.9
1026.864	2997.2131	914.95	28.45
1026.9761	2998.276	914.4	29.15
1027.0882	2999.3383	912.35	26.75
1027.2002	3000.4	912.6	26.05
1027.3122	3001.4611	911.8	23.7
1027.4241	3002.5215	909.2	22.3
1027.536	3003.5812	908.45	23.55
1027.6478	3004.6404	909.3	22.75
1027.7596	3005.6989	908.55	21.85
1027.8714	3006.7567	906.45	19.3
1027.9831	3007.8139	938.8	20.7
1028.0947	3008.8705	907.3	22.9
1028.2064	3009.9264	922.35	20.4
1028.3179	3010.9818	906.35	20.7
1028.4295	3012.0364	904.85	17.95
1028.541	3013.0905	906.5	20.3
1028.6524	3014.1439	903.45	17.2
1028.7638	3015.1966	904	16.9
1028.8752	3016.2487	903	16.75
1028.9865	3017.3002	911.85	18.55
1029.0978	3018.3511	902.75	17.8
1029.209	3019.4013	903.1	15.3
1029.3202	3020.4509	902.3	16.3
1029.4314	3021.4998	901.1	14.25
1029.5425	3022.5481	903.55	16.65
1029.6535	3023.5958	901.95	18.3
1029.7645	3024.6428	902.2	14.3
1029.8755	3025.6892	900.85	16.35
1029.9864	3026.735	902.75	17.9
1030.0973	3027.7802	903.05	13.8
1030.2082	3028.8247	900.2	15.85
1030.319	3029.8685	903.35	17.5
1030.4297	3030.9118	902.5	14.9
1030.5404	3031.9544	901.3	14.85
1030.6511	3032.9963	903.9	17.6
1030.7617	3034.0376	901.5	15.6
1030.8723	3035.0783	903.2	13.15
1030.9829	3036.1184	902.8	15.6
1031.0934	3037.1578	902	17.45
1031.2038	3038.1966	901.7	14.05
1031.3142	3039.2348	901.2	15.45
1031.4246	3040.2723	909.65	15.55
1031.5349	3041.3092	903.45	17.9
1031.6452	3042.3455	902.8	19
1031.7554	3043.3811	902.75	18.2
1031.8656	3044.4161	903.55	16.85
1031.9758	3045.4505	900.95	14.6
1032.0859	3046.4842	902.55	15.55
1032.1959	3047.5173	902.1	17.25
1032.3059	3048.5498	901.3	13.65
1032.4159	3049.5816	902.45	15
1032.5258	3050.6128	901.4	14.9
1032.6357	3051.6434	904.25	17.7
1032.7455	3052.6734	902.9	16.95
1032.8553	3053.7027	904.65	18.75
1032.9651	3054.7314	901	16.6
1033.0748	3055.7594	902.35	17.1
1033.1845	3056.7868	903.45	17.2
1033.2941	3057.8136	901.7	16.7
1033.4037	3058.8398	903.75	18.45
1033.5132	3059.8653	903.15	17.15
1033.6227	3060.8902	903.9	16.85
1033.7321	3061.9145	904.1	17.8
1033.8415	3062.9381	899.85	13.7
1033.9509	3063.9612	917.95	15.8
1034.0602	3064.9835	904.4	17.5
1034.1694	3066.0053	904.75	16.55
1034.2787	3067.0264	905.3	20.45
1034.3878	3068.0469	904.15	16.9
1034.497	3069.0668	906.15	17.1
1034.6061	3070.086	903	19
1034.7151	3071.1046	904.55	15.5
1034.8241	3072.1226	907.05	20.3
1034.9331	3073.1399	903.65	16.25
1035.042	3074.1567	903.15	17.15
1035.1508	3075.1727	902.65	14.05
1035.2597	3076.1882	901.55	16.4
1035.3684	3077.203	903.3	16.25
1035.4772	3078.2173	901.8	15.2
1035.5859	3079.2308	903.95	13.65
1035.6945	3080.2438	902.4	15
1035.8031	3081.2561	901.1	14.9
1035.9117	3082.2678	900.7	14.15
1036.0202	3083.2789	899.85	14.6
1036.1286	3084.2893	899.75	14.4
1036.2371	3085.2991	901.4	15.65
1036.3454	3086.3083	904.25	14.65
1036.4538	3087.3169	903.35	15.55
1036.562	3088.3248	899.6	13.8
1036.6703	3089.3321	901.2	13.8
1036.7785	3090.3388	897.85	13.65
1036.8866	3091.3449	899.6	13.15
1036.9948	3092.3503	899.9	10.65
1037.1028	3093.3551	896.95	11.85
1037.2108	3094.3593	896.35	10.75
1037.3188	3095.3629	898	13.65
1037.4267	3096.3658	899.35	12
1037.5346	3097.3681	896.35	10.75
1037.6425	3098.3698	899.5	11.2
1037.7503	3099.3708	898.95	12.95
1037.858	3100.3713	896.5	11.35
1037.9657	3101.3711	897.35	11.35
1038.0734	3102.3702	1035.4	10.15
1038.181	3103.3688	899.1	12.15
1038.2886	3104.3667	895.25	9.65
1038.3961	3105.364	894.55	8.7
1038.5036	3106.3607	898.8	12.05
1038.611	3107.3568	899.8	10.5
1038.7184	3108.3522	895.2	8.8
1038.8257	3109.347	895.7	8.6
1038.933	3110.3412	901.6	13.55
1039.0403	3111.3348	895.35	9.6
1039.1475	3112.3277	896.75	10.45
1039.2547	3113.32	895.85	10.95
1039.3618	3114.3117	897.15	10.25
1039.4689	3115.3028	895.15	9.25
1039.5759	3116.2932	896.9	8.7
1039.6829	3117.2831	899.6	8.95
1039.7898	3118.2723	896.5	10.15
1039.8967	3119.2608	893.45	6.95
1040.0035	3120.2488	895.7	8.95
1040.1103	3121.2361	894.55	8.9
1040.2171	3122.2229	894.45	7.75
1040.3238	3123.209	894.9	7.65
1040.4305	3124.1944	895.95	10.15
1040.5371	3125.1793	896.8	8.85
1040.6437	3126.1635	894.15	9.5
1040.7502	3127.1471	894.6	9.5
1040.8567	3128.1301	893.45	6.95
1040.9631	3129.1125	893.7	7.45
1041.0695	3130.0942	894.85	9.35
1041.1759	3131.0753	903	9.65
1041.2822	3132.0558	899.15	10.7
1041.3884	3133.0357	896.35	10.45
1041.4946	3134.015	895.2	7.95
1041.6008	3134.9936	895	8.35
1041.7069	3135.9716	914.4	7.5
1041.813	3136.949	892.7	6.2
1041.919	3137.9258	911.7	7.4
1042.025	3138.902	901.95	8.95
1042.1309	3139.8775	893.95	9.55
1042.2368	3140.8524	892.3	5.3
1042.3427	3141.8267	895.25	6.5
1042.4485	3142.8004	893.25	7.7
1042.5542	3143.7735	898.9	6.15
1042.6599	3144.7459	897.2	7.6
1042.7656	3145.7178	894.5	7.35
1042.8712	3146.689	891.15	6.35
1042.9768	3147.6596	895.05	7.6
1043.0823	3148.6295	893.6	10
1043.1878	3149.5989	893.65	8.25
1043.2932	3150.5676	892.6	5.95
1043.3986	3151.5357	891.9	8.65
1043.5039	3152.5032	893.45	10.25
1043.6092	3153.4701	891.75	7.7
1043.7145	3154.4364	893.95	5.15
1043.8197	3155.402	893.3	8.65
1043.9248	3156.367	895.3	6.7
1044.03	3157.3315	924.1	7.45
1044.135	3158.2952	892.6	7.2
1044.24	3159.2584	893.55	5.95
1044.345	3160.221	893.25	6.7
1044.4499	3161.1829	894.25	7
1044.5548	3162.1442	892.1	7.15
1044.6596	3163.105	893.45	8.8
1044.7644	3164.065	892.1	7.05
1044.8692	3165.0245	894.6	7.5
1044.9739	3165.9834	892.9	8.9
1045.0785	3166.9416	892.75	5.9
1045.1831	3167.8993	893.15	6.75
1045.2877	3168.8563	892.8	6.1
1045.3922	3169.8127	892.35	8.95
1045.4966	3170.7684	892.35	6.2
1045.6011	3171.7236	892.2	5.05
1045.7054	3172.6782	894.2	7.3
1045.8098	3173.6321	893.25	8.2
1045.914	3174.5854	896.6	9
1046.0183	3175.5381	892.1	5.4
1046.1224	3176.4902	891.65	5.3
1046.2266	3177.4417	891.35	4.9
1046.3307	3178.3926	892.2	7.7
1046.4347	3179.3428	891.65	7.45
1046.5387	3180.2924	891.8	6.5
1046.6427	3181.2415	889.9	4.95
1046.7466	3182.1899	893.15	6.3
1046.8504	3183.1377	892.8	8.7
1046.9542	3184.0848	895.45	5.4
1047.058	3185.0314	893.3	6.7
1047.1617	3185.9773	891.5	3.7
1047.2654	3186.9227	893.55	5.9
1047.369	3187.8674	892.35	5.75
1047.4726	3188.8115	895.7	5.75
1047.5761	3189.755	894.3	7.25
1047.6796	3190.6979	892.5	3.2
1047.783	3191.6402	891.4	6.95
1047.8864	3192.5818	891.45	4.95
1047.9898	3193.5229	898.45	6.5
1048.0931	3194.4633	891.05	4.05
1048.1963	3195.4031	890.35	4.9
1048.2995	3196.3423	890.7	5.4
1048.4027	3197.2809	890.7	4.7
1048.5058	3198.2189	891	5.65
1048.6089	3199.1563	895.75	5.7
1048.7119	3200.0931	890.3	3.7
1048.8148	3201.0292	889.25	3.75
1048.9178	3201.9648	891.5	6.3
1049.0206	3202.8997	894.8	6.45
1049.1235	3203.834	892.5	9.1
1049.2262	3204.7677	890	4.4
1049.329	3205.7008	892.2	5.4
1049.4317	3206.6333	889.05	4.2
1049.5343	3207.5652	892.35	2.75
1049.6369	3208.4964	890.9	4.9
1049.7394	3209.4271	891.65	6.7
1049.8419	3210.3571	890.3	5.2
1049.9444	3211.2865	893	7.55
1050.0468	3212.2154	893.5	7.15
1050.1491	3213.1436	894.6	4.9
1050.2514	3214.0712	897.45	4.25
1050.3537	3214.9982	890.95	4.95
1050.4559	3215.9246	891.6	4.45
1050.5581	3216.8503	890.75	5.9
1050.6602	3217.7755	889.85	3.35
1050.7623	3218.7001	889.5	3.7
1050.8643	3219.624	891.95	7.35
1050.9663	3220.5473	890.6	3.8
1051.0682	3221.4701	894.6	5.55
1051.1701	3222.3922	893.45	6.05
1051.2719	3223.3137	891.3	5
1051.3737	3224.2346	892	5.2
1051.4754	3225.1549	889.9	3.65
1051.5771	3226.0746	888.95	4.55
1051.6788	3226.9937	890.65	4.65
1051.7804	3227.9121	889.1	4.4
1051.8819	3228.83	890.5	4.15
1051.9834	3229.7473	890.15	3.95
1052.0849	3230.6639	891.7	4.95
1052.1863	3231.5799	889.15	4.1
1052.2876	3232.4954	891.8	5.6
1052.3889	3233.4102	889.6	4.3
1052.4902	3234.3244	890.05	4.05
1052.5914	3235.238	891.6	7.6
1052.6926	3236.151	915.8	5.7
1052.7937	3237.0634	889.55	4.75
1052.8948	3237.9752	888.3	3.4
1052.9958	3238.8864	890.2	3.65
1053.0968	3239.797	888.5	3.25
1053.1977	3240.7069	891.85	4.35
1053.2986	3241.6163	893.75	6.6
1053.3994	3242.5251	889.05	1.65
1053.5002	3243.4332	890.5	4.8
1053.6009	3244.3408	890.9	2.95
1053.7016	3245.2477	889.25	5.2
1053.8022	3246.154	890.8	3.85
1053.9028	3247.0598	891.55	5.45
1054.0034	3247.9649	891.75	6.3
1054.1039	3248.8694	889.8	4.6
1054.2043	3249.7733	890.3	4.65
1054.3047	3250.6766	889.2	3
1054.4051	3251.5793	890.65	2.9
1054.5054	3252.4814	890.3	4.35
1054.6056	3253.3829	891.3	5.5
1054.7058	3254.2838	889.6	2.5
1054.806	3255.1841	889.25	3.85
1054.9061	3256.0838	889.8	3.85
1055.0061	3256.9829	889.75	4.1
1055.1062	3257.8814	890.8	4.25
1055.2061	3258.7792	893.95	7.65
1055.306	3259.6765	889.55	1.25
1055.4059	3260.5731	890.3	3.45
1055.5057	3261.4692	888.05	2.8
1055.6055	3262.3647	890.8	5.8
1055.7052	3263.2595	890.2	4.05
1055.8049	3264.1538	889.8	2.5
1055.9045	3265.0474	890.85	2.9
1056.0041	3265.9404	888.3	3.55
1056.1036	3266.8329	888.5	2.45
1056.2031	3267.7247	897.55	2.2
1056.3025	3268.616	888.2	2.65
1056.4019	3269.5066	886.8	0.7
1056.5013	3270.3966	890.2	2.05
1056.6005	3271.286	889	3.3
