Software Version:	3.9.2.0
Unit SN:	10000200
Spectrometer SN:	6960
Date:	3/14/2024 2:17:15 PM
Data Line Index:	25
Spectral Points:	2048
Integration time (ms):	125
Averages:	20
Delay (ms):	30000
Sequence Number:	1
Processing:	dark subtract
Laser Power (mW):	300
Laser Current (mA):	825
Laser Diode Temp (C):	25
Laser Case Temp (C):	29.1
System Temp (C):	29.1
Spectrometer Temp (C):	26.9
CCD Temp (C):	0.005
Secondary Temp (C):	20.007
Heatsink Temp (C):	25.052
CCDPCB Temp (C):	38.352
SecondaryPCB Temp (C):	36.107

Wavelength	RamanShift	Raw Counts	Dark Subtracted
787.061	30.1047	457.2	46.3
787.2016	32.3739	456.2	48.3
787.3422	34.6426	461.9	53.25
787.4828	36.9109	470.1	60.5
787.6235	39.1787	476.1	60.5
787.7642	41.4461	485.65	64.75
787.9049	43.7131	495.65	73.25
788.0456	45.9796	504.5	78.35
788.1863	48.2456	512.55	81.3
788.3271	50.5112	522.15	85.9
788.4679	52.7764	528.65	93.45
788.6087	55.0411	542.95	102.3
788.7496	57.3054	555.4	108
788.8904	59.5692	564.7	116.3
789.0313	61.8326	576.8	125.25
789.1722	64.0955	591.25	134.15
789.3132	66.3579	604.6	141.8
789.4541	68.6199	624.6	158.5
789.5951	70.8815	655.2	186.75
789.7361	73.1426	720.5	246.45
789.8771	75.4032	917.95	441.05
790.0181	77.6634	1368.6	885.25
790.1592	79.9231	2460.2	1973
790.3003	82.1824	4864.6	4368
790.4414	84.4412	9277.35	8763.4
790.5825	86.6995	15528.05	14996.95
790.7237	88.9574	21858.6	21305.25
790.8648	91.2148	26366.15	25800.1
791.006	93.4717	28619.3	28040.9
791.1472	95.7282	29206.75	28625.9
791.2885	97.9842	29215.7	28633.85
791.4297	100.2398	28800.35	28213.15
791.571	102.4949	28229.5	27639.9
791.7123	104.7495	27458	26864.05
791.8536	107.0036	26604.85	26014.75
791.9949	109.2573	25802.4	25209.2
792.1363	111.5105	25010.6	24415
792.2777	113.7632	24199.05	23605.3
792.4191	116.0154	23490.8	22883.95
792.5605	118.2672	22939.15	22338.35
792.7019	120.5185	22372.15	21769.75
792.8434	122.7693	21937.55	21335.2
792.9849	125.0197	21605.55	21000.1
793.1264	127.2696	21312.7	20703.25
793.2679	129.519	21161.95	20549.35
793.4094	131.7679	20957.45	20344.35
793.551	134.0163	20829.75	20213.4
793.6926	136.2642	20713.2	20089.65
793.8342	138.5117	20553.1	19919.15
793.9758	140.7587	20343.1	19714.7
794.1175	143.0052	20206	19574.2
794.2591	145.2512	20014.25	19386.75
794.4008	147.4967	19760.5	19132.7
794.5425	149.7417	19614.05	18983.2
794.6842	151.9863	19508.75	18875.1
794.826	154.2304	19443.85	18805
794.9677	156.4739	19292.9	18648.55
795.1095	158.717	19243.7	18602.1
795.2513	160.9596	19079.35	18429.75
795.3931	163.2017	18793.65	18144.95
795.535	165.4433	18503.3	17852.7
795.6768	167.6844	18078.25	17425.7
795.8187	169.925	17739.65	17081.7
795.9606	172.1651	17386.25	16725.5
796.1025	174.4047	17063.7	16397.8
796.2445	176.6439	16724.85	16058.55
796.3864	178.8825	16463.75	15796.65
796.5284	181.1206	16259.65	15589.3
796.6704	183.3582	16073.5	15396.1
796.8124	185.5954	15945.15	15268.95
796.9544	187.832	15835.35	15156
797.0965	190.0681	15815.1	15133.95
797.2386	192.3037	15782.35	15099.5
797.3806	194.5388	15742.6	15054.7
797.5228	196.7734	15765.9	15075.85
797.6649	199.0075	15821.05	15127.2
797.807	201.2411	15936.45	15236
797.9492	203.4742	16033.3	15335.75
798.0914	205.7068	16131.1	15431.85
798.2336	207.9389	16194.25	15497.25
798.3758	210.1704	16346.7	15646.05
798.518	212.4015	16467.85	15766.9
798.6603	214.632	16657.5	15952.3
798.8025	216.862	16851.3	16150.95
798.9448	219.0915	17054.9	16360
799.0871	221.3205	17292.55	16605.05
799.2294	223.549	17571.4	16892.35
799.3718	225.777	18000.25	17318.1
799.5141	228.0044	18457.75	17773.2
799.6565	230.2314	19006.6	18326.65
799.7989	232.4578	19572.6	18890.1
799.9413	234.6837	20007.45	19315.6
800.0837	236.909	20237.45	19543.8
800.2262	239.1339	20163.7	19446.3
800.3687	241.3582	19884.7	19184.4
800.5111	243.582	19407	18680.55
800.6536	245.8053	18913.3	18193.9
800.7961	248.0281	18477.4	17763.15
800.9387	250.2503	18138.35	17418
801.0812	252.472	17897.85	17176.05
801.2238	254.6932	17762.65	17036.35
801.3664	256.9139	17576	16847.45
801.509	259.134	17516.75	16785.65
801.6516	261.3536	17369.9	16640.75
801.7942	263.5727	17301.3	16572
801.9369	265.7912	17166.8	16435.7
802.0795	268.0092	17089.45	16356.85
802.2222	270.2267	16937.65	16206.15
802.3649	272.4436	16882.9	16148.45
802.5076	274.6601	16814.35	16071.25
802.6504	276.8759	16770.35	16031.95
802.7931	279.0913	16759.5	16023.1
802.9359	281.3061	16784	16047.8
803.0787	283.5204	16905	16159.7
803.2215	285.7341	17047.55	16301.6
803.3643	287.9473	17258.35	16501.1
803.5071	290.16	17543.85	16789
803.6499	292.3721	17904.65	17156.9
803.7928	294.5837	18417.4	17669.25
803.9357	296.7947	18805.2	18058.45
804.0786	299.0052	19020.75	18271.6
804.2215	301.2152	18818.65	18067.4
804.3644	303.4246	18367.05	17620.1
804.5074	305.6334	17746.8	16998.4
804.6503	307.8418	17161.25	16410.8
804.7933	310.0495	16664.6	15911.65
804.9363	312.2568	16354.85	15602.7
805.0793	314.4635	16142.25	15388.45
805.2223	316.6696	16075.5	15319.7
805.3653	318.8752	16078.75	15317.1
805.5084	321.0802	16148.55	15391.1
805.6514	323.2847	16241.25	15484.45
805.7945	325.4887	16331.9	15573.45
805.9376	327.692	16265.05	15506.8
806.0807	329.8949	16109.55	15351.85
806.2238	332.0972	15819.6	15058.7
806.367	334.2989	15488.25	14724.5
806.5101	336.5001	15173.05	14407.2
806.6533	338.7007	14930.5	14166.25
806.7965	340.9008	14810.6	14046.1
806.9397	343.1003	14708.45	13939.65
807.0829	345.2992	14623.3	13855.5
807.2261	347.4976	14585.15	13814.75
807.3693	349.6955	14585.85	13812.4
807.5126	351.8927	14656.3	13882.9
807.6559	354.0895	14651.65	13867.25
807.7991	356.2856	14703.95	13927.4
807.9424	358.4812	14648.3	13874.25
808.0857	360.6763	14688.7	13912.3
808.2291	362.8707	14619.7	13842.9
808.3724	365.0646	14641.95	13862.4
808.5158	367.258	14627.05	13847.2
808.6591	369.4508	14595.6	13808.75
808.8025	371.643	14683.05	13895.8
808.9459	373.8346	14654.2	13868
809.0893	376.0257	14584.6	13794.15
809.2327	378.2162	14495.95	13706.25
809.3762	380.4062	14352.55	13560.3
809.5196	382.5956	14157.2	13362.45
809.6631	384.7844	14055.15	13259.6
809.8066	386.9726	13965.05	13169.2
809.9501	389.1603	13893.7	13095.85
810.0936	391.3474	13839.6	13000.95
810.2371	393.5339	13819.55	13023.2
810.3806	395.7199	13755.9	12964.8
810.5241	397.9052	13749.35	12961.15
810.6677	400.09	13741.15	12954.75
810.8113	402.2743	13795.45	13010.35
810.9548	404.4579	13831.55	13047.5
811.0984	406.641	13969.85	13183.95
811.2421	408.8235	14227.15	13439.2
811.3857	411.0054	14580.55	13794
811.5293	413.1868	15097.25	14308.15
811.673	415.3675	15478.35	14686.4
811.8166	417.5477	15740.05	14947.35
811.9603	419.7273	15811.65	15017.25
812.104	421.9064	15676.55	14877.8
812.2477	424.0848	15501.4	14706.4
812.3914	426.2627	15254.7	14453.35
812.5351	428.4399	14891.5	14090.35
812.6788	430.6166	14470.2	13663.8
812.8226	432.7928	14089.15	13282.25
812.9663	434.9683	13747.1	12938.5
813.1101	437.1432	13497.4	12686.5
813.2539	439.3176	13326.2	12516.3
813.3977	441.4914	13185.6	12376.3
813.5415	443.6645	13148.85	12337.55
813.6853	445.8371	13082.05	12271.55
813.8291	448.0091	13003.95	12195.85
813.973	450.1806	12958.7	12148.95
814.1168	452.3514	12874.6	12064.25
814.2607	454.5216	12855.5	12035.2
814.4046	456.6913	12778.25	11960.55
814.5485	458.8603	12763.95	11949.1
814.6924	461.0288	12834.5	12018.1
814.8363	463.1967	12859.25	12046.55
814.9802	465.3639	12987.7	12173.3
815.1241	467.5306	13178.55	12363.25
815.2681	469.6967	13369.75	12553.45
815.412	471.8622	13523.3	12706.85
815.556	474.0271	13709.35	12890.55
815.7	476.1914	13770.5	12951.25
815.844	478.3551	13726.7	12908.15
815.988	480.5182	13667.45	12848.6
816.132	482.6807	13606.6	12788.1
816.276	484.8426	13676.2	12857.35
816.4201	487.0039	13899.7	13081.75
816.5641	489.1647	14344.6	13525.95
816.7082	491.3248	14796.45	13977.9
816.8522	493.4843	15026.45	14204.5
816.9963	495.6432	15042	14221.1
817.1404	497.8015	14963.85	14139.9
817.2845	499.9592	14971.4	14151.65
817.4286	502.1163	14960.75	14139.05
817.5727	504.2728	14736.1	13910.45
817.7168	506.4287	14415.35	13589.95
817.861	508.5839	13926.5	13102.45
818.0051	510.7386	13505.55	12679.25
818.1493	512.8927	13282.85	12458.4
818.2935	515.0461	13086.85	12264.5
818.4377	517.199	12965	12139.15
818.5818	519.3512	12860.75	12036.1
818.726	521.5029	12867.15	12032.85
818.8703	523.6539	12848.1	12019.3
819.0145	525.8043	12878.1	12049
819.1587	527.9541	12914.55	12083.35
819.303	530.1033	12968.55	12138.95
819.4472	532.2519	13029.6	12199.3
819.5915	534.3999	13226.85	12392.8
819.7357	536.5472	13586.2	12755.55
819.88	538.694	14121.25	13289.2
820.0243	540.8401	14852.2	14019.65
820.1686	542.9856	15444.9	14609.55
820.3129	545.1305	15632.4	14795.1
820.4572	547.2748	15408.8	14575.35
820.6016	549.4185	14929.45	14090.95
820.7459	551.5615	14510.8	13674.9
820.8902	553.704	14244.95	13408.55
821.0346	555.8458	14132.25	13298.95
821.1789	557.987	14059.4	13223.9
821.3233	560.1276	13928.15	13091.1
821.4677	562.2675	13787.8	12954.55
821.6121	564.4069	13638.8	12802.1
821.7565	566.5456	13495	12662.7
821.9009	568.6837	13305.1	12470.15
822.0453	570.8212	13096.2	12263.8
822.1897	572.958	12835.1	12000.65
822.3342	575.0942	12684.2	11852.65
822.4786	577.2299	12568.55	11734.05
822.6231	579.3648	12597.25	11763
822.7675	581.4992	12692.25	11859.1
822.912	583.6329	12954.1	12117
823.0565	585.766	13202.25	12366.9
823.201	587.8985	13320	12483.35
823.3454	590.0304	13314	12467.25
823.4899	592.1616	13249.45	12407.75
823.6345	594.2922	13151.35	12313.6
823.779	596.4222	12986.8	12150.05
823.9235	598.5515	12818.65	11977.05
824.068	600.6802	12617.4	11776.4
824.2126	602.8083	12419.55	11579.25
824.3571	604.9358	12336.95	11498
824.5017	607.0626	12212.65	11372.9
824.6462	609.1888	12113.35	11271.55
824.7908	611.3144	11970.15	11128.6
824.9354	613.4393	11765.55	10923.85
825.08	615.5636	11614	10771.65
825.2246	617.6873	11465.5	10624.3
825.3692	619.8103	11416.45	10573.15
825.5138	621.9327	11364.25	10516
825.6584	624.0544	11335.3	10493.9
825.803	626.1756	11341.45	10500.05
825.9477	628.2961	11315.4	10470.65
826.0923	630.4159	11245.05	10401
826.237	632.5351	11181.15	10338.4
826.3816	634.6537	11110.9	10266.1
826.5263	636.7716	11066.9	10219.75
826.6709	638.8889	11043.3	10200.1
826.8156	641.0056	11058.8	10214.25
826.9603	643.1216	11056.95	10211.25
827.105	645.237	11067.9	10219.75
827.2497	647.3518	11072	10224.55
827.3944	649.4659	11103.1	10257.85
827.5391	651.5793	11107.6	10260.05
827.6838	653.6922	11097.1	10251.95
827.8285	655.8043	11065.7	10217.55
827.9733	657.9159	11034.05	10183.1
828.118	660.0268	10911.3	10061.05
828.2627	662.137	10853.85	10004.65
828.4075	664.2466	10806.1	9953.25
828.5522	666.3556	10769.65	9920.6
828.697	668.4639	10751.7	9898.25
828.8418	670.5716	10809	9959.9
828.9865	672.6786	10893.8	10043.05
829.1313	674.785	10982.45	10130.7
829.2761	676.8907	11055.8	10205.65
829.4209	678.9958	11147.65	10298.4
829.5657	681.1002	11109.6	10256.55
829.7105	683.204	11092.2	10239.95
829.8553	685.3072	11014.35	10158.75
830.0001	687.4097	10896	10045.05
830.1449	689.5115	10808.15	9953.8
830.2898	691.6127	10737.9	9886.65
830.4346	693.7132	10659.9	9804.6
830.5794	695.8131	10568.35	9691
830.7243	697.9123	10518.75	9665.1
830.8691	700.0109	10465.15	9609.05
831.014	702.1089	10400.75	9547.4
831.1588	704.2061	10418.85	9563.25
831.3037	706.3028	10424	9568.4
831.4486	708.3987	10511.5	9657.5
831.5935	710.4941	10603.25	9748.85
831.7383	712.5887	10801.7	9945.05
831.8832	714.6827	11123.75	10263.3
832.0281	716.7761	11544.3	10686.3
832.173	718.8688	11943.55	11085.65
832.3179	720.9608	12194.3	11336
832.4628	723.0522	12169.8	11309.9
832.6077	725.1429	11867	11008.5
832.7527	727.233	11454.15	10597.9
832.8976	729.3224	11043.5	10183.8
833.0425	731.4112	10729	9869.95
833.1874	733.4993	10463.05	9602.9
833.3324	735.5867	10317.05	9457.2
833.4773	737.6735	10234.45	9371.65
833.6222	739.7596	10165.65	9302.6
833.7672	741.845	10158.3	9299.15
833.9122	743.9298	10150.85	9289.4
834.0571	746.014	10123.5	9265.45
834.2021	748.0974	10132.7	9272.05
834.347	750.1802	10111.75	9248.85
834.492	752.2624	10143.15	9283.65
834.637	754.3439	10168.2	9304.65
834.782	756.4247	10232.7	9362.8
834.9269	758.5048	10307.2	9446.5
835.0719	760.5843	10464.45	9602.95
835.2169	762.6631	10770.3	9909.15
835.3619	764.7413	11212.85	10354.25
835.5069	766.8188	11766.8	10904.75
835.6519	768.8956	12274.65	11412.75
835.7969	770.9718	12568.75	11707.35
835.9419	773.0473	12385.75	11525.6
836.0869	775.1221	12070.1	11208.95
836.232	777.1962	11652.35	10790.25
836.377	779.2697	11489.65	10626.45
836.522	781.3426	11534.1	10655.4
836.667	783.4147	11834.4	10970.85
836.8121	785.4862	12203.65	11341.6
836.9571	787.557	12243.55	11379.95
837.1021	789.6271	11850.4	10988.7
837.2472	791.6966	11225.6	10363.05
837.3922	793.7654	10697.25	9831.2
837.5373	795.8335	10355	9489.75
837.6823	797.901	10164	9302.25
837.8274	799.9678	10097.1	9233.1
837.9724	802.0339	10135.2	9275.1
838.1175	804.0993	10197.45	9324.4
838.2626	806.1641	10168.85	9304.25
838.4076	808.2282	10116.15	9252.3
838.5527	810.2916	10002.7	9134.05
838.6978	812.3544	9890.05	9027.2
838.8428	814.4164	9779.05	8916.9
838.9879	816.4778	9747.55	8879.7
839.133	818.5385	9727.1	8863.35
839.2781	820.5986	9734.45	8872.3
839.4232	822.658	9778.9	8912.8
839.5682	824.7166	9820.75	8958.7
839.7133	826.7747	9936.1	9072.2
839.8584	828.832	10075.9	9212.1
840.0035	830.8886	10179.2	9309.2
840.1486	832.9446	10313.2	9446.15
840.2937	834.9999	10410.25	9547.9
840.4388	837.0545	10512.4	9645
840.5839	839.1085	10531.85	9664.9
840.729	841.1618	10578.4	9708.95
840.8741	843.2143	10550.2	9686.1
841.0192	845.2662	10485.45	9620.9
841.1643	847.3175	10428.75	9562.45
841.3095	849.368	10303.8	9439
841.4546	851.4179	10142.05	9276.4
841.5997	853.467	10011.8	9143.9
841.7448	855.5155	9875.8	9007.4
841.8899	857.5633	9747.35	8880.1
842.0351	859.6105	9649.7	8783.65
842.1802	861.6569	9565.2	8698.3
842.3253	863.7027	9493.8	8625.05
842.4704	865.7478	9458.4	8590.1
842.6156	867.7922	9473.4	8606.45
842.7607	869.8359	9534.7	8666.4
842.9058	871.8789	9667.15	8798.65
843.0509	873.9212	9883.2	8981.65
843.1961	875.9629	10020.4	9152.7
843.3412	878.0039	10232.2	9362.15
843.4863	880.0441	10298.55	9431.05
843.6315	882.0837	10286.75	9417.55
843.7766	884.1226	10130.95	9262.45
843.9218	886.1609	9953.6	9085.25
844.0669	888.1984	9809.5	8942.7
844.212	890.2352	9733.45	8866.05
844.3572	892.2714	9649.9	8779.55
844.5023	894.3069	9591.65	8722.05
844.6475	896.3416	9569.3	8698.25
844.7926	898.3757	9517.45	8645.95
844.9377	900.4091	9522.8	8654
845.0829	902.4418	9539.8	8665.05
845.228	904.4739	9523.55	8652.65
845.3732	906.5052	9494.75	8626.35
845.5183	908.5358	9348.75	8479.05
845.6635	910.5658	9215.65	8341.85
845.8086	912.595	9049.4	8177.95
845.9538	914.6236	8946.75	8077.05
846.0989	916.6515	8896.9	8025.95
846.2441	918.6786	8867.25	7997.15
846.3892	920.7051	8964.15	8092.85
846.5344	922.7309	9066.15	8195.55
846.6795	924.756	9136.2	8265.55
846.8246	926.7804	9205.25	8330.75
846.9698	928.8041	9200.8	8325.95
847.1149	930.8272	9202.4	8332.65
847.2601	932.8495	9113.9	8241.05
847.4052	934.8711	9040.55	8170.55
847.5504	936.892	8877	8004.55
847.6955	938.9123	8668	7794.45
847.8407	940.9318	8507.55	7637.2
847.9858	942.9506	8391.95	7519.8
848.131	944.9688	8312.95	7439.6
848.2761	946.9862	8293.3	7419.9
848.4213	949.003	8203.4	7329.8
848.5664	951.019	8195.35	7323.25
848.7115	953.0344	8238.85	7369.15
848.8567	955.0491	8278.4	7406.45
849.0018	957.063	8341.25	7468.7
849.147	959.0763	8473.85	7603.4
849.2921	961.0888	8515.15	7639.15
849.4373	963.1007	8603.6	7733.55
849.5824	965.1119	8635.05	7760.6
849.7275	967.1223	8667.75	7795.5
849.8727	969.1321	8682.5	7811.55
850.0178	971.1412	8713.5	7842.45
850.1629	973.1495	8728	7858.65
850.3081	975.1572	8806.75	7895.65
850.4532	977.1641	8797.3	7925.3
850.5983	979.1704	8763.1	7889.75
850.7435	981.1759	8763.6	7887.3
850.8886	983.1808	8853.85	7980.45
851.0337	985.1849	8967.2	8082.45
851.1788	987.1884	9141.4	8267.1
851.324	989.1911	9311.95	8434.05
851.4691	991.1932	9472.2	8597.25
851.6142	993.1945	9533.25	8658.75
851.7593	995.1951	9503.8	8629.95
851.9045	997.1951	9472.05	8590.8
852.0496	999.1943	9349.75	8476.85
852.1947	1001.1928	9312.15	8437.75
852.3398	1003.1906	9311.7	8437.6
852.4849	1005.1877	9327.1	8450.7
852.63	1007.1841	9275.05	8402.1
852.7751	1009.1798	9173.05	8298.8
852.9202	1011.1748	8982.65	8108.4
853.0653	1013.1691	8742.8	7868.25
853.2104	1015.1627	8510.65	7637.25
853.3555	1017.1556	8323.7	7447.7
853.5006	1019.1477	8248.8	7374.1
853.6457	1021.1392	8165.7	7292.15
853.7908	1023.1299	8198.05	7323.8
853.9359	1025.12	8221	7343.6
854.081	1027.1093	8252.5	7380.2
854.2261	1029.0979	8337.4	7465.4
854.3712	1031.0859	8415.25	7542.5
854.5163	1033.0731	8401	7524.9
854.6613	1035.0596	8308.85	7438.1
854.8064	1037.0454	8151.55	7275.45
854.9515	1039.0304	8036.2	7161.2
855.0965	1041.0148	7907.5	7031.45
855.2416	1042.9985	7817.85	6945.15
855.3867	1044.9814	7774	6899.95
855.5317	1046.9636	7732.25	6853.8
855.6768	1048.9452	7685.95	6811.1
855.8219	1050.926	7685.95	6809.9
855.9669	1052.9061	7669.4	6795.8
856.112	1054.8855	7670.1	6795.95
856.257	1056.8642	7686.6	6811.8
856.4021	1058.8421	7737.95	6858.3
856.5471	1060.8194	7782.5	6907.7
856.6921	1062.7959	7779	6903.85
856.8372	1064.7717	7805	6925.45
856.9822	1066.7469	7793.4	6918.3
857.1272	1068.7213	7756.3	6877.9
857.2723	1070.695	7736.9	6863.65
857.4173	1072.6679	7655.1	6778.5
857.5623	1074.6402	7596.75	6720.25
857.7073	1076.6117	7559.45	6678.1
857.8523	1078.5826	7593.9	6718.2
857.9973	1080.5527	7668.45	6789.55
858.1423	1082.5221	7830.65	6954.15
858.2873	1084.4908	8088.65	7211.15
858.4323	1086.4587	8309.25	7430.35
858.5773	1088.426	8467.8	7590
858.7223	1090.3925	8476.25	7595.15
858.8673	1092.3584	8394.25	7519.05
859.0123	1094.3235	8207.1	7332.65
859.1573	1096.2879	8080.7	7203.7
859.3022	1098.2515	8050.8	7178.3
859.4472	1100.2145	8059.2	7182.8
859.5922	1102.1767	8125.35	7247.1
859.7371	1104.1382	8272.9	7395.65
859.8821	1106.099	8468.4	7587.8
860.027	1108.0591	8686	7810
860.172	1110.0185	8818.1	7938.5
860.3169	1111.9771	8817.9	7943.15
860.4619	1113.9351	8580.05	7704.9
860.6068	1115.8923	8249.25	7372
860.7517	1117.8488	7872.4	6994.55
860.8967	1119.8045	7582.25	6705
861.0416	1121.7596	7420.65	6544.55
861.1865	1123.7139	7357.35	6479.1
861.3314	1125.6675	7344.95	6467.65
861.4763	1127.6204	7433.2	6556.9
861.6212	1129.5726	7449.15	6569.95
861.7661	1131.524	7493.1	6615.95
861.911	1133.4748	7550.55	6676.35
862.0559	1135.4248	7566.4	6689.3
862.2008	1137.3741	7595.05	6718.35
862.3457	1139.3226	7585.8	6707.05
862.4905	1141.2705	7533.75	6656.9
862.6354	1143.2176	7480.9	6595.4
862.7803	1145.164	7506.55	6625.95
862.9251	1147.1097	7532.7	6655.85
863.07	1149.0546	7521.1	6641.55
863.2148	1150.9989	7411.2	6533.1
863.3597	1152.9424	7229.9	6353.35
863.5045	1154.8852	7011.85	6133.9
863.6493	1156.8272	6882.3	6006.7
863.7942	1158.7686	6801.25	5914.45
863.939	1160.7092	6747.7	5869.9
864.0838	1162.6491	6750.8	5871.15
864.2286	1164.5883	6817.9	5940.3
864.3734	1166.5267	6896.05	6014.1
864.5182	1168.4644	7049.8	6172.8
864.663	1170.4014	7217.9	6335.55
864.8078	1172.3377	7443.3	6566.45
864.9526	1174.2732	7642	6762.75
865.0974	1176.2081	7870.45	6993.9
865.2421	1178.1421	8037.75	7155.9
865.3869	1180.0755	8169.55	7292.8
865.5317	1182.0082	8158.3	7280.1
865.6764	1183.9401	8064.3	7183.35
865.8212	1185.8713	7852.3	6974.15
865.9659	1187.8017	7594.45	6716.05
866.1106	1189.7315	7329.4	6453.15
866.2554	1191.6605	7113.9	6208.75
866.4001	1193.5888	6895.45	6017
866.5448	1195.5163	6773.9	5895.7
866.6895	1197.4432	6666.05	5786.45
866.8342	1199.3693	6585.7	5706.8
866.9789	1201.2947	6549.3	5667.9
867.1236	1203.2193	6540.15	5661.45
867.2683	1205.1432	6579.35	5699.55
867.413	1207.0664	6626.2	5748.1
867.5576	1208.9889	6704.25	5823.05
867.7023	1210.9106	6801.95	5923.3
867.847	1212.8316	6881.95	6003.1
867.9916	1214.7519	6981.45	6092.3
868.1363	1216.6715	6988.9	6109.8
868.2809	1218.5903	6960.3	6083.15
868.4255	1220.5084	6899	6021.2
868.5701	1222.4257	6874.15	5994.65
868.7148	1224.3424	6829.3	5952.1
868.8594	1226.2583	6883.1	6000.5
869.004	1228.1735	6993.3	6113.75
869.1486	1230.0879	7124.1	6243.2
869.2932	1232.0016	7268.1	6388.8
869.4377	1233.9146	7300.25	6418.85
869.5823	1235.8269	7221.05	6343.1
869.7269	1237.7384	7053.35	6174.5
869.8715	1239.6492	6869.05	5990.1
870.016	1241.5592	6747.85	5868
870.1606	1243.4686	6671.5	5792.65
870.3051	1245.3772	6605.25	5727.25
870.4496	1247.285	6530.05	5650.95
870.5941	1249.1922	6496.15	5619.05
870.7387	1251.0986	6480.3	5602.3
870.8832	1253.0042	6489.45	5609.5
871.0277	1254.9092	6572.65	5693.2
871.1722	1256.8134	6679.85	5798.4
871.3167	1258.7169	6828	5947.35
871.4611	1260.6196	6978	6100.05
871.6056	1262.5216	7160.85	6277.15
871.7501	1264.4229	7296.85	6417.9
871.8945	1266.3234	7411.45	6529.5
872.039	1268.2232	7448.25	6567.75
872.1834	1270.1223	7429.1	6548.45
872.3278	1272.0207	7403.7	6523.8
872.4723	1273.9183	7354.75	6468.2
872.6167	1275.8151	7275.9	6394.7
872.7611	1277.7113	7158.8	6279.05
872.9055	1279.6067	7017.35	6137.2
873.0499	1281.5014	6847.1	5964.85
873.1943	1283.3953	6717.2	5834.85
873.3386	1285.2885	6612.3	5734.9
873.483	1287.181	6543.8	5663.3
873.6274	1289.0727	6546.9	5669.05
873.7717	1290.9637	6580	5699.8
873.9161	1292.854	6690.15	5810.7
874.0604	1294.7435	6857.75	5976.6
874.2047	1296.6323	7099.9	6219.4
874.349	1298.5204	7346.55	6460.95
874.4933	1300.4077	7611.5	6730.65
874.6376	1302.2943	7819.85	6937.65
874.7819	1304.1802	7907.65	7028.45
874.9262	1306.0653	7847.95	6965.85
875.0705	1307.9497	7718.35	6838.45
875.2147	1309.8333	7643.55	6763.2
875.359	1311.7162	7625.2	6745.95
875.5032	1313.5984	7743.2	6860.5
875.6475	1315.4798	7900.3	7010.55
875.7917	1317.3605	8104.8	7207.85
875.9359	1319.2405	8245.5	7361.95
876.0801	1321.1197	8302.45	7419.75
876.2243	1322.9982	8242.55	7358.4
876.3685	1324.876	8259.45	7379.25
876.5127	1326.753	8232.55	7352
876.6569	1328.6293	8252.4	7370.15
876.801	1330.5048	8233.95	7353.5
876.9452	1332.3796	8242	7363
877.0893	1334.2537	8218.15	7311.25
877.2335	1336.127	8145.05	7266.5
877.3776	1337.9996	8102.5	7221.85
877.5217	1339.8714	8060.55	7180.95
877.6658	1341.7426	8042.4	7116.05
877.8099	1343.6129	7928.1	7047.45
877.954	1345.4826	7851.4	6971.1
878.0981	1347.3515	7807.25	6922.95
878.2422	1349.2196	7724.5	6842.75
878.3862	1351.087	7720.5	6840.3
878.5303	1352.9537	7755.75	6874.3
878.6743	1354.8197	7902.05	7020.3
878.8184	1356.6849	8065.8	7185.45
878.9624	1358.5493	8152.05	7269.85
879.1064	1360.4131	8128.8	7248.45
879.2504	1362.276	8052.95	7170.95
879.3944	1364.1383	7877.95	6994.45
879.5384	1365.9998	7659.6	6772.5
879.6823	1367.8606	7358.3	6477.3
879.8263	1369.7206	7133.55	6252.35
879.9702	1371.5799	6970.2	6088.05
880.1142	1373.4384	6862.35	5980.65
880.2581	1375.2962	6718.95	5835.15
880.402	1377.1533	6499.75	5617.2
880.5459	1379.0096	6218.55	5336.15
880.6898	1380.8652	5933.35	5053.6
880.8337	1382.7201	5719.4	4838.5
880.9776	1384.5742	5545.25	4663.35
881.1215	1386.4275	5410.2	4526.9
881.2653	1388.2802	5277.7	4398.85
881.4092	1390.132	5205.1	4323.45
881.553	1391.9832	5156.7	4274.05
881.6968	1393.8336	5089.8	4207.05
881.8406	1395.6832	5052.15	4170.4
881.9844	1397.5322	5007.05	4126.7
882.1282	1399.3803	5003.1	4115.35
882.272	1401.2278	4993.6	4112.55
882.4158	1403.0745	5011.25	4127.85
882.5595	1404.9204	4999.4	4120.05
882.7033	1406.7656	5021.15	4138.95
882.847	1408.6101	5028.3	4145.35
882.9908	1410.4538	5059	4178.3
883.1345	1412.2968	5084.25	4200.15
883.2782	1414.139	5132.15	4250.85
883.4219	1415.9805	5244.4	4363.2
883.5656	1417.8213	5340.05	4451
883.7092	1419.6613	5471.8	4591.4
883.8529	1421.5006	5693.75	4810.25
883.9965	1423.3391	5977.05	5097.5
884.1402	1425.1769	6330.6	5447.1
884.2838	1427.0139	6870.7	5988.75
884.4274	1428.8502	7522.85	6640.95
884.571	1430.6858	8139.7	7256.65
884.7146	1432.5206	8598.45	7714.75
884.8582	1434.3547	8875.7	7991.2
885.0018	1436.188	8868.3	7986.65
885.1453	1438.0206	8793.85	7910.75
885.2889	1439.8524	8649.3	7767.95
885.4324	1441.6835	8571.65	7690.65
885.5759	1443.5139	8479.1	7595.3
885.7194	1445.3435	8420.35	7539.3
885.8629	1447.1724	8371.15	7488.8
886.0064	1449.0005	8278	7395.9
886.1499	1450.8279	8193.25	7308.85
886.2933	1452.6545	8144.7	7262.95
886.4368	1454.4804	8187.25	7306.25
886.5802	1456.3056	8174.8	7284.4
886.7237	1458.13	8073.45	7193.35
886.8671	1459.9536	7815.1	6934.65
887.0105	1461.7766	7433.1	6553.5
887.1539	1463.5987	7002.8	6120.9
887.2972	1465.4202	6609.15	5726.55
887.4406	1467.2409	6239.1	5359.1
887.584	1469.0608	5964.8	5082.45
887.7273	1470.88	5700.35	4818.05
887.8706	1472.6984	5487.5	4607.6
888.0139	1474.5161	5295.6	4410.85
888.1572	1476.3331	5157.55	4278.5
888.3005	1478.1493	5014.5	4130.9
888.4438	1479.9648	4912.65	4032.4
888.5871	1481.7795	4819.85	3937.9
888.7303	1483.5935	4732.95	3851.7
888.8736	1485.4067	4699.35	3818.2
889.0168	1487.2192	4653.85	3772.4
889.16	1489.031	4616.15	3731.95
889.3032	1490.842	4566.3	3684.4
889.4464	1492.6522	4532.95	3649.8
889.5896	1494.4618	4503.35	3619.95
889.7327	1496.2705	4478.25	3596.1
889.8759	1498.0785	4464.5	3582.3
890.019	1499.8858	4441.1	3559.1
890.1622	1501.6924	4411.95	3534.05
890.3053	1503.4981	4401.4	3519.7
890.4484	1505.3032	4393.8	3511.45
890.5914	1507.1075	4371.1	3489.3
890.7345	1508.911	4348.05	3466.1
890.8776	1510.7138	4313.3	3431.85
891.0206	1512.5159	4285.25	3403.8
891.1637	1514.3172	4236.6	3355.35
891.3067	1516.1178	4196.8	3316.75
891.4497	1517.9176	4207.1	3323.4
891.5927	1519.7166	4169.15	3289
891.7357	1521.515	4159.25	3270.85
891.8786	1523.3126	4140.4	3258.15
892.0216	1525.1094	4132.55	3249.2
892.1645	1526.9055	4096.4	3215.45
892.3074	1528.7008	4073.75	3189.05
892.4503	1530.4954	4067.7	3178.7
892.5932	1532.2893	4052.9	3172.55
892.7361	1534.0824	4043.4	3157.75
892.879	1535.8747	4041.15	3157.65
893.0218	1537.6663	4036.35	3154.95
893.1647	1539.4572	4032.4	3149.95
893.3075	1541.2473	4028.7	3147.2
893.4503	1543.0367	4008.2	3126.15
893.5931	1544.8253	4030.3	3143.65
893.7359	1546.6132	4018.45	3133.15
893.8787	1548.4003	4020.6	3128.4
894.0214	1550.1867	4023.4	3133.6
894.1642	1551.9723	4047.2	3160.8
894.3069	1553.7572	4071.9	3190.65
894.4496	1555.5414	4096.55	3213.3
894.5923	1557.3247	4125.85	3243.4
894.735	1559.1074	4168.95	3288.3
894.8777	1560.8893	4228.85	3350.4
895.0204	1562.6705	4280.8	3399.4
895.163	1564.4509	4361.1	3478.95
895.3056	1566.2305	4424.5	3546.2
895.4482	1568.0094	4528.55	3646.1
895.5908	1569.7876	4619.5	3737.5
895.7334	1571.565	4690.3	3809.65
895.876	1573.3417	4746.85	3863.8
896.0186	1575.1176	4745.05	3864
896.1611	1576.8928	4732.6	3851.35
896.3036	1578.6672	4641.1	3759.8
896.4461	1580.4409	4525	3644.45
896.5886	1582.2138	4405.85	3522.9
896.7311	1583.986	4277.05	3395.8
896.8736	1585.7575	4199.95	3319.15
897.0161	1587.5282	4117.55	3236.2
897.1585	1589.2981	4061.15	3179.2
897.3009	1591.0673	4027.15	3146.7
897.4433	1592.8358	3996.9	3116.9
897.5857	1594.6035	3968.2	3084.75
897.7281	1596.3704	3980.05	3100.45
897.8705	1598.1366	3979.2	3099.3
898.0128	1599.9021	4007.15	3126.95
898.1551	1601.6668	4049.8	3166.1
898.2975	1603.4308	4095.9	3215.35
898.4398	1605.194	4167.9	3284.65
898.5821	1606.9564	4237.4	3356.45
898.7243	1608.7182	4370.05	3482.65
898.8666	1610.4791	4498.35	3618.45
899.0088	1612.2394	4635.15	3753.65
899.1511	1613.9988	4821.65	3938.75
899.2933	1615.7576	5059.35	4179.1
899.4355	1617.5156	5304.3	4419.25
899.5776	1619.2728	5541.6	4659.8
899.7198	1621.0293	5713.85	4835.7
899.862	1622.785	5789.85	4906.55
900.0041	1624.54	5742.6	4858.5
900.1462	1626.2942	5599.7	4715.6
900.2883	1628.0477	5365.6	4480.4
900.4304	1629.8005	5112.25	4227.4
900.5725	1631.5525	4886.6	4005.45
900.7145	1633.3037	4669.95	3788.55
900.8566	1635.0542	4508.15	3628.95
900.9986	1636.804	4373.8	3491.2
901.1406	1638.553	4341.9	3388.85
901.2826	1640.3013	4242.9	3362.6
901.4245	1642.0488	4194.15	3313.7
901.5665	1643.7955	4187.8	3308.85
901.7085	1645.5416	4216.8	3335.1
901.8504	1647.2868	4281.55	3401.25
901.9923	1649.0313	4353.8	3471.6
902.1342	1650.7751	4488.6	3606.1
902.2761	1652.5181	4686.15	3804.65
902.4179	1654.2604	4929.4	4048.3
902.5598	1656.0019	5267.55	4385.25
902.7016	1657.7427	5627.15	4747.3
902.8434	1659.4828	5981.35	5100.7
902.9852	1661.222	6212.4	5330.35
903.127	1662.9606	6254.05	5373.75
903.2687	1664.6984	6092.8	5213.15
903.4105	1666.4354	5757.85	4876.95
903.5522	1668.1717	5297.85	4418.15
903.6939	1669.9072	4847.95	3967.55
903.8356	1671.642	4466.55	3583.3
903.9773	1673.3761	4188.4	3309.1
904.119	1675.1094	3972.1	3090.9
904.2606	1676.8419	3801.25	2921.9
904.4022	1678.5737	3676.8	2795.7
904.5439	1680.3048	3584.9	2705.5
904.6855	1682.0351	3522.4	2641.4
904.827	1683.7646	3452.85	2569.05
904.9686	1685.4934	3412.85	2532.25
905.1101	1687.2215	3382.25	2501.75
905.2517	1688.9488	3347.8	2467.2
905.3932	1690.6754	3332.2	2452.45
905.5347	1692.4012	3301.9	2421.2
905.6761	1694.1263	3273.05	2394.05
905.8176	1695.8506	3270.85	2390.35
905.9591	1697.5742	3251	2368.15
906.1005	1699.297	3227.8	2349.5
906.2419	1701.0191	3224.3	2344.25
906.3833	1702.7404	3194.5	2313.6
906.5246	1704.461	3163.9	2281.45
906.666	1706.1808	3160.55	2277.9
906.8073	1707.8999	3153.25	2269.5
906.9487	1709.6182	3126.65	2245.45
907.09	1711.3358	3106.85	2226.9
907.2313	1713.0527	3106.4	2227.1
907.3725	1714.7688	3084.55	2198.85
907.5138	1716.4841	3073.9	2191.1
907.655	1718.1987	3055.4	2171.4
907.7962	1719.9126	3047.75	2168.5
907.9374	1721.6257	3042.4	2158.6
908.0786	1723.338	3046.45	2165.45
908.2198	1725.0496	3029.15	2146.8
908.3609	1726.7605	3006.8	2124.95
908.502	1728.4706	2992.15	2111.05
908.6431	1730.18	2988.7	2105.85
908.7842	1731.8886	2972.05	2093.25
908.9253	1733.5964	2980.8	2094.85
909.0664	1735.3036	2970.65	2087.35
909.2074	1737.0099	2964.5	2083.1
909.3484	1738.7156	2957.15	2077.3
909.4894	1740.4204	2937.25	2053.7
909.6304	1742.1246	2935.65	2052.3
909.7714	1743.8279	2936.25	2055.8
909.9123	1745.5306	2923.5	2040.15
910.0532	1747.2325	2901.85	2022.35
910.1941	1748.9336	2894.5	2014
910.335	1750.634	2883.1	2002.2
910.4759	1752.3336	2895.5	2015.6
910.6168	1754.0325	2886.35	2007.95
910.7576	1755.7307	2883.1	2003.25
910.8984	1757.4281	2895.7	2015.85
911.0392	1759.1247	2877.55	1989.85
911.18	1760.8206	2868.55	1983.8
911.3208	1762.5158	2870	1986.85
911.4615	1764.2102	2837.3	1957.4
911.6022	1765.9039	2832.5	1952
911.7429	1767.5968	2833.85	1953.45
911.8836	1769.289	2825.15	1942.95
912.0243	1770.9804	2820.25	1938.9
912.1649	1772.6711	2826.45	1945.3
912.3056	1774.361	2807.75	1923.8
912.4462	1776.0502	2811.1	1930.55
912.5868	1777.7386	2807.7	1926.95
912.7274	1779.4263	2800.05	1917.75
912.8679	1781.1132	2795.95	1914.1
913.0084	1782.7994	2788.65	1907.1
913.149	1784.4849	2794.25	1913.05
913.2895	1786.1696	2796.4	1897.55
913.4299	1787.8535	2790.55	1909.8
913.5704	1789.5367	2778.05	1897.75
913.7108	1791.2192	2777.5	1895.55
913.8513	1792.9009	2780.5	1873.3
913.9917	1794.5818	2755	1873.8
914.132	1796.2621	2743.8	1866.6
914.2724	1797.9415	2737.6	1856.5
914.4128	1799.6202	2744.5	1864.55
914.5531	1801.2982	2732.15	1850.55
914.6934	1802.9755	2717.8	1836.85
914.8337	1804.6519	2721	1839.75
914.9739	1806.3277	2711.15	1831.2
915.1142	1808.0027	2707.05	1825.55
915.2544	1809.6769	2715	1831.65
915.3946	1811.3504	2708.25	1824.35
915.5348	1813.0231	2699.85	1818.5
915.675	1814.6951	2700.55	1817.6
915.8151	1816.3664	2685.6	1803.8
915.9553	1818.0369	2685.15	1804.15
916.0954	1819.7067	2681	1800
916.2355	1821.3757	2681.1	1798.45
916.3755	1823.044	2670.45	1792.25
916.5156	1824.7115	2674.4	1795.2
916.6556	1826.3783	2656.65	1777.3
916.7956	1828.0443	2658.15	1777.35
916.9356	1829.7096	2661.25	1780.55
917.0756	1831.3741	2664.6	1779.6
917.2155	1833.0379	2652.35	1772.05
917.3555	1834.701	2650.35	1766.9
917.4954	1836.3633	2652	1769.5
917.6353	1838.0248	2641.3	1759.45
917.7751	1839.6856	2639.4	1759
917.915	1841.3457	2630.95	1753.1
918.0548	1843.005	2621.05	1739.7
918.1946	1844.6636	2621.95	1741.55
918.3344	1846.3214	2623.8	1740.9
918.4742	1847.9785	2620.85	1740.45
918.6139	1849.6349	2614.6	1732.25
918.7537	1851.2904	2621.4	1730.05
918.8934	1852.9453	2606.8	1726
919.0331	1854.5994	2603.4	1722.3
919.1727	1856.2528	2601.25	1719.1
919.3124	1857.9054	2599.55	1718.95
919.452	1859.5572	2592.85	1712
919.5916	1861.2083	2596.85	1715.6
919.7312	1862.8587	2577	1695.8
919.8708	1864.5084	2573.4	1691.85
920.0103	1866.1572	2579.7	1701.15
920.1498	1867.8054	2581.4	1700.1
920.2893	1869.4528	2568.55	1689.4
920.4288	1871.0994	2546.6	1665.45
920.5683	1872.7453	2551.15	1670.1
920.7077	1874.3905	2560.25	1663.55
920.8471	1876.0349	2546.15	1665.95
920.9865	1877.6786	2543.15	1662.2
921.1259	1879.3215	2538.05	1658.65
921.2653	1880.9637	2528.4	1648.55
921.4046	1882.6051	2523.75	1643.05
921.5439	1884.2458	2523.3	1638.55
921.6832	1885.8858	2505.05	1624.9
921.8225	1887.525	2509.45	1628.75
921.9617	1889.1634	2504.7	1625.05
922.101	1890.8011	2509.85	1627.9
922.2402	1892.4381	2500.1	1620.45
922.3794	1894.0743	2492.1	1613.4
922.5185	1895.7098	2495.9	1617.05
922.6577	1897.3446	2490.7	1609.8
922.7968	1898.9786	2478.85	1593.8
922.9359	1900.6118	2467.7	1588
923.075	1902.2443	2458	1573.45
923.214	1903.8761	2456.55	1576.45
923.3531	1905.5071	2450	1569.35
923.4921	1907.1374	2458.95	1577.45
923.6311	1908.7669	2451.7	1572.5
923.77	1910.3957	2459	1578.4
923.909	1912.0237	2435.1	1553.85
924.0479	1913.651	2445.5	1564.8
924.1868	1915.2776	2435.1	1557.6
924.3257	1916.9034	2424.75	1545.9
924.4646	1918.5285	2415.15	1535.5
924.6034	1920.1528	2420.15	1538.4
924.7422	1921.7764	2419.85	1539.25
924.881	1923.3992	2404.4	1526.35
925.0198	1925.0213	2406.9	1528.25
925.1586	1926.6427	2402.4	1522.7
925.2973	1928.2633	2490.45	1505.4
925.436	1929.8832	2400.9	1520.9
925.5747	1931.5023	2379.45	1499.1
925.7134	1933.1207	2388.7	1509.05
925.852	1934.7383	2372.05	1489.9
925.9906	1936.3552	2375.35	1496.25
926.1292	1937.9714	2367.6	1485.65
926.2678	1939.5868	2367.15	1484.7
926.4064	1941.2015	2349.6	1468.75
926.5449	1942.8154	2346.05	1464.45
926.6834	1944.4286	2329.85	1450.45
926.8219	1946.041	2348.65	1443.2
926.9604	1947.6528	2327.15	1441.15
927.0988	1949.2637	2316.85	1438.3
927.2372	1950.8739	2319.6	1439.35
927.3756	1952.4834	2317.75	1436.95
927.514	1954.0921	2312.1	1428.9
927.6523	1955.7001	2313.65	1428.55
927.7907	1957.3074	2297.45	1418.65
927.929	1958.9139	2284.75	1403.95
928.0673	1960.5197	2289.4	1406.9
928.2055	1962.1247	2283	1403.6
928.3438	1963.729	2276.95	1395.75
928.482	1965.3325	2283.5	1381
928.6202	1966.9353	2262.1	1380.65
928.7584	1968.5374	2262.85	1378
928.8965	1970.1387	2255.05	1374.45
929.0346	1971.7393	2261	1381.3
929.1727	1973.3392	2251.3	1373.3
929.3108	1974.9383	2235.35	1355.95
929.4489	1976.5366	2219.5	1338.35
929.5869	1978.1342	2233.25	1351.8
929.7249	1979.7311	2231.25	1348.45
929.8629	1981.3273	2223.65	1344.05
930.0009	1982.9227	2225.55	1340.25
930.1388	1984.5173	2222	1340.5
930.2767	1986.1112	2205.5	1325.95
930.4146	1987.7044	2200.7	1321.15
930.5525	1989.2968	2195.3	1313.9
930.6904	1990.8885	2200.4	1315.1
930.8282	1992.4795	2195.75	1313.25
930.966	1994.0697	2200	1319.9
931.1038	1995.6592	2194.15	1313.25
931.2415	1997.2479	2190.55	1308.8
931.3793	1998.8359	2189.35	1308.45
931.517	2000.4232	2175.05	1294.95
931.6547	2002.0097	2180.3	1301.55
931.7923	2003.5955	2167.7	1286.65
931.93	2005.1805	2161.9	1282.3
932.0676	2006.7648	2162.35	1284.3
932.2052	2008.3484	2163.95	1281.45
932.3427	2009.9312	2164.8	1282.65
932.4803	2011.5133	2152.3	1272.2
932.6178	2013.0946	2149.95	1267.9
932.7553	2014.6752	2150.4	1271.2
932.8928	2016.2551	2152.4	1271.8
933.0302	2017.8342	2148.15	1267.35
933.1676	2019.4126	2139.1	1259.5
933.305	2020.9902	2138.1	1258.8
933.4424	2022.5672	2135.7	1253.6
933.5798	2024.1433	2132.95	1245.8
933.7171	2025.7188	2119.5	1239.4
933.8544	2027.2935	2130.1	1248.25
933.9917	2028.8674	2107.05	1227.15
934.129	2030.4406	2116.45	1236.75
934.2662	2032.0131	2113.5	1235
934.4034	2033.5849	2101.3	1215.65
934.5406	2035.1559	2113.8	1232.55
934.6778	2036.7261	2107	1225.9
934.8149	2038.2957	2095.65	1213.3
934.952	2039.8645	2092.9	1212.1
935.0891	2041.4325	2089	1205.1
935.2262	2042.9998	2081.55	1202.65
935.3632	2044.5664	2077.3	1194.45
935.5002	2046.1323	2086.1	1206.9
935.6372	2047.6974	2077.45	1197.7
935.7742	2049.2617	2064.85	1184.65
935.9111	2050.8254	2097.05	1194.6
936.048	2052.3883	2074.15	1192.95
936.1849	2053.9504	2068.8	1187.25
936.3218	2055.5118	2065.95	1185.85
936.4586	2057.0725	2062.45	1176.4
936.5955	2058.6325	2051.45	1169.95
936.7323	2060.1917	2047.4	1167.2
936.869	2061.7502	2046.8	1162.25
937.0058	2063.3079	2034.05	1153
937.1425	2064.8649	2041.2	1155.8
937.2792	2066.4212	2046.65	1163.95
937.4159	2067.9767	2025.95	1143.3
937.5525	2069.5315	2030.1	1150.9
937.6891	2071.0856	2030.05	1149.45
937.8257	2072.6389	2025.3	1144
937.9623	2074.1915	2011.2	1130.3
938.0989	2075.7433	2010.8	1127.65
938.2354	2077.2945	2001.45	1121.15
938.3719	2078.8448	2000.45	1119.7
938.5084	2080.3945	1996.2	1114.25
938.6448	2081.9434	1992.1	1111.9
938.7812	2083.4916	1986.05	1104.5
938.9176	2085.039	1982.55	1099.1
939.054	2086.5857	1986.3	1103.45
939.1903	2088.1317	1977.75	1097.05
939.3267	2089.677	1980.85	1098.65
939.463	2091.2215	1972.65	1092.7
939.5992	2092.7652	1971.85	1090.4
939.7355	2094.3083	1977.05	1096.15
939.8717	2095.8506	1960.95	1082.5
940.0079	2097.3921	1971.4	1090.85
940.1441	2098.933	1967.1	1085.7
940.2802	2100.4731	1961.5	1080.7
940.4163	2102.0124	1970.4	1082.6
940.5524	2103.5511	1957.9	1078.1
940.6885	2105.089	1953.6	1072.4
940.8245	2106.6261	1958.45	1077.55
940.9606	2108.1626	1952.9	1069.4
941.0965	2109.6983	1981.8	1071.7
941.2325	2111.2332	1944.9	1063.8
941.3684	2112.7675	1945.15	1063.15
941.5044	2114.301	1946.45	1063
941.6403	2115.8337	1931.8	1050.9
941.7761	2117.3657	1941.25	1060.2
941.912	2118.897	1932.8	1052.5
942.0478	2120.4276	1933.85	1045.95
942.1835	2121.9575	1920.25	1039.55
942.3193	2123.4866	1928.25	1033.6
942.455	2125.0149	1916.6	1032.25
942.5907	2126.5426	1919.95	1037.35
942.7264	2128.0695	1928	1041.15
942.8621	2129.5956	1914	1033.7
942.9977	2131.1211	1915.4	1029.45
943.1333	2132.6458	1914.7	1034.45
943.2689	2134.1698	1904.55	1022.65
943.4044	2135.693	1910.05	1024.05
943.54	2137.2155	1902.95	1022
943.6755	2138.7373	1902.75	1021.2
943.8109	2140.2584	1892.95	1011.6
943.9464	2141.7787	1893.15	1005.5
944.0818	2143.2983	1890.85	1011.2
944.2172	2144.8171	1886.05	1005.3
944.3526	2146.3353	1883.75	999.05
944.4879	2147.8527	1879.6	999.35
944.6232	2149.3693	1881.8	999.4
944.7585	2150.8853	1882.2	999.05
944.8938	2152.4005	1867.85	985.75
945.029	2153.9149	1872.45	991.9
945.1642	2155.4287	1862.5	981.85
945.2994	2156.9417	1863.9	981.45
945.4346	2158.454	1868.1	983.8
945.5697	2159.9655	1859.45	977.65
945.7048	2161.4764	1856.9	974.6
945.8399	2162.9865	1857.7	973.2
945.9749	2164.4958	1860.45	976.8
946.1099	2166.0045	1853.85	969
946.2449	2167.5124	1853.15	972.5
946.3799	2169.0195	1852.5	970.3
946.5148	2170.526	1850.35	967.35
946.6498	2172.0317	1846.5	965.55
946.7846	2173.5367	1844.8	962.9
946.9195	2175.0409	1842.1	962
947.0543	2176.5445	1837.1	956.85
947.1891	2178.0473	1829.15	946.95
947.3239	2179.5494	1829.5	941.85
947.4587	2181.0507	1832.1	949.9
947.5934	2182.5513	1821	939.4
947.7281	2184.0512	1817.35	937.3
947.8628	2185.5504	1821.5	941.35
947.9974	2187.0488	1823.1	941.7
948.132	2188.5465	1816.65	933.75
948.2666	2190.0435	1802.3	921.7
948.4012	2191.5397	1814.5	934.55
948.5357	2193.0353	1810.6	928.45
948.6702	2194.5301	1803.95	920.8
948.8047	2196.0241	1799.8	917.05
948.9392	2197.5175	1801.35	919.9
949.0736	2199.0101	1795.8	910.55
949.208	2200.502	1777.05	899.1
949.3424	2201.9931	1774.5	893.1
949.4767	2203.4835	1779.15	896.15
949.611	2204.9733	1789.3	901.15
949.7453	2206.4622	1782.45	899.9
949.8796	2207.9505	1776.2	892.05
950.0138	2209.438	1767.05	884.95
950.148	2210.9248	1764.4	881.45
950.2822	2212.4109	1768.4	887.35
950.4164	2213.8962	1772.45	887.05
950.5505	2215.3809	1761.5	879.25
950.6846	2216.8648	1765.55	885.95
950.8186	2218.3479	1759.35	874.45
950.9527	2219.8304	1759.75	875.25
951.0867	2221.3121	1758.7	875.8
951.2207	2222.7931	1749.95	868.2
951.3546	2224.2733	1747.75	863.85
951.4886	2225.7529	1732.1	851.15
951.6225	2227.2317	1746.9	862.2
951.7563	2228.7098	1738	858.6
951.8902	2230.1872	1736.55	854.2
952.024	2231.6638	1734.5	854
952.1578	2233.1397	1731.95	846.95
952.2916	2234.6149	1721.95	839.65
952.4253	2236.0894	1726.75	843.35
952.559	2237.5632	1729.25	844.1
952.6927	2239.0362	1719.4	837.1
952.8263	2240.5085	1717.9	837.9
952.9599	2241.9801	1708.85	828.05
953.0935	2243.4509	1714.25	833.6
953.2271	2244.921	1711.75	829.6
953.3606	2246.3904	1706.55	823
953.4941	2247.8591	1698.2	817.1
953.6276	2249.3271	1696.95	815.5
953.7611	2250.7943	1694.95	810.8
953.8945	2252.2608	1689.2	808.65
954.0279	2253.7266	1689.55	808.8
954.1612	2255.1917	1692.8	812.7
954.2946	2256.656	1681.45	797.75
954.4279	2258.1197	1683.2	801.4
954.5612	2259.5826	1683.55	799.55
954.6944	2261.0447	1680.9	797.5
954.8276	2262.5062	1675	790.45
954.9608	2263.9669	1674.45	792.15
955.094	2265.4269	1675.05	791.3
955.2271	2266.8862	1672.1	790.5
955.3602	2268.3448	1671.65	787.75
955.4933	2269.8026	1665.65	782.5
955.6264	2271.2598	1672.8	791.55
955.7594	2272.7162	1660.55	778.05
955.8924	2274.1719	1666.3	783.4
956.0253	2275.6268	1656	774.45
956.1583	2277.0811	1659.3	776.95
956.2912	2278.5346	1663.8	784.8
956.4241	2279.9874	1662.15	780.75
956.5569	2281.4395	1662.6	782
956.6897	2282.8908	1659.35	772.8
956.8225	2284.3414	1661.2	777.3
956.9553	2285.7914	1650.75	771.15
957.088	2287.2406	1648.85	763.6
957.2207	2288.689	1634.65	753.8
957.3534	2290.1368	1642.75	760.5
957.486	2291.5838	1647.05	763.65
957.6186	2293.0302	1637.75	755.65
957.7512	2294.4758	1636	752.6
957.8838	2295.9206	1637.95	753.3
958.0163	2297.3648	1633.1	751.35
958.1488	2298.8082	1625.5	742.55
958.2813	2300.251	1625.4	744.6
958.4137	2301.693	1626.5	741.45
958.5461	2303.1343	1626.25	743
958.6785	2304.5748	1621.95	741.55
958.8108	2306.0147	1609.15	727.5
958.9432	2307.4538	1622.85	738.55
959.0754	2308.8922	1612.45	731.7
959.2077	2310.3299	1614.35	731.2
959.3399	2311.7669	1605.15	724.7
959.4721	2313.2031	1609.95	729.3
959.6043	2314.6387	1606.75	725
959.7365	2316.0735	1599.8	720.3
959.8686	2317.5076	1601.1	717.1
960.0006	2318.941	1601.55	720.75
960.1327	2320.3737	1599.45	717.45
960.2647	2321.8056	1599.9	716.1
960.3967	2323.2369	1599.05	716.45
960.5287	2324.6674	1597.25	713.85
960.6606	2326.0972	1590.25	705.7
960.7925	2327.5263	1584.4	703.9
960.9244	2328.9547	1590.7	707.25
961.0562	2330.3823	1591.45	709.55
961.1881	2331.8092	1594.05	708.35
961.3198	2333.2355	1581.7	700.4
961.4516	2334.661	1588.95	704.85
961.5833	2336.0858	1576.75	692.35
961.715	2337.5098	1581.6	700.15
961.8467	2338.9332	1569.4	687.65
961.9783	2340.3558	1569.95	682.25
962.1099	2341.7778	1573.75	691.7
962.2415	2343.199	1573.7	687.25
962.373	2344.6195	1562.6	681.1
962.5045	2346.0393	1569.6	689.05
962.636	2347.4583	1572.4	689.65
962.7675	2348.8767	1569.5	685.5
962.8989	2350.2943	1570.75	689.25
963.0303	2351.7113	1557.1	676.25
963.1617	2353.1275	1565.1	684.85
963.293	2354.543	1577.35	669.85
963.4243	2355.9578	1564.8	683.3
963.5556	2357.3718	1554.4	671.3
963.6868	2358.7852	1564.35	681.7
963.818	2360.1978	1557.35	672.85
963.9492	2361.6098	1549.5	667.7
964.0803	2363.021	1550.95	664.65
964.2114	2364.4315	1542.35	662
964.3425	2365.8413	1543	659.65
964.4736	2367.2504	1547.75	666.5
964.6046	2368.6587	1540.3	658.7
964.7356	2370.0664	1542.85	661.8
964.8666	2371.4733	1535.9	653
964.9975	2372.8795	1528.15	647.9
965.1284	2374.285	1538.45	656.55
965.2593	2375.6899	1528.2	649
965.3901	2377.0939	1528.75	647.55
965.5209	2378.4973	1531.2	651.9
965.6517	2379.9	1524.9	642.2
965.7825	2381.3019	1520.4	638.45
965.9132	2382.7032	1523.4	642.5
966.0439	2384.1037	1523	643.55
966.1745	2385.5035	1515.05	633.75
966.3051	2386.9027	1514.45	635.7
966.4357	2388.3011	1512.15	631.1
966.5663	2389.6987	1509	630.9
966.6968	2391.0957	1504.7	622.15
966.8273	2392.492	1502.9	623.9
966.9578	2393.8876	1502.15	621.35
967.0882	2395.2824	1495.7	614.3
967.2186	2396.6765	1499.6	620.15
967.349	2398.07	1491.2	610
967.4793	2399.4627	1489.8	612
967.6097	2400.8547	1497.95	617.05
967.7399	2402.246	1492.6	608.3
967.8702	2403.6366	1487.2	606.4
968.0004	2405.0265	1483.9	604.45
968.1306	2406.4156	1488.6	604.45
968.2607	2407.8041	1489.3	605.85
968.3909	2409.1918	1480.6	597.7
968.521	2410.5789	1480.9	598.45
968.651	2411.9652	1477.65	594
968.781	2413.3508	1487.25	607.15
968.911	2414.7358	1472.5	590.95
969.041	2416.12	1475.5	596.25
969.1709	2417.5035	1479.85	600.1
969.3008	2418.8863	1475.6	592.3
969.4307	2420.2684	1468.5	589.35
969.5606	2421.6497	1465.4	584.4
969.6904	2423.0304	1461.8	582.35
969.8201	2424.4104	1467.95	586.8
969.9499	2425.7896	1465.55	582.9
970.0796	2427.1682	1460.1	578.2
970.2093	2428.546	1457.05	574.55
970.3389	2429.9232	1463.6	578.9
970.4685	2431.2996	1456.15	576.55
970.5981	2432.6753	1459.5	578.45
970.7277	2434.0503	1445.7	564.35
970.8572	2435.4246	1453.8	571.95
970.9867	2436.7982	1450.55	566.65
971.1161	2438.1711	1446.55	567.1
971.2456	2439.5433	1447.85	565.55
971.375	2440.9148	1451.8	563.75
971.5043	2442.2856	1441.85	560.9
971.6336	2443.6557	1436.6	554.55
971.7629	2445.025	1433.45	554
971.8922	2446.3937	1443.35	560.05
972.0214	2447.7617	1433.05	550.4
972.1506	2449.1289	1433.55	552.15
972.2798	2450.4955	1442.9	557.6
972.4089	2451.8613	1426.6	546.1
972.538	2453.2265	1432.4	549.4
972.6671	2454.5909	1439.6	557.4
972.7961	2455.9546	1430.45	549.75
972.9251	2457.3177	1432.5	553.6
973.0541	2458.68	1437.95	556.45
973.1831	2460.0416	1430.15	549.45
973.312	2461.4025	1430	548
973.4408	2462.7627	1437.8	543.7
973.5697	2464.1222	1428.95	548.1
973.6985	2465.4811	1426.95	544.8
973.8273	2466.8392	1423.9	542.1
973.956	2468.1966	1425.85	541.45
974.0847	2469.5533	1428	544.45
974.2134	2470.9093	1427.05	545.2
974.3421	2472.2645	1430.7	545.95
974.4707	2473.6191	1428.05	548.95
974.5993	2474.973	1424.8	541.85
974.7278	2476.3262	1419.5	537.9
974.8563	2477.6787	1416.95	534.8
974.9848	2479.0305	1414.7	535.6
975.1132	2480.3816	1415.3	530.75
975.2417	2481.7319	1401.9	520.15
975.37	2483.0816	1407.85	523.75
975.4984	2484.4306	1411.95	528.85
975.6267	2485.7789	1411.4	531.5
975.755	2487.1264	1408.3	526.3
975.8833	2488.4733	1403.95	521.4
976.0115	2489.8195	1413.4	515.15
976.1397	2491.165	1405.15	520.4
976.2678	2492.5097	1400.85	518.8
976.3959	2493.8538	1395.6	514
976.524	2495.1972	1392.5	511.9
976.6521	2496.5398	1393.25	508.75
976.7801	2497.8818	1390.6	507.75
976.9081	2499.2231	1391.95	511.25
977.036	2500.5637	1388.55	504.1
977.164	2501.9035	1379.1	495.65
977.2918	2503.2427	1392.35	509
977.4197	2504.5812	1386.15	505.25
977.5475	2505.919	1386.7	503.15
977.6753	2507.256	1389.7	507.95
977.8031	2508.5924	1381.4	499.05
977.9308	2509.9281	1385.2	499.6
978.0585	2511.2631	1380.15	499.05
978.1861	2512.5974	1383.85	501.9
978.3137	2513.9309	1378.55	496.1
978.4413	2515.2638	1406.6	496.9
978.5689	2516.596	1376.25	497.9
978.6964	2517.9275	1371.9	485.35
978.8239	2519.2583	1377.65	493
978.9513	2520.5884	1372.1	490.55
979.0788	2521.9178	1372.8	490.05
979.2062	2523.2465	1363.55	483.15
979.3335	2524.5745	1362.95	481.9
979.4608	2525.9018	1366.75	482
979.5881	2527.2284	1364.35	484.8
979.7154	2528.5543	1360.9	480.4
979.8426	2529.8796	1366.8	487.05
979.9698	2531.2041	1369	486.5
980.0969	2532.5279	1368.05	487.6
980.224	2533.851	1361.6	480.9
980.3511	2535.1735	1355.7	476
980.4781	2536.4952	1359	477.05
980.6052	2537.8163	1352.4	469.35
980.7321	2539.1366	1350.85	469.05
980.8591	2540.4562	1354.3	470.25
980.986	2541.7752	1358.25	475.75
981.1129	2543.0935	1354.45	473.95
981.2397	2544.411	1353.2	469.85
981.3665	2545.7279	1353.95	473.15
981.4933	2547.0441	1356.1	474.35
981.62	2548.3596	1360.45	475.7
981.7467	2549.6744	1350.75	469.45
981.8734	2550.9885	1341.6	459.45
982.0001	2552.3019	1351.7	470.15
982.1267	2553.6146	1350.2	469.35
982.2532	2554.9266	1347.9	466.55
982.3798	2556.2379	1343.9	459.55
982.5063	2557.5485	1343.35	463.9
982.6327	2558.8585	1340.4	452.45
982.7592	2560.1677	1346.9	462.85
982.8856	2561.4762	1331.05	448.6
983.0119	2562.7841	1343.1	458.5
983.1383	2564.0913	1338.25	458.1
983.2646	2565.3977	1334.75	453.65
983.3908	2566.7035	1337.8	458.3
983.517	2568.0086	1331.35	447.2
983.6432	2569.313	1331.75	449.1
983.7694	2570.6167	1337.25	453.55
983.8955	2571.9197	1327.7	445.95
984.0216	2573.222	1333.45	448.55
984.1476	2574.5236	1328.25	445.2
984.2737	2575.8246	1335.5	451.2
984.3996	2577.1248	1329.75	444.6
984.5256	2578.4244	1329.15	447.35
984.6515	2579.7232	1335.1	450.95
984.7774	2581.0214	1363.55	446.9
984.9032	2582.3189	1330.3	448.6
985.029	2583.6157	1339.2	452.6
985.1548	2584.9118	1342.25	460.2
985.2806	2586.2072	1341.7	458.55
985.4063	2587.5019	1336.65	456.7
985.5319	2588.7959	1341.6	459.55
985.6576	2590.0893	1345	462.7
985.7832	2591.3819	1341.95	460.5
985.9087	2592.6739	1346.5	465.35
986.0343	2593.9652	1346.55	466.4
986.1597	2595.2557	1356.05	473.65
986.2852	2596.5456	1349.6	465.25
986.4106	2597.8348	1348.7	468.45
986.536	2599.1234	1348.2	466.65
986.6614	2600.4112	1350.55	469.15
986.7867	2601.6983	1355.1	470.95
986.912	2602.9848	1348.25	466.8
987.0372	2604.2705	1352.3	463.85
987.1624	2605.5556	1350.85	468.6
987.2876	2606.84	1347.2	465.6
987.4128	2608.1237	1348	464.25
987.5379	2609.4067	1349.4	466.05
987.6629	2610.689	1354.8	463.15
987.788	2611.9707	1351.9	468.35
987.913	2613.2516	1352.35	467.2
988.0379	2614.5319	1348.6	467.2
988.1629	2615.8115	1341.65	459.8
988.2878	2617.0903	1339.1	456.55
988.4126	2618.3685	1342.35	460.15
988.5375	2619.6461	1340.25	456.9
988.6622	2620.9229	1339.15	458.75
988.787	2622.199	1342	460.4
988.9117	2623.4745	1346.45	464.35
989.0364	2624.7493	1344.95	462.85
989.161	2626.0234	1341.6	460.05
989.2857	2627.2968	1333.6	451.2
989.4102	2628.5695	1340.1	458.05
989.5348	2629.8415	1338.8	454.95
989.6593	2631.1128	1338.95	454.95
989.7837	2632.3835	1341.15	461.15
989.9082	2633.6535	1339.2	456.4
990.0326	2634.9228	1337.6	456.05
990.1569	2636.1914	1337.9	455.4
990.2812	2637.4593	1338.35	454.45
990.4055	2638.7265	1344.55	461.35
990.5298	2639.9931	1334.75	453.3
990.654	2641.259	1336.45	452.35
990.7782	2642.5242	1335.3	452.7
990.9023	2643.7887	1333.4	449.45
991.0264	2645.0525	1331.75	448.9
991.1505	2646.3156	1334.75	452.9
991.2745	2647.5781	1326.4	446.3
991.3985	2648.8398	1321.45	440.45
991.5225	2650.1009	1328.85	438.1
991.6464	2651.3613	1324.55	442.85
991.7703	2652.6211	1328.3	445.85
991.8942	2653.8801	1322.75	441.4
992.018	2655.1385	1328.05	443.6
992.1418	2656.3961	1325.25	442.75
992.2655	2657.6531	1323.6	440.65
992.3892	2658.9094	1330.6	449.4
992.5129	2660.1651	1325.4	445.2
992.6366	2661.42	1326.05	442.35
992.7602	2662.6743	1338.6	455.25
992.8837	2663.9279	1329.3	448
993.0073	2665.1808	1332.1	448.65
993.1307	2666.433	1336.2	454.3
993.2542	2667.6846	1337.5	455.05
993.3776	2668.9354	1341.8	457.2
993.501	2670.1856	1347.15	465
993.6244	2671.4351	1350.35	467.9
993.7477	2672.6839	1349.75	466.15
993.8709	2673.9321	1349.9	469.5
993.9942	2675.1795	1356.7	474.75
994.1174	2676.4263	1361.05	479.4
994.2405	2677.6724	1348.8	468.7
994.3637	2678.9179	1358.7	476
994.4868	2680.1626	1360.3	477.9
994.6098	2681.4067	1359.9	479.7
994.7328	2682.6501	1353.05	471.65
994.8558	2683.8928	1365.8	483.4
994.9788	2685.1348	1346.85	467.3
995.1017	2686.3761	1347.95	467.45
995.2245	2687.6168	1345.65	465.15
995.3474	2688.8568	1347.35	465.05
995.4702	2690.0961	1339.4	459.55
995.5929	2691.3348	1344.6	464
995.7156	2692.5727	1339.95	457.85
995.8383	2693.81	1335.95	454.3
995.961	2695.0466	1330.95	451.9
996.0836	2696.2826	1330.75	447.4
996.2062	2697.5178	1332.05	447.4
996.3287	2698.7524	1334.15	451.7
996.4512	2699.9863	1341.95	457.35
996.5737	2701.2195	1340.5	461.45
996.6961	2702.452	1344.4	461.65
996.8185	2703.6839	1345.65	464.1
996.9408	2704.9151	1348.45	465.15
997.0631	2706.1456	1358.05	475.5
997.1854	2707.3755	1368.9	487.35
997.3077	2708.6046	1375.75	490.25
997.4299	2709.8331	1379.6	498.65
997.552	2711.0609	1387.15	502.75
997.6742	2712.2881	1394	511.2
997.7963	2713.5145	1411.25	527.05
997.9183	2714.7403	1412	528.8
998.0403	2715.9654	1429.15	545.95
998.1623	2717.1899	1454	557.8
998.2842	2718.4136	1450.5	568.05
998.4062	2719.6367	1457.6	576.3
998.528	2720.8591	1481.8	592.85
998.6498	2722.0809	1487	605.3
998.7716	2723.3019	1496.5	610.35
998.8934	2724.5223	1500.05	619.3
999.0151	2725.7421	1511.35	626.75
999.1368	2726.9611	1515.45	631.65
999.2584	2728.1795	1518.75	631.45
999.38	2729.3972	1507.1	624.65
999.5016	2730.6142	1499.7	604.95
999.6231	2731.8306	1481.8	599
999.7446	2733.0462	1471.95	587
999.8661	2734.2612	1450.25	561.35
999.9875	2735.4756	1429.8	545.95
1000.1089	2736.6892	1416.05	535.65
1000.2302	2737.9022	1391.65	510.35
1000.3515	2739.1145	1391.6	508.35
1000.4728	2740.3262	1383.5	492.7
1000.594	2741.5372	1365.55	485.6
1000.7152	2742.7475	1349.4	466.75
1000.8363	2743.9571	1348.95	464.2
1000.9575	2745.1661	1338.75	451.5
1001.0785	2746.3744	1326.9	442.75
1001.1996	2747.582	1312	429.4
1001.3206	2748.7889	1312.45	428.4
1001.4415	2749.9952	1301.45	419.65
1001.5625	2751.2008	1296.05	414.65
1001.6833	2752.4057	1297	413.2
1001.8042	2753.61	1292.15	409.1
1001.925	2754.8136	1295.4	410.15
1002.0458	2756.0165	1288.1	407.15
1002.1665	2757.2188	1292.65	411.55
1002.2872	2758.4204	1289.95	408.05
1002.4078	2759.6213	1289.8	406.25
1002.5285	2760.8215	1292.05	402.95
1002.649	2762.0211	1292.8	409.4
1002.7696	2763.22	1290	403.8
1002.8901	2764.4182	1288.8	402.3
1003.0106	2765.6158	1289.65	407.7
1003.131	2766.8127	1279.95	396.4
1003.2514	2768.009	1277.2	394.4
1003.3717	2769.2045	1280.15	396.75
1003.492	2770.3994	1278.15	394.95
1003.6123	2771.5936	1272.3	389.3
1003.7325	2772.7872	1268.95	388
1003.8527	2773.9801	1273.2	389.15
1003.9729	2775.1723	1289.65	390.3
1004.093	2776.3639	1270.25	387.3
1004.2131	2777.5548	1268.5	386.3
1004.3331	2778.745	1277	392.8
1004.4531	2779.9346	1280.95	399.35
1004.5731	2781.1235	1284.05	400.6
1004.693	2782.3117	1284.7	403.75
1004.8129	2783.4992	1291.95	409.25
1004.9328	2784.6861	1290.75	409.6
1005.0526	2785.8723	1305.25	422.15
1005.1723	2787.0579	1313.7	430.45
1005.2921	2788.2428	1325.85	445.35
1005.4118	2789.427	1332.9	451.85
1005.5314	2790.6106	1337.8	456.45
1005.651	2791.7935	1351.65	465.95
1005.7706	2792.9757	1365.85	485.65
1005.8902	2794.1573	1378.6	492.1
1006.0097	2795.3382	1394.1	511.95
1006.1291	2796.5184	1410.75	530.2
1006.2485	2797.698	1428.25	544.15
1006.3679	2798.8769	1449.8	567.25
1006.4873	2800.0551	1463.45	581.15
1006.6066	2801.2327	1484.35	598.75
1006.7258	2802.4096	1507.55	626.75
1006.8451	2803.5859	1529	645.85
1006.9642	2804.7615	1547.25	663.85
1007.0834	2805.9364	1576.85	696.2
1007.2025	2807.1106	1597.9	715.75
1007.3216	2808.2842	1636.3	754
1007.4406	2809.4572	1671.95	789.1
1007.5596	2810.6294	1714.45	831.8
1007.6785	2811.801	1752.6	871.8
1007.7975	2812.972	1795	912.25
1007.9163	2814.1423	1844.4	962.55
1008.0352	2815.3119	1894.9	1012.45
1008.154	2816.4808	1934.7	1054.65
1008.2727	2817.6491	1979.85	1096.4
1008.3914	2818.8167	2038.75	1159.55
1008.5101	2819.9837	2094.1	1208.65
1008.6288	2821.15	2134.6	1251.05
1008.7474	2822.3157	2173.2	1291.2
1008.8659	2823.4807	2235.3	1354.3
1008.9844	2824.645	2283.8	1399.35
1009.1029	2825.8086	2318.15	1437.35
1009.2214	2826.9716	2354.35	1471.4
1009.3398	2828.134	2404.25	1521.6
1009.4581	2829.2957	2423.5	1541.55
1009.5764	2830.4567	2469	1585.8
1009.6947	2831.617	2474	1593.35
1009.813	2832.7767	2481.05	1600.4
1009.9312	2833.9358	2488.45	1606.85
1010.0493	2835.0941	2481.25	1598.85
1010.1675	2836.2519	2472.45	1589.1
1010.2855	2837.4089	2452.35	1569.2
1010.4036	2838.5653	2457.05	1576.85
1010.5216	2839.7211	2446.85	1564.95
1010.6396	2840.8761	2466.75	1585.55
1010.7575	2842.0306	2501.65	1619.8
1010.8754	2843.1843	2526.45	1644.5
1010.9932	2844.3374	2582	1697.85
1011.111	2845.4899	2636.2	1753.35
1011.2288	2846.6417	2718.15	1836.1
1011.3465	2847.7928	2789.3	1905.9
1011.4642	2848.9433	2866.25	1985
1011.5818	2850.0931	2966.8	2086.9
1011.6995	2851.2422	3041.25	2156.75
1011.817	2852.3907	3109.6	2230.85
1011.9345	2853.5385	3196.6	2312.5
1012.052	2854.6857	3257	2350.2
1012.1695	2855.8323	3300.25	2419.45
1012.2869	2856.9781	3356.7	2473.6
1012.4042	2858.1233	3397.35	2514.55
1012.5216	2859.2679	3453.85	2570.95
1012.6389	2860.4118	3491.85	2609.15
1012.7561	2861.555	3537.75	2652
1012.8733	2862.6976	3583.2	2698.9
1012.9905	2863.8395	3596.45	2716.2
1013.1076	2864.9808	3623.55	2741.8
1013.2247	2866.1214	3648.65	2767.8
1013.3417	2867.2614	3647.85	2764.4
1013.4587	2868.4007	3688.4	2802.65
1013.5757	2869.5393	3695.85	2814.05
1013.6926	2870.6773	3688.7	2805.65
1013.8095	2871.8146	3705.35	2820.6
1013.9263	2872.9513	3720.75	2837.35
1014.0431	2874.0874	3724.45	2842.5
1014.1599	2875.2227	3714.35	2833.8
1014.2766	2876.3574	3689.25	2809.45
1014.3933	2877.4915	3683.25	2800.45
1014.51	2878.6249	3626.8	2747.35
1014.6266	2879.7577	3616	2732.9
1014.7431	2880.8898	3605.65	2713.75
1014.8596	2882.0212	3575.85	2694.95
1014.9761	2883.152	3583.65	2700.2
1015.0925	2884.2821	3555.95	2673.9
1015.2089	2885.4116	3549.45	2668
1015.3253	2886.5405	3556.9	2676.3
1015.4416	2887.6686	3555.65	2671.25
1015.5579	2888.7962	3563.5	2683.1
1015.6741	2889.923	3568.25	2688.1
1015.7903	2891.0493	3573.4	2690.45
1015.9065	2892.1748	3591.35	2708.8
1016.0226	2893.2997	3611.5	2729.05
1016.1387	2894.424	3637.35	2755.45
1016.2547	2895.5476	3644.6	2764
1016.3707	2896.6706	3680.55	2798.9
1016.4866	2897.7929	3696.95	2815.75
1016.6025	2898.9145	3732.35	2850.5
1016.7184	2900.0355	3755.6	2873
1016.8342	2901.1559	3801.3	2919.45
1016.95	2902.2756	3821.1	2939.5
1017.0658	2903.3946	3862.8	2980.95
1017.1815	2904.513	3893.7	3009.85
1017.2971	2905.6308	3925.4	3042.5
1017.4127	2906.7479	3947.4	3065.75
1017.5283	2907.8643	3973.1	3090.75
1017.6439	2908.9801	4012.95	3129.4
1017.7594	2910.0953	4022.9	3141.3
1017.8748	2911.2098	3999.7	3114.15
1017.9902	2912.3236	4007	3117.65
1018.1056	2913.4368	3990.3	3105.95
1018.2209	2914.5494	3958.6	3077.35
1018.3362	2915.6613	3941	3052.65
1018.4515	2916.7725	3921.55	3037.75
1018.5667	2917.8831	3895.65	3013.9
1018.6819	2918.9931	3867.5	2981.8
1018.797	2920.1024	3833.45	2950.05
1018.9121	2921.211	3800.1	2918.5
1019.0271	2922.319	3776.35	2893.7
1019.1421	2923.4264	3762.2	2880.95
1019.2571	2924.5331	3753.25	2871.35
1019.372	2925.6391	3742.95	2859.15
1019.4869	2926.7445	3741.8	2860.7
1019.6017	2927.8493	3716.2	2833.5
1019.7165	2928.9534	3726.75	2844.6
1019.8313	2930.0569	3721.1	2836.95
1019.946	2931.1597	3701.4	2819.45
1020.0606	2932.2619	3688.85	2808.05
1020.1753	2933.3634	3675	2793.5
1020.2899	2934.4643	3687.55	2799.7
1020.4044	2935.5645	3658.4	2769
1020.5189	2936.6641	3621	2732.9
1020.6334	2937.763	3565.95	2686
1020.7478	2938.8613	3529.1	2646.95
1020.8622	2939.959	3452.75	2565.65
1020.9765	2941.056	3377.65	2497.8
1021.0908	2942.1523	3280.85	2396.35
1021.2051	2943.248	3202.25	2319.1
1021.3193	2944.3431	3113.3	2230.15
1021.4334	2945.4375	3002.4	2120.55
1021.5476	2946.5313	2895.75	2014
1021.6617	2947.6244	2785.55	1903.35
1021.7757	2948.7169	2683.95	1801.4
1021.8897	2949.8087	2580.95	1701.25
1022.0037	2950.8999	2493.85	1609.7
1022.1176	2951.9904	2408.35	1527.4
1022.2315	2953.0803	2328.7	1444.35
1022.3453	2954.1696	2267.75	1384.85
1022.4591	2955.2582	2222.8	1340.6
1022.5728	2956.3462	2163.95	1280.55
1022.6865	2957.4335	2128.7	1246.9
1022.8002	2958.5202	2101.6	1219.4
1022.9138	2959.6062	2066.9	1186.75
1023.0274	2960.6916	2045.85	1167.85
1023.141	2961.7764	2036.45	1153.1
1023.2545	2962.8605	2009.25	1126.35
1023.3679	2963.9439	1998.85	1119.3
1023.4813	2965.0267	1975.25	1092.7
1023.5947	2966.1089	1996.25	1092.3
1023.708	2967.1905	1973.2	1091.9
1023.8213	2968.2714	1968.7	1088.9
1023.9346	2969.3516	1971.25	1089.6
1024.0478	2970.4312	1972.8	1083
1024.1609	2971.5102	1973.25	1092.1
1024.274	2972.5885	1973.1	1093.3
1024.3871	2973.6662	1982.25	1096.05
1024.5002	2974.7432	1969.5	1088.65
1024.6132	2975.8196	1972.95	1090.45
1024.7261	2976.8954	1949	1069
1024.839	2977.9705	1947.65	1066.1
1024.9519	2979.045	1929.3	1049.5
1025.0647	2980.1188	1905.25	1024.05
1025.1775	2981.192	1890.6	1010.5
1025.2902	2982.2645	1866.2	980.7
1025.4029	2983.3364	1844.25	961
1025.5156	2984.4077	1814.5	933.45
1025.6282	2985.4783	1788.95	902.3
1025.7407	2986.5483	1752.85	870.5
1025.8532	2987.6177	1720.45	841.3
1025.9657	2988.6864	1680.3	798.6
1026.0782	2989.7545	1649.5	767.45
1026.1906	2990.8219	1616.05	735.2
1026.3029	2991.8887	1587.3	704.15
1026.4152	2992.9548	1551.8	669.3
1026.5275	2994.0204	1516.7	634.7
1026.6397	2995.0852	1486.9	605.65
1026.7519	2996.1495	1468.6	586.35
1026.864	2997.2131	1442.45	559.85
1026.9761	2998.276	1428	546.75
1027.0882	2999.3383	1412.6	530.3
1027.2002	3000.4	1393.6	509.95
1027.3122	3001.4611	1376.3	493.55
1027.4241	3002.5215	1359.25	476.95
1027.536	3003.5812	1351.25	469.6
1027.6478	3004.6404	1336.8	455.2
1027.7596	3005.6989	1327.2	443.35
1027.8714	3006.7567	1322.2	439.55
1027.9831	3007.8139	1324.3	423.45
1028.0947	3008.8705	1298	415.7
1028.2064	3009.9264	1298.85	413.75
1028.3179	3010.9818	1294.2	410.55
1028.4295	3012.0364	1297.8	415.25
1028.541	3013.0905	1293.15	410.55
1028.6524	3014.1439	1288.5	407
1028.7638	3015.1966	1284.25	403.3
1028.8752	3016.2487	1279.6	398.7
1028.9865	3017.3002	1287.15	401.5
1029.0978	3018.3511	1284.45	406.45
1029.209	3019.4013	1287.05	403.35
1029.3202	3020.4509	1294.8	414.75
1029.4314	3021.4998	1296.2	414.1
1029.5425	3022.5481	1289.8	407.65
1029.6535	3023.5958	1294.55	412.85
1029.7645	3024.6428	1299.35	414.8
1029.8755	3025.6892	1299.95	418.4
1029.9864	3026.735	1296.3	412.3
1030.0973	3027.7802	1304.2	423.25
1030.2082	3028.8247	1304.5	423.55
1030.319	3029.8685	1312.2	430.55
1030.4297	3030.9118	1315.9	433.95
1030.5404	3031.9544	1318.5	437.3
1030.6511	3032.9963	1323.75	443.8
1030.7617	3034.0376	1329.75	449.4
1030.8723	3035.0783	1334.75	451.45
1030.9829	3036.1184	1341.35	458.9
1031.0934	3037.1578	1342.05	460.55
1031.2038	3038.1966	1345.3	462
1031.3142	3039.2348	1345	464.8
1031.4246	3040.2723	1350.9	460.7
1031.5349	3041.3092	1346.85	465.9
1031.6452	3042.3455	1338.95	457.7
1031.7554	3043.3811	1337.05	455.15
1031.8656	3044.4161	1337.5	456.8
1031.9758	3045.4505	1322.25	440.85
1032.0859	3046.4842	1316.8	435.15
1032.1959	3047.5173	1315.7	435.85
1032.3059	3048.5498	1306.9	424.95
1032.4159	3049.5816	1299.5	416.6
1032.5258	3050.6128	1299	418.5
1032.6357	3051.6434	1289.2	406.1
1032.7455	3052.6734	1285.6	400.7
1032.8553	3053.7027	1279.55	398.1
1032.9651	3054.7314	1262.05	379.9
1033.0748	3055.7594	1266.2	385.55
1033.1845	3056.7868	1263.4	381.7
1033.2941	3057.8136	1251.35	370.4
1033.4037	3058.8398	1247.55	368.7
1033.5132	3059.8653	1239.35	358.5
1033.6227	3060.8902	1243.15	362.5
1033.7321	3061.9145	1234.8	355.45
1033.8415	3062.9381	1224.5	341.7
1033.9509	3063.9612	1244.9	350.4
1034.0602	3064.9835	1217.05	336.2
1034.1694	3066.0053	1210.4	326.05
1034.2787	3067.0264	1203.8	322.8
1034.3878	3068.0469	1200.25	317.7
1034.497	3069.0668	1187.1	303.3
1034.6061	3070.086	1183.15	303.25
1034.7151	3071.1046	1163.75	279.75
1034.8241	3072.1226	1162.5	279.5
1034.9331	3073.1399	1152.85	270.4
1035.042	3074.1567	1142.05	262.05
1035.1508	3075.1727	1138.35	255.2
1035.2597	3076.1882	1125.9	245.5
1035.3684	3077.203	1118.95	239
1035.4772	3078.2173	1108.55	225.7
1035.5859	3079.2308	1106.3	221.55
1035.6945	3080.2438	1095.7	210.7
1035.8031	3081.2561	1084.95	204.15
1035.9117	3082.2678	1078.55	196.45
1036.0202	3083.2789	1075.05	192.05
1036.1286	3084.2893	1067.15	187.1
1036.2371	3085.2991	1061.9	181.3
1036.3454	3086.3083	1057.6	170.35
1036.4538	3087.3169	1052.85	170.7
1036.562	3088.3248	1047.55	166.2
1036.6703	3089.3321	1043.55	160.3
1036.7785	3090.3388	1038.95	159.15
1036.8866	3091.3449	1035.05	152.3
1036.9948	3092.3503	1034.2	151.35
1037.1028	3093.3551	1024.85	144.4
1037.2108	3094.3593	1022.9	142.15
1037.3188	3095.3629	1019.75	139.45
1037.4267	3096.3658	1021.2	139.1
1037.5346	3097.3681	1014.45	131.5
1037.6425	3098.3698	1013.45	132.2
1037.7503	3099.3708	1017.5	129.35
1037.858	3100.3713	1009.15	128.2
1037.9657	3101.3711	1009.55	126.35
1038.0734	3102.3702	1143	124.2
1038.181	3103.3688	1006.65	122.05
1038.2886	3104.3667	1001.9	122.25
1038.3961	3105.364	996.5	113.65
1038.5036	3106.3607	1001.75	117.8
1038.611	3107.3568	997.9	115.9
1038.7184	3108.3522	992.9	111.9
1038.8257	3109.347	996.9	116
1038.933	3110.3412	998.75	114.05
1039.0403	3111.3348	996.45	116.05
1039.1475	3112.3277	992.1	112.75
1039.2547	3113.32	989.6	106.6
1039.3618	3114.3117	990.9	109.25
1039.4689	3115.3028	990.3	109
1039.5759	3116.2932	987.95	103.15
1039.6829	3117.2831	992.6	104.85
1039.7898	3118.2723	986.3	105.55
1039.8967	3119.2608	981.4	101.3
1040.0035	3120.2488	984.55	102.15
1040.1103	3121.2361	980.5	98.05
1040.2171	3122.2229	979	98.45
1040.3238	3123.209	981.85	99.7
1040.4305	3124.1944	978.6	100.2
1040.5371	3125.1793	981.5	98.1
1040.6437	3126.1635	975.3	94.15
1040.7502	3127.1471	973.05	91.55
1040.8567	3128.1301	974.15	94.05
1040.9631	3129.1125	971.7	93.2
1041.0695	3130.0942	972.85	92.95
1041.1759	3131.0753	979.8	88.85
1041.2822	3132.0558	977.25	92.8
1041.3884	3133.0357	969.6	88.5
1041.4946	3134.015	969.55	86.95
1041.6008	3134.9936	968.8	87.65
1041.7069	3135.9716	988.3	85.8
1041.813	3136.949	969.05	90.15
1041.919	3137.9258	985.15	85.9
1042.025	3138.902	970.7	84.35
1042.1309	3139.8775	963.5	83
1042.2368	3140.8524	960	78.8
1042.3427	3141.8267	961.7	78.65
1042.4485	3142.8004	961.25	80.2
1042.5542	3143.7735	970.1	82.15
1042.6599	3144.7459	962.55	80.5
1042.7656	3145.7178	959.8	78.25
1042.8712	3146.689	958.55	78.85
1042.9768	3147.6596	961	78.9
1043.0823	3148.6295	957.8	75.95
1043.1878	3149.5989	954.65	73.05
1043.2932	3150.5676	953.5	72.95
1043.3986	3151.5357	954.45	75.85
1043.5039	3152.5032	952.9	72
1043.6092	3153.4701	952.85	71.9
1043.7145	3154.4364	952.65	69.9
1043.8197	3155.402	950.35	71.6
1043.9248	3156.367	954.95	72
1044.03	3157.3315	991.2	64.95
1044.135	3158.2952	950.8	68.5
1044.24	3159.2584	946.25	66
1044.345	3160.221	950	65.85
1044.4499	3161.1829	946.5	63.4
1044.5548	3162.1442	947.4	68
1044.6596	3163.105	946.15	67.5
1044.7644	3164.065	943.2	62.3
1044.8692	3165.0245	949.6	64.45
1044.9739	3165.9834	949.1	70.95
1045.0785	3166.9416	945.3	65.95
1045.1831	3167.8993	943.65	62.95
1045.2877	3168.8563	944.1	62
1045.3922	3169.8127	941.25	60.5
1045.4966	3170.7684	945	61.55
1045.6011	3171.7236	943.9	62.2
1045.7054	3172.6782	940.65	60.9
1045.8098	3173.6321	940.4	58.15
1045.914	3174.5854	943.95	58.4
1046.0183	3175.5381	940.95	59.95
1046.1224	3176.4902	938.5	59.9
1046.2266	3177.4417	937.9	55
1046.3307	3178.3926	937.5	57.25
1046.4347	3179.3428	934.45	55.8
1046.5387	3180.2924	935.6	54
1046.6427	3181.2415	938.3	59.35
1046.7466	3182.1899	939.25	59.05
1046.8504	3183.1377	938.4	57.3
1046.9542	3184.0848	940.95	56.5
1047.058	3185.0314	935.85	51.85
1047.1617	3185.9773	935	54.4
1047.2654	3186.9227	937.05	54.35
1047.369	3187.8674	934.15	55.3
1047.4726	3188.8115	940.35	53.2
1047.5761	3189.755	936.6	57.9
1047.6796	3190.6979	934.75	53.95
1047.783	3191.6402	931.2	52.35
1047.8864	3192.5818	936	54.75
1047.9898	3193.5229	953.6	51.9
1048.0931	3194.4633	933.25	52.85
1048.1963	3195.4031	932.1	51.9
1048.2995	3196.3423	931.2	51.6
1048.4027	3197.2809	934	53.1
1048.5058	3198.2189	935.9	56
1048.6089	3199.1563	947.2	49.85
1048.7119	3200.0931	930.95	50.55
1048.8148	3201.0292	929.45	50.5
1048.9178	3201.9648	931.3	50.9
1049.0206	3202.8997	933.1	50.7
1049.1235	3203.834	930.5	51.2
1049.2262	3204.7677	930.05	50.4
1049.329	3205.7008	933.1	51.6
1049.4317	3206.6333	928.35	47.25
1049.5343	3207.5652	931	46.85
1049.6369	3208.4964	929.9	48.35
1049.7394	3209.4271	926.9	47.75
1049.8419	3210.3571	926.15	46.3
1049.9444	3211.2865	930.9	51.95
1050.0468	3212.2154	927.4	46.9
1050.1491	3213.1436	929.8	46.15
1050.2514	3214.0712	934.15	47.3
1050.3537	3214.9982	926	46.6
1050.4559	3215.9246	926.25	45.45
1050.5581	3216.8503	926.95	48.3
1050.6602	3217.7755	926.8	46.6
1050.7623	3218.7001	924.55	43.8
1050.8643	3219.624	926.3	47.05
1050.9663	3220.5473	924.15	42.95
1051.0682	3221.4701	927.65	46
1051.1701	3222.3922	929.45	46.6
1051.2719	3223.3137	926.45	48.35
1051.3737	3224.2346	923.75	43.7
1051.4754	3225.1549	924.7	44.4
1051.5771	3226.0746	922.85	43.3
1051.6788	3226.9937	922.8	41.3
1051.7804	3227.9121	924.4	43.75
1051.8819	3228.83	924.05	42.85
1051.9834	3229.7473	924.05	44.3
1052.0849	3230.6639	922.7	42.3
1052.1863	3231.5799	925.15	44.5
1052.2876	3232.4954	923.8	43.65
1052.3889	3233.4102	921.4	42.2
1052.4902	3234.3244	924.3	43.8
1052.5914	3235.238	918.95	41.75
1052.6926	3236.151	942.05	38.25
1052.7937	3237.0634	922.3	42.6
1052.8948	3237.9752	919.25	38.75
1052.9958	3238.8864	916.25	34.95
1053.0968	3239.797	922.25	41.55
1053.1977	3240.7069	921	42.1
1053.2986	3241.6163	922.55	40.65
1053.3994	3242.5251	919.35	39.75
1053.5002	3243.4332	917.8	37.4
1053.6009	3244.3408	921.25	40.6
1053.7016	3245.2477	919.25	39.65
1053.8022	3246.154	922.15	40.15
1053.9028	3247.0598	921.15	40.45
1054.0034	3247.9649	920	39.55
1054.1039	3248.8694	917.75	37.05
1054.2043	3249.7733	919.5	41.25
1054.3047	3250.6766	918.05	36.2
1054.4051	3251.5793	917.7	37.15
1054.5054	3252.4814	917.45	37.85
1054.6056	3253.3829	916.7	37.05
1054.7058	3254.2838	913.2	33.35
1054.806	3255.1841	915.35	35.25
1054.9061	3256.0838	913.55	33.5
1055.0061	3256.9829	912.9	30.5
1055.1062	3257.8814	915.55	32.2
1055.2061	3258.7792	914.2	31.95
1055.306	3259.6765	914.25	34.8
1055.4059	3260.5731	914.3	33.45
1055.5057	3261.4692	913	30.45
1055.6055	3262.3647	911.8	31.4
1055.7052	3263.2595	912.7	32
1055.8049	3264.1538	910.55	31.85
1055.9045	3265.0474	910.95	29
1056.0041	3265.9404	908.75	29.6
1056.1036	3266.8329	906.7	27.45
1056.2031	3267.7247	918.2	27.5
1056.3025	3268.616	905.85	25.6
1056.4019	3269.5066	908.1	27.3
1056.5013	3270.3966	907	24.5
1056.6005	3271.286	905.6	25.4
