Software Version:	3.9.2.0
Unit SN:	10000200
Spectrometer SN:	6960
Date:	3/14/2024 1:15:39 PM
Data Line Index:	25
Spectral Points:	2048
Integration time (ms):	125
Averages:	20
Delay (ms):	30000
Sequence Number:	1
Processing:	dark subtract
Laser Power (mW):	305
Laser Current (mA):	825
Laser Diode Temp (C):	25
Laser Case Temp (C):	28.2
System Temp (C):	28.2
Spectrometer Temp (C):	26.2
CCD Temp (C):	0.008
Secondary Temp (C):	20.013
Heatsink Temp (C):	24.126
CCDPCB Temp (C):	37.674
SecondaryPCB Temp (C):	35.418

Wavelength	RamanShift	Raw Counts	Dark Subtracted
787.061	30.1047	446.7	36.3
787.2016	32.3739	446.3	38.3
787.3422	34.6426	450.8	40.4
787.4828	36.9109	453.75	42.35
787.6235	39.1787	461.15	45.35
787.7642	41.4461	469.5	48.65
787.9049	43.7131	478.35	52.6
788.0456	45.9796	485.75	55.85
788.1863	48.2456	493.05	62.2
788.3271	50.5112	502.45	67.45
788.4679	52.7764	507.9	71
788.6087	55.0411	518.4	77
788.7496	57.3054	527.85	81.15
788.8904	59.5692	537.05	87.5
789.0313	61.8326	547.95	96.55
789.1722	64.0955	562.4	105.55
789.3132	66.3579	575.9	111.7
789.4541	68.6199	587.7	123.05
789.5951	70.8815	612.05	143.45
789.7361	73.1426	680.55	208.05
789.8771	75.4032	844.25	368
790.0181	77.6634	1238.95	756.25
790.1592	79.9231	2165.15	1679.65
790.3003	82.1824	4186.7	3690.9
790.4414	84.4412	7828.9	7316.95
790.5825	86.6995	12850.45	12320.3
790.7237	88.9574	17836.15	17289.6
790.8648	91.2148	21260.75	20704.15
791.006	93.4717	22856.65	22289.65
791.1472	95.7282	23111.25	22540.6
791.2885	97.9842	22961.5	22389.3
791.4297	100.2398	22382.3	21804.55
791.571	102.4949	21741.75	21160.7
791.7123	104.7495	21026.95	20442.25
791.8536	107.0036	20316.7	19731.2
791.9949	109.2573	19688	19105.1
792.1363	111.5105	19087.4	18504.2
792.2777	113.7632	18535.35	17950.45
792.4191	116.0154	18132.95	17535.6
792.5605	118.2672	17828.5	17237.1
792.7019	120.5185	17533.6	16939.95
792.8434	122.7693	17297.55	16705.1
792.9849	125.0197	17074.05	16476.9
793.1264	127.2696	16841.5	16240.15
793.2679	129.519	16706.15	16105.75
793.4094	131.7679	16525.75	15919.9
793.551	134.0163	16292.7	15684.45
793.6926	136.2642	16066.1	15451.5
793.8342	138.5117	15758.2	15135.7
793.9758	140.7587	15448.2	14827.3
794.1175	143.0052	15220.1	14598.35
794.2591	145.2512	14964.5	14344.75
794.4008	147.4967	14704.6	14084.6
794.5425	149.7417	14500.85	13879.8
794.6842	151.9863	14371.75	13744.45
794.826	154.2304	14278	13646.9
794.9677	156.4739	14167.65	13532.55
795.1095	158.717	14057.6	13421.4
795.2513	160.9596	13943.95	13304.85
795.3931	163.2017	13741.25	13101.2
795.535	165.4433	13502.3	12856.85
795.6768	167.6844	13246.15	12604.25
795.8187	169.925	13000.75	12351.35
795.9606	172.1651	12734.55	12082.55
796.1025	174.4047	12536.85	11882.5
796.2445	176.6439	12321.4	11666.45
796.3864	178.8825	12176.6	11518.35
796.5284	181.1206	12082.35	11419.6
796.6704	183.3582	11932.05	11266.55
796.8124	185.5954	11860.25	11194.15
796.9544	187.832	11777.3	11105.7
797.0965	190.0681	11765.2	11090.95
797.2386	192.3037	11750.55	11073.6
797.3806	194.5388	11734.15	11055.45
797.5228	196.7734	11769.65	11089.05
797.6649	199.0075	11836.15	11147.75
797.807	201.2411	11899.9	11212
797.9492	203.4742	11969.65	11280.95
798.0914	205.7068	12088.15	11400.35
798.2336	207.9389	12154.35	11466.3
798.3758	210.1704	12276.7	11584.1
798.518	212.4015	12371.2	11679.7
798.6603	214.632	12465.55	11772.4
798.8025	216.862	12562.8	11873.2
798.9448	219.0915	12648.1	11965.85
799.0871	221.3205	12678.8	11998.7
799.2294	223.549	12755.4	12082.75
799.3718	225.777	12815.2	12141.95
799.5141	228.0044	12899.2	12221.45
799.6565	230.2314	13010.85	12338.2
799.7989	232.4578	13114.5	12437.75
799.9413	234.6837	13198.65	12517.15
800.0837	236.909	13255.3	12573.15
800.2262	239.1339	13250.9	12543.2
800.3687	241.3582	13180.5	12487.15
800.5111	243.582	13098.85	12382.55
800.6536	245.8053	13010.05	12297.8
800.7961	248.0281	12974.65	12267.85
800.9387	250.2503	12941.05	12230.15
801.0812	252.472	12966.95	12252.25
801.2238	254.6932	13049.1	12328.75
801.3664	256.9139	13128.4	12406.85
801.509	259.134	13266.25	12540.35
801.6516	261.3536	13425.95	12702.2
801.7942	263.5727	13676.7	12953.75
801.9369	265.7912	13837.05	13115.85
802.0795	268.0092	14084.4	13359.6
802.2222	270.2267	14255.55	13528.85
802.3649	272.4436	14326.5	13600.3
802.5076	274.6601	14328.25	13593.85
802.6504	276.8759	14273.4	13541.55
802.7931	279.0913	14216.05	13485.6
802.9359	281.3061	14099.45	13366.75
803.0787	283.5204	14053.5	13317.2
803.2215	285.7341	14030.9	13293.9
803.3643	287.9473	14053.75	13309.5
803.5071	290.16	14075.35	13327.8
803.6499	292.3721	14152	13412.5
803.7928	294.5837	14290.25	13548.7
803.9357	296.7947	14442.05	13701.25
804.0786	299.0052	14568.2	13824.85
804.2215	301.2152	14559.6	13815.5
804.3644	303.4246	14422.5	13679.3
804.5074	305.6334	14123.95	13382.1
804.6503	307.8418	13841.1	13096.05
804.7933	310.0495	13507.65	12762.35
804.9363	312.2568	13174.55	12431.45
805.0793	314.4635	12866.75	12122.65
805.2223	316.6696	12621.25	11872.6
805.3653	318.8752	12437.65	11681.05
805.5084	321.0802	12389.45	11639.25
805.6514	323.2847	12370.65	11621.5
805.7945	325.4887	12415.05	11663.35
805.9376	327.692	12379	11625.9
806.0807	329.8949	12365.9	11613
806.2238	332.0972	12212.35	11458.7
806.367	334.2989	12066.25	11307.95
806.5101	336.5001	11866.85	11107.65
806.6533	338.7007	11723.65	10965.85
806.7965	340.9008	11597.5	10839.1
806.9397	343.1003	11448.25	10685.95
807.0829	345.2992	11359.35	10593.15
807.2261	347.4976	11301.4	10536.65
807.3693	349.6955	11189.6	10420.5
807.5126	351.8927	11194.45	10425.35
807.6559	354.0895	11127.1	10346.65
807.7991	356.2856	11098.7	10326.75
807.9424	358.4812	11036.15	10266.55
808.0857	360.6763	11013.5	10241.3
808.2291	362.8707	11007.15	10234.6
808.3724	365.0646	11039.8	10263.35
808.5158	367.258	11047	10269
808.6591	369.4508	11093.1	10311.85
808.8025	371.643	11189.6	10410.45
808.9459	373.8346	11257.8	10474.8
809.0893	376.0257	11331.25	10546
809.2327	378.2162	11366.7	10580.5
809.3762	380.4062	11334.6	10545.6
809.5196	382.5956	11236.25	10446.25
809.6631	384.7844	11139.55	10351.1
809.8066	386.9726	11017.1	10228.35
809.9501	389.1603	10963.8	10174.75
810.0936	391.3474	10916.8	10093.65
810.2371	393.5339	10860.2	10072.5
810.3806	395.7199	10813.05	10028.7
810.5241	397.9052	10849.1	10068
810.6677	400.09	10916.7	10135.75
810.8113	402.2743	11012.05	10230.2
810.9548	404.4579	11147.45	10366.5
811.0984	406.641	11286.75	10505.9
811.2421	408.8235	11411.3	10629.6
811.3857	411.0054	11543.2	10762.2
811.5293	413.1868	11690.05	10903.6
811.673	415.3675	11768.9	10980.2
811.8166	417.5477	11746.15	10958.2
811.9603	419.7273	11684.95	10894.4
812.104	421.9064	11629.25	10830.9
812.2477	424.0848	11545.05	10750.2
812.3914	426.2627	11428	10630.05
812.5351	428.4399	11227.3	10428.6
812.6788	430.6166	10971.95	10169.55
812.8226	432.7928	10731.55	9930.3
812.9663	434.9683	10486.2	9685.7
813.1101	437.1432	10316.1	9510.9
813.2539	439.3176	10158.55	9352.75
813.3977	441.4914	10053.2	9245.55
813.5415	443.6645	10029.05	9217.7
813.6853	445.8371	9985.7	9178.9
813.8291	448.0091	9950.5	9143.35
813.973	450.1806	9920.95	9114.95
814.1168	452.3514	9892.55	9083.85
814.2607	454.5216	9934.25	9114.9
814.4046	456.6913	9916.3	9107.1
814.5485	458.8603	9948.5	9138.4
814.6924	461.0288	9995.35	9182.3
814.8363	463.1967	9953.75	9144.1
814.9802	465.3639	9985.35	9173
815.1241	467.5306	9976.5	9163.65
815.2681	469.6967	9952.85	9139.3
815.412	471.8622	9959.85	9148.05
815.556	474.0271	9985.6	9172.4
815.7	476.1914	10027.05	9211.05
815.844	478.3551	9994.6	9181.75
815.988	480.5182	10029.45	9214.3
816.132	482.6807	10089.05	9273.25
816.276	484.8426	10243	9428.8
816.4201	487.0039	10497.4	9680.6
816.5641	489.1647	10816.6	9998.4
816.7082	491.3248	11028.4	10212.4
816.8522	493.4843	11114.3	10300.2
816.9963	495.6432	11066.05	10248.85
817.1404	497.8015	10959.7	10138.5
817.2845	499.9592	10846.2	10029
817.4286	502.1163	10694.1	9873.05
817.5727	504.2728	10456.1	9634.3
817.7168	506.4287	10217.6	9400.15
817.861	508.5839	9974.35	9151.95
818.0051	510.7386	9820.45	8998.8
818.1493	512.8927	9767.6	8940.3
818.2935	515.0461	9746.9	8919.95
818.4377	517.199	9787.2	8964.7
818.5818	519.3512	9900.75	9076.45
818.726	521.5029	10110.65	9281.3
818.8703	523.6539	10291	9466.3
819.0145	525.8043	10379.95	9554.05
819.1587	527.9541	10321.25	9493.65
819.303	530.1033	10173.7	9342.95
819.4472	532.2519	10017.55	9192.65
819.5915	534.3999	9985.55	9160.35
819.7357	536.5472	10053.7	9226
819.88	538.694	10181.1	9350.95
820.0243	540.8401	10388.9	9563.7
820.1686	542.9856	10529.55	9698.4
820.3129	545.1305	10566.55	9734.45
820.4572	547.2748	10517.85	9687.15
820.6016	549.4185	10359.4	9526.05
820.7459	551.5615	10257.15	9426.9
820.8902	553.704	10222.7	9391.7
821.0346	555.8458	10286.9	9457.1
821.1789	557.987	10416.05	9585.05
821.3233	560.1276	10572.8	9740.05
821.4677	562.2675	10866.95	10036.8
821.6121	564.4069	11241.25	10406.75
821.7565	566.5456	11584.55	10754.8
821.9009	568.6837	11705	10873.1
822.0453	570.8212	11406.45	10576.05
822.1897	572.958	10878.4	10048.4
822.3342	575.0942	10353	9521.35
822.4786	577.2299	10014.3	9181.95
822.6231	579.3648	9841.4	9008.2
822.7675	581.4992	9809.2	8973.8
822.912	583.6329	9864.6	9029.55
823.0565	585.766	10008.4	9171
823.201	587.8985	10104.3	9271.15
823.3454	590.0304	10156.65	9296.15
823.4899	592.1616	10093.35	9252.65
823.6345	594.2922	10012	9175.4
823.779	596.4222	9860.35	9022
823.9235	598.5515	9715.95	8878.3
824.068	600.6802	9540.2	8702.3
824.2126	602.8083	9416.1	8577.2
824.3571	604.9358	9404.25	8565.2
824.5017	607.0626	9408.75	8569.95
824.6462	609.1888	9471.05	8629.65
824.7908	611.3144	9606.1	8766.55
824.9354	613.4393	9697.85	8857.75
825.08	615.5636	9780	8940.55
825.2246	617.6873	9782.7	8940.6
825.3692	619.8103	9748.7	8904.65
825.5138	621.9327	9585.1	8741.05
825.6584	624.0544	9410.3	8571.65
825.803	626.1756	9263.8	8423.85
825.9477	628.2961	9152.35	8309.85
826.0923	630.4159	9085.65	8242.65
826.237	632.5351	9063.15	8219.55
826.3816	634.6537	9056.05	8209.95
826.5263	636.7716	9058	8215.15
826.6709	638.8889	9071.45	8225.45
826.8156	641.0056	9068.15	8224.9
826.9603	643.1216	9045.25	8200.5
827.105	645.237	9030.4	8183.45
827.2497	647.3518	8952.1	8104.65
827.3944	649.4659	8919.1	8073.75
827.5391	651.5793	8853.15	8004.5
827.6838	653.6922	8804.85	7958.3
827.8285	655.8043	8793.85	7946.6
827.9733	657.9159	8795.35	7947.5
828.118	660.0268	8775.3	7926
828.2627	662.137	8774.4	7927.85
828.4075	664.2466	8762.05	7910.5
828.5522	666.3556	8759.4	7908.65
828.697	668.4639	8706.9	7854.35
828.8418	670.5716	8690.7	7842.6
828.9865	672.6786	8667.55	7815.35
829.1313	674.785	8600.2	7749.65
829.2761	676.8907	8603.2	7751.85
829.4209	678.9958	8597	7749.7
829.5657	681.1002	8574.55	7722.3
829.7105	683.204	8542.75	7688.3
829.8553	685.3072	8523.1	7671.75
830.0001	687.4097	8510.7	7660.1
830.1449	689.5115	8500.95	7647.55
830.2898	691.6127	8477.35	7624.7
830.4346	693.7132	8465.05	7611.4
830.5794	695.8131	8481	7614.55
830.7243	697.9123	8488.75	7632.35
830.8691	700.0109	8512.9	7658.75
831.014	702.1089	8514.15	7659.1
831.1588	704.2061	8558.05	7705.4
831.3037	706.3028	8605.45	7750.45
831.4486	708.3987	8649.4	7795.9
831.5935	710.4941	8650.95	7793.55
831.7383	712.5887	8675.2	7818.4
831.8832	714.6827	8743.95	7885.55
832.0281	716.7761	8864.95	8009.7
832.173	718.8688	8967.35	8110.15
832.3179	720.9608	9051.45	8192.3
832.4628	723.0522	9152.25	8292.9
832.6077	725.1429	9201.05	8344.8
832.7527	727.233	9260.95	8405.8
832.8976	729.3224	9289.65	8431.9
833.0425	731.4112	9239.7	8381.4
833.1874	733.4993	9124.95	8266.85
833.3324	735.5867	8940.45	8080.7
833.4773	737.6735	8761.9	7902.1
833.6222	739.7596	8602.45	7740.65
833.7672	741.845	8501.85	7641.25
833.9122	743.9298	8427.7	7566.95
834.0571	746.014	8403	7543.4
834.2021	748.0974	8397	7536.75
834.347	750.1802	8388.2	7526.55
834.492	752.2624	8410.95	7551.7
834.637	754.3439	8434.95	7573.7
834.782	756.4247	8500.05	7630.75
834.9269	758.5048	8596.55	7736.55
835.0719	760.5843	8840.5	7980.6
835.2169	762.6631	9120.95	8259.55
835.3619	764.7413	9544.65	8683.9
835.5069	766.8188	10095.65	9234.25
835.6519	768.8956	10541.85	9681.6
835.7969	770.9718	10848.7	9985.35
835.9419	773.0473	10836.5	9975
836.0869	775.1221	10637.65	9776.55
836.232	777.1962	10415.65	9554.05
836.377	779.2697	10373.05	9509.7
836.522	781.3426	10424.35	9550.6
836.667	783.4147	10512.55	9649.65
836.8121	785.4862	10552.9	9692.2
836.9571	787.557	10407.2	9547.2
837.1021	789.6271	10029.7	9166.95
837.2472	791.6966	9523.85	8661.95
837.3922	793.7654	9041.1	8175.25
837.5373	795.8335	8724.05	7860.05
837.6823	797.901	8456.7	7592.15
837.8274	799.9678	8346.2	7479.05
837.9724	802.0339	8275.05	7411.1
838.1175	804.0993	8239.3	7363.9
838.2626	806.1641	8163.65	7299.5
838.4076	808.2282	8117.75	7254.8
838.5527	810.2916	8045.05	7178
838.6978	812.3544	8002.35	7138.5
838.8428	814.4164	7940.8	7077.85
838.9879	816.4778	7972.6	7107.15
839.133	818.5385	8005.7	7144.4
839.2781	820.5986	8103.6	7237.05
839.4232	822.658	8272.75	7406.15
839.5682	824.7166	8523.35	7659.75
839.7133	826.7747	8932.4	8068.2
839.8584	828.832	9349.2	8485
840.0035	830.8886	9644.8	8778.25
840.1486	832.9446	9789.45	8925.5
840.2937	834.9999	9698.05	8833.15
840.4388	837.0545	9452.5	8584.6
840.5839	839.1085	9174.7	8306.6
840.729	841.1618	8923.2	8052.05
840.8741	843.2143	8714.85	7848.95
841.0192	845.2662	8559.45	7693.3
841.1643	847.3175	8420.15	7553.7
841.3095	849.368	8339.05	7475.15
841.4546	851.4179	8276.65	7410.8
841.5997	853.467	8194.55	7329.7
841.7448	855.5155	8154.55	7286.45
841.8899	857.5633	8076.25	7209.65
842.0351	859.6105	8001	7136.35
842.1802	861.6569	7958.05	7091.2
842.3253	863.7027	7876.95	7008.05
842.4704	865.7478	7849.6	6979.7
842.6156	867.7922	7776.65	6908.7
842.7607	869.8359	7788.95	6920.55
842.9058	871.8789	7770.7	6901.4
843.0509	873.9212	7891.25	6987.5
843.1961	875.9629	7900.7	7034
843.3412	878.0039	7993.8	7120.6
843.4863	880.0441	8044.5	7176.55
843.6315	882.0837	8099.1	7228.2
843.7766	884.1226	8124	7254.85
843.9218	886.1609	8162.85	7295.05
844.0669	888.1984	8215.95	7347.6
844.212	890.2352	8344.05	7476.15
844.3572	892.2714	8347.6	7474.85
844.5023	894.3069	8315.25	7446.75
844.6475	896.3416	8186.55	7314.15
844.7926	898.3757	8061.2	7190.75
844.9377	900.4091	7972.9	7102.7
845.0829	902.4418	7982.75	7108.1
845.228	904.4739	7988.8	7117.7
845.3732	906.5052	8028.55	7158.65
845.5183	908.5358	7988.25	7117.8
845.6635	910.5658	7895.15	7023.1
845.8086	912.595	7743.95	6872.4
845.9538	914.6236	7532.1	6661.9
846.0989	916.6515	7471.85	6601.35
846.2441	918.6786	7389.95	6514.8
846.3892	920.7051	7362.05	6491.8
846.5344	922.7309	7391.3	6519.4
846.6795	924.756	7422.45	6553.15
846.8246	926.7804	7430.95	6555.75
846.9698	928.8041	7450.2	6577.3
847.1149	930.8272	7489.8	6617.8
847.2601	932.8495	7487.65	6612.8
847.4052	934.8711	7474.1	6602.65
847.5504	936.892	7431.1	6558.45
847.6955	938.9123	7432.25	6558.65
847.8407	940.9318	7433.5	6559.3
847.9858	942.9506	7451.4	6577.4
848.131	944.9688	7393.7	6521.05
848.2761	946.9862	7319.45	6447.95
848.4213	949.003	7193.7	6319.15
848.5664	951.019	7114.6	6242.6
848.7115	953.0344	7063.5	6188.05
848.8567	955.0491	7059.9	6183.95
849.0018	957.063	7072.7	6199.75
849.147	959.0763	7130.35	6258.75
849.2921	961.0888	7154.3	6280.2
849.4373	963.1007	7197.1	6321.5
849.5824	965.1119	7197.75	6323.55
849.7275	967.1223	7188.6	6313.55
849.8727	969.1321	7157.95	6285.6
850.0178	971.1412	7142.9	6267.55
850.1629	973.1495	7136.3	6263.15
850.3081	975.1572	7165.05	6258.2
850.4532	977.1641	7152.5	6279.9
850.5983	979.1704	7136.45	6261.8
850.7435	981.1759	7099.35	6222.05
850.8886	983.1808	7127.65	6253.65
851.0337	985.1849	7145.6	6259.15
851.1788	987.1884	7171.7	6294.9
851.324	989.1911	7256.5	6378.25
851.4691	991.1932	7280.3	6406.35
851.6142	993.1945	7292.75	6418
851.7593	995.1951	7293.3	6419.7
851.9045	997.1951	7242.55	6360.3
852.0496	999.1943	7216.35	6343.65
852.1947	1001.1928	7247.9	6372.35
852.3398	1003.1906	7268.45	6393.9
852.4849	1005.1877	7352.8	6476.6
852.63	1007.1841	7408	6529.25
852.7751	1009.1798	7454.95	6581.15
852.9202	1011.1748	7377.05	6501
853.0653	1013.1691	7273.05	6396.2
853.2104	1015.1627	7096.65	6222.3
853.3555	1017.1556	6945.55	6069.3
853.5006	1019.1477	6847.05	5971.6
853.6457	1021.1392	6746.65	5873.85
853.7908	1023.1299	6724.75	5849.35
853.9359	1025.12	6733	5856.45
854.081	1027.1093	6774.75	5901.05
854.2261	1029.0979	6862.9	5989
854.3712	1031.0859	6946.1	6071.05
854.5163	1033.0731	6961.4	6084.95
854.6613	1035.0596	6912.45	6038.1
854.8064	1037.0454	6849.2	5973
854.9515	1039.0304	6769.95	5894.15
855.0965	1041.0148	6679.15	5804.7
855.2416	1042.9985	6592.45	5717.1
855.3867	1044.9814	6555.9	5679.75
855.5317	1046.9636	6519.95	5643.25
855.6768	1048.9452	6526.2	5651
855.8219	1050.926	6533.95	5658
855.9669	1052.9061	6558.7	5684.85
856.112	1054.8855	6582	5705.8
856.257	1056.8642	6599.9	5725.1
856.4021	1058.8421	6650.7	5770.15
856.5471	1060.8194	6672.2	5796.2
856.6921	1062.7959	6692.55	5814.9
856.8372	1064.7717	6728.15	5850.25
856.9822	1066.7469	6782.1	5903.9
857.1272	1068.7213	6837.35	5959.95
857.2723	1070.695	6904.85	6027.9
857.4173	1072.6679	6922.4	6043.05
857.5623	1074.6402	6944.15	6068.4
857.7073	1076.6117	6921	6040.55
857.8523	1078.5826	6838.9	5961.55
857.9973	1080.5527	6717.85	5838.8
858.1423	1082.5221	6636.9	5757.35
858.2873	1084.4908	6608.3	5733.55
858.4323	1086.4587	6623	5742.4
858.5773	1088.426	6638.85	5761.45
858.7223	1090.3925	6662.15	5779.75
858.8673	1092.3584	6676.95	5801.05
859.0123	1094.3235	6699.6	5823.4
859.1573	1096.2879	6751.45	5872.9
859.3022	1098.2515	6848.4	5973.5
859.4472	1100.2145	6963.6	6085.85
859.5922	1102.1767	7100.1	6221
859.7371	1104.1382	7291.45	6413.35
859.8821	1106.099	7498	6618
860.027	1108.0591	7652.75	6776.9
860.172	1110.0185	7793.2	6914.55
860.3169	1111.9771	7829.7	6952.65
860.4619	1113.9351	7794.3	6916.45
860.6068	1115.8923	7696.3	6817.85
860.7517	1117.8488	7587.2	6706.75
860.8967	1119.8045	7438.6	6560.15
861.0416	1121.7596	7326.65	6447.6
861.1865	1123.7139	7201.3	6324.55
861.3314	1125.6675	7159.45	6281.05
861.4763	1127.6204	7165.05	6286.05
861.6212	1129.5726	7138.25	6258.75
861.7661	1131.524	7104.95	6228
861.911	1133.4748	6974.45	6094.3
862.0559	1135.4248	6806.85	5927.95
862.2008	1137.3741	6705.7	5828.8
862.3457	1139.3226	6614.15	5734.2
862.4905	1141.2705	6570.9	5692.1
862.6354	1143.2176	6513.85	5629.15
862.7803	1145.164	6479.05	5600
862.9251	1147.1097	6411.15	5532.7
863.07	1149.0546	6343.15	5463.95
863.2148	1150.9989	6284.45	5406.7
863.3597	1152.9424	6161.95	5283.8
863.5045	1154.8852	6088.75	5210.8
863.6493	1156.8272	6070.65	5192.75
863.7942	1158.7686	6078.85	5192
863.939	1160.7092	6073	5193.8
864.0838	1162.6491	6125.3	5245.3
864.2286	1164.5883	6196.25	5316.2
864.3734	1166.5267	6286.65	5408.4
864.5182	1168.4644	6416.5	5535.85
864.663	1170.4014	6562.6	5677.85
864.8078	1172.3377	6742.3	5864.45
864.9526	1174.2732	6968.65	6089.5
865.0974	1176.2081	7312.65	6433.5
865.2421	1178.1421	7707.9	6824.85
865.3869	1180.0755	8124.05	7247.85
865.5317	1182.0082	8405.7	7526.3
865.6764	1183.9401	8559.35	7679.05
865.8212	1185.8713	8432.9	7555.2
865.9659	1187.8017	8157.1	7277.3
866.1106	1189.7315	7842.9	6962.75
866.2554	1191.6605	7543.5	6635.5
866.4001	1193.5888	7308.05	6429
866.5448	1195.5163	7155.15	6277
866.6895	1197.4432	7087.4	6207.4
866.8342	1199.3693	7039.15	6159.7
866.9789	1201.2947	6988.5	6101.35
867.1236	1203.2193	6972.05	6092.6
867.2683	1205.1432	6966.95	6085.2
867.413	1207.0664	6934.45	6055.35
867.5576	1208.9889	6914.3	6031.2
867.7023	1210.9106	6902.25	6024.1
867.847	1212.8316	6911.8	6034
867.9916	1214.7519	6949.35	6060.7
868.1363	1216.6715	6988.5	6109.55
868.2809	1218.5903	7038.25	6156.6
868.4255	1220.5084	7099.35	6220.2
868.5701	1222.4257	7196.75	6318.7
868.7148	1224.3424	7219.5	6340.65
868.8594	1226.2583	7330.5	6445.6
869.004	1228.1735	7442.05	6560.05
869.1486	1230.0879	7571.65	6690.65
869.2932	1232.0016	7734.25	6855.05
869.4377	1233.9146	7826.8	6945.9
869.5823	1235.8269	7867.75	6987.6
869.7269	1237.7384	7822.25	6943
869.8715	1239.6492	7719.55	6840.6
870.016	1241.5592	7710.15	6831.45
870.1606	1243.4686	7736.55	6856.95
870.3051	1245.3772	7884.6	7004.25
870.4496	1247.285	8054.2	7172.85
870.5941	1249.1922	8237.25	7357.35
870.7387	1251.0986	8372.85	7493.7
870.8832	1253.0042	8461.05	7579.6
871.0277	1254.9092	8558.1	7679.6
871.1722	1256.8134	8614.1	7735.3
871.3167	1258.7169	8751.05	7869.2
871.4611	1260.6196	8862.35	7982.8
871.6056	1262.5216	9021.35	8139.45
871.7501	1264.4229	9173.05	8295.85
871.8945	1266.3234	9348.35	8467.65
872.039	1268.2232	9446.1	8565.35
872.1834	1270.1223	9499.85	8617.55
872.3278	1272.0207	9501	8620.55
872.4723	1273.9183	9495.9	8611.05
872.6167	1275.8151	9437.95	8558.05
872.7611	1277.7113	9423.8	8540.8
872.9055	1279.6067	9479.15	8598.25
873.0499	1281.5014	9687.4	8804.15
873.1943	1283.3953	10048.4	9167.45
873.3386	1285.2885	10466.2	9585.55
873.483	1287.181	10941.95	10059.95
873.6274	1289.0727	11357.65	10478.9
873.7717	1290.9637	11649	10768.75
873.9161	1292.854	11818.85	10937.4
874.0604	1294.7435	11822.05	10939.35
874.2047	1296.6323	11710.05	10828.75
874.349	1298.5204	11563.7	10678.95
874.4933	1300.4077	11331.75	10453.55
874.6376	1302.2943	11133.3	10253.25
874.7819	1304.1802	10849.05	9968.65
874.9262	1306.0653	10442.1	9557.75
875.0705	1307.9497	10039.7	9157.55
875.2147	1309.8333	9706.35	8824
875.359	1311.7162	9447.1	8567.2
875.5032	1313.5984	9304.1	8419.55
875.6475	1315.4798	9194.55	8304.3
875.7917	1317.3605	9136	8240.45
875.9359	1319.2405	9040.3	8156.15
876.0801	1321.1197	8844.05	7961.05
876.2243	1322.9982	8596.35	7710.95
876.3685	1324.876	8342.4	7459.2
876.5127	1326.753	8100.05	7219.05
876.6569	1328.6293	7946.5	7062.8
876.801	1330.5048	7794.25	6911.2
876.9452	1332.3796	7638.65	6758.95
877.0893	1334.2537	7563.3	6656.25
877.2335	1336.127	7474	6590.95
877.3776	1337.9996	7433.45	6551.4
877.5217	1339.8714	7407.55	6525.95
877.6658	1341.7426	7455.15	6533.1
877.8099	1343.6129	7460.85	6580.85
877.954	1345.4826	7441.7	6561
878.0981	1347.3515	7442.95	6557.8
878.2422	1349.2196	7404.75	6523.6
878.3862	1351.087	7433.5	6552.35
878.5303	1352.9537	7487.95	6604.1
878.6743	1354.8197	7557.8	6677.15
878.8184	1356.6849	7691.45	6809.5
878.9624	1358.5493	7829.85	6946.55
879.1064	1360.4131	7960.35	7079.7
879.2504	1362.276	8067.2	7184.05
879.3944	1364.1383	8110.45	7230.85
879.5384	1365.9998	8005.65	7115.85
879.6823	1367.8606	7761.5	6879.5
879.8263	1369.7206	7491.35	6609.25
879.9702	1371.5799	7229.3	6342.85
880.1142	1373.4384	7019.85	6138.5
880.2581	1375.2962	6848.5	5965.6
880.402	1377.1533	6581.45	5700.5
880.5459	1379.0096	6315.15	5433.45
880.6898	1380.8652	6039.65	5156.75
880.8337	1382.7201	5818.95	4937.45
880.9776	1384.5742	5622.3	4740.2
881.1215	1386.4275	5495	4612.55
881.2653	1388.2802	5393.95	4511.85
881.4092	1390.132	5319.2	4437.45
881.553	1391.9832	5262.45	4379.2
881.6968	1393.8336	5191.3	4307.8
881.8406	1395.6832	5179.6	4295.65
881.9844	1397.5322	5148.35	4267.8
882.1282	1399.3803	5123.1	4234.75
882.272	1401.2278	5087.7	4205.3
882.4158	1403.0745	5092.8	4210.65
882.5595	1404.9204	5072.05	4191
882.7033	1406.7656	5078.1	4194.4
882.847	1408.6101	5097.8	4214.35
882.9908	1410.4538	5121.75	4239.3
883.1345	1412.2968	5156.2	4273.25
883.2782	1414.139	5185.9	4304.1
883.4219	1415.9805	5256.35	4375.7
883.5656	1417.8213	5322.3	4432.3
883.7092	1419.6613	5388.1	4506.9
883.8529	1421.5006	5500.3	4617.4
883.9965	1423.3391	5655.2	4772.35
884.1402	1425.1769	5901.45	5018.45
884.2838	1427.0139	6228.35	5345.6
884.4274	1428.8502	6623.95	5741.1
884.571	1430.6858	7026.05	6142.6
884.7146	1432.5206	7307.05	6423.95
884.8582	1434.3547	7522	6639.05
885.0018	1436.188	7509.2	6627.05
885.1453	1438.0206	7434.25	6551.55
885.2889	1439.8524	7304.45	6421.95
885.4324	1441.6835	7210.75	6327.6
885.5759	1443.5139	7158.45	6274
885.7194	1445.3435	7080.25	6198.2
885.8629	1447.1724	7058.6	6174
886.0064	1449.0005	7030.25	6148.5
886.1499	1450.8279	7001.25	6116.05
886.2933	1452.6545	6998.45	6115.85
886.4368	1454.4804	7011.35	6129.05
886.5802	1456.3056	7021.2	6131.8
886.7237	1458.13	6957.9	6074.8
886.8671	1459.9536	6845.15	5962.45
887.0105	1461.7766	6658.45	5775.35
887.1539	1463.5987	6418.15	5534.3
887.2972	1465.4202	6172.3	5291.4
887.4406	1467.2409	5907.3	5024.45
887.584	1469.0608	5688.8	4808.5
887.7273	1470.88	5493.05	4610.7
887.8706	1472.6984	5311.15	4428.95
888.0139	1474.5161	5156.45	4270.55
888.1572	1476.3331	5042.85	4161.8
888.3005	1478.1493	4962.8	4075.8
888.4438	1479.9648	4916.25	4033.05
888.5871	1481.7795	4871.5	3988.25
888.7303	1483.5935	4809.6	3927.9
888.8736	1485.4067	4771.75	3889.2
889.0168	1487.2192	4761.6	3878.55
889.16	1489.031	4725.05	3841.7
889.3032	1490.842	4693.05	3808.2
889.4464	1492.6522	4653.5	3771.4
889.5896	1494.4618	4637.2	3754.65
889.7327	1496.2705	4630.15	3748.95
889.8759	1498.0785	4595	3711.9
890.019	1499.8858	4563.7	3682.65
890.1622	1501.6924	4529.6	3647.3
890.3053	1503.4981	4516.3	3634.6
890.4484	1505.3032	4490	3607.7
890.5914	1507.1075	4439.35	3556.25
890.7345	1508.911	4403.05	3519.6
890.8776	1510.7138	4385.95	3502.5
891.0206	1512.5159	4359.2	3474.95
891.1637	1514.3172	4316.05	3432.25
891.3067	1516.1178	4302.05	3421.55
891.4497	1517.9176	4271.8	3386.2
891.5927	1519.7166	4247.65	3367.05
891.7357	1521.515	4238.6	3347.95
891.8786	1523.3126	4207.65	3325.7
892.0216	1525.1094	4199.55	3313.6
892.1645	1526.9055	4183.1	3301.85
892.3074	1528.7008	4154.7	3270.85
892.4503	1530.4954	4139.55	3250.65
892.5932	1532.2893	4141.6	3260.85
892.7361	1534.0824	4128.55	3240.75
892.879	1535.8747	4117.9	3235.4
893.0218	1537.6663	4114.05	3230.6
893.1647	1539.4572	4123.25	3239.4
893.3075	1541.2473	4119.45	3235.4
893.4503	1543.0367	4119.05	3237
893.5931	1544.8253	4130.45	3242.75
893.7359	1546.6132	4163.15	3279.35
893.8787	1548.4003	4187.05	3294.8
894.0214	1550.1867	4208.85	3321.05
894.1642	1551.9723	4263.35	3377.45
894.3069	1553.7572	4334.7	3451.7
894.4496	1555.5414	4414.8	3529.8
894.5923	1557.3247	4539.3	3655.6
894.735	1559.1074	4659.3	3775.55
894.8777	1560.8893	4795.05	3915.35
895.0204	1562.6705	4932.45	4051.55
895.163	1564.4509	5022.9	4141.15
895.3056	1566.2305	5095.3	4212.25
895.4482	1568.0094	5152.1	4271.95
895.5908	1569.7876	5150.85	4267.8
895.7334	1571.565	5128.45	4242.7
895.876	1573.3417	5144.45	4260.6
896.0186	1575.1176	5122.35	4239.85
896.1611	1576.8928	5125.35	4240.1
896.3036	1578.6672	5135.5	4253.4
896.4461	1580.4409	5147.3	4264.65
896.5886	1582.2138	5189.1	4302.85
896.7311	1583.986	5253.45	4371.9
896.8736	1585.7575	5314.6	4434.05
897.0161	1587.5282	5398.2	4517.45
897.1585	1589.2981	5486.1	4606
897.3009	1591.0673	5559.55	4678
897.4433	1592.8358	5655.75	4775.1
897.5857	1594.6035	5720.2	4834.35
897.7281	1596.3704	5785.8	4904
897.8705	1598.1366	5856.05	4974.4
898.0128	1599.9021	5941.65	5060.8
898.1551	1601.6668	5986.8	5104.15
898.2975	1603.4308	6064.75	5181.4
898.4398	1605.194	6187.55	5298.4
898.5821	1606.9564	6373.05	5490.35
898.7243	1608.7182	6555.55	5670.95
898.8666	1610.4791	6810.7	5929
899.0088	1612.2394	7056.5	6173.65
899.1511	1613.9988	7302.75	6420.1
899.2933	1615.7576	7574.85	6695.35
899.4355	1617.5156	7757.2	6867.55
899.5776	1619.2728	7818.6	6936.25
899.7198	1621.0293	7717.35	6835.9
899.862	1622.785	7547.75	6659.2
900.0041	1624.54	7298	6413
900.1462	1626.2942	7001.85	6117.2
900.2883	1628.0477	6668.55	5785.4
900.4304	1629.8005	6344.2	5457.1
900.5725	1631.5525	6067.8	5185.95
900.7145	1633.3037	5842.45	4960.1
900.8566	1635.0542	5666.65	4785.65
900.9986	1636.804	5516.65	4636.05
901.1406	1638.553	5469.25	4507.65
901.2826	1640.3013	5337.65	4454.45
901.4245	1642.0488	5304.7	4420.7
901.5665	1643.7955	5314.25	4432.35
901.7085	1645.5416	5330.6	4448.25
901.8504	1647.2868	5394	4511.5
901.9923	1649.0313	5478.15	4597.8
902.1342	1650.7751	5587.2	4701.75
902.2761	1652.5181	5695.1	4813.4
902.4179	1654.2604	5808.7	4925.65
902.5598	1656.0019	5957.2	5075.55
902.7016	1657.7427	6139.4	5255.65
902.8434	1659.4828	6342.7	5459.8
902.9852	1661.222	6472.75	5589.5
903.127	1662.9606	6474.7	5591.15
903.2687	1664.6984	6315.6	5432.95
903.4105	1666.4354	6011.25	5128.8
903.5522	1668.1717	5606.5	4725
903.6939	1669.9072	5194.25	4314.7
903.8356	1671.642	4830.4	3946.2
903.9773	1673.3761	4544.8	3665.15
904.119	1675.1094	4318.45	3438.25
904.2606	1676.8419	4135.35	3254.1
904.4022	1678.5737	3977.85	3098
904.5439	1680.3048	3870.5	2988.7
904.6855	1682.0351	3787.65	2907.2
904.827	1683.7646	3698.9	2812.75
904.9686	1685.4934	3636.55	2754.45
905.1101	1687.2215	3580.55	2697.95
905.2517	1688.9488	3530.8	2648.55
905.3932	1690.6754	3501	2617.55
905.5347	1692.4012	3452.8	2572.2
905.6761	1694.1263	3424.45	2544.05
905.8176	1695.8506	3386.6	2504.8
905.9591	1697.5742	3362.35	2480.8
906.1005	1699.297	3330.65	2449.4
906.2419	1701.0191	3314.25	2433.45
906.3833	1702.7404	3298.55	2416.75
906.5246	1704.461	3253.1	2369.25
906.666	1706.1808	3236.4	2353.3
906.8073	1707.8999	3227.35	2344.15
906.9487	1709.6182	3204.45	2321.85
907.09	1711.3358	3178.8	2295.65
907.2313	1713.0527	3164	2284.3
907.3725	1714.7688	3151.65	2265.35
907.5138	1716.4841	3134.15	2251.2
907.655	1718.1987	3124.9	2238.15
907.7962	1719.9126	3107.55	2227.5
907.9374	1721.6257	3104.15	2218.7
908.0786	1723.338	3101.55	2219.35
908.2198	1725.0496	3087.5	2204.85
908.3609	1726.7605	3081.2	2199.15
908.502	1728.4706	3065.65	2181.9
908.6431	1730.18	3047.1	2163.65
908.7842	1731.8886	3042.45	2160.55
908.9253	1733.5964	3042	2158.8
909.0664	1735.3036	3031.6	2147.3
909.2074	1737.0099	3004.2	2123.8
909.3484	1738.7156	3006.8	2127.15
909.4894	1740.4204	2973.7	2089.55
909.6304	1742.1246	2958.4	2075.4
909.7714	1743.8279	2942.45	2061.55
909.9123	1745.5306	2930.55	2049.25
910.0532	1747.2325	2916.6	2034.35
910.1941	1748.9336	2922.8	2042.15
910.335	1750.634	2903.2	2019.25
910.4759	1752.3336	2910.55	2029.4
910.6168	1754.0325	2890	2010.45
910.7576	1755.7307	2877.4	1995.6
910.8984	1757.4281	2877.5	1997.8
911.0392	1759.1247	2885.65	1996.6
911.18	1760.8206	2876.55	1991.4
911.3208	1762.5158	2871.55	1985.7
911.4615	1764.2102	2848.8	1970.3
911.6022	1765.9039	2840.55	1956.25
911.7429	1767.5968	2848.4	1968.95
911.8836	1769.289	2832.05	1949.95
912.0243	1770.9804	2830.65	1949.25
912.1649	1772.6711	2832	1950.9
912.3056	1774.361	2806.95	1924.9
912.4462	1776.0502	2819.35	1935.4
912.5868	1777.7386	2824.85	1939.9
912.7274	1779.4263	2811.6	1930.65
912.8679	1781.1132	2806.2	1924.8
913.0084	1782.7994	2787.2	1903.65
913.149	1784.4849	2777	1894.75
913.2895	1786.1696	2800.35	1900.75
913.4299	1787.8535	2788.1	1907.6
913.5704	1789.5367	2780.15	1897.4
913.7108	1791.2192	2767.45	1885.1
913.8513	1792.9009	2765.75	1868.8
913.9917	1794.5818	2746.55	1865.65
914.132	1796.2621	2749.55	1869.2
914.2724	1797.9415	2750.4	1867.65
914.4128	1799.6202	2731.1	1850.35
914.5531	1801.2982	2726.4	1845.75
914.6934	1802.9755	2731.05	1849.45
914.8337	1804.6519	2719.2	1838.1
914.9739	1806.3277	2713.35	1831.1
915.1142	1808.0027	2706.3	1825.3
915.2544	1809.6769	2705	1823.2
915.3946	1811.3504	2702.45	1819
915.5348	1813.0231	2698.75	1816.45
915.675	1814.6951	2701.45	1820.8
915.8151	1816.3664	2686.95	1802.4
915.9553	1818.0369	2686	1802.9
916.0954	1819.7067	2681.9	1801.35
916.2355	1821.3757	2685.05	1800.9
916.3755	1823.044	2677.9	1797.85
916.5156	1824.7115	2668.15	1787.35
916.6556	1826.3783	2648.6	1768.5
916.7956	1828.0443	2661.65	1780.65
916.9356	1829.7096	2651.05	1767.6
917.0756	1831.3741	2659.6	1773.7
917.2155	1833.0379	2657.95	1776.4
917.3555	1834.701	2648.7	1762.55
917.4954	1836.3633	2640.15	1755.6
917.6353	1838.0248	2650.45	1766.7
917.7751	1839.6856	2634.65	1751.8
917.915	1841.3457	2632.8	1753
918.0548	1843.005	2624.35	1742.5
918.1946	1844.6636	2621.95	1741.2
918.3344	1846.3214	2634.15	1752.45
918.4742	1847.9785	2627.1	1747.1
918.6139	1849.6349	2618.7	1736.5
918.7537	1851.2904	2616.45	1727.25
918.8934	1852.9453	2614.15	1732.3
919.0331	1854.5994	2599.35	1713.1
919.1727	1856.2528	2612.5	1724.1
919.3124	1857.9054	2596.15	1713.75
919.452	1859.5572	2589.95	1707.85
919.5916	1861.2083	2588.2	1704.35
919.7312	1862.8587	2586.7	1705.25
919.8708	1864.5084	2592.05	1711.55
920.0103	1866.1572	2585.05	1703.8
920.1498	1867.8054	2569.9	1687.6
920.2893	1869.4528	2567.6	1688
920.4288	1871.0994	2565.25	1683.65
920.5683	1872.7453	2552.55	1671.8
920.7077	1874.3905	2567.8	1667.25
920.8471	1876.0349	2558.5	1673.8
920.9865	1877.6786	2559.35	1673.3
921.1259	1879.3215	2545.55	1664.15
921.2653	1880.9637	2538.95	1656.45
921.4046	1882.6051	2531.15	1651.6
921.5439	1884.2458	2532.6	1647.45
921.6832	1885.8858	2535.35	1654
921.8225	1887.525	2528.7	1644.8
921.9617	1889.1634	2504.65	1624.5
922.101	1890.8011	2508.45	1626.05
922.2402	1892.4381	2502.9	1621.45
922.3794	1894.0743	2511.45	1630.85
922.5185	1895.7098	2495.9	1613.15
922.6577	1897.3446	2511.05	1627.85
922.7968	1898.9786	2502.35	1617.2
922.9359	1900.6118	2485.75	1604.5
923.075	1902.2443	2477.5	1592.75
923.214	1903.8761	2487.55	1604.6
923.3531	1905.5071	2480.35	1597.3
923.4921	1907.1374	2475.25	1593.45
923.6311	1908.7669	2463.15	1579.85
923.77	1910.3957	2468.2	1585.9
923.909	1912.0237	2446	1565.45
924.0479	1913.651	2452.95	1570.75
924.1868	1915.2776	2453.5	1572.4
924.3257	1916.9034	2443.2	1560.65
924.4646	1918.5285	2429.85	1549.3
924.6034	1920.1528	2420.75	1539.6
924.7422	1921.7764	2429.95	1548.25
924.881	1923.3992	2428.85	1547.1
925.0198	1925.0213	2407.7	1524.8
925.1586	1926.6427	2409.85	1528.85
925.2973	1928.2633	2606.15	1498.55
925.436	1929.8832	2422.5	1536.65
925.5747	1931.5023	2400.2	1518.85
925.7134	1933.1207	2390.9	1509.7
925.852	1934.7383	2387.9	1506.35
925.9906	1936.3552	2376.05	1492.3
926.1292	1937.9714	2380.6	1500.85
926.2678	1939.5868	2370.55	1486.1
926.4064	1941.2015	2366.2	1484.4
926.5449	1942.8154	2356.35	1473.65
926.6834	1944.4286	2343.35	1461.7
926.8219	1946.041	2363.8	1460.15
926.9604	1947.6528	2345.3	1460.55
927.0988	1949.2637	2338.75	1458.25
927.2372	1950.8739	2335.45	1452.3
927.3756	1952.4834	2323	1440.6
927.514	1954.0921	2339.9	1457.95
927.6523	1955.7001	2330.3	1444.65
927.7907	1957.3074	2317.3	1437.35
927.929	1958.9139	2306	1422.95
928.0673	1960.5197	2312.7	1428.55
928.2055	1962.1247	2297.75	1413.85
928.3438	1963.729	2297.05	1416.3
928.482	1965.3325	2314.85	1410
928.6202	1966.9353	2288.45	1406.25
928.7584	1968.5374	2280.1	1395.3
928.8965	1970.1387	2272.8	1391.55
929.0346	1971.7393	2282.2	1399
929.1727	1973.3392	2264.4	1381.1
929.3108	1974.9383	2257.3	1375.75
929.4489	1976.5366	2256.5	1376.55
929.5869	1978.1342	2260.4	1376.65
929.7249	1979.7311	2258.9	1376.75
929.8629	1981.3273	2241.95	1360.5
930.0009	1982.9227	2245.5	1361.35
930.1388	1984.5173	2228.5	1348.9
930.2767	1986.1112	2218.05	1336.5
930.4146	1987.7044	2232.45	1350.8
930.5525	1989.2968	2226.65	1344.1
930.6904	1990.8885	2225.55	1340.15
930.8282	1992.4795	2222.75	1340.5
930.966	1994.0697	2222.35	1339.9
931.1038	1995.6592	2205.5	1324.45
931.2415	1997.2479	2200.35	1317.9
931.3793	1998.8359	2194.15	1309.85
931.517	2000.4232	2196.65	1316.45
931.6547	2002.0097	2194.25	1311.35
931.7923	2003.5955	2195.1	1311.5
931.93	2005.1805	2194.1	1313.3
932.0676	2006.7648	2200.4	1317.4
932.2052	2008.3484	2181.25	1299.05
932.3427	2009.9312	2186.25	1302.4
932.4803	2011.5133	2177.65	1296.35
932.6178	2013.0946	2176.9	1294.75
932.7553	2014.6752	2176.15	1294.55
932.8928	2016.2551	2166.7	1282.2
933.0302	2017.8342	2164.85	1282.7
933.1676	2019.4126	2147.8	1267.7
933.305	2020.9902	2153.3	1272.8
933.4424	2022.5672	2157.05	1272.05
933.5798	2024.1433	2160.75	1273.1
933.7171	2025.7188	2152	1272.85
933.8544	2027.2935	2139.5	1256.15
933.9917	2028.8674	2144	1263.05
934.129	2030.4406	2136.1	1254.5
934.2662	2032.0131	2131.7	1251.5
934.4034	2033.5849	2140.1	1251.6
934.5406	2035.1559	2119.45	1238.5
934.6778	2036.7261	2121.15	1238.8
934.8149	2038.2957	2111.65	1230.75
934.952	2039.8645	2111.3	1230.35
935.0891	2041.4325	2118.65	1234.6
935.2262	2042.9998	2106.25	1224
935.3632	2044.5664	2112	1228.45
935.5002	2046.1323	2110.15	1230
935.6372	2047.6974	2098.45	1214.65
935.7742	2049.2617	2100.55	1218.25
935.9111	2050.8254	2129.3	1212.55
936.048	2052.3883	2098.55	1217.45
936.1849	2053.9504	2083.95	1200.5
936.3218	2055.5118	2082.45	1201.5
936.4586	2057.0725	2079.55	1192.6
936.5955	2058.6325	2076.15	1194.1
936.7323	2060.1917	2085.3	1202.75
936.869	2061.7502	2079.1	1193.8
937.0058	2063.3079	2072.05	1188.35
937.1425	2064.8649	2057.55	1172.5
937.2792	2066.4212	2064.5	1182.9
937.4159	2067.9767	2061.1	1179.9
937.5525	2069.5315	2056.95	1174.85
937.6891	2071.0856	2052.05	1169.65
937.8257	2072.6389	2045.2	1163.3
937.9623	2074.1915	2041.3	1161.7
938.0989	2075.7433	2038.55	1155.95
938.2354	2077.2945	2031.45	1150.4
938.3719	2078.8448	2028.85	1147.35
938.5084	2080.3945	2026.4	1146.4
938.6448	2081.9434	2026.6	1146.8
938.7812	2083.4916	2010.75	1128.3
938.9176	2085.039	2013.65	1131.1
939.054	2086.5857	2012.9	1129.95
939.1903	2088.1317	2014.95	1133.1
939.3267	2089.677	2004.4	1122.35
939.463	2091.2215	2006.1	1125.2
939.5992	2092.7652	2002.1	1117.75
939.7355	2094.3083	2000.8	1118.6
939.8717	2095.8506	2004.9	1125.65
940.0079	2097.3921	1999.85	1118.4
940.1441	2098.933	1999.8	1119.95
940.2802	2100.4731	2000.25	1119.6
940.4163	2102.0124	1998.2	1097.6
940.5524	2103.5511	1998.7	1117.5
940.6885	2105.089	1988.45	1106.95
940.8245	2106.6261	1984.85	1104.05
940.9606	2108.1626	1977.1	1092.5
941.0965	2109.6983	2016.95	1107.65
941.2325	2111.2332	1975.15	1093.3
941.3684	2112.7675	1975.05	1093.35
941.5044	2114.301	1974.5	1093.3
941.6403	2115.8337	1969.55	1087.85
941.7761	2117.3657	1977.95	1096.8
941.912	2118.897	1975.2	1092.6
942.0478	2120.4276	1968.45	1079.7
942.1835	2121.9575	1962.7	1080.4
942.3193	2123.4866	1967	1068.6
942.455	2125.0149	1959.05	1074.45
942.5907	2126.5426	1938.55	1053.75
942.7264	2128.0695	1956.2	1070.4
942.8621	2129.5956	1941.9	1061.25
942.9977	2131.1211	1949.15	1062.15
943.1333	2132.6458	1938.2	1058.8
943.2689	2134.1698	1940.8	1056.7
943.4044	2135.693	1932.35	1048.85
943.54	2137.2155	1935.2	1051.6
943.6755	2138.7373	1930.55	1049.45
943.8109	2140.2584	1928.2	1044.6
943.9464	2141.7787	1925.9	1039.75
944.0818	2143.2983	1905.65	1025.2
944.2172	2144.8171	1902.1	1020.75
944.3526	2146.3353	1910.4	1025.4
944.4879	2147.8527	1905	1022.15
944.6232	2149.3693	1907.45	1025.4
944.7585	2150.8853	1901.1	1019
944.8938	2152.4005	1894.35	1012.85
945.029	2153.9149	1898.6	1014.75
945.1642	2155.4287	1891	1008.95
945.2994	2156.9417	1897	1015.4
945.4346	2158.454	1892.5	1007.85
945.5697	2159.9655	1895.15	1013.2
945.7048	2161.4764	1897.9	1014.95
945.8399	2162.9865	1886.4	1002.45
945.9749	2164.4958	1881.6	997.95
946.1099	2166.0045	1885.15	1000.65
946.2449	2167.5124	1880.85	998.3
946.3799	2169.0195	1881.5	1001
946.5148	2170.526	1874.25	991.5
946.6498	2172.0317	1873.65	990.75
946.7846	2173.5367	1875.6	992.3
946.9195	2175.0409	1858.3	977.85
947.0543	2176.5445	1870.6	989.7
947.1891	2178.0473	1859.2	977.85
947.3239	2179.5494	1854.15	968.6
947.4587	2181.0507	1856.3	973.35
947.5934	2182.5513	1852.1	968.6
947.7281	2184.0512	1850.4	967.95
947.8628	2185.5504	1851.65	969.2
947.9974	2187.0488	1847.25	965.35
948.132	2188.5465	1843.85	962.5
948.2666	2190.0435	1847.8	963.35
948.4012	2191.5397	1830.95	950.45
948.5357	2193.0353	1835.25	953.9
948.6702	2194.5301	1830.5	946.9
948.8047	2196.0241	1823.75	940.65
948.9392	2197.5175	1817.9	937.35
949.0736	2199.0101	1825.55	937.55
949.208	2200.502	1818.95	937.65
949.3424	2201.9931	1809.25	926.05
949.4767	2203.4835	1807.4	924.3
949.611	2204.9733	1822.1	920.5
949.7453	2206.4622	1808.3	926
949.8796	2207.9505	1807.75	921.5
950.0138	2209.438	1795.35	912.7
950.148	2210.9248	1797.8	914.3
950.2822	2212.4109	1793.7	911.45
950.4164	2213.8962	1793.45	910.65
950.5505	2215.3809	1788.2	905.4
950.6846	2216.8648	1789.05	908.45
950.8186	2218.3479	1799.8	915.85
950.9527	2219.8304	1778.25	895.25
951.0867	2221.3121	1775.5	892.35
951.2207	2222.7931	1771	889
951.3546	2224.2733	1778.8	896.05
951.4886	2225.7529	1765.45	881.05
951.6225	2227.2317	1762.65	877.35
951.7563	2228.7098	1761.9	879.85
951.8902	2230.1872	1761.8	878.85
952.024	2231.6638	1750.35	869.55
952.1578	2233.1397	1755.6	869.55
952.2916	2234.6149	1755.1	873.6
952.4253	2236.0894	1752.2	867.15
952.559	2237.5632	1753.2	863.3
952.6927	2239.0362	1744.55	863.4
952.8263	2240.5085	1737.55	856.85
952.9599	2241.9801	1734.8	851.25
953.0935	2243.4509	1741.25	859.65
953.2271	2244.921	1739	858.15
953.3606	2246.3904	1723.05	838.45
953.4941	2247.8591	1725.9	843.55
953.6276	2249.3271	1728.4	846.8
953.7611	2250.7943	1725.05	842
953.8945	2252.2608	1717.6	837.45
954.0279	2253.7266	1710	828.15
954.1612	2255.1917	1708.4	826.1
954.2946	2256.656	1705.15	822.55
954.4279	2258.1197	1703.9	821.3
954.5612	2259.5826	1705.6	822.95
954.6944	2261.0447	1703.25	819.3
954.8276	2262.5062	1702.5	817.5
954.9608	2263.9669	1701.6	817.45
955.094	2265.4269	1698.35	817.15
955.2271	2266.8862	1695.75	813.6
955.3602	2268.3448	1698.2	814.6
955.4933	2269.8026	1696.5	816.35
955.6264	2271.2598	1691.55	808.25
955.7594	2272.7162	1683.6	802.35
955.8924	2274.1719	1682.55	802.65
956.0253	2275.6268	1678	794.5
956.1583	2277.0811	1682	799.25
956.2912	2278.5346	1688.65	808.2
956.4241	2279.9874	1682.5	799
956.5569	2281.4395	1679.35	798.25
956.6897	2282.8908	1672	785.9
956.8225	2284.3414	1677.65	795.65
956.9553	2285.7914	1666.45	786.45
957.088	2287.2406	1673.8	789
957.2207	2288.689	1667.3	785.7
957.3534	2290.1368	1663.65	781.1
957.486	2291.5838	1668.65	784.5
957.6186	2293.0302	1668.8	787.8
957.7512	2294.4758	1663.2	781.5
957.8838	2295.9206	1660.1	775.3
958.0163	2297.3648	1647.15	765.55
958.1488	2298.8082	1647.2	763.1
958.2813	2300.251	1648.8	767.15
958.4137	2301.693	1657.55	773.15
958.5461	2303.1343	1654.6	773.1
958.6785	2304.5748	1647.4	765.1
958.8108	2306.0147	1644.35	763.3
958.9432	2307.4538	1637.95	755.85
959.0754	2308.8922	1633.4	751.15
959.2077	2310.3299	1632.45	751.4
959.3399	2311.7669	1641.05	757.65
959.4721	2313.2031	1640.55	758.9
959.6043	2314.6387	1632.6	751.05
959.7365	2316.0735	1624.85	740.9
959.8686	2317.5076	1634.5	752.55
960.0006	2318.941	1626.3	745.8
960.1327	2320.3737	1629.7	749.1
960.2647	2321.8056	1629.7	745.85
960.3967	2323.2369	1622.05	740.6
960.5287	2324.6674	1632.35	748.1
960.6606	2326.0972	1623.6	739.55
960.7925	2327.5263	1619.15	738.45
960.9244	2328.9547	1607.55	725.6
961.0562	2330.3823	1607.45	724.15
961.1881	2331.8092	1607.85	724.65
961.3198	2333.2355	1604.75	721.35
961.4516	2334.661	1600.7	716.4
961.5833	2336.0858	1606.9	723.25
961.715	2337.5098	1599.1	715.6
961.8467	2338.9332	1595.1	713.75
961.9783	2340.3558	1599.3	714.7
962.1099	2341.7778	1595.7	712.55
962.2415	2343.199	1593.35	708.5
962.373	2344.6195	1590.7	708.6
962.5045	2346.0393	1591.2	711
962.636	2347.4583	1593.3	711
962.7675	2348.8767	1584.85	701.55
962.8989	2350.2943	1591.65	710.15
963.0303	2351.7113	1589.9	707.2
963.1617	2353.1275	1579.2	697.7
963.293	2354.543	1594	702.95
963.4243	2355.9578	1583	700.95
963.5556	2357.3718	1580.35	698.75
963.6868	2358.7852	1581.5	696.95
963.818	2360.1978	1576.1	691.3
963.9492	2361.6098	1570.7	689.05
964.0803	2363.021	1571.95	685.15
964.2114	2364.4315	1570.15	691.35
964.3425	2365.8413	1573.65	690.7
964.4736	2367.2504	1561.75	679.2
964.6046	2368.6587	1563.25	681.2
964.7356	2370.0664	1558.55	677.5
964.8666	2371.4733	1564.5	682.6
964.9975	2372.8795	1559.75	676.6
965.1284	2374.285	1557.6	675.3
965.2593	2375.6899	1544.3	663.65
965.3901	2377.0939	1552.55	671.15
965.5209	2378.4973	1549.5	666.9
965.6517	2379.9	1542	658.85
965.7825	2381.3019	1549.35	667.65
965.9132	2382.7032	1551.5	671.8
966.0439	2384.1037	1547	667.05
966.1745	2385.5035	1538.7	657.1
966.3051	2386.9027	1537.1	655.4
966.4357	2388.3011	1534.8	648.55
966.5663	2389.6987	1536.15	655.4
966.6968	2391.0957	1527.5	644.9
966.8273	2392.492	1519.05	636.8
966.9578	2393.8876	1521.75	638.35
967.0882	2395.2824	1519.15	636.3
967.2186	2396.6765	1516.8	637.75
967.349	2398.07	1513.65	632.15
967.4793	2399.4627	1513.2	628.6
967.6097	2400.8547	1509.15	626.5
967.7399	2402.246	1512.65	624.45
967.8702	2403.6366	1505.3	625.45
968.0004	2405.0265	1499.4	619.05
968.1306	2406.4156	1504.3	617.35
968.2607	2407.8041	1511.4	627.2
968.3909	2409.1918	1504.65	618.9
968.521	2410.5789	1503.25	622.9
968.651	2411.9652	1500	614.5
968.781	2413.3508	1501.95	620.7
968.911	2414.7358	1493.55	610.7
969.041	2416.12	1487.05	605.05
969.1709	2417.5035	1490.45	611.3
969.3008	2418.8863	1496.45	613.15
969.4307	2420.2684	1493.45	610.75
969.5606	2421.6497	1487.95	605.35
969.6904	2423.0304	1481.65	601.35
969.8201	2424.4104	1480.1	598.05
969.9499	2425.7896	1493.75	604.65
970.0796	2427.1682	1478.65	597
970.2093	2428.546	1481.05	598.5
970.3389	2429.9232	1482.05	598.1
970.4685	2431.2996	1472	590.65
970.5981	2432.6753	1469.4	586.55
970.7277	2434.0503	1483.7	600.8
970.8572	2435.4246	1466.95	586.55
970.9867	2436.7982	1470.7	586.45
971.1161	2438.1711	1462.15	581.5
971.2456	2439.5433	1470.35	589.2
971.375	2440.9148	1467.45	581.2
971.5043	2442.2856	1453.6	572.65
971.6336	2443.6557	1459.45	574.75
971.7629	2445.025	1455.85	575.05
971.8922	2446.3937	1460	575
972.0214	2447.7617	1458.1	575
972.1506	2449.1289	1453.6	571.15
972.2798	2450.4955	1461.95	576.55
972.4089	2451.8613	1446.65	567.85
972.538	2453.2265	1451.95	569.05
972.6671	2454.5909	1446.35	562.95
972.7961	2455.9546	1441.1	559.7
972.9251	2457.3177	1446.45	564.3
973.0541	2458.68	1442.9	559.45
973.1831	2460.0416	1445.05	563.45
973.312	2461.4025	1443.35	560
973.4408	2462.7627	1449.25	555.2
973.5697	2464.1222	1441.7	562.65
973.6985	2465.4811	1438.2	555.05
973.8273	2466.8392	1438.1	557.3
973.956	2468.1966	1444.4	562.25
974.0847	2469.5533	1446.25	561.95
974.2134	2470.9093	1431.25	547.65
974.3421	2472.2645	1441.2	556.45
974.4707	2473.6191	1428.6	546.15
974.5993	2474.973	1431.15	550.05
974.7278	2476.3262	1433.35	550.15
974.8563	2477.6787	1428.75	549.05
974.9848	2479.0305	1428.95	547.45
975.1132	2480.3816	1416.25	532.7
975.2417	2481.7319	1420.6	538.4
975.37	2483.0816	1419.25	535.6
975.4984	2484.4306	1424.95	541.55
975.6267	2485.7789	1418.3	537.45
975.755	2487.1264	1413.6	529.6
975.8833	2488.4733	1412.9	532.05
976.0115	2489.8195	1437.85	540.4
976.1397	2491.165	1420.85	533.85
976.2678	2492.5097	1417	533.6
976.3959	2493.8538	1414.7	531.25
976.524	2495.1972	1404.85	520.55
976.6521	2496.5398	1404.95	522.3
976.7801	2497.8818	1403	519.15
976.9081	2499.2231	1399.9	519.15
977.036	2500.5637	1401	517.6
977.164	2501.9035	1406.15	523.65
977.2918	2503.2427	1402	515.65
977.4197	2504.5812	1397.5	514.75
977.5475	2505.919	1394.45	511.45
977.6753	2507.256	1399	515.95
977.8031	2508.5924	1383.35	502.2
977.9308	2509.9281	1396.55	508.65
978.0585	2511.2631	1386.45	504.15
978.1861	2512.5974	1383.3	500.75
978.3137	2513.9309	1390.1	507.35
978.4413	2515.2638	1413.9	499.85
978.5689	2516.596	1388.65	507.45
978.6964	2517.9275	1380.55	496.35
978.8239	2519.2583	1383.05	499.8
978.9513	2520.5884	1382.75	498.05
979.0788	2521.9178	1386.7	503.5
979.2062	2523.2465	1381.6	497.7
979.3335	2524.5745	1374.2	492.5
979.4608	2525.9018	1379.6	497.3
979.5881	2527.2284	1374.5	493.35
979.7154	2528.5543	1370.25	490.4
979.8426	2529.8796	1373.8	492.15
979.9698	2531.2041	1372.3	490.1
980.0969	2532.5279	1375.7	494
980.224	2533.851	1378.35	495.15
980.3511	2535.1735	1371.45	490.2
980.4781	2536.4952	1374.65	495.1
980.6052	2537.8163	1371.85	489.3
980.7321	2539.1366	1367.7	486.9
980.8591	2540.4562	1369.4	486.95
980.986	2541.7752	1369.4	489.8
981.1129	2543.0935	1361.6	479.8
981.2397	2544.411	1359.15	475.5
981.3665	2545.7279	1364.25	483.1
981.4933	2547.0441	1368.75	487.35
981.62	2548.3596	1370.95	485.05
981.7467	2549.6744	1362.3	481.7
981.8734	2550.9885	1361.7	471.3
982.0001	2552.3019	1349.7	468.9
982.1267	2553.6146	1357.6	475.6
982.2532	2554.9266	1360.35	478.6
982.3798	2556.2379	1360.45	476.95
982.5063	2557.5485	1354.85	474.5
982.6327	2558.8585	1369.6	479.85
982.7592	2560.1677	1354.7	470.35
982.8856	2561.4762	1356.75	475.3
983.0119	2562.7841	1354.45	469.85
983.1383	2564.0913	1345	462.9
983.2646	2565.3977	1349.8	467.45
983.3908	2566.7035	1360.1	479.3
983.517	2568.0086	1357.55	474.7
983.6432	2569.313	1347	465.15
983.7694	2570.6167	1354.5	468.8
983.8955	2571.9197	1345.55	464.55
984.0216	2573.222	1350.5	465.4
984.1476	2574.5236	1347.6	466.65
984.2737	2575.8246	1346.25	463.5
984.3996	2577.1248	1347.3	462.7
984.5256	2578.4244	1346.6	464.5
984.6515	2579.7232	1348.1	466.05
984.7774	2581.0214	1369.65	456.3
984.9032	2582.3189	1348.9	469.95
985.029	2583.6157	1349.85	464.1
985.1548	2584.9118	1343.55	461.1
985.2806	2586.2072	1342.45	461.1
985.4063	2587.5019	1340.3	458.25
985.5319	2588.7959	1345.15	462.8
985.6576	2590.0893	1347.45	466.5
985.7832	2591.3819	1347.6	467.15
985.9087	2592.6739	1344.25	464.05
986.0343	2593.9652	1352.95	470.4
986.1597	2595.2557	1346.65	463.65
986.2852	2596.5456	1352.2	467
986.4106	2597.8348	1346.1	464.55
986.536	2599.1234	1343.5	462.35
986.6614	2600.4112	1345.8	464.2
986.7867	2601.6983	1355.15	470.45
986.912	2602.9848	1349.1	468.2
987.0372	2604.2705	1350.35	460.25
987.1624	2605.5556	1346.95	463.95
987.2876	2606.84	1341	461.65
987.4128	2608.1237	1346.7	464.2
987.5379	2609.4067	1341.05	459.95
987.6629	2610.689	1346.7	456.2
987.788	2611.9707	1339.3	455.1
987.913	2613.2516	1329.9	445.45
988.0379	2614.5319	1331.95	449.85
988.1629	2615.8115	1330.15	447.1
988.2878	2617.0903	1324.45	442.6
988.4126	2618.3685	1324.55	443.95
988.5375	2619.6461	1328.85	449.15
988.6622	2620.9229	1322.95	441.7
988.787	2622.199	1323.4	441.7
988.9117	2623.4745	1322	438.7
989.0364	2624.7493	1319.1	437.15
989.161	2626.0234	1315.3	435.3
989.2857	2627.2968	1323	441.6
989.4102	2628.5695	1320	438.65
989.5348	2629.8415	1315.4	434.05
989.6593	2631.1128	1321.35	437.55
989.7837	2632.3835	1311.9	430.45
989.9082	2633.6535	1314.7	433.55
990.0326	2634.9228	1308.05	425.15
990.1569	2636.1914	1311.85	432.05
990.2812	2637.4593	1311.3	427.35
990.4055	2638.7265	1314.7	430.55
990.5298	2639.9931	1310.8	429.45
990.654	2641.259	1310.9	427.75
990.7782	2642.5242	1305.35	422.45
990.9023	2643.7887	1313.95	433.3
991.0264	2645.0525	1297.1	415.8
991.1505	2646.3156	1302.4	420.55
991.2745	2647.5781	1301.15	420.7
991.3985	2648.8398	1300.55	420.6
991.5225	2650.1009	1339.5	420.5
991.6464	2651.3613	1296.65	417.5
991.7703	2652.6211	1296.6	414.65
991.8942	2653.8801	1295.3	414.85
992.018	2655.1385	1294.8	411.5
992.1418	2656.3961	1297.7	415.6
992.2655	2657.6531	1296.05	413.65
992.3892	2658.9094	1296.4	413.15
992.5129	2660.1651	1292	411.3
992.6366	2661.42	1299.35	418.8
992.7602	2662.6743	1303.55	420.1
992.8837	2663.9279	1296.9	417.4
993.0073	2665.1808	1304.55	421.3
993.1307	2666.433	1302.25	419.3
993.2542	2667.6846	1310.4	430.7
993.3776	2668.9354	1306.25	420.55
993.501	2670.1856	1306.85	423.2
993.6244	2671.4351	1306.9	426.3
993.7477	2672.6839	1306.9	423.6
993.8709	2673.9321	1308.15	426.75
993.9942	2675.1795	1309.75	429.85
994.1174	2676.4263	1306.35	425.45
994.2405	2677.6724	1314.85	434.6
994.3637	2678.9179	1316.2	433.75
994.4868	2680.1626	1314.6	434.8
994.6098	2681.4067	1312.05	429.75
994.7328	2682.6501	1312.05	429.8
994.8558	2683.8928	1312.4	431.5
994.9788	2685.1348	1304.8	421.8
995.1017	2686.3761	1301.3	420.8
995.2245	2687.6168	1303.35	423.6
995.3474	2688.8568	1297.55	416.7
995.4702	2690.0961	1286.2	406.95
995.5929	2691.3348	1294.1	411.85
995.7156	2692.5727	1288.7	405.7
995.8383	2693.81	1292.55	413.1
995.961	2695.0466	1292.9	411
996.0836	2696.2826	1292.05	408.55
996.2062	2697.5178	1313.35	410.4
996.3287	2698.7524	1296.4	415.4
996.4512	2699.9863	1297.4	412.45
996.5737	2701.2195	1293.5	413.75
996.6961	2702.452	1299.05	413.15
996.8185	2703.6839	1298.2	415.45
996.9408	2704.9151	1306.45	425.5
997.0631	2706.1456	1307.2	423.7
997.1854	2707.3755	1312.2	429.1
997.3077	2708.6046	1314.1	431.6
997.4299	2709.8331	1319.45	438.65
997.552	2711.0609	1323.65	442.25
997.6742	2712.2881	1329	447.9
997.7963	2713.5145	1333.35	449.6
997.9183	2714.7403	1337.65	458.05
998.0403	2715.9654	1351.65	467.6
998.1623	2717.1899	1366.7	471.65
998.2842	2718.4136	1363.6	483.4
998.4062	2719.6367	1365.3	484.05
998.528	2720.8591	1385.45	498.6
998.6498	2722.0809	1385.15	503.4
998.7716	2723.3019	1405.2	519
998.8934	2724.5223	1402.4	519.85
999.0151	2725.7421	1404.05	519.7
999.1368	2726.9611	1408	524.55
999.2584	2728.1795	1404.55	517.6
999.38	2729.3972	1394.05	513.1
999.5016	2730.6142	1404.35	508.65
999.6231	2731.8306	1376.9	493.15
999.7446	2733.0462	1375.9	492
999.8661	2734.2612	1358.95	472.5
999.9875	2735.4756	1339.6	456.05
1000.1089	2736.6892	1332.75	451.45
1000.2302	2737.9022	1319.45	438.85
1000.3515	2739.1145	1316.5	435.2
1000.4728	2740.3262	1314.8	423.75
1000.594	2741.5372	1300.95	420.5
1000.7152	2742.7475	1292.4	410.6
1000.8363	2743.9571	1286.25	403.85
1000.9575	2745.1661	1285.05	400
1001.0785	2746.3744	1268.7	387.7
1001.1996	2747.582	1269.75	385.35
1001.3206	2748.7889	1262.5	378
1001.4415	2749.9952	1253	373.15
1001.5625	2751.2008	1251.15	367.85
1001.6833	2752.4057	1252.25	369.95
1001.8042	2753.61	1248.3	364.35
1001.925	2754.8136	1246.5	361.65
1002.0458	2756.0165	1245.6	361.6
1002.1665	2757.2188	1238	356.3
1002.2872	2758.4204	1241.8	359.15
1002.4078	2759.6213	1245.3	361.6
1002.5285	2760.8215	1247.85	359.55
1002.649	2762.0211	1242.95	360.35
1002.7696	2763.22	1245.1	359.05
1002.8901	2764.4182	1241.5	359.65
1003.0106	2765.6158	1234.55	352.2
1003.131	2766.8127	1238.1	356.4
1003.2514	2768.009	1238.35	357.3
1003.3717	2769.2045	1235.15	353.3
1003.492	2770.3994	1230.7	344.1
1003.6123	2771.5936	1230.65	347.5
1003.7325	2772.7872	1230.45	349.3
1003.8527	2773.9801	1227.55	341.95
1003.9729	2775.1723	1241.4	340.35
1004.093	2776.3639	1229	348.75
1004.2131	2777.5548	1222	338.1
1004.3331	2778.745	1220	338.15
1004.4531	2779.9346	1220.7	339.05
1004.5731	2781.1235	1224.35	341.55
1004.693	2782.3117	1220.9	338.45
1004.8129	2783.4992	1225.8	344.85
1004.9328	2784.6861	1233.9	352.55
1005.0526	2785.8723	1237.95	353.7
1005.1723	2787.0579	1232.2	348.85
1005.2921	2788.2428	1233.35	351.5
1005.4118	2789.427	1237.05	356.45
1005.5314	2790.6106	1238.3	355.9
1005.651	2791.7935	1242.45	360.6
1005.7706	2792.9757	1255.55	374.95
1005.8902	2794.1573	1259.45	376.55
1006.0097	2795.3382	1262.35	380.75
1006.1291	2796.5184	1270.5	390.8
1006.2485	2797.698	1278.5	395.55
1006.3679	2798.8769	1285.75	403.3
1006.4873	2800.0551	1292.1	409.5
1006.6066	2801.2327	1304.85	420
1006.7258	2802.4096	1311.35	431.55
1006.8451	2803.5859	1322	440.4
1006.9642	2804.7615	1334.1	450
1007.0834	2805.9364	1343.95	464.2
1007.2025	2807.1106	1365.45	485.95
1007.3216	2808.2842	1379.2	496.25
1007.4406	2809.4572	1395.2	514.85
1007.5596	2810.6294	1420.1	537.15
1007.6785	2811.801	1443.85	563.45
1007.7975	2812.972	1469	590.15
1007.9163	2814.1423	1487.75	606.05
1008.0352	2815.3119	1530.75	648.15
1008.154	2816.4808	1551.85	671.05
1008.2727	2817.6491	1603.6	720.95
1008.3914	2818.8167	1628.05	746.4
1008.5101	2819.9837	1676.95	791.95
1008.6288	2821.15	1716.6	833.8
1008.7474	2822.3157	1749.4	868.7
1008.8659	2823.4807	1796.85	912.95
1008.9844	2824.645	1842.85	957.65
1009.1029	2825.8086	1880.95	998.55
1009.2214	2826.9716	1930.75	1050.3
1009.3398	2828.134	1955.15	1075.85
1009.4581	2829.2957	1993.35	1112.85
1009.5764	2830.4567	2016.7	1137.5
1009.6947	2831.617	2034.45	1152.85
1009.813	2832.7767	2041.8	1160.85
1009.9312	2833.9358	2043.6	1163.85
1010.0493	2835.0941	2034.6	1152
1010.1675	2836.2519	2015.2	1134.05
1010.2855	2837.4089	2008.95	1124.45
1010.4036	2838.5653	1985.85	1103.35
1010.5216	2839.7211	1985.7	1105.75
1010.6396	2840.8761	1980.7	1098.15
1010.7575	2842.0306	1987.35	1107.15
1010.8754	2843.1843	2001.05	1120.65
1010.9932	2844.3374	2023.8	1143.9
1011.111	2845.4899	2057.5	1175.05
1011.2288	2846.6417	2088.9	1208.3
1011.3465	2847.7928	2141.45	1261.8
1011.4642	2848.9433	2169.2	1286.45
1011.5818	2850.0931	2212.5	1331.45
1011.6995	2851.2422	2267.85	1384.35
1011.817	2852.3907	2298.4	1415.2
1011.9345	2853.5385	2342.9	1459.55
1012.052	2854.6857	2399.8	1489.3
1012.1695	2855.8323	2407.85	1526.75
1012.2869	2856.9781	2441.45	1561.9
1012.4042	2858.1233	2482.45	1601.8
1012.5216	2859.2679	2521	1637.8
1012.6389	2860.4118	2566.5	1685.25
1012.7561	2861.555	2601.3	1713.35
1012.8733	2862.6976	2614.25	1731.2
1012.9905	2863.8395	2639	1756.05
1013.1076	2864.9808	2675.8	1794.2
1013.2247	2866.1214	2685.65	1804.05
1013.3417	2867.2614	2694.15	1809.1
1013.4587	2868.4007	2702.75	1820
1013.5757	2869.5393	2712.6	1829.6
1013.6926	2870.6773	2734.95	1850.95
1013.8095	2871.8146	2751.55	1866.95
1013.9263	2872.9513	2742.8	1860.25
1014.0431	2874.0874	2730.85	1850.1
1014.1599	2875.2227	2723.35	1841.05
1014.2766	2876.3574	2707.75	1824.5
1014.3933	2877.4915	2690	1809.35
1014.51	2878.6249	2667.4	1785.4
1014.6266	2879.7577	2657.6	1774.7
1014.7431	2880.8898	2646.7	1754.25
1014.8596	2882.0212	2630.7	1750.2
1014.9761	2883.152	2621.6	1738.55
1015.0925	2884.2821	2621.65	1742.8
1015.2089	2885.4116	2615.6	1734.55
1015.3253	2886.5405	2617.8	1736.9
1015.4416	2887.6686	2631.4	1746.75
1015.5579	2888.7962	2628.95	1750.45
1015.6741	2889.923	2617.2	1737.1
1015.7903	2891.0493	2634.6	1751.65
1015.9065	2892.1748	2644.4	1763.65
1016.0226	2893.2997	2648.9	1766.8
1016.1387	2894.424	2665.35	1785.4
1016.2547	2895.5476	2684.85	1803.3
1016.3707	2896.6706	2699.85	1819.1
1016.4866	2897.7929	2698.75	1816.55
1016.6025	2898.9145	2717.85	1835.7
1016.7184	2900.0355	2739.3	1855.75
1016.8342	2901.1559	2750.6	1871.1
1016.95	2902.2756	2782	1899.9
1017.0658	2903.3946	2802.1	1920.75
1017.1815	2904.513	2827.2	1941.8
1017.2971	2905.6308	2845.35	1964.1
1017.4127	2906.7479	2844.2	1963.5
1017.5283	2907.8643	2875.75	1992.95
1017.6439	2908.9801	2882.55	1999.8
1017.7594	2910.0953	2883.3	2001
1017.8748	2911.2098	2885.4	2002.85
1017.9902	2912.3236	2888.85	2000.5
1018.1056	2913.4368	2869.1	1985.25
1018.2209	2914.5494	2853.25	1970.75
1018.3362	2915.6613	2832.75	1945.4
1018.4515	2916.7725	2805.85	1921.85
1018.5667	2917.8831	2786.5	1902.95
1018.6819	2918.9931	2770.4	1886.8
1018.797	2920.1024	2747.75	1864.65
1018.9121	2921.211	2731.6	1851.35
1019.0271	2922.319	2712.45	1829.8
1019.1421	2923.4264	2705.25	1824.4
1019.2571	2924.5331	2704.1	1824.25
1019.372	2925.6391	2700.7	1819.95
1019.4869	2926.7445	2692.45	1811.95
1019.6017	2927.8493	2703.95	1820.75
1019.7165	2928.9534	2700.45	1817.9
1019.8313	2930.0569	2708.05	1825.55
1019.946	2931.1597	2715.2	1832.35
1020.0606	2932.2619	2717.35	1835.95
1020.1753	2933.3634	2717.2	1837.35
1020.2899	2934.4643	2719.4	1830.4
1020.4044	2935.5645	2717.9	1829.5
1020.5189	2936.6641	2709.2	1822.25
1020.6334	2937.763	2677.8	1796.35
1020.7478	2938.8613	2663.15	1779.15
1020.8622	2939.959	2635.9	1750.45
1020.9765	2941.056	2577.6	1695.95
1021.0908	2942.1523	2533.6	1650.2
1021.2051	2943.248	2484.95	1602.85
1021.3193	2944.3431	2422.9	1541.8
1021.4334	2945.4375	2348.85	1464.8
1021.5476	2946.5313	2289.85	1410.3
1021.6617	2947.6244	2202.35	1319.5
1021.7757	2948.7169	2136.85	1253.95
1021.8897	2949.8087	2075.65	1193.65
1022.0037	2950.8999	2012.7	1130.2
1022.1176	2951.9904	1954.25	1073.45
1022.2315	2953.0803	1905.35	1023.85
1022.3453	2954.1696	1860.8	980.85
1022.4591	2955.2582	1829.55	948.45
1022.5728	2956.3462	1801.6	920.9
1022.6865	2957.4335	1768	885.8
1022.8002	2958.5202	1737.85	854.25
1022.9138	2959.6062	1721.4	840.65
1023.0274	2960.6916	1708.55	826.3
1023.141	2961.7764	1694.2	812.65
1023.2545	2962.8605	1689.05	805.3
1023.3679	2963.9439	1679.5	801.15
1023.4813	2965.0267	1668.05	784.6
1023.5947	2966.1089	1683.85	779.05
1023.708	2967.1905	1657.4	775.7
1023.8213	2968.2714	1653.75	773.2
1023.9346	2969.3516	1659.35	777.1
1024.0478	2970.4312	1673.8	786.1
1024.1609	2971.5102	1668.6	785.7
1024.274	2972.5885	1666.85	785.85
1024.3871	2973.6662	1670.55	784.1
1024.5002	2974.7432	1674.15	795.1
1024.6132	2975.8196	1669.3	786.65
1024.7261	2976.8954	1666.6	786.2
1024.839	2977.9705	1656.2	773.2
1024.9519	2979.045	1659.55	777.8
1025.0647	2980.1188	1642.6	762.6
1025.1775	2981.192	1622.6	742.2
1025.2902	2982.2645	1610.75	727.85
1025.4029	2983.3364	1592.05	710.25
1025.5156	2984.4077	1577.2	694.9
1025.6282	2985.4783	1579.35	692.9
1025.7407	2986.5483	1537.45	658.3
1025.8532	2987.6177	1522.6	641.55
1025.9657	2988.6864	1496.25	614.05
1026.0782	2989.7545	1479.85	595.6
1026.1906	2990.8219	1453.55	573.05
1026.3029	2991.8887	1433.25	550.3
1026.4152	2992.9548	1404.4	520.8
1026.5275	2994.0204	1386.15	505.75
1026.6397	2995.0852	1362.55	481.7
1026.7519	2996.1495	1344.6	463.2
1026.864	2997.2131	1324.55	443.75
1026.9761	2998.276	1302.9	422.55
1027.0882	2999.3383	1289.45	407.3
1027.2002	3000.4	1275.7	392.7
1027.3122	3001.4611	1263.7	384.4
1027.4241	3002.5215	1250.7	367.55
1027.536	3003.5812	1236.15	356.4
1027.6478	3004.6404	1227.85	345.2
1027.7596	3005.6989	1223.05	341.85
1027.8714	3006.7567	1215.3	332.95
1027.9831	3007.8139	1226.8	320.5
1028.0947	3008.8705	1194.55	313.95
1028.2064	3009.9264	1202.75	306.1
1028.3179	3010.9818	1181.25	300.45
1028.4295	3012.0364	1179.3	296.7
1028.541	3013.0905	1173.2	292.7
1028.6524	3014.1439	1173.55	291.55
1028.7638	3015.1966	1168.45	286.65
1028.8752	3016.2487	1165.5	282.7
1028.9865	3017.3002	1168.8	282
1029.0978	3018.3511	1155.15	277.6
1029.209	3019.4013	1156.9	274.7
1029.3202	3020.4509	1156.85	277.75
1029.4314	3021.4998	1159.95	277.05
1029.5425	3022.5481	1153.4	271.55
1029.6535	3023.5958	1149.55	267.9
1029.7645	3024.6428	1151.35	268.05
1029.8755	3025.6892	1149.05	268.3
1029.9864	3026.735	1149.35	268.8
1030.0973	3027.7802	1143.5	259.45
1030.2082	3028.8247	1152.35	270.75
1030.319	3029.8685	1150.25	269.05
1030.4297	3030.9118	1153.4	269.55
1030.5404	3031.9544	1149.25	269.75
1030.6511	3032.9963	1157.05	275.7
1030.7617	3034.0376	1153.1	272.95
1030.8723	3035.0783	1155.75	271.6
1030.9829	3036.1184	1157.5	273.6
1031.0934	3037.1578	1159.5	279.15
1031.2038	3038.1966	1160.1	275.75
1031.3142	3039.2348	1161.1	282
1031.4246	3040.2723	1167.25	276.9
1031.5349	3041.3092	1160.55	280.7
1031.6452	3042.3455	1160.15	277.9
1031.7554	3043.3811	1162.15	279.5
1031.8656	3044.4161	1157.85	275.25
1031.9758	3045.4505	1156.95	275.8
1032.0859	3046.4842	1156.5	274.65
1032.1959	3047.5173	1150.7	268.95
1032.3059	3048.5498	1156.05	274.55
1032.4159	3049.5816	1151.8	270.7
1032.5258	3050.6128	1149.65	266.75
1032.6357	3051.6434	1152.5	269.6
1032.7455	3052.6734	1149.85	266.9
1032.8553	3053.7027	1145.45	264.9
1032.9651	3054.7314	1140.7	258.35
1033.0748	3055.7594	1136.65	256.55
1033.1845	3056.7868	1136.6	254.55
1033.2941	3057.8136	1139.1	258
1033.4037	3058.8398	1138.1	257.1
1033.5132	3059.8653	1135.6	254.15
1033.6227	3060.8902	1138.6	257.45
1033.7321	3061.9145	1133.2	251.7
1033.8415	3062.9381	1128.2	246.2
1033.9509	3063.9612	1145.15	248.05
1034.0602	3064.9835	1126.25	244.5
1034.1694	3066.0053	1122.7	238.95
1034.2787	3067.0264	1120.4	239.05
1034.3878	3068.0469	1120.2	237.55
1034.497	3069.0668	1118.4	233
1034.6061	3070.086	1109.6	230
1034.7151	3071.1046	1106.4	222.5
1034.8241	3072.1226	1103.35	220.8
1034.9331	3073.1399	1098	216.45
1035.042	3074.1567	1091.4	209.05
1035.1508	3075.1727	1090.95	207.55
1035.2597	3076.1882	1084.4	204.2
1035.3684	3077.203	1081.4	199.85
1035.4772	3078.2173	1075.8	193.55
1035.5859	3079.2308	1078.5	192.7
1035.6945	3080.2438	1071.15	186.25
1035.8031	3081.2561	1067.95	188.8
1035.9117	3082.2678	1058.6	176.85
1036.0202	3083.2789	1052.85	171.25
1036.1286	3084.2893	1050	168.55
1036.2371	3085.2991	1045	162.15
1036.3454	3086.3083	1051.35	166.1
1036.4538	3087.3169	1041.85	158.95
1036.562	3088.3248	1040	159.4
1036.6703	3089.3321	1040.3	157.9
1036.7785	3090.3388	1031.5	150.85
1036.8866	3091.3449	1031.1	148.7
1036.9948	3092.3503	1026.9	142.45
1037.1028	3093.3551	1024.1	144.65
1037.2108	3094.3593	1020.15	138.75
1037.3188	3095.3629	1019.1	137.35
1037.4267	3096.3658	1019.7	135.85
1037.5346	3097.3681	1018.05	137.05
1037.6425	3098.3698	1014.6	129.55
1037.7503	3099.3708	1018.6	130.35
1037.858	3100.3713	1008.65	127.7
1037.9657	3101.3711	1011.95	132.45
1038.0734	3102.3702	1152.6	130.55
1038.181	3103.3688	1004.7	120.35
1038.2886	3104.3667	1003.2	122.3
1038.3961	3105.364	1000.35	120.3
1038.5036	3106.3607	1003.25	120.25
1038.611	3107.3568	999.85	118.2
1038.7184	3108.3522	996.95	117.15
1038.8257	3109.347	1001.85	119.8
1038.933	3110.3412	998.05	112.95
1039.0403	3111.3348	993.4	109.65
1039.1475	3112.3277	994.25	112.55
1039.2547	3113.32	988.95	109.35
1039.3618	3114.3117	995.4	113.55
1039.4689	3115.3028	987.45	107.8
1039.5759	3116.2932	987.7	104.25
1039.6829	3117.2831	991.65	106.35
1039.7898	3118.2723	984.4	104.55
1039.8967	3119.2608	984.35	102.25
1040.0035	3120.2488	985.45	104.45
1040.1103	3121.2361	982.25	99.3
1040.2171	3122.2229	981.7	99.85
1040.3238	3123.209	980.85	99.05
1040.4305	3124.1944	977.2	96.3
1040.5371	3125.1793	983.1	99.5
1040.6437	3126.1635	976.25	96.25
1040.7502	3127.1471	974.7	93.4
1040.8567	3128.1301	974.8	93.5
1040.9631	3129.1125	973.8	93.2
1041.0695	3130.0942	975.1	92.3
1041.1759	3131.0753	981	91.35
1041.2822	3132.0558	974.25	90.85
1041.3884	3133.0357	971.05	90.55
1041.4946	3134.015	970.6	88.75
1041.6008	3134.9936	970.95	88.45
1041.7069	3135.9716	989.5	87.2
1041.813	3136.949	969.3	85.95
1041.919	3137.9258	983.85	83.4
1042.025	3138.902	971.6	83.8
1042.1309	3139.8775	967.7	86.1
1042.2368	3140.8524	965.5	84.15
1042.3427	3141.8267	966.3	81.85
1042.4485	3142.8004	964.95	83.75
1042.5542	3143.7735	970.9	82.1
1042.6599	3144.7459	964.3	79.55
1042.7656	3145.7178	963.6	80.85
1042.8712	3146.689	960.5	81
1042.9768	3147.6596	962.55	79.15
1043.0823	3148.6295	960	77.7
1043.1878	3149.5989	957.2	75.95
1043.2932	3150.5676	956.3	74.8
1043.3986	3151.5357	959.4	79.6
1043.5039	3152.5032	957.95	76.05
1043.6092	3153.4701	956.65	73.85
1043.7145	3154.4364	958.1	74.85
1043.8197	3155.402	954.9	72.8
1043.9248	3156.367	958.7	74.6
1044.03	3157.3315	973.15	72.65
1044.135	3158.2952	953.5	73.45
1044.24	3159.2584	952	69.7
1044.345	3160.221	954.3	73.4
1044.4499	3161.1829	953.65	73.45
1044.5548	3162.1442	955.5	74
1044.6596	3163.105	950.45	69.7
1044.7644	3164.065	951.1	68.9
1044.8692	3165.0245	952	66.95
1044.9739	3165.9834	945.05	65.75
1045.0785	3166.9416	947.8	66.2
1045.1831	3167.8993	950.5	68.15
1045.2877	3168.8563	946.75	65.45
1045.3922	3169.8127	948.05	68.45
1045.4966	3170.7684	948.2	66.3
1045.6011	3171.7236	947.7	65.1
1045.7054	3172.6782	948.85	66.65
1045.8098	3173.6321	948.6	64.8
1045.914	3174.5854	952.85	65.35
1046.0183	3175.5381	946.35	63.35
1046.1224	3176.4902	945.2	66.55
1046.2266	3177.4417	945.15	64.1
1046.3307	3178.3926	944.25	63.3
1046.4347	3179.3428	943.7	64.5
1046.5387	3180.2924	943.15	62.45
1046.6427	3181.2415	941.7	59.75
1046.7466	3182.1899	941.65	59.7
1046.8504	3183.1377	941.8	60.2
1046.9542	3184.0848	944.25	61.05
1047.058	3185.0314	944.1	61.9
1047.1617	3185.9773	941.3	58.1
1047.2654	3186.9227	943.65	60.25
1047.369	3187.8674	941.05	60.55
1047.4726	3188.8115	946.95	60.05
1047.5761	3189.755	940.3	59.45
1047.6796	3190.6979	937.95	56.4
1047.783	3191.6402	936.05	56.2
1047.8864	3192.5818	935.85	54.65
1047.9898	3193.5229	960.5	60
1048.0931	3194.4633	938.7	58.3
1048.1963	3195.4031	936.65	56.6
1048.2995	3196.3423	937.4	57.15
1048.4027	3197.2809	934.55	52.95
1048.5058	3198.2189	939.6	58.4
1048.6089	3199.1563	939.7	50.75
1048.7119	3200.0931	935.8	55.9
1048.8148	3201.0292	935.9	55.35
1048.9178	3201.9648	935.65	54.35
1049.0206	3202.8997	937.75	53.25
1049.1235	3203.834	935.05	53.2
1049.2262	3204.7677	934.25	55.95
1049.329	3205.7008	936.15	53.7
1049.4317	3206.6333	933.85	55.6
1049.5343	3207.5652	937.25	53.6
1049.6369	3208.4964	934.25	53.8
1049.7394	3209.4271	933.2	54.4
1049.8419	3210.3571	930.55	48.55
1049.9444	3211.2865	929.7	46.25
1050.0468	3212.2154	930.95	47.95
1050.1491	3213.1436	936.05	51.1
1050.2514	3214.0712	939	50.95
1050.3537	3214.9982	932.85	50.2
1050.4559	3215.9246	930.15	49.6
1050.5581	3216.8503	929.85	48.5
1050.6602	3217.7755	930.15	46.95
1050.7623	3218.7001	929.3	49.25
1050.8643	3219.624	928.95	47.8
1050.9663	3220.5473	929.55	46.8
1051.0682	3221.4701	928.35	47.35
1051.1701	3222.3922	931.55	47.45
1051.2719	3223.3137	929.4	47.75
1051.3737	3224.2346	928.6	46.6
1051.4754	3225.1549	931.45	51.7
1051.5771	3226.0746	927.8	45.3
1051.6788	3226.9937	930.05	47.9
1051.7804	3227.9121	926.75	45.4
1051.8819	3228.83	928.45	46.3
1051.9834	3229.7473	925.5	44.65
1052.0849	3230.6639	927.15	44.55
1052.1863	3231.5799	924.75	44.8
1052.2876	3232.4954	927.45	45.6
1052.3889	3233.4102	926.1	44.25
1052.4902	3234.3244	924.45	44.3
1052.5914	3235.238	925.6	44.95
1052.6926	3236.151	948.95	40.8
1052.7937	3237.0634	926.05	44.7
1052.8948	3237.9752	926.45	45
1052.9958	3238.8864	926.15	43
1053.0968	3239.797	923.7	41.35
1053.1977	3240.7069	925.25	43.2
1053.2986	3241.6163	924.5	40.9
1053.3994	3242.5251	924.5	43.3
1053.5002	3243.4332	920.8	38.7
1053.6009	3244.3408	926.9	45.85
1053.7016	3245.2477	920.3	38.2
1053.8022	3246.154	923.9	42.4
1053.9028	3247.0598	921.55	38.75
1054.0034	3247.9649	921.6	39.45
1054.1039	3248.8694	923.8	42.9
1054.2043	3249.7733	918.1	37.2
1054.3047	3250.6766	920.15	38
1054.4051	3251.5793	920.8	38.35
1054.5054	3252.4814	916.9	34.9
1054.6056	3253.3829	916.6	35.1
1054.7058	3254.2838	916.2	35.3
1054.806	3255.1841	918.5	37.1
1054.9061	3256.0838	915.3	33.3
1055.0061	3256.9829	918.35	37.3
1055.1062	3257.8814	917.75	34.4
1055.2061	3258.7792	919.55	37.95
1055.306	3259.6765	915.6	33.7
1055.4059	3260.5731	915.7	35.35
1055.5057	3261.4692	914.5	32.2
1055.6055	3262.3647	915.15	33.45
1055.7052	3263.2595	914.15	32.35
1055.8049	3264.1538	912.35	31
1055.9045	3265.0474	916.15	33.25
1056.0041	3265.9404	911.7	31.75
1056.1036	3266.8329	911.9	30.8
1056.2031	3267.7247	921.3	28.85
1056.3025	3268.616	909.25	31.25
1056.4019	3269.5066	908.25	26.6
1056.5013	3270.3966	910.45	27.8
1056.6005	3271.286	909.35	29.05
